RED,IR,EKG,TIME
31705,51686,480
31742,51726,2
31768,51784,5
31807,51817,5
31796,51845,4
31815,51882,5
31841,51918,5
31878,51974,5
31911,52024,5
31933,52076,4
31953,52120,5
31973,52158,5
31990,52175,5
32012,52211,4
32046,52255,4
32080,52296,5
32097,52347,5
32128,52391,5
32144,52424,4
32158,52429,5
32161,52451,5
32190,52511,5
32213,52598,5
32278,52666,4
32311,52705,5
32334,52755,6
32312,52780,4
32368,52803,5
32385,52844,4
32406,52867,5
32428,52900,5
32455,52930,5
32476,52964,5
32497,52983,4
32537,53000,5
32521,53026,5
32534,53037,5
32559,53051,4
32604,53060,4
32558,53055,5
32567,53054,5
32566,53051,5
32574,53042,4
32553,53036,5
32553,53047,5
32564,53056,5
32573,53078,5
32587,53081,4
32589,53096,5
32599,53093,5
32601,53083,5
32599,53102,5
32599,53096,4
32599,53097,5
32590,53060,5
32591,53083,5
32592,53081,5
32588,53073,4
32569,53054,5
32567,53062,5
32567,53060,5
32563,53047,4
32556,53071,4
32559,53067,5
32580,53070,5
32577,53078,5
32582,53122,4
32582,53076,6
32579,53090,4
32584,53098,5
32598,53149,5
32615,53141,6
32624,53158,3
32633,53168,5
32632,53179,5
32638,53194,5
32648,53217,4
32666,53253,5
32697,53290,5
32719,53325,5
32735,53340,5
32742,53353,4
32744,53368,5
32761,53386,5
32775,53427,5
32808,53454,4
32832,53496,5
32850,53530,5
32850,53529,5
32860,53545,5
32866,53547,4
32879,53565,5
32879,53603,6
32897,53615,4
32909,53623,5
32904,53626,4
32909,53627,7
32917,53641,3
32936,53676,5
32949,53703,5
32975,53733,4
32985,53754,5
32995,53767,5
33003,53778,5
33007,53781,5
33013,53794,4
33022,53818,5
33035,53837,5
33054,53857,5
33050,53852,4
33043,53831,5
33034,53825,5
33028,53830,5
33042,53830,5
33053,53856,4
33059,53889,5
33083,53889,5
33074,53890,6
33083,53891,4
33083,53899,4
33079,53914,5
33101,53937,5
33102,53956,5
33110,53961,5
33106,53950,4
33089,53948,5
33096,53942,5
33097,53946,5
33105,53963,4
33115,53977,4
33125,53998,5
33124,53998,5
33131,53999,5
33129,53996,4
33128,54002,5
33142,54016,5
33154,54042,5
33171,54065,5
33174,54070,5
33191,54092,4
33191,54107,5
33209,54124,5
33221,54169,6
33250,54208,3
33279,54246,5
33297,54262,5
33293,54251,5
33276,54229,5
33271,54221,4
33273,54224,5
33270,54237,5
33299,54260,5
33314,54300,4
33325,54300,4
33325,54316,5
33337,54318,5
33348,54352,5
33366,54399,4
33406,54444,5
33403,54490,5
33455,54529,5
33468,54568,5
33495,54606,4
33484,54637,6
33532,54679,4
33563,54716,5
33598,54780,5
33617,54815,6
33656,54852,3
33673,54885,5
33700,54927,5
33747,54972,5
33770,55047,4
33819,55133,5
33879,55216,5
33964,55299,5
33988,55377,4
34024,55454,4
34061,55504,5
34096,55535,5
34077,55527,5
34091,55538,4
34097,55567,5
34115,55571,5
34110,55573,5
34124,55599,5
34147,55608,4
34169,55621,5
34173,55635,6
34182,55628,4
34192,55644,5
34177,55608,4
34190,55659,5
34203,55684,5
34221,55720,5
34245,55722,5
34259,55757,4
34256,55769,5
34256,55780,5
34268,55781,5
34278,55776,4
34294,55800,5
34312,55821,5
34308,55857,5
34321,55821,5
34322,55833,4
34330,55826,5
34336,55884,5
34346,55886,5
34366,55917,5
34382,55941,4
34391,55968,5
34410,55951,5
34397,55967,6
34395,55944,4
34411,55991,4
34419,56005,5
34435,56015,5
34426,55992,5
34434,56020,5
34419,56006,4
34422,55997,5
34429,56001,5
34437,56031,5
34447,56059,4
34462,56075,5
34469,56087,5
34461,56080,5
34448,56070,5
34444,56074,4
34469,56087,5
34490,56145,5
34522,56186,5
34525,56193,5
34536,56213,5
34538,56198,4
34515,56177,5
34509,56164,5
34510,56168,6
34511,56167,3
34528,56196,5
34510,56177,5
34491,56128,5
34482,56105,4
34475,56076,4
34457,56081,5
34468,56086,5
34479,56101,5
34474,56091,4
34464,56083,5
34452,56068,5
34427,56045,5
34410,56039,5
34424,56060,4
34436,56079,5
34450,56088,5
34448,56074,5
34432,56054,5
34403,56022,4
34398,56013,6
34391,56009,4
34400,56018,5
34393,56005,5
34370,55958,4
34342,55930,5
34298,55873,5
34261,55810,5
34228,55791,4
34217,55785,4
34223,55788,5
34217,55781,5
34214,55775,5
34209,55760,4
34180,55740,5
34160,55711,5
34162,55717,5
34156,55698,5
34158,55694,4
34143,55675,5
34135,55648,5
34103,55581,5
34071,55533,5
34065,55501,4
34049,55498,5
34050,55500,6
34060,55495,4
34046,55464,5
34034,55448,4
34039,55444,5
34023,55439,5
34038,55450,5
34057,55460,4
34053,55477,4
34063,55497,5
34061,55457,5
34048,55440,5
34015,55415,4
34021,55409,5
34024,55416,5
34017,55388,5
33965,55359,5
33981,55319,4
33952,55284,5
33934,55262,5
33904,55241,5
33925,55246,5
33923,55243,4
33930,55255,5
33947,55258,5
33944,55262,6
33953,55275,4
33944,55273,4
34004,55295,5
33984,55323,5
33978,55339,5
33995,55368,4
34042,55388,4
34022,55385,5
34007,55375,5
34007,55353,5
34020,55374,4
34046,55415,5
34071,55466,5
34096,55510,5
34109,55514,5
34142,55557,4
34169,55603,5
34194,55650,5
34262,55742,5
34340,55893,5
34446,56045,5
34558,56198,4
34642,56284,5
34719,56450,5
34792,56576,5
34885,56686,4
34963,56798,5
35053,56958,5
35149,57105,5
35247,57241,4
35300,57349,5
35380,57441,5
35457,57589,5
35547,57720,5
35631,57929,4
35709,58004,5
35783,58129,5
35846,58258,5
35888,58342,5
35927,58395,4
35960,58462,5
35999,58520,5
36026,58570,5
36041,58592,5
36030,58562,4
35995,58502,6
35960,58449,4
35946,58431,5
35946,58407,5
35924,58385,4
35904,58324,5
35836,58178,5
35735,58047,5
35681,57938,4
35633,57866,5
35590,57769,5
35493,57578,5
35378,57379,5
35258,57197,4
35171,57030,5
35092,56931,5
35052,56856,5
35040,56831,5
35047,56829,4
35036,56820,5
35047,56831,5
35051,56838,5
35023,56768,5
34970,56685,4
34924,56578,5
34862,56467,6
34819,56391,4
34801,56367,4
34794,56361,4
34804,56360,5
34824,56396,5
34855,56436,5
34873,56465,4
34892,56484,5
34917,56519,5
34947,56565,5
34974,56614,5
35015,56686,4
35061,56777,5
35121,56867,5
35184,56974,5
35225,57039,5
35225,57041,4
35222,57037,5
35194,56997,5
35164,56950,5
35106,56813,5
34988,56612,4
34858,56348,5
34686,56059,5
34506,55802,5
34393,55623,4
34314,55485,4
34234,55355,5
34170,55213,5
34091,55099,5
34032,55006,4
33988,54932,5
33966,54891,5
33939,54853,5
33909,54789,5
33887,54746,4
33862,54696,5
33856,54673,5
33840,54672,5
33859,54668,5
33866,54681,4
33870,54703,5
33867,54685,5
33850,54657,5
33839,54639,5
33827,54610,5
33810,54606,4
33810,54583,5
33808,54585,5
33803,54564,4
33786,54536,4
33756,54495,5
33718,54457,5
33724,54422,5
33700,54409,4
33699,54384,5
33650,54342,5
33655,54303,5
33630,54269,5
33617,54242,4
33588,54232,5
33613,54226,5
33610,54220,5
33600,54200,5
33595,54184,4
33585,54177,5
33572,54168,6
33563,54152,4
33594,54151,5
33560,54159,4
33565,54162,6
33560,54160,4
33601,54157,5
33556,54161,4
33550,54159,4
33559,54168,5
33584,54180,5
33574,54199,5
33590,54216,4
33583,54209,5
33574,54196,5
33566,54188,5
33563,54171,5
33561,54170,4
33557,54148,5
33557,54168,5
33549,54170,5
33527,54141,5
33511,54084,4
33490,54102,5
33478,54093,5
33470,54088,5
33468,54049,5
33444,54022,4
33397,53952,5
33361,53887,5
33311,53862,5
33285,53774,4
33253,53733,5
33220,53676,5
33178,53656,5
33142,53549,5
33087,53466,4
33040,53388,5
32995,53347,5
32963,53268,5
32928,53226,5
32899,53170,4
32881,53147,5
32845,53092,5
32827,53048,5
32803,53021,5
32797,53009,5
32784,52995,4
32773,52981,5
32757,52968,5
32752,52941,6
32730,52921,3
32732,52896,5
32713,52872,5
32703,52861,5
32694,52863,4
32678,52815,5
32673,52797,5
32659,52771,5
32650,52761,5
32652,52760,4
32640,52761,5
32640,52762,5
32622,52748,5
32620,52733,5
32591,52723,4
32578,52687,5
32557,52670,5
32545,52669,5
32536,52650,5
32536,52646,4
32530,52651,6
32530,52646,4
32520,52648,5
32519,52644,5
32524,52642,6
32518,52632,3
32536,52631,5
32523,52626,5
32525,52618,4
32516,52602,5
32504,52582,5
32521,52580,5
32508,52560,5
32505,52556,4
32490,52522,5
32500,52502,5
32489,52500,5
32473,52468,5
32483,52479,4
32480,52482,5
32478,52474,5
32471,52457,5
32470,52452,5
32478,52447,4
32479,52443,5
32474,52437,6
32483,52448,4
32490,52443,4
32486,52451,4
32479,52442,5
32490,52454,5
32483,52460,5
32471,52472,4
32476,52474,5
32485,52476,5
32479,52482,5
32475,52473,5
32474,52473,4
32490,52479,5
32486,52494,5
32486,52501,5
32494,52508,5
32499,52510,4
32501,52520,5
32504,52506,5
32498,52502,5
32499,52501,5
32493,52497,4
32497,52507,5
32508,52524,5
32507,52522,6
32520,52533,3
32519,52553,4
32532,52562,5
32536,52564,5
32538,52567,5
32513,52583,4
32548,52602,5
32565,52606,5
32575,52619,5
32537,52629,5
32567,52621,4
32565,52631,5
32572,52624,5
32579,52650,5
32578,52649,5
32589,52658,4
32584,52659,5
32603,52640,5
32581,52619,5
32567,52610,5
32562,52599,5
32592,52572,4
32537,52542,5
32509,52480,5
32443,52390,6
32425,52310,3
32350,52238,5
32320,52170,5
32287,52106,5
32268,52058,4
32246,52009,5
32222,51977,5
32202,51914,5
32187,51856,5
32225,51899,4
32232,51906,5
32240,51901,5
32245,51858,5
32233,51884,5
32208,51886,4
32219,51882,4
32237,51878,5
32264,51957,5
32293,52005,5
32334,52058,4
32360,52131,6
32387,52162,4
32423,52199,5
32447,52231,4
32479,52314,5
32509,52321,5
32537,52341,5
32570,52371,5
32593,52429,4
32596,52396,5
32593,52373,5
32574,52325,5
32550,52290,5
32545,52233,4
32519,52199,5
32457,52008,5
32437,51946,5
32385,51858,5
32332,51786,4
32294,51726,5
32255,51675,5
32242,51654,5
32228,51634,5
32222,51624,4
32231,51625,5
32245,51654,6
32250,51661,4
32251,51675,4
32248,51668,5
32263,51684,5
32271,51716,5
32281,51766,5
32300,51784,4
32305,51808,5
32313,51816,5
32321,51850,5
32348,51901,5
32379,51937,4
32396,51964,5
32406,51991,5
32411,52001,5
32423,52003,5
32429,52007,4
32432,52026,5
32447,52044,5
32444,52057,5
32450,52053,5
32446,52050,4
32434,52043,5
32428,52031,5
32418,52016,6
32426,52023,3
32432,52030,5
32431,52023,5
32436,52019,5
32422,52010,5
32421,52000,4
32422,52003,5
32422,52001,5
32430,52015,5
32423,52019,5
32435,52025,4
32428,52026,5
32434,52023,5
32437,52018,5
32431,52010,5
32440,52022,4
32443,52032,5
32440,52028,5
32432,52020,5
32433,52002,4
32415,51985,5
32412,51957,4
32404,51965,5
32407,51948,5
32390,51943,4
32372,51920,5
32370,51897,5
32371,51888,5
32373,51879,5
32365,51868,4
32349,51853,5
32359,51875,5
32351,51865,5
32353,51870,5
32357,51884,4
32351,51882,5
32369,51879,5
32349,51880,5
32358,51876,5
32358,51877,4
32352,51890,5
32364,51892,5
32360,51910,5
32364,51919,4
32371,51919,4
32369,51925,6
32341,51925,4
32366,51931,5
32369,51943,4
32379,51958,5
32357,51963,5
32398,51974,5
32390,51979,5
32384,51992,4
32376,51997,5
32405,52011,5
32402,51997,5
32396,52002,5
32429,52002,4
32394,51993,5
32385,51980,5
32389,51986,5
32412,51972,5
32385,51980,4
32381,51977,5
32373,51971,5
32399,51965,5
32368,51950,4
32369,51945,4
32354,51946,5
32376,51955,6
32369,51963,6
32368,51960,2
32369,51956,5
32381,51942,5
32360,51959,5
32372,51967,5
32381,51971,4
32384,51944,5
32397,51987,5
32390,51989,5
32395,52003,5
32400,51962,4
32406,51998,5
32400,52009,5
32401,52016,5
32413,52031,5
32419,52048,4
32416,52036,5
32422,52049,5
32439,52085,5
32441,52085,5
32462,52098,4
32470,52141,5
32485,52194,5
32489,52144,5
32485,52144,4
32487,52140,5
32476,52145,5
32478,52141,5
32487,52148,5
32494,52158,4
32489,52155,5
32486,52149,5
32486,52152,5
32491,52149,5
32492,52141,4
32504,52151,5
32503,52149,5
32500,52156,5
32503,52145,5
32506,52146,4
32506,52153,5
32512,52166,5
32530,52179,5
32533,52190,4
32544,52191,6
32542,52206,4
32541,52215,5
32561,52224,5
32554,52239,4
32581,52265,5
32597,52284,5
32609,52304,5
32614,52308,5
32614,52316,4
32623,52325,5
32629,52348,5
32648,52358,5
32656,52374,5
32664,52386,4
32666,52401,5
32660,52387,5
32665,52402,5
32664,52403,5
32675,52409,4
32683,52418,5
32685,52433,5
32682,52428,5
32680,52428,4
32672,52428,5
32684,52430,6
32694,52434,4
32695,52448,5
32700,52468,4
32708,52479,5
32718,52487,5
32719,52493,5
32731,52492,5
32732,52514,4
32742,52524,5
32751,52532,5
32749,52546,5
32765,52540,5
32752,52536,4
32738,52523,5
32749,52533,5
32753,52540,5
32745,52539,4
32742,52547,4
32749,52541,5
32748,52539,5
32742,52528,5
32726,52522,4
32729,52514,5
32731,52517,5
32729,52508,5
32733,52506,5
32726,52506,4
32720,52504,5
32714,52495,5
32716,52489,5
32712,52487,5
32706,52476,4
32701,52473,5
32704,52462,5
32708,52471,5
32711,52475,5
32718,52482,4
32719,52508,5
32729,52504,5
32732,52519,5
32739,52540,4
32733,52541,4
32762,52577,5
32765,52587,5
32786,52599,5
32759,52599,5
32788,52615,4
32785,52595,5
32783,52590,5
32752,52590,5
32789,52593,4
32798,52595,5
32789,52586,5
32793,52570,5
32780,52571,5
32787,52564,4
32788,52571,5
32829,52578,5
32796,52593,5
32800,52606,5
32806,52607,4
32836,52594,5
32812,52594,5
32814,52600,5
32813,52609,4
32825,52615,4
32836,52643,5
32852,52657,5
32861,52701,5
32880,52699,4
32876,52707,6
32874,52708,4
32883,52702,5
32890,52708,5
32904,52754,4
32929,52787,5
32939,52801,5
32938,52790,5
32961,52846,5
32970,52872,5
32988,52897,4
33015,52942,5
33060,53010,5
33083,53074,5
33120,53131,4
33150,53196,5
33189,53237,5
33217,53303,5
33256,53368,4
33302,53483,4
33344,53523,5
33401,53599,6
33440,53659,4
33461,53728,4
33476,53725,5
33496,53745,5
33516,53783,5
33549,53839,5
33595,53908,4
33632,53963,5
33656,53998,5
33670,53981,5
33683,54009,5
33735,54107,4
33826,54253,5
33935,54433,5
34074,54670,5
34214,54875,5
34306,55037,4
34401,55150,5
34469,55269,5
34538,55346,5
34575,55417,5
34639,55473,4
34668,55521,5
34673,55539,5
34685,55546,6
34693,55529,3
34695,55514,5
34670,55442,5
34590,55279,5
34442,55009,5
34257,54712,4
34080,54413,5
33933,54180,5
33821,54016,5
33757,53922,5
33723,53882,4
33718,53866,5
33710,53869,5
33703,53876,5
33709,53872,5
33707,53862,4
33694,53862,5
33680,53835,5
33658,53797,5
33629,53742,4
33598,53684,5
33576,53661,4
33561,53645,5
33563,53636,5
33570,53648,6
33567,53657,3
33569,53641,5
33561,53630,5
33539,53605,5
33528,53566,4
33501,53532,5
33493,53525,5
33484,53515,5
33482,53512,5
33486,53516,4
33474,53516,5
33481,53515,5
33484,53520,5
33474,53516,5
33470,53515,4
33475,53507,5
33473,53510,5
33472,53488,5
33469,53478,4
33446,53456,5
33433,53427,6
33421,53411,4
33411,53385,5
33396,53368,4
33380,53353,5
33368,53324,5
33367,53317,5
33355,53291,5
33344,53271,4
33323,53251,5
33333,53264,5
33328,53258,5
33328,53255,5
33323,53246,4
33315,53224,5
33312,53214,5
33293,53206,5
33293,53202,5
33302,53202,4
33297,53191,5
33259,53174,5
33274,53165,5
33249,53135,4
33233,53117,5
33206,53097,5
33217,53086,6
33204,53043,4
33178,52992,4
33120,52929,5
33099,52856,5
33048,52794,5
33019,52740,5
33017,52701,4
32974,52660,5
32944,52628,5
32927,52592,5
32940,52565,5
32892,52533,4
32873,52497,5
32858,52470,5
32856,52440,5
32823,52413,4
32802,52376,4
32796,52368,5
32794,52355,5
32781,52347,5
32777,52337,5
32761,52313,4
32766,52292,5
32750,52303,5
32756,52301,6
32757,52281,3
32742,52241,5
32726,52238,5
32712,52227,5
32717,52228,5
32709,52210,4
32718,52227,5
32732,52242,5
32730,52253,5
32734,52284,5
32746,52292,4
32757,52305,5
32766,52335,5
32781,52376,5
32789,52368,4
32803,52382,4
32809,52396,5
32825,52450,5
32834,52435,5
32838,52443,4
32841,52445,6
32849,52474,4
32855,52479,5
32864,52497,5
32881,52527,4
32881,52548,5
32896,52562,5
32897,52551,5
32911,52563,5
32910,52577,4
32919,52602,5
32927,52610,5
32935,52620,5
32937,52638,5
32950,52654,4
32955,52663,5
32947,52679,5
32965,52693,5
32972,52704,4
32972,52708,4
32976,52714,5
32981,52726,5
32983,52726,5
32991,52739,4
32998,52753,5
33008,52777,6
33004,52778,4
33016,52788,5
33017,52801,4
33029,52813,5
33030,52827,5
33035,52830,5
33030,52825,5
33029,52816,4
33021,52816,5
33022,52822,5
33027,52841,5
33037,52843,5
33048,52862,4
33056,52881,5
33079,52911,5
33086,52937,5
33110,52966,4
33122,52996,4
33132,53018,5
33133,53001,5
33107,52967,5
33089,52940,4
33073,52907,5
33060,52891,5
33050,52880,6
33056,52886,4
33056,52886,4
33054,52888,5
33050,52889,5
33046,52874,5
33050,52853,5
33031,52829,4
33006,52804,5
32990,52773,5
32973,52728,5
32946,52699,5
32931,52655,4
32903,52607,5
32873,52557,5
32840,52531,5
32826,52510,4
32821,52487,4
32811,52474,5
32801,52446,5
32796,52442,5
32787,52428,5
32786,52424,4
32766,52396,5
32741,52353,5
32717,52321,6
32702,52276,3
32675,52239,5
32648,52202,5
32620,52155,5
32596,52098,5
32557,52039,4
32536,52005,5
32514,51971,5
32497,51933,5
32466,51896,5
32415,51811,4
32380,51724,5
32326,51641,5
32284,51564,5
32214,51487,4
32192,51409,5
32170,51340,5
32137,51284,5
32062,51202,5
32052,51147,4
32008,51071,6
31971,51018,4
31946,50947,5
31915,50910,5
31880,50854,4
31851,50805,5
31862,50755,5
31805,50713,5
31766,50649,5
31737,50597,4
31732,50538,5
31681,50490,5
31641,50453,5
31615,50398,5
31612,50364,4
31579,50333,5
31559,50292,5
31532,50273,5
31515,50216,5
31502,50214,4
31474,50173,5
31459,50135,5
31429,50074,5
31410,50062,4
31390,50032,5
31372,50018,6
31375,50012,4
31382,50068,5
31397,50104,5
31421,50137,4
31421,50152,5
31443,50197,5
31471,50256,5
31503,50313,4
31526,50396,5
31571,50441,5
31613,50517,5
31662,50614,4
31719,50745,4
31783,50833,5
31860,50960,5
31929,51071,5
31985,51184,4
32035,51259,5
32080,51349,5
32133,51450,5
32183,51548,5
32240,51643,4
32287,51736,5
32339,51823,5
32383,51906,6
32431,51986,4
32464,52069,4
32510,52149,5
32538,52236,5
32598,52339,5
32647,52445,5
32715,52541,4
32766,52645,5
32819,52746,5
32868,52827,5
32903,52904,4
32934,52971,4
32976,53032,5
33011,53096,5
33045,53174,5
33088,53255,4
33140,53344,5
33186,53421,5
33219,53482,5
33256,53556,5
33301,53618,5
33331,53672,4
33360,53731,5
33394,53793,5
33435,53854,5
33452,53886,4
33458,53881,5
33447,53867,5
33449,53878,5
33459,53891,5
33467,53924,4
33481,53935,5
33494,53956,5
33493,53964,5
33493,53974,4
33508,53986,4
33498,53993,5
33512,53996,5
33511,54022,5
33530,54047,4
33537,54056,5
33532,54057,5
33534,54048,5
33527,54046,5
33528,54041,4
33528,54053,6
33536,54067,4
33536,54082,5
33557,54096,5
33548,54088,4
33531,54060,5
33532,54046,5
33527,54047,5
33529,54049,5
33530,54052,4
33528,54053,5
33519,54021,5
33504,54004,5
33490,53978,4
33468,53949,4
33460,53934,5
33451,53916,5
33442,53902,5
33431,53880,4
33411,53824,5
33376,53774,5
33340,53730,5
33322,53700,5
33315,53682,4
33315,53686,5
33320,53690,6
33316,53695,4
33329,53689,5
33318,53685,4
33309,53677,5
33312,53674,5
33301,53679,5
33312,53670,5
33307,53673,4
33292,53653,5
33252,53624,5
33252,53582,5
33233,53543,4
33214,53512,4
33173,53497,5
33198,53490,5
33189,53476,5
33182,53462,4
33170,53427,5
33144,53406,5
33139,53385,5
33116,53377,5
33150,53368,4
33115,53366,5
33121,53377,5
33116,53357,5
33139,53346,5
33091,53315,4
33087,53324,5
33097,53322,5
33107,53319,5
33086,53319,5
33074,53283,4
33055,53250,5
33043,53239,5
33029,53203,5
33006,53191,4
33005,53188,5
33006,53159,5
32996,53175,5
32992,53166,5
32984,53142,4
32965,53101,5
32961,53114,5
32969,53121,5
32977,53126,5
32974,53131,5
32977,53145,4
32984,53152,5
32990,53155,5
32991,53184,5
32988,53166,4
33006,53177,5
33007,53197,5
33017,53236,5
33024,53223,5
33036,53249,4
33034,53264,5
33061,53301,5
33065,53300,5
33075,53317,4
33091,53342,5
33104,53356,5
33107,53361,5
33106,53372,5
33123,53384,4
33109,53380,5
33108,53383,6
33114,53390,4
33123,53394,5
33120,53403,4
33120,53399,7
33126,53410,3
33135,53412,5
33132,53426,5
33135,53431,4
33143,53445,5
33138,53442,5
33145,53437,5
33127,53424,5
33117,53413,4
33122,53405,5
33123,53404,5
33115,53412,5
33119,53403,4
33107,53400,5
33105,53398,5
33102,53374,5
33090,53366,5
33082,53349,4
33077,53362,5
33085,53363,5
33085,53374,6
33073,53350,4
33056,53326,4
33049,53303,5
33029,53285,5
33039,53270,5
33027,53263,5
33021,53259,4
33026,53256,5
33013,53240,5
33003,53231,5
32997,53214,4
32991,53192,4
32964,53158,5
32939,53115,5
32917,53077,5
32892,53029,4
32864,52991,5
32847,52953,5
32825,52903,5
32807,52874,5
32794,52852,5
32768,52802,4
32752,52778,5
32728,52741,5
32720,52710,6
32697,52693,3
32679,52673,5
32682,52656,5
32674,52657,5
32663,52643,5
32660,52626,4
32660,52617,5
32644,52613,5
32645,52605,5
32637,52585,4
32626,52572,4
32616,52561,5
32606,52549,5
32594,52518,5
32567,52479,4
32536,52429,5
32518,52389,5
32494,52362,5
32474,52329,5
32454,52307,4
32457,52291,6
32438,52273,4
32413,52252,5
32408,52234,5
32392,52194,6
32363,52167,3
32337,52120,5
32333,52095,5
32306,52059,5
32269,52024,4
32258,52003,5
32253,51961,5
32233,51947,5
32196,51910,4
32201,51893,4
32190,51870,5
32180,51851,5
32155,51819,5
32152,51788,4
32126,51759,5
32101,51736,5
32104,51707,5
32073,51679,5
32075,51656,4
32047,51641,5
32060,51618,6
32029,51592,4
32010,51561,5
32001,51553,4
31993,51526,5
31973,51510,5
31972,51497,5
31963,51492,5
31955,51467,4
31940,51461,5
31928,51430,5
31906,51390,5
31880,51358,4
31857,51331,4
31842,51296,5
31820,51248,5
31802,51189,5
31787,51178,4
31776,51161,5
31766,51157,5
31778,51137,5
31779,51158,5
31772,51152,5
31765,51147,4
31772,51147,5
31760,51134,6
31758,51115,4
31765,51119,4
31757,51140,5
31758,51136,5
31764,51131,5
31763,51118,5
31765,51140,4
31765,51117,5
31766,51132,5
31759,51132,5
31766,51125,4
31759,51108,4
31739,51074,5
31733,51052,5
31712,51026,5
31699,51006,4
31703,50985,5
31681,50974,5
31674,50964,5
31663,50936,5
31653,50902,5
31634,50871,4
31617,50844,5
31608,50838,5
31607,50837,6
31607,50839,3
31612,50837,5
31611,50831,5
31607,50825,5
31605,50820,5
31604,50816,4
31594,50816,5
31601,50826,5
31609,50822,5
31595,50818,4
31596,50795,4
31585,50795,5
31581,50796,5
31578,50795,5
31586,50802,4
31597,50806,5
31593,50816,5
31580,50789,5
31565,50744,5
31522,50698,4
31503,50652,6
31496,50645,4
31484,50628,5
31480,50617,5
31464,50588,4
31443,50555,5
31413,50522,5
31402,50490,5
31380,50462,5
31364,50416,4
31349,50366,5
31318,50304,5
31268,50232,5
31226,50164,4
31198,50110,5
31161,50052,5
31132,49999,5
31109,49950,5
31079,49887,4
31046,49826,5
31017,49778,5
30989,49725,5
30975,49697,5
30976,49679,4
30959,49659,5
30937,49613,6
30906,49568,4
30886,49516,5
30858,49484,4
30857,49477,5
30850,49460,5
30842,49441,5
30839,49430,5
30837,49427,4
30832,49433,5
30845,49460,5
30862,49491,5
30888,49535,4
30924,49578,5
30946,49624,5
30981,49650,5
31006,49702,5
31020,49732,4
31036,49736,5
31050,49755,5
31042,49745,5
31030,49735,5
31022,49704,4
31003,49678,5
30974,49649,5
30939,49618,6
30944,49599,4
30931,49568,4
30906,49534,5
30841,49499,5
30864,49469,5
30837,49432,5
30827,49417,4
30764,49378,5
30784,49342,5
30754,49301,5
30730,49253,4
30717,49232,5
30686,49209,5
30684,49200,5
30682,49204,5
30726,49228,4
30702,49244,5
30709,49270,5
30723,49289,5
30775,49344,5
30769,49383,5
30798,49421,4
30798,49443,5
30825,49460,5
30834,49455,5
30803,49440,4
30802,49427,5
30808,49429,5
30828,49460,5
30852,49489,9
30878,49530,5
30903,49545,5
30916,49601,5
30944,49644,4
30979,49694,5
31016,49730,5
31066,49849,5
31135,49950,5
31180,50037,4
31232,50108,5
31269,50174,5
31304,50228,5
31352,50303,5
31425,50438,4
31505,50585,6
31585,50701,4
31665,50832,5
31735,50970,5
31793,51046,4
31855,51151,5
31934,51286,5
32031,51490,5
32197,51738,4
32346,51959,4
32438,52092,5
32467,52168,5
32483,52188,5
32490,52204,4
32493,52240,5
32533,52343,5
32595,52479,5
32681,52618,5
32755,52758,4
32797,52841,5
32842,52931,5
32883,53025,5
32921,53108,5
32989,53240,4
33052,53372,5
33123,53508,6
33201,53655,4
33250,53762,5
33278,53842,4
33313,53924,5
33359,54018,5
33405,54126,5
33468,54220,4
33509,54310,4
33526,54349,5
33532,54370,5
33529,54378,5
33527,54375,4
33525,54404,5
33554,54472,5
33581,54532,5
33626,54593,5
33613,54586,4
33560,54521,5
33552,54504,5
33531,54422,5
33434,54225,5
33304,53980,4
33202,53782,5
33115,53668,5
33074,53585,5
33043,53527,5
33012,53488,4
33010,53490,5
33030,53509,5
33042,53541,5
33051,53546,4
33049,53531,4
33037,53504,5
33010,53464,5
32984,53433,5
32955,53382,4
32917,53300,5
32868,53192,5
32785,53055,5
32707,52895,5
32614,52736,4
32507,52531,5
32378,52306,5
32265,52120,5
32175,52009,5
32112,51900,5
32057,51798,4
32010,51717,5
31971,51643,5
31933,51583,5
31913,51537,4
31897,51502,5
31872,51453,5
31840,51401,5
31811,51334,4
31765,51270,4
31724,51188,5
31697,51136,5
31687,51140,5
31697,51154,4
31708,51180,5
31733,51186,5
31723,51182,5
31719,51162,5
31701,51126,4
31680,51091,5
31655,51061,5
31653,51030,5
31631,51001,5
31621,50972,4
31581,50940,6
31576,50895,4
31543,50842,5
31515,50801,5
31481,50777,4
31484,50739,5
31461,50698,5
31438,50631,5
31391,50562,4
31351,50490,4
31309,50425,5
31279,50359,5
31268,50300,5
31208,50240,4
31176,50179,5
31144,50106,5
31121,50032,5
31072,49966,5
31044,49928,4
31029,49901,5
31033,49869,5
31005,49830,6
30987,49802,4
30979,49782,4
30990,49774,5
30978,49763,5
30976,49757,5
30979,49752,5
30973,49735,4
30982,49746,5
30983,49755,5
30992,49774,5
30982,49734,4
30975,49726,5
30943,49696,5
30937,49660,5
30919,49604,5
30897,49587,5
30886,49561,4
30864,49525,5
30840,49502,5
30821,49429,5
30784,49368,4
30747,49313,5
30725,49315,5
30714,49268,5
30710,49256,5
30691,49234,3
30690,49237,5
30672,49184,5
30656,49144,5
30624,49119,5
30626,49102,4
30621,49084,5
30606,49055,5
30575,49001,5
30530,48915,4
30459,48802,5
30367,48652,5
30274,48451,5
30161,48234,5
30060,48065,4
29979,47907,5
29918,47775,5
29838,47637,5
29760,47508,5
29698,47405,4
29638,47303,6
29599,47198,4
29514,47056,5
29422,46898,5
29321,46722,6
29203,46530,3
29120,46374,5
29039,46221,5
28955,46080,4
28869,45931,4
28752,45753,5
28688,45607,5
28625,45493,5
28568,45384,4
28502,45272,5
28466,45192,5
28435,45126,5
28402,45044,5
28368,44983,4
28380,44970,5
28394,44996,5
28438,45033,5
28482,45101,5
28510,45169,4
28559,45240,5
28593,45296,6
28633,45328,4
28661,45397,5
28705,45470,4
28759,45560,5
28823,45650,5
28880,45757,5
28953,45857,4
29004,45943,4
29054,46027,5
29110,46119,5
29151,46189,5
29187,46258,4
29228,46320,5
29235,46342,5
29247,46358,5
29247,46376,5
29273,46399,4
29279,46437,5
29304,46475,5
29314,46496,5
29316,46506,5
29318,46513,4
29313,46505,5
29316,46500,5
29298,46506,6
29308,46517,4
29305,46516,4
29279,46486,5
29270,46455,5
29231,46423,5
29225,46391,4
29202,46366,4
29184,46342,5
29160,46290,5
29128,46239,5
29097,46178,4
29049,46105,5
29022,46050,5
28988,45991,5
28965,45938,5
28934,45901,4
28914,45856,5
28886,45772,5
28826,45663,5
28740,45556,5
28731,45482,5
28692,45431,4
28676,45380,5
28606,45335,5
28631,45273,6
28592,45223,3
28582,45170,5
28535,45122,5
28542,45106,5
28522,45072,4
28509,45037,4
28522,44993,5
28466,44955,5
28442,44903,5
28415,44859,4
28459,44846,5
28380,44813,5
28355,44748,5
28331,44688,5
28334,44642,4
28285,44579,5
28249,44510,5
28226,44462,5
28216,44424,5
28192,44390,4
28191,44358,6
28185,44334,4
28177,44277,5
28181,44277,5
28184,44266,4
28175,44229,5
28185,44178,5
28188,44224,5
28203,44218,4
28212,44230,4
28243,44181,5
28265,44304,5
28304,44353,5
28343,44397,4
28376,44471,5
28399,44480,5
28427,44517,5
28449,44541,5
28471,44658,4
28508,44625,5
28517,44664,5
28553,44709,5
28575,44813,5
28590,44755,4
28610,44791,5
28630,44823,6
28650,44872,4
28667,44876,5
28690,44901,4
28698,44920,5
28710,44943,5
28711,44957,5
28718,44956,4
28722,44966,5
28741,44976,5
28748,44995,5
28761,45013,5
28765,45010,4
28776,45015,5
28765,45006,5
28771,45004,5
28771,45028,5
28795,45047,4
28817,45082,5
28840,45118,5
28882,45172,5
28908,45214,5
28953,45278,4
28997,45343,5
29057,45442,5
29135,45547,6
29206,45651,3
29284,45760,4
29359,45858,5
29430,45968,5
29512,46079,5
29583,46187,4
29661,46291,5
29731,46385,5
29785,46445,5
29820,46476,5
29838,46492,4
29839,46495,5
29841,46503,5
29854,46495,5
29847,46489,5
29864,46514,4
29875,46543,5
29898,46547,5
29900,46565,5
29923,46591,5
29934,46595,5
29946,46617,4
29954,46627,5
29952,46631,5
29953,46612,4
29942,46602,4
29926,46573,5
29898,46538,5
29860,46492,5
29844,46440,4
29804,46381,5
29757,46296,5
29699,46210,5
29642,46114,5
29564,45975,4
29488,45840,5
29398,45719,5
29320,45589,5
29250,45467,5
29167,45325,4
29074,45189,5
28991,45054,5
28922,44949,5
28868,44855,5
28812,44769,4
28768,44694,6
28732,44619,4
28686,44558,5
28658,44488,4
28629,44454,4
28594,44404,5
28568,44372,5
28540,44334,5
28522,44310,4
28504,44278,5
28497,44271,5
28476,44259,5
28479,44245,5
28467,44233,4
28457,44216,5
28426,44182,5
28422,44161,5
28409,44152,5
28397,44148,4
28383,44140,5
28397,44140,5
28393,44132,5
28386,44129,5
28374,44121,4
28375,44122,5
28379,44113,6
28371,44118,4
28393,44128,4
28388,44130,5
28381,44122,5
28380,44117,5
28386,44110,5
28375,44108,4
28377,44101,5
28372,44104,5
28380,44100,5
28370,44079,5
28350,44063,4
28345,44043,5
28339,44021,5
28318,43991,5
28306,43975,5
28289,43935,4
28255,43879,5
28217,43826,5
28193,43760,5
28151,43709,5
28141,43680,6
28126,43664,3
28118,43639,5
28097,43637,5
28098,43612,4
28081,43607,6
28080,43590,4
28063,43588,5
28071,43582,5
28053,43578,4
28064,43560,5
28047,43559,5
28036,43549,5
28026,43529,5
28018,43521,4
28017,43520,5
28021,43511,5
28008,43499,5
28013,43498,5
28008,43486,4
27999,43492,5
27993,43483,5
27988,43477,5
27982,43466,4
27977,43461,5
27974,43454,4
27982,43465,5
27971,43463,5
27980,43466,4
27977,43465,5
27990,43482,5
27987,43482,5
27989,43479,5
27997,43471,4
27991,43476,5
27998,43482,5
28000,43489,5
27997,43485,5
27999,43478,4
28002,43473,5
27994,43466,5
27990,43462,5
27986,43465,5
27994,43465,4
27990,43467,5
27991,43449,5
27979,43433,5
27967,43412,4
27952,43391,4
27944,43376,6
27944,43370,4
27934,43342,5
27923,43322,4
27909,43302,5
27901,43267,5
27873,43240,5
27865,43205,5
27838,43159,4
27817,43131,5
27806,43088,5
27775,43043,5
27754,43013,5
27740,42977,4
27706,42935,5
27703,42915,5
27682,42891,5
27675,42875,5
27668,42867,4
27661,42864,5
27655,42856,5
27647,42853,5
27645,42846,4
27646,42844,4
27643,42845,5
27638,42855,5
27659,42869,5
27670,42897,4
27693,42929,5
27707,42974,5
27729,43011,5
27756,43044,5
27791,43087,4
27817,43125,5
27838,43168,5
27864,43202,5
27878,43233,5
27895,43255,4
27921,43293,5
27932,43312,5
27947,43333,5
27975,43347,5
27979,43367,4
27982,43381,5
27998,43385,5
28002,43397,5
27999,43400,5
28005,43402,4
28007,43405,5
28018,43416,5
28011,43407,5
28024,43411,4
28025,43428,5
28026,43425,5
28037,43435,5
28043,43438,5
28039,43458,4
28053,43467,5
28054,43478,5
28055,43497,5
28062,43520,5
28093,43539,4
28094,43553,5
28094,43565,5
28088,43564,5
28103,43568,4
28112,43586,4
28118,43602,5
28141,43622,5
28128,43638,5
28145,43660,4
28140,43661,6
28159,43674,4
28150,43700,5
28164,43726,5
28186,43752,4
28215,43795,5
28214,43821,5
28230,43841,5
28230,43858,5
28254,43876,4
28248,43893,5
28250,43895,5
28255,43910,5
28255,43914,5
28261,43913,4
28259,43933,5
28272,43945,5
28281,43962,5
28304,44030,5
28318,44067,4
28345,44125,5
28368,44150,5
28393,44206,5
28414,44265,4
28447,44329,5
28480,44389,6
28518,44470,4
28557,44553,5
28597,44612,4
28613,44689,5
28650,44722,5
28662,44753,5
28686,44799,5
28712,44870,4
28731,44920,5
28780,44981,5
28807,45029,5
28829,45088,5
28848,45138,4
28885,45201,5
28926,45269,5
28969,45365,5
29012,45419,4
29049,45486,4
29087,45550,5
29135,45619,5
29182,45705,6
29230,45806,3
29289,45913,5
29352,46004,5
29404,46093,5
29436,46179,5
29486,46258,4
29533,46359,5
29594,46463,5
29670,46591,5
29730,46714,5
29788,46813,4
29833,46902,5
29869,46955,5
29900,47031,5
29941,47120,5
29985,47194,4
30018,47279,5
30053,47353,5
30086,47405,5
30102,47458,4
30122,47526,6
30174,47632,4
30229,47761,5
30295,47872,5
30349,47996,6
30410,48128,3
30475,48258,5
30511,48354,5
30570,48468,5
30625,48567,4
30688,48682,5
30755,48814,5
30831,48959,5
30903,49103,5
30991,49243,4
31070,49395,5
31160,49565,5
31260,49729,5
31340,49868,4
31427,50009,4
31503,50184,5
31621,50386,5
31763,50626,5
31923,50921,4
32099,51251,5
32287,51633,6
32472,51942,4
32656,52324,5
32880,52717,4
33099,53102,7
33309,53460,3
33498,53754,5
33658,54035,5
33817,54282,4
33987,54545,5
34155,54826,5
34328,55091,5
34474,55334,5
34607,55560,4
34720,55712,5
34865,55934,5
34996,56092,5
35121,56324,4
35252,56515,4
35400,56774,5
35563,57073,5
35751,57332,5
35859,57526,4
36015,57713,5
36115,57844,5
36088,57747,6
36020,57639,4
35957,57558,4
35954,57558,5
35969,57589,5
35955,57566,5
35913,57462,5
35775,57270,4
35683,57171,5
35625,57151,5
35656,57139,5
35649,57157,5
35648,57171,4
35614,57177,5
35592,57103,5
35457,56875,5
35297,56643,4
35189,56480,4
35104,56364,5
35024,56281,5
34959,56165,5
34888,56034,5
34782,55894,4
34685,55745,5
34606,55627,5
34552,55517,6
34494,55418,3
34431,55323,5
34371,55226,5
34342,55149,5
34311,55108,5
34284,55053,4
34259,55017,5
34246,54975,5
34240,54977,5
34238,54978,5
34275,55021,4
34322,55094,5
34384,55221,5
34458,55349,5
34528,55454,4
34571,55518,4
34620,55581,5
34633,55624,5
34653,55640,5
34659,55655,4
34652,55659,6
34635,55620,4
34604,55565,5
34576,55546,5
34548,55483,6
34532,55490,3
34533,55475,5
34510,55476,5
34501,55426,5
34478,55392,4
34455,55349,5
34430,55323,5
34405,55259,5
34371,55223,5
34349,55194,4
34331,55172,5
34306,55170,5
34298,55139,5
34275,55120,4
34243,55087,4
34220,55036,5
34184,55005,5
34143,54953,5
34078,54852,4
33991,54739,5
33955,54711,6
33934,54669,4
33906,54651,5
33899,54632,4
33879,54622,5
33868,54606,5
33854,54605,5
33862,54607,5
33861,54615,4
33855,54632,5
33864,54662,5
33878,54668,5
33891,54691,5
33892,54704,4
33890,54724,5
33912,54754,5
33928,54787,5
33950,54820,4
33961,54847,5
33971,54860,5
33984,54892,5
33983,54898,5
34001,54926,4
34024,54965,5
34039,54979,5
34058,55018,6
34073,55037,4
34079,55059,4
34092,55065,5
34095,55072,5
34090,55075,5
34087,55084,5
34101,55088,4
34099,55076,5
34088,55093,5
34092,55078,5
34083,55065,5
34070,55043,4
34058,55031,5
34055,55040,5
34057,55045,5
34070,55052,4
34073,55068,5
34067,55065,5
34072,55065,5
34072,55071,5
34084,55093,5
34095,55121,4
34109,55136,5
34128,55176,5
34137,55181,6
34131,55175,3
34134,55170,5
34126,55168,5
34134,55181,5
34148,55202,5
34153,55224,4
34175,55257,5
34182,55261,5
34187,55279,5
34182,55281,4
34195,55271,4
34177,55265,5
34184,55279,5
34182,55286,5
34185,55271,4
34185,55260,5
34171,55251,5
34171,55240,5
34171,55254,5
34166,55239,4
34158,55248,6
34168,55246,4
34171,55248,5
34166,55239,5
34149,55234,4
34160,55230,5
34163,55234,5
34172,55246,5
34169,55254,5
34172,55257,4
34182,55256,5
34171,55242,5
34171,55252,5
34169,55249,4
34171,55239,4
34167,55219,5
34167,55212,5
34143,55193,5
34127,55168,4
34113,55156,5
34117,55133,5
34095,55115,5
34073,55077,5
34058,55042,4
34042,55009,5
34032,55011,6
34023,55004,4
34019,54988,5
34016,54973,4
34002,54962,5
33998,54937,5
33988,54931,5
33987,54921,5
33992,54931,4
33998,54957,5
33994,54952,5
33991,54922,5
33976,54900,5
33961,54880,4
33957,54880,5
33954,54872,5
33968,54894,5
33968,54889,4
33963,54880,5
33953,54875,5
33935,54837,5
33913,54819,5
33920,54810,4
33918,54823,5
33931,54817,5
33926,54805,6
33918,54798,4
33906,54782,4
33895,54767,5
33898,54767,5
33890,54742,5
33877,54730,5
33867,54724,4
33865,54704,5
33840,54683,5
33836,54643,5
33824,54641,4
33826,54631,4
33821,54644,5
33832,54640,5
33823,54626,5
33810,54604,4
33792,54589,5
33797,54590,5
33801,54609,5
33822,54611,5
33822,54631,5
33824,54623,4
33824,54616,5
33799,54581,5
33790,54566,5
33779,54545,4
33775,54541,5
33777,54563,5
33786,54565,5
33789,54569,5
33777,54561,4
33773,54539,5
33764,54527,5
33761,54517,5
33757,54524,4
33752,54507,4
33741,54486,5
33700,54432,5
33664,54374,5
33644,54328,4
33632,54310,5
33614,54302,5
33610,54286,5
33600,54259,5
33581,54238,4
33566,54195,6
33534,54152,4
33512,54138,5
33502,54115,5
33499,54118,4
33494,54130,5
33496,54116,5
33474,54089,5
33465,54065,5
33445,54061,4
33437,54024,5
33404,53961,5
33354,53894,5
33317,53845,4
33286,53781,4
33246,53731,5
33208,53678,5
33187,53630,5
33162,53593,4
33137,53573,5
33121,53550,5
33111,53529,5
33090,53514,5
33078,53506,4
33075,53548,5
33082,53568,6
33067,53558,4
33048,53529,5
33019,53505,4
32984,53469,5
32944,53418,5
32901,53361,5
32851,53280,5
32784,53183,4
32718,53052,5
32627,52887,5
32535,52713,5
32429,52520,4
32333,52336,4
32236,52155,5
32157,51992,5
32083,51824,5
32024,51692,5
31957,51583,4
31917,51499,5
31853,51417,5
31836,51343,5
31791,51279,4
31757,51199,5
31729,51146,5
31713,51101,5
31686,51034,5
31668,51014,4
31655,50968,5
31623,50935,5
31614,50907,5
31580,50868,5
31571,50823,4
31537,50760,5
31494,50718,5
31468,50665,5
31457,50639,4
31409,50611,5
31399,50586,5
31386,50562,5
31376,50554,5
31367,50538,4
31358,50536,5
31367,50550,5
31374,50572,5
31380,50598,5
31397,50610,5
31408,50636,4
31426,50657,5
31435,50691,5
31448,50727,5
31469,50766,4
31489,50789,5
31513,50835,5
31526,50852,5
31528,50882,5
31546,50917,4
31562,50939,5
31578,50983,5
31601,51013,5
31604,51045,4
31615,51053,5
31628,51084,5
31645,51087,5
31646,51108,5
31660,51135,4
31676,51149,5
31690,51160,5
31685,51176,5
31703,51178,5
31706,51184,4
31704,51194,6
31712,51195,4
31708,51195,5
31721,51209,5
31717,51211,4
31723,51206,5
31720,51212,5
31725,51205,5
31727,51196,4
31721,51212,4
31733,51217,5
31748,51233,5
31757,51243,5
31771,51259,4
31761,51280,5
31777,51276,5
31782,51284,5
31786,51290,5
31795,51293,4
31798,51301,5
31795,51313,5
31794,51307,6
31803,51298,4
31802,51295,4
31792,51292,5
31796,51280,5
31795,51271,5
31785,51256,5
31764,51234,4
31760,51207,5
31750,51187,5
31735,51154,5
31728,51140,4
31722,51130,4
31714,51127,5
31707,51124,5
31713,51103,5
31693,51090,4
31676,51059,5
31660,51031,5
31652,51019,5
31636,51000,5
31633,50989,5
31629,50994,4
31632,50993,5
31639,50989,5
31646,51001,6
31652,51021,3
31668,51043,5
31681,51090,5
31718,51124,5
31752,51170,5
31774,51217,4
31814,51278,5
31872,51376,5
31949,51478,5
32019,51599,4
32102,51710,4
32175,51806,5
32225,51888,5
32283,51966,5
32335,52052,4
32392,52137,5
32433,52207,5
32480,52280,5
32535,52373,5
32573,52430,4
32602,52485,6
32637,52518,4
32660,52577,5
32692,52637,5
32723,52703,6
32753,52761,3
32779,52799,5
32794,52832,5
32804,52871,5
32822,52903,4
32834,52935,5
32845,52949,5
32837,52950,5
32810,52909,4
32777,52838,4
32748,52807,5
32760,52822,5
32779,52852,5
32802,52881,4
32810,52888,5
32834,52899,5
32845,52920,5
32865,52938,5
32875,52949,4
32890,52966,5
32897,52984,6
32911,52977,4
32909,52989,5
32911,53007,4
32924,53017,5
32925,53039,5
32945,53049,5
32943,53043,5
32944,53043,4
32938,53039,5
32948,53014,5
32916,52988,5
32900,52974,4
32895,52946,5
32884,52934,5
32870,52909,5
32879,52918,5
32877,52926,4
32889,52940,5
32898,52956,5
32912,52973,5
32925,52997,5
32927,53014,4
32931,53031,5
32926,53026,5
32924,53008,6
32911,52989,4
32905,52996,4
32886,52967,4
32859,52925,5
32838,52875,5
32810,52851,5
32798,52829,4
32785,52804,5
32772,52805,5
32764,52783,5
32766,52796,4
32769,52794,5
32762,52799,5
32758,52780,5
32757,52779,5
32767,52778,4
32773,52795,5
32763,52771,5
32753,52757,5
32741,52736,5
32722,52707,5
32709,52678,4
32700,52654,5
32686,52629,5
32668,52606,6
32658,52593,3
32633,52553,5
32624,52538,5
32623,52526,5
32614,52507,5
32609,52502,4
32604,52496,5
32608,52486,5
32602,52473,5
32594,52478,4
32602,52480,5
32597,52478,5
32606,52486,5
32602,52478,5
32616,52487,4
32623,52501,5
32622,52514,5
32623,52510,5
32631,52512,5
32628,52509,4
32630,52513,6
32635,52514,4
32632,52510,5
32627,52496,5
32622,52490,4
32615,52478,5
32605,52468,5
32609,52458,5
32603,52459,4
32603,52459,4
32616,52463,5
32617,52471,5
32625,52495,5
32639,52505,4
32657,52527,5
32666,52558,5
32683,52574,5
32692,52603,5
32709,52607,4
32700,52602,5
32710,52608,5
32705,52597,5
32707,52594,5
32704,52593,4
32712,52603,5
32709,52609,6
32722,52609,4
32721,52608,5
32725,52627,4
32736,52629,5
32747,52655,5
32750,52663,5
32760,52673,4
32760,52674,4
32750,52661,5
32758,52674,5
32760,52668,5
32772,52671,4
32769,52686,5
32772,52678,5
32764,52677,5
32778,52685,5
32770,52683,4
32777,52682,5
32786,52701,5
32790,52709,5
32800,52737,5
32805,52752,4
32826,52769,5
32827,52787,5
32843,52807,6
32861,52829,4
32871,52854,4
32891,52880,5
32909,52898,5
32915,52925,5
32924,52940,4
32923,52943,4
32933,52942,5
32934,52956,5
32922,52940,5
32928,52935,4
32922,52943,5
32934,52941,5
32920,52936,5
32934,52944,5
32933,52944,4
32930,52955,5
32926,52947,5
32928,52939,5
32934,52954,5
32939,52966,5
32950,52974,4
32957,52986,5
32964,52993,5
32962,53014,5
32992,53024,4
32981,53035,5
32987,53044,5
32992,53060,5
33006,53075,4
33020,53086,4
33014,53090,5
33011,53084,5
33014,53087,5
33027,53093,4
33023,53096,5
33035,53108,5
33030,53107,5
33026,53125,5
33027,53103,4
33024,53089,5
33022,53076,5
33019,53089,5
33015,53079,5
33011,53070,4
33001,53059,6
33002,53068,4
32983,53045,5
32984,53039,5
32990,53037,4
32983,53040,8
32983,53039,2
32989,53039,5
32989,53046,4
32967,53022,5
32973,53025,5
32981,53030,5
32972,53029,5
32976,53020,4
32990,53014,5
32982,53016,5
32975,53009,5
32979,53003,5
32967,52999,4
32971,52998,5
32968,52998,5
32971,52991,5
32975,53001,5
32972,53002,4
32973,52995,5
32966,53006,6
32970,52996,4
32971,53004,4
32984,53016,4
32978,53005,5
32984,53000,5
32977,52996,5
32966,52987,4
32973,52983,5
32963,52988,5
32955,52977,5
32958,52979,5
32954,52969,4
32946,52954,5
32937,52945,5
32935,52946,5
32937,52935,5
32939,52944,4
32934,52941,5
32941,52942,5
32938,52928,5
32939,52922,5
32933,52928,4
32922,52921,5
32919,52914,5
32917,52910,5
32927,52901,4
32924,52914,4
32926,52899,5
32918,52897,5
32921,52883,5
32909,52895,4
32916,52888,5
32915,52897,5
32918,52894,5
32921,52902,5
32920,52891,4
32907,52881,5
32900,52867,5
32903,52861,5
32906,52862,5
32888,52848,4
32888,52856,5
32887,52842,5
32884,52838,5
32883,52831,5
32885,52835,5
32890,52837,4
32894,52847,5
32891,52847,5
32891,52843,4
32888,52833,4
32875,52818,5
32876,52807,5
32867,52805,5
32881,52819,4
32884,52825,5
32889,52828,5
32883,52825,5
32884,52832,5
32891,52841,4
32898,52847,5
32908,52860,5
32913,52883,5
32924,52892,5
32938,52899,4
32932,52911,5
32925,52904,5
32938,52920,5
32947,52936,5
32957,52937,4
32957,52932,6
32951,52933,4
32951,52922,5
32949,52924,4
32943,52916,5
32938,52926,5
32948,52931,5
32954,52933,5
32955,52936,4
32937,52926,5
32952,52924,5
32951,52927,5
32955,52934,5
32948,52935,4
32959,52943,5
32957,52945,5
32950,52934,5
32962,52938,5
32959,52927,4
32950,52941,5
32958,52936,5
32975,52941,5
32959,52928,5
32957,52932,4
32953,52929,5
32960,52921,5
32945,52912,5
32945,52919,4
32947,52914,5
32942,52908,5
32949,52910,5
32946,52924,5
32943,52913,4
32931,52903,5
32947,52899,5
32930,52902,5
32936,52893,5
32923,52873,4
32923,52873,5
32928,52878,5
32911,52881,5
32915,52871,5
32916,52873,5
32912,52876,4
32915,52865,5
32913,52871,5
32912,52851,6
32908,52852,3
32904,52856,5
32902,52874,5
32907,52850,5
32899,52847,4
32898,52837,5
32896,52853,5
32896,52832,5
32893,52832,5
32885,52830,4
32883,52846,5
32895,52832,5
32891,52831,5
32896,52823,5
32889,52831,4
32896,52830,5
32887,52830,5
32895,52832,5
32898,52823,5
32894,52829,4
32890,52817,5
32885,52813,4
32880,52806,5
32883,52799,5
32871,52786,5
32863,52789,3
32860,52774,5
32851,52761,5
32838,52738,4
32836,52742,5
32827,52726,5
32837,52725,5
32836,52725,5
32831,52726,4
32834,52723,5
32836,52736,5
32855,52745,5
32848,52745,5
32850,52756,4
32864,52777,5
32878,52800,5
32884,52817,5
32907,52836,5
32920,52854,4
32926,52870,5
32929,52881,6
32940,52908,4
32942,52914,4
32950,52910,4
32946,52921,5
32951,52924,5
32956,52931,5
32957,52935,4
32965,52932,5
32967,52952,5
32963,52957,5
32976,52960,5
32981,52973,4
32976,52984,5
33002,53011,5
33011,53037,5
33031,53060,5
33038,53088,4
33069,53107,5
33071,53144,5
33090,53158,5
33104,53186,5
33117,53206,4
33139,53234,5
33152,53265,5
33170,53295,6
33190,53321,3
33205,53349,4
33212,53371,5
33229,53381,5
33221,53398,5
33239,53413,4
33250,53424,5
33256,53432,5
33256,53438,5
33256,53448,5
33261,53438,4
33262,53436,5
33271,53434,5
33253,53431,5
33249,53442,5
33243,53427,4
33253,53429,5
33262,53445,5
33257,53443,5
33261,53438,5
33251,53438,5
33247,53431,4
33245,53430,5
33248,53436,5
33239,53422,6
33249,53418,3
33243,53408,5
33232,53411,5
33230,53416,5
33237,53411,4
33239,53414,5
33230,53414,5
33231,53421,5
33240,53433,5
33245,53432,4
33251,53448,5
33258,53458,5
33267,53449,5
33268,53454,5
33270,53455,4
33285,53466,5
33282,53489,5
33274,53489,5
33289,53497,5
33305,53508,4
33294,53513,6
33307,53516,4
33305,53520,5
33308,53530,4
33308,53529,4
33298,53524,5
33304,53521,5
33307,53507,5
33292,53517,4
33281,53505,5
33292,53500,5
33281,53489,5
33289,53498,5
33279,53502,4
33285,53501,5
33277,53483,5
33288,53485,5
33272,53482,5
33278,53479,4
33278,53467,5
33269,53463,5
33267,53466,5
33260,53459,5
33265,53473,4
33256,53464,5
33272,53464,6
33273,53470,4
33271,53481,4
33264,53465,4
33271,53466,5
33255,53456,5
33258,53463,5
33263,53438,4
33258,53444,5
33255,53439,5
33249,53443,5
33264,53429,5
33253,53437,4
33247,53443,5
33260,53436,5
33254,53438,5
33256,53429,5
33258,53447,4
33248,53430,5
33247,53427,5
33248,53413,5
33237,53413,5
33241,53409,4
33230,53401,5
33221,53399,5
33227,53397,6
33224,53389,3
33214,53360,4
33206,53355,5
33196,53355,5
33191,53351,5
33198,53331,4
33177,53328,5
33173,53320,5
33168,53309,5
33167,53309,5
33158,53313,4
33172,53309,5
33167,53303,5
33174,53311,5
33159,53310,5
33173,53306,4
33162,53309,5
33164,53315,5
33168,53307,5
33168,53321,5
33171,53315,5
33168,53316,4
33165,53311,5
33164,53311,5
33167,53308,4
33165,53303,4
33157,53298,5
33148,53300,5
33143,53279,5
33135,53271,4
33138,53264,5
33120,53257,5
33117,53249,5
33118,53256,5
33109,53228,4
33102,53227,5
33108,53232,5
33108,53231,5
33100,53233,5
33111,53241,4
33114,53254,5
33123,53273,5
33137,53288,5
33150,53311,5
33161,53323,4
33173,53343,6
33183,53369,4
33196,53393,5
33220,53410,4
33228,53422,5
33240,53441,5
33241,53443,5
33250,53464,5
33256,53483,4
33265,53493,5
33275,53518,5
33279,53528,5
33299,53550,5
33314,53559,4
33314,53572,5
33312,53575,5
33329,53608,5
33348,53632,5
33361,53648,4
33365,53668,5
33371,53678,5
33386,53682,5
33393,53699,5
33389,53715,4
33393,53731,5
33413,53740,6
33417,53747,4
33424,53764,4
33418,53771,5
33440,53799,5
33455,53810,5
33470,53835,5
33483,53853,4
33484,53853,5
33495,53861,5
33484,53870,5
33510,53881,5
33512,53897,4
33498,53896,5
33521,53911,5
33532,53913,5
33510,53910,5
33508,53893,4
33498,53897,5
33507,53888,5
33495,53880,5
33501,53889,5
33502,53888,4
33499,53886,5
33500,53888,5
33496,53884,6
33492,53875,3
33486,53864,5
33488,53874,5
33494,53876,5
33493,53882,5
33502,53876,4
33493,53897,5
33500,53891,5
33502,53900,5
33504,53906,5
33515,53915,4
33515,53910,5
33519,53906,5
33509,53933,5
33521,53925,5
33535,53941,4
33544,53967,5
33557,54006,6
33566,53998,4
33582,54020,4
33600,54052,5
33616,54069,4
33606,54055,5
33606,54057,5
33617,54088,4
33641,54118,5
33659,54150,5
33678,54165,5
33687,54178,5
33693,54199,4
33708,54219,5
33719,54236,5
33737,54280,5
33756,54305,5
33779,54343,4
33789,54368,5
33815,54391,5
33816,54412,5
33829,54447,5
33855,54468,4
33861,54487,5
33878,54499,5
33874,54508,5
33884,54522,4
33887,54541,4
33893,54542,6
33906,54562,4
33905,54565,5
33919,54587,4
33914,54596,5
33918,54586,5
33925,54593,5
33925,54593,5
33928,54603,4
33945,54625,5
33953,54649,5
33958,54660,5
33975,54688,5
33985,54693,4
33987,54709,5
33995,54723,5
34009,54734,5
34032,54775,5
34060,54819,4
34080,54851,5
34103,54902,5
34127,54934,5
34156,54970,4
34167,55011,4
34203,55061,5
34245,55136,6
34286,55206,4
34333,55274,4
34372,55321,5
34399,55376,5
34434,55409,5
34453,55452,5
34463,55479,4
34484,55511,5
34499,55534,5
34498,55514,5
34483,55492,5
34464,55473,4
34449,55453,5
34443,55420,5
34421,55400,5
34422,55383,5
34424,55379,4
34419,55378,5
34420,55408,5
34430,55420,5
34446,55458,5
34480,55493,4
34499,55546,5
34534,55606,5
34567,55651,5
34594,55710,4
34631,55773,5
34665,55831,5
34694,55903,5
34732,55967,5
34782,56051,4
34820,56126,5
34861,56203,5
34892,56244,5
34906,56265,5
34911,56283,4
34934,56327,5
34966,56383,5
35005,56426,5
35021,56480,5
35065,56555,4
35096,56607,5
35117,56661,5
35133,56720,5
35176,56791,4
35223,56876,6
35275,56968,4
35334,57069,5
35393,57167,5
35445,57248,4
35494,57325,5
35550,57410,5
35575,57505,5
35642,57603,5
35709,57752,4
35824,57920,5
35914,58109,5
36018,58288,5
36133,58487,5
36240,58671,4
36313,58797,5
36389,58941,5
36457,59050,5
36514,59131,4
36547,59176,4
36563,59204,5
36590,59266,5
36607,59305,5
36623,59308,5
36654,59386,4
36717,59495,6
36785,59594,4
36878,59743,5
36949,59905,4
37057,60079,5
37114,60208,5
37182,60281,5
37201,60317,5
37211,60342,4
37183,60301,5
37146,60207,5
37078,60108,5
37040,60037,5
36993,59943,4
36931,59840,5
36899,59770,5
36851,59712,5
36804,59614,4
36725,59458,4
36613,59277,5
36505,59096,5
36411,58923,5
36261,58698,3
36153,58534,5
36054,58392,5
35988,58264,5
35912,58158,5
35864,58094,4
35828,58041,5
35813,58002,5
35772,57913,5
35708,57827,5
35640,57693,4
35533,57526,5
35432,57336,5
35289,57090,5
35159,56865,5
35014,56622,4
34868,56397,5
34768,56195,5
34668,56022,5
34587,55863,4
34502,55721,5
34437,55592,4
34374,55480,5
34335,55403,5
34316,55369,6
34322,55367,3
34315,55361,5
34316,55358,5
34329,55354,5
34309,55322,4
34314,55333,5
34344,55369,5
34363,55407,5
34394,55442,5
34409,55498,4
34433,55522,5
34441,55555,5
34446,55583,5
34460,55606,5
34458,55631,4
34479,55656,5
34488,55663,5
34469,55657,5
34459,55651,4
34444,55630,4
34435,55605,6
34422,55615,4
34427,55619,5
34425,55617,4
34420,55634,7
34429,55667,3
34444,55693,5
34456,55730,5
34481,55781,4
34513,55834,5
34529,55885,5
34548,55922,5
34565,55951,5
34557,55974,4
34562,55954,5
34542,55945,5
34536,55938,5
34530,55933,5
34519,55927,4
34525,55932,5
34513,55911,5
34502,55889,5
34471,55860,4
34435,55803,5
34416,55765,5
34387,55727,6
34375,55704,4
34362,55669,4
34324,55611,5
34294,55554,5
34243,55483,5
34211,55416,5
34167,55344,4
34124,55271,5
34095,55213,5
34050,55129,5
34006,55047,5
33969,54967,4
33930,54882,5
33885,54800,5
33855,54714,5
33793,54631,4
33740,54530,4
33658,54443,5
33620,54297,5
33517,54109,5
33423,53959,5
33344,53785,4
33229,53610,5
33115,53433,5
33019,53243,6
32938,53085,3
32825,52920,5
32730,52749,5
32613,52586,5
32552,52446,5
32390,52242,4
32295,52082,5
32196,51950,5
32133,51851,5
32052,51726,5
31987,51647,4
31957,51579,5
31920,51501,5
31889,51459,5
31860,51411,4
31842,51367,4
31834,51331,5
31823,51322,5
31817,51305,5
31814,51293,4
31797,51240,6
31785,51251,4
31796,51254,5
31795,51272,5
31822,51302,6
31833,51332,3
31846,51359,5
31850,51376,5
31845,51406,5
31825,51371,4
31810,51341,5
31772,51313,5
31745,51306,5
31711,51229,5
31671,51176,4
31635,51110,5
31587,51046,5
31549,50978,5
31526,50914,4
31495,50839,4
31444,50757,5
31412,50679,5
31365,50576,5
31304,50463,4
31262,50360,5
31216,50258,6
31163,50155,4
31120,50042,5
31052,49870,4
30975,49761,5
30929,49657,5
30890,49561,5
30841,49452,5
30800,49376,4
30764,49287,5
30726,49206,5
30688,49096,5
30641,48996,5
30593,48914,4
30560,48848,5
30548,48793,5
30536,48729,5
30523,48685,4
30475,48603,4
30423,48490,5
30398,48410,5
30350,48347,5
30345,48307,4
30332,48265,5
30321,48226,5
30312,48206,6
30295,48189,4
30302,48211,4
30297,48223,5
30354,48315,5
30379,48407,5
30436,48427,5
30435,48402,4
30476,48460,5
30491,48442,5
30541,48506,5
30621,48552,5
30701,48707,4
30816,48805,5
30912,48898,5
31021,48991,5
31116,49141,4
31208,49244,5
31308,49390,5
31453,49587,5
31641,49811,5
31760,50002,5
31916,50176,4
32085,50363,5
32298,50604,5
32541,50900,6
32762,51170,3
32961,51429,5
33208,51778,5
33401,51937,5
33569,52188,5
33696,52385,4
33825,52564,5
33972,52694,5
34141,52858,5
34328,52965,5
34471,53084,4
34558,53178,5
34820,53320,5
34926,53400,5
35012,53453,4
35054,53472,5
35116,53531,5
35189,53605,5
35218,53655,5
35273,53670,4
35289,53650,6
35323,53688,4
35381,53741,5
35423,53795,5
35476,53836,4
35520,53890,5
35583,53924,5
35617,53932,5
35675,54007,5
35701,54030,4
35761,54073,5
35802,54107,5
35821,54155,5
35850,54220,4
35900,54246,4
35907,54251,5
35932,54261,5
35942,54276,5
35943,54285,4
35933,54277,5
35925,54262,5
35962,54302,5
35974,54338,5
36014,54372,4
35992,54320,5
36008,54297,6
35972,54303,4
35975,54270,5
35985,54297,4
36023,54329,5
36021,54349,5
36023,54350,5
36002,54297,5
35979,54250,4
35979,54296,5
36003,54291,5
35986,54281,5
35984,54267,4
35983,54279,4
35962,54270,5
35965,54265,5
35935,54228,5
35937,54211,5
35916,54215,4
35926,54243,5
35940,54258,5
35954,54248,5
35951,54258,4
35957,54262,5
35966,54280,5
35977,54290,6
35991,54330,4
36011,54365,4
36012,54409,5
36019,54398,5
36033,54403,5
36023,54391,5
36017,54391,4
36025,54383,5
36025,54386,5
36018,54378,5
36013,54370,4
36015,54371,5
35999,54335,5
35963,54282,5
35920,54234,5
35900,54206,4
35878,54188,5
35875,54177,5
35861,54160,5
35848,54139,5
35828,54112,5
35803,54087,4
35803,54077,5
35799,54077,5
35783,54052,5
35762,54026,4
35744,53995,5
35720,53967,5
35696,53930,5
35654,53882,4
35626,53845,4
35620,53814,5
35557,53745,5
35514,53707,5
35497,53659,4
35455,53615,5
35436,53588,5
35436,53585,5
35448,53615,5
35467,53632,4
35478,53643,5
35485,53639,5
35503,53660,5
35513,53689,5
35533,53724,4
35579,53783,6
35613,53840,4
35680,53939,5
35732,53999,5
35790,54127,4
35867,54225,5
35924,54319,5
35993,54449,5
36165,54686,4
36172,54732,4
36216,54804,5
36238,54848,5
36253,54858,5
36261,54865,4
36250,54843,5
36239,54851,5
36264,54863,5
36260,54894,5
36264,54898,4
36261,54891,5
36254,54904,5
36264,54923,5
36273,54946,5
36281,54972,4
36288,54990,5
36288,54982,6
36278,54981,4
36272,54970,5
36271,54963,4
36253,54942,5
36254,54933,5
36247,54905,5
36244,54905,4
36245,54917,5
36266,54925,5
36276,54947,5
36275,54970,5
36283,54986,4
36298,55012,5
36317,55050,5
36335,55083,5
36350,55105,5
36367,55121,4
36363,55132,5
36367,55115,5
36353,55077,5
36316,55067,5
36332,55057,4
36334,55071,5
36354,55081,5
36320,55087,5
36349,55078,5
36340,55068,4
36329,55040,5
36305,55036,5
36311,55017,5
36318,55023,4
36320,55030,5
36337,55042,5
36330,55045,5
36319,55037,5
36317,55027,4
36342,55023,5
36326,55028,5
36320,55033,5
36327,55039,5
36335,55028,4
36320,55015,6
36299,55004,4
36296,55014,5
36309,55019,5
36303,55029,6
36311,55044,3
36312,55042,5
36313,55026,5
36311,55036,4
36324,55041,4
36325,55051,5
36334,55053,5
36339,55078,5
36335,55097,4
36342,55091,5
36329,55054,5
36323,55059,5
36304,55039,5
36312,55036,4
36289,55024,5
36275,55003,5
36256,54978,5
36239,54940,5
36198,54912,4
36178,54853,5
36151,54813,5
36124,54763,5
36085,54738,5
36059,54670,4
36030,54600,6
35970,54519,4
35934,54464,5
35883,54391,4
35860,54323,4
35819,54276,5
35797,54231,5
35760,54165,5
35741,54116,4
35712,54071,5
35691,54043,5
35673,54038,5
35679,54040,5
35686,54052,4
35681,54055,5
35695,54061,5
35692,54062,5
35686,54053,5
35689,54066,4
35691,54061,5
35687,54059,5
35681,54054,5
35674,54037,4
35665,54025,4
35647,53989,5
35625,53973,5
35609,53942,5
35585,53911,4
35566,53870,5
35540,53826,5
35517,53785,5
35491,53763,5
35477,53739,4
35473,53720,5
35459,53694,5
35433,53658,5
35413,53622,5
35377,53561,4
35323,53494,5
35283,53440,5
35255,53385,5
35229,53345,5
35213,53318,5
35187,53287,4
35176,53254,5
35157,53238,5
35148,53219,6
35141,53205,3
35137,53206,5
35137,53205,5
35145,53227,5
35156,53239,4
35155,53245,5
35167,53247,5
35168,53254,5
35172,53275,5
35187,53298,4
35204,53318,5
35218,53344,5
35223,53366,5
35248,53383,5
35266,53391,4
35272,53421,5
35283,53452,5
35311,53479,5
35311,53486,5
35319,53510,4
35329,53520,6
35354,53555,4
35381,53611,5
35417,53664,4
35442,53694,6
35468,53732,3
35489,53764,5
35511,53805,5
35519,53820,4
35536,53846,5
35547,53868,5
35555,53897,5
35585,53934,5
35607,53965,4
35626,53990,5
35639,54022,5
35664,54055,5
35689,54087,5
35711,54118,4
35743,54152,5
35731,54176,5
35758,54201,5
35785,54241,5
35818,54295,4
35841,54335,5
35888,54394,6
35945,54463,4
35978,54505,4
36003,54542,4
36026,54577,5
36054,54623,5
36089,54665,5
36128,54718,4
36133,54749,5
36158,54765,5
36171,54793,5
36211,54809,5
36210,54849,4
36246,54904,5
36273,54953,5
36324,54993,5
36336,55024,5
36358,55066,4
36367,55080,5
36381,55100,5
36407,55150,5
36447,55197,5
36474,55230,4
36497,55252,5
36520,55276,5
36532,55279,6
36532,55289,3
36526,55276,5
36558,55328,5
36568,55343,5
36574,55351,5
36574,55332,4
36575,55347,5
36561,55320,4
36556,55322,5
36564,55334,5
36565,55339,4
36566,55340,5
36569,55329,5
36565,55352,5
36555,55293,5
36535,55269,4
36522,55249,5
36509,55272,5
36518,55246,5
36515,55245,4
36522,55243,5
36507,55234,4
36501,55215,5
36499,55197,5
36487,55200,6
36491,55204,3
36489,55197,5
36480,55183,5
36480,55177,5
36455,55165,4
36456,55145,5
36449,55124,5
36433,55125,5
36437,55123,5
36430,55121,4
36423,55091,5
36420,55088,5
36403,55071,5
36398,55040,5
36375,55021,4
36375,55035,5
36380,55021,5
36384,55019,5
36389,55014,4
36374,55005,4
36346,54955,6
36336,54940,4
36331,54945,5
36343,54959,4
36343,54968,5
36337,54956,5
36347,54954,5
36345,54953,5
36338,54947,4
36338,54946,5
36342,54959,5
36363,54974,5
36354,54973,5
36373,54978,4
36364,54951,5
36360,54953,5
36345,54935,5
36332,54926,5
36353,54935,4
36350,54938,5
36350,54932,5
36345,54929,5
36342,54923,4
36340,54921,4
36339,54921,5
36344,54927,6
36357,54933,4
36369,54931,4
36360,54923,5
36359,54905,5
36346,54877,5
36344,54853,5
36341,54853,4
36347,54867,5
36365,54890,5
36370,54876,5
36377,54878,5
36380,54869,4
36365,54846,5
36371,54840,5
36373,54851,5
36388,54863,5
36392,54897,4
36396,54895,5
36400,54897,5
36408,54894,5
36396,54899,5
36403,54920,4
36423,54947,5
36421,54962,5
36437,54980,6
36440,54999,3
36447,55006,5
36463,55027,5
36491,55062,5
36514,55079,5
36541,55093,4
36531,55089,5
36521,55081,5
36508,55070,5
36492,55053,5
36474,55038,4
36481,55045,5
36492,55047,5
36486,55040,5
36458,55025,4
36479,55018,4
36476,55024,5
36491,55023,5
36495,55046,5
36500,55070,4
36523,55089,6
36535,55093,4
36561,55086,5
36553,55084,5
36562,55081,4
36559,55074,5
36609,55082,5
36593,55083,5
36572,55058,5
36567,55035,4
36575,54992,5
36520,54949,5
36512,54927,5
36498,54916,5
36482,54898,4
36481,54870,5
36477,54851,5
36439,54842,5
36395,54782,4
36324,54758,4
36291,54705,5
36267,54681,5
36249,54621,5
36237,54627,5
36210,54583,4
36190,54570,6
36191,54547,4
36181,54547,5
36166,54538,4
36156,54524,5
36146,54526,5
36136,54501,5
36134,54507,5
36141,54513,4
36146,54554,5
36152,54527,5
36153,54525,5
36149,54513,5
36133,54538,4
36135,54517,5
36143,54532,5
36154,54543,5
36161,54568,4
36165,54560,4
36172,54571,5
36178,54577,5
36170,54588,5
36180,54595,4
36207,54619,5
36220,54628,5
36235,54622,6
36228,54615,6
36225,54610,2
36228,54617,5
36240,54647,5
36276,54663,5
36269,54685,5
36276,54700,4
36286,54699,5
36284,54704,5
36291,54710,5
36297,54732,5
36312,54750,4
36333,54773,5
36346,54786,5
36362,54798,5
36362,54807,4
36372,54814,4
36386,54834,5
36396,54855,5
36424,54900,5
36464,54950,5
36493,54987,4
36517,55011,5
36541,55028,5
36549,55054,5
36586,55104,4
36616,55155,5
36663,55198,5
36683,55238,5
36702,55268,5
36695,55283,4
36702,55307,5
36706,55315,5
36715,55352,5
36727,55380,5
36742,55405,4
36752,55415,5
36754,55419,5
36751,55429,5
36749,55423,4
36759,55443,5
36762,55456,5
36763,55470,5
36772,55474,5
36772,55477,4
36774,55475,6
36760,55474,4
36763,55470,5
36771,55495,5
36785,55516,4
36790,55528,5
36796,55529,5
36792,55532,5
36783,55527,5
36796,55547,4
36797,55569,5
36817,55595,5
36831,55626,5
36838,55624,4
36829,55619,4
36840,55628,5
36832,55635,5
36853,55664,5
36871,55664,4
36877,55688,5
36872,55675,5
36865,55667,5
36845,55637,5
36818,55620,4
36801,55599,5
36812,55607,6
36811,55619,4
36783,55570,5
36790,55558,4
36780,55548,5
36783,55548,5
36750,55542,5
36789,55570,5
36800,55580,4
36804,55596,5
36787,55589,5
36794,55583,5
36786,55575,4
36787,55564,4
36806,55580,5
36803,55590,5
36813,55613,5
36810,55609,4
36845,55622,5
36814,55625,5
36811,55621,5
36833,55643,5
36877,55668,4
36858,55698,5
36875,55702,5
36870,55699,5
36879,55700,5
36867,55694,4
36872,55707,5
36884,55729,5
36902,55749,5
36911,55767,5
36921,55775,4
36926,55781,5
36939,55770,5
36937,55806,5
36949,55825,4
36967,55849,4
36970,55844,5
36977,55884,5
36993,55885,5
36991,55876,4
36991,55876,5
36992,55884,5
37001,55895,5
36999,55889,5
36998,55910,5
36995,55892,4
36992,55886,5
37005,55902,5
36996,55936,5
37011,55920,4
37018,55929,5
37025,55944,5
37034,55970,5
37044,55957,5
37045,55969,4
37064,55985,5
37062,55996,5
37074,56007,5
37077,56006,4
37069,55997,4
37071,56015,5
37070,56006,5
37067,56011,5
37080,56019,4
37064,56020,5
37062,56009,5
37053,55995,4
37052,56001,5
37051,55992,4
37059,56000,7
37059,56006,3
37065,56011,5
37056,56010,5
37057,55993,4
37040,55977,5
37033,55966,5
37027,55968,5
37026,55966,5
37024,55970,4
37026,55962,5
37036,55968,5
37033,55974,5
37026,55968,4
37026,55967,5
37024,55973,5
37046,55989,5
37039,55997,5
37048,56001,4
37042,55997,5
37046,55986,5
37045,55991,6
37031,55988,4
37045,56001,4
37060,56013,5
37064,56024,5
37070,56031,5
37075,56039,5
37063,56042,4
37067,56041,5
37063,56023,5
37063,56032,5
37067,56043,5
37079,56056,4
37083,56059,5
37082,56054,5
37087,56040,5
37069,56052,4
37080,56053,5
37097,56079,5
37109,56090,5
37111,56103,5
37114,56096,5
37108,56105,4
37110,56090,5
37093,56079,5
37086,56082,6
37108,56100,3
37104,56101,5
37112,56104,5
37115,56101,5
37105,56088,5
37101,56086,4
37097,56088,5
37113,56102,5
37114,56107,5
37107,56095,4
37096,56096,4
37088,56074,5
37075,56070,5
37077,56053,5
37066,56053,4
37071,56061,5
37076,56070,5
37083,56073,5
37079,56073,5
37085,56060,4
37068,56059,6
37049,56048,4
37065,56056,5
37068,56070,5
37077,56068,6
37055,56067,3
37066,56070,5
37064,56062,5
37069,56042,5
37027,56055,4
37064,56065,5
37071,56070,5
37074,56070,5
37081,56066,4
37058,56052,4
37059,56051,5
37052,56043,5
37083,56047,5
37058,56050,4
37065,56063,5
37085,56081,5
37104,56072,5
37077,56071,5
37070,56066,4
37064,56061,5
37077,56049,6
37072,56074,4
37064,56066,5
37072,56069,4
37069,56054,5
37061,56054,5
37059,56042,5
37064,56038,5
37060,56020,4
37062,56043,5
37059,56062,5
37058,56059,5
37048,56012,4
37044,56030,4
37039,56020,4
37027,56021,5
37032,56022,5
37039,56022,4
37034,56027,5
37033,56020,5
37021,56020,5
37007,55987,5
36993,55969,4
36991,55955,5
37002,56000,5
37009,55972,6
37004,55987,4
37012,55988,4
37007,56005,5
37007,55970,5
36999,55968,5
36997,55974,5
37006,55985,4
37008,55991,5
37019,56001,5
37006,55984,5
37019,55991,4
37002,55984,4
37007,55979,5
37000,55977,5
37003,55980,5
37000,55984,4
37001,55968,5
36989,55948,5
36982,55938,5
36963,55923,5
36962,55925,5
36968,55914,4
36966,55919,5
36958,55923,5
36955,55891,6
36942,55881,3
36922,55857,5
36920,55846,5
36905,55822,5
36886,55808,5
36872,55792,4
36855,55769,5
36844,55744,5
36826,55733,5
36823,55705,4
36814,55702,4
36802,55693,5
36799,55676,5
36787,55661,5
36793,55656,4
36782,55650,5
36771,55649,5
36764,55628,5
36750,55621,5
36742,55609,4
36742,55605,6
36747,55608,4
36745,55615,5
36762,55617,5
36747,55616,4
36750,55597,5
36740,55595,5
36730,55583,5
36742,55591,5
36740,55598,4
36747,55606,5
36751,55613,5
36749,55605,5
36741,55601,4
36746,55605,4
36740,55600,5
36746,55601,5
36750,55606,5
36765,55621,4
36762,55613,5
36762,55604,5
36756,55606,5
36752,55613,5
36756,55617,4
36762,55614,5
36771,55624,6
36768,55628,4
36763,55628,5
36760,55614,4
36758,55621,5
36757,55622,5
36750,55612,5
36757,55625,5
36748,55626,4
36745,55609,5
36747,55603,5
36740,55595,5
36739,55599,4
36744,55601,4
36751,55606,5
36747,55599,5
36740,55605,5
36734,55600,4
36742,55592,5
36740,55611,5
36751,55607,5
36740,55627,5
36769,55637,4
36768,55640,5
36768,55635,5
36749,55637,6
36769,55641,4
36776,55656,4
36787,55671,5
36801,55673,5
36795,55675,5
36794,55667,5
36798,55671,4
36812,55665,5
36789,55667,5
36801,55670,5
36801,55684,4
36832,55675,4
36797,55668,5
36791,55669,5
36793,55671,5
36810,55678,4
36800,55690,5
36817,55704,5
36819,55712,5
36827,55699,5
36810,55699,5
36808,55682,4
36809,55682,5
36807,55677,5
36818,55688,5
36811,55701,4
36812,55693,5
36802,55662,5
36807,55680,5
36804,55687,5
36808,55695,4
36817,55680,5
36816,55709,5
36829,55715,5
36832,55715,4
36816,55719,4
36826,55710,5
36831,55728,5
36839,55736,5
36850,55789,4
36856,55754,5
36847,55758,5
36841,55739,5
36836,55760,5
36834,55736,4
36830,55727,6
36839,55736,4
36831,55745,5
36837,55721,5
36824,55713,4
36814,55694,5
36807,55700,5
36808,55691,5
36814,55699,5
36811,55696,4
36807,55703,5
36802,55692,5
36801,55685,5
36796,55690,4
36803,55684,4
36802,55700,5
36814,55704,5
36808,55706,5
36797,55701,5
36800,55682,4
36798,55697,5
36808,55703,5
36812,55715,5
36821,55716,4
36828,55726,5
36826,55730,6
36824,55711,4
36819,55715,5
36812,55713,4
36820,55722,5
36829,55730,5
36831,55738,5
36833,55732,5
36831,55735,4
36833,55736,5
36821,55731,5
36826,55734,5
36836,55735,4
36827,55734,4
36838,55738,5
36838,55737,5
36831,55735,5
36823,55735,4
36830,55735,5
36828,55740,5
36841,55755,5
36840,55760,5
36846,55764,4
36848,55763,5
36862,55780,5
36857,55774,5
36863,55772,5
36861,55783,4
36872,55793,5
36866,55794,5
36870,55791,5
36860,55784,5
36868,55790,4
36867,55797,5
36867,55803,5
36874,55805,5
36872,55797,4
36872,55786,5
36866,55790,5
36861,55786,5
36860,55786,5
36862,55794,4
36854,55786,5
36859,55775,5
36849,55776,5
36845,55774,5
36850,55765,5
36846,55778,4
36847,55776,5
36837,55766,5
36833,55766,5
36844,55764,4
36833,55762,5
36835,55752,5
36829,55762,5
36832,55739,5
36822,55745,4
36818,55740,5
36804,55725,5
36813,55719,5
36799,55717,4
36795,55717,5
36777,55721,5
36802,55733,5
36814,55730,5
36807,55721,4
36774,55718,5
36798,55707,6
36797,55710,4
36792,55707,5
36789,55712,4
36793,55710,6
36798,55718,4
36793,55717,5
36822,55714,5
36800,55708,4
36799,55715,5
36791,55707,5
36826,55726,5
36801,55723,5
36803,55714,4
36797,55716,5
36814,55715,5
36789,55720,5
36809,55716,4
36794,55720,5
36809,55738,5
36804,55736,5
36817,55750,5
36810,55725,4
36815,55714,5
36801,55731,5
36799,55737,5
36815,55733,5
36807,55713,4
36811,55748,5
36817,55747,5
36805,55745,5
36806,55708,5
36810,55738,5
36804,55745,4
36810,55747,5
36819,55767,5
36814,55766,5
36816,55766,4
36820,55763,5
36819,55790,5
36825,55772,5
36835,55763,4
36841,55785,5
36839,55819,5
36847,55800,5
36839,55802,5
36838,55795,4
36835,55797,5
36830,55788,5
36839,55800,5
36849,55805,5
36839,55803,3
36849,55804,5
36851,55809,5
36848,55804,5
36846,55805,5
36844,55808,4
36838,55821,5
36854,55820,5
36863,55823,5
36848,55827,4
36851,55824,4
36845,55808,5
36842,55817,5
36854,55821,5
36850,55833,4
36859,55824,5
36854,55832,5
36857,55821,5
36847,55813,5
36850,55821,4
36851,55827,6
36854,55827,4
36859,55832,5
36867,55835,5
36870,55838,6
36869,55836,3
36854,55830,5
36859,55831,5
36862,55841,5
36862,55848,4
36875,55861,5
36888,55874,5
36882,55862,5
36884,55869,4
36883,55852,4
36867,55860,5
36877,55863,5
36886,55858,5
36879,55876,4
36886,55877,5
36884,55868,5
36883,55862,5
36872,55855,5
36879,55861,4
36875,55868,5
36891,55866,6
36890,55869,4
36887,55867,5
36874,55863,4
36871,55855,5
36872,55846,5
36871,55860,5
36885,55869,5
36897,55888,4
36898,55894,5
36898,55895,5
36895,55888,5
36884,55886,4
36891,55887,4
36891,55883,5
36907,55896,5
36896,55903,5
36900,55897,4
36908,55904,5
36897,55895,5
36893,55895,5
36896,55898,5
36908,55912,4
36903,55912,5
36907,55907,5
36897,55889,6
36879,55872,4
36870,55863,4
36870,55853,5
36863,55855,5
36867,55859,5
36872,55862,5
36876,55866,4
36872,55858,5
36866,55849,5
36854,55848,5
36827,55833,4
36850,55835,4
36851,55829,5
36838,55818,5
36815,55817,5
36825,55796,4
36809,55780,5
36805,55766,5
36789,55767,5
36801,55759,5
36793,55759,5
36791,55753,4
36808,55749,5
36772,55735,5
36759,55702,6
36752,55688,3
36781,55685,5
36748,55687,5
36749,55689,5
36740,55679,5
36737,55669,4
36718,55648,5
36703,55623,5
36704,55627,5
36709,55623,4
36693,55615,4
36692,55610,5
36682,55609,5
36681,55584,5
36672,55579,4
36670,55566,5
36652,55558,5
36649,55525,5
36649,55540,5
36629,55509,4
36602,55471,6
36587,55430,4
36577,55434,5
36570,55429,5
36560,55414,6
36555,55412,3
36545,55390,5
36543,55385,5
36551,55389,5
36551,55427,4
36548,55395,5
36543,55384,5
36549,55389,5
36555,55433,4
36554,55398,5
36541,55387,5
36551,55375,5
36538,55387,5
36538,55357,4
36525,55351,5
36510,55335,5
36519,55335,5
36520,55343,5
36520,55345,4
36521,55344,5
36523,55334,6
36511,55330,4
36505,55311,5
36503,55310,4
36499,55312,5
36501,55326,5
36508,55324,5
36504,55325,5
36493,55297,4
36491,55288,5
36477,55270,5
36481,55263,5
36465,55256,4
36470,55258,5
36466,55254,5
36465,55247,5
36459,55241,5
36449,55223,4
36431,55214,5
36427,55217,5
36419,55207,5
36420,55206,5
36417,55192,4
36412,55176,5
36391,55160,5
36377,55147,6
36388,55150,4
36381,55155,4
36406,55163,5
36401,55165,5
36397,55160,5
36396,55145,5
36378,55143,4
36382,55153,5
36385,55150,5
36382,55152,5
36389,55146,4
36375,55136,5
36366,55130,5
36367,55111,5
36354,55099,5
36351,55092,4
36345,55087,5
36349,55093,5
36334,55083,5
36329,55079,5
36325,55061,5
36318,55051,4
36314,55054,5
36317,55053,5
36327,55055,6
36330,55068,3
36315,55048,5
36302,55034,5
36287,55001,5
36281,54993,5
36273,54996,4
36278,54998,5
36270,54984,5
36275,54982,5
36258,54960,4
36252,54944,5
36244,54946,5
36240,54941,5
36250,54944,5
36253,54941,4
36252,54945,5
36244,54929,5
36218,54910,5
36219,54901,5
36221,54905,4
36224,54895,6
36225,54899,4
36221,54908,5
36216,54890,5
36190,54870,4
36174,54802,5
36114,54744,5
36061,54650,5
36012,54586,5
35974,54531,4
35905,54465,5
35890,54413,5
35863,54366,5
35852,54350,4
35813,54359,5
35849,54355,5
35844,54361,5
35844,54355,5
35862,54359,4
35834,54340,5
35830,54328,5
35820,54314,5
35850,54319,5
35815,54319,4
35808,54299,5
35788,54272,6
35800,54234,4
35747,54216,5
35748,54192,4
35733,54204,5
35754,54203,5
35748,54206,5
35742,54202,5
35723,54182,4
35728,54174,5
35727,54175,5
35730,54184,5
35744,54213,4
35763,54193,5
35755,54240,5
35756,54223,5
35759,54225,5
35761,54197,4
35769,54261,5
35778,54287,5
35795,54311,5
35820,54320,5
35825,54332,4
35816,54331,5
35808,54317,5
35805,54342,6
35812,54337,4
35818,54337,4
35823,54357,5
35828,54399,5
35820,54352,5
35828,54360,5
35826,54359,4
35835,54406,5
35848,54405,5
35873,54423,5
35879,54446,4
35894,54468,5
35903,54467,5
35907,54487,5
35917,54493,5
35922,54503,4
35935,54508,5
35920,54499,5
35924,54496,5
35915,54484,5
35908,54481,5
35914,54474,4
35909,54458,5
35889,54438,5
35880,54427,5
35876,54414,4
35868,54409,5
35863,54392,5
35857,54386,5
35859,54379,8
35841,54370,1
35850,54356,5
35833,54333,5
35825,54317,5
35805,54284,4
35795,54267,5
35793,54267,5
35779,54264,5
35769,54229,5
35744,54192,4
35714,54156,5
35700,54111,5
35681,54081,5
35660,54063,5
35647,54041,4
35645,54016,6
35621,53985,4
35601,53947,5
35556,53897,5
35541,53854,4
35510,53816,5
35489,53781,5
35465,53746,5
35454,53730,5
35435,53691,4
35410,53658,5
35378,53600,5
35345,53558,5
35320,53527,4
35306,53492,5
35302,53477,5
35285,53463,5
35284,53465,5
35281,53444,4
35269,53421,5
35255,53412,5
35236,53381,5
35223,53363,5
35234,53346,4
35212,53326,5
35201,53295,6
35171,53256,4
35138,53230,5
35113,53204,4
35103,53181,5
35089,53154,5
35064,53139,5
35060,53123,5
35045,53105,4
35043,53097,5
35025,53075,5
35018,53072,5
35010,53057,4
35013,53061,5
35016,53069,5
35008,53064,5
35004,53055,5
34991,53050,4
34982,53041,5
34982,53033,5
34969,53012,5
34966,53002,5
34950,52994,4
34948,52994,5
34954,52995,5
34941,52986,5
34908,52984,5
34929,52975,4
34936,52989,5
34933,52993,5
34892,52976,5
34921,52949,5
34893,52924,4
34882,52908,5
34870,52891,5
34851,52864,5
34839,52848,4
34833,52845,5
34854,52820,5
34803,52808,5
34789,52786,5
34786,52778,4
34809,52770,5
34775,52765,5
34771,52758,5
34781,52772,5
34790,52763,5
34771,52750,4
34752,52743,5
34745,52711,5
34733,52698,5
34720,52680,4
34722,52687,5
34722,52695,5
34729,52671,5
34726,52702,5
34718,52692,4
34716,52683,5
34709,52647,5
34709,52687,5
34718,52694,4
34704,52684,5
34701,52663,5
34699,52666,5
34683,52654,5
34681,52640,4
34675,52661,5
34672,52631,6
34664,52623,4
34657,52622,5
34655,52650,4
34651,52584,7
34640,52575,3
34637,52568,5
34632,52601,5
34629,52563,4
34619,52566,5
34620,52562,5
34617,52549,5
34606,52542,5
34607,52521,4
34601,52521,5
34591,52514,5
34580,52502,5
34578,52492,4
34582,52478,5
34557,52450,5
34551,52434,5
34541,52425,5
34535,52435,4
34546,52448,5
34557,52455,5
34558,52453,6
34552,52433,4
34540,52432,4
34539,52418,5
34522,52406,5
34519,52402,5
34530,52400,5
34513,52398,4
34522,52392,5
34512,52378,5
34503,52367,5
34494,52362,4
34490,52348,4
34481,52337,5
34473,52329,5
34473,52315,5
34468,52304,4
34454,52292,5
34453,52275,5
34437,52274,5
34441,52263,5
34439,52269,5
34447,52263,4
34432,52267,5
34441,52275,5
34442,52270,6
34441,52267,3
34440,52252,5
34430,52257,5
34428,52248,5
34427,52241,5
34420,52217,4
34401,52203,5
34399,52205,5
34385,52193,5
34391,52172,4
34371,52154,4
34358,52128,5
34346,52118,5
34349,52114,5
34339,52112,4
34331,52108,5
34331,52094,5
34318,52085,5
34301,52055,5
34293,52039,4
34293,52027,6
34284,52018,4
34272,52011,5
34270,52002,5
34257,51987,6
34251,51970,3
34246,51969,5
34246,51963,5
34233,51952,5
34246,51965,4
34246,51950,5
34236,51942,5
34224,51932,5
34221,51924,4
34218,51918,4
34225,51917,5
34214,51917,5
34206,51915,5
34212,51898,4
34194,51881,5
34184,51864,5
34175,51851,5
34165,51838,5
34162,51841,4
34158,51828,5
34132,51823,6
34144,51812,4
34136,51790,5
34136,51782,4
34096,51784,5
34118,51779,5
34130,51773,5
34119,51763,5
34113,51751,4
34104,51737,5
34101,51733,5
34094,51709,5
34117,51705,4
34085,51696,4
34070,51684,5
34060,51683,5
34099,51668,5
34046,51656,4
34034,51633,5
34031,51629,5
34042,51627,5
34023,51609,5
34021,51614,4
34021,51597,5
34009,51591,5
33999,51597,6
34016,51592,4
34002,51595,4
34002,51573,5
34000,51577,5
33987,51558,5
33976,51545,5
33964,51487,4
33953,51501,5
33927,51493,5
33922,51477,5
33919,51444,4
33908,51450,5
33888,51426,4
33860,51392,5
33850,51372,5
33822,51332,4
33815,51308,5
33797,51292,5
33786,51316,5
33768,51249,5
33745,51226,5
33732,51194,4
33710,51198,5
33710,51155,5
33700,51156,6
33706,51141,3
33696,51165,5
33692,51146,5
33677,51122,5
33683,51109,5
33665,51105,4
33674,51104,5
33670,51109,5
33672,51109,5
33663,51085,4
33646,51056,4
33636,51043,5
33625,51041,5
33629,51033,5
33619,51034,4
33632,51032,5
33631,51024,5
33606,51001,5
33588,50979,5
33572,50963,4
33576,50950,6
33569,50944,4
33563,50952,5
33572,50945,5
33562,50944,4
33554,50932,5
33544,50937,5
33564,50936,5
33571,50959,5
33568,50972,4
33584,50992,5
33585,50991,5
33585,50976,5
33579,50974,4
33574,50972,4
33588,50982,5
33607,51007,5
33620,51032,5
33617,51041,4
33624,51046,5
33629,51057,5
33636,51076,5
33662,51111,5
33685,51140,4
33717,51176,5
33742,51210,6
33749,51229,4
33758,51252,5
33781,51270,4
33786,51294,5
33808,51335,5
33830,51371,5
33862,51409,5
33879,51442,4
33905,51476,5
33938,51525,5
33960,51570,5
33999,51615,4
34021,51660,4
34047,51710,5
34072,51744,5
34098,51781,5
34116,51815,4
34142,51850,5
34164,51893,5
34193,51928,5
34220,51965,5
34234,52001,4
34267,52042,5
34286,52081,5
34304,52109,6
34326,52137,4
34339,52154,4
34366,52172,5
34371,52182,5
34376,52201,5
34388,52214,5
34392,52238,4
34412,52255,5
34418,52271,5
34436,52290,5
34435,52292,4
34435,52299,4
34448,52305,5
34450,52313,5
34455,52331,5
34438,52344,4
34467,52353,5
34468,52358,5
34474,52357,5
34446,52362,5
34480,52362,5
34480,52376,4
34497,52396,5
34483,52404,5
34507,52416,5
34521,52414,4
34520,52432,5
34537,52431,5
34521,52435,5
34540,52454,5
34544,52470,4
34589,52479,5
34551,52476,5
34560,52492,5
34564,52490,4
34593,52489,4
34574,52497,5
34575,52515,5
34586,52535,5
34603,52555,4
34611,52562,5
34615,52567,5
34613,52552,5
34607,52544,5
34616,52560,4
34620,52579,6
34641,52612,4
34650,52599,5
34659,52638,5
34663,52651,4
34667,52652,5
34674,52628,5
34687,52673,5
34697,52698,5
34704,52720,4
34717,52731,5
34721,52736,5
34728,52730,5
34717,52720,4
34725,52759,4
34724,52730,5
34730,52747,5
34742,52752,5
34744,52804,4
34752,52781,5
34766,52802,5
34782,52812,5
34786,52850,5
34798,52850,4
34822,52870,5
34820,52878,6
34835,52895,4
34841,52909,5
34848,52904,4
34845,52903,5
34840,52901,5
34845,52903,5
34847,52907,5
34849,52909,4
34851,52915,5
34855,52919,5
34854,52915,5
34854,52901,4
34858,52901,5
34863,52919,5
34858,52913,5
34852,52915,5
34855,52911,4
34851,52907,5
34850,52900,5
34839,52895,5
34838,52894,5
34838,52897,6
34842,52897,3
34841,52898,5
34828,52889,5
34831,52877,5
34830,52884,4
34826,52879,5
34834,52880,5
34837,52883,5
34843,52896,5
34849,52900,4
34845,52893,5
34839,52893,5
34828,52883,5
34839,52889,4
34840,52891,5
34843,52900,5
34845,52916,5
34849,52902,5
34841,52897,4
34843,52899,5
34842,52908,5
34856,52912,5
34854,52932,5
34865,52927,5
34864,52937,4
34862,52924,5
34856,52919,5
34855,52914,5
34857,52918,4
34858,52921,5
34853,52917,5
34867,52916,5
34853,52911,5
34847,52893,4
34838,52890,5
34838,52895,5
34832,52888,5
34838,52888,4
34836,52899,5
34852,52901,5
34837,52899,5
34842,52898,5
34838,52891,4
34840,52893,5
34840,52889,5
34846,52901,5
34855,52918,5
34854,52912,4
34853,52917,6
34849,52916,4
34859,52911,5
34851,52909,5
34863,52928,4
34853,52923,5
34852,52915,5
34860,52920,5
34848,52904,5
34849,52898,4
34839,52903,5
34830,52898,5
34840,52904,5
34845,52903,4
34838,52893,5
34807,52877,5
34840,52882,5
34824,52854,5
34815,52857,4
34775,52842,5
34794,52821,5
34776,52802,5
34764,52776,5
34754,52749,4
34731,52731,5
34723,52711,6
34710,52686,4
34729,52667,5
34690,52646,4
34671,52636,5
34666,52627,5
34680,52617,5
34640,52594,5
34634,52578,4
34618,52568,5
34629,52567,5
34606,52558,5
34611,52541,4
34602,52547,5
34593,52523,5
34582,52524,5
34570,52495,5
34559,52464,4
34542,52427,5
34534,52437,5
34533,52427,5
34531,52413,5
34516,52357,4
34499,52371,5
34479,52359,5
34471,52344,5
34469,52325,5
34456,52332,4
34461,52339,5
34461,52323,5
34448,52320,5
34435,52288,5
34421,52267,4
34414,52260,5
34421,52308,5
34424,52262,5
34423,52268,4
34405,52262,5
34402,52262,5
34407,52228,5
34389,52226,5
34394,52232,4
34399,52231,6
34396,52220,4
34388,52206,5
34371,52181,5
34350,52163,6
34343,52151,3
34347,52139,5
34349,52146,5
34350,52151,5
34350,52152,4
34331,52129,5
34317,52120,5
34311,52107,5
34313,52107,5
34313,52101,4
34322,52113,5
34322,52105,5
34308,52096,5
34295,52074,4
34293,52067,5
34275,52058,5
34287,52066,5
34280,52063,5
34289,52072,4
34296,52068,5
34285,52066,6
34279,52050,4
34282,52040,5
34277,52055,4
34288,52071,7
34291,52069,3
34292,52077,5
34286,52063,5
34267,52043,4
34266,52035,5
34266,52029,5
34261,52031,5
34271,52039,5
34270,52029,4
34252,52019,5
34253,52011,5
34238,51994,5
34227,51991,4
34234,51997,5
34248,52005,5
34251,52012,5
34251,52004,5
34235,51993,4
34218,51972,5
34210,51967,5
34205,51961,6
34201,51949,4
34203,51955,4
34202,51949,5
34184,51918,5
34170,51908,5
34160,51904,5
34168,51902,4
34178,51914,5
34179,51916,5
34179,51918,5
34171,51899,4
34159,51872,4
34135,51866,5
34144,51865,5
34149,51879,5
34156,51888,4
34155,51898,5
34166,51893,5
34143,51882,5
34139,51868,5
34143,51866,5
34142,51864,4
34144,51870,5
34144,51880,5
34148,51868,6
34140,51857,3
34133,51839,5
34117,51825,5
34122,51828,5
34113,51833,5
34104,51832,4
34124,51831,5
34119,51829,5
34106,51803,5
34058,51794,4
34082,51779,4
34070,51771,5
34087,51785,5
34057,51786,5
34080,51776,4
34076,51767,5
34054,51735,5
34040,51714,5
34029,51705,5
34030,51700,4
34036,51706,6
34066,51711,4
34027,51705,5
34012,51689,5
34017,51681,6
34048,51671,3
34011,51691,5
34020,51700,5
34027,51704,5
34054,51720,4
34040,51719,5
34031,51721,5
34034,51720,5
34053,51734,4
34062,51770,4
34085,51796,5
34103,51823,5
34108,51812,5
34118,51840,4
34125,51862,4
34138,51884,5
34144,51872,5
34160,51919,5
34175,51935,4
34182,51952,5
34191,51943,6
34190,51971,4
34183,51966,5
34186,51959,4
34180,51969,5
34178,51948,5
34181,51947,5
34174,51947,5
34181,51991,4
34182,51967,5
34188,51980,5
34202,51995,5
34202,52018,4
34204,51993,4
34212,52007,5
34220,52022,5
34230,52043,5
34246,52067,4
34260,52077,5
34276,52094,5
34277,52093,5
34283,52100,5
34289,52112,4
34297,52131,5
34308,52150,5
34322,52178,6
34334,52205,4
34341,52194,4
34345,52205,5
34347,52198,5
34351,52214,5
34354,52211,5
34363,52226,4
34368,52232,5
34378,52243,5
34387,52253,5
34397,52283,4
34432,52341,4
34460,52395,5
34502,52458,5
34554,52528,5
34612,52612,4
34663,52688,5
34714,52771,5
34759,52845,5
34810,52941,5
34872,53031,5
34946,53134,4
35025,53251,5
35098,53376,5
35183,53510,6
35271,53638,3
35377,53793,5
35460,53936,5
35578,54122,5
35689,54289,5
35804,54456,4
35914,54618,5
36024,54780,5
36056,54897,5
36160,54990,4
36244,55157,4
36346,55315,5
36441,55492,5
36557,55662,5
36700,55834,4
36793,55959,5
36822,56068,5
36934,56195,5
37007,56309,5
37145,56509,4
37251,56666,6
37359,56834,4
37476,56975,5
37563,57106,5
37678,57271,4
37775,57413,5
37905,57650,5
38070,57853,5
38178,58052,5
38341,58311,4
38511,58555,5
38665,58784,5
38811,59019,5
38969,59131,4
39120,59297,4
39288,59526,5
39426,59703,5
39511,59797,5
39630,59960,4
39705,60062,5
39811,60200,5
39880,60298,5
39944,60408,5
40059,60589,4
40135,60676,5
40167,60745,6
40197,60787,4
40206,60782,5
40219,60794,4
40270,60885,5
40325,61023,5
40423,61102,5
40467,61164,5
40482,61184,4
40481,61186,5
40506,61168,5
40562,61236,5
40610,61312,4
40639,61359,4
40674,61385,5
40699,61360,5
40674,61382,5
40718,61383,4
40721,61369,5
40731,61399,5
40740,61416,5
40780,61438,5
40770,61436,4
40758,61427,5
40748,61404,5
40822,61474,16
40856,61522,3
40871,61524,5
40877,61525,5
40874,61498,5
40875,61503,4
40882,61519,5
40864,61471,5
40855,61453,5
40850,61466,4
40863,61488,4
40874,61498,5
40899,61502,5
40934,61561,5
40945,61589,4
40971,61635,5
40997,61652,4
41008,61656,5
41013,61653,5
41022,61652,5
41029,61683,4
41024,61649,5
41028,61667,5
41043,61695,5
41062,61724,4
41055,61689,5
41051,61685,5
41041,61646,5
41034,61645,5
41030,61615,4
41011,61587,5
41002,61564,5
40980,61539,5
40982,61521,4
40980,61523,4
40980,61515,5
40990,61520,5
40976,61508,5
40983,61501,4
40973,61494,5
40973,61478,5
40974,61471,5
40963,61456,5
40956,61443,4
40952,61439,6
40957,61423,4
40951,61427,5
40950,61415,5
40950,61384,4
40954,61371,5
40953,61378,5
40956,61380,5
40962,61395,5
40982,61424,4
40995,61421,5
41002,61427,5
40991,61412,5
41004,61401,4
41006,61398,4
41004,61409,5
41021,61405,5
41027,61418,5
41020,61403,4
41016,61385,5
41013,61370,5
41013,61360,5
41012,61363,5
41013,61373,4
41014,61364,5
41021,61360,6
41015,61349,4
40999,61317,5
40989,61289,4
40987,61278,5
40975,61269,5
40971,61262,5
40982,61259,5
40978,61255,4
40978,61243,5
40968,61219,5
40960,61210,5
40942,61197,4
40935,61191,4
40929,61192,5
40931,61184,5
40923,61160,5
40919,61159,4
40918,61156,5
40911,61138,5
40914,61137,5
40914,61138,5
40921,61137,4
40911,61103,5
40886,61079,5
40877,61053,5
40863,61036,5
40867,61038,4
40870,61040,5
40865,61041,5
40864,61031,5
40846,61012,5
40846,60994,4
40845,60985,5
40835,60995,5
40847,60998,5
40864,61022,4
40881,61008,4
40862,61007,5
40839,60989,5
40825,60981,5
40840,60996,4
40859,61012,5
40871,61027,5
40870,61053,5
40878,61037,5
40885,61040,5
40883,61034,4
40867,61038,5
40900,61059,5
40904,61069,5
40915,61075,4
40903,61066,5
40914,61068,5
40912,61057,5
40913,61058,5
40944,61073,4
40928,61082,5
40948,61105,5
40955,61104,5
40974,61092,4
40953,61085,4
40958,61106,5
40957,61103,5
40994,61124,5
40995,61137,4
41005,61159,5
40995,61141,6
41000,61128,4
40994,61123,5
40988,61133,4
40996,61127,6
41000,61114,4
41004,61139,5
41011,61132,5
41008,61129,4
41003,61091,5
41004,61117,5
41014,61136,5
41028,61159,5
41056,61153,4
41058,61181,5
41062,61189,5
41061,61184,5
41066,61197,4
41070,61210,4
41096,61231,5
41111,61263,5
41136,61332,5
41143,61313,4
41147,61317,5
41146,61313,5
41156,61345,5
41159,61318,5
41150,61314,4
41149,61301,5
41133,61291,5
41129,61254,5
41119,61236,5
41109,61227,4
41102,61222,5
41104,61220,5
41096,61214,5
41102,61229,5
41101,61223,4
41101,61202,5
41092,61207,5
41099,61204,5
41104,61217,4
41101,61222,4
41120,61247,5
41123,61240,5
41117,61245,5
41121,61244,5
41120,61240,4
41116,61253,5
41129,61248,5
41134,61254,6
41139,61246,3
41128,61253,5
41139,61249,5
41137,61244,5
41127,61253,5
41126,61253,4
41136,61238,5
41120,61228,5
41115,61210,5
41103,61203,5
41096,61192,4
41093,61192,5
41099,61194,5
41100,61195,5
41113,61196,4
41114,61192,4
41108,61194,5
41106,61197,5
41107,61210,5
41123,61220,4
41122,61220,6
41129,61220,4
41127,61223,5
41125,61225,5
41126,61211,6
41136,61223,3
41132,61229,5
41136,61234,5
41138,61247,5
41142,61243,4
41151,61243,5
41152,61241,5
41145,61231,5
41148,61222,5
41150,61235,4
41149,61238,5
41156,61238,5
41150,61229,5
41143,61222,4
41142,61202,4
41132,61200,5
41137,61193,5
41145,61215,5
41150,61218,4
41156,61222,5
41157,61228,6
41150,61207,4
41153,61207,5
41137,61193,4
41143,61198,5
41137,61192,5
41141,61189,5
41129,61160,5
41104,61136,4
41083,61088,5
41065,61056,5
41050,61038,5
41039,61044,5
41047,61040,4
41041,61031,5
41047,61028,5
41031,61004,5
41025,60995,4
40999,60986,4
41022,60996,5
41029,61003,5
41039,61018,5
41008,61003,4
41029,61012,5
41034,61003,5
41031,61000,6
41004,61001,4
41018,61001,4
41032,61013,5
41036,61016,5
41044,61014,5
41031,61011,5
41022,60992,4
41016,60987,5
41024,60983,5
41004,60971,5
41004,60966,5
41003,60959,4
41017,60958,5
40988,60936,5
40972,60924,5
40954,60906,4
40950,60897,4
40938,60886,5
40938,60879,5
40933,60881,5
40930,60852,5
40912,60834,4
40895,60809,5
40879,60790,5
40868,60758,6
40862,60769,3
40867,60781,5
40862,60774,5
40853,60731,5
40850,60750,5
40836,60735,4
40838,60727,5
40825,60729,5
40830,60746,5
40840,60742,5
40838,60745,4
40831,60751,5
40820,60704,5
40806,60694,5
40802,60686,4
40803,60732,4
40804,60703,5
40810,60710,5
40823,60706,5
40823,60723,4
40814,60713,6
40809,60691,4
40808,60694,5
40809,60715,5
40824,60728,4
40831,60736,5
40837,60743,5
40841,60744,5
40843,60734,5
40827,60730,4
