RED,IR,EKG,TIME
65838,135596,5
65810,135544,10
65810,135544,5
65806,135539,5
65801,135542,10
65819,135559,5
65811,135543,5
65801,135536,10
65795,135524,5
65757,135460,5
65757,135460,10
65774,135466,5
65768,135469,7
65762,135448,8
65747,135460,5
65749,135456,7
65761,135472,8
65761,135472,5
65769,135515,7
65698,135506,8
65778,135502,9
65794,135524,4
65806,135548,8
65889,135599,5
65889,135599,7
65840,135622,8
65834,135602,5
65849,135638,7
65940,135645,8
65872,135647,7
65851,135642,5
65842,135620,8
65842,135620,7
65842,135546,7
65841,135607,8
65832,135607,7
65821,135593,8
65821,135593,5
65839,135521,7
65801,135590,8
65813,135591,7
65817,135582,7
65820,135633,8
65820,135633,7
65821,135584,5
65820,135605,8
65815,135539,7
65819,135654,5
65830,135565,8
65817,135570,7
65807,135569,5
65791,135533,8
65791,135533,7
65781,135448,7
65775,135511,8
65776,135521,7
65779,135552,5
65803,135557,10
65803,135557,5
65804,135568,5
65806,135581,10
65817,135586,5
65816,135570,5
65824,135596,10
65824,135596,5
65828,135605,5
65835,135599,10
65840,135639,5
65848,135648,5
65887,135658,10
65857,135649,5
65837,135651,5
65876,135669,10
65876,135669,5
65875,135671,5
65889,135680,10
65886,135689,5
65873,135676,7
65860,135665,8
65867,135663,5
65838,135619,7
65838,135619,8
65844,135646,5
65839,135630,7
65835,135605,8
65851,135609,5
65840,135608,7
65774,135497,8
65774,135497,5
65766,135499,7
65759,135449,8
65737,135427,9
65711,135351,8
65711,135351,5
65716,135363,7
65741,135363,8
65719,135375,5
65718,135375,7
65706,135386,8
65733,135397,5
65753,135457,7
65753,135457,5
65764,135461,2
65760,135451,5
65754,135446,5
65753,135455,5
65746,135442,5
65751,135442,4
65732,135438,5
65749,135436,5
65747,135431,5
65741,135436,5
65698,135441,4
65748,135429,5
65751,135449,5
65745,135447,5
65694,135469,4
65772,135490,4
65777,135518,5
65808,135564,5
65821,135635,5
65879,135708,5
65911,135771,4
65942,135822,5
66016,135848,5
65967,135861,6
65966,135865,3
65969,135855,5
66041,135844,5
65951,135825,5
65943,135798,5
65923,135784,4
65957,135776,5
65917,135758,5
65914,135749,5
65909,135736,5
65907,135714,4
65891,135711,5
65883,135684,5
65880,135676,5
65866,135604,4
65871,135662,4
65871,135659,5
65869,135671,5
65880,135599,5
65883,135680,4
65875,135680,6
65883,135687,4
65884,135646,5
65877,135698,5
65884,135693,4
65887,135689,5
65877,135734,5
65880,135678,5
65874,135692,5
65879,135689,4
65873,135772,5
65869,135682,5
65876,135676,5
65884,135684,5
65890,135759,4
65899,135715,5
65887,135721,5
65893,135720,5
65899,135720,4
65891,135706,4
65891,135702,5
65882,135689,5
65892,135708,5
65892,135706,4
65890,135713,5
65890,135705,6
65890,135693,4
65882,135695,5
65886,135694,4
65877,135685,5
65879,135675,5
65867,135660,5
65852,135629,5
65838,135599,4
65836,135589,5
65830,135579,5
65830,135568,5
65815,135562,5
65818,135556,4
65814,135538,5
65793,135524,5
65801,135502,5
65778,135479,4
65763,135458,4
65761,135451,5
65757,135442,5
65748,135417,5
65735,135422,4
65733,135417,5
65733,135397,5
65721,135380,6
65725,135384,4
65712,135363,4
65721,135354,5
65696,135340,5
65692,135344,5
65702,135331,9
65684,135327,1
65696,135312,4
65693,135334,5
65693,135337,5
65692,135326,5
65688,135310,4
65667,135284,5
65660,135271,5
65652,135239,5
65644,135238,5
65632,135214,4
65627,135189,5
65610,135167,5
65608,135169,5
65607,135163,5
65620,135176,4
65614,135176,5
65613,135182,5
65608,135181,6
65617,135192,3
65617,135191,5
65611,135179,5
65610,135170,5
65601,135151,5
65601,135136,4
65583,135112,5
65586,135122,5
65586,135120,5
65588,135112,5
65576,135118,4
65573,135110,5
65572,135116,5
65581,135130,5
65603,135148,5
65604,135166,4
65616,135198,5
65637,135222,5
65643,135236,5
65633,135235,4
65651,135230,6
65641,135238,4
65636,135229,5
65582,135216,5
65623,135207,4
65628,135212,5
65633,135194,5
65557,135199,5
65619,135180,5
65620,135184,4
65613,135171,5
65582,135157,5
65601,135155,5
65609,135171,5
65613,135180,4
65659,135175,5
65604,135166,5
65591,135141,5
65590,135130,5
65658,135126,4
65583,135127,5
65586,135122,5
65582,135102,5
65608,135086,4
65555,135063,5
65542,135038,6
65535,135036,4
65541,135006,5
65522,135009,4
65519,134999,5
65511,134995,5
65517,134950,5
65511,134981,5
65514,134992,4
65519,134988,5
65506,134904,5
65502,134980,5
65494,134953,5
65497,134943,5
65487,134896,4
65479,134923,5
65470,134909,5
65458,134886,5
65451,134912,4
65431,134843,5
65418,134805,5
65415,134782,6
65409,134864,3
65393,134775,4
65401,134776,5
65391,134755,7
65388,134795,3
65382,134722,4
65366,134707,5
65356,134679,5
65341,134662,5
65329,134628,5
65317,134604,4
65299,134573,5
65295,134566,5
65279,134547,5
65276,134546,5
65266,134517,4
65264,134514,5
65271,134524,5
65262,134512,5
65256,134522,5
65269,134521,4
65269,134534,5
65270,134537,5
65270,134533,5
65264,134516,5
65253,134508,4
65254,134493,5
65253,134489,5
65245,134487,5
65251,134492,4
65249,134506,5
65253,134504,5
65251,134506,5
65255,134511,5
65254,134510,4
65260,134515,5
65258,134516,5
65266,134518,5
65263,134532,5
65261,134515,4
65265,134527,5
65267,134538,5
65272,134532,5
65271,134537,5
65268,134537,4
65270,134525,5
65270,134533,5
65275,134532,5
65264,134517,4
65255,134519,5
65260,134512,4
65248,134502,5
65255,134493,5
65253,134495,4
65244,134500,5
65247,134499,5
65251,134499,5
65252,134503,5
65259,134508,4
65255,134496,5
65250,134497,5
65251,134485,5
65242,134482,5
65237,134468,4
65239,134469,5
65230,134462,5
65230,134446,5
65227,134449,5
65230,134451,4
65226,134454,5
65228,134447,5
65231,134457,5
65235,134470,4
65252,134488,4
65250,134499,6
65255,134518,4
65271,134522,5
65268,134530,4
65272,134533,5
65266,134541,5
65282,134553,5
65287,134570,5
65288,134586,4
65305,134606,5
65311,134634,5
65314,134648,5
65330,134648,5
65333,134650,4
65318,134636,5
65261,134617,5
65308,134595,5
65299,134592,5
65294,134582,4
65212,134575,5
65301,134589,5
65303,134580,5
65305,134593,3
65293,134595,4
65305,134596,5
65304,134592,5
65301,134573,5
65348,134579,4
65304,134594,5
65305,134608,5
65327,134634,5
65406,134638,5
65319,134628,4
65320,134622,5
65316,134621,5
65347,134609,5
65310,134598,5
65299,134589,4
65280,134564,5
65286,134524,5
65262,134498,5
65248,134445,5
65212,134429,5
65198,134338,4
65181,134343,5
65150,134303,5
65133,134270,6
65124,134173,3
65117,134242,5
65111,134227,5
65104,134222,5
65109,134185,4
65117,134222,5
65120,134257,5
65128,134251,5
65135,134303,5
65130,134248,4
65126,134250,5
65120,134257,5
65122,134330,5
65128,134254,5
65136,134264,4
65116,134241,5
65102,134271,5
65105,134214,5
65105,134213,5
65107,134209,4
65109,134224,6
65113,134216,4
65114,134225,5
65114,134241,4
65119,134248,6
65121,134256,3
65129,134265,5
65126,134262,5
65131,134277,4
65138,134277,5
65146,134280,5
65138,134299,5
65155,134300,5
65153,134301,4
65154,134303,5
65149,134301,5
65163,134311,5
65155,134303,5
65154,134307,4
65145,134305,5
65146,134291,5
65141,134297,5
65144,134290,5
65137,134282,4
65137,134271,5
65128,134264,6
65131,134275,4
65130,134277,5
65133,134274,4
65136,134276,5
65147,134274,5
65135,134271,5
65137,134290,4
65146,134285,5
65136,134282,5
65139,134281,5
65141,134283,5
65135,134279,4
65134,134277,5
65142,134279,5
65139,134286,5
65148,134286,5
65141,134281,4
65145,134294,5
65145,134298,5
65153,134300,5
65150,134302,5
65153,134320,4
65158,134315,5
65159,134326,5
65154,134318,6
65160,134326,4
65169,134339,4
65172,134343,5
65175,134343,5
65168,134354,5
65170,134364,4
65184,134366,4
65189,134382,5
65201,134383,5
65195,134403,5
65211,134419,4
65217,134434,5
65215,134438,5
65216,134452,5
65235,134456,5
65235,134464,4
65234,134471,5
65240,134479,5
65247,134477,5
65240,134492,5
65255,134507,5
65254,134506,4
65246,134509,5
65249,134514,5
65264,134520,6
65263,134524,3
65248,134530,5
65250,134518,5
65250,134505,5
65255,134507,4
65211,134511,4
65274,134525,5
65280,134542,5
65280,134562,5
65218,134550,4
65289,134553,5
65281,134544,5
65268,134540,5
65248,134526,5
65265,134513,4
65254,134503,5
65254,134498,5
65299,134486,5
65242,134493,5
65226,134463,4
65228,134452,6
65294,134451,4
65220,134447,5
65220,134437,5
65227,134445,4
65266,134439,5
65227,134461,5
65229,134477,5
65233,134479,4
65256,134500,4
65249,134515,5
65257,134534,5
65270,134541,5
65281,134508,4
65292,134569,5
65292,134592,5
65302,134585,5
65298,134517,5
65288,134571,4
65297,134584,5
65289,134573,5
65294,134552,5
65296,134597,5
65304,134607,4
65317,134609,5
65313,134672,6
65328,134637,4
65323,134642,5
65339,134654,4
65339,134746,5
65343,134681,5
65354,134692,5
65368,134711,4
65369,134778,4
65367,134730,5
65382,134752,5
65384,134772,5
65394,134784,4
65400,134793,5
65411,134787,5
65408,134792,5
65409,134813,5
65413,134824,4
65427,134832,5
65426,134851,5
65434,134850,5
65435,134857,5
65450,134862,4
65453,134889,5
65465,134901,5
65475,134921,6
65467,134919,4
65479,134929,4
65480,134937,5
65489,134936,5
65499,134955,5
65504,134981,5
65508,135014,4
65525,135025,5
65539,135059,5
65556,135070,5
65563,135106,4
65577,135120,5
65595,135160,5
65621,135211,5
65673,135316,5
65731,135433,4
65794,135542,5
65845,135640,5
65877,135712,5
65917,135787,5
65971,135889,5
66043,136026,4
66124,136196,5
66207,136338,5
66270,136463,5
66298,136512,4
66352,136600,5
66410,136720,5
66473,136856,5
66559,137003,5
66618,137118,4
66669,137182,5
66694,137220,5
66710,137263,5
66728,137292,4
66750,137321,5
66761,137349,5
66777,137352,5
66769,137359,5
66761,137356,4
66764,137352,5
66757,137338,5
66755,137331,5
66763,137363,7
66796,137414,2
66811,137445,6
66833,137500,4
66865,137558,5
66885,137615,5
66902,137608,4
66894,137597,5
66889,137556,5
66856,137531,5
66861,137523,5
66869,137555,4
66898,137596,5
66917,137634,5
66934,137655,5
66954,137689,4
66964,137715,4
66976,137728,5
66967,137716,5
66951,137666,5
66905,137596,4
66868,137505,5
66821,137420,5
66797,137381,5
66734,137383,5
66798,137387,4
66800,137379,5
66791,137368,6
66709,137353,4
66767,137336,5
66751,137305,4
66754,137298,5
66741,137289,5
66748,137309,5
66751,137306,5
66749,137300,4
66802,137262,5
66706,137226,5
66689,137171,5
66670,137138,4
66728,137100,4
66631,137075,5
66625,137067,5
66625,137053,5
66655,137056,4
66610,137031,5
66601,137024,5
66597,137005,5
66597,137000,5
66603,137028,4
66604,137024,5
66590,137015,5
66595,136967,5
66600,137029,5
66598,137032,4
66600,137035,5
66599,136955,5
66593,137022,5
66598,137021,5
66592,137012,5
66592,136978,4
66600,137027,5
66599,137014,5
66587,137008,4
66586,137062,4
66582,137000,5
66585,137001,5
66583,137002,5
66591,137096,4
66588,137020,5
66587,137021,5
66577,136991,5
66579,137035,5
66576,136972,5
66567,136979,4
66575,136994,5
66584,137008,5
66579,136998,5
66582,137004,4
66589,137006,5
66595,137010,5
66594,137024,5
66597,137029,5
66622,137055,4
66620,137065,5
66625,137067,5
66623,137077,5
66635,137108,4
66650,137132,4
66664,137136,5
66660,137173,5
66693,137232,5
66731,137303,4
66784,137395,5
66818,137454,5
66836,137476,5
66845,137494,5
66847,137492,4
66850,137507,6
66851,137509,4
66852,137507,5
66854,137539,5
66877,137565,4
66905,137607,5
66939,137663,5
66946,137684,5
66947,137682,5
66942,137660,4
66940,137654,5
66933,137668,5
66957,137695,5
66989,137781,4
67019,137832,4
67044,137870,5
67056,137907,5
67085,137946,5
67097,137984,4
67104,137982,5
67120,137989,5
67121,137981,5
67115,137983,4
67113,137985,4
67126,138028,5
67159,138094,5
67198,138170,5
67234,138220,5
67247,138235,4
67237,138221,5
67217,138190,5
67224,138189,5
67250,138253,5
67302,138361,4
67340,138420,5
67375,138501,5
67436,138618,5
67510,138761,4
67572,138867,4
67608,138943,5
67613,138942,5
67612,138928,5
67625,138975,5
67690,139102,4
67753,139217,5
67831,139373,5
67916,139537,6
67995,139654,3
67968,139583,5
67944,139525,5
67918,139485,5
67897,139428,5
67858,139369,4
67853,139370,5
67866,139386,5
67849,139411,5
67888,139433,5
67890,139443,4
67859,139339,5
67674,139091,5
67643,138948,5
67620,138920,4
67626,138926,4
67549,138931,5
67620,138896,5
67551,138761,5
67475,138595,4
67396,138448,6
67263,138170,4
67119,137898,5
67006,137701,5
67013,137593,6
66916,137583,3
66927,137609,5
66941,137612,5
67040,137653,5
66978,137703,4
67000,137739,5
67001,137734,5
67015,137703,5
66967,137665,5
66927,137591,4
66895,137498,5
66837,137388,5
66820,137373,5
66795,137345,4
66779,137295,4
66739,137168,5
66687,137111,5
66625,136980,5
66560,136869,5
66527,136724,4
66510,136793,6
66519,136805,4
66521,136822,5
66520,136774,4
66483,136744,5
66461,136681,5
66438,136628,5
66393,136599,5
66332,136431,4
66277,136329,5
66227,136256,5
66207,136283,5
66188,136159,5
66155,136113,4
66127,136059,5
66088,136015,5
66059,135909,5
66024,135864,5
66014,135840,4
66003,135829,5
65991,135821,5
65997,135815,5
65988,135793,4
65983,135782,5
65964,135760,5
65963,135739,6
65953,135733,4
65950,135728,4
65937,135725,5
65954,135734,5
65962,135763,5
65974,135786,5
65977,135794,4
65979,135784,5
65965,135780,5
65970,135781,5
65987,135795,5
65975,135793,4
65961,135767,5
65957,135751,5
65947,135742,5
65952,135736,5
65949,135741,4
65948,135760,5
65959,135759,5
65961,135774,5
65969,135783,5
65974,135792,4
65990,135823,5
66032,135937,5
66110,136075,6
66179,136197,3
66207,136232,5
66212,136245,5
66233,136297,5
66264,136358,5
66294,136429,4
66330,136507,5
66403,136655,5
66536,136948,5
66738,137323,5
66896,137590,4
66967,137677,5
66958,137646,5
66963,137661,5
66998,137749,5
67098,138005,4
67259,138271,5
67386,138498,5
67483,138690,5
67591,138890,4
67667,138996,5
67692,139036,4
67733,139129,5
67760,139158,5
67720,139049,4
67601,138762,5
67407,138441,5
67312,138310,5
67338,138375,5
67400,138493,4
67431,138538,5
67410,138495,5
67368,138362,5
67252,138108,5
67066,137766,4
66899,137471,5
66840,137407,5
66851,137402,5
66811,137332,5
66791,137318,4
66805,137339,5
66803,137304,5
66773,137256,5
66737,137172,4
66695,137121,4
66658,137094,6
66704,137155,4
66744,137232,5
66754,137220,4
66646,137086,5
66606,136866,5
66431,136546,5
66325,136388,5
66226,136384,4
66314,136437,5
66343,136491,5
66397,136574,5
66433,136650,5
66469,136720,4
66478,136710,5
66479,136708,5
66520,136669,5
66431,136621,5
66422,136602,4
66420,136616,5
66503,136607,5
66418,136611,5
66438,136653,4
66474,136727,4
66522,136750,5
66497,136767,6
66486,136755,4
66495,136762,4
66498,136744,5
66500,136748,5
66472,136709,5
66451,136678,5
66439,136594,4
66453,136674,5
66460,136684,5
66442,136639,5
66378,136427,5
66267,136286,4
66151,136062,5
66063,135928,5
66032,135874,5
66029,135902,5
66054,135927,4
66050,135908,5
66019,135884,5
65957,135692,5
65863,135523,5
65799,135433,4
65793,135518,5
65803,135485,5
65827,135488,5
65821,135503,4
65828,135539,5
65823,135502,5
65822,135507,5
65813,135480,5
65793,135458,4
65765,135391,5
65739,135347,5
65727,135344,5
65743,135393,5
65795,135468,4
65838,135550,5
65863,135612,5
65876,135615,5
65858,135586,5
65843,135509,4
65804,135452,5
65768,135408,5
65780,135440,5
65804,135486,4
65816,135487,5
65806,135458,4
65776,135406,5
65734,135344,5
65721,135302,4
65711,135283,5
65701,135265,5
65690,135243,5
65677,135217,5
65661,135206,4
65652,135194,5
65640,135169,5
65631,135151,5
65622,135141,5
65620,135134,4
65596,135094,5
65587,135060,5
65556,135003,5
65528,134954,5
65504,134912,4
65491,134888,5
65482,134878,5
65467,134858,5
65451,134824,4
65442,134797,4
65424,134763,6
65396,134710,4
65360,134650,5
65319,134596,4
65293,134544,5
65276,134495,5
65256,134472,5
65243,134449,5
65243,134456,4
65235,134456,5
65227,134446,5
65228,134437,5
65219,134428,5
65214,134421,4
65215,134431,5
65215,134433,5
65217,134421,5
65213,134425,5
65214,134435,4
65224,134425,5
65225,134445,5
65232,134466,5
65226,134469,5
65235,134468,4
65231,134467,5
65212,134442,6
65208,134431,4
65182,134387,4
65179,134359,5
65156,134333,5
65144,134312,5
65127,134292,5
65111,134249,4
65094,134223,5
65084,134198,5
65059,134164,5
65043,134123,5
65002,134088,4
65017,134064,5
64998,134047,5
64995,134025,5
64920,133992,5
64960,133982,4
64959,133965,5
64956,133971,5
64886,133975,5
64961,133969,5
64944,133965,4
64941,133954,5
64955,133951,5
64941,133943,5
64939,133927,4
64921,133914,5
64988,133899,5
64907,133884,5
64895,133881,5
64888,133847,4
64953,133854,5
64881,133832,5
64870,133821,5
64867,133802,5
64882,133816,4
64861,133799,5
64853,133798,5
64841,133793,5
64846,133765,5
64842,133783,4
64835,133759,5
64825,133759,5
64827,133680,5
64806,133722,5
64815,133713,5
64802,133711,4
64804,133634,5
64799,133692,5
64784,133667,4
64784,133666,5
64772,133662,4
64778,133667,5
64777,133659,5
64764,133643,4
64770,133709,5
64768,133638,5
64764,133637,5
64756,133623,5
64762,133704,4
64765,133625,5
64763,133622,5
64760,133629,5
64758,133659,5
64757,133617,4
64749,133595,5
64738,133600,6
64737,133599,4
64730,133594,5
64739,133601,4
64732,133590,7
64732,133591,3
64732,133587,5
64729,133584,4
64733,133593,4
64738,133584,5
64726,133588,5
64735,133591,5
64734,133587,4
64729,133587,5
64724,133584,5
64722,133579,5
64729,133580,5
64727,133572,4
64708,133564,5
64723,133562,5
64714,133555,5
64715,133565,5
64717,133561,4
64716,133549,5
64706,133541,5
64706,133531,6
64695,133515,4
64686,133514,4
64687,133503,5
64684,133511,5
64685,133504,5
64686,133511,4
64686,133505,4
64677,133503,5
64681,133490,5
64676,133488,5
64668,133478,4
64667,133467,5
64662,133459,5
64665,133465,5
64660,133458,5
64653,133460,4
64654,133454,5
64654,133455,5
64651,133448,5
64648,133447,5
64649,133439,5
64637,133424,4
64632,133420,5
64642,133407,5
64625,133409,6
64626,133399,3
64615,133394,5
64614,133386,5
64605,133373,5
64604,133381,4
64605,133374,4
64603,133363,5
64616,133375,5
64607,133383,5
64610,133381,4
64615,133368,5
64598,133353,5
64604,133361,5
64600,133353,5
64598,133357,4
64600,133359,5
64596,133359,5
64600,133368,5
64605,133362,5
64609,133371,4
64606,133371,6
64595,133366,4
64602,133366,5
64610,133357,5
64594,133356,6
64601,133346,3
64598,133343,5
64557,133342,5
64586,133332,4
64593,133329,4
64579,133321,5
64514,133312,5
64569,133296,5
64560,133288,4
64556,133263,5
64476,133241,5
64529,133218,5
64519,133190,5
64517,133195,4
64521,133170,5
64501,133156,5
64490,133147,5
64484,133140,5
64554,133147,4
64469,133125,5
64475,133128,6
64468,133118,4
64538,133124,5
64466,133115,4
64458,133110,5
64463,133113,5
64491,133112,5
64465,133112,4
64472,133110,4
64466,133113,5
64464,133097,5
64477,133124,5
64464,133107,4
64472,133125,5
64473,133054,5
64471,133113,5
64461,133119,5
64461,133109,4
64465,133019,4
64459,133101,5
64462,133094,5
64454,133098,5
64453,133085,4
64450,133088,5
64457,133089,5
64456,133103,6
64450,133164,4
64454,133091,4
64455,133098,5
64452,133093,5
64456,133181,5
64458,133111,4
64464,133104,4
64469,133104,5
64465,133136,5
64458,133103,5
64459,133098,4
64458,133095,5
64456,133101,5
64444,133089,5
64450,133086,5
64458,133088,4
64450,133083,5
64440,133073,5
64433,133056,5
64432,133040,5
64431,133042,5
64426,133029,4
64411,133002,5
64409,132986,5
64398,132979,6
64386,132950,3
64381,132936,5
64356,132912,5
64353,132892,5
64347,132894,4
64345,132886,4
64337,132881,5
64344,132883,5
64336,132875,5
64345,132884,4
64352,132891,5
64343,132898,5
64352,132899,5
64345,132893,5
64349,132902,4
64349,132902,5
64351,132918,5
64357,132918,5
64373,132934,5
64369,132936,4
64357,132922,6
64349,132904,4
64360,132914,5
64362,132914,5
64355,132924,4
64366,132933,5
64376,132940,5
64367,132943,5
64380,132951,4
64382,132953,4
64385,132970,5
64387,132974,5
64395,132978,5
64395,132973,4
64396,132988,5
64396,132992,5
64396,132990,5
64401,133008,5
64398,133002,4
64408,133010,5
64405,133005,5
64408,133011,5
64405,133013,5
64408,133006,4
64400,132991,5
64402,132994,6
64399,132996,4
64393,132997,5
64400,132984,4
64400,132989,5
64401,132986,5
64387,132985,5
64387,132976,5
64383,132970,4
64373,132956,5
64369,132946,5
64366,132929,5
64364,132928,4
64359,132916,5
64350,132920,5
64355,132913,5
64354,132897,5
64357,132904,4
64341,132903,5
64318,132904,5
64345,132890,5
64337,132887,5
64338,132890,4
64278,132889,5
64336,132884,5
64340,132884,6
64336,132883,4
64268,132886,4
64333,132893,5
64335,132895,5
64338,132893,5
64363,132898,5
64346,132916,4
64352,132913,5
64364,132923,5
64427,132928,5
64355,132934,4
64356,132938,5
64358,132932,5
64429,132939,5
64368,132942,5
64364,132945,4
64373,132949,5
64396,132942,5
64372,132947,5
64368,132952,5
64384,132955,5
64378,132942,4
64378,132963,5
64372,132957,5
64374,132959,5
64374,132896,4
64374,132950,5
64370,132933,5
64363,132930,5
64357,132865,5
64374,132935,4
64361,132940,5
64358,132918,5
64362,132922,5
64345,132916,4
64350,132915,4
64351,132909,5
64338,132961,5
64328,132877,5
64323,132864,4
64330,132846,5
64317,132909,5
64299,132824,5
64298,132813,5
64301,132816,4
64291,132837,6
64295,132797,4
64285,132804,5
64289,132802,5
64300,132809,4
64296,132816,5
64300,132820,5
64309,132832,5
64323,132844,5
64308,132838,4
64318,132854,5
64318,132862,5
64314,132868,5
64327,132865,4
64331,132863,4
64326,132875,5
64328,132879,5
64330,132874,5
64316,132864,4
64315,132854,5
64309,132849,5
64313,132831,5
64308,132828,5
64309,132832,4
64304,132828,5
64309,132833,6
64306,132834,4
64299,132823,5
64300,132815,4
64295,132807,5
64291,132808,5
64295,132809,5
64286,132799,5
64291,132794,4
64284,132792,5
64287,132795,5
64290,132793,5
64274,132788,4
64278,132778,4
64272,132777,5
64274,132761,5
64264,132766,5
64270,132747,4
64256,132747,5
64259,132740,5
64257,132738,5
64258,132727,5
64255,132734,4
64254,132729,5
64251,132728,5
64254,132730,5
64251,132736,5
64249,132718,4
64232,132704,5
64230,132698,5
64239,132694,5
64225,132670,5
64225,132670,4
64221,132666,5
64212,132652,5
64206,132653,5
64214,132655,4
64208,132649,4
64208,132650,5
64215,132653,5
64213,132667,5
64222,132675,4
64216,132680,5
64227,132678,5
64231,132695,5
64231,132693,5
64235,132701,5
64239,132708,4
64258,132734,5
64263,132754,5
64275,132773,5
64292,132806,4
64293,132819,5
64313,132835,5
64319,132856,5
64327,132873,5
64297,132892,4
64333,132906,5
64336,132914,5
64349,132906,5
64295,132923,4
64363,132940,4
64360,132939,5
64374,132975,5
64324,133002,5
64406,133043,4
64437,133079,5
64442,133112,6
64490,133159,4
64496,133187,5
64495,133209,4
64499,133208,6
64566,133223,4
64503,133200,8
64489,133200,2
64472,133187,4
64557,133185,5
64481,133182,5
64492,133170,5
64483,133164,5
64514,133170,4
64490,133173,5
64486,133181,5
64489,133183,5
64486,133171,4
64490,133173,4
64477,133167,5
64485,133168,5
64483,133111,5
64488,133177,4
64496,133191,5
64502,133190,5
64502,133137,6
64521,133231,4
64529,133270,4
64541,133276,5
64547,133274,5
64539,133286,5
64546,133292,5
64544,133289,4
64536,133350,5
64548,133284,5
64545,133299,5
64547,133294,5
64555,133387,4
64550,133305,5
64551,133289,5
64544,133282,5
64541,133321,5
64553,133304,4
64565,133324,5
64571,133351,5
64592,133380,5
64597,133392,5
64610,133415,4
64608,133410,5
64618,133426,5
64607,133418,6
64613,133411,3
64617,133408,5
64606,133397,5
64605,133407,5
64610,133403,5
64612,133401,4
64618,133387,5
64613,133392,5
64607,133395,5
64610,133384,5
64605,133392,4
64607,133394,5
64607,133392,5
64604,133388,5
64595,133374,5
64594,133377,4
64591,133365,5
64600,133360,5
64591,133362,5
64590,133358,4
64582,133342,5
64569,133315,4
64560,133299,5
64560,133283,5
64552,133259,6
64539,133254,3
64537,133257,5
64536,133247,5
64531,133250,5
64535,133236,4
64519,133228,5
64521,133215,5
64519,133214,5
64523,133214,5
64517,133213,4
64523,133236,5
64520,133234,5
64534,133251,5
64551,133264,5
64547,133277,4
64557,133281,5
64555,133289,5
64559,133298,5
64567,133297,4
64558,133296,4
64569,133310,6
64566,133313,4
64566,133310,5
64567,133305,4
64559,133309,5
64565,133303,5
64569,133300,5
64560,133290,5
64559,133292,4
64562,133303,5
64562,133294,5
64553,133288,5
64555,133287,5
64552,133279,4
64552,133282,5
64548,133274,5
64543,133266,5
64548,133275,5
64540,133266,4
64539,133272,5
64544,133259,5
64530,133259,5
64539,133258,4
64537,133257,4
64546,133262,5
64543,133265,6
64526,133261,4
64533,133254,4
64535,133238,5
64534,133245,5
64465,133237,5
64527,133231,5
64524,133229,4
64518,133226,5
64444,133220,5
64515,133225,5
64516,133227,5
64515,133227,4
64516,133227,5
64529,133227,5
64526,133236,5
64521,133252,5
64589,133250,4
64540,133278,5
64544,133304,5
64560,133324,5
64659,133336,5
64578,133348,4
64591,133343,5
64590,133357,5
64624,133356,6
64604,133365,3
64596,133379,5
64615,133384,5
64617,133410,5
64637,133456,5
64653,133492,4
64682,133537,5
64707,133533,5
64733,133620,5
64749,133662,5
64768,133692,4
64789,133664,5
64803,133757,5
64814,133776,5
64825,133786,5
64831,133769,4
64837,133801,5
64843,133800,5
64839,133802,5
64826,133844,5
64832,133809,5
64829,133805,4
64832,133801,5
64831,133880,5
64820,133787,4
64816,133779,4
64814,133793,5
64826,133856,5
64841,133826,5
64845,133849,4
64851,133835,5
64848,133834,5
64840,133804,5
64821,133782,5
64798,133757,4
64796,133751,5
64803,133750,5
64794,133752,5
64804,133749,5
64795,133748,4
64800,133747,5
64789,133729,5
64782,133724,5
64782,133706,5
64766,133675,4
64757,133654,6
64746,133639,4
64742,133637,5
64738,133621,4
64730,133623,4
64719,133617,5
64713,133591,5
64711,133590,5
64705,133579,4
64713,133586,5
64715,133608,5
64716,133626,5
64728,133618,5
64731,133641,4
64738,133643,5
64725,133632,5
64710,133581,5
64677,133518,5
64646,133450,4
64621,133420,5
64617,133410,5
64619,133405,5
64613,133393,5
64595,133378,4
64582,133341,5
64582,133337,6
64569,133325,4
64571,133310,4
64549,133293,4
64542,133285,5
64543,133270,5
64533,133249,5
64523,133227,4
64503,133198,5
64490,133162,5
64472,133136,5
64463,133124,5
64462,133117,4
64460,133115,5
64465,133129,5
64471,133127,5
64465,133143,5
64471,133142,4
64475,133134,5
64465,133125,5
64465,133118,5
64450,133115,5
64459,133097,4
64454,133098,5
64449,133096,5
64435,133078,6
64428,133067,3
64436,133059,4
64422,133047,5
64413,133032,5
64407,133031,5
64404,133022,4
64405,133015,5
64399,133012,5
64398,133009,5
64387,133014,5
64393,133006,4
64398,133005,5
64384,133000,5
64390,132999,5
64395,132996,5
64396,132998,4
64341,133004,5
64395,133018,5
64395,133004,5
64402,133008,5
64326,133006,5
64391,132994,4
64395,132986,5
64378,132967,5
64347,132961,5
64378,132957,4
64364,132960,5
64368,132968,5
64430,132974,5
64371,132971,4
64387,132987,5
64383,132999,5
64475,133018,5
64407,133037,5
64403,133037,4
64403,133036,5
64452,133043,5
64411,133047,5
64410,133036,5
64418,133041,4
64417,133042,5
64417,133058,5
64412,133064,5
64425,133063,5
64423,133024,4
64425,133071,6
64428,133083,4
64449,133099,5
64437,133028,5
64444,133099,4
64446,133120,5
64457,133127,5
64459,133083,5
64459,133153,4
64467,133166,5
64480,133186,5
64494,133243,5
64507,133225,5
64512,133247,4
64526,133263,5
64527,133359,5
64537,133288,5
64541,133314,5
64563,133322,4
64553,133377,5
64571,133336,5
64579,133338,5
64578,133359,5
64569,133365,4
64581,133364,5
64588,133365,6
64582,133376,4
64582,133374,5
64586,133381,4
64585,133379,5
64588,133375,5
64572,133371,5
64579,133372,4
64587,133373,5
64587,133380,5
64587,133389,5
64595,133404,5
64593,133404,4
64606,133408,5
64605,133429,5
64613,133441,5
64614,133444,5
64622,133458,4
64638,133467,5
64632,133474,5
64634,133486,5
64644,133487,5
64635,133463,4
64637,133473,5
64635,133480,5
64638,133478,5
64636,133472,5
64643,133485,4
64631,133491,5
64645,133489,5
64637,133481,5
64636,133482,4
64634,133492,5
64638,133474,5
64632,133473,5
64633,133480,5
64636,133494,4
64639,133474,5
64634,133466,5
64634,133460,5
64624,133446,5
64623,133452,4
64633,133473,5
64633,133466,5
64627,133464,5
64623,133444,5
64608,133438,5
64619,133432,4
64615,133431,5
64613,133443,5
64622,133443,5
64622,133435,4
64614,133434,5
64613,133421,5
64608,133429,5
64608,133413,4
64602,133390,4
64589,133371,5
64573,133363,5
64571,133345,5
64568,133359,4
64581,133361,5
64573,133357,5
64565,133339,5
64550,133321,5
64546,133292,4
64530,133281,5
64529,133286,5
64537,133282,4
64539,133290,5
64537,133295,4
64539,133284,7
64540,133280,3
64526,133259,5
64517,133238,5
64499,133223,4
64514,133222,5
64501,133212,5
64494,133199,5
64445,133209,4
64489,133208,4
64488,133191,5
64487,133180,5
64405,133167,5
64469,133168,4
64473,133148,5
64461,133143,5
64444,133131,5
64452,133121,5
64445,133120,4
64453,133126,5
64507,133126,5
64463,133139,6
64454,133141,4
64469,133148,4
64533,133152,5
64470,133158,5
64479,133166,5
64477,133168,5
64515,133166,4
64472,133181,5
64480,133193,5
64493,133201,5
64511,133220,4
64507,133224,4
64502,133237,5
64509,133244,5
64513,133190,5
64514,133226,4
64503,133232,5
64501,133229,5
64503,133153,6
64504,133225,4
64506,133235,5
64503,133229,4
64513,133205,5
64511,133237,5
64511,133243,6
64512,133231,3
64506,133285,5
64519,133250,5
64527,133252,5
64533,133261,5
64526,133368,4
64538,133285,5
64549,133306,5
64548,133309,5
64553,133378,4
64549,133323,4
64556,133309,5
64548,133307,5
64559,133336,5
64546,133324,4
64548,133315,5
64547,133320,5
64549,133328,5
64548,133307,5
64554,133325,4
64562,133329,6
64565,133334,4
64571,133348,5
64561,133346,5
64565,133355,6
64564,133351,3
64562,133342,5
64565,133341,5
64566,133356,5
64566,133349,4
64578,133360,5
64569,133354,5
64566,133338,5
64559,133337,5
64557,133340,4
64561,133337,5
64563,133347,5
64557,133345,5
64575,133363,4
64592,133364,5
64582,133383,5
64581,133394,5
64590,133410,5
64606,133419,4
64600,133431,5
64607,133433,6
64608,133428,4
64606,133429,5
64620,133436,4
64613,133436,5
64615,133455,5
64627,133460,5
64632,133467,5
64629,133468,4
64634,133481,5
64634,133469,5
64628,133462,5
64627,133468,5
64626,133456,4
64630,133466,5
64639,133478,5
64640,133482,5
64640,133497,4
64643,133495,4
64646,133498,5
64642,133509,5
64648,133496,5
64645,133522,4
64656,133532,5
64663,133546,5
64669,133554,6
64669,133552,4
64680,133560,4
64679,133567,5
64683,133577,5
64675,133560,5
64682,133551,5
64674,133545,4
64662,133530,5
64653,133521,5
64650,133522,5
64645,133508,5
64658,133505,4
64649,133504,5
64645,133500,5
64646,133495,5
64642,133496,5
64648,133495,4
64653,133518,5
64653,133509,5
64652,133516,5
64654,133513,5
64650,133508,4
64648,133501,5
64603,133510,5
64645,133501,6
64647,133487,3
64643,133485,5
64568,133474,5
64639,133475,5
64638,133474,5
64636,133470,4
64577,133471,5
64635,133479,5
64637,133481,5
64621,133476,5
64664,133461,4
64629,133468,5
64630,133454,5
64621,133445,5
64696,133438,5
64618,133420,4
64613,133408,5
64601,133423,5
64662,133405,5
64599,133412,4
64595,133406,5
64598,133402,4
64612,133418,5
64602,133424,5
64602,133417,4
64608,133421,5
64604,133408,5
64618,133454,5
64628,133475,5
64633,133479,4
64633,133420,5
64636,133492,5
64656,133528,5
64681,133588,5
64725,133591,4
64762,133736,5
64789,133804,5
64835,133867,5
64862,133936,5
64901,134006,4
64960,134130,5
65045,134295,5
65140,134553,5
65229,134650,5
65307,134764,4
65346,134826,6
65360,134939,4
65360,134840,5
65350,134822,4
65340,134811,5
65333,134819,5
65317,134756,5
65302,134731,5
65289,134700,4
65264,134665,5
65247,134606,5
65224,134584,5
65209,134558,5
65193,134505,4
65166,134458,5
65139,134409,5
65119,134361,5
65092,134340,5
65077,134307,4
65065,134288,5
65047,134263,5
65050,134248,5
65035,134215,5
65005,134161,4
64983,134108,5
64950,134046,6
64927,133987,4
64894,133937,4
64864,133880,4
64838,133838,5
64824,133815,5
64800,133766,5
64783,133725,4
64757,133682,5
64733,133645,5
64714,133609,5
64698,133570,5
64690,133538,4
64665,133527,5
64662,133507,5
64662,133498,5
64641,133474,5
64636,133458,4
64622,133433,5
64609,133405,5
64590,133380,5
64569,133340,5
64554,133301,4
64542,133269,5
64515,133236,5
64496,133205,5
64482,133172,5
64461,133136,4
64455,133130,5
64440,133113,5
64443,133117,5
64447,133102,4
64439,133084,5
64409,133067,5
64403,133050,5
64409,133047,5
64419,133063,4
64420,133085,5
64436,133086,5
64439,133099,5
64454,133130,5
64454,133143,4
64468,133143,5
64458,133127,5
64453,133126,5
64453,133119,5
64456,133143,5
64474,133157,4
64489,133190,5
64508,133236,5
64527,133265,5
64528,133269,4
64542,133273,5
64539,133262,5
64522,133253,5
64520,133232,4
64507,133226,4
64511,133223,5
64501,133208,5
64486,133185,5
64462,133123,4
64411,133051,5
64399,133001,5
64370,132967,5
64356,132932,5
64275,132921,4
64337,132916,5
64336,132904,5
64332,132895,5
64265,132903,5
64345,132910,4
64347,132921,6
64354,132914,4
64346,132891,5
64332,132871,5
64323,132831,4
64286,132800,5
64336,132764,5
64265,132730,5
64236,132705,4
64221,132664,4
64288,132645,5
64192,132615,5
64182,132592,5
64159,132574,4
64190,132551,5
64147,132519,5
64136,132515,5
64139,132507,5
64125,132488,4
64126,132484,5
64118,132466,5
64099,132446,6
64080,132376,4
64085,132419,4
64070,132410,5
64067,132398,5
64065,132317,5
64062,132391,5
64066,132388,4
64067,132386,5
64051,132350,5
64057,132367,5
64041,132364,5
64053,132371,4
64044,132416,5
64053,132366,5
64055,132360,5
64055,132369,4
64049,132434,5
64047,132361,5
64055,132363,5
64045,132357,5
64046,132393,4
64043,132347,5
64043,132339,5
64043,132336,5
64037,132338,5
64032,132332,4
64032,132319,5
64029,132324,5
64031,132325,5
64028,132316,5
64032,132327,4
64027,132306,5
64020,132301,5
64012,132298,5
64004,132285,5
64003,132288,4
64003,132280,5
64002,132268,5
63993,132258,5
63993,132246,4
63991,132247,4
63989,132245,5
63986,132251,5
63978,132248,5
63981,132254,4
63995,132258,5
63999,132270,4
63994,132266,5
64007,132271,5
64005,132287,6
64016,132299,3
64017,132309,5
64025,132327,5
64032,132332,5
64039,132347,4
64046,132365,5
64049,132366,5
64050,132378,5
64051,132390,5
64062,132406,4
64075,132423,5
64081,132442,5
64089,132439,5
64092,132437,4
64094,132440,4
64090,132441,5
64086,132449,5
64083,132450,5
64084,132445,4
64089,132452,5
64091,132454,6
64096,132449,4
64096,132452,5
64095,132449,4
64090,132458,7
64103,132471,3
64102,132485,5
64112,132474,5
64106,132478,4
64106,132478,5
64103,132476,5
64111,132473,5
64106,132477,5
64105,132473,4
64112,132489,5
64097,132482,5
64093,132468,5
64101,132459,5
64095,132451,4
64080,132444,5
64088,132434,5
64081,132423,5
64082,132421,4
64068,132423,4
64080,132425,5
64077,132430,6
64076,132431,4
64078,132440,4
64083,132444,5
64085,132440,5
64084,132446,5
64079,132453,5
64082,132452,4
64092,132444,5
64088,132444,5
64050,132454,5
64089,132468,5
64100,132462,4
64084,132450,5
64015,132434,5
64082,132420,5
64065,132418,5
64072,132414,4
64027,132418,5
64075,132413,5
64084,132430,5
64080,132430,5
64108,132431,4
64074,132430,5
64078,132438,5
64081,132438,6
64159,132437,3
64086,132440,5
64080,132443,5
64084,132431,5
64139,132436,5
64093,132436,4
64078,132437,5
64083,132426,5
64088,132423,5
64084,132420,5
64077,132408,4
64065,132398,5
64063,132361,5
64071,132392,5
64060,132374,5
64055,132380,4
64057,132310,5
64062,132374,5
64049,132371,5
64049,132369,5
64044,132293,5
64048,132365,4
64039,132350,5
64042,132346,5
64033,132348,6
64034,132334,3
64029,132327,5
64019,132318,5
64021,132381,5
64012,132305,4
64017,132304,9
64013,132306,1
64011,132394,5
64014,132298,5
64015,132296,4
64009,132307,5
64019,132333,5
64014,132305,5
64020,132311,5
64011,132307,4
64026,132326,5
64019,132319,5
64029,132324,5
64023,132321,5
64030,132321,4
64034,132333,6
64027,132338,4
64034,132339,5
64036,132355,4
64030,132342,4
64041,132359,5
64041,132358,5
64045,132374,5
64048,132365,4
64043,132368,5
64045,132368,5
64045,132380,5
64048,132373,5
64044,132371,4
64054,132374,5
64047,132382,5
64051,132371,5
64048,132368,5
64045,132368,4
64045,132368,5
64048,132370,5
64042,132358,5
64033,132353,5
64045,132349,4
64042,132353,5
64036,132351,6
64044,132349,4
64048,132365,5
64053,132372,4
64042,132369,5
64044,132373,5
64038,132374,5
64053,132385,4
64056,132384,4
64050,132383,5
64050,132381,5
64055,132378,5
64056,132389,4
64063,132389,5
64056,132384,5
64051,132390,5
64056,132383,5
64056,132374,4
64050,132351,5
64043,132340,5
64037,132336,5
64017,132316,5
64011,132306,4
64001,132292,5
64000,132279,5
63995,132273,6
63996,132277,4
63997,132278,4
63998,132275,5
63989,132279,5
63997,132263,5
63998,132295,5
64006,132304,4
64018,132314,5
64025,132322,5
64029,132345,5
64043,132350,4
64044,132368,5
64051,132394,5
64065,132402,5
64074,132427,5
64076,132430,4
64080,132420,5
64070,132415,5
64068,132414,5
64079,132417,5
64084,132433,5
64058,132441,4
64093,132465,5
64095,132477,5
64107,132483,5
64057,132498,4
64112,132508,5
64114,132527,5
64133,132530,5
64071,132558,5
64147,132557,4
64169,132590,5
64170,132605,5
64176,132616,5
64191,132641,4
64201,132663,4
64214,132672,5
64274,132699,5
64224,132712,5
64239,132725,4
64238,132736,5
64326,132755,5
64268,132776,5
64266,132797,5
64283,132799,4
64312,132811,6
64286,132831,4
64301,132858,5
64320,132884,5
64338,132894,4
64330,132896,5
64333,132915,5
64344,132937,5
64355,132894,5
64355,132948,4
64365,132968,5
64384,132984,5
64383,132926,5
64391,132994,5
64384,133007,4
64395,133026,5
64401,133000,5
64409,133042,5
64421,133067,4
64420,133084,5
64428,133161,5
64454,133129,5
64473,133172,5
64491,133217,4
64509,133317,5
64527,133254,6
64521,133280,4
64536,133282,5
64543,133344,4
64542,133300,5
64550,133311,5
64551,133320,5
64565,133352,5
64572,133354,4
64576,133372,5
64590,133374,5
64587,133398,5
64603,133422,5
64612,133420,4
64618,133427,5
64621,133452,5
64629,133462,5
64639,133495,4
64651,133513,4
64665,133532,5
64671,133544,5
64677,133552,5
64676,133556,4
64685,133551,5
64681,133559,5
64677,133562,6
64682,133566,4
64683,133567,4
64685,133562,5
64680,133556,5
64681,133539,5
64665,133534,5
64679,133554,4
64681,133543,5
64676,133552,5
64678,133553,5
64683,133558,5
64682,133561,4
64685,133556,5
64681,133570,5
64683,133569,5
64688,133571,5
64680,133563,4
64689,133568,5
64698,133583,5
64699,133588,5
64700,133589,5
64711,133624,4
64719,133635,5
64729,133635,5
64733,133638,5
64728,133633,4
64719,133609,5
64702,133601,5
64702,133594,5
64683,133555,5
64693,133560,4
64696,133566,5
64700,133583,5
64704,133583,5
64711,133593,5
64704,133602,4
64710,133600,5
64707,133608,5
64715,133594,5
64715,133607,5
64709,133589,4
64707,133580,5
64701,133565,5
64691,133544,5
64688,133539,4
64682,133529,5
64662,133507,4
64650,133483,5
64639,133445,5
64619,133405,4
64589,133359,5
64558,133309,5
64539,133262,5
64511,133209,5
64500,133193,4
64488,133164,5
64476,133158,5
64469,133137,5
64459,133101,5
64432,133071,4
64416,133035,5
64391,132994,5
64345,132961,5
64360,132934,5
64350,132910,4
64335,132869,5
64245,132847,5
64305,132807,5
64280,132775,5
64263,132753,4
64193,132737,6
64238,132720,4
64248,132703,5
64234,132696,4
64254,132685,5
64221,132677,5
64212,132655,5
64213,132659,5
64285,132671,4
64224,132668,5
64218,132681,5
64217,132689,5
64280,132686,5
64223,132694,4
64225,132700,5
64243,132703,5
64256,132707,5
64238,132710,5
64237,132721,4
64241,132719,5
64235,132695,5
64232,132715,6
64227,132712,4
64234,132698,4
64227,132625,5
64226,132689,5
64222,132671,5
64207,132661,5
64202,132581,4
64200,132657,5
64195,132649,5
64186,132637,5
64182,132643,4
64185,132619,5
64174,132602,5
64175,132588,5
64158,132652,5
64165,132569,4
64152,132571,5
64143,132566,5
64143,132637,5
64142,132559,5
64148,132560,5
64150,132565,4
64149,132594,5
64155,132577,5
64153,132583,6
64163,132598,3
64173,132603,5
64167,132608,5
64181,132626,5
64188,132621,5
64197,132651,4
64202,132671,5
64206,132682,5
64216,132693,5
64214,132692,4
64215,132682,4
64216,132688,5
64211,132682,5
64203,132667,5
64206,132680,4
64215,132679,5
64213,132696,5
64213,132708,5
64219,132695,5
64228,132701,4
64224,132722,6
64227,132717,4
64226,132718,5
64237,132730,5
64235,132738,6
64235,132731,3
64235,132745,5
64247,132749,5
64244,132756,5
64244,132746,4
64250,132749,5
64243,132759,5
64239,132753,5
64244,132754,5
64255,132752,4
64245,132752,5
64247,132749,5
64246,132749,5
64247,132751,4
64249,132740,5
64248,132749,5
64252,132772,5
64248,132761,5
64250,132752,4
64249,132761,5
64240,132752,6
64235,132765,4
64250,132752,5
64247,132756,4
64250,132761,5
64241,132758,5
64253,132768,5
64251,132773,5
64259,132773,4
64251,132784,5
64264,132790,5
64270,132804,5
64279,132808,5
64277,132818,4
64282,132830,5
64287,132836,5
64292,132845,5
64301,132869,4
64313,132889,4
64321,132910,5
64336,132931,5
64332,132940,5
64338,132942,4
64351,132961,5
64356,132948,5
64358,132973,6
64362,132967,4
64364,132966,4
64358,132979,5
64365,132970,5
64357,132975,5
64357,132969,5
64356,132970,4
64339,132969,5
64363,132971,5
64360,132961,5
64357,132960,5
64298,132967,4
64348,132954,5
64354,132952,5
64346,132965,5
64279,132944,5
64347,132946,4
64341,132933,5
64345,132944,5
64337,132953,5
64347,132942,5
64339,132943,4
64344,132942,5
64399,132947,5
64338,132940,6
64337,132964,3
64347,132963,5
64430,132971,5
64359,132970,5
64354,132966,5
64355,132966,4
64396,132968,5
64348,132972,5
64361,132961,5
64353,132961,5
64364,132968,4
64364,132983,5
64372,132981,5
64361,132986,5
64361,132939,5
64374,132993,4
64368,132983,5
64367,132987,5
64372,132926,5
64372,132990,5
64369,132987,5
64368,132971,4
64361,132933,5
64359,132979,5
64357,132969,6
64365,132968,4
64353,133003,4
64353,132960,5
64357,132972,5
64361,132963,4
64356,133046,5
64349,132954,5
64358,132972,5
64357,132949,5
64349,133013,4
64351,132960,5
64351,132943,5
64350,132950,5
64340,132960,5
64335,132930,4
64335,132914,5
64325,132903,5
64311,132882,5
64299,132856,6
64288,132835,3
64283,132801,6
64268,132782,4
64258,132775,5
64252,132765,4
64249,132757,4
64248,132774,5
64273,132809,5
64289,132850,5
64309,132887,4
64315,132883,5
64301,132866,5
64295,132830,5
64276,132807,5
64253,132766,4
64227,132743,5
64220,132719,5
64220,132714,5
64212,132711,5
64205,132697,4
64208,132682,5
64196,132678,5
64198,132671,5
64202,132667,5
64192,132666,4
64187,132641,5
64162,132616,6
64163,132595,4
64144,132571,5
64153,132588,4
64157,132595,5
64165,132611,5
64169,132620,5
64174,132612,4
64163,132612,4
64162,132609,5
64170,132632,5
64197,132682,5
64207,132717,4
64246,132770,5
64277,132841,5
64316,132931,5
64342,132958,5
64343,132948,4
64324,132918,5
64299,132850,5
64272,132775,5
64198,132634,5
64131,132510,4
64049,132378,5
63985,132250,5
63960,132237,6
63982,132294,4
64035,132379,4
64059,132420,5
64063,132403,5
64042,132372,5
64023,132333,4
63988,132257,4
63956,132198,5
63939,132199,5
63952,132208,5
63959,132216,4
63959,132215,5
63937,132173,5
63921,132151,5
63905,132118,5
63875,132046,4
63836,131988,5
63798,131934,5
63767,131856,5
63743,131820,5
63728,131823,5
63751,131853,4
63770,131884,5
63748,131891,5
63774,131878,5
63761,131860,4
63732,131818,5
63655,131788,5
63731,131821,5
63756,131870,5
63789,131911,4
63723,131912,5
63777,131883,5
63747,131822,5
63724,131752,4
63680,131665,4
63631,131621,5
63632,131607,5
63620,131617,5
63701,131627,4
63635,131628,5
63623,131604,5
63603,131576,5
63649,131508,5
63542,131448,4
63506,131384,6
63503,131373,4
63517,131360,5
63476,131332,5
63462,131291,4
63431,131254,5
63423,131175,5
63351,131070,5
63264,130907,5
63189,130768,4
63136,130631,5
63127,130664,5
63100,130619,5
63068,130536,5
63016,130413,4
62994,130424,5
62963,130354,5
62907,130275,5
62855,130158,4
62820,130102,4
62786,130035,5
62754,129994,6
62748,130027,4
62731,129957,4
62718,129930,5
62704,129900,7
62695,129970,3
62691,129867,5
62688,129872,4
62685,129879,5
62701,129956,5
62728,129976,5
62774,130058,5
62797,130122,4
62837,130199,5
62876,130244,5
62903,130292,5
62925,130360,5
62967,130428,4
63002,130476,5
63027,130529,5
63057,130584,5
63077,130623,5
63099,130648,4
63109,130666,5
63117,130697,5
63137,130724,5
63151,130735,4
63156,130769,5
63168,130798,5
63187,130816,5
63203,130838,5
63213,130856,4
63211,130870,5
63224,130867,5
63227,130879,5
63223,130888,5
63221,130878,4
63228,130882,5
63227,130888,5
63222,130876,5
63223,130879,5
63229,130879,4
63226,130875,5
63227,130893,5
63222,130874,5
63226,130891,5
63218,130873,4
63221,130869,5
63218,130871,5
63226,130886,5
63238,130882,5
63229,130881,4
63225,130886,5
63226,130884,5
63229,130879,5
63225,130875,4
63219,130878,5
63219,130859,5
63210,130866,5
63212,130859,5
63209,130854,4
63208,130848,5
63208,130841,5
63200,130826,5
63197,130825,5
63193,130815,4
63184,130802,5
63187,130803,5
63186,130790,5
63178,130792,5
63177,130784,4
63169,130784,5
63171,130770,5
63171,130776,5
63164,130770,5
63167,130754,5
63159,130756,3
63156,130763,5
63162,130761,5
63158,130754,4
63151,130751,4
63151,130742,5
63154,130751,5
63143,130744,5
63144,130729,4
63145,130728,5
63141,130728,5
63148,130733,5
63138,130730,5
63140,130729,4
63140,130725,5
63143,130725,5
63135,130715,5
63139,130708,5
63093,130711,4
63132,130712,5
63127,130697,6
63129,130701,4
63071,130705,5
63137,130706,4
63138,130700,5
63122,130707,5
63079,130696,5
63125,130689,5
63125,130702,4
63122,130701,5
63153,130691,5
63124,130703,5
63139,130705,4
63128,130713,5
63208,130704,5
63135,130711,5
63136,130715,5
63148,130728,4
63199,130730,5
63150,130727,5
63140,130719,5
63134,130710,5
63156,130715,4
63143,130722,5
63145,130722,5
63134,130719,6
63134,130693,4
63142,130737,4
63151,130720,5
63140,130726,5
63143,130654,5
63134,130707,5
63122,130708,4
63140,130710,5
63123,130638,5
63133,130697,5
63130,130701,4
63130,130701,5
63122,130710,4
63128,130696,5
63130,130699,5
63126,130695,4
63115,130759,5
63116,130698,5
63123,130691,5
63118,130688,5
63128,130769,5
63121,130691,4
63120,130686,5
63128,130691,5
63126,130719,6
63128,130701,3
63127,130716,5
63132,130715,5
63131,130718,5
63131,130713,5
63138,130706,4
63124,130716,5
63135,130713,5
63130,130721,5
63135,130713,5
63132,130717,4
63136,130715,5
63134,130721,5
63129,130715,5
63126,130703,4
63125,130700,4
63126,130697,5
63124,130695,5
63109,130675,5
63103,130650,4
63100,130638,6
63102,130647,4
63100,130670,5
63113,130685,5
63123,130702,6
63142,130729,3
63146,130736,5
63144,130736,5
63145,130740,5
63146,130743,4
63150,130736,5
63142,130731,5
63133,130719,5
63135,130719,5
63147,130742,4
63180,130817,5
63211,130877,5
63240,130921,5
63250,130935,4
63259,130926,4
63248,130917,5
63233,130903,5
63230,130899,5
63251,130917,4
63251,130947,5
63251,130949,6
63272,130993,4
63297,131033,5
63315,131044,4
63310,131052,5
63329,131078,5
63339,131121,5
63368,131168,5
63406,131227,4
63433,131283,5
63452,131311,5
63442,131300,5
63442,131284,5
63432,131261,4
63418,131257,5
63429,131235,5
63401,131211,5
63379,131152,5
63354,131091,4
63341,131085,5
63355,131135,5
63401,131238,5
63437,131306,4
63456,131303,4
63434,131252,5
63399,131172,6
63367,131145,4
63366,131157,4
63384,131164,5
63383,131175,5
63387,131187,5
63384,131165,5
63373,131138,4
63352,131088,5
63330,131059,5
63293,131004,5
63271,130948,5
63245,130907,4
63231,130877,5
63175,130879,5
63236,130876,5
63238,130871,5
63224,130863,4
63150,130853,5
63213,130822,5
63189,130807,5
63170,130759,5
63154,130789,4
63190,130815,5
63209,130856,5
63221,130871,6
63275,130859,3
63198,130825,4
63194,130820,5
63201,130836,5
63278,130854,5
63207,130850,4
63193,130816,5
63180,130796,5
63221,130811,5
63186,130818,5
63179,130786,4
63175,130772,5
63171,130749,5
63146,130725,5
63128,130707,5
63138,130712,4
63145,130696,5
63142,130728,5
63140,130713,5
63133,130712,5
63133,130626,5
63133,130700,4
63128,130692,5
63137,130724,5
63147,130707,5
63155,130739,4
63145,130734,5
63129,130700,5
63118,130707,5
63098,130647,4
63104,130633,5
63079,130622,5
63085,130686,5
63075,130584,5
63067,130583,4
63076,130611,5
63083,130653,5
63083,130615,5
63092,130620,5
63084,130634,4
63090,130645,5
63086,130628,5
63089,130622,5
63083,130625,5
63094,130620,4
63093,130625,6
63088,130626,4
63086,130624,5
63092,130630,5
63083,130611,4
63085,130615,5
63083,130613,5
63078,130598,5
63077,130593,4
63084,130602,4
63083,130591,9
63086,130604,1
63095,130644,5
63093,130638,4
63111,130660,5
63122,130680,5
63128,130699,5
63144,130716,5
63157,130741,4
63166,130755,5
63168,130766,5
63170,130780,5
63183,130784,5
63184,130803,4
63187,130803,5
63197,130828,6
63200,130825,4
63202,130826,5
63212,130841,4
63217,130853,5
63208,130853,5
63220,130856,5
63215,130848,5
63209,130856,4
63216,130846,5
63214,130848,5
63219,130857,5
63228,130869,4
63233,130870,4
63232,130888,5
63240,130899,5
63245,130906,5
63257,130931,4
63259,130958,5
63270,130960,5
63279,130970,5
63294,130977,5
63293,131004,4
63299,131016,5
63306,131040,5
63320,131055,5
63316,131068,5
63346,131085,4
63345,131090,5
63342,131099,5
63351,131104,5
63347,131096,5
63348,131100,4
63354,131102,5
63347,131096,5
63355,131112,5
63343,131106,5
63349,131119,4
63358,131123,5
63350,131121,5
63359,131116,5
63350,131109,4
63357,131112,5
63350,131101,5
63351,131097,5
63349,131107,5
63349,131103,5
63341,131108,4
63342,131086,5
63334,131078,5
63342,131080,5
63292,131074,4
63329,131071,5
63335,131066,5
63329,131078,5
63275,131079,5
63326,131077,4
63341,131089,5
63334,131083,5
63282,131087,5
63351,131106,5
63348,131114,4
63356,131125,5
63384,131139,5
63361,131131,5
63370,131141,4
63375,131139,4
63438,131137,5
63384,131146,5
63372,131169,5
63379,131171,4
63455,131181,6
63387,131171,4
63384,131164,5
63376,131147,5
63399,131147,4
63379,131154,5
63378,131162,5
63384,131167,5
63389,131155,5
63393,131177,4
63395,131180,5
63387,131191,5
63402,131140,5
63401,131200,5
63408,131203,4
63408,131199,5
63407,131126,5
63403,131212,5
63407,131225,5
63417,131222,5
63418,131224,4
63424,131236,5
63431,131234,5
63427,131248,4
63435,131310,4
63435,131264,6
63446,131276,4
63448,131282,5
63458,131376,4
63450,131280,5
63450,131305,5
63466,131303,5
63465,131351,5
63469,131324,4
63474,131320,5
63478,131319,5
63475,131322,5
63473,131309,5
63475,131317,4
63471,131326,5
63471,131319,5
63473,131323,5
63472,131315,5
63463,131316,4
63470,131320,5
63474,131324,5
63480,131332,5
63480,131335,3
63486,131345,4
63502,131350,5
63488,131372,5
63490,131376,5
63504,131381,4
63506,131379,5
63509,131393,5
63514,131394,5
63513,131403,5
63524,131414,4
63531,131423,5
63542,131440,5
63541,131462,5
63545,131482,5
63568,131480,4
63572,131511,5
63578,131517,5
63586,131532,5
63593,131549,5
63603,131564,5
63615,131591,4
63623,131617,5
63635,131626,5
63649,131642,6
63651,131650,3
63646,131654,5
63644,131674,5
63663,131670,5
63670,131688,4
63672,131698,4
63674,131696,5
63674,131699,5
63680,131700,5
63688,131708,4
63683,131713,5
63690,131719,5
63694,131724,5
63700,131731,5
63705,131746,4
63697,131744,5
63707,131755,5
63714,131759,5
63716,131777,5
63736,131775,4
63726,131784,6
63729,131781,4
63726,131803,5
63730,131806,5
63745,131811,6
63738,131827,3
63748,131839,5
63758,131853,5
63763,131867,4
63773,131885,4
63785,131900,5
63793,131923,5
63813,131949,5
63828,131987,4
63840,132015,5
63860,132038,5
63871,132076,5
63887,132091,5
63897,132117,4
63916,132138,5
63913,132142,5
63900,132147,5
63921,132162,5
63927,132170,4
63935,132191,5
63901,132224,6
63984,132257,4
63998,132297,5
64015,132333,4
63958,132350,5
64049,132387,5
64061,132410,5
64067,132439,5
64067,132458,4
64094,132478,5
64107,132488,5
64119,132524,5
64182,132542,4
64151,132571,4
64162,132585,5
64153,132591,5
64240,132606,5
64169,132619,4
64174,132637,5
64188,132635,5
64219,132643,5
64187,132640,5
64189,132652,4
64203,132670,5
64222,132692,5
64222,132703,6
64220,132717,4
64238,132730,4
64236,132708,5
64248,132767,5
64266,132785,5
64267,132818,5
64291,132787,4
64319,132908,5
64336,132939,5
64365,133001,5
64389,133002,4
64413,133069,4
64416,133080,5
64417,133056,5
64417,133127,5
64448,133151,4
64492,133224,5
64524,133303,5
64565,133452,5
64597,133438,5
64632,133472,5
64617,133455,4
64610,133469,5
64578,133359,5
64551,133315,6
64553,133344,3
64567,133375,5
64588,133391,5
64584,133408,5
64618,133463,5
64633,133481,4
64649,133512,5
64642,133471,5
64619,133432,5
64598,133367,5
64578,133379,4
64587,133392,5
64591,133397,5
64606,133411,5
64588,133386,4
64557,133318,4
64527,133265,5
64507,133229,5
64507,133237,5
64518,133288,4
64561,133366,6
64621,133450,4
64617,133433,5
64585,133371,5
64537,133269,4
64480,133170,5
64446,133110,5
64450,133110,5
64457,133161,5
64473,133162,4
64464,133148,5
64448,133130,5
64447,133103,5
64417,133060,5
64387,132982,4
64325,132871,5
64287,132807,5
64268,132813,5
64287,132828,4
64291,132864,4
64307,132875,5
64302,132858,5
64303,132864,5
64321,132930,4
64376,133011,5
64374,133000,6
64355,132948,4
64349,132937,5
64345,132929,4
64336,132901,5
64319,132884,5
64340,132937,5
64391,133034,5
64426,133084,4
64432,133094,5
64436,133106,5
64448,133150,5
64483,133222,5
64516,133245,4
64542,133307,5
64588,133404,5
64640,133476,5
64635,133467,5
64609,133397,4
64566,133326,5
64575,133343,5
64593,133408,5
64629,133461,4
64656,133501,4
64681,133529,5
64676,133544,6
64692,133572,4
64748,133694,4
64837,133860,5
64894,133943,5
64868,133860,5
64833,133789,5
64814,133791,4
64842,133862,5
64889,133927,5
64907,133959,5
64910,133926,5
64848,133932,4
64914,133970,5
64952,134036,5
64971,134045,5
64882,134005,5
64903,133900,4
64851,133811,5
64844,133813,5
64865,133949,5
65002,134165,5
65100,134302,4
65093,134247,5
65097,134154,5
65036,134158,6
65052,134180,3
65059,134184,5
65104,134124,5
64964,133967,5
64858,133770,5
64768,133623,4
64767,133512,5
64654,133436,5
64639,133384,5
64640,133402,5
64652,133389,4
64618,133362,5
64616,133355,5
64584,133280,5
64545,133173,5
64521,133166,4
64524,133192,5
64531,133176,5
64478,132984,5
64356,132801,5
64210,132534,5
64101,132355,4
64039,132205,5
64007,132224,5
63986,132158,4
63950,132087,5
63897,132026,4
63852,131911,5
63807,131834,5
63776,131774,4
63747,131794,5
63718,131682,5
63718,131667,5
63703,131648,5
63689,131680,4
63673,131605,5
63663,131580,5
63654,131580,5
63655,131589,5
63648,131540,4
63617,131501,5
63588,131458,5
63570,131398,5
63544,131360,5
63534,131350,4
63543,131353,7
63530,131354,3
63543,131367,5
63547,131378,4
63543,131369,4
63545,131391,5
63554,131394,5
63554,131404,5
63566,131412,4
63572,131433,5
63571,131446,5
63595,131483,5
63620,131526,5
63629,131555,4
63654,131585,5
63670,131637,5
63688,131654,5
63691,131656,5
63695,131672,4
63695,131678,5
63705,131693,5
63714,131704,5
63710,131715,5
63722,131728,6
63739,131756,3
63761,131798,6
63774,131827,4
63790,131855,5
63788,131868,4
63804,131865,5
63802,131871,5
63797,131884,5
63809,131885,4
63809,131895,5
63821,131907,5
63832,131925,5
63838,131959,5
63850,131961,4
63848,131973,5
63857,131975,5
63858,131975,5
63867,131990,5
63871,132013,4
63883,132038,5
63895,132049,5
63910,132063,5
63911,132076,5
63908,132081,4
63909,132089,5
63914,132102,5
63923,132107,5
63927,132123,5
63938,132129,4
63944,132159,5
63959,132184,5
63961,132196,5
63964,132209,4
63975,132212,4
63976,132230,5
63983,132232,5
63989,132229,5
63990,132239,4
63990,132240,5
64002,132244,5
63998,132255,5
64006,132261,5
64004,132258,4
64005,132265,5
64002,132268,5
64010,132258,5
64010,132272,5
64013,132278,5
64010,132283,4
64003,132277,5
63962,132272,5
63999,132280,5
64006,132277,4
64012,132273,5
63940,132272,5
64011,132281,5
64018,132264,5
64012,132281,4
63945,132271,5
64009,132277,5
64018,132285,5
64013,132291,4
64048,132291,4
64021,132303,5
64012,132307,5
64015,132295,5
64101,132302,4
64016,132304,5
64014,132289,5
64016,132292,5
64064,132280,5
64008,132294,4
64025,132306,6
64023,132323,3
64053,132324,5
64038,132337,5
64045,132355,4
64042,132354,5
64055,132332,5
64058,132370,5
64061,132366,5
64060,132381,4
64063,132327,5
64075,132403,5
64082,132402,5
64075,132406,5
64076,132333,4
64079,132409,5
64075,132401,5
64068,132393,5
64073,132405,4
64072,132391,5
64064,132381,5
64072,132390,6
64067,132465,4
64070,132390,4
64063,132394,5
64071,132399,5
64065,132471,5
64074,132404,5
64081,132411,4
64081,132407,5
64080,132425,5
64081,132405,5
64088,132411,5
64085,132418,4
64080,132430,5
64078,132428,5
64080,132424,5
64081,132424,5
64080,132433,4
64088,132440,5
64097,132463,5
64097,132468,5
64108,132476,5
64113,132485,4
64118,132488,5
64114,132490,5
64120,132512,6
64123,132514,3
64131,132518,5
64147,132535,5
64147,132556,5
64150,132569,5
64161,132569,4
64161,132567,5
64158,132559,5
64156,132550,5
64144,132555,5
64141,132526,4
64130,132516,5
64132,132507,5
64130,132510,5
64123,132500,5
64129,132499,4
64115,132481,5
64104,132474,5
64101,132463,5
64097,132451,4
64094,132440,5
64091,132432,4
64083,132420,5
64076,132401,5
64058,132374,6
64036,132338,3
64020,132309,5
64016,132288,5
64002,132268,5
63974,132236,4
63965,132206,5
63951,132173,5
63938,132134,5
63914,132127,5
63911,132098,4
63894,132076,5
63885,132059,5
63857,132012,5
63845,131974,5
63825,131931,4
63798,131902,5
63793,131888,5
63800,131900,5
63808,131922,5
63829,131970,4
63859,132020,6
63882,132061,4
63900,132085,5
63908,132100,4
63898,132095,4
63908,132100,5
63912,132111,5
63937,132160,5
63956,132214,4
63998,132292,5
64027,132337,5
64038,132356,5
64048,132364,5
64065,132414,4
64098,132453,5
64111,132519,5
64144,132535,5
64150,132562,5
64170,132572,4
64154,132607,5
64190,132628,5
64196,132639,5
64200,132643,5
64158,132675,4
64230,132717,5
64240,132731,6
64240,132714,4
64163,132689,5
64216,132639,4
64183,132593,5
64169,132577,5
64166,132567,5
64168,132571,4
64146,132542,5
64129,132503,5
64182,132462,5
64072,132389,5
64022,132282,4
63956,132150,5
63980,132054,5
63866,132007,5
63857,131980,5
63847,131983,4
63895,132007,5
63873,132010,5
63861,132010,5
63868,131999,5
63862,131990,4
63859,131993,5
63860,131998,5
63865,132019,6
63866,131979,4
63880,132039,4
63881,132040,5
63871,132023,5
63855,131932,5
63850,131993,4
63846,131965,4
63838,131946,5
63827,131894,5
63805,131910,5
63796,131885,4
63792,131884,5
63797,131937,5
63797,131880,5
63785,131861,5
63769,131820,4
63767,131883,5
63739,131784,5
63729,131773,5
63725,131762,5
63721,131801,5
63728,131745,4
63730,131756,5
63721,131753,5
63730,131764,6
63727,131761,3
63724,131754,5
63721,131734,5
63719,131739,5
63719,131750,5
63726,131769,4
63735,131780,5
63739,131783,5
63738,131790,5
63741,131806,4
63753,131821,4
63757,131837,5
63791,131888,5
63821,131954,5
63847,132022,4
63895,132097,5
63937,132168,5
63972,132244,5
64014,132327,5
64054,132391,4
64077,132428,6
64100,132477,4
64127,132537,5
64168,132599,5
64186,132622,4
64189,132649,5
64210,132666,5
64217,132679,5
64207,132661,5
64201,132624,4
64166,132577,5
64151,132553,5
64144,132537,5
64156,132551,5
64173,132597,4
64205,132670,5
64246,132732,5
64249,132733,5
64249,132723,4
64225,132684,5
64217,132668,5
64191,132613,5
64190,132618,5
64187,132625,4
64208,132651,5
64215,132663,6
64197,132642,4
64180,132605,5
64165,132553,4
64129,132480,5
64108,132436,5
64085,132419,5
64090,132412,5
64084,132410,4
64079,132422,5
64090,132433,5
64098,132443,5
64097,132441,5
64099,132449,4
64108,132443,5
64101,132443,5
64106,132453,5
64098,132431,4
64082,132425,4
64071,132390,5
64064,132390,5
64074,132395,5
64079,132401,4
64076,132398,5
64065,132373,5
64050,132331,6
64025,132302,4
64021,132300,4
64027,132301,5
64033,132315,5
64023,132331,5
64034,132319,5
64041,132339,4
64039,132341,5
64038,132335,5
64002,132337,5
64051,132356,5
64061,132377,4
64058,132374,5
63992,132361,5
64045,132345,5
64046,132327,4
64042,132333,4
63980,132327,4
64035,132314,5
64019,132285,5
64011,132259,5
64031,132232,4
63977,132210,5
63977,132193,5
63963,132183,5
64039,132191,4
63958,132175,5
63959,132179,5
63965,132188,5
64036,132206,5
63983,132250,4
64018,132297,5
64028,132335,5
64059,132347,5
64056,132363,5
64068,132373,4
64061,132384,5
64071,132344,5
64058,132371,5
64063,132365,5
64068,132388,4
64091,132354,5
64111,132469,5
64147,132555,5
64173,132594,5
64185,132535,5
64211,132652,4
64240,132719,5
64280,132804,5
64323,132868,4
64343,132894,5
64339,132886,5
64327,132846,5
64315,132907,5
64342,132895,4
64385,133001,5
64448,133109,5
64500,133276,5
64530,133244,5
64539,133253,4
64530,133216,5
64506,133198,5
64484,133152,5
64514,133225,5
64580,133359,4
64668,133539,5
64770,133697,5
64791,133716,5
64785,133694,5
64779,133693,4
64814,133788,6
64869,133910,4
64938,134006,5
64952,134017,4
64944,133988,5
64925,133943,5
64910,133928,5
64944,134031,5
65043,134240,4
65161,134439,5
65211,134505,5
65198,134467,5
65186,134421,5
65150,134373,4
65135,134341,5
65130,134345,5
65157,134425,5
65235,134568,5
65305,134688,4
65345,134732,5
65364,134776,5
65388,134830,5
65408,134854,5
65399,134809,4
65354,134759,5
65358,134765,5
65397,134858,5
65465,134973,4
65498,135006,4
65480,134967,5
65437,134868,5
65389,134826,5
65405,134833,4
65419,134861,5
65421,134867,5
65415,134860,9
65415,134841,1
65389,134770,4
65352,134694,5
65285,134574,5
65237,134504,5
65244,134534,5
65276,134608,4
65306,134641,5
65310,134662,5
65310,134655,5
65301,134626,5
65302,134629,4
65295,134637,5
65290,134618,5
65263,134545,5
65207,134438,5
65155,134340,4
65115,134284,5
65114,134269,5
65133,134301,5
65132,134313,4
65109,134255,4
65075,134167,5
65012,134058,5
64954,133955,5
64931,133928,4
64935,133940,5
64940,133935,5
64924,133919,5
64927,133923,5
64912,133907,4
64905,133870,6
64879,133823,4
64848,133753,5
64820,133729,5
64811,133716,6
64790,133687,3
64780,133655,5
64770,133618,5
64754,133589,5
64702,133601,4
64763,133614,5
64773,133647,5
64787,133660,5
64713,133646,4
64767,133625,4
64763,133601,5
64747,133593,5
64733,133582,5
64738,133580,4
64730,133558,5
64712,133529,5
64763,133536,5
64712,133521,5
64705,133510,4
64701,133499,5
64772,133490,6
64697,133489,4
64685,133497,5
64689,133493,4
64715,133471,7
64667,133442,3
64659,133434,5
64659,133419,5
64659,133410,4
64644,133395,5
64626,133375,5
64619,133373,5
64614,133308,5
64615,133343,4
64597,133329,5
64589,133304,5
64568,133219,5
64568,133264,4
64555,133249,4
64545,133231,5
64543,133172,5
64534,133224,5
64543,133222,4
64540,133226,6
64545,133284,4
64552,133247,6
64547,133239,4
64548,133245,4
64552,133325,5
64550,133253,5
64555,133271,5
64555,133271,5
64560,133345,4
64572,133301,5
64579,133315,5
64586,133338,5
64594,133353,5
64598,133343,4
64606,133365,5
64612,133372,5
64611,133376,5
64620,133358,4
64611,133379,4
64609,133389,5
64619,133400,5
64620,133404,5
64625,133419,5
64637,133431,4
64640,133444,5
64650,133456,5
64646,133455,6
64644,133452,3
64659,133459,5
64646,133460,5
64645,133440,5
64648,133457,5
64652,133460,4
64663,133460,5
64657,133469,5
64664,133469,5
64662,133485,5
64667,133488,4
64677,133509,5
64691,133526,5
64691,133537,5
64686,133528,5
64691,133541,4
64690,133544,5
64710,133565,5
64716,133586,5
64729,133619,4
64741,133635,5
64756,133662,4
64773,133689,5
64783,133710,5
64796,133735,7
64809,133759,2
64818,133775,5
64821,133783,5
64840,133822,5
64842,133835,4
64849,133852,5
64871,133875,5
64887,133910,5
64909,133941,5
64925,133979,4
64943,134002,5
64947,134027,5
64960,134047,5
64953,134036,5
64948,134022,4
64942,134014,5
64944,134020,5
64951,134029,5
64968,134061,4
64979,134092,4
65002,134127,6
65013,134149,4
65035,134162,5
65031,134189,4
65048,134211,5
65061,134228,5
65071,134264,5
65086,134276,5
65099,134297,4
65118,134332,5
65126,134348,5
65139,134372,5
65146,134391,5
65160,134409,4
65159,134410,5
65180,134438,5
65176,134438,5
65187,134453,5
65196,134463,4
65197,134474,5
65204,134488,5
65162,134476,5
65207,134492,5
65205,134493,4
65207,134498,5
65161,134526,6
65240,134551,4
65241,134575,4
65249,134571,4
65190,134569,5
65247,134578,5
65259,134577,5
65250,134588,4
65292,134595,5
65276,134609,5
65267,134619,5
65274,134620,5
65357,134639,4
65292,134655,5
65302,134682,5
65316,134717,5
65395,134756,5
65368,134812,4
65408,134895,5
65459,134992,5
65529,135083,5
65570,135201,5
65644,135337,4
65737,135527,5
65839,135693,5
65947,135889,6
66012,136026,3
66085,136149,4
66161,136227,5
66237,136424,5
66300,136547,5
66388,136720,5
66509,136826,4
66575,137050,5
66641,137161,5
66688,137235,5
66726,137323,4
66768,137385,5
66776,137420,5
66823,137503,5
66896,137712,5
66991,137837,4
67093,138018,5
67158,138116,5
67150,138191,5
67126,138035,5
67100,137988,5
67073,137928,4
67057,137941,5
67056,137945,5
67094,138014,5
67147,138129,4
67238,138294,5
67305,138409,5
67351,138477,5
67361,138485,4
67359,138472,4
67341,138449,5
67319,138414,5
67292,138356,5
67262,138288,4
67248,138274,5
67255,138286,5
67261,138301,5
67260,138275,5
67232,138230,4
67203,138165,5
67177,138107,5
67127,138031,5
67084,137974,5
67084,137944,4
67097,137965,6
67108,138016,4
67151,138118,5
67223,138215,5
67225,138213,4
67205,138170,5
67173,138107,5
67151,138073,5
67144,138059,4
67152,138083,4
67183,138174,5
67257,138328,5
67357,138501,5
67417,138578,4
67391,138501,5
67293,138315,5
67213,138164,5
67163,138084,5
67156,138072,4
67165,138102,5
67200,138158,5
67229,138225,5
67271,138309,5
67340,138464,4
67422,138583,5
67421,138563,6
67375,138465,4
67314,138329,5
67219,138147,4
67109,137937,5
67006,137770,5
66974,137748,5
66987,137802,5
67035,137869,4
67055,137884,5
67030,137804,5
66967,137687,5
66932,137631,4
66910,137606,5
66893,137604,5
66906,137598,5
66820,137400,5
66683,137139,4
66623,137075,5
66654,137152,5
66690,137201,5
66657,137087,5
66540,136842,4
66422,136663,5
66432,136736,5
66502,136891,5
66592,137025,5
66601,137018,4
66548,136889,5
66475,136742,5
66398,136620,5
66350,136543,5
66286,136400,4
66136,136117,5
66041,135941,5
66037,135971,5
66096,136117,4
66124,136288,4
66235,136317,5
66195,136233,5
66117,136067,5
65934,135884,4
65932,135727,5
65877,135637,5
65848,135611,5
65836,135603,5
65835,135573,5
65807,135493,4
65765,135430,5
65791,135385,5
65724,135359,5
65715,135337,4
65675,135272,5
65732,135231,5
65633,135200,5
65628,135166,5
65583,135105,4
65572,134991,5
65463,134877,5
65409,134764,5
65345,134648,4
65317,134573,4
65263,134499,5
65208,134370,5
65126,134259,5
65092,134151,4
65081,134182,5
65060,134135,5
65022,134059,5
64961,133875,5
64909,133852,4
64903,133853,6
64916,133893,4
64926,133856,5
64918,133869,5
64872,133764,4
64800,133616,5
64727,133555,4
64691,133433,5
64655,133378,5
64630,133343,4
64609,133384,5
64599,133267,5
64578,133233,5
64547,133190,5
64535,133214,4
64520,133143,5
64505,133114,5
64503,133104,5
64494,133126,4
64489,133104,4
64496,133104,5
64496,133117,6
64508,133144,4
64521,133176,4
64530,133205,5
64541,133198,6
64530,133187,4
64525,133182,5
64527,133194,4
64529,133187,5
64529,133196,5
64527,133181,5
64508,133169,5
64507,133136,4
64484,133118,5
64485,133110,5
64460,133082,5
64453,133064,5
64435,133017,4
64421,132991,5
64415,132980,5
64414,132983,5
64416,132992,5
64416,132995,4
64404,132997,5
64406,132970,5
64384,132940,6
64371,132929,3
64368,132894,5
64348,132870,5
64341,132840,5
64325,132838,5
64317,132829,4
64317,132829,5
64319,132823,5
64316,132820,5
64313,132816,5
64321,132818,4
64318,132824,5
64319,132823,5
64323,132827,5
64314,132830,5
64314,132812,4
64309,132802,5
64301,132809,5
64314,132823,5
64320,132821,5
64320,132825,5
64323,132821,4
64311,132839,5
64325,132845,5
64323,132845,6
64320,132839,3
64312,132818,7
64308,132811,3
64309,132817,5
64305,132819,4
64316,132817,5
64305,132825,5
64316,132817,5
64303,132819,5
64307,132821,4
64304,132815,5
64304,132811,5
64292,132822,5
64305,132800,5
64296,132807,4
64296,132795,5
64299,132801,5
64286,132795,5
64282,132776,5
64292,132772,4
64281,132776,6
64287,132763,4
64286,132780,5
64283,132774,4
64286,132777,6
64297,132790,3
64292,132801,5
64260,132815,5
64309,132828,4
64311,132823,5
64302,132818,5
64248,132829,5
64302,132807,5
64310,132822,4
64302,132817,5
64234,132821,5
64299,132819,5
64300,132816,5
64307,132809,4
64321,132800,5
64290,132775,5
64279,132769,5
64265,132740,5
64331,132738,4
64254,132714,5
64241,132685,6
64223,132648,4
64276,132625,5
64200,132597,4
64184,132583,5
64170,132577,5
64195,132558,5
64178,132575,4
64183,132583,4
64170,132578,5
64179,132549,5
64156,132532,5
64130,132479,4
64096,132426,5
64078,132321,5
64052,132340,5
64030,132282,5
64006,132255,4
63995,132165,4
64001,132235,5
63995,132247,5
64013,132281,5
64033,132313,4
64049,132349,5
64066,132394,5
64101,132445,6
64112,132534,4
64125,132496,4
64124,132463,5
64107,132449,5
64088,132489,5
64078,132395,4
64088,132417,4
64113,132467,5
64138,132549,5
64157,132578,5
64184,132604,4
64203,132638,5
64203,132625,5
64194,132603,5
64175,132562,5
64138,132513,4
64122,132481,5
64110,132457,5
64108,132431,5
64096,132425,5
64083,132417,5
64090,132423,4
64106,132449,5
64116,132463,5
64112,132464,6
64105,132447,3
64092,132410,5
64080,132381,5
64055,132347,5
64043,132317,5
64018,132275,4
63981,132202,5
63960,132161,5
63948,132153,5
63939,132130,4
63929,132138,4
63932,132125,5
63931,132112,5
63925,132100,5
63908,132082,4
63912,132075,5
63913,132075,5
63895,132057,5
63897,132055,5
63879,132017,4
63855,131980,6
63838,131957,4
63825,131926,5
63827,131930,5
63831,131940,4
63834,131942,5
63843,131969,5
63856,131988,5
63853,132000,5
63869,132013,4
63861,132005,5
63853,131978,5
63846,131960,5
63837,131932,4
63816,131919,4
63807,131905,5
63803,131873,5
63795,131872,5
63791,131861,4
63793,131870,5
63782,131855,5
63790,131860,5
63785,131850,5
63760,131812,4
63747,131792,5
63746,131767,6
63728,131767,4
63737,131771,5
63737,131774,4
63736,131772,5
63740,131770,5
63734,131766,5
63734,131764,5
63734,131765,4
63736,131772,5
63735,131771,5
63734,131760,5
63731,131753,5
63729,131740,4
63716,131735,5
63705,131723,5
63714,131708,5
63704,131710,4
63705,131703,4
63685,131694,5
63690,131674,5
63688,131653,5
63663,131628,4
63599,131602,5
63641,131593,5
63643,131580,6
63628,131573,4
63552,131564,4
63620,131551,5
63621,131556,5
63619,131548,5
63605,131561,5
63623,131570,4
63629,131564,5
63627,131581,5
63685,131572,5
63634,131578,5
63638,131587,4
63634,131577,5
63714,131582,5
63636,131584,5
63627,131582,5
63637,131586,4
63673,131588,5
63629,131567,5
63619,131565,5
63624,131563,5
63625,131553,4
63616,131548,5
63605,131542,5
63613,131544,5
63611,131501,4
63620,131554,5
63611,131558,5
63621,131565,5
63623,131508,5
63636,131592,4
63638,131600,5
63640,131610,5
63657,131584,5
63659,131626,5
63660,131639,4
63662,131651,5
63672,131697,5
63677,131668,5
63681,131684,5
63690,131691,4
63694,131768,5
63695,131701,5
63691,131695,5
63684,131683,4
63682,131739,5
63693,131683,4
63672,131672,5
63680,131684,5
63677,131679,4
63676,131682,5
63676,131683,5
63683,131692,5
63680,131689,5
63680,131695,4
63687,131692,5
63686,131699,5
63688,131703,5
63690,131717,5
63699,131716,4
63695,131723,5
63697,131727,5
63700,131720,5
63713,131725,5
63703,131743,4
63700,131733,5
63706,131729,5
63705,131737,5
63718,131746,5
63717,131750,4
63717,131749,6
63716,131749,4
63709,131746,5
63723,131749,4
63710,131748,4
63717,131767,5
63721,131771,5
63730,131771,5
63728,131766,4
63731,131777,5
63727,131769,5
63736,131780,5
63729,131780,5
63738,131786,4
63737,131797,5
63734,131804,5
63739,131788,5
63740,131800,5
63736,131790,4
63740,131794,5
63742,131796,5
63726,131803,5
63728,131792,5
63730,131782,4
63729,131768,5
63723,131770,6
63714,131753,4
63713,131751,4
63708,131730,4
63694,131723,5
63702,131726,5
63695,131731,5
63698,131727,4
63705,131724,5
63700,131729,5
63704,131734,5
63715,131749,5
63715,131754,4
63715,131757,5
63719,131756,5
63717,131773,5
63727,131773,5
63731,131792,4
63739,131799,5
63748,131818,5
63748,131819,5
63738,131795,5
63738,131798,4
63738,131790,5
63734,131798,5
63740,131798,5
63746,131805,5
63745,131813,4
63751,131815,5
63743,131831,5
63749,131818,5
63745,131826,4
63755,131826,4
63747,131837,5
63762,131850,5
63717,131859,5
63764,131851,4
63779,131870,5
63774,131878,5
63716,131888,5
63801,131901,5
63799,131910,4
63799,131916,6
63743,131910,4
63810,131927,5
63808,131933,5
63812,131932,5
63837,131939,4
63814,131954,5
63821,131953,5
63827,131969,5
63908,131987,4
63841,131982,5
63858,132001,5
63850,132003,5
63912,132015,4
63851,132020,4
63865,132048,5
63862,132056,5
63892,132055,5
63875,132070,4
63886,132078,5
63889,132078,5
63894,132066,5
63906,132111,5
63901,132100,4
63907,132103,5
63902,132040,5
63907,132107,4
63909,132108,5
63908,132114,4
63915,132056,6
63914,132130,3
63919,132145,5
63932,132160,5
63929,132174,4
63945,132173,5
63947,132184,5
63954,132203,5
63967,132286,5
63963,132223,4
63963,132239,5
63978,132247,5
63979,132331,5
63991,132266,4
63991,132274,4
63989,132275,5
63981,132296,5
63993,132271,5
63990,132265,4
63997,132269,5
63993,132272,5
63991,132271,6
63991,132262,4
63992,132266,4
63986,132265,5
63979,132251,5
63976,132256,5
63974,132250,5
63975,132239,4
63979,132249,5
63971,132236,5
63976,132229,5
63970,132223,5
63964,132223,4
63972,132216,5
63958,132210,5
63952,132211,5
63966,132214,5
63978,132223,4
63972,132223,5
63972,132243,5
63981,132240,5
63981,132253,5
63972,132253,4
63977,132251,5
63987,132251,5
63978,132253,6
63984,132248,3
63972,132250,5
63972,132248,5
63967,132218,5
63956,132189,5
63943,132182,4
63938,132168,5
63938,132159,5
63928,132167,5
63939,132173,5
63942,132171,4
63938,132161,5
63935,132150,5
63930,132150,5
63927,132154,5
63925,132140,4
63917,132124,5
63919,132116,5
63917,132115,5
63912,132122,4
63912,132106,5
63906,132114,4
63915,132123,5
63918,132125,5
63915,132129,6
63922,132140,3
63915,132140,5
63929,132157,5
63945,132167,5
63956,132197,4
63965,132229,5
63982,132245,5
63984,132262,5
63993,132261,5
63986,132255,4
63993,132251,5
63986,132258,5
63987,132258,5
63981,132260,9
63997,132249,1
63987,132226,4
63994,132265,5
63998,132263,5
63995,132264,5
63996,132260,4
64006,132287,6
64008,132306,4
64021,132303,5
64020,132304,4
64007,132300,4
63998,132288,5
63997,132274,5
63995,132269,5
63992,132264,4
63947,132253,5
63990,132249,5
63988,132243,5
63976,132232,5
63909,132230,4
63976,132237,5
63986,132246,5
63988,132256,5
63971,132251,5
63986,132250,4
63985,132244,5
63984,132237,5
64026,132233,5
63976,132226,5
63971,132230,4
63978,132224,5
64055,132213,6
63966,132216,4
63956,132203,5
63960,132198,4
63992,132170,5
63942,132153,5
63925,132133,5
63918,132097,4
63914,132078,4
63888,132052,5
63884,132020,5
63877,132012,5
63862,131949,4
63849,132001,5
63854,131991,5
63857,131996,5
63864,131925,5
63859,132005,4
63861,131998,5
63860,132012,5
63866,131956,5
63868,132013,5
63868,132012,4
63869,132015,5
63872,132051,5
63874,132032,6
63877,132039,4
63879,132037,4
63881,132110,5
63874,132014,5
63868,132021,5
63870,132004,5
63862,132062,4
63847,131985,5
63850,131979,5
63850,131989,5
63853,132005,4
63853,131973,5
63849,131985,5
63852,132003,5
63867,132026,5
63872,132034,4
63865,132014,5
63853,131991,5
63839,131959,5
63834,131936,5
63826,131936,5
63839,131968,4
63854,131988,5
63871,132011,5
63876,132018,6
63870,132032,3
63873,132029,5
63860,132024,5
63862,132025,5
63873,132020,5
63882,132036,4
63882,132036,5
63878,132043,5
63884,132035,5
63887,132038,4
63880,132043,4
63886,132051,5
63890,132069,5
63897,132080,5
63903,132083,4
63910,132086,5
63910,132086,5
63905,132089,5
63903,132073,5
63890,132053,4
63886,132038,6
63869,132017,4
63859,131999,5
63847,131980,5
63852,131980,4
63847,131957,5
63831,131953,5
63824,131956,5
63832,131954,5
63833,131947,4
63829,131936,5
63812,131910,5
63787,131867,5
63777,131834,5
63765,131834,4
63758,131814,5
63749,131779,5
63707,131722,5
63684,131659,4
63636,131570,4
63586,131493,5
63551,131415,5
63480,131265,5
63380,131071,4
63296,130926,5
63208,130772,6
63151,130684,4
63118,130627,5
63108,130602,4
63081,130552,5
63039,130486,5
63003,130437,5
62991,130401,5
62969,130368,4
62963,130365,5
62961,130334,5
62936,130318,5
62924,130297,5
62923,130311,4
62932,130328,5
62947,130372,5
62959,130377,5
62959,130388,5
62963,130382,4
62975,130399,5
62984,130419,5
62978,130474,5
63027,130508,4
63046,130515,5
63027,130496,5
62965,130474,6
63029,130508,4
63069,130579,4
63099,130653,5
63064,130713,5
63152,130751,5
63168,130769,5
63191,130785,4
63214,130823,5
63217,130858,5
63226,130881,5
63253,130919,5
63351,130979,4
63295,130998,5
63302,130996,5
63305,131004,5
63382,131020,5
63323,131070,4
63351,131105,5
63356,131116,5
63399,131145,5
63403,131209,5
63446,131293,4
63496,131376,5
63549,131457,5
63603,131596,5
63673,131710,4
63723,131797,5
63754,131790,5
63787,131897,5
63823,131967,5
63882,132073,4
63934,132085,4
63963,132219,5
63984,132260,5
63992,132259,5
63996,132261,4
63990,132268,5
64008,132296,5
64043,132400,5
64115,132576,5
64183,132668,4
64269,132789,5
64311,132899,5
64373,133088,5
64432,133112,5
64481,133188,5
64508,133230,4
64521,133292,5
64538,133295,5
64573,133348,4
64615,133448,4
64700,133631,5
64821,133839,5
64927,134040,5
65031,134221,4
65116,134401,5
65205,134552,5
65267,134620,5
65292,134666,5
65326,134729,4
65348,134755,5
65368,134800,5
65407,134860,5
65406,134863,5
65399,134838,4
65398,134831,5
65388,134818,5
65387,134823,5
65417,134871,5
65452,134959,4
65521,135076,7
65595,135222,3
65681,135380,5
65761,135495,5
65811,135562,4
65829,135614,5
65855,135637,5
65879,135672,5
65894,135704,4
65917,135724,5
65908,135693,5
65876,135625,5
65836,135537,5
65794,135456,4
65763,135432,5
65792,135475,5
65843,135576,5
65913,135712,5
65987,135859,4
66032,135924,5
66049,135930,5
66060,135965,5
66072,135968,5
66069,135949,4
66072,135970,5
66115,136086,5
66225,136305,5
66358,136563,5
66498,136769,4
66569,136924,5
66641,137023,5
66695,137143,5
66767,137290,4
66847,137439,4
66939,137620,5
67028,137803,5
67150,138038,5
67321,138390,4
67585,138910,5
67818,139332,5
67956,139632,5
68084,139876,5
68186,140057,4
68207,140093,4
68263,140254,5
68462,140786,5
68806,141419,5
69056,141906,3
69240,142229,5
69330,142394,5
69408,142538,5
69443,142707,5
69554,142868,4
69691,143118,5
69710,143140,5
69678,143081,5
69538,142768,5
69251,142174,4
68957,141712,5
68740,141253,5
68410,140626,5
68118,140144,4
67792,139639,4
67624,139315,5
67574,139269,5
67595,139396,5
67706,139833,4
68111,140507,6
68466,141224,4
68825,141905,5
69195,142716,5
69629,143509,6
70119,144487,3
70514,145128,5
70805,145585,5
70888,145808,5
70927,145898,4
71038,146179,5
71269,146387,5
71135,146263,5
71014,146024,5
70842,145681,4
70589,145122,5
70218,144519,5
69893,143923,5
69591,143375,4
69267,142740,4
69019,142408,5
68930,142214,5
68630,141576,5
68153,140626,4
67717,139869,5
67235,138916,6
66725,137972,4
66235,136847,5
65722,135860,4
65158,134631,7
64654,133527,3
64100,132222,5
63418,130753,5
62726,129286,4
62304,128272,5
61707,126762,5
61116,125424,5
60556,123953,5
59966,122622,4
59394,121396,5
58855,120154,5
58470,119108,5
58075,118208,5
57738,117309,4
57370,116260,5
56931,115212,5
56497,114303,5
56163,114179,4
55866,113492,4
55678,113020,5
55502,112642,6
55273,112123,4
55100,111689,4
54995,111364,5
54826,110820,5
54656,110441,5
54420,109968,5
54160,109358,4
53867,108733,5
53442,107685,5
52902,106596,5
52332,105514,5
51894,104721,4
51862,104501,5
51870,104483,5
51805,104252,5
51618,103928,5
51408,103552,4
51320,103529,5
51408,103708,5
51403,103610,5
51394,103531,5
51327,103488,4
51362,103614,5
51539,103870,5
51500,103755,6
51387,103523,3
51348,103625,5
51589,104025,5
51793,104461,5
51953,104935,5
52355,106107,4
53286,108104,5
54330,110225,5
54786,111207,5
54637,111193,5
54605,111675,4
55168,113226,5
56069,115247,5
56892,117309,5
57865,119831,5
59043,122445,4
59999,124527,5
60535,126142,5
61188,127787,5
61812,129370,5
62210,130303,5
62454,130988,4
62440,130985,5
62219,130764,5
61941,130403,6
61881,130331,3
61615,129861,5
61348,129432,5
61123,128962,5
60582,127828,4
59878,126575,5
59409,125668,5
59105,125128,5
58873,124781,5
58952,124862,4
58854,124569,5
58637,124120,5
58432,123757,5
58489,123885,5
58649,124157,4
58694,124257,5
58581,123821,5
58309,123403,5
58016,122778,5
57896,122718,4
57864,122786,6
58272,123651,4
59331,125906,5
60547,128293,5
61735,130962,4
64000,135548,5
65419,137358,7
67115,141437,3
69711,147013,4
72205,152311,5
73923,155429,5
75137,157790,5
76120,160729,5
79527,167253,4
82085,172025,5
84307,178023,5
86512,182441,5
88633,186635,5
90513,190317,4
91633,192653,5
92205,194365,5
93231,196617,5
93993,197904,5
95597,200663,4
96340,202153,5
97120,203748,6
97155,203867,4
97397,204032,5
97262,203813,4
96969,203634,5
97443,204127,5
96975,203138,5
96891,203016,4
96099,200891,4
94692,198588,5
95016,199572,5
96113,201403,5
96367,201185,4
95279,198583,5
93513,195298,5
92094,192224,5
89894,187919,5
87642,183442,4
85660,179877,5
84538,178604,5
83244,176066,5
81941,173765,5
81099,172302,4
80558,171546,5
80286,170798,5
79630,169663,6
79352,169205,4
78886,168075,4
78524,167799,5
79250,169410,5
79921,170617,5
79914,170258,5
79705,170088,4
80242,171350,5
80646,171926,5
81275,173650,5
82824,176299,4
84062,178902,4
85540,181306,5
86272,182558,5
86579,183127,5
87186,184424,4
88182,186874,5
90249,190678,5
91824,193705,5
93238,196064,5
94139,197807,5
94880,198476,4
95427,199795,5
96931,202503,5
98256,205091,5
99470,206892,4
99170,207232,5
99283,207285,5
99710,207845,5
99638,207615,5
100039,208399,4
100166,208269,5
99757,207520,5
99275,206609,5
98723,205728,4
98718,205694,4
98113,204475,5
97569,203631,5
97420,203483,5
97135,202745,4
96334,201263,5
95428,199382,5
95043,198551,5
95347,198962,5
96191,200325,4
97073,201853,6
98612,204088,4
99597,205468,5
100491,206472,5
100314,205557,4
98815,202624,5
97203,200245,5
96523,199465,5
95873,198163,5
95024,196539,4
94037,194528,5
92813,192322,5
92108,191218,5
92296,191741,5
92604,192179,4
92178,191177,5
91218,189361,5
89703,186349,5
87302,181985,4
85368,179038,4
84509,178476,5
84270,178079,5
83890,177586,5
84448,178402,4
82389,173115,5
78875,168160,6
77723,165461,4
77429,165293,5
78336,167279,4
79786,169711,5
80876,171672,5
81708,173012,5
82171,173954,5
84034,178308,4
87904,185172,5
91352,190787,5
94209,196070,5
97275,201544,5
99825,205026,4
100822,207776,5
101728,209675,5
102848,211405,5
103516,212441,5
103502,212429,4
103103,211947,5
102947,212053,5
103132,212612,5
103305,212561,4
103089,212260,5
103022,211850,5
102593,211123,6
102486,210982,4
102137,210437,4
101872,209742,5
101455,208820,5
100880,207837,5
100180,206873,5
99915,206038,4
99484,205097,5
98882,203837,5
98234,202423,5
97402,200960,5
96529,199318,4
95534,197445,10
94732,195783,5
93766,194155,5
92805,192298,5
91657,190249,10
90628,188128,5
89408,186225,5
88565,184813,10
88579,184108,5
88579,184108,5
88791,184380,10
89110,184945,5
89799,186223,5
90886,188136,10
92041,189817,5
93089,191641,7
97176,197165,8
97176,197165,5
98756,199456,7
99859,200462,8
99119,198805,9
85612,175497,10
85612,175497,9
83820,171893,10
80823,166335,5
69775,146070,7
69775,146070,8
70112,147192,5
72527,151327,7
75303,156351,8
79014,163124,5
83853,171867,7
110118,214720,8
110118,214720,5
112166,217151,7
113446,218768,8
113650,219393,5
113599,219736,7
114184,220968,8
114665,221694,5
114994,222460,7
116106,224809,8
116106,224809,9
116278,224866,5
116174,224712,8
115973,224428,7
115943,224449,5
115886,224196,8
115886,224196,7
115818,224128,8
115747,224005,5
115685,223889,7
115598,223706,8
115420,223065,9
115420,223065,5
115404,222906,8
115413,222866,7
115366,222641,5
115149,222345,8
114925,221934,7
113620,219881,7
113620,219881,10
113424,219604,5
113280,219400,5
113261,219360,8
113303,219277,7
113800,220044,10
113800,220044,9
113925,220172,10
113955,219986,9
113955,219986,9
113801,219765,10
113587,219423,5
112033,216781,8
112033,216781,7
111405,215713,9
110839,214779,10
109473,212214,9
109473,212214,10
109300,212000,5
109240,211711,5
108968,211232,10
108601,210630,5
108049,210114,5
106825,207906,10
106332,207096,5
105770,206373,5
105403,205752,10
105151,205461,5
104991,205071,7
104608,204398,8
104250,203462,5
103376,202318,7
101766,199650,8
101766,199650,5
112601,217769,7
102089,199699,4
101496,198833,1
100367,196808,2
98611,193960,5
96505,191151,5
94363,186739,5
91829,182988,4
90111,180381,5
88847,178370,6
88559,178611,4
88719,179005,5
89426,180312,4
90552,181974,5
91660,183866,5
92463,185076,5
92881,185654,5
93230,186148,4
93553,186697,5
93704,186900,5
93870,187245,5
94098,187698,5
93852,186942,4
93224,185910,5
92753,185042,5
91908,183797,5
91138,182406,5
90931,182277,4
91359,183100,5
91935,184109,5
92431,184832,5
92842,185641,4
94056,187756,4
95559,189984,5
96534,191951,6
97809,193539,4
98584,195069,4
99872,197208,5
100986,198263,5
101793,199568,5
102418,200476,5
103137,201642,4
103578,202120,5
103577,202169,5
104150,203301,5
104784,204308,5
105404,205355,4
106234,206790,5
107204,208364,5
108242,210002,5
109288,211730,5
110559,213696,4
111471,214514,5
112317,215717,5
112739,216374,5
113053,216785,5
113289,217132,4
113466,217265,5
113496,217316,5
113606,217382,6
113562,217202,3
113475,216976,5
113256,216661,5
113055,216367,5
112741,215791,5
112274,214965,4
111802,214156,5
111528,213706,5
111342,213359,5
111243,213125,5
110974,212592,4
110641,212072,5
110448,211771,5
110121,211167,5
109733,210649,5
109643,210484,4
109403,210110,5
109033,209472,5
108207,207976,5
106759,205595,5
104828,202599,5
103045,200118,4
101797,198513,5
100888,196988,5
99836,195575,4
98837,194557,4
98235,194031,5
98049,193896,5
97826,193520,5
97179,192684,4
96900,192433,5
96626,191786,5
95809,190367,5
94987,189080,5
94204,187693,4
92966,185512,5
91438,182964,5
90110,181052,5
89816,180621,5
89124,179008,4
88095,178042,5
87259,176673,5
87015,176247,5
87442,176955,5
87639,176828,4
87572,177110,6
88616,179050,4
90761,183019,5
94278,189037,5
97792,194506,4
100369,198334,5
102248,200200,5
103188,201594,5
103865,202701,4
104396,203699,5
105217,204867,5
105778,205774,5
106478,206963,5
107143,208452,4
108417,209846,5
109130,210833,5
110048,212097,5
110713,213123,5
111665,213527,9
112422,214436,5
112836,214719,5
113139,214926,5
113290,215132,4
113622,215514,5
114222,216209,6
114859,216421,4
114168,216572,5
114536,216870,4
114729,216653,5
114950,216479,5
115021,216793,5
115342,216964,4
115814,217481,4
116332,217655,5
116188,217129,5
115668,215929,5
114947,214924,4
114664,214405,5
114326,214012,5
113427,212624,5
112310,211042,5
110697,208215,4
107666,203581,5
102620,195951,5
97459,189674,5
95622,187527,5
97240,190982,4
98707,192815,5
98995,193462,5
99265,194267,6
100018,195628,4
100803,196986,4
101802,198516,5
102342,199407,5
103627,201586,5
105007,203095,5
105451,203732,4
105646,204139,5
105100,202850,5
104187,201321,5
102573,198371,4
100222,195017,4
99298,193990,5
99819,194847,5
100479,195772,5
101195,196902,4
101914,198005,5
102487,198804,5
102691,199111,5
103203,200090,5
104207,202031,5
105361,203531,4
105759,204069,5
105642,203759,5
105534,203861,5
105516,203889,4
105661,204396,5
107030,206634,5
108157,208081,5
109149,209857,5
110941,212584,4
112597,214721,5
113565,215407,5
114048,215979,5
114262,216296,5
114585,216730,4
114781,217143,5
114561,217703,5
114893,217973,5
114803,217860,4
114773,217756,5
114714,217697,5
114746,217568,5
114669,217183,5
114569,216871,4
114737,217028,6
114784,216965,4
114834,216912,5
114702,216453,5
114457,215846,4
114459,215879,5
114505,216015,5
114817,216509,5
114991,216601,5
114784,216116,4
114702,216173,5
114839,216268,5
115025,216605,5
115294,216894,5
115328,216893,4
115452,217005,5
115401,216736,5
115166,216254,5
114852,215777,4
114672,215363,4
114484,214926,5
114038,214218,5
113617,213494,5
113187,212802,4
112537,211461,5
110580,208444,6
108701,206025,4
107835,204750,5
107112,203588,4
106745,202980,5
106388,202217,5
105613,200845,5
104983,199906,5
104332,198827,4
104004,198322,5
103642,197583,5
103289,197111,5
103103,196857,5
102951,196745,4
103353,197365,5
103447,197433,5
102966,196439,5
101680,194950,5
101025,193932,4
99540,191294,5
97787,188631,5
97013,186568,5
96400,186177,4
97010,187023,4
97604,188113,5
98439,189358,5
98530,189723,5
99113,190732,4
99455,191212,5
99571,191517,5
99991,192567,5
100469,192953,5
100651,193150,4
100723,193108,5
100245,192214,5
99850,191767,5
100213,192432,5
100814,193317,4
101301,193612,5
100652,192786,5
100147,192029,5
99835,191590,5
99750,190963,4
99264,190747,5
99244,190595,5
98912,190069,5
98876,189922,5
98908,190273,3
99529,191021,5
99065,190124,5
97998,188437,5
96675,186353,4
95315,184357,5
94547,183328,5
94078,182346,5
93623,181783,5
93178,180845,4
92316,179558,5
91257,178693,5
90738,178100,5
90281,177413,5
90018,177228,4
90067,177237,5
90020,177420,5
89894,177172,5
89610,176874,5
89344,176725,4
89500,177006,6
90049,178000,4
90947,179420,5
92070,181472,5
93769,184273,6
96979,189997,3
101023,196051,5
104819,201682,5
108153,205735,4
111331,210003,4
113564,212912,5
115159,215257,5
115632,216089,5
116731,217594,4
118163,219332,5
119587,220988,5
120713,222237,5
121599,223188,5
122347,224000,4
123007,224568,5
123472,225088,5
123859,225544,5
124219,225891,5
124459,226167,4
124591,226296,5
124736,226400,6
124889,226530,4
125115,226555,5
125302,226580,4
125377,226666,5
125544,226731,5
125320,226267,5
124179,224038,5
121074,219014,4
116320,212998,5
113303,209387,5
111961,208042,5
112181,208708,4
113178,210061,4
113430,210308,5
113067,210221,5
113203,210669,5
113715,211464,4
114216,212017,5
114634,212594,5
115191,213305,5
115208,213140,5
115124,213045,4
115027,213024,5
115018,212969,5
114750,212494,6
114121,211586,4
113064,210042,4
111333,207294,5
109484,204853,5
108494,203573,5
107505,201768,5
106229,199706,4
104822,197703,5
104441,197468,5
104750,197819,5
105181,198316,5
105665,198996,4
106592,200587,5
107648,202029,5
108303,203035,5
108838,203974,4
109243,204569,5
109372,204942,5
110035,206250,5
110972,207565,5
111702,208406,5
112020,208870,4
112336,209213,5
112069,208816,5
111773,208423,6
111543,208148,3
111481,208144,5
111558,208263,5
111775,208798,5
112088,209171,5
112089,209187,4
112105,209206,5
111983,209038,5
112274,209556,5
112712,209927,5
112785,209987,4
112928,210106,5
113109,210333,5
113067,210110,5
112903,209802,4
112726,209478,4
112434,209154,5
112332,208777,5
112098,208312,5
111573,207384,4
110831,206557,6
110556,205757,4
109854,204289,5
108730,202502,5
107764,201308,6
107165,199928,3
106584,199024,5
106099,198337,5
105676,197377,5
104635,195771,4
103232,194136,5
101824,192275,5
101247,191426,5
101643,192746,5
102111,193068,4
100764,190904,5
98589,187575,5
95717,183598,5
93729,180280,5
92385,178768,4
92584,180014,5
92578,179663,5
91939,178667,5
91580,178511,4
92227,179603,4
92268,179349,6
91559,178151,4
90988,177433,5
91177,177857,4
92362,180125,5
93888,182411,5
94783,183519,5
95264,184256,5
95914,185179,4
95918,184990,5
95852,184778,5
95489,184072,5
95272,183669,5
94736,182477,4
93247,179859,5
91807,178142,5
91611,177584,5
91080,176689,5
90815,176554,4
91658,178456,5
93811,181860,5
95978,185076,5
97872,187724,4
98724,188953,4
98747,188807,5
98565,188656,6
98347,188214,4
97749,187328,4
97480,187277,5
97741,187377,5
97598,187299,5
97744,187649,5
98538,189157,4
99790,191043,5
101385,193776,5
104040,198053,5
106967,201846,5
109724,205880,4
111732,208573,5
112941,210162,5
113797,211350,5
114681,212729,5
115851,214318,4
116131,214857,5
116757,215690,5
117462,216714,5
118246,217633,5
118845,218480,4
119620,219509,5
120366,220294,5
120834,220700,6
121050,220880,3
121319,221118,4
121632,221606,5
122186,222396,5
122792,223130,5
123296,223622,4
123564,223828,5
123727,223952,5
123855,224025,5
124167,224362,5
124505,224649,4
124837,224964,5
125202,225341,5
125643,225864,5
126151,226318,5
126383,226417,4
126276,226249,5
126035,226040,5
125549,225379,5
124640,224054,5
123795,222616,5
122439,220293,4
119563,215905,5
115412,210709,5
113380,208873,5
114156,210533,4
114823,210932,5
114646,211148,10
115004,211565,8
115327,211849,5
115591,211869,7
115804,211128,8
115804,211128,5
115642,210716,7
114969,209704,8
114195,208742,9
113470,207835,5
111390,205259,8
111390,205259,7
112281,206593,5
113429,208297,8
114730,210181,7
116157,212217,7
122191,219968,8
122191,219968,7
122265,219922,5
121964,219601,8
121535,219045,7
120855,218525,9
120720,218139,6
119950,217303,4
119950,217303,5
120171,217500,4
120048,217515,5
120273,217626,5
120427,217820,5
120635,218122,5
121070,218487,4
121063,218779,5
121140,218908,6
121068,218841,4
121338,218701,5
120882,218604,4
120765,218441,5
120574,218189,5
120695,218073,7
120374,217868,3
120280,217741,4
120268,217664,5
120444,217774,5
120543,217833,5
120621,217753,4
120707,217734,4
120758,217468,5
120665,217432,5
