RED,IR,EKG,TIME
56049,117995,10
56044,117987,9
56060,117989,8
56054,117992,5
56047,117942,5
56052,117986,8
56043,117975,5
56043,117975,5
56050,117977,8
56033,117973,5
56025,117960,5
56030,117964,5
56045,117964,8
56029,117963,5
56039,117965,5
56026,117909,8
56036,117944,5
56037,117959,5
56029,117954,8
56029,117954,5
56042,117946,5
56023,117942,5
56050,117936,8
56030,117934,5
56029,117942,5
56022,117934,8
56028,117934,5
56023,117922,5
56024,117926,5
56019,117922,8
56024,117923,5
56007,117924,5
56017,117897,8
56017,117897,5
56011,117900,5
56019,117898,5
56043,117912,8
56018,117904,5
56006,117896,5
56011,117910,8
56029,117930,5
56021,117915,5
56017,117922,8
56007,117926,5
56017,117919,5
56017,117925,5
56033,117937,8
56033,117937,5
56048,117954,5
56014,117937,8
56019,117936,5
56033,117940,5
56027,117950,5
56032,117954,8
56035,117958,5
56042,117969,5
56035,117953,8
56035,117949,5
56028,117938,5
55989,117871,8
55989,117871,5
55953,117844,5
55965,117834,5
55977,117835,8
55975,117861,5
55980,117857,5
55982,117833,8
55989,117868,5
55992,117876,5
56003,117878,5
55999,117881,8
55995,117863,5
56002,117874,5
55994,117884,8
55994,117884,5
56001,117902,5
55997,117886,8
55986,117850,5
55990,117844,5
55989,117847,5
55995,117837,8
55985,117841,5
55943,117836,5
55974,117819,8
55976,117831,5
55974,117842,5
55979,117832,5
55980,117850,8
55980,117850,5
55972,117780,5
55979,117810,8
55964,117828,5
55969,117827,5
55942,117827,8
55947,117821,5
55963,117825,5
55971,117819,5
55972,117832,8
55976,117834,3
55973,117808,1
55975,117814,4
55960,117824,5
55976,117818,5
55969,117807,4
55964,117826,5
55966,117813,5
55958,117809,5
55962,117798,5
55961,117803,4
55956,117797,5
55959,117796,5
55958,117795,5
55957,117800,5
55961,117796,4
55954,117788,5
55955,117781,5
55946,117784,5
55945,117780,5
55944,117766,4
55934,117756,5
55932,117752,5
55926,117734,5
55925,117723,5
55917,117714,4
55914,117702,5
55911,117699,5
55898,117686,5
55895,117674,4
55881,117663,4
55890,117657,5
55885,117651,5
55884,117652,5
55864,117645,4
55878,117641,5
55877,117650,5
55868,117647,5
55870,117642,5
55878,117640,4
55873,117641,5
55882,117644,5
55885,117639,5
55872,117643,5
55877,117639,5
55872,117645,4
55907,117644,5
55886,117662,5
55882,117657,5
55883,117668,4
55905,117660,5
55889,117670,5
55897,117678,5
55900,117681,5
55900,117674,4
55901,117688,5
55901,117684,5
55907,117694,5
55901,117686,4
55900,117692,4
55907,117703,5
55898,117706,5
55906,117686,5
55907,117694,4
55918,117706,5
55912,117708,5
55918,117699,5
55917,117729,5
55929,117725,4
55919,117736,6
55937,117737,7
55918,117718,2
55914,117724,5
55917,117717,4
55923,117719,5
55896,117669,5
55893,117672,5
55891,117662,5
55882,117677,4
55875,117647,5
55876,117647,5
55879,117644,5
55880,117665,5
55888,117673,4
55894,117675,5
55898,117684,5
55891,117679,5
55899,117686,4
55901,117680,4
55899,117683,5
55892,117688,5
55885,117680,5
55900,117684,4
55892,117690,5
55898,117688,6
55904,117682,4
55891,117682,5
55898,117675,4
55884,117676,5
55898,117678,5
55888,117676,5
55890,117673,5
55888,117674,4
55895,117687,5
55899,117684,5
55902,117682,5
55897,117684,5
55894,117674,4
55895,117686,5
55899,117683,5
55889,117680,5
55887,117669,5
55895,117672,4
55893,117678,5
55896,117679,5
55887,117691,6
55886,117684,3
55900,117688,4
55905,117708,5
55896,117715,5
55910,117726,5
55911,117738,4
55920,117742,5
55925,117748,5
55924,117754,5
55933,117758,5
55941,117757,4
55939,117775,5
55936,117771,5
55935,117772,5
55931,117774,5
55942,117787,4
55944,117785,5
55947,117791,5
55954,117800,5
55961,117796,5
55960,117811,5
55951,117810,4
55953,117822,5
55954,117824,5
55961,117820,6
55966,117829,3
55976,117830,5
55971,117831,5
55975,117855,5
55977,117852,4
55988,117868,4
55986,117873,5
55983,117879,5
55992,117878,5
55995,117887,4
55994,117878,5
55993,117887,5
55995,117891,5
55979,117877,5
55998,117883,4
55987,117888,5
55990,117883,5
55988,117887,5
55988,117888,5
55996,117893,4
56006,117915,6
56008,117922,4
56000,117931,5
56021,117944,5
56025,117951,6
56024,117967,3
56020,117968,5
56031,117968,5
56027,117978,5
56037,117972,4
56022,117976,5
56038,117976,5
56044,117986,5
56037,117980,5
56016,117991,4
56044,117997,5
56040,117989,5
56042,118012,5
56062,118030,4
56053,118037,4
56065,118035,5
56067,118036,5
56072,118033,5
56060,118037,4
56056,118021,5
56047,117999,6
56059,117986,4
56045,117991,5
56041,117981,4
56035,117992,5
56049,118010,5
56043,118009,5
56053,118020,5
56058,118038,4
56075,118058,5
56085,118080,5
56094,118092,5
56100,118104,5
56101,118120,4
56109,118132,5
56113,118143,5
56111,118149,5
56119,118129,5
56125,118161,4
56121,118170,5
56121,118174,5
56115,118161,5
56118,118166,4
56123,118164,4
56118,118162,5
56109,118165,6
56105,118143,4
56104,118135,4
56102,118139,5
56107,118159,5
56103,118127,5
56102,118112,5
56097,118119,4
56085,118121,5
56085,118104,5
56093,118096,5
56086,118100,5
56081,118076,4
56074,118078,5
56068,118055,5
56062,118045,5
56064,118049,5
56058,118044,4
56059,118048,5
56060,118054,5
56069,118053,5
56067,118050,5
56056,118055,4
56064,118047,5
56064,118038,5
56059,118046,6
56060,118035,3
56056,118025,4
56051,118035,5
56055,118028,5
56049,118033,5
56058,118023,4
56056,118035,5
56054,118042,5
56063,118043,5
56059,118042,5
56060,118041,4
56056,118039,5
56054,118032,5
56052,118034,5
56056,118034,5
56055,118037,4
56055,118025,5
56046,118014,5
56045,118017,5
56043,118016,5
56051,118013,5
56050,118012,4
56043,118010,5
56042,118009,5
56049,118016,6
56045,118008,3
56044,118007,5
56043,118010,5
56052,118025,5
56049,118010,5
56050,118018,4
56051,118011,5
56036,117996,5
56033,117991,5
56036,117989,4
56036,117995,5
56030,117990,5
56039,117990,5
56039,117994,5
56041,117993,4
56031,117990,5
56047,118008,5
56047,118019,5
56064,118037,5
56071,118048,4
56067,118033,6
56070,118029,4
56057,118017,5
56054,118015,5
56046,118003,4
56028,117965,5
56020,117966,5
56015,117947,5
56010,117934,5
55996,117933,4
56002,117933,5
56015,117939,5
56012,117950,5
56023,117952,5
56018,117971,4
56018,117973,5
56031,117977,5
56032,117979,5
56030,117980,4
56031,117979,4
56037,117970,5
56037,117980,5
56032,117971,5
56032,117970,4
56030,117980,5
56035,117978,6
56021,117979,4
56040,117983,5
56033,117978,4
56030,117966,5
56010,117967,5
56033,117972,5
56031,117987,5
56034,117979,4
56039,117991,5
56046,117999,5
56052,117997,5
56044,117994,5
56051,118003,4
56046,118008,5
56051,118002,5
56049,118002,5
56063,118004,5
56049,118001,4
56046,117986,5
56040,117996,5
56057,117989,5
56045,117985,4
56054,117998,4
56044,118012,5
56058,117998,6
56043,118020,4
56051,118014,4
56049,118022,5
56050,118008,5
56043,118021,5
56050,118014,5
56052,118013,4
56048,117992,5
56055,118023,5
56056,118020,5
56053,118014,5
56054,118014,4
56056,118025,5
56058,118025,5
56060,118029,5
56058,118028,5
56061,118023,4
56059,118035,5
56063,118038,5
56057,118046,5
56057,118030,5
56064,118050,4
56071,118044,5
56065,118069,5
56069,118048,6
56067,118061,4
56072,118052,4
56068,118052,5
56068,118054,5
56071,118055,5
56078,118062,4
56068,118067,5
56077,118056,5
56080,118065,5
56085,118082,5
56083,118080,4
56091,118092,5
56100,118117,5
56114,118140,5
56115,118134,5
56110,118137,4
56113,118133,5
56108,118139,5
56103,118112,5
56103,118116,5
56099,118100,5
56096,118108,4
56103,118104,5
56101,118111,5
56103,118115,5
56107,118121,4
56116,118132,5
56118,118143,5
56115,118162,5
56134,118181,5
56139,118186,4
56138,118189,5
56148,118191,5
56148,118194,5
56151,118201,4
56150,118201,4
56156,118217,5
56141,118210,5
56149,118203,5
56151,118215,4
56147,118206,5
56145,118211,5
56157,118225,5
56153,118209,5
56150,118217,4
56155,118223,6
56161,118218,4
56158,118227,5
56170,118240,5
56174,118259,4
56173,118260,5
56186,118283,5
56185,118278,5
56188,118285,5
56195,118285,4
56192,118278,5
56186,118284,5
56186,118280,5
56187,118275,5
56186,118263,4
56179,118273,5
56189,118276,5
56190,118274,5
56189,118281,4
56188,118286,4
56196,118296,5
56201,118302,5
56199,118301,5
56201,118311,4
56210,118317,5
56206,118318,6
56209,118327,4
56213,118326,5
56215,118335,4
56210,118336,5
56215,118345,5
56223,118351,5
56216,118351,5
56214,118361,4
56227,118357,5
56224,118346,5
56229,118352,5
56229,118351,5
56226,118359,4
56229,118353,5
56228,118363,5
56220,118361,5
56218,118375,5
56246,118388,4
56241,118395,5
56250,118398,5
56226,118397,5
56247,118408,4
56252,118408,4
56261,118423,5
56245,118424,5
56261,118424,5
56266,118441,4
56287,118483,5
56306,118483,5
56296,118498,5
56291,118491,5
56295,118483,4
56309,118479,5
56287,118475,5
56284,118467,5
56284,118467,5
56286,118464,4
56271,118469,5
56282,118470,5
56288,118478,5
56296,118506,5
56305,118525,4
56321,118555,5
56334,118576,5
56349,118593,5
56359,118622,5
56364,118613,4
56355,118623,5
56366,118613,5
56363,118628,5
56363,118641,5
56372,118649,4
56371,118633,5
56375,118652,5
56379,118656,5
56380,118662,4
56377,118658,5
56368,118650,5
56377,118642,5
56373,118642,6
56385,118658,3
56375,118649,5
56377,118644,5
56380,118669,5
56385,118687,5
56391,118672,4
56392,118682,5
56392,118669,5
56395,118693,5
56389,118681,5
56388,118683,5
56392,118679,4
56378,118677,5
56389,118663,5
56382,118676,5
56381,118676,4
56393,118678,5
56388,118686,5
56395,118688,5
56393,118690,5
56389,118701,4
56400,118696,5
56412,118721,5
56411,118724,5
56405,118722,4
56413,118735,4
56420,118729,5
56424,118728,5
56419,118739,5
56415,118747,4
56426,118757,5
56433,118763,6
56424,118767,4
56435,118769,5
56441,118765,4
56439,118786,7
56437,118772,3
56442,118786,5
56446,118779,5
56446,118783,4
56447,118799,5
56449,118805,5
56454,118813,5
56460,118820,5
56463,118820,4
56469,118834,5
56467,118844,5
56480,118861,5
56494,118871,5
56492,118885,4
56502,118899,5
56512,118911,5
56511,118917,5
56522,118923,4
56513,118928,4
56519,118922,5
56508,118916,6
56506,118914,4
56507,118890,4
56489,118896,5
56496,118886,5
56488,118871,5
56484,118870,5
56483,118870,4
56493,118873,5
56504,118897,5
56509,118902,5
56511,118928,5
56529,118926,4
56523,118931,5
56520,118935,5
56522,118935,5
56518,118930,5
56525,118934,4
56529,118935,5
56523,118937,5
56520,118944,5
56527,118946,5
56530,118951,4
56525,118945,5
56527,118947,5
56520,118947,6
56530,118952,3
56531,118943,4
56526,118947,5
56533,118948,5
56541,118955,5
56533,118968,4
56547,118968,5
56537,118971,5
56552,118980,5
56545,118970,5
56541,118981,4
56537,118969,5
56538,118969,5
56530,118955,5
56532,118951,5
56522,118957,4
56532,118964,5
56535,118974,5
56542,118976,5
56522,118973,5
56547,118984,5
56549,118994,4
56550,118988,5
56559,118994,5
56557,118991,6
56561,119005,3
56554,119005,5
56572,118998,5
56557,118992,5
56548,118990,5
56553,118987,4
56571,118998,5
56549,118991,5
56547,118985,5
56550,118981,4
56551,118991,5
56552,118996,5
56557,118993,5
56554,119006,5
56553,118995,4
56563,119018,5
56559,119013,5
56565,119011,5
56567,119000,5
56568,119021,4
56571,119028,6
56561,119020,4
56562,119018,5
56573,119028,5
56574,119027,6
56569,119032,3
56573,119025,5
56572,119020,5
56578,119044,5
56585,119028,4
56574,119045,5
56572,119030,5
56575,119027,5
56575,119028,5
56565,119034,4
56561,119014,5
56564,119014,5
56564,119009,5
56559,119023,4
56567,119003,4
56561,118996,5
56555,118990,5
56553,119003,5
56551,118992,4
56544,118978,5
56530,118968,6
56540,118953,4
56528,118926,5
56506,118899,4
56499,118882,5
56487,118855,5
56471,118842,5
56472,118829,5
56459,118826,4
56461,118822,5
56466,118825,5
56468,118825,5
56478,118823,5
56475,118829,4
56469,118825,5
56460,118822,5
56459,118826,5
56459,118812,5
56456,118806,4
56466,118804,5
56462,118793,5
56454,118800,5
56450,118790,4
56453,118791,4
56439,118765,5
56445,118752,6
56422,118735,4
56411,118716,4
56404,118703,5
56406,118700,5
56398,118680,5
56398,118690,5
56406,118682,4
56400,118686,5
56398,118686,5
56405,118686,5
56401,118686,5
56401,118685,4
56388,118674,5
56384,118663,5
56391,118654,5
56381,118651,5
56375,118652,4
56373,118649,5
56379,118642,5
56374,118643,5
56377,118648,5
56381,118644,4
56376,118645,5
56376,118632,5
56363,118632,6
56366,118603,3
56355,118614,4
56359,118606,5
56349,118604,5
56361,118592,5
56351,118587,4
56346,118589,5
56344,118589,5
56348,118573,5
56347,118578,5
56338,118573,4
56333,118571,5
56332,118566,5
56339,118556,5
56320,118542,5
56329,118552,4
56335,118539,5
56323,118543,5
56312,118525,5
56321,118512,5
56309,118517,5
56312,118505,4
56299,118493,5
56299,118495,5
56299,118494,5
56303,118479,4
56288,118476,5
56291,118466,5
56286,118469,5
56286,118460,5
56284,118465,4
56269,118462,5
56293,118451,5
56284,118454,5
56280,118445,4
56263,118457,5
56273,118447,5
56276,118444,5
56279,118432,5
56281,118438,4
56271,118436,5
56266,118440,5
56269,118435,5
56278,118423,5
56262,118428,4
56267,118426,6
56264,118416,4
56283,118426,5
56259,118420,5
56262,118418,4
56257,118423,5
56266,118420,5
56258,118418,5
56264,118428,5
56266,118432,4
56272,118429,5
56265,118415,5
56266,118400,5
56251,118389,5
56233,118345,4
56225,118343,5
56216,118322,5
56212,118303,5
56208,118286,4
56201,118299,4
56195,118288,5
56197,118295,5
56198,118288,5
56207,118310,4
56204,118325,5
56215,118315,6
56212,118327,4
56214,118327,5
56206,118315,4
56212,118309,5
56203,118330,5
56208,118317,5
56201,118327,5
56214,118313,4
56215,118326,5
56204,118312,5
56212,118297,5
56203,118307,5
56194,118305,4
56200,118285,5
56192,118284,5
56188,118276,5
56194,118264,5
56188,118269,4
56178,118260,5
56184,118259,5
56180,118253,5
56183,118260,4
56178,118254,4
56175,118253,5
56162,118228,6
56167,118219,4
56157,118207,4
56157,118211,5
56157,118209,5
56160,118210,5
56152,118214,5
56157,118214,4
56156,118217,5
56164,118232,5
56165,118227,5
56163,118215,5
56162,118220,4
56156,118213,5
56162,118208,5
56158,118204,5
56158,118206,5
56148,118194,4
56151,118189,5
56138,118190,5
56143,118186,5
56145,118173,5
56139,118164,4
56141,118173,5
56135,118181,5
56138,118181,5
56140,118168,4
56137,118175,4
56139,118180,5
56141,118167,5
56138,118177,5
56135,118165,4
56125,118171,5
56129,118163,5
56123,118161,5
56132,118161,5
56134,118150,4
56127,118154,5
56129,118152,5
56125,118151,5
56130,118148,5
56130,118153,4
56122,118159,5
56121,118142,5
56122,118142,5
56128,118139,5
56121,118126,5
56112,118121,4
56115,118122,5
56097,118114,5
56104,118106,5
56106,118096,4
56090,118081,5
56096,118074,5
56086,118070,5
56093,118062,5
56087,118069,4
56084,118069,5
56084,118052,5
56074,118052,5
56074,118043,4
56080,118045,5
56073,118035,5
56068,118026,5
56059,118026,5
56063,118022,4
56061,118022,5
56057,118015,5
56056,118012,5
56058,118000,5
56049,118010,4
56051,118008,6
56053,117988,4
56038,117993,5
56041,117986,5
56046,117982,4
56041,117982,5
56016,117974,5
56038,117967,5
56033,117970,5
56027,117964,4
56018,117966,5
56038,117977,5
56033,117970,5
56037,117974,5
56045,117985,4
56037,117989,5
56048,117991,5
56038,117985,5
56052,117973,4
56025,117958,4
56020,117947,5
56007,117915,5
56023,117906,5
55998,117901,4
55993,117897,5
55995,117884,6
55989,117886,4
55994,117881,5
55990,117888,4
55988,117898,5
55997,117881,5
55997,117900,5
56000,117907,5
55995,117910,4
55997,117893,5
55997,117892,5
55998,117901,5
55995,117892,5
55992,117875,4
55995,117892,5
55990,117887,5
55992,117891,5
55993,117886,5
55978,117870,4
55984,117876,5
55979,117871,5
55979,117874,5
55975,117856,7
55983,117861,2
55973,117852,5
55965,117875,5
55965,117856,5
55977,117852,4
55966,117849,5
55964,117858,5
55974,117840,5
55971,117846,5
55963,117826,4
55963,117825,5
55961,117829,5
55950,117811,5
55945,117806,5
55948,117811,4
55947,117816,5
55957,117826,5
55956,117823,5
55956,117817,5
55960,117825,5
55956,117818,4
55959,117830,5
55959,117822,5
55956,117831,6
55962,117825,3
55952,117827,5
55960,117832,5
55963,117830,5
55965,117834,5
55969,117841,4
55964,117837,5
55965,117839,5
55966,117834,5
55958,117839,4
55968,117843,4
55972,117843,5
55974,117850,5
55968,117839,5
55968,117840,4
55972,117843,5
55972,117844,5
55972,117845,5
55971,117847,5
55968,117851,4
55971,117832,6
55970,117840,4
55976,117844,5
55967,117842,5
55967,117842,6
55966,117850,3
55969,117840,5
55971,117843,5
55975,117849,5
55967,117841,4
55963,117849,5
55971,117851,5
55969,117847,5
55973,117854,5
55976,117865,4
55970,117844,5
55969,117835,5
55965,117834,5
55968,117841,4
55974,117838,4
55963,117830,5
55948,117826,5
55948,117806,5
55955,117807,4
55953,117807,5
55952,117811,6
55950,117812,4
55941,117815,5
55957,117826,4
55954,117820,7
55959,117818,3
55953,117828,5
55965,117823,5
55960,117836,4
55967,117830,5
55971,117847,5
55969,117845,5
55962,117835,5
55960,117827,4
55952,117813,5
55944,117798,5
55936,117776,5
55931,117750,5
55912,117724,4
55894,117707,5
55897,117696,5
55895,117700,5
55883,117685,5
55892,117692,4
55891,117688,5
55898,117720,6
55884,117721,4
55903,117726,4
55915,117745,5
55920,117754,5
55905,117766,5
55921,117760,5
55922,117768,4
55928,117769,5
55930,117768,5
55934,117779,5
55939,117776,5
55945,117776,4
55956,117787,5
55938,117792,5
55934,117784,5
55935,117784,5
55964,117786,4
55942,117795,5
55941,117784,5
55935,117800,5
55948,117800,5
55954,117799,4
55943,117824,5
55963,117830,5
55958,117825,6
55967,117832,4
55954,117840,4
55966,117840,5
55963,117832,5
55960,117840,5
55962,117835,4
55956,117840,5
55960,117835,5
55973,117858,5
55978,117874,5
55981,117871,4
55988,117868,5
55983,117897,5
55991,117905,5
55985,117897,5
55991,117916,4
55991,117910,5
56005,117920,5
56003,117931,5
56004,117957,5
56007,117931,5
56015,117940,4
56007,117944,5
56008,117958,5
56018,117948,6
56013,117959,3
56010,117961,5
56026,117968,5
56027,117957,5
56025,117959,5
56015,117956,4
56030,117962,5
56031,117964,5
56026,117974,5
56030,117974,4
56033,117987,4
56035,117985,5
56045,117992,5
56047,118008,5
56050,118019,4
56058,118024,5
56062,118039,5
56066,118048,5
56065,118048,5
56068,118053,4
56068,118061,6
56078,118065,4
56073,118070,5
56075,118076,5
56077,118071,4
56086,118083,5
56085,118085,5
56084,118091,5
56090,118089,5
56083,118079,4
56086,118091,5
56078,118082,5
56084,118085,5
56081,118094,5
56090,118083,4
56090,118101,5
56104,118114,5
56095,118126,5
56101,118128,4
56110,118133,4
56112,118142,5
56117,118134,5
56108,118141,5
56101,118146,4
56107,118144,5
56109,118146,6
56107,118139,4
56106,118139,5
56114,118145,4
56106,118145,5
56121,118150,5
56110,118153,5
56115,118143,5
56104,118122,4
56091,118118,5
56095,118102,5
56074,118081,5
56066,118038,5
56046,118021,4
56040,118004,5
56038,117993,5
56023,117973,5
56019,117964,5
56017,117954,4
56018,117951,5
56015,117937,5
56005,117937,5
55991,117927,4
55999,117911,4
55990,117894,5
55981,117878,6
55962,117853,4
55965,117841,4
55952,117831,5
55955,117819,5
55949,117810,5
55944,117805,5
55936,117795,4
55927,117776,5
55912,117757,5
55914,117750,5
55901,117714,5
55888,117701,4
55877,117680,5
55866,117651,5
55861,117649,5
55866,117642,5
55840,117637,4
55859,117642,5
55859,117639,5
55859,117639,5
55840,117645,5
55857,117637,4
55866,117654,5
55866,117653,5
55862,117654,6
55860,117653,4
55863,117647,4
55858,117650,5
55868,117646,5
55860,117644,5
55860,117629,4
55851,117633,5
55876,117647,5
55861,117646,5
55866,117655,5
55873,117659,4
55882,117659,5
55878,117669,5
55869,117662,5
55865,117665,5
55866,117660,4
55858,117652,5
55863,117639,5
55854,117635,5
55858,117637,5
55869,117644,5
55865,117652,4
55863,117650,5
55857,117639,5
55867,117648,5
55867,117658,4
55862,117647,5
55857,117634,5
55866,117652,5
55858,117642,5
55858,117614,4
55845,117618,5
55845,117606,5
55837,117594,5
55828,117568,4
55829,117582,5
55820,117570,5
55809,117549,5
55814,117541,5
55803,117558,4
55806,117526,5
55802,117517,5
55798,117519,5
55805,117542,5
55804,117541,4
55798,117534,6
55806,117539,4
55817,117546,5
55814,117549,5
55813,117554,4
55817,117554,5
55819,117549,5
55814,117550,5
55810,117556,5
55829,117565,4
55821,117575,5
55830,117566,5
55823,117558,5
55809,117540,5
55810,117536,4
55806,117516,5
55792,117492,5
55772,117459,5
55766,117439,4
55758,117429,5
55757,117422,5
55752,117419,5
55752,117421,5
55752,117426,4
55761,117429,5
55767,117448,6
55769,117445,4
55762,117444,5
55770,117450,4
55768,117449,5
55770,117444,5
55765,117451,5
55768,117443,5
55766,117444,4
55770,117450,5
55771,117451,5
55766,117446,5
55775,117445,5
55781,117459,4
55762,117459,5
55780,117468,5
55771,117458,5
55775,117470,5
55786,117479,4
55788,117483,5
55785,117475,5
55777,117485,5
55795,117492,4
55790,117487,4
55790,117480,5
55788,117496,5
55786,117486,5
55797,117492,4
55787,117481,5
55785,117483,5
55785,117475,5
55786,117475,5
55787,117476,4
55793,117497,5
55781,117495,5
55799,117492,5
55790,117493,5
55797,117505,4
55799,117513,5
55796,117514,5
55806,117532,5
55819,117550,5
55827,117544,4
55831,117562,5
55835,117561,5
55832,117570,5
55833,117579,5
55832,117579,4
55836,117589,5
55842,117589,5
55850,117598,5
55851,117591,4
55850,117604,4
55845,117610,5
55845,117604,5
55839,117606,5
55846,117607,4
55846,117602,5
55841,117605,5
55854,117595,5
55853,117603,5
55844,117599,4
55819,117591,5
55844,117595,5
55837,117592,5
55850,117589,5
55830,117598,4
55851,117613,5
55846,117611,5
55858,117624,5
55860,117623,5
55868,117621,5
55854,117626,4
55863,117626,5
55877,117628,5
55866,117631,5
55871,117644,4
55868,117652,5
55879,117630,5
55864,117623,5
55861,117621,5
55862,117598,4
55858,117593,5
55838,117576,5
55831,117580,5
55837,117575,4
55842,117575,5
55837,117585,5
55838,117575,5
55836,117586,5
55858,117592,4
55857,117624,5
55866,117633,5
55865,117632,5
55873,117625,5
55868,117636,4
55867,117621,6
55859,117629,4
55863,117630,5
55866,117637,5
55878,117634,4
55870,117647,5
55878,117660,5
55881,117658,5
55882,117658,5
55888,117665,9
55883,117673,0
55879,117662,5
55879,117655,5
55878,117642,5
55891,117667,4
55876,117666,5
55883,117665,5
55900,117679,5
55893,117695,4
55891,117683,4
55896,117682,5
55892,117681,6
55893,117676,4
55883,117679,4
55888,117670,5
55890,117665,5
55883,117666,5
55881,117662,5
55891,117670,4
55883,117672,5
55889,117677,5
55888,117668,5
55875,117652,5
55867,117624,4
55857,117610,5
55839,117564,5
55822,117534,5
55802,117518,5
55786,117483,4
55786,117464,5
55778,117454,5
55769,117440,5
55772,117425,5
55766,117432,4
55769,117444,5
55774,117432,5
55772,117449,6
55769,117431,3
55764,117434,4
55770,117431,5
55761,117426,5
55763,117415,5
55748,117388,4
55742,117359,5
55727,117348,5
55724,117341,5
55711,117316,5
55701,117312,4
55700,117300,5
55697,117275,5
55688,117266,5
55681,117259,5
55683,117236,4
55669,117224,5
55658,117206,5
55642,117165,5
55608,117118,5
55586,117071,5
55578,117038,4
55561,117009,5
55526,116960,5
55505,116895,6
55483,116835,3
55463,116811,5
55449,116765,5
55413,116732,5
55400,116693,5
55382,116665,4
55366,116617,5
55343,116593,5
55333,116570,5
55337,116568,4
55334,116567,4
55329,116570,5
55338,116576,5
55349,116588,5
55344,116581,4
55340,116580,5
55343,116578,5
55323,116549,5
55319,116534,5
55318,116502,4
55294,116471,6
55289,116464,4
55282,116444,5
55269,116451,5
55278,116444,6
55265,116428,3
55259,116398,5
55241,116391,5
55236,116354,5
55222,116340,4
55209,116294,5
55174,116270,5
55175,116237,5
55157,116220,5
55162,116214,4
55139,116196,5
55136,116156,5
55126,116135,5
55114,116114,4
55103,116096,4
55081,116078,5
55080,116045,5
55066,116030,5
55086,116034,4
55074,116038,5
55070,116032,6
55065,116028,4
55080,116028,5
55070,116015,4
55060,116015,5
55063,116014,5
55076,116008,5
55053,116005,5
55061,116011,4
55062,116016,5
55068,116012,5
55055,116012,5
55060,116001,5
55054,115997,4
55056,115994,5
55054,116006,5
55052,115987,5
55057,115991,5
55051,115987,4
55055,116000,5
55052,115997,5
55061,116007,5
55074,116013,5
55089,116062,4
55103,116097,5
55122,116143,6
55138,116185,4
55163,116230,4
55193,116289,5
55229,116347,5
55250,116410,5
55283,116440,5
55296,116477,4
55312,116512,5
55330,116566,5
55344,116570,5
55352,116600,5
55371,116621,4
55379,116640,5
55384,116651,5
55396,116670,5
55400,116693,5
55406,116681,4
55414,116689,5
55409,116687,5
55408,116694,5
55398,116675,5
55396,116669,4
55396,116661,5
55391,116670,5
55394,116664,6
55394,116674,4
55411,116687,4
55413,116709,5
55436,116742,5
55446,116773,5
55459,116789,4
55466,116815,4
55480,116832,5
55490,116854,5
55487,116860,5
55498,116877,4
55502,116893,5
55516,116902,5
55515,116916,5
55520,116928,5
55532,116938,4
55525,116946,5
55523,116927,5
55531,116927,5
55529,116929,5
55524,116926,5
55531,116928,4
55522,116927,5
55533,116925,5
55525,116929,6
55525,116920,3
55531,116927,5
55529,116931,5
55535,116949,5
55530,116924,5
55532,116941,4
55531,116928,5
55525,116917,5
55516,116912,5
55520,116914,4
55513,116904,4
55521,116893,5
55506,116891,5
55511,116894,5
55506,116894,4
55517,116878,5
55508,116891,5
55505,116880,5
55508,116874,5
55502,116870,4
55497,116873,6
55499,116880,4
55501,116876,5
55502,116872,5
55505,116874,4
55509,116883,5
55501,116876,5
55500,116879,5
55494,116871,5
55498,116866,4
55493,116861,5
55493,116854,5
55495,116859,5
55491,116850,5
55492,116853,4
55479,116839,5
55492,116846,5
55480,116840,5
55487,116843,5
55484,116844,4
55496,116843,5
55478,116833,5
55479,116838,5
55477,116834,4
55478,116827,5
55482,116843,6
55476,116832,4
55464,116840,5
55481,116835,4
55480,116831,5
55473,116827,5
55466,116822,5
55476,116826,5
55464,116816,4
55463,116809,5
55454,116806,5
55477,116819,5
55469,116815,5
55470,116805,4
55474,116813,5
55472,116821,5
55479,116823,5
55474,116815,5
55495,116827,4
55467,116822,5
55477,116821,5
55475,116839,5
55497,116831,5
55486,116843,4
55494,116856,5
55495,116864,6
55503,116864,4
55501,116876,4
55498,116882,4
55508,116889,5
55507,116877,5
55507,116899,5
55512,116900,4
55512,116888,5
55506,116889,5
55510,116910,5
55524,116913,5
55528,116928,4
55526,116910,5
55527,116940,5
55540,116957,5
55543,116981,5
55556,116985,4
55551,116988,5
55552,116979,5
55548,116969,5
55542,116973,5
55529,116942,4
55525,116926,5
55520,116918,5
55524,116932,5
55516,116915,5
55525,116913,4
55519,116924,5
55528,116950,5
55539,116942,5
55544,116957,4
55542,116969,4
55554,116986,5
55554,116985,5
55550,116989,5
55564,116988,4
55574,117016,5
55570,117012,5
55573,117024,5
55579,117022,5
55580,117036,4
55580,117042,5
55580,117033,5
55573,117033,5
55585,117032,5
55561,117007,5
55551,116975,4
55532,116941,5
55519,116931,5
55504,116908,5
55510,116899,4
55515,116914,5
55519,116930,5
55527,116937,5
55528,116949,5
55550,116964,4
55548,116962,5
55538,116973,5
55544,116965,5
55539,116962,5
55541,116971,4
55539,116977,5
55560,116991,5
55558,116994,5
55578,117021,4
55575,117030,5
55575,117038,5
55582,117051,5
55584,117050,5
55586,117055,4
55574,117053,6
55584,117055,4
55584,117057,5
55590,117063,5
55588,117063,4
55589,117063,5
55590,117073,5
55596,117069,5
55599,117067,5
55593,117069,4
55602,117079,5
55604,117085,5
55610,117086,5
55608,117095,5
55606,117100,4
55612,117106,5
55613,117108,5
55610,117110,5
55613,117104,5
55614,117105,4
55618,117110,5
55612,117116,5
55609,117118,5
55607,117120,4
55617,117121,5
55611,117114,6
55620,117123,4
55620,117122,5
55622,117126,4
55629,117121,5
55619,117129,5
55622,117126,5
55625,117135,5
55627,117138,4
55626,117140,5
55623,117141,5
55631,117139,5
55628,117129,5
55628,117143,4
55622,117139,5
55620,117129,5
55624,117137,5
55634,117145,5
55622,117150,4
55633,117137,5
55625,117142,5
55632,117144,5
55622,117145,5
55636,117151,4
55638,117150,5
55642,117151,5
55617,117157,5
55637,117146,4
55630,117145,4
55642,117157,5
55620,117150,5
55636,117148,5
55633,117151,4
55640,117153,5
55648,117149,5
55637,117145,5
55628,117148,5
55627,117143,4
55647,117155,5
55633,117147,5
55626,117151,5
55633,117142,5
55644,117142,4
55631,117143,5
55627,117132,5
55625,117130,5
55628,117138,5
55625,117134,4
55622,117133,5
55619,117135,5
55617,117122,5
55613,117128,5
55620,117118,4
55620,117112,5
55615,117093,5
55614,117108,5
55607,117106,4
55616,117097,4
55610,117092,5
55605,117103,5
55608,117093,5
55597,117106,4
55609,117096,5
55599,117094,5
55603,117106,5
55611,117101,5
55608,117128,4
55608,117110,6
55611,117112,6
55622,117112,3
55614,117137,5
55622,117119,6
55616,117116,3
55626,117122,5
55628,117140,5
55629,117138,5
55617,117133,4
55627,117114,5
55607,117106,5
55605,117096,5
55602,117084,5
55595,117076,4
55590,117059,5
55585,117054,5
55579,117051,5
55578,117038,4
55575,117037,4
55586,117043,5
55587,117049,5
55595,117060,5
55588,117062,4
55597,117068,5
55594,117064,6
55590,117071,4
55588,117062,5
55588,117072,4
55599,117070,7
55593,117077,3
55593,117071,5
55591,117080,5
55593,117079,4
55603,117078,5
55593,117081,5
55597,117083,5
55602,117079,5
55593,117081,4
55589,117066,5
55589,117069,5
55589,117061,5
55590,117059,5
55583,117053,4
55587,117047,5
55588,117040,5
55573,117046,5
55575,117049,4
55574,117039,4
55582,117041,5
55577,117050,6
55579,117036,4
55584,117043,4
55580,117037,5
55580,117038,5
55577,117034,5
55582,117028,5
55571,117035,4
55574,117035,5
55580,117047,5
55577,117041,5
55577,117035,5
55574,117025,4
55571,117035,5
55568,117032,5
55575,117019,5
55571,117027,5
55574,117025,4
55571,117023,5
55572,117025,5
55577,117025,5
55570,117041,5
55577,117038,4
55579,117038,5
55584,117051,5
55584,117053,6
55577,117057,3
55581,117052,4
55573,117052,5
55583,117052,5
55579,117048,5
55585,117055,4
55579,117054,5
55579,117045,5
55588,117039,5
55577,117043,5
55584,117046,4
55576,117045,5
55580,117042,5
55577,117038,5
55577,117030,5
55570,117028,4
55565,117030,5
55569,117031,5
55565,117022,5
55572,117032,5
55554,117022,5
55576,117027,4
55569,117034,5
55566,117035,5
55555,117030,6
55573,117043,3
55576,117041,5
55583,117042,5
55581,117045,5
55578,117043,5
55583,117041,4
55576,117035,5
55592,117027,5
55566,117030,5
55571,117034,4
55576,117035,5
55589,117029,5
55571,117020,5
55568,117004,5
55568,117022,4
55580,117013,5
55564,117007,5
55565,117007,5
55563,117009,5
55562,117006,4
55562,117007,6
55552,116994,4
55556,116995,5
55554,116978,5
55551,117000,4
55545,116990,5
55549,116987,5
55552,116974,5
55543,116991,5
55550,116989,4
55552,116992,5
55550,116988,5
55549,116989,5
55550,116995,5
55553,117006,4
55564,117016,5
55558,117016,5
55558,117031,5
55563,117018,4
55565,117028,5
55557,116992,5
55560,116989,5
55549,116983,5
55552,116983,4
55532,116949,5
55527,116945,6
55532,116936,4
55527,116923,5
55513,116919,4
55509,116908,5
55514,116912,5
55514,116916,5
55512,116925,5
55519,116938,4
55531,116947,5
55530,116949,5
55528,116955,5
55527,116956,5
55530,116948,4
55540,116957,5
55536,116966,5
55554,116976,5
55543,116985,5
55550,116990,4
55549,116986,5
55557,116987,5
55555,116985,5
55549,116988,4
55553,116987,4
55550,116994,5
55555,116990,6
55550,116989,4
55543,116988,4
55549,117008,5
55566,117013,5
55567,117019,5
55568,117039,5
55573,117036,4
55582,117051,5
55576,117045,5
55580,117044,5
55578,117060,5
55581,117048,4
55582,117045,5
55590,117055,5
55574,117067,5
55584,117067,5
55589,117074,4
55598,117079,5
55600,117086,5
55599,117087,5
55601,117088,5
55595,117102,4
55607,117092,5
55610,117100,5
55603,117109,6
55608,117114,3
55610,117114,4
55610,117118,5
55618,117117,5
55615,117125,5
55621,117131,4
55618,117148,5
55627,117142,5
55629,117148,5
55628,117146,5
55629,117150,4
55636,117158,5
55640,117167,5
55625,117163,5
55632,117170,5
55635,117158,4
55631,117176,5
55634,117174,5
55640,117175,5
55641,117184,5
55653,117191,5
55652,117199,4
55653,117206,5
55657,117213,5
55661,117226,5
55665,117227,4
55671,117235,5
55675,117238,5
55675,117239,5
55675,117244,5
55663,117239,4
55676,117239,5
55663,117232,5
55665,117227,5
55675,117241,4
55675,117247,5
55668,117252,5
55673,117264,5
55683,117270,5
55689,117302,4
55682,117297,5
55701,117294,5
55705,117313,5
55714,117320,5
55699,117327,4
55715,117327,6
55711,117331,4
55719,117336,5
55726,117332,5
55714,117336,4
55712,117337,5
55726,117355,5
55744,117360,5
55729,117365,5
55726,117342,4
55721,117345,5
55734,117331,5
55708,117326,5
55709,117330,5
55703,117311,4
55705,117301,5
55696,117298,5
55696,117293,5
55696,117287,4
55695,117283,4
55695,117308,5
55699,117308,5
55707,117333,5
55717,117327,4
55724,117361,5
55735,117367,6
55744,117368,4
55726,117352,5
55735,117371,4
55740,117376,5
55741,117378,5
55733,117382,5
55740,117380,5
55738,117378,4
55737,117370,5
55729,117376,5
55731,117362,5
55724,117355,5
55721,117350,4
55725,117372,5
55719,117350,5
55719,117338,5
55708,117334,5
55718,117352,4
55709,117327,5
55718,117332,5
55716,117328,5
55697,117322,4
55714,117322,4
55703,117318,5
55703,117303,6
55700,117301,4
55683,117272,4
55681,117273,5
55684,117258,5
55678,117257,5
55674,117264,5
55675,117268,4
55675,117254,5
55679,117258,5
55680,117258,5
55674,117261,5
55686,117256,4
55681,117252,5
55679,117244,5
55672,117251,5
55665,117246,5
55660,117239,4
55665,117242,5
55661,117232,5
55672,117236,5
55663,117239,5
55660,117227,4
55666,117233,5
55662,117229,5
55671,117234,5
55658,117223,4
55663,117235,4
55666,117234,5
55666,117226,5
55663,117233,5
55664,117243,4
55667,117231,5
55665,117232,5
55658,117225,5
55661,117222,5
55664,117233,4
55664,117217,5
55657,117220,5
55660,117221,5
55652,117222,5
55655,117222,4
55664,117213,5
55650,117213,5
55640,117214,5
55651,117204,5
55655,117205,5
55648,117201,4
55650,117208,5
55648,117203,5
55644,117201,5
55646,117207,4
55653,117197,5
55650,117204,5
55651,117203,5
55652,117190,5
55639,117198,4
55643,117200,5
55649,117191,5
55649,117200,5
55643,117187,4
55640,117185,4
55646,117193,5
55641,117194,5
55639,117199,5
55636,117184,4
55641,117192,5
55642,117183,5
55649,117191,5
55645,117191,5
55642,117185,4
55642,117201,6
55651,117202,4
55647,117206,5
55658,117207,5
55651,117224,4
55661,117221,5
55660,117228,5
55659,117240,5
55657,117225,5
55662,117227,4
55664,117208,5
55636,117208,5
55651,117194,5
55638,117183,5
55636,117169,4
55606,117157,5
55615,117146,5
55618,117135,5
55617,117119,4
55604,117113,4
55606,117107,5
55609,117126,5
55608,117131,5
55631,117137,4
55617,117153,5
55627,117156,5
55623,117160,5
55651,117165,5
55635,117165,4
55637,117180,5
55631,117178,5
55654,117181,5
55645,117186,5
55650,117196,4
55649,117203,5
55650,117193,5
55651,117202,5
55647,117200,5
55648,117193,4
55652,117191,5
55652,117205,5
55651,117188,5
55650,117197,5
55643,117183,4
55644,117195,5
55656,117193,5
55645,117201,6
55646,117173,3
55649,117197,4
55649,117192,5
55647,117200,5
55640,117206,5
55646,117186,4
55646,117182,5
55649,117188,5
55645,117207,9
55646,117195,1
55649,117208,4
55657,117218,5
55662,117269,5
55668,117229,5
55666,117234,5
55674,117243,4
55669,117243,5
55675,117249,5
55671,117246,5
55670,117234,5
55677,117239,5
55661,117250,4
55665,117233,5
55671,117237,5
55668,117246,6
55676,117245,3
55677,117246,5
55674,117248,5
55683,117251,5
55684,117250,5
55682,117261,4
55692,117269,5
55691,117287,5
55698,117274,5
55697,117297,4
55698,117300,5
55705,117313,5
55705,117310,5
55710,117328,5
55717,117329,4
55718,117334,5
55711,117328,5
55719,117333,5
55717,117324,5
55711,117330,4
55715,117329,6
55719,117323,4
55726,117330,5
55719,117334,5
55719,117335,6
55723,117337,3
55724,117346,5
55718,117343,5
55726,117345,5
55727,117343,4
55723,117359,5
55736,117370,5
55738,117393,5
55748,117406,5
55757,117406,4
55757,117407,5
55756,117401,5
55748,117398,5
55751,117388,4
55746,117381,5
55741,117367,5
55728,117378,5
55734,117359,5
55726,117364,4
55728,117351,5
55727,117355,6
55734,117342,4
55726,117359,5
55724,117363,4
55738,117375,5
55744,117379,5
55751,117384,5
55749,117391,5
55748,117404,4
55744,117394,5
55749,117402,5
55737,117396,5
55750,117406,5
55751,117415,4
55754,117409,5
55750,117406,5
55751,117409,5
55752,117416,5
55756,117400,4
55750,117410,5
55758,117401,5
55761,117406,5
55756,117419,4
55764,117415,4
55765,117430,5
55770,117435,6
55770,117435,4
55771,117458,4
55767,117438,5
55779,117457,5
55781,117452,5
55769,117456,5
55781,117463,4
55788,117447,5
55783,117453,5
55762,117454,5
55786,117461,5
55781,117458,4
55787,117465,5
55769,117461,5
55794,117486,5
55788,117485,5
55785,117484,4
55790,117492,5
55801,117487,5
55803,117500,5
55804,117516,5
55816,117515,4
55809,117518,5
55814,117520,5
55815,117525,6
55840,117537,3
55823,117537,4
55826,117546,5
55823,117553,5
55840,117560,5
55835,117557,4
55829,117564,5
55839,117567,5
55843,117571,5
55837,117573,5
55838,117578,4
55833,117580,5
55845,117577,5
55840,117592,5
55849,117593,5
55856,117595,4
55855,117586,5
55852,117607,5
55848,117600,5
55861,117607,5
55859,117614,5
55863,117626,4
55868,117621,5
55868,117639,5
55866,117642,6
55863,117631,3
55867,117627,5
55863,117621,5
55865,117646,5
55867,117632,4
55869,117632,4
55875,117646,5
55882,117672,5
55895,117669,5
55888,117695,4
55896,117692,5
55904,117696,5
55898,117690,5
55900,117697,5
55899,117700,4
55898,117689,5
55893,117696,5
55893,117682,5
55894,117686,5
55891,117683,4
55883,117675,6
55889,117687,4
55892,117684,5
55898,117693,5
55907,117722,4
55918,117735,5
55922,117740,5
55932,117758,5
55932,117762,5
55932,117762,4
55935,117759,5
55938,117775,5
55937,117767,5
55951,117778,5
55950,117787,4
55956,117780,5
55950,117784,5
55950,117800,5
55950,117798,4
55950,117794,5
55954,117800,5
55957,117803,5
55951,117796,5
55961,117797,4
55959,117804,5
55952,117796,6
55957,117805,4
55960,117810,5
55953,117810,4
55966,117818,5
55964,117808,5
55961,117831,5
55970,117824,5
55963,117818,4
55960,117817,5
55970,117813,5
55958,117814,5
55964,117819,5
55964,117812,4
55969,117825,5
55969,117825,5
55969,117838,5
55975,117833,5
55969,117830,4
55980,117842,5
55980,117850,5
55981,117845,5
55978,117852,4
55984,117857,5
56003,117873,5
55997,117875,6
55996,117889,4
55999,117889,4
56008,117886,5
56002,117897,5
56002,117901,5
55996,117906,5
56007,117894,4
56006,117886,5
56001,117887,5
56005,117897,5
56007,117912,5
56016,117909,4
56004,117911,5
56028,117922,5
56024,117926,5
56027,117931,5
56031,117943,4
56017,117932,5
56028,117938,5
56025,117941,5
56027,117944,5
56019,117938,4
56027,117923,5
56031,117926,5
56027,117934,5
56012,117938,4
56028,117940,5
56021,117930,5
56024,117929,5
56004,117938,5
56031,117945,4
56032,117947,5
56033,117956,5
56041,117968,5
56040,117979,5
56050,117980,4
56052,117991,5
56074,117998,5
56057,118015,5
56071,118009,5
56070,118031,4
56091,118042,5
56073,118041,5
56077,118041,5
56094,118037,5
56095,118045,5
56082,118042,4
56081,118031,5
56071,118035,5
56075,118030,5
56061,118024,4
56064,118002,5
56065,118002,5
56044,117962,5
56038,117961,4
56032,117949,5
56036,117949,5
56038,117948,5
56039,117978,5
56055,117994,4
56054,117997,5
56062,117989,5
56062,118013,5
56054,118006,5
56060,118000,4
56061,118014,5
56065,117989,5
56059,118006,5
56062,118009,5
56061,118019,4
56061,118000,7
56063,118006,3
56057,117998,5
56055,118002,5
56063,117983,4
56046,117973,5
56050,117968,5
56040,117974,5
56050,117970,4
56046,117971,4
56040,117971,5
56041,117973,5
56055,117971,5
56042,117969,4
56040,117972,5
56045,117978,5
56046,117968,5
56035,117958,5
56039,117954,4
56033,117935,5
56023,117929,5
56012,117919,5
56019,117914,5
56013,117918,4
56016,117920,5
56020,117925,6
56023,117925,4
56027,117928,5
56023,117919,4
56016,117927,5
56016,117927,5
56029,117933,5
56031,117938,5
56026,117941,4
56031,117940,5
56038,117943,5
56025,117934,5
56030,117936,4
56022,117934,4
56026,117927,5
56025,117931,5
56021,117931,5
56022,117928,4
56022,117929,5
56021,117934,5
56018,117927,5
56017,117917,5
56017,117913,4
56009,117905,5
56016,117902,5
56003,117885,5
56006,117895,5
56006,117884,4
55998,117893,5
56001,117882,5
56006,117889,5
56003,117887,5
56005,117883,4
55993,117876,5
55995,117870,5
55989,117868,5
55988,117860,5
55985,117875,4
55988,117861,5
55988,117838,5
55983,117841,5
55980,117834,4
55966,117822,4
55966,117819,5
55966,117805,5
55956,117800,5
55948,117793,5
55949,117787,4
55947,117781,5
55945,117781,5
55953,117788,5
55950,117792,4
55948,117781,5
55944,117771,5
55944,117764,5
55941,117768,5
55940,117763,4
55935,117756,5
55936,117746,5
55924,117741,5
55931,117738,5
55922,117739,4
55919,117726,5
55919,117716,5
55915,117723,5
55913,117712,5
55916,117714,4
55896,117707,5
55908,117712,4
55919,117713,5
55912,117713,4
55898,117713,5
55916,117709,4
55918,117706,5
55911,117714,5
55907,117701,4
55905,117712,5
55910,117705,5
55908,117709,5
55919,117706,5
55914,117718,4
55914,117714,5
55919,117723,5
55940,117712,5
55920,117730,5
55917,117730,4
55928,117719,5
55931,117729,5
55919,117711,5
55901,117691,5
55913,117693,4
55902,117678,5
55886,117665,6
55874,117641,4
55870,117633,5
55866,117603,4
55865,117598,5
55844,117583,5
55857,117595,5
55845,117579,4
55857,117609,4
55860,117609,5
55863,117624,5
55861,117601,5
55876,117617,4
55861,117610,5
55862,117619,5
55868,117624,5
55865,117619,5
55860,117614,4
55858,117617,5
55871,117642,5
55864,117623,5
55866,117617,5
55866,117607,6
55857,117631,3
55862,117602,5
55853,117602,6
55852,117598,4
55854,117592,4
55856,117582,5
55851,117594,5
55850,117582,5
55849,117584,5
55853,117583,4
55850,117592,5
55852,117591,5
55854,117605,5
55860,117607,4
55850,117600,4
55851,117598,5
55858,117601,5
55847,117580,5
55847,117582,4
55844,117592,5
55845,117571,5
55845,117568,5
55847,117574,5
55839,117572,5
55838,117573,4
55842,117569,5
55850,117575,5
55843,117576,6
55846,117574,3
55837,117573,5
55842,117583,5
55840,117588,5
55850,117592,5
55852,117594,4
55855,117607,5
55852,117605,5
55854,117609,5
55856,117601,5
55853,117600,4
55856,117594,5
55851,117596,5
55850,117590,5
55849,117587,4
55850,117586,4
55845,117581,5
55842,117582,5
55846,117577,5
55841,117581,4
55850,117577,6
55848,117586,4
55847,117577,5
55849,117582,5
55839,117584,6
55841,117579,3
55841,117573,5
55841,117574,5
55834,117575,5
55844,117580,4
55846,117571,5
55846,117577,5
55845,117577,5
55839,117562,5
55838,117567,4
55840,117567,5
55845,117570,5
55841,117559,5
55843,117561,5
55839,117565,4
55838,117565,5
55842,117561,5
55835,117574,5
55833,117568,4
55833,117566,4
55833,117568,6
55834,117561,4
55837,117566,5
55836,117560,4
55843,117555,5
55831,117557,5
55833,117553,5
55834,117551,5
55825,117553,4
55835,117558,5
55835,117546,5
55834,117557,5
55826,117551,5
55826,117548,4
55826,117535,5
55827,117544,5
55820,117529,5
55819,117545,5
55816,117531,4
55820,117534,5
55802,117532,5
55817,117538,5
55828,117529,5
55823,117537,4
55814,117534,5
55819,117527,6
55816,117511,4
55803,117512,4
55806,117492,4
55799,117480,5
55793,117454,5
55769,117439,5
55779,117424,4
55758,117422,5
55747,117397,5
55748,117387,5
55762,117382,5
55743,117379,4
55748,117394,5
55756,117402,5
55766,117407,5
55759,117420,5
55753,117417,4
55759,117409,5
55762,117408,5
55757,117411,5
55763,117405,5
55759,117417,4
55754,117400,5
55762,117409,5
55763,117409,6
55756,117404,4
55753,117384,4
55754,117397,5
55746,117395,5
55757,117397,5
55753,117388,4
55748,117382,4
55752,117380,5
55750,117377,5
55744,117393,5
55745,117373,4
55739,117365,5
55747,117372,5
55748,117403,5
55735,117363,5
55741,117372,4
55735,117364,5
55731,117362,5
55726,117353,5
55722,117326,5
55710,117326,5
55716,117330,4
55721,117320,5
55715,117330,5
55713,117310,6
55707,117309,3
55704,117308,5
55709,117307,5
55704,117315,5
55701,117301,5
55701,117292,4
55692,117285,5
55694,117284,5
55683,117281,5
55689,117260,4
55686,117260,4
55688,117254,5
55674,117253,5
55677,117251,5
55673,117253,4
55680,117243,5
55671,117238,5
55671,117234,5
55671,117238,5
55660,117229,4
55660,117226,6
55662,117230,4
55666,117224,5
55660,117220,5
55666,117215,4
55651,117217,5
55642,117198,5
55648,117204,5
55643,117189,5
55652,117194,4
55642,117186,5
55645,117188,5
55638,117192,5
55645,117184,5
55641,117189,4
55647,117185,5
55645,117185,5
55649,117188,5
55656,117190,4
55648,117195,5
55656,117209,5
55654,117204,5
55668,117216,5
55661,117207,4
55654,117222,5
55663,117217,6
55664,117222,4
55656,117226,5
55665,117236,4
55669,117225,5
55661,117234,5
55662,117229,5
55660,117230,5
55670,117229,4
55659,117230,5
55669,117229,5
55668,117225,5
55662,117230,5
55653,117234,4
55664,117236,5
55664,117213,5
55658,117225,5
55651,117217,5
55663,117231,4
55657,117226,5
55667,117231,5
55668,117230,5
55661,117235,4
55670,117231,5
55676,117227,5
55677,117242,6
55667,117246,4
55674,117242,4
55680,117257,5
55675,117247,5
55683,117251,5
55681,117258,5
55672,117248,4
55672,117233,5
55663,117228,5
55660,117219,5
55638,117208,5
55645,117182,4
55641,117182,5
55641,117173,5
55624,117179,5
55641,117173,5
55647,117175,4
55644,117183,5
55660,117198,5
55656,117205,5
55659,117221,5
55664,117226,4
55686,117228,5
55664,117237,5
55652,117218,5
55668,117218,4
55677,117219,5
55665,117224,5
55662,117220,5
55654,117221,5
55666,117215,4
55656,117205,5
55653,117204,5
55649,117207,5
55654,117196,5
55657,117199,4
55654,117206,5
55650,117206,5
55654,117188,5
55653,117216,5
55657,117216,4
55660,117226,5
55669,117213,5
55672,117246,5
55671,117253,5
55663,117245,5
55665,117243,4
55668,117245,5
55668,117238,5
55669,117236,5
55666,117245,4
55662,117222,5
55662,117227,5
55668,117239,5
55680,117263,4
55677,117259,5
55677,117265,5
55684,117261,5
55683,117278,5
55691,117276,4
55696,117281,5
55690,117284,5
55690,117295,5
55698,117291,5
55692,117294,4
55697,117286,5
55688,117298,5
55696,117299,5
55706,117303,5
55688,117302,4
55703,117300,6
55700,117317,4
55717,117325,5
55707,117316,5
55713,117321,4
55710,117319,5
55710,117314,5
55711,117310,5
55715,117323,5
55710,117320,4
55719,117330,5
55712,117349,5
55717,117356,5
55731,117365,4
55725,117378,5
55735,117383,5
55744,117379,5
55736,117379,5
55745,117389,4
55743,117393,5
55752,117403,5
55746,117401,5
55754,117406,5
55748,117410,4
55751,117411,5
55749,117415,6
55752,117408,4
55754,117424,5
55759,117427,4
55768,117434,5
55764,117442,5
55775,117442,5
55774,117458,5
55776,117458,4
55780,117469,5
55784,117477,5
55791,117492,5
55790,117503,4
55793,117496,4
55798,117507,5
55803,117510,5
55806,117516,5
55809,117526,4
55807,117530,5
55811,117527,5
55805,117531,5
55809,117534,5
55822,117544,4
55815,117547,5
55821,117546,5
55815,117540,5
55813,117525,5
55809,117524,4
55797,117509,5
55789,117497,5
55787,117487,5
55785,117468,5
55784,117458,4
55775,117451,5
55770,117452,5
55768,117448,5
55763,117451,5
55771,117454,4
55776,117460,5
55779,117474,5
55783,117479,5
55784,117484,4
55794,117487,4
55784,117486,5
55793,117481,5
55789,117472,5
55789,117474,5
55785,117474,4
55770,117467,5
55772,117468,5
55772,117457,5
55759,117437,4
55740,117423,5
55751,117419,5
55748,117406,5
55744,117395,5
55712,117390,4
55732,117378,5
55737,117372,5
55726,117363,5
55716,117359,5
55729,117362,4
55725,117354,5
55714,117348,5
55722,117342,5
55712,117332,5
55706,117318,4
55700,117307,6
55709,117296,4
55678,117286,5
55682,117271,5
55672,117269,6
55691,117269,3
55688,117267,5
55687,117270,5
55684,117284,4
55686,117269,5
55685,117286,5
55679,117286,5
55683,117293,5
55690,117283,4
55694,117298,5
55699,117305,5
55698,117316,5
55694,117296,5
55700,117322,4
55701,117321,5
55700,117324,5
55702,117314,5
55710,117317,5
55703,117324,4
55707,117315,5
55705,117315,6
55704,117322,4
55704,117316,5
55704,117314,4
55700,117342,5
55702,117329,5
55705,117328,5
55709,117326,5
55708,117344,4
55719,117332,9
55712,117331,1
55710,117339,5
55715,117344,4
55698,117342,4
55714,117325,5
55712,117328,5
55715,117328,5
55711,117319,4
55704,117327,5
55706,117329,5
55707,117331,5
55704,117323,5
55713,117325,4
55701,117324,5
55711,117321,5
55708,117321,6
55705,117325,4
55703,117327,4
55711,117328,5
55709,117330,5
55715,117340,5
55710,117327,5
55709,117341,4
55715,117332,5
55716,117333,5
55708,117331,5
55705,117340,5
55717,117337,4
55707,117344,5
55724,117343,5
55710,117336,5
55709,117343,5
55724,117361,4
55726,117363,5
55728,117368,5
55734,117382,5
55730,117383,5
55737,117395,4
55743,117398,5
55741,117395,5
55746,117386,6
55732,117387,3
55734,117382,5
55735,117373,5
55728,117357,5
55712,117345,5
55715,117337,4
55711,117327,5
55708,117331,5
55708,117320,5
55699,117318,5
55701,117322,4
55723,117351,5
55721,117361,5
55727,117371,5
55730,117373,5
55730,117394,4
55736,117395,5
55749,117401,5
55755,117405,5
55754,117425,5
55758,117431,5
55757,117434,4
55764,117440,5
55772,117449,5
55764,117441,6
55772,117455,3
55771,117450,5
55766,117450,5
55766,117446,5
55776,117440,4
55770,117457,5
55771,117456,5
55775,117454,5
55774,117465,5
55778,117462,4
55769,117463,5
55769,117470,5
55775,117465,5
55775,117459,5
55778,117465,4
55777,117457,5
55774,117463,5
55776,117471,5
55780,117454,5
55785,117461,4
55773,117460,6
55779,117465,4
55788,117485,5
55786,117481,5
55787,117487,4
55776,117495,5
55788,117501,5
55799,117513,5
55802,117512,4
55782,117511,4
55804,117526,5
55805,117508,5
55801,117522,5
55803,117516,4
55809,117521,5
55811,117526,5
55818,117539,5
55836,117539,5
55819,117545,4
55819,117549,5
55822,117554,5
55846,117550,5
55826,117560,5
55826,117555,4
55819,117563,5
55833,117557,6
55823,117554,4
55829,117564,5
55827,117574,4
55831,117561,5
55827,117574,5
55843,117586,5
55847,117579,5
55838,117582,4
55855,117595,5
55840,117608,5
55855,117610,5
55849,117593,4
55857,117615,4
55856,117617,5
55860,117623,5
55862,117626,5
55866,117632,4
55868,117633,5
55865,117641,5
55872,117657,5
55872,117652,5
55871,117657,4
55871,117667,5
55883,117688,5
55899,117678,6
55888,117695,4
55904,117698,4
55908,117742,5
55919,117728,5
55926,117739,5
55921,117753,5
55924,117741,4
55909,117732,5
55908,117727,5
55922,117730,5
55914,117734,5
55908,117721,4
55907,117721,5
55902,117719,5
55900,117699,5
55905,117699,4
55891,117698,4
55898,117703,5
55901,117729,5
55908,117734,5
55921,117733,5
55924,117753,4
55922,117755,5
55922,117765,5
55935,117755,6
55931,117764,3
55934,117781,5
55939,117783,5
55946,117788,5
55952,117805,5
55958,117821,4
55963,117824,5
55954,117814,5
55970,117823,5
55962,117821,5
55951,117823,4
55957,117816,5
55958,117821,5
55959,117834,5
55955,117828,5
55958,117830,4
55966,117830,5
55971,117839,5
55971,117838,5
55971,117846,5
55970,117851,5
55978,117858,4
55985,117867,5
55990,117872,5
55986,117872,4
55992,117871,5
55994,117879,5
55991,117888,5
55996,117903,5
55998,117907,4
56000,117914,5
56013,117920,5
56018,117944,5
56020,117935,5
56018,117941,4
56025,117945,5
56029,117957,5
56026,117951,5
56037,117951,5
56024,117962,4
56036,117971,5
56045,117980,5
56047,117995,5
56051,118014,5
56058,118024,4
56054,118031,6
56060,118033,4
56069,118025,5
56068,118027,5
56064,118028,4
56063,118025,5
56063,118029,5
56067,118032,5
56074,118047,4
56081,118051,5
56079,118067,5
56083,118059,5
56084,118066,5
56080,118066,4
56088,118078,5
56090,118066,5
56086,118075,5
56081,118073,5
56088,118070,4
56097,118084,5
56092,118079,5
56077,118086,5
56093,118076,5
56097,118095,4
56101,118099,5
56079,118104,6
56092,118101,4
56105,118103,5
56099,118113,4
56098,118119,5
56117,118141,5
56127,118143,5
56126,118160,5
56142,118165,4
56139,118172,5
56137,118175,5
56142,118186,5
56157,118163,4
56136,118149,4
56139,118157,5
56133,118166,5
56148,118156,5
56117,118149,4
56125,118143,5
56111,118132,5
56118,118120,5
56103,118108,5
56109,118110,4
56116,118127,5
56123,118134,5
56129,118159,5
56135,118158,5
56131,118163,4
56140,118148,5
56136,118157,5
56137,118157,5
56143,118160,5
56137,118149,4
56141,118173,5
56149,118175,5
56143,118186,5
56152,118201,5
56154,118189,4
56152,118196,5
56147,118206,5
56139,118193,5
56150,118180,4
56139,118183,4
56140,118173,5
56147,118200,5
56141,118169,5
56140,118167,5
56138,118162,4
56133,118173,5
56135,118167,5
56133,118159,5
56144,118165,4
56133,118162,5
56144,118175,5
56139,118163,5
56135,118160,5
56132,118159,4
56133,118154,5
56128,118159,5
56137,118161,5
56135,118171,5
56144,118182,4
56141,118178,5
56139,118176,5
56136,118178,5
56134,118169,5
56141,118162,4
56141,118158,5
56133,118168,5
56133,118167,5
56143,118166,4
56142,118171,5
56142,118171,4
56130,118168,5
56143,118170,5
56134,118172,4
56143,118173,5
56147,118169,5
56144,118170,5
56140,118174,5
56135,118170,4
56130,118160,5
56137,118145,5
56134,118164,5
56134,118166,5
56137,118165,4
56140,118157,5
56135,118158,5
56132,118161,5
56137,118150,5
56129,118155,4
56135,118158,5
56136,118152,5
56122,118143,5
56123,118152,5
56128,118156,4
56143,118141,6
56130,118142,4
56125,118144,5
56129,118141,4
56137,118151,4
56126,118153,5
56135,118153,5
56130,118159,5
56132,118154,4
56138,118157,5
56141,118166,5
56137,118172,5
56148,118188,5
56156,118191,4
56152,118208,5
56165,118207,5
56164,118214,5
56169,118228,5
56166,118223,4
56155,118216,5
56159,118217,5
56163,118208,5
56170,118223,4
56149,118193,4
56155,118181,5
56145,118172,5
56135,118161,5
56134,118153,5
56138,118157,4
56143,118165,5
56138,118167,5
56146,118186,5
56152,118194,5
56162,118200,4
56173,118214,5
56165,118215,5
56162,118216,5
56157,118214,4
56167,118211,5
56158,118215,5
56165,118213,5
56150,118230,5
56164,118216,5
56162,118215,4
56164,118211,5
56149,118209,5
56155,118198,6
56163,118192,3
56158,118205,5
56164,118193,5
56155,118194,5
56156,118206,5
56156,118195,4
56173,118198,5
56152,118194,5
56148,118195,5
56163,118200,5
56175,118204,4
56165,118197,5
56151,118201,5
56152,118182,5
56144,118155,5
56126,118142,4
56124,118137,5
56125,118139,5
56122,118128,5
56113,118123,4
56109,118118,5
56122,118116,4
56108,118094,5
56103,118090,5
56109,118086,6
56101,118077,3
56087,118052,5
56088,118064,5
56088,118060,5
56092,118057,4
56075,118044,5
56075,118044,5
56075,118023,5
56075,118036,5
56058,118042,4
56067,118022,5
56066,118011,5
56064,118009,5
56061,118028,5
56060,118006,4
56052,117996,5
56053,117988,5
56044,117996,6
56043,117979,4
56047,117985,4
56046,117971,6
56049,117983,4
56039,117964,5
56040,117964,4
56043,117958,6
56035,117946,3
56022,117943,5
56026,117948,5
56021,117930,4
56021,117939,5
56020,117934,5
56019,117927,5
56014,117913,5
56014,117921,4
56012,117913,5
56014,117916,5
56021,117914,5
56017,117909,5
56009,117905,4
56014,117908,5
56006,117903,5
56006,117897,5
56009,117891,5
55991,117877,4
55990,117871,5
55999,117864,6
55979,117860,4
55979,117865,5
55982,117856,4
55979,117845,5
55979,117841,5
55983,117854,5
55988,117858,4
55985,117853,4
55988,117856,5
55991,117868,5
55989,117867,5
55985,117873,4
55988,117869,5
55981,117868,5
55995,117872,5
55991,117873,5
55988,117869,4
55986,117863,5
55975,117853,5
55991,117852,5
55979,117850,5
55986,117848,4
55981,117847,5
55988,117856,5
55988,117852,6
55989,117862,4
55986,117858,4
55993,117860,5
55993,117864,5
55999,117866,5
55995,117868,5
55991,117872,4
55986,117872,5
55992,117874,5
55993,117875,5
55994,117883,4
55995,117885,4
56000,117878,5
56002,117879,5
56002,117881,5
55995,117885,4
56000,117880,5
56000,117887,5
55996,117884,5
55999,117891,5
55998,117884,5
56000,117883,4
55995,117890,5
55996,117873,5
55992,117875,6
55995,117863,3
55996,117876,5
55996,117856,5
55994,117874,5
55985,117874,5
55997,117873,4
55994,117868,5
56000,117879,5
55992,117867,5
55985,117879,5
55982,117876,4
56002,117887,5
55995,117884,5
56001,117887,5
55976,117884,4
55996,117873,4
55993,117876,5
56000,117871,5
55988,117875,5
55993,117869,4
55996,117867,6
55991,117879,4
56009,117889,5
56002,117886,5
56005,117879,4
55998,117884,5
56023,117890,5
55991,117874,5
56001,117876,5
56008,117883,4
56010,117887,5
55995,117887,5
56006,117893,5
55998,117894,5
56022,117895,4
56007,117904,5
55999,117903,5
56007,117905,5
55997,117882,5
56003,117887,4
55998,117882,5
55988,117877,5
55990,117849,5
55980,117851,5
55975,117835,4
55974,117841,6
55975,117820,4
55976,117852,5
55976,117848,4
55976,117852,5
55980,117863,5
55987,117862,5
55989,117871,5
55994,117877,4
55990,117891,5
55998,117869,5
55991,117864,5
55989,117862,5
55986,117886,4
55992,117872,5
55987,117874,5
55982,117869,5
55987,117876,5
55992,117869,4
55985,117864,5
55994,117862,5
55983,117862,5
55981,117855,5
55982,117859,4
55982,117852,5
55979,117849,6
55977,117851,4
55972,117833,5
55977,117837,4
55979,117832,5
55970,117837,5
55967,117823,5
55970,117845,4
55968,117833,4
55973,117824,5
55971,117823,5
55976,117833,5
55970,117814,4
55959,117801,5
55948,117802,5
55956,117787,5
55956,117788,5
55952,117788,4
55949,117797,5
55948,117794,5
55953,117792,5
55955,117783,5
55948,117795,4
55946,117792,5
55947,117782,5
55956,117777,6
55941,117783,4
55944,117781,4
55947,117789,5
55948,117790,5
55954,117782,5
55945,117776,5
55941,117783,4
55945,117778,5
55936,117781,5
55937,117773,5
55941,117778,4
55934,117773,4
55937,117771,5
55943,117774,5
55932,117773,5
55938,117757,4
55932,117761,5
55933,117755,5
55927,117749,5
55927,117753,5
55932,117752,5
55934,117758,4
55930,117751,5
55927,117754,5
55924,117746,5
55931,117752,4
55926,117736,5
55923,117750,5
55933,117737,5
55924,117754,5
55929,117755,4
55932,117740,5
55922,117734,5
55918,117740,5
55917,117744,5
55919,117726,4
55919,117726,5
55910,117727,5
55911,117718,5
55918,117714,4
55904,117701,4
55903,117693,5
55895,117688,5
55893,117672,5
55886,117665,4
55883,117671,6
55875,117661,4
55881,117654,5
55870,117649,5
55880,117645,4
55872,117653,5
55864,117648,5
55884,117663,5
55883,117661,5
55878,117658,4
55865,117654,5
55878,117647,5
55874,117643,5
55872,117629,5
55840,117617,4
55850,117597,5
55850,117563,5
55819,117546,5
55823,117510,5
55809,117494,4
55790,117484,5
55781,117469,5
55806,117466,5
55786,117467,4
55786,117469,4
55787,117470,6
55811,117483,4
55799,117492,5
55796,117491,4
55802,117485,5
55797,117478,5
55800,117473,5
55788,117477,5
55788,117475,4
55796,117475,5
55787,117482,5
55794,117477,5
55789,117470,5
55779,117456,4
55785,117469,5
55793,117462,5
55783,117457,5
55781,117437,5
55780,117444,4
55764,117449,5
55771,117449,5
55772,117445,5
55776,117425,5
55777,117438,4
55777,117435,5
55771,117452,6
55765,117421,4
55767,117445,5
55761,117427,4
55766,117440,5
55762,117411,5
55754,117390,5
55753,117390,4
55746,117401,5
55738,117378,5
55743,117379,5
55737,117386,5
55745,117399,4
55748,117393,5
55745,117385,5
55748,117396,5
55750,117380,5
55750,117381,4
55749,117387,5
55747,117375,5
55747,117373,5
55744,117376,5
55736,117382,4
55736,117366,5
55727,117366,5
55727,117355,5
55729,117365,5
55733,117354,4
55732,117358,5
55722,117351,5
55725,117344,5
55714,117349,5
55714,117343,4
55715,117333,5
55716,117347,5
55715,117334,5
55720,117335,4
55717,117332,4
55713,117335,5
55708,117330,5
55714,117320,5
55713,117319,4
55707,117315,5
55711,117324,5
55708,117314,5
55709,117329,5
55711,117315,5
55708,117332,4
55715,117329,5
55717,117339,5
55724,117328,5
55718,117322,4
55724,117324,5
55712,117336,5
55714,117328,5
55717,117329,5
55705,117325,4
55708,117317,5
55704,117314,5
55707,117316,5
55710,117303,5
55710,117307,4
55712,117294,5
55698,117298,5
55686,117283,5
55696,117281,4
55695,117274,4
55692,117273,5
55691,117278,4
55689,117276,5
55693,117281,4
55694,117281,7
55686,117276,3
55697,117284,5
55704,117284,5
55688,117281,4
55693,117290,5
55699,117285,5
55699,117282,5
55699,117290,5
55703,117293,4
55698,117299,5
55703,117302,5
55695,117299,5
55692,117289,5
55691,117285,4
55687,117267,5
55682,117258,5
55675,117229,5
55647,117215,5
55650,117204,4
55644,117192,5
55641,117176,6
55618,117163,4
55621,117148,4
55629,117165,4
55625,117169,5
55613,117179,5
55640,117181,5
55640,117177,4
55640,117197,5
55625,117201,5
55642,117201,5
55656,117208,5
55649,117207,4
55652,117195,5
55642,117190,5
55653,117191,5
55649,117200,5
55658,117195,4
55644,117201,5
55644,117201,5
55654,117205,5
55669,117210,5
55644,117206,4
55653,117197,5
55643,117208,5
55653,117205,6
55651,117223,4
55658,117208,4
55664,117230,5
55664,117248,5
55669,117249,5
55664,117255,4
55666,117264,4
55679,117249,5
55678,117264,5
55675,117274,5
55681,117267,4
55690,117253,5
55678,117281,5
55692,117295,5
55700,117307,5
55710,117314,4
55712,117328,5
55718,117349,5
55707,117353,5
55719,117362,5
55722,117355,5
55719,117353,4
55723,117345,5
55721,117380,5
55723,117356,6
55716,117367,3
55722,117361,5
55726,117382,5
55724,117364,5
55718,117369,8
55724,117358,1
55729,117379,5
55731,117380,5
55727,117378,5
55735,117401,5
55743,117414,4
55751,117422,5
55752,117424,5
55750,117432,5
55756,117432,4
55763,117436,5
55766,117435,5
55758,117429,5
55754,117425,5
55755,117427,4
55754,117413,6
55749,117414,4
55749,117417,5
55750,117408,5
55745,117395,6
55750,117403,3
55742,117395,5
55743,117398,5
55738,117402,5
55751,117396,4
55743,117400,5
55749,117419,5
55750,117428,5
55757,117418,5
55756,117424,4
55756,117434,5
55753,117430,5
55754,117436,5
55762,117437,5
55758,117425,4
55756,117437,5
55766,117447,5
55759,117443,5
55771,117436,4
55762,117453,5
55764,117441,6
55758,117440,4
55761,117442,5
55762,117437,4
55751,117427,5
55760,117428,5
55754,117425,5
55760,117424,5
55754,117424,4
55754,117425,5
55754,117422,5
55750,117408,5
55748,117401,5
55734,117374,4
55721,117361,5
55718,117338,5
55697,117307,5
55687,117266,5
55658,117242,4
55660,117219,5
55640,117202,5
55628,117186,5
55624,117161,5
55613,117148,4
55615,117143,5
55608,117136,6
55610,117131,4
55611,117127,4
55609,117119,5
55606,117119,5
55594,117111,5
55594,117098,5
55596,117096,4
55593,117099,5
55588,117090,5
55593,117104,5
55593,117093,5
55586,117099,4
55586,117106,5
55597,117083,5
55593,117090,5
55592,117094,5
55582,117098,4
55585,117103,5
55582,117101,5
55592,117110,5
55577,117103,5
55594,117118,4
55600,117126,5
55605,117133,5
55589,117130,6
55617,117130,4
55611,117143,4
55619,117162,5
55609,117156,5
55617,117145,5
55621,117148,4
55616,117144,5
55629,117148,5
55615,117146,5
55615,117151,5
55614,117156,4
55645,117162,5
55627,117168,5
55620,117172,5
55635,117176,5
55643,117176,4
55642,117178,5
55638,117175,5
55633,117180,5
55639,117174,5
55630,117176,5
55628,117167,4
55625,117179,5
55632,117160,5
55624,117161,6
55626,117176,3
55628,117166,5
55635,117145,5
55628,117172,5
55627,117158,5
55625,117163,4
55624,117145,5
55627,117164,5
55631,117164,5
55625,117175,4
55631,117171,4
55632,117158,5
55629,117158,5
55620,117164,5
55630,117185,4
55634,117156,5
55623,117148,5
55620,117148,5
55619,117170,5
55621,117162,4
55624,117158,6
55622,117151,4
55617,117171,5
55625,117164,5
55622,117159,4
55623,117169,5
55626,117167,5
55627,117170,5
55630,117178,5
55622,117181,4
55626,117175,5
55632,117183,5
55640,117175,5
55639,117189,5
55634,117175,4
55630,117183,5
55643,117189,5
55648,117218,5
55655,117236,4
55671,117241,4
55661,117228,5
55661,117237,5
55662,117234,5
55656,117234,4
55650,117229,5
55659,117223,6
55650,117213,4
55647,117209,5
55648,117216,4
55643,117199,5
55648,117203,5
55647,117196,5
55646,117215,5
55649,117225,4
55655,117235,5
55670,117247,5
55661,117252,5
55670,117253,5
55676,117264,4
55682,117267,5
55691,117275,5
55685,117281,5
55680,117279,5
55685,117286,4
55685,117287,5
55683,117282,5
55687,117300,5
55696,117294,4
55689,117290,4
55695,117301,5
55696,117299,6
55689,117296,4
55700,117290,4
55692,117288,5
55695,117292,5
55691,117298,5
55686,117303,5
55696,117302,4
55702,117302,5
55703,117324,5
55694,117311,5
55711,117324,5
55705,117320,4
55709,117325,5
55719,117328,5
55711,117328,5
55721,117340,5
55714,117334,4
55715,117341,5
55712,117343,5
55724,117354,5
55721,117353,5
55727,117361,4
55727,117368,5
55731,117369,5
55732,117369,5
55743,117377,4
55734,117370,4
55734,117378,5
55746,117381,5
55739,117401,5
55743,117398,4
55754,117418,5
55752,117424,5
55769,117433,5
55765,117450,5
55770,117446,4
55766,117455,5
55781,117461,5
55774,117464,5
55786,117461,5
55762,117463,4
55773,117454,5
55786,117478,5
55784,117478,5
55781,117477,5
55787,117486,5
55794,117490,4
55794,117480,5
55805,117488,5
55790,117500,5
55785,117501,4
55802,117516,5
55824,117514,5
55803,117530,5
55818,117533,4
55821,117538,4
55841,117558,5
55822,117561,5
55831,117571,5
55829,117572,4
55830,117572,5
55827,117582,5
55829,117572,5
55841,117585,5
55831,117582,4
55854,117604,5
55856,117610,5
55868,117635,5
55867,117626,5
55870,117646,4
55867,117636,6
55868,117636,4
55870,117608,5
55864,117623,5
55866,117625,4
55858,117608,5
55861,117605,5
55845,117592,5
55846,117587,5
55852,117588,4
55853,117617,5
55845,117605,5
55856,117619,5
55865,117635,4
55869,117665,4
55887,117669,5
55879,117659,5
55886,117664,5
55885,117673,4
55887,117665,5
55885,117668,5
55886,117667,5
55887,117669,5
55891,117671,4
55895,117680,5
55896,117682,6
55892,117691,4
55896,117687,5
55889,117688,4
55894,117682,5
55883,117677,5
55895,117673,5
55895,117682,5
55891,117679,4
55892,117685,5
55888,117700,5
55895,117695,5
55903,117706,5
55910,117707,4
55910,117704,5
55904,117712,5
55914,117711,5
55909,117715,4
55917,117720,4
55908,117718,5
55911,117718,5
55924,117725,5
55914,117729,4
55928,117744,5
55932,117759,5
55934,117777,5
55942,117769,5
55943,117783,4
55948,117790,5
55949,117784,5
55943,117798,5
55950,117808,5
55962,117800,4
55963,117807,5
55952,117803,5
55951,117811,5
55959,117807,5
55958,117824,4
55965,117823,5
55965,117819,5
55962,117823,5
55962,117825,5
55967,117837,4
55973,117836,4
55977,117849,5
55979,117853,5
55971,117856,5
55983,117851,3
55975,117848,5
55978,117854,5
55978,117850,5
55972,117838,4
55971,117842,5
55976,117836,5
55971,117837,5
55975,117828,5
55972,117831,4
55963,117836,5
55975,117829,5
55967,117827,5
55974,117833,5
55978,117837,4
55978,117842,5
55979,117846,5
55980,117850,5
55984,117854,5
55990,117858,4
55992,117869,6
55984,117874,4
55990,117863,5
55993,117868,5
55996,117878,6
56002,117890,3
56001,117895,5
56012,117906,5
56011,117911,4
56015,117912,4
56015,117914,5
56008,117909,5
56006,117917,5
56011,117904,4
56018,117917,5
55991,117916,5
56001,117899,5
56012,117896,5
56005,117890,4
55980,117889,5
56003,117877,5
55999,117885,5
55990,117887,5
56002,117902,4
56009,117911,5
56015,117931,6
56023,117945,4
56039,117944,5
56030,117941,4
56022,117951,5
56031,117950,5
56043,117942,5
56037,117955,5
56028,117966,4
56036,117969,5
56044,117966,5
56042,117971,5
56038,117966,5
56039,117994,4
56057,117973,5
56043,117981,5
56046,117983,5
56041,117989,4
56047,117968,5
56039,117979,5
56048,117983,5
56051,117983,5
56052,117963,4
56051,117984,5
56048,117995,5
56058,118008,6
56067,118015,4
56058,118020,4
56062,118028,5
56071,118024,5
56064,118040,5
56065,118009,5
56067,118011,4
56062,118022,5
56064,118028,5
56055,118012,5
56064,118020,5
56060,118010,4
56058,118028,5
56063,118011,5
56064,118017,5
56063,118005,5
56060,118021,4
56057,118020,6
56071,118032,4
56069,118036,5
56075,118037,5
56075,118040,4
56078,118044,5
56073,118047,5
56078,118054,6
56077,118049,3
56078,118059,5
56086,118056,5
56083,118055,5
56078,118042,5
56077,118053,4
56079,118048,5
56077,118047,5
56070,118054,5
56080,118045,5
56076,118046,4
56069,118040,5
56080,118047,5
56082,118058,5
56075,118050,5
56081,118054,4
56090,118066,5
56083,118057,5
56079,118055,5
56083,118055,5
56085,118058,5
56081,118056,4
56082,118052,5
56084,118053,5
56091,118073,6
56085,118058,3
56088,118058,5
56077,118058,5
56083,118054,5
56081,118054,4
56082,118058,5
56081,118052,5
56074,118050,5
56075,118035,5
56067,118038,4
56074,118036,5
56067,118018,5
56062,118019,5
56063,118014,5
56069,117999,4
56054,118008,5
56055,118002,5
56050,118001,5
56056,117995,5
56047,117999,4
56057,117986,6
56046,117991,4
56052,117989,5
56060,117983,5
56044,117981,4
56039,117978,5
56033,117969,5
56034,117962,5
56040,117961,4
56030,117956,4
56028,117936,5
56019,117932,5
56014,117925,5
56008,117915,4
56004,117891,5
55992,117870,5
55988,117847,5
55971,117818,5
55953,117795,4
55944,117780,5
55941,117778,5
55939,117776,5
55941,117777,5
55937,117783,4
55944,117784,5
55950,117786,6
55949,117789,4
55938,117777,5
55941,117776,4
55943,117776,5
55947,117771,5
55929,117767,5
55943,117776,5
55943,117772,4
55932,117768,5
55934,117777,5
55931,117765,5
55937,117767,4
55930,117751,4
55926,117754,5
55931,117751,5
55933,117744,5
55926,117747,4
55941,117741,5
55932,117744,5
55936,117745,5
55921,117738,5
55948,117728,4
55923,117735,5
55928,117734,5
55930,117734,6
55939,117729,4
55922,117724,4
55918,117717,5
55914,117711,5
55909,117711,5
55902,117708,5
55912,117707,4
55916,117710,5
55909,117691,5
55900,117700,5
55906,117702,5
55904,117702,4
55903,117679,5
55902,117690,5
55896,117692,5
55901,117686,4
55900,117668,4
55902,117692,5
55895,117694,5
55899,117689,5
55899,117701,5
55898,117690,4
55901,117689,5
55891,117686,5
55898,117707,6
55901,117683,3
55886,117677,5
55888,117677,5
55891,117687,5
55887,117668,5
55890,117670,4
55886,117664,5
55883,117654,5
55889,117651,5
55884,117659,5
55877,117661,4
55888,117660,5
55885,117659,5
55887,117658,5
55888,117655,5
55879,117664,4
55888,117653,5
55882,117655,5
55874,117660,5
55874,117640,5
55879,117641,5
55881,117642,4
55870,117636,5
55869,117637,5
55867,117621,4
55861,117615,5
55863,117623,5
55852,117613,5
55859,117605,5
55859,117608,4
55858,117616,5
55860,117612,5
55854,117621,5
55860,117630,5
55868,117630,4
55871,117636,5
55870,117644,5
55866,117638,5
55873,117650,5
55881,117651,4
55869,117643,5
55876,117641,5
55873,117639,5
55862,117632,5
55868,117628,4
55869,117629,6
55863,117627,4
55861,117627,5
55864,117626,5
55864,117629,4
55871,117637,5
55868,117625,5
55861,117622,5
55859,117627,4
55866,117623,4
55866,117626,5
55858,117629,5
55865,117625,5
55872,117629,4
55862,117622,5
55864,117615,5
55857,117618,5
55861,117614,5
55862,117609,4
55861,117612,5
55862,117607,5
55859,117617,5
55851,117604,5
55862,117603,4
55856,117606,5
55848,117611,6
55861,117627,4
55861,117611,5
55860,117600,4
55859,117610,5
55853,117601,5
55845,117594,5
55843,117579,5
55838,117566,4
55844,117559,5
55829,117544,5
55825,117533,5
55810,117526,4
55811,117523,4
55824,117533,5
55817,117533,5
55822,117550,5
55836,117554,4
55829,117556,5
55830,117557,5
55825,117549,5
55834,117547,5
55805,117539,4
55826,117551,5
55822,117540,5
55820,117537,5
55804,117533,5
55819,117555,4
55834,117531,5
55825,117535,5
55806,117532,5
55817,117522,5
55817,117525,4
55814,117520,5
55819,117506,5
55812,117519,5
55807,117503,5
55804,117510,4
55829,117515,5
55813,117513,5
55808,117517,5
55807,117511,4
55821,117516,4
55797,117505,5
55802,117511,5
55809,117504,5
55804,117491,5
55787,117499,4
55792,117484,5
55794,117478,5
55797,117474,5
55798,117475,4
55796,117488,5
55800,117486,5
55790,117468,5
55789,117481,5
55794,117476,4
55792,117479,5
55788,117449,5
55783,117477,5
55790,117479,5
55799,117476,4
55794,117475,5
55784,117476,5
55791,117488,5
55788,117476,5
55790,117497,4
55787,117473,5
55786,117484,5
55792,117494,5
55799,117513,4
55792,117494,5
55795,117501,4
55797,117477,5
55799,117503,5
55797,117478,4
55793,117487,5
55800,117490,5
55793,117490,5
55794,117484,5
55791,117483,4
55793,117472,5
55791,117483,5
55797,117482,5
55788,117474,5
55791,117481,4
55781,117478,5
55788,117478,5
55785,117474,5
55786,117474,5
55793,117471,4
55781,117473,5
55780,117469,5
55789,117470,5
55784,117464,5
55783,117469,4
55787,117476,6
55792,117473,4
55784,117471,5
55778,117464,4
55784,117459,4
55778,117463,5
55783,117455,5
55784,117461,5
55772,117460,4
55770,117462,5
55780,117461,5
55783,117465,5
55779,117449,5
55770,117454,4
55763,117439,5
55768,117443,5
55766,117431,5
55762,117426,5
55763,117420,4
55764,117427,5
55765,117422,5
55758,117423,6
55753,117408,4
55756,117408,4
55747,117399,5
55743,117395,5
55741,117395,5
55739,117387,5
55735,117380,4
55740,117390,5
55733,117383,5
55734,117383,5
55739,117375,4
55743,117398,4
55736,117388,5
55742,117390,5
55750,117396,5
55746,117397,4
55748,117397,5
55754,117395,5
55742,117384,5
55736,117382,5
55737,117378,5
55730,117369,4
55723,117347,5
55717,117322,5
55701,117310,6
55694,117301,3
55691,117275,5
55687,117263,5
55672,117255,5
55670,117255,5
55681,117272,4
55682,117272,5
55688,117272,5
55690,117289,5
55689,117280,5
55692,117281,4
55690,117278,5
55678,117269,5
55687,117256,5
55678,117265,5
55682,117271,4
55676,117271,5
55684,117261,5
55680,117267,5
55684,117273,4
55666,117267,6
55679,117264,4
55681,117255,5
55682,117264,5
55661,117267,6
55686,117257,3
55684,117266,5
55682,117261,5
55681,117265,5
55684,117265,4
55675,117254,5
55678,117259,5
55696,117251,5
55684,117253,5
55679,117256,4
55675,117256,5
55694,117247,5
55670,117246,5
55666,117236,5
55666,117239,4
55673,117253,5
55683,117247,5
55683,117269,5
55679,117265,5
55686,117274,4
55686,117269,6
55678,117267,4
55686,117280,5
55682,117265,4
55682,117276,4
55691,117276,5
55680,117281,5
55688,117259,5
55686,117270,4
55678,117264,5
55682,117271,5
55678,117260,5
55681,117269,5
55682,117269,4
55685,117261,5
55678,117268,5
55684,117261,5
55677,117258,5
55678,117261,4
55674,117279,5
55667,117259,5
55683,117257,5
55679,117258,5
55684,117273,4
55679,117251,5
55668,117253,6
55669,117262,4
55674,117262,5
55669,117250,4
55665,117261,5
55676,117272,8
55684,117268,2
55680,117271,4
55683,117273,4
55708,117278,5
55689,117283,5
55689,117286,5
55689,117300,4
55693,117295,5
55692,117308,5
55701,117307,5
55702,117300,5
55696,117316,4
55692,117305,5
55695,117303,5
55702,117307,5
55700,117310,5
55699,117313,4
55702,117317,5
55699,117313,5
55696,117311,6
55701,117319,4
55700,117303,4
55693,117314,5
55708,117303,5
55705,117306,5
55706,117316,5
55700,117310,4
55701,117318,5
55712,117319,5
55715,117322,5
55703,117329,4
55714,117340,4
55714,117346,5
55719,117347,5
55720,117364,5
55730,117370,4
55741,117382,5
55744,117393,5
55745,117395,5
55746,117407,5
55751,117407,5
55743,117389,4
55739,117391,5
55737,117380,5
55728,117358,6
55721,117340,3
55715,117323,5
55703,117332,5
55698,117321,5
55705,117302,5
55698,117302,4
55700,117310,5
55707,117314,5
55712,117330,5
55709,117348,5
55717,117352,4
55715,117353,5
55720,117354,5
55723,117360,5
55725,117358,4
55722,117363,4
55728,117371,5
55724,117365,5
55726,117366,5
55728,117385,4
55728,117372,6
55720,117362,4
55726,117362,5
55729,117363,5
55730,117363,4
55731,117358,5
55722,117352,5
55716,117357,5
55723,117352,5
55723,117359,4
55722,117358,5
55731,117365,5
55724,117365,5
55728,117359,5
55720,117366,4
55735,117378,5
55719,117378,5
55724,117374,5
55724,117367,5
55725,117356,4
55707,117350,5
55717,117356,5
55727,117368,5
55732,117368,4
55714,117380,4
55740,117375,6
55726,117373,4
55739,117386,5
55746,117392,4
55731,117386,5
55734,117388,5
55733,117385,5
55753,117384,5
55731,117386,4
55733,117384,5
55731,117385,5
55747,117378,5
55729,117385,5
55734,117381,4
55734,117377,5
55735,117375,5
55727,117374,5
55731,117379,5
55726,117378,4
55734,117367,5
55723,117370,5
55734,117369,5
55730,117362,5
55732,117347,4
55728,117368,5
55727,117356,7
55723,117352,3
55708,117320,5
55719,117347,4
55721,117339,5
55706,117338,5
55710,117344,5
55714,117341,4
55714,117338,5
55717,117337,5
55709,117353,5
55703,117331,5
55698,117324,4
55694,117313,5
55693,117328,5
55699,117309,5
55690,117292,5
55691,117291,4
55696,117299,5
55700,117301,5
55691,117308,5
55696,117315,5
55698,117315,4
55712,117318,5
55699,117331,5
55701,117335,6
55711,117324,4
55713,117331,4
55708,117327,5
55712,117339,5
55707,117348,5
55709,117327,5
55707,117330,4
55707,117330,5
55704,117324,5
55708,117341,5
55712,117346,4
55717,117342,5
55708,117351,5
55724,117355,5
55725,117367,5
55726,117378,4
55734,117382,5
55736,117385,5
55734,117398,5
55744,117394,5
55742,117408,5
55746,117408,4
55742,117413,5
55747,117409,5
55750,117430,5
55761,117445,4
55767,117462,5
55774,117451,5
55771,117462,5
55761,117450,5
55773,117458,4
55763,117443,5
55773,117430,5
55759,117411,5
55734,117394,5
55744,117399,4
55740,117386,5
55729,117380,5
55728,117369,5
55725,117371,4
55735,117375,4
55735,117380,5
55736,117388,5
55748,117396,5
55737,117410,4
55747,117411,6
55745,117410,4
55744,117402,5
55746,117407,5
55741,117401,4
55743,117409,5
55746,117417,5
55753,117416,5
55749,117420,5
55749,117395,4
55745,117394,5
55735,117400,5
55736,117399,5
55739,117387,5
55743,117393,4
55744,117389,5
55748,117392,5
55739,117399,5
55739,117393,5
55735,117390,4
55728,117394,5
55740,117382,5
55739,117382,5
55724,117382,4
55739,117388,4
55732,117385,6
55736,117380,4
55738,117383,5
55735,117389,4
55738,117378,5
55742,117374,10
55733,117385,5
55736,117395,5
55747,117402,5
55765,117448,8
55765,117448,5
55759,117449,5
55760,117453,8
55778,117469,5
55775,117463,5
55781,117443,8
55788,117468,5
55781,117476,5
55789,117496,5
55803,117502,8
55806,117500,5
55795,117509,5
55810,117528,8
55810,117528,5
55812,117553,5
55815,117571,5
55816,117550,8
55822,117526,5
55817,117549,5
55848,117546,8
55832,117554,5
55789,117550,5
55806,117544,8
55822,117536,5
55826,117555,5
55820,117556,5
55827,117564,8
55827,117564,5
55820,117498,5
55821,117551,8
55827,117569,5
55838,117577,5
55819,117589,5
55806,117572,8
55824,117580,5
55843,117594,5
55837,117618,8
55847,117608,5
55843,117601,5
55862,117628,8
55862,117628,5
55860,117624,5
55863,117649,5
55878,117668,8
55878,117677,5
55894,117691,5
55896,117700,8
55892,117705,5
55901,117704,5
55890,117689,5
55884,117670,8
55891,117679,5
55876,117673,5
55876,117673,8
55872,117675,5
55881,117675,5
55876,117685,8
55883,117695,5
55886,117697,5
55904,117743,5
55906,117729,8
55903,117674,5
55837,117618,5
55902,117732,8
55926,117750,5
55926,117750,5
55923,117767,5
55922,117759,8
55926,117752,5
55923,117752,5
55932,117763,8
55926,117763,5
55929,117765,5
55931,117736,8
55936,117755,5
55933,117758,5
55931,117768,5
55928,117791,8
55928,117791,5
55935,117769,5
55940,117771,8
55942,117772,5
55940,117786,5
55938,117771,5
55932,117762,8
55933,117785,5
55937,117799,5
55951,117799,8
55954,117812,5
55951,117823,5
55971,117834,8
55971,117834,5
55969,117843,5
55983,117838,5
55988,117836,8
55941,117841,5
55953,117827,5
55962,117849,8
55973,117857,5
55970,117866,5
55979,117861,5
55979,117866,8
55980,117892,5
56001,117900,5
56011,117926,8
56011,117926,5
55981,117920,5
55986,117927,8
56005,117929,5
56014,117931,5
56014,117925,5
55996,117922,8
56000,117916,5
56012,117928,5
56003,117920,8
56004,117944,5
56012,117944,5
56020,117942,5
56032,117962,8
56032,117962,3
56051,117970,0
56051,117970,2
56034,117980,5
56042,117991,5
56050,117993,5
56067,118000,5
56053,118001,5
56044,117990,4
56040,117986,5
56040,117983,5
56038,117982,6
56028,117977,3
56021,117955,5
56025,117964,5
56024,117938,5
56023,117938,5
56012,117949,4
56020,117935,5
56023,117960,5
56033,117960,5
56030,117961,5
56037,117968,4
56037,117993,5
56047,117994,5
56048,117999,5
56051,117994,4
56051,118010,5
56051,118026,5
56066,118017,5
56063,118047,5
56065,118035,4
56068,118042,6
56065,118033,4
56062,118046,5
56068,118031,5
56063,118038,6
56066,118023,3
56064,118050,5
56068,118034,5
56064,118041,5
56077,118052,4
56074,118065,5
56075,118068,5
56080,118061,5
56075,118075,5
56091,118073,4
56097,118077,5
56100,118085,5
56095,118090,5
56090,118078,5
56086,118082,4
56091,118065,5
56075,118056,5
56078,118059,5
56082,118069,4
56074,118075,4
56082,118082,6
56091,118086,4
56096,118103,5
56100,118112,4
56101,118110,5
56103,118123,5
56107,118130,5
56119,118138,5
56120,118149,4
56126,118148,5
56115,118148,5
56125,118146,5
56118,118147,5
56129,118146,4
56123,118155,5
56132,118163,5
56130,118157,5
56133,118163,5
56131,118157,4
56123,118162,5
56130,118145,5
56128,118150,5
56126,118169,5
56132,118168,4
56131,118161,5
56131,118159,6
56126,118155,4
56143,118158,4
56129,118163,4
56129,118160,5
56141,118175,5
56131,118170,5
56133,118158,4
56131,118169,5
56126,118163,5
56133,118167,5
56129,118164,5
56129,118166,4
56142,118177,5
56144,118183,5
56148,118193,5
56144,118195,5
56137,118185,4
56143,118179,5
56140,118175,5
56131,118179,5
56139,118159,5
56128,118151,4
56119,118126,5
56115,118114,5
56101,118098,6
56093,118103,4
56107,118105,4
56107,118109,5
56109,118120,5
56111,118122,5
56119,118126,5
56122,118134,4
56118,118128,5
56110,118131,5
56119,118126,5
56109,118133,4
56111,118120,5
56115,118121,5
56110,118119,5
56112,118124,5
56111,118121,4
56115,118115,5
56110,118109,5
56096,118103,5
56078,118081,5
56097,118077,5
56088,118069,4
56084,118055,5
56057,118055,5
56078,118043,6
56077,118040,3
56059,118019,5
56051,118027,5
56063,118009,5
56055,118014,5
56054,117999,4
56064,117991,5
56045,117984,5
56038,117975,5
56033,117957,5
56050,117945,4
56024,117949,5
56027,117957,5
56038,117964,5
56044,117966,4
56037,117977,4
56051,117981,5
56048,117998,5
56061,117997,5
56049,118014,4
56069,118022,6
56065,118038,4
56069,118034,5
56075,118051,5
56084,118052,4
56084,118057,5
56088,118041,5
56085,118068,5
56079,118063,5
56086,118073,4
56091,118061,5
56091,118078,5
56098,118105,5
56103,118100,5
56109,118106,4
56116,118125,5
56114,118135,5
56118,118130,5
56122,118147,5
56116,118132,4
56120,118129,5
56112,118124,5
56112,118148,5
56112,118118,4
56104,118114,4
56103,118108,6
56109,118113,4
56106,118101,5
56093,118096,4
56098,118087,5
56098,118089,5
56095,118082,5
56087,118080,5
56087,118070,4
56087,118064,5
56084,118065,5
56087,118054,5
56082,118048,5
56084,118061,4
56086,118051,5
56074,118048,5
56064,118040,5
56066,118026,5
56065,118021,4
56063,118011,5
56062,118009,5
56054,118007,5
56047,117991,5
56035,117973,4
56038,117978,5
56033,117967,6
56028,117949,4
56016,117924,5
56009,117910,4
55991,117879,5
55975,117855,5
55975,117839,5
55972,117830,4
55970,117835,5
55980,117834,5
55979,117844,5
55984,117852,5
55988,117855,4
55986,117857,5
55987,117864,5
55984,117860,5
55985,117839,5
55971,117854,4
55983,117853,5
55977,117851,5
55980,117856,5
55980,117854,5
55966,117841,4
55965,117837,5
55962,117832,5
55967,117812,5
55957,117808,5
55950,117797,4
55953,117787,5
55945,117788,5
55937,117774,5
55934,117778,5
55936,117768,4
55940,117770,5
55940,117773,5
55933,117777,5
55934,117770,4
55944,117774,4
55941,117778,5
55935,117760,5
55927,117764,5
55923,117756,4
55921,117753,5
55924,117745,5
55919,117740,5
55920,117743,5
55927,117763,5
55929,117760,4
55927,117757,5
55928,117753,5
55937,117761,5
55934,117759,4
55932,117761,5
55927,117770,5
55933,117773,5
55934,117772,5
55936,117774,4
55935,117776,5
55940,117782,5
55942,117777,5
55940,117780,5
55937,117785,4
55946,117788,5
55943,117783,5
55945,117783,5
55924,117784,4
55936,117783,4
55942,117775,5
55935,117779,5
55930,117777,5
55941,117778,4
55942,117784,7
55941,117779,3
55950,117781,5
55938,117786,5
55938,117779,4
55937,117779,5
55960,117777,5
55938,117778,5
55931,117773,5
55937,117774,4
55955,117772,5
55933,117768,5
55940,117765,5
55945,117781,5
55944,117774,4
55944,117774,5
55938,117776,5
55939,117772,5
55934,117752,5
55934,117755,4
55928,117754,5
55926,117754,5
55932,117734,5
55925,117746,5
55927,117753,4
55923,117743,6
55925,117726,4
55924,117748,5
55920,117740,4
55928,117749,5
55914,117732,5
55921,117745,5
55923,117736,5
55920,117739,4
55921,117754,5
55919,117744,5
55922,117738,5
55924,117726,5
55919,117755,4
55923,117730,5
55919,117740,5
55919,117734,5
55914,117744,5
55916,117741,4
55923,117734,5
55911,117739,5
55914,117750,5
55911,117738,5
55921,117735,4
55916,117738,5
55922,117726,5
55915,117731,5
55912,117728,5
55905,117741,4
55922,117733,5
55926,117742,5
55920,117739,5
55915,117738,4
55914,117732,4
55914,117732,5
55916,117726,5
55916,117716,5
55918,117715,4
55910,117733,5
55915,117723,5
55911,117720,5
55920,117723,5
55913,117726,5
55909,117723,4
55913,117715,5
55909,117717,5
55905,117710,6
55920,117706,3
55904,117711,5
55898,117711,5
55905,117703,5
55898,117699,5
55895,117690,4
55896,117685,5
55896,117689,5
55894,117686,5
55891,117685,5
55897,117690,4
55897,117692,5
55896,117690,5
55903,117702,5
55908,117703,4
55907,117719,4
55912,117730,5
55921,117733,5
55916,117740,5
55925,117738,4
55916,117723,6
55917,117729,4
55914,117707,5
55892,117688,5
55877,117667,6
55870,117648,3
55870,117631,5
55862,117625,5
55860,117617,5
55865,117618,4
55856,117607,5
55856,117613,5
55859,117625,5
55855,117617,5
55864,117638,4
55865,117632,5
55861,117632,5
55859,117628,5
55859,117625,5
55865,117633,4
55871,117626,5
55864,117623,5
55857,117636,5
55868,117621,4
55861,117615,4
55858,117608,6
55863,117614,4
55858,117611,5
55853,117601,4
55845,117601,7
55850,117597,3
55840,117582,5
55828,117567,5
55840,117576,4
55840,117570,5
55822,117555,5
55827,117551,5
55819,117550,5
55827,117557,4
55810,117535,5
55822,117543,5
55837,117542,5
55816,117547,5
55805,117548,4
55820,117548,5
55813,117541,5
55810,117529,5
55814,117507,5
55806,117498,4
55795,117499,5
55804,117495,6
55819,117502,4
55798,117503,5
55788,117496,4
55800,117491,5
55815,117485,5
55792,117483,5
55794,117486,4
55793,117485,5
55796,117474,5
55796,117474,5
55787,117478,5
55786,117469,4
55784,117467,5
55778,117476,5
55783,117458,5
55776,117452,5
55767,117427,4
55768,117440,5
55763,117433,5
55768,117436,5
55761,117415,5
55760,117421,4
55763,117421,5
55762,117420,5
55764,117424,6
55760,117429,4
55768,117437,4
55755,117443,5
55761,117454,5
55766,117449,5
55763,117447,5
55762,117437,4
55776,117459,5
55770,117435,5
55767,117438,5
55765,117443,4
55754,117448,4
55762,117442,5
55765,117445,5
55766,117438,5
55767,117448,4
55769,117442,5
55759,117437,5
55769,117435,5
55765,117433,5
55769,117432,5
55757,117423,4
55752,117424,5
55761,117426,5
55752,117419,6
55759,117419,6
55760,117418,2
55750,117416,5
55758,117418,5
55752,117418,5
55752,117423,4
55752,117428,5
55765,117435,5
55765,117427,5
55758,117444,5
55765,117446,4
55764,117445,5
55772,117449,5
55770,117451,5
55760,117444,4
55765,117437,4
55771,117447,5
55758,117443,5
55768,117436,5
55768,117441,4
55768,117454,6
55775,117453,4
55785,117470,5
55787,117472,5
55785,117491,4
55783,117492,5
55792,117498,5
55794,117501,5
55789,117503,5
55800,117498,4
55797,117509,5
55791,117505,5
55802,117512,5
55805,117525,5
55807,117534,4
55811,117533,5
55826,117535,5
55800,117529,5
55800,117530,5
55806,117514,4
55794,117498,5
55787,117475,5
55780,117470,5
55780,117469,4
55780,117469,4
55777,117469,6
55776,117474,4
55777,117479,5
55787,117498,4
55796,117517,5
55796,117513,5
55798,117526,5
55801,117532,5
55804,117532,4
55806,117534,5
55809,117532,5
55816,117528,5
55811,117539,5
55815,117533,4
55806,117530,5
55807,117531,5
55815,117530,5
55810,117533,5
55804,117530,4
55800,117526,5
55811,117526,5
55808,117533,5
55799,117536,5
55806,117520,4
55807,117539,5
55810,117534,6
55801,117535,4
55805,117519,5
55802,117527,4
55803,117530,5
55789,117532,5
55803,117531,5
55803,117532,4
55812,117542,5
55795,117547,5
55819,117549,5
55809,117540,5
55815,117529,4
55803,117527,5
55798,117527,5
55803,117541,5
55812,117535,5
55820,117542,4
55796,117513,5
55792,117525,5
55793,117518,5
55818,117506,5
55788,117515,4
55803,117521,5
55795,117524,5
55809,117534,6
55814,117544,4
55813,117549,4
55814,117551,5
55809,117549,5
55816,117555,5
55809,117554,5
55814,117562,4
55818,117548,5
55824,117559,5
55821,117570,5
55820,117559,4
55816,117540,4
55819,117563,5
55813,117552,5
55816,117557,5
55824,117546,4
55816,117552,5
55818,117556,5
55817,117557,5
55811,117562,5
55823,117569,5
55820,117564,4
55826,117581,5
55833,117602,5
55833,117593,5
55836,117614,4
55843,117613,5
55842,117628,5
55847,117636,5
55859,117632,5
55860,117643,4
55857,117647,5
55866,117657,5
55868,117660,5
55869,117669,5
55875,117664,4
55867,117661,5
55876,117675,5
55879,117681,5
55891,117699,5
55887,117708,4
55897,117721,5
55895,117714,5
55894,117719,5
55892,117714,4
55891,117707,6
55889,117696,4
55886,117683,5
55868,117664,5
55861,117660,4
55864,117652,5
55859,117635,5
55850,117635,5
55854,117636,5
55862,117645,4
55855,117646,5
55862,117651,5
55877,117675,5
55880,117687,5
55873,117682,4
55876,117687,5
55878,117683,5
55883,117689,5
55874,117678,5
55874,117687,4
55878,117677,5
55876,117674,5
55886,117690,5
55881,117681,5
55874,117675,4
55867,117673,6
55876,117667,4
55869,117668,5
55871,117648,4
55852,117636,5
55846,117625,5
55845,117605,5
55841,117608,5
55842,117607,4
55842,117597,5
55837,117598,5
55818,117567,5
55816,117553,5
55812,117538,4
55800,117521,5
55795,117502,5
55788,117495,5
55784,117489,5
55783,117484,4
55785,117505,5
55787,117513,5
55802,117522,5
55801,117525,5
55812,117531,4
55797,117541,5
55810,117538,6
55808,117549,4
55806,117540,5
55800,117525,4
55796,117518,5
55791,117503,5
55776,117476,5
55784,117461,4
55774,117473,4
55766,117463,5
55771,117452,5
55764,117462,5
55758,117445,4
55758,117436,5
55760,117435,5
55757,117437,5
55757,117430,5
55756,117430,4
55760,117425,5
55753,117434,5
55752,117423,5
55740,117428,5
55758,117426,4
55749,117426,5
55753,117428,5
55736,117426,5
55746,117427,5
55747,117419,4
55754,117419,5
55736,117407,5
55746,117409,5
55750,117404,5
55749,117408,4
55756,117399,5
55743,117401,5
55747,117397,5
55739,117386,4
55757,117385,4
55737,117376,5
55732,117382,5
55728,117381,5
55747,117383,4
55723,117375,5
55734,117396,5
55729,117388,5
55743,117385,5
55724,117387,5
55736,117395,4
55732,117393,5
55732,117390,5
55740,117396,5
55748,117403,4
55737,117396,5
55747,117399,5
55750,117424,5
55761,117428,5
55754,117433,4
55759,117412,5
55755,117422,5
55758,117425,5
55746,117417,5
55740,117408,4
55750,117404,5
55738,117386,5
55733,117387,5
55729,117394,5
55725,117379,4
55720,117370,5
55723,117371,5
55731,117400,5
55738,117391,4
55738,117385,5
55745,117403,3
55744,117422,5
55745,117406,5
55745,117407,4
55739,117405,5
55751,117410,5
55750,117420,5
55750,117421,5
55747,117411,4
55751,117423,5
55748,117413,5
55749,117414,5
55751,117418,5
55749,117414,4
55750,117414,5
55747,117408,5
55736,117413,5
55744,117409,5
55750,117403,4
55749,117407,5
55754,117423,6
55744,117410,4
55750,117427,5
55757,117420,4
55760,117460,7
55759,117431,3
55765,117449,5
55762,117449,4
55771,117456,4
55779,117461,5
55771,117448,5
55774,117455,5
55765,117461,4
55767,117469,5
55766,117476,5
55784,117472,5
55780,117473,5
55781,117482,4
55781,117471,5
55780,117483,5
55779,117479,5
55786,117488,5
55795,117501,4
55787,117498,5
55794,117510,5
55793,117513,6
55790,117512,4
55803,117531,4
55807,117545,5
55807,117549,5
55805,117550,5
55816,117553,5
55822,117552,4
55828,117567,5
55823,117556,5
55823,117567,5
55831,117564,5
55825,117555,4
55817,117561,5
55819,117564,5
55832,117564,5
55819,117560,4
55828,117567,5
55825,117561,5
55831,117571,5
55831,117585,5
55830,117574,5
55840,117581,4
55828,117578,5
55834,117598,5
55846,117606,6
55847,117604,3
55847,117619,5
55842,117614,5
55852,117623,5
55860,117625,5
55861,117616,4
55853,117621,5
55862,117632,5
55858,117637,5
55859,117638,5
55856,117633,4
55867,117637,5
55868,117652,5
55864,117654,5
55875,117676,5
55875,117688,4
55886,117689,5
55884,117682,5
55886,117680,5
55865,117673,4
55885,117678,5
55870,117662,4
55876,117658,5
55848,117655,5
55873,117658,6
55864,117647,3
55863,117643,5
55865,117636,5
55863,117629,5
55863,117635,4
55868,117654,5
55881,117660,5
55878,117675,5
55883,117679,5
55889,117680,4
55897,117684,5
55898,117684,5
55884,117687,5
55881,117694,5
55896,117699,4
55883,117702,5
55895,117698,5
55898,117714,5
55897,117702,5
55901,117717,4
55903,117716,6
55906,117715,4
55897,117705,5
55905,117710,4
55898,117715,4
55898,117709,5
55900,117692,5
55909,117720,5
55905,117726,4
55909,117734,5
55915,117729,5
55922,117745,5
55918,117744,5
55919,117753,4
55934,117777,5
55925,117759,5
55924,117757,5
55928,117763,5
55926,117782,4
55927,117769,5
55933,117769,5
55937,117788,5
55936,117816,5
55948,117814,4
55954,117819,5
55951,117826,6
55950,117833,4
55968,117843,5
55960,117844,4
55972,117854,5
55965,117854,5
55977,117858,5
55986,117872,4
55979,117871,4
55984,117874,5
55985,117878,5
55988,117885,5
55991,117889,4
55984,117893,10
56004,117901,5
56000,117884,5
55989,117899,4
55995,117911,5
56002,117913,5
56001,117916,5
56001,117921,5
56006,117916,4
56009,117935,5
56007,117926,5
56007,117929,6
56007,117925,4
56007,117927,4
56009,117915,5
