RED,IR,EKG,TIME
35154,79425,5
35188,79527,7
35188,79527,8
35215,79557,9
35227,79594,5
35240,79619,8
35244,79627,7
35254,79660,5
35258,79665,8
35258,79665,7
35257,79706,10
35270,79688,7
35273,79687,5
35295,79730,8
35295,79730,7
35320,79747,5
35309,79770,7
35327,79812,7
35336,79841,5
35365,79849,5
35351,79857,8
35351,79850,7
35351,79890,8
35351,79890,7
35358,79865,7
35364,79892,8
35373,79907,7
35373,79948,5
35399,80042,8
35399,80042,7
35447,80084,9
35457,80127,10
35482,80168,5
35602,80413,8
35602,80413,7
35617,80474,7
35642,80522,10
35656,80549,5
35663,80581,5
35718,80667,10
35718,80667,5
35720,80676,5
35725,80683,10
35738,80696,5
35728,80693,5
35723,80700,10
35719,80696,5
35736,80668,5
35736,80668,10
35719,80696,5
35724,80696,5
35734,80671,13
35734,80658,5
35721,80677,10
35717,80675,5
35716,80663,5
35710,80646,10
35693,80601,5
35676,80556,5
35674,80507,10
35646,80493,5
35603,80432,5
35580,80367,10
35580,80367,5
35579,80335,7
35583,80396,8
35607,80425,5
35617,80450,7
35630,80488,8
35655,80543,5
35721,80671,7
35721,80671,8
35720,80691,5
35718,80681,7
35713,80663,8
35707,80653,5
35716,80674,7
35593,80388,8
35593,80388,5
35589,80419,7
35605,80437,8
35614,80433,5
35621,80474,7
35639,80509,8
35735,80723,7
35735,80723,5
35802,80780,8
35798,80835,7
35805,80875,5
35823,80914,8
35844,80955,7
35858,80990,5
35861,80986,8
35861,80986,7
35827,80992,11
35851,80976,7
35860,80980,5
35862,80980,5
35856,80986,0
35867,80978,5
35867,80965,5
35638,80412,5
35882,81021,4
35875,81005,5
35861,80996,5
35857,80980,5
35862,80975,5
35858,80979,4
35855,80970,5
35860,80972,5
35853,80972,5
35859,80958,4
35851,80956,5
35845,80952,5
35842,80947,6
35851,80956,4
35850,80965,4
35858,80977,5
35861,80998,5
35878,81023,5
35887,81054,5
35908,81089,4
35931,81141,5
35953,81201,5
35977,81274,5
36013,81340,5
36050,81410,4
36075,81461,5
36096,81514,5
36114,81561,5
36134,81614,5
36150,81642,4
36160,81656,5
36173,81677,5
36182,81698,5
36182,81704,5
36180,81710,4
36188,81718,5
36188,81711,5
36184,81704,6
36195,81711,3
36184,81708,5
36162,81696,5
36179,81700,5
36179,81690,5
36176,81674,4
36134,81658,5
36154,81627,5
36135,81574,5
36119,81537,5
36089,81476,4
36078,81436,5
36052,81398,5
36041,81361,5
36054,81348,5
36026,81341,4
36022,81347,5
36034,81369,5
36076,81387,5
36053,81416,4
36076,81461,5
36089,81510,4
36140,81565,5
36143,81610,5
36161,81639,6
36168,81664,3
36181,81693,5
36186,81700,5
36190,81697,5
36180,81687,4
36178,81654,5
36167,81646,5
36153,81599,5
36105,81489,5
36039,81310,4
35998,81279,5
36001,81279,5
36007,81289,5
36002,81268,5
36017,81319,5
36029,81362,4
36048,81405,5
36073,81463,5
36097,81508,4
36125,81578,4
36154,81640,6
36191,81753,4
36231,81807,5
36254,81890,4
36293,81971,5
36340,82083,5
36364,82099,5
36383,82148,5
36403,82172,4
36415,82217,5
36416,82212,5
36419,82225,5
36422,82227,5
36422,82231,4
36426,82225,5
36424,82219,5
36430,82223,5
36422,82233,5
36420,82242,4
36427,82239,5
36443,82274,5
36451,82305,5
36463,82315,4
36454,82289,4
36450,82286,5
36449,82280,6
36440,82275,4
36442,82261,4
36437,82247,5
36425,82249,5
36425,82242,5
36420,82226,5
36429,82212,4
36412,82192,5
36395,82181,5
36396,82161,5
36388,82169,5
36391,82184,4
36407,82199,5
36417,82210,5
36426,82248,5
36447,82294,5
36465,82324,4
36488,82394,5
36523,82466,5
36555,82548,5
36589,82622,5
36622,82700,4
36657,82773,5
36693,82831,5
36717,82889,6
36734,82939,3
36758,82989,5
36773,83029,5
36788,83038,5
36802,83061,5
36800,83081,4
36814,83078,5
36817,83085,5
36806,83057,5
36783,83021,5
36760,82981,4
36741,82915,5
36709,82837,5
36671,82763,5
36642,82693,5
36609,82641,4
36599,82606,5
36598,82592,5
36589,82598,5
36607,82609,4
36608,82643,5
36628,82687,4
36648,82744,5
36672,82797,5
36702,82865,4
36734,82914,5
36749,82958,5
36770,83028,5
36793,83062,5
36813,83093,4
36816,83092,5
36810,83068,5
36780,83010,5
36726,82862,5
36651,82714,4
36621,82655,5
36605,82624,5
36596,82572,5
36568,82551,5
36572,82556,4
36573,82572,5
36579,82582,5
36587,82589,5
36605,82616,4
36615,82659,4
36627,82699,6
36646,82745,4
36664,82812,5
36706,82859,4
36731,82933,5
36765,82983,5
36761,83038,5
36809,83096,5
36835,83148,4
36851,83173,5
36839,83214,5
36888,83250,5
36890,83270,5
36907,83288,4
36917,83301,5
36915,83317,5
36909,83304,5
36905,83314,5
36948,83303,4
36914,83310,5
36917,83316,5
36936,83350,5
36967,83344,4
36936,83328,4
36920,83325,5
36912,83312,6
36916,83301,4
36909,83289,4
36906,83286,5
36893,83277,5
36893,83254,5
36886,83250,5
36883,83232,4
36866,83194,5
36844,83141,5
36834,83124,5
36818,83113,5
36823,83114,4
36836,83094,5
36830,83138,5
36838,83162,5
36861,83192,5
36874,83196,4
36882,83265,5
36912,83302,5
36929,83354,5
36955,83417,5
36984,83464,4
37001,83511,5
37029,83557,5
37038,83637,5
37053,83640,4
37083,83667,5
37093,83688,5
37096,83740,9
37104,83715,3
37098,83713,2
37103,83706,5
37095,83682,5
37085,83671,5
37061,83625,5
37036,83546,4
36990,83445,5
36939,83332,5
36865,83197,5
36820,83085,5
36782,82993,4
36733,82904,5
36708,82866,5
36694,82833,5
36690,82841,5
36695,82854,5
36715,82880,4
36716,82905,5
36737,82952,5
36753,82989,4
36782,83023,5
36805,83083,5
36824,83141,5
36847,83188,5
36867,83223,4
36875,83231,5
36858,83187,5
36806,83053,5
36729,82875,5
36683,82801,4
36670,82757,5
36627,82698,5
36611,82641,5
36598,82618,5
36580,82597,4
36572,82582,5
36557,82563,5
36552,82544,5
36561,82541,5
36558,82541,4
36562,82545,6
36556,82557,4
36571,82568,5
36571,82584,4
36585,82594,4
36586,82610,5
36590,82619,5
36598,82633,5
36599,82631,4
36601,82633,5
36589,82627,5
36600,82623,5
36597,82620,5
36584,82607,4
36582,82603,5
36571,82581,5
36566,82563,5
36557,82544,5
36545,82518,4
36535,82504,5
36537,82499,5
36536,82493,5
36525,82484,5
36504,82432,4
36483,82391,5
36478,82370,5
36467,82336,5
36456,82309,4
36431,82271,4
36410,82244,5
36404,82216,5
36388,82173,5
36379,82137,4
36351,82089,5
36335,82040,5
36311,82004,5
36291,81961,5
36278,81925,4
36273,81918,5
36270,81897,5
36265,81903,5
36270,81905,5
36264,81916,4
36264,81926,5
36277,81940,5
36280,81956,5
36282,81967,5
36298,81980,4
36311,81987,5
36306,82017,5
36315,82032,5
36306,82047,4
36327,82053,4
36331,82058,5
36349,82066,5
36318,82072,5
36340,82074,4
36340,82075,5
36341,82071,5
36325,82074,5
36340,82073,5
36340,82070,4
36346,82074,5
36354,82057,5
36334,82059,5
36326,82051,5
36323,82030,4
36348,82008,5
36305,81992,5
36299,81977,5
36294,81957,5
36309,81952,5
36284,81929,4
36273,81923,5
36262,81896,5
36269,81883,4
36248,81856,4
36228,81820,5
36214,81753,5
36166,81643,5
36098,81503,4
36043,81374,5
35984,81239,5
35931,81113,5
35899,81063,5
35872,81012,4
35864,80970,5
35860,80953,5
35863,80988,5
35871,81038,5
35887,81066,4
35908,81124,5
35945,81183,6
35968,81253,4
35996,81310,5
36034,81414,4
36063,81474,7
36104,81543,3
36121,81579,5
36139,81653,5
36159,81671,4
36175,81692,5
36162,81674,5
36137,81603,5
36058,81383,4
35978,81228,5
35943,81169,5
35920,81134,5
35905,81081,5
35891,81046,4
35879,81028,5
35881,81027,5
35866,81014,5
35863,81001,5
35865,81001,4
35873,81009,5
35876,81028,5
35880,81044,6
35894,81074,4
35901,81086,4
35919,81113,5
35918,81126,5
35916,81143,5
35915,81153,5
35933,81165,4
35936,81157,5
35932,81167,5
35943,81171,5
35931,81165,4
35944,81176,5
35934,81168,5
35933,81164,5
35930,81166,5
35930,81156,4
35931,81156,5
35936,81151,5
35930,81137,5
35930,81146,5
35926,81154,5
35937,81155,4
35936,81153,5
35922,81129,5
35911,81115,6
35910,81102,3
35904,81086,5
35905,81100,5
35914,81087,5
35902,81083,5
35903,81079,4
35894,81079,5
35891,81073,5
35891,81061,5
35890,81059,4
35886,81059,4
35897,81057,5
35892,81068,5
35895,81074,5
35896,81075,4
35905,81090,5
35913,81102,5
35907,81116,5
35915,81127,5
35930,81149,4
35938,81170,6
35950,81190,4
35958,81218,5
35961,81243,5
35982,81271,6
35982,81292,3
36004,81310,5
35998,81317,5
36013,81325,5
36008,81321,4
36015,81333,5
36008,81325,5
36015,81327,5
36005,81332,4
36012,81327,4
36004,81327,5
36011,81323,5
36009,81322,5
36001,81313,4
36007,81319,5
36006,81301,5
35992,81287,5
35990,81287,5
35981,81278,4
35990,81269,5
35974,81263,6
35973,81261,4
35973,81250,5
35962,81241,4
35954,81239,5
35967,81237,5
35962,81234,5
35967,81217,5
35934,81212,4
35959,81208,5
35951,81208,5
35953,81206,5
35929,81206,4
35950,81198,4
35955,81190,5
35947,81188,5
35941,81187,5
35941,81176,4
35944,81182,5
35943,81171,5
35955,81160,5
35933,81159,5
35934,81158,4
35935,81147,5
35963,81150,5
35928,81129,6
35925,81127,4
35921,81126,4
35935,81118,5
35909,81097,5
35900,81073,5
35885,81024,5
35869,80953,4
35809,80859,5
35766,80734,5
35703,80622,5
35653,80492,4
35607,80426,4
35578,80357,5
35568,80327,5
35564,80285,5
35565,80323,5
35565,80339,4
35575,80366,5
35601,80388,5
35613,80469,5
35654,80530,5
35683,80613,4
35709,80691,5
35756,80774,5
35796,80850,6
35819,80906,3
35835,80972,5
35846,80961,5
35845,80945,5
35829,80925,5
35807,80867,4
35735,80660,5
35653,80490,5
35614,80447,5
35610,80440,4
35593,80392,4
35586,80374,5
35582,80372,5
35577,80368,5
35576,80372,4
35583,80372,5
35577,80378,5
35583,80385,5
35587,80399,5
35596,80427,4
35610,80451,6
35622,80472,4
35630,80510,5
35645,80515,5
35648,80536,4
35660,80549,5
35653,80553,5
35661,80558,5
35663,80567,5
35662,80559,4
35663,80558,5
35670,80561,5
35662,80557,5
35655,80555,4
35650,80540,4
35651,80529,5
35640,80519,5
35643,80511,5
35636,80501,4
35626,80504,5
35641,80518,5
35644,80514,5
35648,80523,5
35660,80525,4
35643,80501,5
35640,80490,6
35634,80494,4
35636,80490,5
35631,80488,4
35636,80479,5
35626,80482,5
35627,80475,5
35622,80466,5
35629,80478,4
35625,80469,5
35622,80484,5
35624,80474,5
35625,80480,4
35629,80487,4
35631,80496,5
35635,80498,5
35645,80516,5
35650,80519,4
35656,80545,5
35667,80561,5
35670,80580,5
35676,80604,5
35688,80624,4
35700,80652,5
35710,80658,5
35715,80684,6
35721,80700,4
35730,80714,4
35731,80727,5
35755,80738,5
35741,80744,5
35746,80733,5
35741,80750,4
35747,80751,5
35743,80762,5
35757,80754,5
35749,80758,4
35751,80756,4
35756,80759,5
35756,80748,5
35747,80741,5
35740,80748,4
35749,80734,5
35742,80725,5
35729,80715,5
35734,80718,5
35729,80708,5
35722,80716,4
35725,80707,5
35724,80685,5
35716,80684,5
35722,80674,4
35715,80675,5
35695,80664,5
35714,80653,5
35702,80647,5
35698,80635,4
35668,80628,5
35694,80626,5
35682,80621,5
35686,80597,5
35648,80575,4
35660,80530,5
35627,80467,5
35604,80405,5
35591,80346,4
35550,80281,5
35528,80241,5
35498,80198,5
35514,80172,5
35484,80156,4
35484,80150,6
35481,80153,4
35518,80165,5
35487,80186,5
35503,80214,4
35535,80248,5
35556,80290,5
35564,80330,5
35570,80352,5
35578,80376,4
35592,80396,5
35589,80406,5
35589,80390,5
35593,80390,5
35582,80352,4
35583,80356,5
35560,80321,5
35525,80212,5
35453,80029,4
35404,79951,4
35388,79939,5
35387,79940,7
35372,79899,3
35375,79904,5
35378,79911,4
35374,79915,6
35372,79935,4
35379,79934,5
35381,79943,4
35387,79962,5
35399,80011,5
35411,80011,5
35430,80040,5
35432,80066,4
35456,80121,5
35449,80115,5
35464,80123,5
35457,80124,5
35463,80130,4
35457,80112,5
35457,80117,5
35460,80109,5
35454,80100,4
35446,80089,4
35456,80077,5
35439,80067,5
35437,80065,5
35435,80052,4
35436,80042,5
35425,80031,5
35431,80038,5
35430,80043,5
35438,80070,4
35440,80052,5
35426,80043,5
35429,80016,5
35426,80011,5
35417,80012,4
35420,80006,5
35402,79997,5
35404,79993,5
35413,79983,5
35409,79962,4
35396,79964,5
35393,79964,5
35397,79957,5
35389,79972,4
35406,79973,4
35402,79981,5
35411,79997,5
35416,80007,5
35410,80017,5
35424,80033,4
35426,80048,5
35433,80064,5
35441,80101,5
35465,80118,4
35469,80131,5
35476,80174,5
35492,80187,5
35502,80210,5
35514,80220,4
35517,80240,5
35519,80243,5
35521,80249,5
35525,80264,5
35532,80260,4
35528,80272,5
35537,80271,5
35535,80276,5
35530,80280,4
35533,80283,4
35533,80287,5
35535,80294,4
35552,80300,5
35551,80304,4
35554,80318,6
35549,80312,3
35564,80319,5
35557,80331,5
35558,80337,4
35565,80341,5
35578,80352,5
35570,80352,5
35578,80355,5
35570,80373,4
35578,80388,5
35589,80391,5
35593,80386,5
35588,80390,5
35583,80402,4
35601,80408,5
35594,80399,5
35588,80388,5
35582,80379,4
35571,80361,4
35565,80321,5
35543,80292,6
35528,80248,4
35512,80219,4
35509,80205,5
35500,80195,5
35508,80190,5
35503,80197,5
35501,80207,4
35514,80225,5
35522,80251,5
35528,80293,5
35570,80348,5
35593,80406,4
35617,80451,5
35616,80488,5
35653,80535,5
35666,80564,5
35683,80586,4
35668,80595,5
35673,80578,5
35666,80562,5
35667,80555,5
35681,80530,4
35638,80457,5
35578,80318,5
35526,80227,6
35552,80225,3
35518,80226,5
35514,80237,5
35517,80242,5
35548,80252,5
35538,80279,4
35547,80289,5
35557,80327,5
35574,80359,5
35590,80394,5
35609,80450,4
35618,80493,5
35658,80533,5
35685,80593,5
35700,80646,5
35721,80688,4
35727,80679,5
35742,80723,5
35741,80739,5
35744,80745,5
35741,80704,5
35748,80729,4
35735,80720,5
35736,80713,5
35736,80711,6
35725,80694,3
35718,80701,5
35724,80691,5
35729,80715,5
35722,80696,4
35735,80710,5
35745,80713,5
35746,80761,5
35737,80710,5
35731,80693,4
35734,80698,5
35724,80709,5
35721,80686,5
35723,80693,5
35726,80692,4
35725,80694,5
35731,80681,5
35714,80673,5
35724,80682,5
35716,80680,4
35724,80693,6
35724,80701,4
35738,80712,5
35742,80738,4
35757,80763,5
35776,80805,5
35798,80840,5
35805,80897,5
35843,80962,4
35872,81029,5
35911,81113,5
35941,81190,5
35979,81255,5
36005,81322,4
36033,81380,5
36060,81439,5
36084,81486,5
36094,81517,5
36116,81558,4
36119,81584,5
36140,81598,5
36141,81618,5
36144,81622,5
36149,81633,4
36149,81630,5
36143,81623,6
36151,81611,4
36145,81593,4
36125,81575,4
36106,81537,5
36097,81487,5
36079,81442,5
36053,81392,4
36029,81348,5
36010,81321,5
36013,81309,5
36013,81306,5
36016,81316,4
36018,81344,5
36034,81383,5
36056,81416,5
36073,81473,5
36104,81524,4
36135,81593,5
36160,81656,5
36177,81705,5
36201,81728,5
36204,81748,4
36203,81745,5
36199,81740,5
36198,81725,6
36189,81706,3
36177,81672,4
36151,81609,5
36095,81470,5
36031,81315,5
35996,81264,4
35988,81261,5
35992,81253,5
35986,81256,5
35991,81275,5
35985,81289,4
36014,81322,5
36021,81366,5
36042,81406,5
36068,81460,5
36082,81501,4
36112,81564,5
36142,81623,5
36185,81696,5
36207,81764,5
36230,81831,5
36263,81884,4
36290,81941,5
36299,81975,5
36316,82007,4
36319,82019,4
36336,82051,5
36341,82057,5
36344,82053,5
36323,82067,4
36352,82063,5
36354,82077,5
36352,82074,5
36332,82079,5
36363,82104,4
36382,82146,5
36392,82154,5
36358,82140,5
36372,82126,5
36370,82119,4
36369,82104,5
36363,82101,5
36357,82092,5
36358,82081,5
36347,82075,4
36379,82077,6
36347,82052,4
36353,82036,5
36330,82036,4
36367,82027,4
36321,82034,5
36340,82042,5
36337,82061,5
36368,82089,4
36371,82117,5
36382,82158,5
36407,82212,5
36435,82268,5
36473,82352,4
36501,82421,5
36535,82506,5
36580,82566,5
36609,82661,5
36637,82729,4
36665,82784,5
36684,82812,5
36713,82884,5
36732,82923,5
36745,82944,4
36758,82965,5
36765,82983,6
36757,82988,4
36754,82974,5
36749,82953,4
36719,82892,5
36697,82822,5
36666,82736,5
36627,82703,4
36594,82596,5
36577,82552,5
36557,82521,5
36552,82531,5
36547,82515,4
36559,82529,5
36569,82572,5
36593,82606,5
36614,82656,5
36635,82723,4
36664,82789,5
36688,82845,5
36710,82890,5
36735,82945,5
36768,83001,4
36786,83031,5
36780,83029,5
36777,83013,5
36760,82942,5
36692,82785,4
36625,82649,5
36601,82608,5
36588,82577,5
36572,82559,4
36572,82535,5
36556,82542,5
36565,82547,5
36568,82570,5
36570,82580,4
36586,82603,5
36595,82642,5
36615,82684,5
36642,82729,5
36659,82783,4
36691,82843,5
36711,82899,5
36740,82952,5
36764,82994,5
36788,83063,5
36807,83100,4
36828,83153,5
36845,83177,5
36857,83203,5
36871,83227,4
36878,83241,5
36885,83259,5
36898,83276,5
36902,83282,4
36906,83288,4
36905,83310,5
36922,83330,5
36936,83381,5
36960,83411,4
36954,83390,5
36955,83379,5
36944,83376,5
36937,83351,5
36937,83347,4
36920,83325,5
36922,83308,5
36918,83303,5
36902,83291,5
36898,83277,4
36889,83248,6
36868,83218,4
36852,83186,5
36849,83157,5
36842,83150,4
36843,83149,5
36851,83178,5
36856,83190,5
36862,83213,4
36882,83239,4
36893,83272,5
36907,83335,5
36934,83369,5
36959,83429,4
36988,83477,5
37010,83543,5
37038,83599,5
37075,83672,5
37104,83735,4
37121,83785,5
37148,83824,5
37157,83856,5
37171,83867,5
37170,83851,4
37158,83823,5
37137,83790,6
37111,83706,4
37071,83634,5
37032,83554,4
36994,83489,5
36977,83434,5
36949,83389,5
36942,83375,4
36921,83365,4
36946,83381,5
36951,83415,5
36964,83453,5
36958,83497,4
37013,83548,5
37031,83592,5
37072,83658,5
37096,83745,5
37141,83831,5
37174,83895,4
37184,83913,5
37204,83895,5
37141,83778,5
37078,83637,4
37048,83574,5
37049,83548,5
37004,83508,5
36984,83480,5
36987,83475,4
37002,83465,5
36985,83457,5
36975,83445,5
36969,83440,4
36975,83446,4
36964,83444,5
36981,83459,5
36985,83466,5
36993,83485,4
37004,83514,5
37023,83539,5
37024,83578,5
37037,83569,5
37050,83608,5
37055,83645,4
37071,83663,5
37079,83658,5
37088,83708,5
37094,83726,5
37113,83739,3
37107,83767,5
37121,83769,5
37132,83789,5
37136,83798,4
37138,83840,5
37151,83846,5
37177,83902,5
37207,83938,4
37197,83967,4
37194,83938,5
37204,83946,5
37197,83946,5
37198,83952,4
37195,83933,5
37193,83918,5
37188,83901,5
37182,83890,5
37172,83877,4
37146,83840,5
37135,83801,6
37117,83751,4
37098,83710,5
37083,83673,4
37072,83655,7
37072,83646,3
37053,83646,5
37054,83636,5
37064,83644,4
37061,83640,5
37069,83648,5
37068,83661,5
37065,83665,5
37079,83687,4
37082,83704,5
37093,83713,5
37097,83722,5
37108,83738,4
37113,83756,5
37107,83765,5
37117,83768,5
37121,83779,5
37120,83770,4
37118,83776,5
37121,83772,5
37125,83772,6
37114,83774,4
37122,83772,4
37118,83770,5
37120,83759,5
37108,83746,5
37094,83714,5
37085,83688,4
37061,83638,5
37022,83529,5
36962,83395,5
36873,83201,5
36783,83003,4
36703,82831,5
36633,82705,5
36587,82601,5
36558,82550,4
36548,82526,4
36548,82524,5
36556,82547,5
36566,82579,5
36584,82621,5
36613,82677,4
36637,82718,5
36651,82780,5
36689,82848,6
36719,82912,3
36731,82960,5
36756,83003,5
36781,83049,5
36788,83068,5
36789,83053,4
36752,82953,5
36656,82730,5
36572,82547,5
36523,82446,5
36479,82350,4
36440,82272,5
36412,82213,5
36383,82172,5
36370,82134,4
36361,82103,4
36346,82085,5
36333,82062,5
36343,82058,5
36336,82067,4
36347,82091,6
36358,82111,4
36359,82132,5
36368,82159,5
36383,82183,6
36388,82188,3
36402,82219,5
36409,82225,5
36408,82237,5
36417,82241,4
36413,82246,5
36402,82258,5
36432,82255,5
36431,82261,5
36432,82267,4
36403,82270,5
36419,82273,5
36426,82276,5
36426,82266,4
36408,82265,4
36430,82269,5
36434,82296,5
36442,82287,5
36439,82254,4
36417,82251,5
36419,82244,6
36408,82216,4
36432,82200,5
36377,82185,4
36375,82160,5
36365,82135,5
36384,82105,5
36346,82086,5
36329,82060,4
36312,82020,5
36312,81985,5
36292,81959,5
36278,81942,5
36275,81930,4
36266,81907,5
36264,81908,5
36265,81907,5
36264,81915,4
36264,81905,4
36273,81933,5
36281,81942,5
36283,81962,5
36292,81937,4
36301,81979,5
36308,82004,5
36313,82011,6
36310,82002,4
36315,82028,4
36325,82040,5
36328,82057,5
36334,82073,5
36337,82062,5
36341,82056,4
36337,82062,5
36345,82097,5
36342,82078,5
36339,82068,5
36340,82067,4
36337,82093,5
36335,82060,5
36326,82045,5
36316,82048,5
36322,82044,4
36316,82038,5
36315,82030,5
36312,82017,5
36302,81996,5
36308,81997,4
36296,81973,5
36295,81970,5
36288,81969,6
36294,81965,3
36282,81960,5
36284,81955,5
36286,81940,5
36280,81940,5
36279,81931,4
36269,81928,5
36268,81918,5
36274,81910,5
36270,81902,5
36260,81908,4
36258,81901,5
36258,81898,5
36262,81883,5
36253,81883,5
36250,81865,4
36254,81863,5
36242,81857,5
36240,81846,5
36229,81830,4
36232,81826,5
36230,81818,4
36226,81809,5
36218,81793,5
36216,81777,4
36197,81763,5
36200,81737,5
36175,81685,5
36134,81596,5
36070,81456,4
36006,81285,5
35930,81125,5
35874,80997,5
35834,80889,5
35796,80820,4
35761,80764,5
35756,80762,5
35764,80767,5
35768,80789,5
35783,80825,4
35806,80879,5
35839,80943,5
35869,81021,5
35905,81104,4
35935,81181,4
35972,81265,6
36013,81347,4
36030,81395,5
36058,81444,4
36064,81462,5
36068,81446,5
36029,81345,5
35953,81161,5
35887,81033,4
35863,80994,5
35862,80981,5
35846,80943,5
35827,80914,5
35815,80899,4
35812,80882,5
35811,80867,5
35805,80861,5
35794,80862,5
35787,80856,4
35790,80855,5
35802,80880,5
35800,80885,5
35819,80889,4
35809,80900,4
35811,80907,5
35817,80903,6
35817,80905,4
35816,80911,4
35823,80910,5
35833,80914,5
35820,80923,5
35813,80915,5
35829,80923,4
35827,80922,5
35821,80927,5
35792,80915,5
35819,80908,5
35812,80902,4
35814,80906,5
35792,80896,5
35822,80907,5
35818,80901,5
35816,80920,4
35812,80917,5
35821,80914,5
35814,80897,5
35808,80901,5
35834,80902,4
35813,80897,5
35814,80905,5
35820,80909,5
35845,80900,4
35817,80895,5
35810,80899,5
35807,80892,5
35829,80892,5
35811,80884,4
35810,80881,5
35815,80879,5
35821,80884,5
35809,80888,5
35816,80896,4
35817,80895,5
35818,80897,5
35827,80911,5
35831,80927,5
35829,80939,4
35843,80945,5
35853,80978,5
35866,81003,5
35864,81022,5
35875,81010,5
35884,81057,4
35884,81061,5
35896,81082,5
35894,81089,4
35905,81094,4
35896,81099,5
35892,81098,5
35903,81139,5
35904,81109,4
35916,81110,5
35916,81114,5
35906,81146,5
35912,81102,5
35903,81096,4
35908,81096,5
35903,81098,5
35889,81079,5
35885,81065,5
35891,81068,4
35884,81052,5
35884,81037,5
35871,81032,5
35876,81030,5
35876,81023,4
35868,81016,7
35873,81024,3
35865,81014,5
35858,81007,4
35864,81001,4
35860,81002,5
35860,81005,5
35860,80997,5
35858,81000,4
35857,80996,5
35861,80993,5
35870,81004,5
35853,80999,5
35854,80994,4
35866,80997,5
35862,80988,5
35866,80995,5
35859,80993,5
35865,80985,4
35863,80981,5
35855,80979,5
35861,80976,5
35851,80967,5
35840,80951,4
35827,80920,5
35810,80865,5
35779,80791,5
35734,80700,4
35689,80593,4
35639,80479,5
35615,80409,5
35582,80356,5
35558,80313,4
35553,80294,5
35543,80283,5
35557,80281,5
35556,80305,5
35567,80328,4
35584,80382,5
35604,80429,5
35627,80483,5
35651,80525,5
35664,80567,4
35686,80606,5
35703,80651,5
35719,80654,5
35707,80653,5
35707,80632,4
35682,80603,5
35652,80522,5
35594,80369,5
35528,80243,5
35514,80210,4
35499,80193,5
35491,80169,5
35482,80160,5
35475,80156,4
35475,80153,5
35474,80140,5
35478,80143,5
35471,80144,5
35481,80167,4
35483,80170,5
35489,80169,5
35497,80204,5
35503,80225,5
35511,80240,4
35518,80251,6
35521,80269,4
35524,80263,5
35533,80274,5
35533,80269,6
35521,80270,3
35524,80257,5
35516,80256,5
35523,80249,5
35517,80241,4
35515,80235,5
35510,80221,5
35508,80209,5
35485,80197,4
35493,80185,4
35485,80192,5
35498,80185,5
35467,80201,5
35505,80217,4
35503,80217,5
35494,80203,5
35464,80176,5
35484,80170,5
35482,80173,4
35485,80165,5
35478,80156,6
35482,80162,4
35477,80142,5
35477,80136,4
35493,80135,8
35469,80135,3
35464,80133,4
35465,80135,5
35490,80135,4
35476,80148,5
35470,80150,5
35482,80160,5
35496,80172,4
35493,80184,4
35494,80204,5
35507,80216,5
35520,80240,5
35524,80258,4
35528,80291,5
35545,80312,5
35546,80313,5
35558,80352,5
35576,80370,4
35584,80390,5
35580,80364,5
35585,80402,6
35591,80413,4
35598,80421,4
35605,80417,5
35609,80442,5
35614,80457,5
35621,80468,5
35627,80482,4
35625,80498,5
35632,80507,5
35638,80527,5
35649,80557,4
35658,80542,4
35647,80554,5
35662,80559,5
35668,80604,5
35670,80588,4
35680,80599,5
35676,80600,5
35676,80629,5
35697,80623,5
35699,80641,5
35698,80650,4
35707,80656,5
35710,80650,5
35704,80634,6
35687,80616,3
35677,80590,5
35664,80552,5
35653,80513,5
35634,80482,5
35622,80459,4
35614,80449,5
35619,80457,5
35629,80475,5
35637,80507,5
35654,80540,4
35672,80585,5
35703,80644,5
35735,80716,5
35771,80795,4
35793,80859,5
35814,80908,5
35828,80942,5
35842,80971,5
35849,80998,4
35857,81008,6
35852,80995,4
35856,80979,5
35852,80961,5
35828,80909,6
35781,80779,3
35727,80661,5
35712,80646,5
35711,80653,5
35711,80660,4
35709,80670,5
35716,80677,5
35716,80687,5
35720,80700,5
35743,80732,4
35742,80753,5
35763,80798,5
35782,80837,5
35809,80898,4
35832,80948,4
35859,81013,5
35883,81056,5
35907,81109,5
35916,81150,4
35945,81187,5
35956,81218,6
35958,81224,4
35970,81236,5
35973,81227,4
35960,81225,5
35961,81217,5
35969,81212,5
35953,81205,5
35956,81198,4
35945,81205,5
35959,81202,5
35946,81195,5
35952,81200,5
35962,81225,4
35972,81232,5
35962,81234,5
35969,81216,5
35946,81211,4
35949,81200,4
35954,81208,5
35963,81218,5
35959,81216,5
35954,81211,4
35964,81215,5
35967,81216,5
35962,81221,6
35963,81232,4
35973,81236,4
35973,81247,5
35984,81269,5
35994,81300,5
36011,81329,5
36032,81387,4
36054,81424,5
36080,81484,5
36103,81543,5
36135,81612,5
36140,81666,4
36186,81722,5
36216,81794,5
36241,81844,5
36239,81900,4
36282,81946,4
36312,81993,5
36316,82027,5
36307,82056,5
36341,82079,5
36345,82093,4
36346,82101,5
36380,82106,5
36369,82116,6
36372,82122,3
36367,82108,5
36393,82114,5
36368,82106,5
36365,82109,5
36357,82095,4
36375,82077,5
36336,82050,5
36325,82012,5
36309,81983,5
36295,81925,4
36266,81864,5
36232,81804,5
36203,81765,5
36191,81724,4
36183,81718,4
36191,81719,5
36192,81733,5
36200,81725,5
36217,81786,5
36232,81835,5
36263,81888,4
36287,81925,5
36311,82019,5
36347,82089,4
36375,82129,5
36386,82162,5
36401,82205,5
36412,82222,5
36418,82212,4
36415,82226,5
36403,82204,5
36399,82171,5
36369,82108,5
36325,82023,4
36251,81818,5
36207,81731,5
36180,81723,5
36190,81737,5
36189,81716,4
36192,81727,5
36202,81745,5
36213,81783,5
36228,81812,4
36234,81856,5
36271,81913,6
36288,81963,4
36317,82037,5
36344,82091,4
36379,82168,5
36408,82229,5
36437,82289,5
36462,82343,5
36489,82394,4
36512,82432,5
36522,82469,5
36535,82496,5
36550,82508,5
36545,82519,4
36543,82524,5
36544,82522,5
36540,82518,5
36548,82507,5
36540,82496,4
36536,82490,5
36528,82492,5
36542,82506,5
36547,82510,4
36548,82515,5
36544,82494,5
36531,82479,6
36528,82471,4
36527,82453,4
36515,82452,5
36518,82447,5
36510,82427,5
36519,82429,5
36500,82421,4
36495,82398,5
36485,82382,5
36485,82373,5
36478,82373,5
36483,82368,4
36488,82375,5
36490,82393,5
36502,82421,5
36516,82456,5
36535,82501,4
36558,82557,5
36586,82614,5
36619,82679,5
36654,82754,5
36678,82826,4
36716,82905,5
36751,82967,5
36778,83038,5
36802,83100,4
36834,83157,5
36852,83207,5
36885,83244,5
36900,83281,5
36913,83317,4
36920,83342,5
36925,83349,5
36941,83375,5
36936,83391,5
36953,83389,4
36953,83396,5
36952,83384,5
36946,83373,5
36936,83360,5
36918,83336,4
36901,83280,5
36873,83204,5
36834,83102,5
36783,83009,4
36736,82907,5
36696,82837,4
36672,82781,5
36657,82744,5
36646,82734,4
36646,82743,5
36653,82766,5
36674,82804,5
36704,82853,5
36724,82924,4
36758,83014,5
36789,83098,5
36846,83190,5
36880,83267,5
36919,83344,4
36943,83430,5
36999,83512,5
37027,83556,5
37037,83580,5
37002,83570,4
37009,83506,5
36960,83348,5
36854,83150,5
36800,83063,4
36777,83008,4
36751,82954,6
36741,82927,4
36753,82924,5
36735,82925,4
36739,82944,5
36737,82955,5
36787,82986,5
36765,83008,5
36782,83054,4
36800,83090,5
36859,83156,5
36857,83215,5
36888,83281,5
36913,83345,4
36945,83402,5
36978,83473,5
37010,83512,5
37019,83572,5
37049,83591,4
37069,83653,5
37077,83681,5
37092,83699,5
37095,83703,5
37113,83739,4
37111,83751,5
37114,83756,5
37120,83748,5
37128,83785,5
37131,83806,4
37159,83848,5
37171,83882,5
37177,83871,5
37153,83853,4
37157,83853,5
37161,83871,5
37149,83821,5
37144,83811,5
37143,83800,4
37137,83824,5
37126,83773,5
37110,83742,5
37099,83721,5
37084,83696,5
37063,83652,4
37050,83630,5
37043,83609,5
37044,83613,6
37053,83627,3
37069,83642,5
37072,83681,5
37090,83715,5
37119,83768,4
37139,83813,5
37166,83880,5
37196,83941,5
37227,84015,5
37260,84086,4
37298,84157,5
37333,84243,5
37370,84323,5
37402,84395,5
37422,84445,4
37440,84505,5
37457,84528,5
37475,84566,5
37492,84574,5
37486,84583,4
37480,84569,6
37469,84536,4
37442,84477,5
37414,84386,5
37376,84293,6
37321,84196,3
37284,84103,5
37235,84011,5
37207,83958,4
37187,83904,4
37168,83882,5
37164,83876,5
37166,83889,5
37176,83909,4
37188,83931,5
37192,83950,5
37199,83981,5
37221,84024,5
37245,84063,4
37265,84110,5
37292,84148,5
37289,84165,5
37294,84165,5
37273,84090,4
37216,83939,5
37127,83801,6
37102,83730,4
37066,83667,5
37038,83604,4
37015,83561,5
37016,83536,5
36994,83512,5
36985,83486,4
36970,83464,4
36962,83442,5
36954,83424,5
36960,83429,5
36957,83433,4
36963,83435,5
36964,83446,5
36970,83465,5
36980,83470,5
36991,83488,4
36991,83504,5
36994,83506,5
36998,83511,5
37001,83523,5
37004,83534,4
36996,83534,5
37003,83526,5
36999,83530,6
36996,83522,4
36999,83522,4
36991,83518,5
36989,83499,5
36991,83510,5
36995,83523,4
37011,83528,4
36997,83515,5
36979,83482,5
36978,83486,5
36977,83457,4
36958,83437,5
36953,83406,5
36921,83383,5
36922,83347,5
36898,83300,4
36876,83261,6
36829,83194,4
36827,83121,5
36790,83045,5
36753,82971,5
36695,82905,4
36701,82866,5
36685,82843,5
36683,82836,6
36688,82828,3
36679,82822,5
36678,82830,5
36685,82832,5
36715,82849,5
36690,82852,4
36692,82849,5
36696,82876,5
36737,82894,5
36713,82899,4
36714,82913,5
36712,82926,5
36731,82930,5
36718,82938,5
36725,82956,4
36723,82946,5
36729,82943,5
36728,82948,5
36724,82938,5
36730,82939,4
36730,82917,6
36732,82933,4
36726,82935,5
36723,82927,5
36720,82884,4
36725,82910,5
36718,82903,5
36715,82900,5
36706,82862,5
36703,82863,5
36697,82845,4
36679,82843,5
36677,82845,5
36673,82808,4
36659,82782,4
36659,82757,5
36643,82776,5
36630,82726,5
36620,82698,4
36606,82664,5
36594,82654,5
36557,82550,5
36514,82457,5
36456,82304,4
36389,82165,5
36330,82012,6
36261,81897,4
36224,81798,5
36190,81734,4
36165,81681,5
36159,81665,5
36157,81674,5
36174,81687,5
36177,81731,4
36194,81762,5
36221,81833,5
36253,81891,5
36283,81972,4
36327,82069,4
36375,82169,5
36404,82240,5
36436,82301,5
36464,82366,4
36501,82431,5
36513,82482,5
36514,82467,5
36494,82387,5
36408,82190,4
36327,82043,5
36292,81964,5
36272,81904,6
36243,81847,4
36221,81802,4
36211,81784,5
36199,81769,5
36197,81754,5
36186,81740,5
36182,81736,4
36178,81735,5
36184,81741,5
36194,81757,5
36200,81755,4
36204,81786,4
36213,81794,5
36218,81808,5
36213,81825,5
36223,81825,4
36226,81823,5
36226,81826,5
36219,81827,5
36223,81827,5
36230,81826,5
36225,81824,4
36217,81833,5
36223,81822,5
36218,81814,5
36217,81820,4
36219,81807,5
36212,81805,5
36217,81808,5
36220,81808,5
36221,81809,4
36229,81823,5
36228,81804,5
36218,81788,5
36213,81783,5
36203,81770,4
36206,81771,5
36192,81760,5
36192,81746,5
36186,81748,4
36187,81728,5
36176,81726,5
36175,81697,5
36168,81689,5
36154,81663,4
36154,81663,6
36153,81655,4
36150,81650,5
36146,81656,5
36153,81650,4
36154,81657,5
36160,81666,5
36159,81689,5
36176,81704,5
36178,81736,4
36196,81760,5
36206,81787,5
36227,81811,5
36226,81833,5
36244,81854,4
36254,81895,5
36259,81904,5
36245,81933,5
36284,81950,4
36293,81962,4
36289,81982,5
36279,81976,5
36299,81984,5
36301,81994,4
36300,81989,5
36290,81980,6
36304,81983,4
36294,81973,5
36293,81967,4
36309,81960,5
36292,81954,5
36277,81936,5
36277,81938,5
36307,81917,4
36261,81909,5
36258,81894,5
36255,81882,5
36272,81875,5
36248,81855,4
36243,81844,5
36241,81839,5
36234,81835,5
36228,81832,5
36229,81829,4
36221,81820,5
36227,81802,5
36217,81813,6
36217,81821,3
36223,81808,5
36225,81789,5
36215,81811,5
36228,81813,5
36222,81801,4
36218,81778,5
36220,81805,5
36218,81793,5
36216,81793,5
36218,81791,4
36210,81780,5
36212,81782,5
36207,81770,5
36203,81789,5
36198,81753,4
36188,81740,5
36187,81731,5
36189,81760,5
36174,81718,4
36175,81704,4
36169,81692,5
36165,81701,5
36166,81673,5
36155,81653,5
36151,81653,4
36150,81637,5
36148,81632,5
36139,81627,5
36139,81608,4
36129,81588,5
36120,81564,5
36113,81544,5
36089,81490,5
36051,81414,4
36017,81310,5
35954,81161,5
35888,81019,5
35816,80862,5
35749,80732,4
35706,80628,5
35672,80573,5
35646,80519,5
35630,80500,4
35639,80508,4
35653,80542,5
35670,80580,5
35695,80641,5
35728,80706,4
35759,80790,6
35794,80873,4
35833,80966,5
35883,81056,5
35904,81109,4
35922,81135,5
35937,81155,5
35937,81140,5
35923,81124,5
35886,81034,4
35804,80844,5
35744,80709,5
35714,80666,5
35712,80648,5
35687,80618,4
35683,80594,5
35669,80579,5
35673,80578,5
35671,80579,4
35680,80597,4
35684,80605,5
35689,80600,5
35692,80628,5
35695,80658,4
35716,80686,5
35721,80719,6
35746,80742,4
35746,80763,5
35754,80782,4
35765,80785,5
35764,80798,5
35769,80792,5
35766,80813,5
35769,80806,4
35769,80804,5
35765,80793,5
35757,80781,5
35762,80777,5
35767,80775,4
35752,80769,5
35753,80763,5
35758,80758,5
35750,80752,4
35749,80746,4
35747,80761,5
35767,80791,5
35770,80790,6
35765,80791,3
35763,80780,5
35761,80760,5
35757,80769,5
35751,80764,5
35749,80759,4
35742,80751,5
35752,80751,5
35746,80744,5
35754,80754,5
35741,80734,4
35739,80735,5
35749,80740,5
35748,80738,5
35742,80741,5
35718,80753,4
35742,80749,5
35746,80747,5
35746,80767,5
35727,80769,5
35756,80786,5
35764,80801,4
35779,80820,5
35770,80839,5
35795,80862,6
35798,80875,3
35817,80889,5
35831,80913,5
35815,80916,5
35830,80932,4
35827,80951,5
35869,80950,5
35835,80957,5
35838,80953,5
35845,80954,4
35857,80950,5
35841,80952,5
35844,80960,5
35838,80953,5
35846,80940,4
35836,80935,5
35821,80918,5
35826,80923,5
35820,80898,5
35819,80906,4
35812,80901,6
35814,80880,4
35803,80852,5
35810,80869,5
35804,80856,6
35801,80862,3
35799,80826,5
35790,80835,5
35794,80842,4
35784,80832,5
35782,80823,5
35773,80814,5
35770,80799,5
35767,80782,4
35762,80806,5
35757,80770,5
35749,80757,5
35753,80750,5
35747,80765,4
35744,80725,5
35733,80711,5
35733,80709,5
35720,80724,5
35728,80691,4
35721,80673,5
35723,80664,6
35708,80665,4
35707,80646,4
35698,80637,5
35696,80626,5
35689,80601,5
35672,80565,5
35655,80524,4
35621,80458,5
35593,80382,5
35564,80311,5
35532,80253,5
35495,80173,4
35471,80108,5
35445,80049,5
35427,80026,5
35423,80004,5
35412,80003,4
35422,80001,5
35426,80026,5
35437,80053,5
35451,80085,5
35462,80140,4
35486,80170,5
35502,80197,5
35519,80222,6
35518,80244,3
35523,80266,4
35530,80254,5
35520,80238,5
35510,80223,5
35515,80214,4
35501,80181,5
35455,80085,5
35392,79914,5
35349,79821,5
35335,79807,4
35319,79811,5
35322,79784,5
35316,79769,5
35311,79775,5
35319,79780,4
35317,79790,5
35324,79792,5
35317,79809,5
35337,79835,5
35339,79847,5
35347,79867,4
35354,79886,5
35370,79920,5
35385,79936,6
35380,79946,3
35384,79954,5
35384,79949,5
35390,79950,5
35377,79935,4
35379,79936,5
35382,79923,5
35377,79917,5
35370,79906,5
35357,79901,4
35357,79904,5
35360,79904,5
35358,79886,5
35360,79891,5
35359,79886,4
35356,79887,5
35367,79909,5
35376,79915,5
35369,79909,5
35363,79896,4
35360,79895,6
35357,79881,4
35358,79882,5
35360,79893,4
35363,79879,4
35358,79877,5
35363,79881,5
35359,79887,5
35357,79886,8
35359,79898,2
35360,79899,4
35378,79917,5
35381,79956,5
35377,79960,4
35397,79980,5
35385,80019,5
35420,80035,5
35435,80070,5
35454,80124,4
35449,80147,5
35500,80212,5
35526,80253,5
35540,80306,5
35530,80353,4
35583,80397,5
35592,80437,6
35609,80467,4
35644,80497,4
35647,80536,4
35657,80561,5
35669,80579,5
35705,80599,5
35688,80615,4
35703,80628,5
35708,80647,5
35736,80672,5
35714,80683,5
35728,80704,4
35720,80702,5
35738,80712,5
35735,80716,5
35730,80725,5
35748,80732,4
35739,80731,5
35744,80734,5
35753,80738,5
35750,80747,5
35755,80728,4
35758,80763,5
35756,80771,5
35753,80760,6
35753,80730,3
35742,80729,4
35725,80707,5
35720,80663,5
35691,80604,5
35677,80569,5
35657,80536,4
35640,80509,5
35636,80514,5
35643,80485,5
35630,80494,4
35646,80510,5
35656,80557,5
35662,80561,5
35680,80607,5
35713,80676,4
35747,80754,5
35775,80792,5
35795,80843,5
35806,80880,5
35817,80910,5
35829,80922,4
35830,80916,5
35831,80916,5
35825,80911,4
35824,80884,4
35806,80875,5
35789,80805,5
35734,80670,5
35690,80592,4
35682,80609,5
35696,80606,5
35691,80613,5
35695,80623,5
35706,80634,4
35711,80673,5
35730,80700,5
35752,80736,5
35764,80781,5
35787,80839,4
35814,80899,5
35844,80954,5
35866,81019,5
35900,81084,5
35916,81139,4
35940,81176,6
35942,81192,4
35965,81222,5
35969,81237,4
35972,81235,4
35973,81239,5
35973,81244,5
35968,81240,5
35974,81236,4
35968,81223,5
35955,81219,5
35959,81217,5
35964,81214,5
35964,81224,4
35969,81223,5
35967,81249,5
35986,81248,5
35976,81248,5
35973,81220,4
35959,81213,5
35957,81217,5
35952,81204,5
35963,81204,5
35955,81211,4
35952,81197,5
35956,81204,6
35952,81185,4
35948,81191,4
35943,81183,4
35949,81200,5
35958,81201,5
35960,81217,5
35972,81222,4
35979,81251,5
35988,81284,5
36007,81331,5
36026,81367,5
36056,81436,4
36081,81487,5
36102,81554,5
36131,81608,5
36162,81684,5
36179,81733,4
36207,81771,5
36231,81824,5
36252,81866,5
36269,81893,5
36276,81913,4
36281,81929,5
36282,81943,5
36291,81950,5
36299,81960,4
36295,81958,4
36294,81966,5
36302,81968,5
36286,81939,5
36281,81923,4
36276,81888,5
36244,81840,5
36221,81781,5
36185,81725,5
36167,81669,4
36145,81620,5
36134,81582,5
36097,81560,5
36109,81554,5
36114,81561,4
36118,81571,5
36103,81605,5
36145,81646,5
36175,81700,5
36204,81749,5
36228,81808,4
36243,81869,5
36272,81901,5
36285,81929,4
36308,81949,4
36296,81950,5
36288,81940,5
36288,81925,5
36295,81888,4
36255,81847,5
36216,81746,5
36141,81568,5
36097,81459,5
36059,81434,4
36061,81419,5
36052,81422,5
36064,81428,5
36055,81448,5
36075,81472,4
36089,81503,5
36110,81525,5
36120,81586,5
36145,81642,5
36170,81689,4
36192,81718,6
36225,81809,4
36240,81866,5
36283,81917,4
36299,81946,4
36305,82006,5
36334,82036,5
36336,82066,5
36337,82090,4
36358,82097,5
36348,82094,5
36357,82095,5
36366,82127,5
36359,82090,4
36358,82084,5
36349,82078,5
36343,82101,5
36352,82075,5
36352,82072,4
36363,82097,5
36364,82130,5
36360,82099,6
36344,82085,4
36346,82069,4
36348,82073,5
36351,82066,5
36351,82072,5
36343,82088,4
36351,82080,4
36356,82072,5
36350,82070,5
36347,82070,5
36342,82065,4
36341,82052,5
36343,82062,5
36340,82074,5
36354,82091,5
36365,82117,4
36379,82158,5
36397,82198,5
36426,82254,5
36456,82308,5
36492,82382,5
36519,82461,4
36553,82548,5
36583,82618,5
36613,82692,6
36659,82762,3
36689,82828,5
36706,82887,5
36736,82944,5
36751,82978,4
36769,83007,4
36790,83031,5
36794,83050,5
36797,83060,5
36806,83083,4
36810,83083,5
36796,83062,5
36792,83036,5
36763,82988,5
36727,82923,4
36705,82832,5
36656,82734,5
36617,82651,5
36583,82570,5
36556,82518,4
36539,82487,6
36536,82488,4
36531,82496,5
36547,82521,5
36559,82560,6
36583,82618,3
36617,82680,5
36655,82761,5
36684,82843,4
36716,82907,4
36747,82976,5
36783,83053,5
36815,83127,5
36853,83184,4
36861,83193,5
36852,83181,5
36833,83112,5
36758,82953,5
36689,82792,4
36644,82742,5
36634,82706,5
36617,82660,5
36604,82639,5
36596,82631,4
36601,82650,5
36608,82651,6
36615,82665,4
36625,82695,5
36637,82729,4
36662,82778,5
36682,82836,5
36705,82877,5
36733,82938,5
36764,82998,4
36782,83054,5
36813,83115,5
36838,83155,5
36855,83200,4
36862,83245,5
36895,83271,5
36906,83308,5
36918,83328,5
36908,83357,4
36933,83366,5
36949,83392,5
36959,83409,5
36923,83414,5
36960,83425,4
36961,83430,5
36962,83423,5
36970,83455,6
36993,83489,4
36991,83469,4
36982,83455,5
36994,83445,5
36973,83428,5
36967,83420,4
36960,83405,4
36994,83392,5
36946,83382,5
36944,83366,5
36934,83360,4
36937,83312,5
36901,83289,5
36890,83250,5
36869,83235,5
36872,83209,4
36865,83216,5
36868,83228,5
36876,83231,5
36884,83248,5
36898,83278,5
36897,83308,4
36921,83341,5
36926,83344,5
36948,83423,5
36975,83474,4
36996,83524,5
37018,83545,5
37052,83625,5
37072,83679,5
37099,83739,4
37121,83768,5
37126,83796,5
37136,83807,5
37136,83821,4
37143,83832,5
37132,83784,5
37114,83746,5
37088,83681,5
37040,83607,4
36994,83461,5
36936,83352,5
36892,83254,5
36854,83182,5
36817,83111,4
36797,83063,6
36787,83052,4
36793,83056,5
36802,83071,5
36806,83100,4
36824,83136,5
36844,83177,5
36863,83218,5
36880,83274,5
36900,83322,4
36929,83379,5
36948,83436,5
36989,83493,5
37008,83533,4
37008,83531,5
36993,83481,5
36928,83316,5
36844,83140,5
36796,83057,4
36771,83003,5
36738,82933,5
36713,82892,5
36695,82842,5
36676,82810,4
36659,82767,5
36649,82745,6
36634,82712,4
36622,82696,5
36620,82703,4
36622,82708,5
36624,82714,5
36634,82718,5
36636,82726,5
36645,82738,4
36639,82741,5
36648,82756,5
36653,82756,5
36656,82759,4
36660,82768,5
36648,82753,5
36644,82760,5
36647,82750,5
36648,82747,4
36645,82727,5
36635,82736,5
36643,82724,5
36625,82699,5
36621,82674,4
36617,82679,5
36610,82671,5
36616,82688,6
36609,82650,4
36585,82623,4
36575,82600,5
36565,82572,5
36558,82552,5
36551,82522,5
36531,82500,4
36522,82480,5
36515,82451,5
36506,82431,5
36487,82400,4
36469,82359,5
36450,82315,5
36435,82285,5
36419,82260,5
36411,82237,4
36402,82217,5
36400,82205,5
36387,82196,5
36399,82205,5
36398,82208,6
36408,82209,3
36404,82212,5
36403,82224,5
36415,82233,5
36417,82240,4
36417,82258,5
36416,82262,5
36426,82274,5
36431,82291,5
36439,82302,4
36440,82296,5
36443,82306,5
36447,82317,5
36454,82317,4
36446,82315,4
36425,82309,5
36449,82319,5
36449,82327,5
36437,82308,4
36411,82304,5
36442,82307,5
36435,82300,5
36444,82284,5
36420,82283,4
36432,82267,6
36420,82264,4
36412,82241,5
36431,82231,5
36413,82216,4
36399,82202,5
36399,82190,5
36418,82179,5
36381,82170,5
36377,82159,4
36372,82143,5
36392,82129,5
36358,82126,5
36364,82115,4
36356,82109,4
36357,82103,5
36348,82099,5
36347,82092,5
36356,82075,4
36337,82036,5
36305,82001,5
36277,81912,5
36220,81793,5
36155,81616,4
36093,81495,5
36031,81352,6
35984,81249,4
35939,81147,5
35926,81129,5
35910,81103,4
35908,81105,5
35921,81130,5
35939,81171,5
35949,81217,4
35976,81269,5
36010,81368,5
36034,81406,5
36070,81492,4
36118,81579,4
36154,81697,5
36182,81725,5
36206,81773,5
36221,81825,4
36245,81882,5
36258,81889,5
36256,81873,5
36234,81803,5
36158,81628,4
36074,81426,5
36015,81326,5
35994,81279,5
35970,81229,5
35937,81182,4
35928,81161,5
35928,81146,5
35913,81137,5
35929,81128,5
35909,81137,4
35923,81136,5
35923,81140,5
35926,81153,5
35942,81179,4
35949,81205,4
35958,81228,5
35971,81249,5
35981,81264,5
35974,81281,4
35985,81284,5
35997,81293,5
35998,81307,5
36001,81306,5
35997,81315,5
36003,81321,4
36003,81320,5
35996,81322,5
35997,81314,5
36007,81316,4
35990,81310,5
35993,81298,5
35991,81300,5
35986,81290,5
35992,81296,4
35996,81303,5
36001,81312,5
35987,81299,5
35984,81280,4
35973,81264,4
35980,81262,5
35969,81257,5
35977,81242,5
35973,81239,4
35957,81230,5
35952,81221,5
35949,81205,5
35944,81194,5
35944,81194,4
35939,81189,6
35945,81181,4
35937,81181,5
35934,81182,5
35933,81185,4
35932,81179,5
35951,81190,5
35954,81195,5
35946,81200,5
35956,81211,4
35966,81234,5
35967,81241,5
35978,81268,5
35982,81290,4
35993,81295,4
36000,81327,5
36005,81331,5
36010,81342,5
36020,81361,4
36029,81373,5
36025,81372,5
36027,81378,5
36023,81373,4
36017,81373,4
36028,81368,5
36022,81361,5
36026,81366,5
36026,81358,5
36021,81352,4
36008,81348,5
36017,81339,5
36004,81333,5
36000,81328,5
36002,81323,4
36000,81311,5
36003,81314,5
35982,81311,5
35992,81295,4
35992,81289,4
35987,81296,5
35956,81281,5
35988,81278,5
35984,81281,5
35977,81269,4
35964,81275,5
35984,81282,5
35983,81273,6
35984,81275,3
36006,81283,5
35984,81270,5
35984,81273,5
35973,81255,5
35998,81257,4
35976,81249,5
35972,81246,5
35971,81244,5
35990,81227,5
35959,81220,4
35958,81211,5
35958,81206,5
35955,81194,5
35939,81195,4
35943,81192,4
35940,81184,5
35942,81176,5
35936,81167,5
35927,81163,4
35932,81147,6
35926,81114,4
35925,81142,5
35923,81123,5
35917,81120,6
35915,81095,3
35911,81102,5
35906,81099,5
35903,81093,5
35893,81068,4
35896,81081,5
35891,81071,5
35898,81059,5
35876,81050,5
35864,80992,4
35829,80912,5
35792,80828,5
35742,80750,5
35689,80594,4
35639,80480,4
35605,80384,5
35558,80339,5
35532,80260,5
35524,80241,4
35519,80235,5
35528,80237,6
35531,80268,4
35553,80309,5
35575,80372,4
35604,80446,5
35632,80530,5
35670,80602,5
35716,80679,5
35748,80762,4
35776,80812,5
35786,80826,5
35800,80834,5
35782,80824,5
35780,80791,4
35748,80724,5
35685,80559,5
35611,80416,5
35573,80360,4
35573,80362,4
35564,80329,5
35546,80317,5
35554,80304,5
35545,80310,4
35556,80308,5
35553,80322,5
35555,80325,6
35557,80335,4
35565,80357,4
35578,80373,5
35588,80409,5
35602,80431,5
35616,80462,5
35625,80476,4
35620,80486,5
35625,80487,5
35629,80483,5
35634,80484,5
35624,80486,4
35624,80479,5
35617,80481,5
35621,80470,5
35625,80465,4
35615,80459,4
35605,80447,5
35603,80433,5
35592,80419,5
35593,80401,5
35597,80404,4
35588,80404,5
35594,80391,5
35593,80409,6
35596,80426,3
35596,80417,5
35597,80402,5
35589,80398,5
35587,80395,5
35574,80383,4
35582,80385,5
35577,80373,5
35577,80371,5
35574,80361,5
35563,80350,4
35568,80344,5
35560,80341,5
35556,80334,5
35556,80326,4
35555,80338,4
35565,80340,5
35564,80349,5
35570,80350,5
35571,80357,4
35569,80361,6
35577,80370,4
35583,80389,5
35582,80391,5
35601,80414,4
35606,80414,5
35596,80426,5
35601,80440,5
35604,80442,5
35620,80450,4
35614,80453,5
35612,80459,5
35617,80463,5
35611,80458,5
35601,80451,4
35609,80448,5
35618,80450,5
35604,80438,5
35571,80427,4
35594,80428,4
35603,80423,5
35592,80420,5
35567,80405,5
35588,80405,4
35590,80408,5
35589,80395,6
35597,80399,4
35580,80401,5
35584,80385,4
35577,80381,5
35604,80383,5
35576,80370,5
35573,80369,5
35575,80354,4
35593,80351,5
35558,80347,5
35557,80330,5
35552,80316,5
35556,80308,4
35549,80291,5
35537,80263,5
35515,80236,5
35503,80175,5
35473,80114,4
35449,80057,5
35421,79997,5
35388,79931,5
35374,79905,5
35361,79877,4
35340,79841,5
35337,79796,6
35327,79826,4
35329,79831,4
35337,79839,5
35342,79856,5
35357,79892,5
35378,79939,5
35390,79967,4
35408,80024,5
35419,80032,5
35429,80038,5
35437,80057,5
35437,80087,4
35430,80052,5
35427,80035,5
35428,80036,5
35420,80040,5
35419,79994,4
35390,79917,5
35325,79782,5
35280,79694,5
35256,79671,5
35263,79663,4
35258,79650,5
35252,79646,5
35245,79644,5
35250,79646,4
35257,79655,5
35253,79671,5
35264,79684,5
35259,79695,5
35280,79718,4
35286,79746,5
35305,79771,5
35319,79794,5
35320,79817,5
35339,79832,4
35326,79837,5
35338,79841,5
35342,79858,5
35330,79843,5
35333,79838,4
35333,79846,5
35338,79839,5
35334,79841,5
35328,79839,4
35336,79832,6
35331,79841,4
35333,79837,5
35338,79846,5
35334,79853,4
35341,79865,5
35352,79890,5
35363,79913,5
35358,79909,5
35365,79897,4
35366,79906,5
35368,79901,5
35362,79905,5
35374,79913,5
35371,79913,4
35372,79923,5
35374,79916,5
35375,79936,5
35384,79939,4
35389,79949,4
35392,79971,5
35403,80000,5
35409,80021,5
35429,80062,4
35453,80095,5
35460,80123,6
35476,80163,4
35498,80210,5
35512,80252,4
35551,80303,5
35572,80376,5
35591,80422,5
35616,80465,5
35632,80508,4
35644,80557,5
35667,80577,5
35683,80619,5
35719,80677,9
35719,80677,5
35713,80697,5
35724,80701,5
35715,80706,4
35726,80716,4
35726,80715,5
35734,80724,5
35739,80728,5
35743,80727,4
35749,80737,5
35743,80742,5
35742,80752,5
35752,80756,5
35753,80756,4
35756,80758,5
35752,80758,5
35749,80758,5
35753,80763,5
35741,80768,4
35750,80762,5
35748,80759,5
35749,80752,5
35721,80748,5
35731,80714,4
35721,80678,5
35704,80635,5
35653,80586,5
35655,80523,4
35646,80500,4
35626,80457,5
35624,80446,5
35617,80437,5
35617,80443,5
35615,80451,4
35651,80475,5
35628,80503,5
35650,80537,5
35664,80584,4
35717,80638,5
35720,80696,5
35749,80757,5
35769,80793,5
35795,80839,4
35806,80872,5
35809,80882,5
35798,80875,5
35812,80869,5
35803,80860,4
35800,80854,5
35787,80800,5
35740,80663,5
35684,80588,4
35675,80576,4
35677,80591,6
35680,80567,4
35678,80610,5
35694,80628,4
35703,80652,7
35720,80687,3
35741,80729,5
35741,80768,5
35773,80809,4
35786,80887,5
35812,80924,5
35848,80970,5
35868,81030,5
35895,81110,4
35922,81121,5
35926,81155,5
35936,81175,5
35942,81203,5
35952,81188,4
35938,81204,5
35948,81196,5
35949,81202,5
35950,81188,4
35939,81191,4
35942,81188,5
35937,81178,5
35936,81172,5
35939,81172,4
35943,81167,5
35944,81176,5
35945,81203,5
35959,81200,5
35952,81183,4
35937,81165,5
35940,81168,5
35930,81153,5
35931,81160,5
35934,81150,4
35931,81151,5
35929,81152,5
35925,81151,5
35934,81144,5
35930,81147,4
35925,81159,5
35933,81159,5
35944,81172,5
35948,81189,5
35956,81219,4
35979,81236,5
35990,81289,5
36002,81333,6
36038,81404,3
36057,81458,5
36085,81527,5
36127,81593,5
36151,81672,5
36185,81730,4
36208,81791,5
36228,81848,5
36259,81892,5
36267,81945,5
36298,81964,4
36300,81987,5
36313,82010,5
36312,82015,5
36319,82016,5
36324,82026,4
36324,82033,5
36323,82025,5
36324,82027,5
36325,82031,4
36317,82019,5
36320,82021,4
36317,82000,5
36307,81982,5
36290,81951,6
36263,81885,3
36245,81829,5
36215,81761,5
36191,81718,5
36168,81668,4
36159,81646,5
36153,81631,5
36143,81635,5
36150,81642,5
36164,81677,4
36179,81705,5
36195,81758,5
36230,81820,5
36250,81888,5
36286,81949,4
36317,82014,5
36332,82058,5
36353,82095,5
36361,82108,4
36367,82113,5
36362,82100,6
36359,82084,4
36342,82057,5
36331,82004,4
36297,81921,5
36220,81769,5
36163,81653,5
36149,81625,5
36154,81637,4
36153,81631,5
36124,81642,5
36161,81664,5
36180,81706,5
36188,81746,4
36188,81781,5
36243,81831,5
36260,81896,5
36276,81954,5
36301,82019,4
36337,82073,5
36373,82143,5
36395,82209,5
36436,82261,4
36448,82314,5
36470,82340,5
36479,82377,6
36513,82396,4
36489,82399,4
36485,82393,5
36499,82399,5
36507,82399,5
36494,82399,5
36489,82396,4
36490,82390,5
36481,82379,5
36488,82378,5
36497,82386,5
36499,82410,4
36497,82411,5
36501,82418,5
36493,82406,5
36489,82398,5
36480,82355,4
36483,82379,5
36480,82369,5
36478,82363,5
36479,82318,5
36473,82345,4
36464,82346,5
36463,82319,5
36455,82301,6
36448,82291,3
36440,82296,5
36438,82291,5
36458,82345,5
36467,82343,5
36469,82367,4
36489,82418,5
36520,82494,5
36538,82524,5
36573,82594,5
36608,82669,4
36642,82770,5
36680,82835,5
36719,82908,5
36746,82986,4
36789,83059,4
36804,83110,5
36839,83164,5
36868,83208,5
36878,83242,4
36884,83263,6
36892,83287,4
36900,83301,5
36906,83305,5
36899,83312,4
36918,83312,5
36914,83315,5
36913,83317,5
36899,83308,5
36898,83279,4
36881,83251,5
36865,83198,5
36832,83113,5
36798,83026,5
36746,82928,4
36687,82814,5
36660,82747,5
36621,82687,5
36606,82653,4
36602,82642,4
36604,82648,5
36623,82669,5
36625,82712,5
36658,82766,4
36686,82838,5
36725,82921,6
36758,83007,4
36804,83095,5
36835,83185,4
36880,83264,5
36907,83347,5
36938,83400,5
36968,83454,5
36975,83456,4
36959,83429,5
36938,83334,5
36858,83155,5
36766,82971,5
36719,82882,4
36700,82845,5
36677,82785,5
36663,82771,5
36656,82760,4
36661,82779,4
36667,82791,5
36667,82807,5
36686,82830,5
36697,82865,4
36712,82895,5
36729,82941,5
36767,83002,7
36779,83060,3
36805,83119,4
36834,83182,5
36861,83232,5
36889,83286,5
36909,83340,5
36929,83374,4
36940,83401,5
36963,83437,5
36981,83449,5
36978,83482,5
36988,83484,4
36979,83486,5
36984,83488,5
36983,83486,5
36982,83488,4
36980,83488,4
36986,83483,5
36982,83500,5
36999,83518,5
36996,83508,5
36985,83489,4
36983,83467,5
36972,83463,5
36973,83451,5
36960,83433,4
36953,83423,5
36955,83405,5
36946,83389,5
36916,83368,5
36918,83348,4
36904,83307,5
36895,83274,5
36843,83231,5
36862,83217,5
36852,83207,4
36858,83210,5
36847,83227,5
36869,83236,5
36877,83257,4
36883,83279,5
36911,83296,5
36904,83319,5
36927,83351,5
36935,83383,4
36988,83429,6
36971,83469,4
36991,83507,5
37006,83543,5
37036,83575,4
37035,83614,5
37048,83641,5
37057,83647,5
37057,83648,5
37052,83650,4
37054,83637,5
37055,83628,5
37040,83578,5
37016,83540,5
36980,83469,4
36939,83351,5
36873,83206,5
36815,83098,5
36762,82987,4
36713,82881,5
36671,82776,5
36652,82750,5
36637,82715,5
36628,82709,5
36636,82728,4
36637,82739,6
36643,82772,4
36669,82799,5
36668,82844,4
36696,82866,5
36706,82903,5
36728,82947,5
36744,83014,5
36767,83026,4
36783,83066,5
36802,83093,5
36792,83093,5
36767,82991,5
36696,82815,4
36615,82668,5
36577,82605,5
36546,82520,5
36519,82453,4
36487,82391,5
36457,82345,5
36441,82309,5
36429,82275,5
36417,82249,4
36410,82220,5
36404,82215,5
36405,82210,5
36403,82211,5
36395,82218,4
36397,82226,5
36403,82223,5
36403,82239,5
36418,82249,5
36413,82261,4
36422,82258,5
36425,82262,5
36417,82268,5
36430,82270,4
36420,82271,4
36424,82270,5
36428,82272,5
36427,82273,5
36424,82278,4
36420,82261,5
36418,82267,5
36410,82258,5
36414,82245,5
36416,82255,5
36424,82266,4
36417,82245,5
36397,82204,5
36393,82189,5
36378,82180,4
36368,82150,5
36358,82122,5
36345,82101,5
36353,82077,5
36329,82056,4
36307,82006,5
36298,81982,5
36278,81942,5
36260,81913,4
36249,81884,4
36240,81855,5
36225,81844,5
36227,81835,5
36223,81836,4
36233,81828,5
36227,81840,5
36231,81856,5
36238,81861,5
36237,81874,4
36250,81887,6
36259,81902,4
36267,81917,5
36279,81944,5
36290,81968,7
36299,81992,2
36323,82014,5
36316,82040,5
36329,82061,5
36331,82063,4
36337,82089,5
36348,82086,5
36347,82094,5
36347,82118,4
36357,82111,4
36361,82117,5
36349,82112,5
36347,82113,5
36347,82101,4
36350,82098,5
36340,82090,5
36347,82089,5
36328,82066,5
36330,82063,4
36323,82045,5
36315,82036,5
36311,82017,5
36310,82008,5
36302,81996,4
36272,81995,5
36292,81983,5
36287,81966,5
36278,81961,5
36253,81948,4
36275,81940,5
36275,81941,5
36272,81926,5
36257,81918,4
36261,81903,5
36256,81901,5
36252,81890,5
36270,81884,5
36237,81869,4
36240,81863,4
36235,81827,5
36235,81782,5
36181,81697,5
36126,81579,3
36063,81441,5
36023,81305,5
35947,81179,5
35894,81056,5
35862,80971,4
35829,80925,5
35820,80909,5
35812,80890,5
35821,80918,5
35830,80918,4
35852,80989,5
35869,81039,5
35892,81097,5
35928,81141,4
35952,81229,5
35992,81318,5
36024,81397,5
36065,81429,5
36082,81504,4
36104,81529,6
36105,81564,4
36118,81584,5
36108,81542,5
36077,81455,6
35995,81268,3
35907,81127,5
35880,81034,5
35863,80984,5
35838,80951,4
35822,80942,5
35809,80894,5
35801,80868,5
35795,80854,4
35795,80859,4
35786,80839,5
35775,80837,5
35779,80854,5
35790,80861,4
35796,80872,5
35804,80890,5
35805,80916,5
35812,80922,5
35824,80938,4
35828,80949,5
35830,80952,6
35824,80965,4
35835,80957,5
35835,80965,4
35836,80973,5
35844,80970,5
35842,80975,5
35833,80967,5
35837,80970,4
35835,80953,5
35834,80949,5
35831,80947,5
35829,80942,4
35833,80935,4
35820,80940,5
35828,80954,5
35831,80960,5
35830,80954,4
35828,80942,5
35828,80949,5
35824,80942,5
35818,80931,5
35829,80941,4
35820,80935,5
35826,80943,5
35826,80932,6
35818,80924,4
35822,80920,4
35823,80910,5
35814,80911,5
35819,80910,5
35810,80908,5
35814,80918,4
35816,80910,5
35825,80928,5
35823,80931,5
35822,80940,4
35831,80943,4
35840,80965,5
35842,80989,5
35853,80985,5
35856,81009,4
35861,81022,5
35869,81052,5
35889,81067,5
35896,81086,5
35889,81101,5
35909,81107,4
35914,81108,5
35904,81123,5
35906,81120,6
35903,81133,3
35911,81118,5
35921,81125,5
35920,81123,5
35909,81134,5
35904,81123,4
35910,81115,5
35911,81120,5
35911,81117,5
35907,81117,4
35911,81108,4
35902,81106,5
35903,81099,5
35888,81092,5
35892,81084,4
35885,81067,5
35886,81073,5
35893,81067,5
35886,81059,5
35886,81058,4
35870,81057,6
35878,81049,4
35877,81032,5
35865,81028,5
35870,81027,4
35868,81026,5
35874,81022,5
35838,81018,5
35861,81020,5
35862,81011,4
35861,81008,5
35832,81001,5
35847,81000,5
35856,80993,4
35845,80985,5
35853,80984,5
35845,80976,5
35843,80970,5
35840,80965,4
35868,80958,5
35826,80937,5
35824,80905,5
35789,80837,5
35801,80769,4
35707,80672,5
35668,80560,6
35622,80463,4
35610,80389,5
35564,80337,4
35563,80309,5
35545,80303,5
35542,80298,5
35548,80304,5
35559,80338,4
35565,80364,5
35590,80405,5
35608,80464,5
35633,80525,4
35656,80577,5
35692,80620,5
35720,80707,5
35743,80751,5
35742,80759,5
35748,80733,4
35745,80755,5
35744,80733,5
35721,80684,5
35682,80579,4
35594,80388,5
35528,80262,5
35517,80237,6
35516,80258,4
35486,80193,4
35482,80180,5
35489,80166,5
35479,80197,5
35487,80173,5
35494,80181,4
35485,80189,5
35500,80193,5
35491,80221,5
35504,80234,4
35521,80259,5
35534,80290,5
35540,80306,5
35551,80322,5
35555,80334,4
35552,80348,5
35557,80350,5
35563,80355,5
35570,80365,5
35563,80358,5
35565,80347,4
35558,80341,5
35554,80319,5
35552,80319,5
35546,80301,4
35535,80291,5
35533,80274,5
35521,80256,5
35510,80240,5
35514,80247,4
35521,80256,5
35520,80269,5
35522,80268,5
35521,80247,4
35517,80233,5
35511,80223,5
35495,80213,5
35508,80217,5
35503,80204,4
35492,80204,5
35498,80188,5
35492,80175,5
35484,80170,5
35488,80168,4
35487,80173,6
35477,80169,4
35483,80167,5
35488,80189,5
35488,80189,4
35497,80196,5
35496,80203,5
35510,80220,5
35508,80219,4
35513,80239,4
35519,80251,5
35528,80275,5
35543,80292,5
35539,80308,4
35544,80318,5
35550,80332,5
35553,80336,5
35561,80340,5
35562,80351,4
35556,80343,5
35562,80344,5
35549,80339,5
35553,80345,5
35549,80336,4
35553,80327,5
35545,80321,6
35547,80320,4
35545,80304,5
35530,80301,4
35539,80292,5
35534,80285,5
35532,80280,5
35515,80270,4
35523,80260,4
35519,80259,5
35508,80245,5
35502,80240,5
35512,80233,4
35501,80222,5
35494,80213,5
35494,80196,5
35492,80197,5
35491,80186,4
35484,80184,5
35478,80172,5
35480,80167,5
35472,80135,5
35453,80100,4
35417,80046,5
35409,79984,5
35369,79905,5
35342,79837,5
35290,79787,4
35289,79726,5
35271,79699,5
35256,79670,5
35214,79648,4
35245,79639,4
35234,79640,5
35245,79638,5
35256,79672,5
35274,79688,4
35279,79729,5
35296,79767,5
35337,79798,5
35314,79813,5
35330,79833,4
35338,79852,6
35366,79858,4
35339,79849,5
35333,79843,5
35326,79835,5
35346,79839,4
35319,79816,5
35302,79751,5
35248,79637,5
35206,79549,4
35189,79528,5
35196,79534,5
35193,79528,5
35187,79520,4
35199,79543,4
35200,79572,5
35207,79585,5
35221,79576,5
35236,79629,4
35240,79654,5
35256,79693,5
35280,79713,5
35297,79780,5
35318,79833,4
35341,79868,5
35359,79916,5
35372,79929,5
35375,79955,5
35390,79977,4
35398,80015,6
35391,79999,4
35407,80024,5
35409,80037,5
35414,80077,4
35422,80061,5
35427,80065,5
35437,80080,5
35440,80099,4
35444,80105,4
35451,80111,5
35460,80135,5
35480,80185,5
35489,80215,4
35503,80225,5
35492,80209,5
35492,80204,5
35502,80223,5
35506,80231,4
35503,80237,5
35525,80252,5
35524,80269,5
35531,80283,5
35535,80306,4
35549,80326,5
35557,80345,5
35576,80375,5
35579,80404,5
35597,80435,4
35612,80477,5
35629,80521,5
35656,80549,5
35664,80581,4
35678,80624,5
35705,80676,5
35728,80736,5
35749,80791,5
35785,80846,4
35796,80898,5
35825,80943,5
35846,80983,5
35859,81025,5
35875,81052,4
35889,81080,5
35902,81091,5
35902,81116,5
35909,81127,5
35912,81145,3
35915,81150,5
35921,81155,5
35926,81156,5
35928,81156,5
35926,81153,4
35928,81154,5
35926,81150,5
35921,81147,5
35927,81141,4
35911,81135,5
35918,81138,5
35913,81123,5
35908,81126,5
35905,81108,4
35900,81091,5
35900,81085,5
35890,81055,5
35876,81016,5
35850,80962,4
35826,80910,6
35805,80853,4
35776,80814,5
35756,80769,5
35744,80734,6
35737,80720,3
35732,80721,5
35732,80733,5
35739,80748,5
35751,80773,4
35768,80797,5
35788,80853,5
35805,80890,5
35824,80927,4
35841,80966,5
35854,80992,5
35854,80997,5
35866,81021,5
35862,81008,4
35863,81003,5
35866,80999,5
35854,80990,5
35846,80967,5
35837,80947,4
35804,80859,5
35750,80722,6
35680,80625,4
35686,80609,5
35685,80620,4
35688,80619,5
35667,80610,5
35682,80630,5
35703,80643,5
35703,80663,4
35677,80683,5
35722,80721,5
35745,80758,5
35757,80801,4
35775,80840,4
35802,80885,5
35832,80941,5
35833,80982,5
35888,81013,4
35875,81038,5
35884,81057,5
35887,81071,5
35922,81079,5
35885,81078,4
35895,81077,5
35897,81083,5
35905,81078,6
35889,81074,4
35885,81069,4
35884,81058,5
35896,81061,5
35887,81071,5
35884,81073,5
35895,81089,4
35903,81081,5
35903,81099,5
35895,81081,5
35883,81074,4
35888,81039,4
35890,81056,5
35889,81053,5
35881,81047,5
35881,81028,4
35877,81054,5
35883,81038,5
35878,81040,5
35878,81052,5
35861,81034,5
35883,81047,4
35884,81057,5
35888,81098,5
35890,81104,6
35907,81123,3
35914,81149,5
35949,81224,5
35968,81250,5
35987,81305,5
36017,81362,4
36045,81433,5
36074,81482,5
36093,81536,5
36119,81585,4
36131,81623,4
36143,81664,5
36169,81687,5
36170,81714,5
36182,81724,4
36205,81740,5
36190,81748,5
36199,81755,5
36199,81761,5
36201,81758,4
36201,81764,6
36201,81761,4
36198,81754,5
36196,81756,5
36192,81752,4
36197,81743,5
36186,81746,5
36192,81745,5
36187,81737,5
36193,81735,4
36185,81731,5
36185,81736,5
36184,81723,5
36180,81717,4
36173,81691,4
36163,81654,5
36144,81621,5
36125,81581,5
36106,81527,4
36084,81480,5
36061,81442,5
36050,81413,5
36039,81406,5
36041,81390,4
36037,81405,5
36057,81418,6
36060,81457,4
36086,81496,5
36104,81548,4
36128,81602,5
36152,81654,5
36176,81702,5
36191,81758,5
36208,81788,4
36228,81819,5
36237,81831,5
36243,81836,5
36233,81822,5
36226,81801,4
36205,81758,5
36156,81637,5
36096,81478,5
36060,81423,4
36046,81423,5
36047,81419,5
36053,81430,5
36065,81439,5
36063,81473,4
36078,81493,5
36091,81535,5
36106,81568,6
36140,81622,4
36154,81674,4
36181,81742,5
36218,81812,5
36246,81877,5
36280,81946,5
36314,82013,4
36331,82077,5
36365,82134,5
36385,82182,5
36406,82223,5
36414,82245,4
36425,82261,5
36426,82273,5
36431,82282,5
36434,82287,4
36434,82275,4
36438,82280,5
36428,82275,5
36439,82269,5
36427,82279,5
36442,82284,4
36444,82306,5
36449,82331,5
36426,82315,6
36437,82296,3
36439,82292,5
36442,82278,5
36409,82281,5
36436,82263,5
36430,82271,4
36424,82263,5
36425,82264,5
36426,82254,5
36415,82235,5
36411,82228,4
36421,82209,5
36400,82206,5
36399,82204,5
36413,82215,4
36439,82240,4
36424,82250,5
36442,82288,5
36459,82343,5
36493,82402,4
36507,82461,6
36539,82532,4
36569,82601,5
36616,82680,5
36629,82754,4
36680,82830,5
36705,82885,5
36723,82932,5
36755,82994,5
36767,83024,4
36777,83052,5
36799,83057,5
36801,83098,5
36809,83101,5
36814,83117,4
36819,83087,5
36807,83103,5
36798,83088,5
36787,83039,5
36759,82972,4
36726,82898,5
36687,82819,5
36649,82735,5
36619,82711,4
36595,82646,5
36591,82617,6
36592,82625,4
36592,82666,5
36597,82648,4
36612,82687,5
36636,82741,5
36658,82813,5
36688,82857,5
36709,82907,4
36742,82958,5
36766,83020,5
36787,83073,5
36808,83128,5
36825,83157,4
36831,83159,5
36834,83139,5
36808,83084,5
36746,82934,4
36665,82768,4
36628,82690,5
36598,82660,5
36591,82619,5
36577,82598,4
36567,82584,5
36571,82576,5
36566,82590,7
36574,82597,3
36585,82623,4
36601,82648,5
36604,82682,5
36629,82722,5
36652,82766,5
36672,82811,4
36697,82863,5
36719,82910,5
36744,82962,5
36758,83006,5
36778,83049,4
36798,83078,5
36816,83114,5
36815,83142,5
36832,83159,4
36845,83183,4
36846,83202,5
36851,83202,5
36853,83201,5
36855,83207,5
36850,83208,4
36850,83210,5
36859,83227,5
36875,83269,5
36884,83279,4
36885,83249,5
36867,83241,5
36869,83223,5
36867,83212,5
36851,83202,4
36853,83193,5
36851,83190,5
36843,83179,5
36839,83151,5
36826,83141,4
36815,83104,5
36795,83061,5
36782,83045,5
36777,83020,5
36770,83023,4
36775,83037,5
36781,83047,5
36779,83071,5
36800,83076,4
36800,83109,6
36824,83146,4
36839,83172,5
36857,83219,5
36885,83266,4
36890,83314,5
36924,83370,5
36953,83420,5
36972,83478,5
36996,83522,4
37020,83566,5
37036,83602,5
37054,83640,5
37058,83665,5
37074,83682,4
37078,83691,5
37078,83692,5
37086,83709,5
37091,83702,5
37078,83708,4
37081,83688,5
37073,83680,5
37074,83677,5
37072,83672,4
37045,83657,5
37051,83639,6
37040,83623,4
37037,83600,5
37001,83573,4
37017,83548,5
37003,83529,5
37001,83510,5
36968,83492,5
36972,83463,4
36959,83427,5
36949,83390,5
36921,83322,5
36877,83215,5
36816,83092,4
36753,82946,5
36716,82802,5
36623,82690,5
36571,82583,5
36545,82509,4
36549,82462,5
36509,82442,5
36505,82449,5
36500,82449,3
36514,82468,5
36526,82502,5
36542,82551,5
36563,82609,5
36602,82658,4
36631,82747,5
36650,82810,5
36689,82872,5
36715,82920,5
36749,82996,4
36765,83023,5
36765,83017,5
36730,82920,5
36664,82763,5
36583,82583,4
36524,82497,5
36508,82422,5
36472,82365,5
36447,82292,5
36425,82263,5
36406,82250,4
36400,82193,5
36379,82174,5
36377,82164,6
36365,82189,3
36371,82145,5
36372,82151,5
36377,82170,5
36381,82189,4
36387,82183,5
36386,82195,5
36386,82194,5
36394,82201,5
36398,82209,4
36394,82217,5
36396,82219,5
36396,82222,5
36399,82222,5
36396,82214,4
36399,82218,5
36401,82217,5
36395,82220,5
36387,82213,5
36387,82197,4
36376,82179,6
36376,82171,4
36368,82163,5
36372,82158,4
36375,82172,6
36377,82162,3
36367,82141,5
36341,82105,5
36343,82088,4
36331,82074,5
36323,82050,5
36309,82027,5
36310,82010,5
36299,81994,4
36292,81978,5
36283,81949,5
36264,81917,5
36259,81888,5
36246,81866,4
36232,81857,5
36228,81831,5
36219,81829,5
36217,81828,5
36222,81825,4
36226,81833,5
36224,81842,6
36221,81842,4
36230,81861,4
36237,81877,4
36250,81886,5
36253,81898,5
36257,81924,5
36262,81938,4
36275,81952,5
36280,81957,5
36291,81983,5
36296,81993,5
36298,82003,8
36295,82002,2
36302,82018,4
36306,82009,5
36307,82006,5
36295,82002,4
36301,81999,5
36296,82001,5
36291,81982,5
36297,81982,5
36290,81980,4
36279,81956,5
36277,81950,5
36263,81922,6
36259,81902,3
36242,81880,4
36240,81862,5
36226,81837,5
36214,81829,5
36218,81811,4
36207,81800,5
36200,81784,5
36194,81778,5
36189,81755,5
36189,81744,4
36181,81738,5
36170,81719,5
36173,81723,5
36168,81709,5
36162,81693,4
36158,81678,5
36159,81681,5
36162,81673,5
36150,81667,5
36147,81660,5
36149,81655,4
36126,81643,5
36133,81637,5
36138,81636,6
36130,81640,3
36105,81622,5
36130,81608,5
36128,81612,5
36125,81599,4
36087,81590,5
36110,81571,5
36111,81569,5
36101,81557,5
36100,81551,4
36093,81545,5
36096,81537,5
36088,81524,5
36107,81498,5
36055,81444,4
36025,81363,5
35974,81248,5
35948,81109,5
35851,80937,5
35780,80811,4
35732,80684,6
35706,80605,4
35667,80554,5
35646,80531,5
35641,80525,4
35653,80523,5
35652,80567,5
35675,80603,5
35704,80677,4
35734,80721,5
35773,80827,5
35818,80918,5
35849,81001,5
35887,81054,4
35916,81138,5
35931,81166,5
35938,81187,5
35943,81168,5
35922,81149,4
35888,81046,5
35817,80857,5
35740,80728,5
35715,80669,5
35701,80641,4
35681,80588,5
35668,80606,6
35657,80559,4
35651,80552,5
35652,80558,4
35651,80571,5
35649,80555,5
35658,80555,5
35653,80566,4
35666,80589,5
35673,80605,5
35695,80634,5
35700,80648,5
35706,80671,4
35703,80678,5
35706,80692,5
35709,80686,5
35712,80696,5
35717,80697,4
35713,80694,5
35709,80689,5
35720,80698,5
35707,80690,5
35714,80687,4
35713,80687,5
35697,80671,5
35699,80657,6
35696,80642,4
35692,80642,4
35696,80648,5
35695,80642,5
35700,80654,5
35704,80677,4
35701,80666,4
35705,80658,5
35699,80653,5
35688,80639,5
35689,80641,4
35687,80645,5
35694,80641,5
35692,80644,5
35694,80639,5
35691,80639,4
35688,80635,5
35686,80624,5
35693,80624,5
35693,80625,5
35692,80630,5
35691,80640,4
35703,80648,5
35700,80656,5
35697,80653,5
35703,80663,4
35707,80668,5
35710,80684,5
35713,80699,5
35718,80710,4
35726,80720,4
35736,80736,5
35748,80753,5
35748,80771,5
35761,80790,4
35764,80797,5
35772,80805,5
35770,80810,5
35781,80830,5
35776,80838,4
35777,80830,5
35774,80829,5
35780,80842,5
35778,80831,5
35781,80824,4
35770,80831,6
35773,80816,4
35775,80823,5
35764,80816,5
35768,80813,4
35766,80798,5
35766,80793,5
35756,80794,5
35755,80786,4
35750,80776,4
35748,80779,5
35748,80771,5
35752,80771,5
35753,80764,4
35753,80756,5
35746,80763,5
35746,80759,5
35741,80740,5
35721,80724,4
35717,80674,5
35687,80616,5
35664,80554,5
35618,80482,5
35605,80408,4
35575,80356,5
35552,80313,6
35517,80291,4
35532,80272,5
35525,80266,4
35532,80279,5
35502,80287,5
35545,80309,5
35549,80330,4
35575,80367,4
35582,80408,5
35607,80446,5
35622,80466,5
35628,80491,4
35657,80528,5
35646,80537,5
35653,80543,5
35640,80524,5
35677,80514,4
35648,80513,5
35637,80495,5
35623,80458,5
35586,80344,5
35514,80198,4
35454,80100,5
35451,80095,5
35454,80073,5
35429,80060,5
35438,80051,4
35424,80051,5
35424,80032,5
35441,80062,5
35441,80067,4
35432,80083,4
35445,80064,5
35455,80106,5
35461,80133,5
35465,80156,5
35483,80154,4
35490,80204,5
35509,80218,5
35505,80237,5
35509,80242,4
35509,80240,5
35503,80228,5
35499,80228,5
35503,80249,5
35497,80215,5
35498,80205,4
35495,80176,5
35484,80212,5
35472,80177,5
35475,80163,4
35473,80159,5
35465,80159,5
35468,80148,5
35472,80160,4
35481,80171,4
35484,80168,5
35482,80149,5
35466,80136,5
35463,80132,4
35466,80124,5
35461,80121,5
35456,80118,5
35464,80106,5
35453,80093,4
35438,80094,5
35442,80086,5
35446,80078,5
35437,80077,5
35439,80074,4
35436,80075,6
35439,80089,4
35443,80097,5
35447,80105,5
35451,80102,4
35449,80121,5
35463,80127,5
35465,80136,5
35471,80162,4
35477,80179,4
35493,80202,5
35493,80212,5
35505,80226,5
35509,80234,4
35516,80258,5
35518,80263,5
35526,80268,5
35516,80277,5
35523,80270,4
35520,80264,5
35523,80267,5
35515,80263,5
35513,80259,4
35513,80245,4
35508,80241,5
35510,80252,5
35514,80245,5
35514,80248,5
35509,80234,4
35506,80233,5
35509,80224,5
35501,80231,5
35501,80219,4
35495,80227,4
35503,80225,5
35500,80216,5
35502,80225,5
35501,80216,4
35498,80231,5
35504,80219,5
35507,80210,5
35492,80218,5
35499,80220,5
35502,80212,4
35496,80216,5
35493,80204,5
35497,80203,6
35492,80220,3
35504,80211,5
35488,80205,5
35486,80210,5
35498,80212,5
35494,80218,4
35496,80221,5
35493,80218,5
35505,80228,5
35501,80217,5
35509,80227,4
35511,80240,5
35509,80245,5
35517,80251,5
35524,80259,4
35517,80255,5
35516,80255,5
35514,80238,5
35511,80217,5
35498,80201,4
35475,80163,6
35477,80135,4
35461,80104,5
35448,80078,5
35420,80061,6
35435,80056,3
35435,80053,5
35435,80068,5
35425,80091,5
35457,80123,4
35470,80154,5
35481,80205,5
35501,80257,5
35546,80316,5
35565,80372,4
35590,80417,5
35625,80453,5
35621,80482,5
35626,80493,4
35622,80490,5
35658,80483,5
35621,80464,5
35612,80432,5
35571,80357,4
35550,80240,5
35496,80185,6
35496,80206,4
35502,80208,5
35506,80203,4
35505,80233,5
35520,80256,5
35533,80284,5
35545,80310,5
35563,80356,4
35579,80403,5
35601,80449,5
35630,80474,5
35650,80559,5
35685,80619,4
35696,80680,5
35728,80693,5
35751,80777,5
35760,80801,4
35770,80825,5
35779,80838,4
35789,80839,5
35787,80844,5
35790,80851,4
35794,80876,5
35797,80852,5
35792,80853,6
35793,80856,4
35796,80894,4
35791,80855,5
35785,80853,5
35797,80850,5
35792,80875,5
35794,80876,4
35813,80901,5
35830,80923,5
35821,80916,5
35821,80910,5
35818,80911,4
35820,80908,5
35822,80906,5
35825,80918,5
35825,80929,4
35827,80934,5
35826,80938,5
35833,80938,5
35839,80960,5
35839,80976,5
35855,80997,4
35861,81013,5
35877,81048,5
35890,81081,6
35914,81137,3
35938,81183,5
35960,81229,5
35975,81285,5
36002,81351,5
36039,81420,4
36064,81478,5
36095,81535,5
36121,81604,5
36144,81650,5
36163,81696,4
36187,81733,5
36207,81779,5
36215,81810,5
36225,81840,4
36241,81857,5
36259,81879,5
36267,81894,5
36266,81909,5
36270,81919,4
36265,81925,6
36270,81931,4
36278,81926,5
36277,81930,5
36271,81919,6
36265,81906,3
36251,81877,5
36243,81840,5
36229,81798,5
36199,81744,4
36170,81689,5
36154,81642,5
36140,81610,5
36124,81591,5
36126,81588,4
36128,81585,5
36129,81594,5
36137,81640,5
36158,81660,4
36168,81707,4
36195,81765,5
36220,81814,5
36257,81888,5
36269,81929,4
36289,81950,5
36289,81956,6
36301,81967,4
36287,81964,5
36289,81940,4
36277,81909,5
36258,81883,5
36245,81823,5
36195,81722,5
36132,81563,4
36080,81477,5
36076,81479,5
36082,81478,5
36072,81491,5
36087,81500,4
36095,81525,5
36114,81556,5
36124,81610,5
36149,81649,4
36173,81700,4
36192,81768,5
36225,81829,5
36253,81894,5
36289,81955,4
36306,82020,5
36320,82072,5
36358,82119,6
36380,82148,4
36380,82183,4
36371,82197,5
36405,82214,5
36408,82220,5
36402,82233,5
36388,82230,4
36419,82235,5
36417,82236,5
36412,82244,5
36429,82247,5
36418,82242,4
36423,82260,5
36435,82291,5
36489,82328,5
36463,82355,4
36460,82332,4
36444,82316,5
36477,82312,5
36457,82322,5
36448,82309,5
36445,82312,4
36464,82315,5
36448,82319,5
36451,82312,5
36452,82307,4
36450,82294,5
36440,82301,5
36436,82291,5
36437,82292,5
36450,82292,4
36458,82331,5
36462,82360,5
36488,82401,5
36502,82424,5
36536,82519,4
36571,82587,5
36597,82668,5
36636,82731,5
36687,82840,4
36715,82913,4
36744,82987,5
36773,83071,5
36811,83112,5
36834,83172,4
36858,83210,6
36876,83282,4
36892,83275,5
36890,83281,5
36889,83284,4
36892,83293,5
36877,83248,5
36864,83202,5
36840,83157,5
36816,83097,4
36781,83024,5
36752,82965,5
36730,82911,5
36715,82880,5
36706,82873,4
36705,82878,5
36712,82896,5
36723,82924,5
36733,82960,4
36765,83024,4
36790,83078,5
36825,83157,5
36848,83226,5
36876,83266,4
36901,83312,5
36927,83382,6
36960,83430,4
36977,83461,5
36974,83457,4
36963,83419,5
36934,83336,5
36866,83172,5
36807,83077,5
36787,83054,4
36780,83025,5
36765,83007,5
36754,83001,5
36761,83004,5
36766,83017,4
36778,83033,5
36788,83051,5
36797,83093,5
36813,83128,4
36842,83184,4
36866,83239,5
36889,83313,5
36914,83354,5
36939,83413,4
36974,83478,5
37004,83553,5
37039,83614,5
37068,83663,5
37079,83711,4
37104,83739,5
37109,83769,5
37128,83807,5
37142,83823,5
37148,83841,4
37146,83850,5
37147,83864,5
37146,83867,5
37150,83867,5
37159,83881,4
37179,83903,5
37194,83925,5
37182,83905,5
37164,83883,4
37172,83875,4
37164,83878,5
37158,83862,5
37153,83857,5
37155,83852,5
37154,83845,4
37144,83831,5
37139,83820,5
37120,83782,5
37114,83756,4
37097,83721,5
37087,83693,5
37073,83692,5
37075,83690,5
37084,83714,4
37091,83734,5
37114,83756,5
37114,83787,5
37129,83822,5
37149,83869,4
37171,83916,5
37201,83975,5
37236,84035,5
37260,84106,4
37294,84169,4
37323,84214,5
37341,84283,5
37348,84327,5
37373,84351,4
37390,84350,6
37380,84337,4
37340,84316,5
37353,84253,5
37316,84188,4
37283,84107,5
37218,84046,5
37215,83985,5
37192,83933,5
37177,83902,4
37173,83893,5
37172,83890,5
37176,83911,5
37185,83935,5
37223,83976,4
37219,84012,5
37246,84065,5
37269,84117,5
37326,84179,4
37332,84266,4
37365,84348,5
37406,84404,6
37427,84430,4
37421,84419,4
37395,84332,5
37323,84199,5
37280,84127,5
37271,84111,5
37245,84067,4
37242,84041,5
37233,84012,5
37233,84029,5
37225,84015,5
37219,84011,4
37222,83966,5
37211,83996,5
37224,84005,5
37217,84012,5
37223,84007,4
37240,84040,5
37233,84063,5
37249,84089,5
37258,84139,5
37283,84145,4
37290,84160,5
37305,84181,5
37314,84247,6
37323,84232,3
37333,84244,5
37338,84271,5
37336,84300,5
37353,84283,5
37357,84314,4
37363,84317,5
37368,84342,5
37375,84342,5
37392,84361,5
37401,84400,4
37431,84448,5
37424,84437,5
37421,84424,5
37414,84428,5
37419,84425,4
37415,84432,5
37407,84409,5
37413,84403,5
37398,84391,4
37401,84375,5
37393,84365,4
37374,84339,5
37361,84303,5
37346,84269,6
37327,84230,3
37314,84191,5
37292,84166,5
37276,84150,5
37288,84134,4
37275,84129,5
37280,84130,5
37276,84128,5
37267,84139,5
37277,84140,4
37287,84151,5
37282,84161,5
37293,84162,5
37304,84185,5
37303,84203,4
37312,84213,5
37316,84223,8
37314,84228,5
37325,84222,7
37296,84217,10
37314,84204,7
37303,84177,5
37276,84133,5
37078,83673,8
37078,83673,7
37032,83580,5
36991,83496,8
36978,83487,7
36962,83480,8
36972,83464,7
37013,83581,7
37013,83581,10
36979,83597,5
37037,83627,5
37062,83679,8
37078,83733,7
36888,83293,9
36888,83293,10
36868,83191,5
36824,83153,8
36801,83083,7
36722,82926,9
36722,82926,10
36724,82908,9
36709,82893,10
36709,82893,5
36712,82905,5
36703,82909,10
36705,82905,5
36716,82917,5
36709,82930,10
36709,82930,5
36720,82931,5
36692,82931,10
36725,82930,5
36720,82931,7
36740,82921,8
36705,82916,5
36720,82928,7
36706,82900,8
36706,82900,5
36699,82856,7
36718,82867,8
36678,82856,5
36673,82838,7
36661,82814,8
36680,82786,5
36572,82612,7
36572,82612,8
36566,82602,5
36538,82550,7
36538,82521,8
36529,82509,5
36712,82923,7
36525,82507,8
36525,82507,7
36533,82513,8
36533,82532,5
36538,82541,7
36740,82921,8
36544,82545,5
36570,82610,7
36570,82610,8
36613,82619,5
36577,82630,7
36579,82654,8
36585,82637,5
36582,82651,7
36592,82629,8
36592,82629,5
36610,82642,7
36575,82628,8
36577,82612,5
36574,82606,7
36566,82621,8
36556,82568,7
36556,82568,5
36549,82563,8
36545,82553,7
36538,82548,5
36538,82530,8
36573,82518,7
36540,82516,5
36500,82442,8
36500,82442,7
36477,82398,5
36613,82619,8
36392,82188,7
36332,82040,9
36096,81519,10
36096,81519,9
36070,81496,8
36076,81501,7
36163,81724,10
36163,81724,10
36309,82036,12
36309,82036,5
36327,82111,1
36353,82153,6
36377,82161,3
36373,82134,4
36332,82049,5
36246,81854,5
36175,81693,5
36134,81634,4
36122,81590,5
36096,81553,5
36085,81523,5
36083,81500,5
36075,81483,4
36060,81475,5
36058,81468,5
36050,81449,5
36047,81437,5
36053,81450,4
36058,81463,5
36057,81474,5
36064,81485,5
36067,81492,5
36081,81505,5
36069,81506,4
36080,81518,5
36086,81513,5
36079,81516,4
36077,81523,5
36082,81524,5
36079,81516,5
36082,81507,5
36073,81505,4
36078,81508,5
36074,81501,5
36062,81496,5
36062,81482,5
36058,81472,4
36056,81457,5
36060,81466,5
36061,81475,5
36067,81484,5
36058,81465,4
36055,81449,5
36027,81434,5
36034,81431,5
36038,81421,5
36036,81418,4
36007,81412,6
36032,81409,4
36027,81403,5
36029,81394,4
36000,81390,4
36014,81385,5
36024,81380,5
36011,81371,5
36013,81369,4
36004,81374,5
36014,81363,5
36014,81367,5
36038,81368,5
36012,81375,4
36022,81374,5
36024,81388,5
36063,81400,5
36027,81417,5
36044,81441,4
36046,81449,5
36075,81473,5
36065,81486,5
36069,81501,5
36087,81521,4
36093,81537,5
36095,81544,6
36095,81558,4
36103,81571,4
36106,81549,4
36114,81580,5
36106,81571,5
36112,81582,5
36114,81555,4
36102,81570,5
36100,81570,5
36102,81567,5
36097,81526,5
36091,81556,4
36087,81548,5
36092,81544,5
36087,81545,5
36089,81522,5
36081,81516,4
36072,81510,5
36074,81530,5
36076,81501,5
36060,81493,5
36068,81491,4
36063,81507,5
36056,81474,5
36063,81464,5
36057,81461,4
36058,81464,4
36052,81456,5
36055,81444,5
36049,81455,5
36038,81443,4
36040,81430,5
36042,81418,5
36039,81424,5
36025,81418,5
36033,81399,4
36029,81389,5
36011,81349,5
35987,81290,5
35949,81203,5
35905,81088,4
35849,80969,5
35792,80854,5
35760,80770,5
35725,80709,5
35717,80688,6
35706,80677,3
35707,80685,5
35708,80684,5
35722,80720,4
35744,80763,4
35760,80805,5
35779,80866,5
35810,80921,5
35846,80978,4
35858,81034,5
35891,81092,5
35910,81138,5
35923,81163,5
35917,81174,4
35932,81185,5
35924,81182,5
35922,81142,5
35888,81044,5
35810,80858,4
35732,80712,5
35713,80666,5
35698,80648,5
35682,80622,5
35663,80606,4
35657,80580,6
35658,80578,4
35656,80567,5
35647,80548,4
35643,80540,4
35637,80539,5
35644,80549,5
35647,80571,5
35648,80577,4
35657,80600,5
35670,80614,5
35678,80625,5
35682,80639,5
35684,80647,4
35690,80648,5
35689,80649,5
35693,80657,5
35693,80658,5
35700,80655,4
35686,80647,5
35680,80644,5
35689,80631,5
35679,80619,4
35671,80607,4
35670,80596,5
35660,80583,5
35652,80577,5
35661,80568,4
35667,80576,4
35658,80588,5
35659,80587,5
35645,80560,5
35639,80538,4
35636,80539,5
35638,80538,5
35650,80532,5
35637,80520,5
35634,80520,4
35626,80507,5
35635,80504,5
35621,80504,5
35617,80498,5
35621,80508,5
35628,80513,4
35637,80522,5
35621,80531,5
35637,80542,6
35644,80538,3
35644,80555,5
35616,80560,5
35654,80580,5
35671,80590,4
35674,80604,5
35668,80633,5
35695,80648,5
35702,80680,5
35711,80689,4
35737,80705,5
35717,80719,5
35730,80725,5
35724,80741,5
35763,80731,4
35728,80733,5
35727,80747,5
35724,80751,5
35749,80739,5
35729,80750,4
35728,80746,6
35741,80744,4
35738,80753,5
35729,80751,5
35742,80748,6
35737,80740,3
35733,80728,5
35723,80729,5
35722,80720,4
35728,80726,5
35728,80704,5
35734,80730,5
35735,80744,5
35728,80756,5
35742,80730,4
35747,80765,5
35745,80781,5
35751,80785,5
35763,80797,4
35764,80809,5
35770,80800,5
35769,80818,5
35766,80842,5
35771,80818,4
35776,80825,5
35776,80836,6
35779,80869,4
35777,80836,5
35779,80820,4
35762,80798,5
35746,80780,5
35736,80742,5
35729,80710,4
35714,80693,5
35712,80682,5
35711,80676,5
35719,80686,5
35733,80717,4
35745,80761,5
35769,80806,5
35784,80864,5
35828,80945,5
35860,81026,4
35887,81104,5
35927,81168,5
35955,81234,5
35978,81285,5
35999,81321,4
36011,81346,5
36011,81348,5
36005,81351,6
36013,81340,3
36005,81323,4
35977,81268,5
35947,81170,5
35882,81025,5
35843,80970,4
35845,80967,5
35847,80972,5
35842,80985,5
35848,80993,5
35856,81009,4
35862,81024,5
35865,81042,5
35880,81067,5
35891,81086,5
35913,81127,4
35924,81174,5
35949,81216,5
35969,81269,5
35990,81310,5
36001,81348,5
36017,81367,4
36025,81397,5
36036,81415,5
36046,81426,6
36040,81429,3
36046,81435,5
36053,81441,5
36056,81447,5
36049,81453,4
36044,81451,5
36046,81449,5
36050,81443,5
36056,81438,5
36052,81448,4
36060,81461,5
36069,81483,5
36085,81529,5
36095,81530,5
36089,81522,4
36090,81519,5
36091,81510,5
36086,81511,5
36090,81511,5
36087,81523,4
36086,81514,6
36089,81518,4
36091,81519,5
36098,81519,4
36101,81539,4
36105,81548,5
36105,81576,5
36120,81597,5
36135,81631,4
36146,81667,5
36167,81716,5
36192,81774,5
36217,81826,5
36241,81895,4
36271,81964,5
36317,82036,5
36349,82114,5
36371,82169,5
36395,82231,4
36428,82286,5
36450,82336,5
36473,82379,5
36491,82417,5
36483,82441,4
36514,82470,5
36517,82495,6
36525,82496,4
36515,82499,4
36530,82513,4
36536,82520,5
36543,82521,5
36531,82515,5
36532,82521,4
36530,82509,5
36525,82498,5
36547,82491,5
36524,82481,5
36519,82463,4
36512,82450,5
36532,82424,5
36487,82376,5
36462,82343,5
36448,82291,4
36436,82237,5
36393,82178,5
36377,82144,5
36354,82104,5
36352,82091,4
36355,82084,5
36347,82100,5
36357,82111,6
36361,82127,3
36384,82186,4
36400,82232,5
36428,82301,5
36471,82340,5
36496,82427,4
36520,82469,5
36534,82517,5
36554,82527,5
36560,82566,5
36561,82573,4
36567,82569,5
36565,82580,5
36563,82556,5
36542,82513,5
36500,82405,4
36446,82296,5
36382,82159,5
36369,82133,5
36366,82109,5
36355,82149,5
36357,82111,4
36365,82123,5
36370,82147,5
36380,82181,4
36395,82208,4
36403,82231,5
36425,82279,5
36442,82332,5
36464,82384,4
36499,82439,5
36520,82500,5
36544,82548,5
36572,82599,5
36588,82642,4
36597,82675,5
36615,82695,5
36627,82709,5
36635,82720,5
36636,82733,4
36638,82712,5
36629,82712,5
36624,82717,5
36625,82709,5
36623,82698,4
36614,82691,6
36621,82695,4
36620,82715,5
36639,82740,4
36635,82732,4
36627,82711,5
36629,82700,5
36622,82695,5
36623,82696,8
36611,82692,2
36616,82712,4
36626,82694,5
36620,82698,5
36617,82688,4
36612,82683,5
36614,82670,5
36613,82682,5
36609,82673,5
36613,82695,4
36623,82703,5
36634,82726,5
36641,82750,5
36660,82791,5
36682,82843,4
36710,82909,5
36734,82973,6
36784,83059,4
36815,83136,4
36855,83214,5
36882,83284,5
36920,83357,5
36942,83418,5
36975,83483,4
36993,83527,5
37013,83548,5
37015,83579,5
37027,83583,5
37028,83593,4
37033,83588,5
37032,83600,5
37028,83601,5
37034,83609,5
37031,83604,4
37023,83600,5
37026,83588,5
37020,83580,5
37021,83567,5
37012,83559,4
37014,83557,5
37011,83543,5
37008,83540,5
37001,83529,4
36996,83508,5
36978,83477,5
36954,83442,5
36949,83380,5
36915,83327,4
36878,83257,5
36855,83202,5
36832,83162,5
36829,83147,5
36823,83139,4
36824,83153,5
36839,83155,5
36831,83188,5
36861,83227,5
36882,83291,4
36918,83357,5
36921,83434,5
36981,83514,5
37010,83596,5
37054,83663,5
37054,83722,4
37107,83766,5
37124,83791,5
37134,83820,4
37121,83808,4
37116,83762,5
37065,83632,5
36984,83439,5
36939,83315,4
36886,83284,5
36879,83252,5
36854,83220,5
36894,83212,5
36858,83228,4
36865,83236,5
36869,83251,5
36899,83284,5
36904,83323,5
36929,83367,4
36940,83415,5
36971,83472,5
36993,83530,5
37026,83595,5
37042,83653,4
37071,83699,6
37097,83767,4
37133,83824,5
37147,83868,4
37172,83889,5
37181,83939,5
37199,83966,5
37205,83987,5
37209,83971,4
37215,84012,5
37220,84002,5
37220,84009,5
37221,84009,5
37223,84009,4
37221,84024,5
37228,84043,5
37242,84094,5
37242,84047,5
37232,84039,4
37233,84023,5
37214,84043,5
37221,84002,5
37211,83996,4
37215,83991,4
37216,84000,5
37209,83966,5
37201,83960,5
37193,83924,4
37171,83914,5
37162,83886,5
37168,83864,5
37152,83869,5
37158,83876,4
37168,83896,5
37179,83924,5
37195,83954,5
37216,83988,5
37232,84052,4
37254,84101,5
37291,84170,5
37324,84246,5
37350,84333,5
37397,84416,5
37450,84508,4
37483,84593,5
37512,84664,5
37554,84737,6
37585,84799,3
37611,84856,5
37629,84905,5
37645,84944,5
37660,84970,4
37666,84993,5
37677,85002,5
37689,84994,5
37671,84977,5
37661,84939,4
37630,84873,5
37600,84805,5
37549,84696,5
37504,84608,5
37459,84529,4
37433,84454,5
37414,84414,5
37395,84389,5
37392,84381,5
37397,84395,4
37399,84418,6
37423,84452,4
37438,84506,5
37469,84561,5
37487,84607,6
37516,84671,3
37544,84729,5
37580,84795,5
37605,84866,4
37642,84921,5
37657,84966,5
37665,84972,5
37646,84908,5
37582,84738,4
37485,84571,5
37450,84498,5
37416,84426,5
37384,84376,5
37353,84315,4
37343,84265,5
37327,84231,5
37301,84209,5
37287,84192,5
37287,84182,4
37293,84188,5
37301,84201,6
37306,84208,4
37314,84229,4
37320,84245,4
37326,84272,5
37338,84296,5
37357,84321,5
37359,84336,4
37360,84341,5
37375,84353,5
37372,84356,5
37376,84356,5
37364,84347,4
37366,84336,5
37366,84329,5
37354,84320,5
37355,84312,5
37335,84295,4
37332,84277,5
37328,84278,5
37334,84276,5
37311,84290,5
37332,84259,4
37302,84198,5
37282,84163,5
37249,84139,6
37247,84088,3
37227,84041,4
37197,83972,5
37177,83934,5
37160,83872,5
37133,83826,4
37106,83760,5
37096,83701,5
37049,83644,5
37023,83598,5
37011,83557,4
37032,83537,5
36996,83533,5
36998,83527,5
36990,83539,5
37018,83562,4
37011,83557,5
37015,83583,5
37014,83598,8
37035,83621,5
37012,83638,8
37036,83655,5
37045,83674,7
37065,83677,8
37063,83696,5
37062,83659,7
37080,83728,8
37080,83728,7
37076,83702,5
37082,83735,8
37080,83729,7
37071,83715,7
37026,83635,8
37026,83635,7
36998,83519,5
36938,83391,8
36883,83235,7
36798,83097,5
36682,82906,8
36665,82785,7
36552,82568,7
36552,82568,8
36559,82612,7
36578,82628,5
36583,82658,2
36609,82671,3
36623,82723,5
36651,82798,5
36682,82863,4
36695,82900,5
36716,82950,5
36748,83003,5
36781,83074,5
36790,83117,4
36805,83104,5
36772,83029,5
36702,82870,5
36631,82737,5
36617,82697,4
36595,82664,5
36587,82639,6
36586,82628,4
36572,82621,5
36579,82615,4
36568,82605,5
36557,82595,5
36565,82597,5
36566,82598,4
36569,82615,5
36580,82629,5
36580,82646,5
36593,82660,5
36603,82680,4
36606,82712,5
36623,82721,5
36628,82744,5
36638,82735,5
36642,82750,4
36642,82751,5
