RED,IR,EKG,TIME
47682,106964,9
47686,106981,5
47697,107000,5
47723,107047,8
47727,107087,7
47887,107407,9
47887,107407,10
47916,107439,5
47969,107583,8
48005,107655,7
48172,107976,9
48172,107976,10
48197,108048,9
48435,108533,10
48435,108533,9
48492,108669,10
48549,108771,5
48603,108856,5
48733,109103,10
48733,109103,5
48749,109116,7
48672,108966,13
48672,108966,7
48638,108900,8
48593,108773,5
48561,108739,7
48549,108684,8
48508,108598,5
48464,108539,7
48351,108353,8
48351,108353,5
48341,108280,7
48331,108273,8
48309,108262,5
48298,108228,7
48273,108184,8
48243,108103,5
47931,107439,7
47931,107439,8
47855,107306,7
47796,107180,5
47729,107036,8
47674,106913,7
47628,106845,5
47506,106660,8
47506,106660,7
47469,106644,8
47466,106538,5
46950,105478,7
46950,105478,5
46826,105243,8
46714,105027,7
46545,104861,5
46554,104747,8
46534,104651,7
46494,104599,5
46475,104484,8
46475,104484,7
46408,104484,5
46409,104455,8
46405,104482,7
46464,104492,8
46386,104476,7
46389,104456,7
46389,104456,8
46354,104450,7
46393,104444,5
46387,104460,8
46399,104495,7
46410,104499,5
46441,104512,8
46441,104512,7
46426,104584,5
46445,104580,8
46456,104583,7
46452,104553,7
46423,104505,10
46423,104505,5
46389,104398,2
46372,104386,2
46346,104435,5
46320,104303,5
46291,104245,5
46255,104187,5
46229,104189,4
46203,104089,5
46183,104028,5
46161,103996,6
46157,103985,4
46143,103952,4
46134,103929,5
46131,103925,5
46125,103903,5
46117,103885,5
46108,103891,4
46104,103865,5
46073,103817,5
46043,103734,5
45987,103624,5
45936,103493,4
45871,103354,5
45797,103211,5
45715,103065,5
45650,102906,4
45584,102790,5
45552,102719,5
45520,102681,5
45510,102648,5
45490,102636,5
45485,102610,4
45481,102619,5
45501,102651,5
45520,102710,6
45528,102713,3
45511,102658,5
45440,102498,5
45321,102237,5
45204,102002,5
45099,101799,4
44980,101584,5
44890,101367,5
44802,101210,5
44742,101100,5
44698,101025,4
44653,100952,5
44629,100895,5
44624,100870,5
44601,100845,4
44600,100850,4
44604,100850,5
44601,100862,5
44612,100871,5
44618,100886,4
44629,100903,6
44632,100916,4
44637,100920,5
44645,100931,5
44644,100955,6
44649,100955,3
44660,100966,5
44653,100971,5
44668,100971,5
44675,100995,4
44666,101017,5
44704,101068,5
44735,101137,5
44765,101194,5
44790,101234,4
44807,101265,5
44819,101301,5
44840,101331,5
44844,101349,5
44856,101351,4
44860,101387,5
44869,101411,5
44886,101423,5
44893,101436,4
44893,101442,4
44895,101431,6
44891,101412,4
44878,101394,5
44874,101373,4
44851,101355,5
44848,101325,5
44834,101290,5
44824,101257,5
44809,101242,4
44803,101224,5
44793,101215,5
44778,101202,5
44788,101200,5
44789,101206,4
44798,101214,5
44768,101222,5
44802,101242,5
44804,101243,5
44808,101253,4
44754,101241,5
44814,101242,5
44800,101236,5
44792,101192,5
44692,101118,4
44714,101032,5
44675,100933,6
44628,100826,4
44591,100709,4
44516,100590,5
44467,100496,5
44435,100450,5
44484,100422,5
44420,100404,4
44416,100425,5
44415,100424,5
44495,100439,5
44433,100460,5
44442,100468,4
44451,100502,5
44491,100533,5
44464,100540,5
44450,100507,5
44402,100379,4
44319,100177,5
44221,99988,5
44127,99821,5
44056,99664,5
43963,99450,4
43888,99348,5
43833,99251,5
43804,99181,5
43772,99065,4
43752,99099,4
43735,99057,5
43727,99060,5
43723,98998,5
43716,99037,4
43719,99048,5
43727,99061,5
43726,99106,5
43728,99072,5
43735,99067,4
43731,99079,5
43728,99137,5
43731,99060,5
43717,99048,5
43705,99017,4
43694,99060,5
43695,98991,5
43684,98974,5
43667,98951,5
43664,98947,5
43655,98933,4
43657,98932,5
43657,98923,5
43643,98875,5
43621,98841,4
43603,98805,5
43587,98766,5
43569,98737,5
43561,98722,4
43559,98709,4
43550,98695,5
43543,98682,5
43525,98655,5
43511,98620,4
43479,98552,5
43443,98471,5
43402,98364,5
43347,98259,5
43293,98162,4
43244,98054,5
43205,97967,5
43153,97877,5
43113,97773,5
43061,97685,4
43017,97607,6
42992,97565,4
42990,97564,5
42992,97554,5
42990,97555,4
42988,97561,5
42983,97560,5
42998,97548,5
42990,97555,5
42992,97567,4
42998,97570,5
42980,97539,5
42969,97487,5
42925,97380,4
42869,97266,5
42811,97148,5
42759,97034,5
42707,96926,5
42652,96816,4
42613,96750,5
42605,96731,5
42601,96740,5
42601,96750,5
42610,96768,4
42608,96761,5
42596,96738,6
42594,96744,4
42613,96746,5
42606,96753,4
42593,96722,5
42558,96616,5
42476,96413,5
42340,96158,5
42245,95966,4
42187,95860,5
42134,95769,5
42079,95656,5
42033,95548,4
41990,95458,4
41957,95384,5
41919,95327,5
41879,95250,5
41848,95166,4
41805,95097,5
41771,95043,5
41752,95005,5
41748,94980,5
41729,94954,4
41711,94907,5
41688,94858,5
41668,94812,5
41647,94770,5
41631,94750,4
41621,94731,5
41616,94715,5
41609,94706,5
41595,94690,5
41599,94677,4
41596,94664,5
41599,94675,5
41574,94714,5
41632,94757,5
41663,94831,4
41698,94895,5
41656,94912,5
41723,94933,5
41731,94951,4
41745,94949,6
41680,94942,4
41743,94956,5
41738,94955,5
41749,94966,5
41769,94975,4
41753,94974,5
41748,94956,5
41747,94967,5
41814,94979,4
41756,94980,5
41746,94975,5
41750,94965,5
41806,94965,5
41764,94999,4
41775,95030,5
41793,95059,5
41839,95082,5
41826,95117,5
41843,95155,4
41870,95197,5
41886,95223,5
41891,95275,5
41930,95335,4
41939,95351,4
41951,95321,5
41953,95378,5
41966,95397,5
41962,95377,5
41944,95286,5
41924,95310,4
41914,95297,5
41929,95311,5
41933,95320,4
41970,95410,5
42000,95494,5
42042,95597,5
42114,95784,5
42212,95950,4
42303,96165,5
42410,96332,5
42465,96538,5
42539,96641,5
42646,96843,4
42734,97020,5
42796,97166,5
42821,97155,5
42807,97087,5
42757,96986,4
42700,96908,5
42678,96845,5
42655,96801,5
42629,96762,4
42636,96776,4
42641,96800,6
42648,96797,4
42636,96791,5
42644,96807,4
42661,96838,5
42680,96889,5
42701,96946,5
42733,97000,5
42759,97075,4
42812,97185,5
42861,97297,5
42913,97383,5
42950,97442,5
42982,97534,4
43034,97632,5
43073,97721,5
43125,97814,5
43164,97916,5
43235,98055,4
43295,98164,5
43348,98253,5
43402,98376,6
43472,98537,4
43553,98701,4
43630,98862,5
43713,99014,5
43767,99122,5
43824,99233,4
43876,99338,5
43913,99403,5
43946,99455,5
43971,99523,5
44007,99583,4
44044,99644,5
44061,99713,5
44099,99773,5
44110,99782,5
44104,99759,4
44093,99761,5
44112,99764,7
44123,99818,3
44168,99898,5
44198,99993,5
44241,100053,4
44264,100116,5
44294,100181,5
44359,100302,6
44424,100463,3
44514,100628,5
44605,100809,5
44686,100974,5
44747,101079,4
44786,101141,4
44810,101184,5
44824,101228,5
44865,101305,5
44900,101357,4
44911,101373,5
44903,101332,5
44876,101282,5
44869,101248,5
44844,101207,4
44830,101192,5
44852,101235,5
44874,101290,5
44900,101361,5
44955,101451,4
45024,101594,6
45080,101710,4
45127,101797,5
45193,101962,5
45281,102145,6
45366,102323,3
45452,102475,5
45498,102556,5
45486,102470,5
45427,102343,4
45379,102229,5
45330,102156,5
45307,102135,5
45287,102154,4
45328,102184,4
45350,102218,5
45380,102286,5
45347,102338,5
45435,102369,4
45452,102426,5
45492,102555,5
45533,102734,5
45689,102971,5
45829,103226,4
45956,103472,5
46091,103702,6
46173,103921,4
46271,104079,5
46324,104209,4
46477,104368,5
46494,104535,5
46566,104680,5
46630,104783,5
46731,104893,4
46740,105023,5
46821,105174,5
46894,105350,5
47047,105613,5
47153,105882,4
47291,106152,5
47414,106378,5
47516,106567,5
47622,106782,4
47724,106999,5
47817,107158,5
47895,107254,5
47986,107490,5
48059,107640,4
48140,107787,5
48207,107860,5
48263,108004,6
48269,108031,4
48275,108020,5
48269,107993,4
48280,108021,5
48277,108054,5
48319,108102,5
48331,108165,4
48330,108140,5
48335,108147,5
48350,108172,5
48362,108289,5
48394,108264,4
48423,108341,5
48468,108436,5
48499,108545,5
48520,108500,4
48514,108496,4
48489,108462,5
48472,108417,5
48440,108347,5
48421,108305,5
48400,108241,4
48348,108133,5
48270,107983,5
48214,107837,6
48138,107721,3
48081,107583,5
48011,107456,5
47963,107355,5
47935,107342,5
47927,107322,4
47918,107313,5
47914,107310,5
47892,107290,5
47902,107299,5
47910,107287,4
47886,107264,5
47856,107151,5
47717,106875,5
47556,106564,5
47427,106306,4
47285,106044,5
47125,105769,5
46970,105460,5
46762,105033,4
46520,104563,6
46326,104211,4
46231,104053,5
46169,103900,5
46099,103790,4
46059,103705,5
46016,103643,5
45947,103478,5
45806,103205,5
45626,102841,4
45448,102476,5
45290,102151,5
45193,101994,5
45130,101869,5
45081,101778,4
45062,101726,5
45007,101561,5
44861,101252,5
44712,100996,5
44621,100833,4
44575,100749,5
44523,100638,5
44442,100475,5
44386,100371,4
44348,100299,4
44306,100215,6
44240,100017,4
44106,99788,5
43989,99549,4
43840,99256,5
43721,99027,5
43660,98935,5
43658,98952,5
43683,98990,4
43692,99028,5
43712,99042,5
43702,99018,5
43682,98962,5
43657,98935,4
43662,98928,5
43671,98946,5
43677,98966,5
43693,99005,5
43707,99021,4
43723,99055,5
43744,99088,5
43764,99131,5
43791,99165,4
43819,99221,4
43864,99353,5
43949,99514,6
44019,99650,4
44043,99683,4
44052,99683,5
44027,99652,5
44011,99598,5
43978,99520,5
43956,99464,4
43896,99435,5
43932,99425,5
43910,99389,5
43884,99338,5
43837,99360,4
43916,99391,5
43918,99402,5
43915,99406,5
43887,99410,5
43935,99465,4
43966,99539,5
44017,99646,5
44095,99735,5
44073,99719,5
44051,99654,4
44015,99604,5
44068,99592,5
43982,99557,5
43965,99508,4
43948,99477,4
44005,99488,5
43961,99522,5
43987,99583,5
44019,99635,4
44072,99692,5
44079,99772,5
44139,99880,5
44191,99959,5
44206,99968,4
44240,100066,5
44298,100210,5
44404,100413,5
44505,100547,5
44590,100764,4
44650,100894,5
44701,100977,5
44723,100956,5
44763,101105,5
44813,101208,5
44882,101336,4
44961,101506,5
45059,101717,5
45175,101948,5
45304,102209,4
45411,102471,5
45527,102630,5
45610,102804,5
45702,102987,4
45817,103298,5
45932,103472,5
46055,103692,5
46151,103869,5
46235,104075,4
46314,104196,5
46388,104311,5
46431,104407,5
46461,104477,5
46485,104499,4
46494,104508,5
46510,104532,5
46524,104565,5
46538,104589,5
46553,104617,4
46561,104634,7
46565,104638,3
46560,104637,5
46567,104633,5
46567,104653,4
46578,104673,5
46582,104665,5
46570,104663,5
46576,104662,4
46564,104654,4
46566,104643,5
46546,104581,5
46504,104507,5
46471,104425,4
46430,104347,5
46385,104264,5
46339,104172,5
46294,104057,5
46242,103980,4
46221,103945,5
46226,103941,5
46236,103964,5
46227,103964,5
46220,103949,4
46228,103985,5
46258,104043,6
46289,104104,4
46290,104110,5
46273,104048,4
46202,103878,5
46094,103656,5
46000,103479,5
45926,103341,5
45843,103179,4
45762,103015,5
45682,102885,5
45639,102818,5
45614,102765,4
45602,102734,4
45586,102701,5
45570,102683,5
45553,102665,5
45548,102657,4
45561,102688,5
45572,102724,5
45593,102754,5
45620,102829,5
45649,102879,4
45670,102915,5
45694,102956,5
45701,102961,5
45698,102973,5
45696,102985,4
45720,103011,5
45722,103021,5
45720,103031,5
45728,103028,5
45737,103053,4
45758,103095,5
45792,103165,5
45816,103229,5
45843,103273,5
45874,103336,4
45911,103405,5
45928,103451,5
45944,103474,5
45955,103497,4
45960,103519,5
45975,103542,5
45989,103558,5
45991,103568,5
45990,103543,5
45974,103517,4
45946,103480,5
45917,103414,5
45897,103364,5
45878,103314,4
45855,103269,5
45788,103225,5
45823,103207,5
45819,103196,5
45800,103181,4
45747,103167,5
45791,103166,5
45799,103159,5
45791,103167,5
45743,103152,4
45790,103147,5
45780,103132,5
45761,103088,5
45761,103011,4
45675,102889,4
45612,102744,5
45536,102608,4
45554,102509,5
45436,102402,4
45395,102296,7
45326,102182,3
45329,102088,5
45254,102043,5
45238,102033,4
45234,102032,5
45253,102023,5
45232,102017,5
45234,102056,5
45267,102127,4
45303,102188,5
45327,102251,5
45324,102233,5
45280,102092,5
45173,101843,4
45084,101715,5
45011,101570,5
44940,101453,5
44877,101258,5
44834,101224,4
44802,101184,5
44781,101127,6
44774,101100,4
44758,101102,4
44749,101088,4
44745,101080,5
44745,101133,5
44750,101082,5
44754,101108,4
44761,101134,5
44777,101230,5
44794,101181,5
44797,101211,5
44802,101218,4
44817,101270,5
44822,101251,5
44825,101258,5
44828,101278,5
44838,101299,4
44843,101316,5
44865,101345,5
44887,101389,5
44915,101466,5
44957,101555,4
45011,101653,5
45045,101728,5
45086,101792,6
45110,101864,3
45158,101940,4
45187,101993,5
45211,102042,5
45248,102110,5
45265,102156,4
45283,102190,5
45299,102210,5
45298,102215,5
45295,102202,5
45287,102189,4
45281,102163,5
45266,102124,5
45239,102082,5
45215,102022,5
45189,101962,4
45159,101911,5
45141,101860,5
45115,101836,5
45102,101792,5
45084,101771,5
45074,101747,4
45077,101746,5
45064,101741,5
45068,101730,6
45051,101699,3
45045,101689,5
45031,101651,5
45009,101591,5
44960,101509,8
44912,101389,1
44858,101267,5
44814,101187,5
44772,101093,5
44712,100982,4
44660,100871,5
44621,100813,5
44614,100793,5
44613,100806,5
44632,100839,4
44631,100861,5
44640,100889,5
44659,100918,5
44686,100968,5
44710,101032,4
44749,101082,6
44754,101100,4
44729,101034,5
44656,100868,5
44559,100672,4
44479,100516,5
44419,100393,5
44360,100283,5
44302,100181,4
44257,100087,4
44230,100029,5
44202,99977,5
44173,99953,5
44166,99916,4
44148,99898,5
44149,99904,5
44162,99917,5
44164,99944,5
44184,99965,4
44198,99998,5
44207,100027,5
44221,100053,5
44235,100080,5
44249,100106,4
44256,100148,5
44281,100174,6
44291,100212,4
44301,100226,5
44325,100262,4
44341,100302,5
44359,100346,5
44337,100395,5
44408,100459,5
44445,100511,4
44465,100566,5
44425,100583,5
44493,100610,5
44511,100634,4
44526,100668,4
44515,100711,5
44566,100762,5
44591,100810,5
44613,100847,4
44669,100896,5
44646,100913,5
44652,100933,5
44662,100924,5
44726,100927,4
44651,100911,5
44643,100897,5
44633,100877,6
44660,100847,4
44609,100813,4
44594,100789,5
44593,100781,5
44597,100769,5
44577,100755,5
44584,100774,4
44593,100775,5
44594,100769,5
44601,100799,5
44601,100829,4
44609,100837,4
44617,100804,5
44635,100877,5
44643,100903,5
44644,100908,5
44649,100843,4
44651,100901,5
44641,100874,5
44618,100831,5
44584,100749,5
44536,100636,4
44473,100507,5
44415,100381,5
44348,100309,6
44293,100113,3
44229,99994,5
44178,99919,5
44159,99953,5
44153,99871,5
44164,99894,4
44178,99945,5
44210,100021,5
44232,100042,5
44248,100087,5
44260,100129,4
44277,100162,5
44283,100190,5
44307,100220,5
44321,100228,4
44300,100172,4
44230,100011,5
44133,99812,5
44035,99622,5
43963,99485,4
43904,99369,6
43849,99258,4
43801,99175,5
43770,99120,5
43756,99099,4
43737,99069,5
43736,99072,5
43738,99062,5
43721,99061,5
43740,99077,4
43742,99104,5
43754,99127,5
43772,99154,5
43777,99182,5
43786,99200,4
43797,99221,5
43804,99237,5
43813,99258,5
43825,99287,5
43834,99310,4
43851,99330,5
43861,99346,5
43873,99381,5
43885,99400,4
43901,99451,5
43927,99504,6
43957,99576,4
43997,99636,5
44013,99677,4
44036,99702,5
44041,99724,5
44056,99743,5
44069,99770,5
44075,99782,4
44083,99804,5
44091,99832,5
44107,99848,5
44112,99854,5
44113,99854,4
44112,99845,5
44104,99822,5
44089,99804,5
44085,99784,5
44073,99762,4
44061,99733,5
44045,99695,5
44034,99662,5
44012,99641,4
44000,99627,4
43999,99603,5
43990,99610,6
44002,99616,4
44001,99614,4
43996,99629,5
44005,99646,5
44014,99646,5
44016,99660,5
44030,99682,4
44026,99699,5
44042,99717,5
44046,99720,5
44049,99725,5
44039,99717,4
44037,99686,5
44013,99656,5
43993,99573,5
43941,99476,5
43892,99354,4
43829,99230,5
43765,99111,5
43706,98993,5
43660,98883,5
43585,98796,4
43588,98738,5
43570,98739,5
43583,98752,5
43546,98783,4
43611,98831,5
43629,98860,5
43636,98887,5
43607,98949,5
43691,99015,4
43716,99073,5
43747,99123,5
43723,99094,5
43700,98989,5
43634,98872,4
43600,98800,5
43617,98753,5
43560,98724,5
43550,98702,5
43549,98708,4
43618,98741,5
43566,98768,5
43576,98790,5
43613,98825,5
43658,98876,5
43653,98939,4
43681,99019,5
43738,99113,5
43791,99223,5
43843,99326,4
43886,99434,5
43934,99543,5
43988,99596,5
44031,99728,4
44079,99805,5
44119,99904,5
44159,99933,5
44211,100086,5
44259,100179,4
44298,100272,5
44346,100282,5
44392,100448,5
44442,100569,5
44506,100699,5
44573,100809,4
44635,100912,5
44665,100994,5
44706,101057,5
44746,101205,4
44784,101216,6
44812,101276,4
44847,101346,5
44883,101499,5
44908,101476,4
44931,101507,5
44935,101527,5
44964,101557,5
44947,101510,4
44937,101506,4
44934,101497,5
44933,101499,5
44938,101486,5
44927,101481,4
44926,101483,5
44936,101490,5
44946,101512,5
44954,101551,5
44980,101596,4
45018,101665,5
45046,101723,5
45084,101820,5
45138,101894,5
45168,101986,4
45215,102071,5
45265,102170,5
45314,102260,5
45357,102346,5
45393,102434,4
45430,102482,5
45467,102527,5
45470,102557,5
45476,102561,5
45467,102533,4
45448,102478,5
45415,102403,5
45381,102330,5
45342,102257,4
45312,102189,4
45295,102138,5
45271,102107,5
45252,102091,5
45269,102110,5
45270,102132,4
45295,102190,5
45321,102249,5
45363,102332,6
45397,102411,3
45448,102521,5
45516,102664,5
45585,102817,5
45654,102928,5
45682,102963,4
45666,102891,5
45605,102766,5
45543,102643,5
45501,102555,5
45469,102500,4
45439,102451,5
45415,102414,5
45415,102410,5
45417,102417,4
45423,102429,4
45435,102456,5
45451,102500,5
45480,102552,5
45508,102626,4
45547,102703,6
45585,102796,4
45619,102888,5
45687,103001,5
45735,103098,6
45781,103187,3
45830,103265,5
45864,103353,5
45900,103422,5
45939,103492,4
45973,103564,5
45995,103623,5
46045,103702,5
46086,103781,5
46124,103873,4
46187,104001,5
46257,104148,5
46318,104267,5
46381,104359,5
46419,104439,4
46449,104505,5
46485,104569,5
46509,104614,5
46542,104656,4
46558,104706,4
46567,104744,6
46608,104790,4
46622,104812,5
46640,104824,4
46584,104824,7
46628,104815,3
46624,104804,5
46615,104789,5
46552,104781,4
46612,104796,5
46622,104818,5
46640,104848,5
46632,104889,5
46696,104965,4
46741,105045,5
46773,105144,5
46883,105255,5
46906,105372,5
46963,105493,4
47017,105625,5
47152,105758,5
47160,105878,5
47215,105993,5
47267,106123,4
47373,106240,5
47392,106359,6
47452,106464,4
47498,106549,4
47552,106646,5
47573,106684,5
47583,106674,5
47561,106646,5
47532,106542,4
47501,106504,5
47469,106436,5
47438,106375,5
47419,106279,5
47416,106321,4
47409,106335,5
47417,106360,5
47438,106344,5
47464,106485,5
47511,106568,4
47561,106655,5
47620,106805,5
47703,106985,5
47817,107208,5
47897,107337,4
47931,107452,5
47910,107313,5
47854,107200,6
47796,107098,3
47751,107084,4
47714,106913,5
47682,106861,5
47656,106828,5
47666,106874,4
47673,106860,5
47678,106885,5
47693,106920,5
47713,106964,5
47744,107014,4
47769,107066,5
47802,107130,5
47831,107202,5
47876,107290,5
47907,107375,4
47954,107449,5
47983,107509,5
48007,107560,5
48037,107615,5
48064,107667,5
48098,107712,4
48115,107762,5
48132,107807,5
48158,107841,6
48183,107878,3
48194,107922,5
48232,107990,5
48254,108048,5
48280,108087,4
48282,108104,4
48295,108106,5
48296,108115,5
48292,108114,5
48283,108087,4
48265,108059,5
48260,108040,5
48249,108018,5
48230,107990,5
48217,107936,4
48178,107868,5
48138,107784,5
48084,107669,6
48028,107542,4
47967,107425,4
47910,107318,6
47856,107214,4
47805,107112,5
47770,107043,5
47723,106967,4
47690,106895,5
47666,106849,5
47639,106808,5
47625,106769,5
47615,106746,4
47595,106729,5
47591,106715,5
47580,106691,5
47575,106680,4
47556,106655,4
47547,106640,5
47532,106609,5
47527,106580,5
47508,106539,4
47474,106475,5
47417,106361,5
47359,106230,5
47284,106096,5
47210,105936,4
47136,105790,5
47073,105649,6
47011,105539,4
46955,105425,5
46917,105369,4
46894,105340,5
46886,105322,5
46886,105315,5
46879,105309,5
46871,105320,4
46890,105359,5
46910,105382,5
46906,105385,5
46884,105340,4
46812,105152,4
46676,104864,5
46532,104581,5
46405,104339,5
46297,104108,4
46180,103921,5
46101,103765,5
46018,103647,5
45995,103576,5
45966,103519,4
45931,103475,5
45869,103454,5
45909,103436,6
45905,103436,4
45912,103444,4
45852,103464,5
45920,103480,5
45932,103497,5
45936,103504,5
45907,103513,4
45948,103524,5
45943,103527,5
45943,103524,5
45978,103523,5
45948,103533,4
45952,103541,5
45955,103536,5
46028,103546,5
45962,103567,4
45984,103617,4
46000,103635,5
46058,103648,5
46003,103633,5
46000,103632,5
46008,103637,4
46013,103629,5
45993,103625,5
45992,103614,5
45980,103608,4
45982,103564,5
45972,103566,5
45960,103525,5
45925,103452,5
45884,103316,4
45833,103276,5
45780,103168,5
45733,103058,5
45683,102905,5
45638,102901,4
45597,102825,5
45590,102772,5
45558,102728,5
45546,102709,5
45531,102691,4
45528,102693,5
45526,102760,5
45533,102693,5
45530,102705,4
45539,102717,5
45541,102792,3
45547,102724,5
45543,102734,5
45532,102717,4
45528,102744,5
45522,102671,5
45499,102621,5
45448,102522,5
45394,102409,4
45330,102268,5
45265,102112,5
45185,101964,5
45124,101822,5
45056,101710,4
45017,101626,5
44990,101594,5
44987,101572,5
44986,101577,5
44978,101574,4
44967,101573,5
44973,101594,5
45004,101645,5
45020,101685,5
45030,101692,4
45007,101644,6
44950,101487,4
44841,101272,5
44743,101075,4
44666,100924,5
44596,100792,5
44534,100676,5
44479,100584,5
44449,100543,4
44432,100507,5
44429,100493,5
44411,100489,5
44419,100489,5
44423,100504,4
44426,100518,5
44443,100542,5
44453,100594,5
44492,100640,5
44491,100671,4
44509,100699,5
44532,100726,5
44534,100758,5
44555,100774,5
44561,100801,4
44572,100824,5
44586,100853,6
44594,100871,4
44608,100906,4
44624,100938,4
44647,100989,5
44688,101061,5
44711,101118,5
44739,101176,4
44764,101214,5
44773,101244,5
44801,101291,5
44816,101314,5
44826,101332,4
44840,101367,5
44857,101390,5
44863,101434,5
44886,101454,5
44895,101459,4
44887,101458,5
44878,101428,5
44869,101415,5
44859,101379,5
44839,101344,4
44832,101314,5
44816,101277,5
44802,101249,5
44779,101224,5
44782,101216,4
44777,101200,5
44773,101205,5
44778,101203,5
44766,101211,4
44781,101227,4
44785,101235,5
44789,101236,5
44788,101247,5
44795,101250,4
44788,101246,5
44791,101231,5
44767,101192,5
44740,101145,5
44718,101069,4
44676,100989,5
44646,100928,5
44570,100849,5
44588,100796,5
44552,100718,5
44525,100686,4
44464,100662,5
44514,100658,5
44523,100680,5
44517,100683,4
44464,100683,5
44523,100686,5
44523,100707,5
44549,100755,5
44577,100768,4
44549,100730,5
44500,100603,5
44403,100406,5
44367,100233,4
44245,100112,4
44200,100016,5
44147,99914,5
44160,99850,5
44071,99781,4
44049,99755,5
44043,99739,6
44057,99719,4
44034,99724,5
44030,99727,4
44044,99744,7
44051,99749,3
44059,99792,5
44075,99825,5
44097,99853,4
44098,99843,5
44112,99909,5
44130,99940,5
44144,99979,5
44152,99940,4
44179,100028,5
44174,100043,5
44184,100079,5
44205,100068,4
44217,100126,4
44239,100173,5
44257,100226,5
44294,100334,5
44329,100351,4
44347,100398,5
44361,100421,5
44380,100533,6
44393,100477,4
44399,100512,4
44418,100532,5
44422,100595,5
44447,100584,5
44451,100608,5
44447,100614,4
44459,100613,5
44449,100582,5
44434,100568,5
44422,100542,5
44408,100503,4
44395,100472,5
44375,100434,5
44365,100394,5
44341,100375,5
44332,100332,4
44324,100323,5
44314,100305,5
44316,100316,5
44308,100309,5
44312,100320,4
44316,100313,5
44314,100317,5
44319,100331,6
44322,100330,3
44328,100350,5
44328,100351,5
44332,100343,5
44330,100339,5
44314,100325,4
44304,100275,5
44272,100208,5
44219,100095,5
44172,99973,5
44100,99855,4
44049,99729,5
43992,99620,5
43939,99509,5
43898,99436,5
43875,99406,4
43881,99396,5
43888,99420,5
43901,99454,5
43901,99479,5
43919,99499,5
43925,99519,4
43942,99558,5
43950,99603,5
43972,99644,6
43982,99631,3
43945,99556,5
43878,99363,5
43765,99160,5
43671,98998,4
43625,98888,5
43569,98775,5
43513,98678,5
43474,98613,5
43456,98586,4
43438,98551,5
43435,98547,5
43438,98550,5
43433,98555,5
43439,98581,4
43451,98622,5
43480,98641,5
43503,98704,5
43520,98749,5
43545,98787,4
43554,98825,6
43566,98847,4
43579,98881,5
43593,98900,5
43606,98941,4
43625,98963,5
43641,98991,5
43657,99021,5
43663,99049,4
43675,99083,5
43700,99113,5
43722,99162,5
43745,99232,5
43771,99280,4
43796,99327,5
43811,99340,5
43815,99356,5
43834,99372,5
43831,99378,4
43831,99397,5
43836,99402,5
43837,99404,5
43802,99405,5
43841,99402,4
43842,99399,5
43826,99376,6
43765,99358,4
43810,99316,5
43784,99279,4
43772,99235,5
43690,99183,5
43724,99136,5
43699,99091,4
43667,99041,4
43677,99011,5
43654,98993,5
43640,98985,5
43638,98979,4
43701,98990,5
43638,98991,5
43644,98994,5
43652,98990,5
43710,99000,4
43648,99008,5
43642,99013,5
43645,99006,5
43678,99005,5
43637,98988,4
43624,98956,5
43600,98900,5
43565,98808,6
43510,98682,4
43428,98528,4
43337,98343,5
43216,98042,5
43108,97854,5
42990,97635,5
42917,97489,4
42874,97352,5
42845,97350,5
42828,97326,5
42822,97332,5
42825,97318,4
42832,97377,5
42846,97396,5
42848,97404,5
42845,97441,4
42850,97420,5
42849,97433,5
42846,97437,5
42842,97490,5
42814,97336,5
42721,97112,4
42586,96832,5
42454,96637,5
42359,96420,6
42273,96276,3
42223,96150,5
42175,96088,5
42158,96056,5
42157,96055,5
42169,96056,4
42174,96088,5
42188,96121,5
42218,96181,5
42244,96251,4
42288,96354,4
42334,96455,5
42404,96570,5
42452,96696,5
42520,96815,4
42566,96928,5
42628,97042,5
42690,97156,5
42747,97295,5
42823,97425,4
42879,97549,6
42937,97681,4
43003,97795,5
43063,97904,5
43128,98041,4
43186,98153,5
43253,98306,5
43323,98442,5
43393,98582,5
43444,98677,8
43489,98759,1
43526,98795,5
43562,98885,5
43599,98964,5
43644,99041,4
43687,99133,5
43735,99216,5
43756,99281,5
43785,99324,4
43821,99367,4
43829,99391,5
43835,99412,5
43838,99416,5
43854,99445,4
43857,99451,5
43872,99468,6
43881,99492,4
43892,99528,5
43906,99555,4
43932,99610,5
43963,99672,5
44003,99740,5
44037,99823,5
44086,99906,4
44127,100006,5
44187,100094,5
44223,100194,5
44276,100310,5
44331,100414,4
44394,100519,5
44441,100635,5
44488,100717,5
44524,100760,5
44542,100804,4
44553,100813,5
44543,100783,5
44520,100754,5
44500,100701,4
44479,100649,5
44458,100596,5
44440,100560,6
44418,100526,4
44410,100517,4
44412,100512,5
44427,100543,5
44435,100576,5
44463,100639,5
44499,100721,4
44540,100789,5
44561,100855,5
44618,100954,5
44681,101089,5
44734,101231,4
44806,101352,5
44845,101385,5
44818,101332,5
44771,101213,5
44673,101093,4
44666,101012,5
44648,100984,5
44639,100963,5
44570,100945,5
44638,100977,4
44641,100999,5
44660,101052,5
44630,101094,5
44717,101153,4
44756,101226,5
44779,101311,5
44848,101398,5
44879,101512,5
44953,101649,4
45012,101770,5
45137,101903,5
45140,102018,5
45182,102122,5
45239,102229,4
45352,102308,5
45327,102389,5
45377,102480,5
45411,102556,5
45469,102627,4
45488,102720,5
45545,102809,5
45589,102896,5
45648,103013,5
45701,103149,5
45769,103263,4
45820,103350,5
45842,103355,5
45881,103459,4
45896,103493,4
45905,103533,5
45922,103478,5
45928,103581,5
45953,103615,4
45962,103619,5
45963,103588,5
45957,103604,5
45961,103596,5
45949,103575,4
45947,103607,5
45944,103560,5
45940,103566,5
45950,103582,5
45951,103673,4
45968,103619,5
45989,103672,5
46023,103736,5
46060,103857,5
46108,103910,4
46154,104014,6
46208,104126,4
46259,104254,5
46322,104343,5
46377,104468,4
46438,104576,5
46504,104698,5
46544,104787,5
46598,104883,4
46635,104971,4
46688,105025,5
46696,105053,5
46690,105044,5
46680,105006,4
46662,104962,5
46634,104918,5
46627,104890,5
46615,104868,5
46619,104868,4
46611,104875,5
46624,104909,5
46659,104971,5
46696,105066,5
46754,105173,4
46817,105304,5
46869,105428,5
46945,105587,5
47039,105780,5
47138,105963,4
47200,106067,5
47217,106071,5
47187,105979,5
47117,105836,5
47049,105726,4
47009,105608,5
46950,105527,5
46922,105461,5
46918,105449,4
46899,105443,5
46911,105465,5
46927,105495,5
46938,105525,5
46962,105580,5
46986,105644,4
47029,105709,5
47065,105789,5
47108,105867,6
47154,105971,3
47198,106083,5
47258,106187,5
47325,106294,5
47376,106414,5
47429,106520,4
47485,106621,5
47532,106748,5
47601,106843,5
47653,106947,5
47710,107069,4
47769,107186,5
47836,107331,5
47929,107507,5
48025,107698,4
48099,107849,4
48165,107949,5
48215,108063,5
48270,108166,5
48321,108268,4
48364,108344,6
48399,108416,4
48434,108492,5
48466,108561,5
48507,108625,6
48530,108659,3
48538,108677,5
48542,108673,5
48540,108672,5
48539,108663,4
48521,108633,5
48523,108646,5
48529,108647,5
48522,108649,5
48546,108687,4
48565,108724,5
48585,108776,5
48617,108841,5
48661,108921,5
48701,109013,4
48728,109114,5
48817,109229,5
48871,109354,5
48924,109456,4
48924,109554,4
49036,109669,6
49089,109771,4
49142,109864,5
49117,109952,4
49227,110034,7
49252,110079,3
49276,110099,5
49277,110090,5
49258,110072,4
49240,110037,5
49221,109995,5
49274,109970,5
49194,109934,5
49171,109899,4
49165,109877,5
49236,109892,5
49157,109898,5
49172,109904,5
49175,109929,4
49212,109952,5
49210,110009,5
49244,110066,5
49256,110099,5
49255,110054,4
49203,109938,5
49095,109729,6
49001,109536,4
48914,109328,4
48828,109188,4
48751,109043,5
48685,108920,5
48636,108755,5
48589,108752,4
48550,108676,5
48524,108625,5
48507,108537,5
48475,108539,5
48452,108506,4
48434,108480,5
48419,108477,4
48424,108422,5
48407,108397,5
48383,108363,4
48370,108418,5
48356,108313,5
48333,108278,5
48329,108257,5
48298,108277,4
48298,108196,5
48277,108162,5
48265,108126,6
48246,108122,3
48235,108086,4
48230,108082,5
48235,108090,5
48235,108080,5
48214,108053,4
48213,108035,5
48189,108003,5
48185,108002,5
48164,107956,5
48149,107898,4
48123,107865,5
48104,107812,5
48078,107763,5
48037,107706,5
48006,107625,4
47952,107531,5
47900,107415,5
47838,107272,5
47771,107141,5
47703,107004,5
47628,106884,4
47570,106747,5
47503,106648,5
47453,106540,6
47410,106452,3
47364,106374,5
47338,106307,5
47314,106257,5
47289,106215,4
47266,106182,4
47253,106152,5
47238,106131,5
47223,106093,5
47215,106067,4
47189,106038,5
47172,106007,5
47152,105941,5
47108,105874,5
47063,105768,4
46998,105648,5
46939,105492,5
46849,105349,5
46769,105166,5
46693,104998,4
46601,104824,6
46517,104676,4
46458,104560,5
46425,104504,5
46415,104470,4
46401,104463,5
46390,104437,5
46388,104451,5
46406,104489,5
46426,104543,4
46438,104573,5
46439,104565,5
46400,104475,5
46321,104279,4
46203,104036,5
46095,103833,5
46003,103654,5
45892,103450,5
45810,103280,4
45748,103169,5
45707,103087,5
45674,103019,5
45645,102982,5
45625,102953,4
45615,102933,5
45618,102931,6
45613,102932,4
45621,102948,5
45629,102960,4
45643,102986,5
45644,103018,5
45661,103038,5
45669,103047,5
45670,103069,4
45694,103087,5
45694,103107,5
45706,103132,5
45719,103138,4
45728,103169,4
45730,103181,5
45722,103197,5
45766,103246,5
45789,103305,4
45825,103375,5
45789,103425,5
45858,103440,5
45875,103461,5
45884,103496,4
45844,103520,5
45902,103524,5
45904,103536,6
45915,103547,4
45920,103554,4
45911,103544,5
45912,103529,5
45902,103504,5
45943,103481,5
45869,103438,4
45848,103372,5
45806,103321,5
45853,103263,5
45764,103216,5
45735,103159,4
45717,103114,5
45716,103082,5
45666,103037,5
45663,103008,4
45647,102992,4
45649,102984,5
45646,102978,5
45641,102992,5
45636,102989,5
45646,102947,4
45655,102991,5
45648,103003,5
45653,103011,5
45653,102964,4
45658,103026,5
45651,103021,5
45658,103028,5
45658,102971,5
45649,103012,4
45647,102986,5
45643,102968,5
45606,102928,5
45561,102800,5
45489,102641,4
45393,102444,5
45292,102272,5
45171,101978,5
45064,101761,5
44960,101564,4
44884,101477,5
44844,101342,5
44821,101303,5
44816,101303,4
44813,101354,5
44822,101353,4
44851,101390,5
44861,101437,5
44883,101478,4
44905,101532,5
44931,101566,5
44937,101584,5
44918,101518,5
44846,101366,4
44758,101145,5
44643,100962,5
44567,100797,5
44478,100652,5
44414,100514,4
44359,100434,5
44344,100384,5
44331,100362,5
44311,100335,5
44311,100337,4
44306,100326,5
44304,100339,5
44316,100350,6
44320,100371,4
44332,100392,4
44347,100425,6
44364,100452,4
44368,100481,5
44378,100504,4
44389,100520,4
44400,100536,5
44402,100564,5
44425,100579,5
44439,100612,4
44448,100631,5
44461,100659,5
44471,100679,5
44482,100715,5
44505,100754,4
44526,100798,5
44553,100873,5
44583,100925,5
44609,100957,5
44621,100989,4
44627,101003,5
44637,101030,5
44643,101041,5
44659,101051,5
44671,101074,4
44673,101087,5
44686,101097,5
44686,101110,5
44687,101106,5
44676,101093,4
44670,101075,5
44668,101052,5
44653,101027,5
44628,101000,4
44625,100979,5
44609,100950,5
44601,100930,5
44591,100907,5
44583,100900,4
44588,100900,5
44585,100896,5
44588,100901,5
44592,100917,5
44599,100919,4
44603,100938,5
44610,100969,5
44622,100979,5
44630,100993,5
44640,101011,4
44640,101031,5
44653,101042,5
44668,101067,5
44680,101086,5
44686,101106,4
44698,101129,5
44696,101142,5
44704,101136,5
44704,101139,4
44693,101125,4
44686,101095,5
44667,101036,5
44604,100943,5
44572,100819,4
44498,100659,5
44404,100484,5
44281,100299,5
44239,100134,5
44169,99997,4
44104,99878,6
44012,99817,4
44049,99789,5
44043,99776,5
44047,99798,5
44053,99824,4
44071,99852,5
44091,99887,5
44098,99906,5
44156,99926,4
44122,99954,5
44132,99989,5
44138,100009,5
44200,99975,5
44093,99862,4
43987,99637,5
43866,99420,5
43812,99250,5
43721,99134,4
43658,99016,4
43613,98947,5
43595,98900,5
43584,98882,5
43579,98873,4
43568,98872,5
43564,98835,6
43587,98877,4
43577,98900,5
43592,98921,4
43605,98897,7
43616,98993,3
43637,99017,5
43653,99048,5
43672,99017,4
43668,99089,5
43677,99118,5
43687,99134,5
43696,99166,5
43714,99194,4
43727,99209,5
43736,99214,5
43744,99299,5
43752,99257,5
43759,99277,4
43776,99311,5
43788,99422,5
43815,99383,5
43831,99427,4
43845,99434,4
43829,99456,5
43840,99431,6
43824,99424,4
43831,99425,4
43841,99417,5
43841,99422,5
43832,99420,5
43835,99423,5
43833,99400,4
43819,99376,5
43804,99342,5
43779,99305,5
43764,99270,5
43752,99238,4
43743,99197,5
43723,99169,5
43700,99147,5
43691,99104,5
43685,99099,4
43684,99091,5
43676,99090,5
43680,99093,5
43684,99105,5
43690,99131,4
43697,99137,5
43702,99155,5
43709,99180,6
43728,99189,3
43724,99209,5
43739,99225,5
43740,99250,5
43750,99268,5
43761,99272,4
43763,99280,5
43773,99300,5
43769,99313,5
43780,99313,5
43782,99304,4
43775,99297,5
43759,99277,5
43743,99234,5
43725,99168,5
43677,99061,4
43613,98927,5
43547,98778,5
43465,98624,5
43391,98475,5
43326,98331,5
43275,98232,4
43228,98146,5
43197,98094,5
43180,98068,6
43175,98062,3
43174,98080,5
43172,98086,5
43169,98081,5
43169,98092,4
43169,98085,5
43168,98091,5
43170,98095,5
43166,98085,5
43156,98064,4
43129,97993,5
43053,97803,5
42904,97514,5
42763,97243,5
42659,97043,4
42583,96892,5
42526,96765,5
42468,96674,5
42448,96617,5
42423,96580,4
42407,96552,6
42386,96528,4
42385,96505,5
42368,96494,5
42366,96488,4
42370,96483,5
42357,96480,5
42354,96478,5
42355,96468,4
42336,96440,4
42336,96443,5
42340,96432,5
42326,96427,5
42318,96440,4
42343,96453,5
42343,96476,5
42364,96507,5
42333,96543,5
42393,96565,4
42414,96602,5
42433,96627,5
42389,96671,5
42475,96747,5
42514,96836,4
42580,96957,5
42604,97038,6
42661,97114,4
42700,97201,5
42749,97298,4
42843,97407,5
42856,97508,5
42904,97610,5
42958,97691,5
43067,97774,4
43027,97851,5
43072,97909,5
43091,97964,5
43176,98033,4
43174,98120,4
43209,98186,5
43242,98260,5
43285,98333,5
43315,98398,4
43354,98470,5
43392,98554,5
43437,98630,5
43490,98753,5
43537,98857,4
43590,98971,5
43654,99021,5
43701,99189,6
43767,99312,4
43829,99433,4
43895,99496,5
43953,99691,5
44014,99815,5
44082,99928,5
44136,100048,4
44207,100177,5
44263,100284,5
44325,100422,5
44390,100576,5
44434,100630,4
44481,100703,5
44498,100743,5
44515,100827,5
44514,100736,4
44492,100701,5
44468,100656,5
44443,100629,5
44427,100561,5
44417,100533,5
44413,100531,4
44414,100539,5
44415,100547,5
44437,100584,6
44449,100631,3
44488,100702,5
44533,100798,5
44574,100878,5
44599,100949,5
44637,101033,4
44698,101144,5
44753,101237,5
44780,101312,5
44815,101336,5
44793,101283,4
44734,101141,5
44649,101001,5
44601,100880,5
44564,100830,4
44548,100810,4
44546,100802,5
44550,100824,5
44574,100847,5
44584,100882,4
44604,100929,6
44628,100981,4
44663,101051,5
44694,101123,5
44747,101232,4
44798,101327,5
44852,101454,5
44906,101582,5
44973,101698,5
45035,101815,4
45095,101938,5
45147,102040,5
45198,102138,5
45247,102232,5
45290,102326,4
45322,102389,5
45364,102458,5
45398,102522,5
45419,102584,5
45454,102644,4
45489,102728,5
45537,102812,5
45575,102883,5
45608,102930,4
45621,102941,4
45616,102943,6
45617,102928,4
45612,102929,5
45598,102929,4
45618,102931,5
45612,102927,5
45612,102935,5
45614,102920,5
45608,102901,4
45597,102885,5
45580,102862,5
45581,102849,5
45579,102858,5
45584,102866,4
45597,102899,5
45618,102933,5
45636,102980,5
45668,103048,5
45711,103133,4
45762,103242,5
45816,103369,5
45896,103508,5
45973,103664,5
46047,103823,4
46117,103979,5
46195,104123,6
46275,104268,4
46346,104408,4
46404,104544,5
46475,104662,5
46530,104762,5
46574,104839,5
46588,104885,4
46603,104916,5
46608,104889,5
46593,104860,5
46583,104820,5
46516,104781,4
46551,104762,5
46542,104749,5
46551,104757,5
46493,104765,5
46576,104817,4
46594,104878,5
46637,104959,5
46663,105079,5
46753,105190,5
46805,105304,4
46862,105419,5
46978,105571,5
47019,105739,5
47073,105830,4
47093,105856,4
47141,105782,5
47011,105629,5
46938,105493,5
46886,105404,4
46896,105334,5
46829,105291,5
46832,105289,5
46835,105319,5
46865,105371,4
46880,105416,5
46894,105471,5
46933,105547,5
46977,105600,5
47019,105725,4
47086,105839,5
47138,105962,5
47194,106038,5
47257,106216,5
47329,106338,5
47384,106468,4
47444,106514,5
47508,106701,5
47560,106804,5
47607,106892,5
47656,107000,4
47714,107082,5
47748,107173,5
47798,107266,4
47846,107429,4
47920,107503,5
47993,107678,5
48080,107814,5
48130,107995,4
48163,107994,5
48221,108085,5
48265,108152,5
48289,108231,5
48307,108233,4
48325,108270,5
48345,108314,5
48365,108322,5
48364,108318,5
48342,108293,4
48329,108253,7
48301,108193,3
48273,108134,5
48264,108102,5
48253,108095,4
48251,108092,5
48255,108111,5
48262,108139,5
48285,108178,5
48309,108234,8
48342,108295,1
48373,108354,5
48415,108456,5
48467,108547,4
48523,108662,5
48581,108773,5
48638,108882,5
48700,109003,5
48744,109102,4
48802,109212,5
48851,109300,5
48888,109380,5
48910,109413,5
48907,109409,4
48916,109415,5
48905,109408,5
48902,109384,5
48904,109383,5
48890,109350,4
48895,109356,5
48888,109367,5
48903,109389,5
48909,109415,5
48933,109461,4
48960,109507,5
48972,109561,5
49018,109652,5
49079,109768,4
49137,109861,4
49149,109899,5
49133,109844,5
49085,109720,5
49010,109568,5
48944,109459,4
48895,109341,5
48847,109245,5
48809,109185,6
48795,109174,3
48788,109167,5
48801,109186,5
48791,109187,5
48801,109188,5
48811,109212,4
48806,109215,5
48808,109221,5
48811,109228,5
48815,109229,5
48816,109238,4
48825,109233,5
48815,109232,5
48802,109219,5
48805,109218,5
48798,109216,4
48792,109184,5
48781,109182,5
48783,109162,5
48778,109157,4
48764,109130,5
48763,109131,4
48755,109115,5
48763,109129,5
48768,109139,6
48762,109135,3
48745,109097,5
48740,109086,5
48730,109059,5
48705,109023,4
48690,108974,5
48657,108925,5
48646,108882,5
48625,108842,5
48601,108795,4
48514,108714,5
48512,108633,5
48460,108515,5
48401,108379,5
48255,108235,4
48247,108095,5
48194,107971,5
48131,107859,5
48039,107759,5
48020,107656,4
47981,107572,6
47947,107503,4
47947,107426,5
47884,107369,4
47840,107325,6
47820,107276,3
47873,107239,5
47787,107201,5
47774,107164,4
47742,107116,5
47764,107031,5
47661,106941,5
47596,106812,5
47536,106679,4
47482,106535,5
47395,106411,5
47337,106276,5
47271,106160,5
47221,106021,4
47177,105965,5
47136,105915,5
47115,105850,5
47088,105766,5
47067,105780,4
47044,105741,5
47054,105771,6
47067,105732,4
47066,105793,5
47058,105754,4
46996,105596,5
46857,105306,5
46706,105039,5
46606,104826,4
46495,104619,5
46400,104494,5
46326,104285,5
46267,104196,5
46232,104128,4
46195,104140,5
46186,104040,5
46167,104019,5
46169,104004,5
46158,104024,4
46159,103991,5
46157,104001,5
46162,104024,5
46165,104032,5
46168,104055,4
46180,104050,5
46184,104059,5
46187,104078,6
46196,104089,4
46209,104095,4
46202,104111,5
46214,104121,5
46214,104125,5
46226,104150,4
46227,104159,4
46233,104172,5
46250,104213,5
46276,104275,5
46312,104330,4
46323,104337,5
46332,104362,5
46335,104373,5
46343,104392,5
46353,104408,4
46346,104409,5
46360,104418,5
46363,104416,5
46351,104427,5
46357,104403,5
46347,104390,4
46344,104371,5
46329,104336,5
46306,104294,6
46281,104244,3
46257,104191,5
46237,104147,5
46210,104097,5
46187,104045,5
46163,104004,4
46149,103963,5
46122,103909,5
46093,103880,5
46078,103848,4
46064,103819,4
46065,103799,5
46061,103799,5
46064,103793,5
46049,103797,4
46055,103794,5
46041,103790,5
46048,103788,5
46032,103768,5
46019,103737,4
46005,103679,6
45961,103586,4
45902,103464,5
45828,103311,5
45741,103117,4
45645,102937,5
45554,102747,5
45466,102567,5
45402,102432,5
45348,102346,4
45329,102319,5
45320,102320,5
45337,102347,5
45346,102372,5
45373,102410,4
45384,102462,5
45404,102501,5
45429,102567,5
45471,102637,4
45487,102667,5
45476,102646,5
45435,102516,5
45335,102324,5
45235,102128,4
45147,101950,5
45061,101780,6
44971,101608,4
44911,101497,5
44867,101409,4
44843,101372,5
44824,101334,5
44798,101304,5
44792,101290,5
44790,101276,4
44785,101270,5
44744,101274,5
44795,101293,5
44806,101310,5
44810,101321,4
44754,101323,5
44816,101345,5
44825,101351,5
44823,101348,4
44790,101346,4
44825,101350,5
44819,101352,5
44820,101351,5
44856,101345,4
44822,101347,5
44832,101362,5
44819,101366,6
44904,101377,4
44846,101406,4
44870,101448,5
44878,101479,5
44939,101499,5
44894,101512,5
44904,101530,4
44910,101552,5
44932,101550,5
44921,101562,5
44926,101564,5
44926,101554,4
44922,101533,5
44925,101552,5
44918,101542,5
44919,101525,5
44896,101446,4
44888,101481,5
44880,101447,5
44863,101412,5
44844,101320,5
44835,101350,4
44818,101332,5
44806,101307,5
44785,101279,5
44786,101265,4
44786,101262,5
44784,101265,5
44791,101319,5
44785,101282,5
44794,101299,4
44801,101312,5
44823,101404,5
44826,101361,5
44845,101382,5
44850,101405,4
44867,101468,5
44869,101451,5
44883,101465,5
44882,101464,5
44873,101464,4
44882,101441,5
44853,101389,5
44830,101313,5
44778,101200,5
44710,101070,5
44626,100911,4
44552,100742,5
44476,100583,5
44409,100462,4
44368,100396,5
44356,100377,5
44353,100391,5
44362,100422,5
44382,100458,4
44413,100524,5
44440,100584,5
44469,100630,5
44478,100664,5
44494,100705,4
44523,100754,5
44545,100821,5
44557,100843,5
44563,100811,5
44504,100680,4
44402,100483,5
44314,100295,5
44239,100165,5
44182,100051,5
44125,99935,4
44090,99878,6
44067,99846,4
44071,99819,5
44055,99820,4
44056,99826,4
44048,99823,5
44048,99834,5
44066,99854,5
44075,99889,4
44085,99920,5
44102,99940,5
44116,99962,5
44119,99992,5
44127,100016,4
44138,100032,5
44149,100056,5
44161,100077,5
44171,100093,5
44185,100124,4
44194,100133,5
44206,100159,5
44219,100188,5
44238,100221,5
44253,100257,4
44278,100295,5
44295,100359,6
44328,100416,4
44358,100464,5
44360,100490,4
44372,100493,5
44378,100500,5
44385,100505,5
44378,100512,4
44386,100512,4
44390,100515,5
44382,100514,5
44383,100496,5
44371,100487,4
44368,100459,5
44349,100427,5
44327,100393,5
44311,100353,5
44303,100314,4
44279,100284,5
44273,100246,5
44254,100209,5
44236,100170,5
44215,100147,4
44210,100138,5
44205,100135,5
44203,100132,5
44195,100134,5
44198,100143,4
44212,100162,5
44216,100162,5
44181,100188,5
44231,100196,5
44234,100216,4
44255,100234,5
44202,100248,5
44269,100274,5
44276,100282,4
44278,100299,5
44255,100297,5
44281,100312,5
44287,100324,5
44291,100323,4
44335,100329,5
44285,100323,5
44287,100322,5
44289,100306,5
44345,100309,5
44277,100288,4
44271,100286,5
44268,100267,5
44303,100258,5
44243,100224,4
44246,100213,5
44234,100177,5
44222,100136,5
44192,100090,5
44159,100001,4
44084,99869,5
44008,99659,5
43895,99443,5
43768,99194,4
43638,98941,4
43529,98660,5
43436,98537,5
43362,98405,5
43332,98330,5
43306,98232,4
43307,98313,6
43317,98328,4
43337,98376,5
43354,98420,4
43377,98487,7
43411,98550,3
43442,98603,5
43459,98710,5
43482,98696,4
43508,98759,5
43527,98791,5
43527,98861,5
43502,98705,5
43416,98503,4
43300,98293,5
43220,98172,5
43160,98031,5
43119,97951,5
43087,97884,4
43066,97872,5
43064,97857,5
43061,97856,5
43057,97861,4
43065,97863,4
43065,97884,5
43077,97886,6
43088,97924,5
43099,97952,3
43121,97998,5
43138,98044,5
43153,98078,5
43164,98082,5
43173,98104,4
43188,98132,5
43201,98154,5
43207,98175,5
43219,98192,5
43219,98203,4
43226,98222,5
43232,98232,5
43238,98241,5
43240,98249,5
43245,98254,4
43250,98265,5
43252,98284,5
43267,98307,5
43271,98332,5
43281,98324,4
43272,98312,5
43265,98296,5
43260,98279,6
43254,98260,3
43245,98238,4
43237,98234,5
43230,98216,5
43233,98201,5
43205,98158,4
43189,98119,5
43171,98078,5
43150,98043,5
43129,98013,5
43121,97979,4
43095,97943,5
43082,97907,5
43063,97866,5
43043,97824,5
43015,97763,4
42997,97737,5
42980,97726,5
42984,97716,5
42968,97700,5
42975,97697,5
42972,97711,4
42978,97706,5
42982,97731,5
42978,97723,6
42985,97739,3
42990,97737,5
42988,97736,5
42994,97740,5
42996,97745,4
42998,97754,5
42995,97747,5
42992,97753,5
42998,97764,5
42996,97756,4
43001,97765,5
43003,97754,5
42989,97726,5
42965,97696,5
42957,97650,4
42913,97587,5
42884,97496,5
42840,97383,5
42778,97289,5
42732,97185,4
42696,97111,6
42664,97070,4
42646,97054,5
42657,97063,5
42658,97085,4
42695,97149,5
42723,97205,5
42764,97290,5
42755,97373,4
42858,97463,4
42886,97539,5
42914,97590,5
42880,97649,5
42970,97699,4
42998,97766,5
43023,97830,5
43042,97879,5
43067,97872,5
43030,97794,4
42988,97687,5
42982,97591,5
42913,97558,5
42917,97565,5
42926,97583,4
43002,97619,5
42953,97673,6
42987,97747,4
43019,97809,5
43099,97891,4
43089,97958,5
43134,98054,5
43187,98155,5
43245,98255,5
43294,98386,4
43351,98515,5
43431,98642,5
43490,98737,5
43543,98877,4
43590,98984,5
43646,99092,5
43692,99125,5
43735,99275,5
43788,99361,4
43825,99442,5
43865,99461,5
43900,99593,5
43939,99658,5
43974,99717,5
44011,99816,4
44046,99887,5
44086,99954,6
44116,99997,4
44126,100061,4
44113,99982,5
44111,99984,5
44109,99981,5
44107,100041,5
44109,99973,4
44109,99980,5
44100,99954,5
44102,99970,5
44089,99929,4
44090,99913,4
44080,99912,5
44078,99918,5
44088,99912,5
44100,99939,4
44104,99962,5
44110,99989,5
44135,100026,5
44156,100081,5
44187,100145,5
44231,100221,4
44276,100321,5
44324,100420,5
44372,100519,6
44427,100637,3
44482,100738,5
44525,100821,5
44569,100921,5
44631,101024,5
44684,101135,4
44732,101228,5
44773,101315,5
44828,101398,5
44852,101464,5
44884,101512,4
44893,101551,5
44915,101578,5
44922,101574,5
44914,101561,4
44903,101530,4
44888,101490,5
44862,101426,5
44834,101379,5
44805,101337,4
44803,101309,6
44801,101299,4
44792,101317,5
44808,101337,5
44827,101373,4
44839,101428,5
44886,101505,5
44921,101590,5
44966,101667,5
44996,101747,4
45035,101838,5
45094,101916,5
45124,101999,5
45152,102040,5
45161,102031,4
45128,101955,5
45072,101802,5
44978,101637,5
44917,101525,4
44884,101469,4
44874,101447,5
44865,101445,5
44878,101468,5
44897,101490,4
44907,101535,5
44935,101595,6
44956,101657,4
44992,101738,5
45040,101827,4
45092,101930,5
45144,102048,5
45197,102182,5
45283,102328,5
45355,102467,4
45410,102582,5
45475,102702,5
45523,102817,5
45568,102907,5
45613,102970,4
45650,103046,5
45682,103107,5
45712,103163,5
45737,103220,5
45774,103276,4
45796,103331,5
45833,103417,5
45880,103507,5
45909,103555,4
45938,103582,4
45905,103582,5
45936,103589,6
45943,103586,4
45936,103588,4
45879,103595,5
45943,103603,5
45948,103610,5
45944,103610,5
45881,103596,4
45938,103588,5
45936,103571,5
45932,103557,5
45926,103557,5
45937,103572,4
45940,103592,5
45955,103626,5
46036,103676,5
46020,103750,5
46062,103850,4
46123,103960,5
46255,104103,5
46252,104256,5
46337,104428,5
46433,104599,4
46560,104789,5
46621,104989,5
46728,105193,5
46824,105377,4
46914,105552,5
47000,105710,5
47057,105833,5
47112,105930,5
47152,105969,4
47186,106052,5
47190,106067,5
47189,106065,5
47188,105978,5
47184,106020,4
47173,106028,5
47169,106008,5
47170,105974,5
47178,106039,5
47189,106071,4
47223,106127,6
47261,106241,4
47314,106338,5
47389,106475,5
47452,106613,6
47508,106801,3
47580,106880,5
47674,107048,5
47738,107183,4
47790,107323,4
47799,107274,5
47770,107195,5
47710,107045,5
47655,106973,4
47617,106884,5
47603,106852,5
47589,106842,5
47600,106879,5
47618,106905,4
47644,106958,5
47657,107011,5
47690,107071,5
47730,107154,5
47771,107242,4
47810,107332,5
47878,107442,5
47919,107544,5
47981,107675,5
48050,107794,4
48107,107911,6
48149,108018,4
48208,108118,5
48247,108208,5
48300,108290,4
48332,108356,5
48368,108417,5
48391,108477,5
48417,108515,4
48438,108545,5
48454,108591,5
48482,108646,5
48521,108711,5
48530,108727,4
48523,108710,5
48510,108679,5
48490,108648,5
48482,108621,5
48454,108577,4
48430,108509,5
48388,108440,5
48357,108358,5
48324,108276,5
48276,108175,4
48210,108037,5
48120,107866,5
48046,107693,5
47938,107506,5
47856,107345,4
47791,107212,5
47736,107124,5
47697,107032,5
47653,106978,4
47633,106918,4
47617,106889,5
47602,106854,5
47578,106833,5
47577,106822,4
47573,106826,5
47566,106829,5
47568,106816,5
47564,106805,5
47558,106807,5
47554,106781,4
47551,106758,5
47513,106701,5
47479,106619,6
47431,106510,3
47362,106367,5
47288,106245,5
47210,106103,5
47167,105979,5
47107,105875,4
47066,105787,5
47017,105704,5
46984,105632,5
46961,105598,5
46950,105571,4
46927,105550,5
46914,105507,5
46896,105514,5
46908,105524,4
46920,105542,5
46919,105522,5
46886,105462,5
46814,105280,5
46671,104968,4
46513,104672,6
46401,104449,4
46261,104253,5
46223,104109,5
46169,104024,6
46139,103972,3
46054,103938,5
46113,103929,5
46109,103925,5
46107,103916,4
46045,103938,5
46109,103932,5
46112,103958,5
46128,103962,5
46146,103978,4
46144,103995,5
46136,104011,5
46160,104021,5
46216,104035,4
46161,104049,4
46164,104058,5
46176,104055,5
46240,104072,5
46173,104074,4
46171,104082,5
46176,104071,6
46204,104090,4
46184,104103,5
46210,104146,4
46225,104176,5
46234,104164,5
46225,104165,5
46222,104166,5
46221,104154,4
46208,104102,5
46197,104114,5
46189,104104,5
46191,104085,5
46182,104004,4
46171,104028,5
46137,103989,5
46114,103923,5
46082,103797,5
46024,103727,4
45966,103608,5
45922,103527,5
45883,103498,5
45863,103403,4
45826,103354,4
45805,103313,5
45792,103359,6
45781,103252,4
45783,103249,4
45771,103253,5
45774,103312,5
45784,103278,5
45794,103307,5
45806,103323,4
45806,103363,5
45816,103364,5
45837,103386,5
45847,103402,5
45848,103410,4
45849,103401,5
45850,103404,5
45836,103394,5
45833,103364,5
45807,103297,4
45760,103194,5
45681,103027,5
45587,102822,5
45474,102603,5
45367,102379,4
45266,102181,5
45179,102007,5
45121,101889,6
45084,101844,3
45068,101833,4
45085,101877,5
45107,101918,5
45131,101968,5
45154,102011,4
45174,102080,5
45212,102162,5
45260,102243,5
45303,102340,5
45325,102397,4
45335,102393,5
45303,102282,5
45212,102106,5
45135,101919,5
45052,101789,4
44987,101658,5
44931,101549,5
44888,101475,5
44865,101444,5
44864,101427,5
44844,101426,4
44855,101402,5
44856,101412,5
44851,101426,6
44849,101432,3
44857,101456,5
44879,101486,5
44893,101511,5
44894,101521,4
44907,101556,5
44926,101567,5
44932,101598,5
44937,101621,5
44950,101633,4
44956,101645,5
44962,101668,5
44973,101676,5
44979,101686,5
44970,101695,4
44970,101696,5
44973,101697,5
44975,101706,5
44979,101711,5
44987,101738,4
45000,101736,6
45001,101740,4
44988,101728,5
44991,101726,5
44985,101718,4
44983,101702,5
44976,101684,5
44967,101665,5
44956,101652,4
44951,101631,4
44945,101615,5
44935,101570,5
44910,101532,5
44883,101479,4
44849,101431,5
44831,101371,5
44807,101309,5
44777,101278,5
44747,101215,4
44729,101181,5
44719,101154,5
44704,101113,5
44663,101091,5
44676,101071,4
44666,101058,5
44668,101047,6
44605,101057,4
44672,101068,5
44671,101069,4
44674,101092,5
44621,101091,5
44682,101109,5
44695,101124,5
44694,101131,4
44719,101151,5
44725,101165,5
44726,101183,5
44733,101188,4
44802,101218,4
44744,101231,5
44752,101238,5
44750,101239,5
44817,101224,4
44751,101201,5
44729,101169,5
44688,101071,5
44655,100929,5
44541,100726,4
44423,100500,5
44300,100249,5
44199,100019,6
44100,99839,4
44016,99698,4
43976,99606,5
43945,99524,5
43943,99577,5
43956,99612,5
43980,99673,4
44005,99671,5
44037,99792,5
44073,99874,5
44097,99935,5
44127,99954,4
44151,100043,5
44175,100124,5
44218,100189,5
44246,100252,4
44228,100172,4
44173,100029,5
44069,99822,5
43983,99731,5
43926,99540,5
43878,99466,4
43843,99392,5
43815,99412,5
43813,99341,5
43806,99349,4
43808,99347,5
43812,99378,5
43817,99364,5
43822,99378,5
43827,99396,4
43840,99438,5
43864,99475,5
43878,99512,5
43893,99560,5
43915,99593,4
43938,99622,5
43944,99655,5
43967,99685,5
43978,99712,5
43991,99747,4
44005,99777,5
44029,99799,5
44025,99828,5
44042,99832,4
44048,99857,6
44060,99876,4
44063,99898,5
44078,99920,5
44099,99969,4
44127,100011,5
44136,100040,5
44144,100039,5
44147,100049,5
44152,100058,4
44154,100056,5
44160,100058,5
44157,100071,5
44167,100083,5
44176,100086,4
44168,100085,5
44156,100066,5
44150,100046,5
44140,100019,5
44126,99998,4
44117,99962,5
44108,99941,5
44093,99927,5
44086,99888,4
44068,99876,4
44063,99847,6
44045,99833,4
44040,99816,5
44036,99818,4
44039,99817,5
44047,99827,5
44056,99839,5
44055,99859,5
44068,99875,4
44074,99890,5
44086,99916,5
44101,99937,5
44112,99960,5
44113,99984,4
44129,100005,5
44133,100023,5
44141,100035,5
44159,100059,5
44161,100069,4
44168,100086,5
44178,100092,5
44190,100106,5
44178,100111,5
44185,100117,4
44182,100110,5
44185,100099,5
44183,100091,5
44176,100076,4
44160,100073,4
44161,100042,5
44156,100031,5
44134,99999,5
44116,99953,4
44077,99889,5
44037,99768,5
43969,99642,5
43896,99459,5
43807,99283,4
43720,99120,5
43656,98981,5
43586,98847,5
43552,98766,5
43481,98714,4
43502,98687,5
43496,98690,5
43515,98714,5
43456,98756,5
43542,98801,4
43568,98837,5
43578,98893,5
43546,98936,5
43620,98981,5
43648,99037,4
43666,99076,5
43702,99081,5
43673,99039,5
43618,98922,4
43509,98701,5
43476,98512,5
43350,98389,5
43308,98308,5
43264,98236,4
43296,98181,5
43213,98150,5
43206,98149,5
43197,98144,5
43233,98139,4
43201,98154,5
43219,98161,4
43213,98177,5
43231,98197,5
43249,98252,5
43272,98283,3
43282,98325,5
43298,98317,5
43315,98400,5
43336,98437,4
43353,98466,5
43369,98436,5
43377,98529,5
43387,98543,4
43393,98565,4
43406,98546,4
43411,98578,5
43413,98603,5
43417,98597,4
43421,98647,5
43416,98602,5
43430,98621,5
43435,98627,5
43441,98713,4
43435,98629,5
43436,98620,6
43425,98610,4
43421,98628,5
43419,98579,4
43408,98567,7
43408,98553,3
43392,98541,5
43385,98506,5
43362,98459,4
43344,98413,5
43319,98355,5
43296,98315,5
43276,98277,5
43266,98244,4
43244,98211,5
43231,98191,5
43219,98163,5
43217,98147,4
43204,98129,4
43202,98128,5
43195,98129,5
43198,98135,5
43202,98155,4
43207,98158,5
43221,98180,5
43218,98188,6
43228,98203,4
43238,98211,4
43240,98234,5
43249,98237,5
43253,98264,5
43252,98277,5
43261,98283,4
43263,98284,5
43270,98293,5
43276,98296,5
43273,98298,5
43277,98302,4
43276,98302,5
43271,98286,5
43267,98284,5
43270,98271,5
43266,98272,4
43258,98265,5
43255,98249,5
43243,98215,5
43231,98183,5
43202,98125,4
43165,98053,5
43117,97940,5
43061,97819,6
42990,97659,3
42908,97499,5
42822,97350,5
42759,97208,5
42702,97102,5
42663,97019,4
42629,96956,5
42606,96918,5
42588,96890,5
42577,96872,5
42581,96892,4
42592,96907,5
42594,96930,5
42609,96939,5
42607,96937,5
42606,96934,4
42604,96929,5
42594,96935,5
42594,96918,5
42579,96864,5
42531,96734,5
42417,96480,4
42273,96209,5
42184,96046,5
42121,95936,6
42076,95860,3
42048,95799,5
42029,95749,5
42003,95724,5
41996,95694,4
41971,95670,5
41952,95648,5
41948,95640,5
41941,95648,5
41948,95655,4
41966,95696,5
41980,95724,5
41991,95759,5
42003,95791,5
42020,95822,4
41995,95846,5
42047,95857,5
42056,95885,5
42068,95909,5
42017,95920,4
42084,95947,6
42097,95969,4
42108,95995,5
42069,96011,4
42116,96029,4
42132,96054,5
42158,96083,5
42197,96142,5
42202,96183,4
42226,96226,5
42227,96236,5
42294,96254,5
42250,96268,5
42250,96296,4
42260,96312,5
42330,96348,5
42297,96356,5
42305,96378,5
42308,96384,4
42336,96399,5
42311,96410,5
42326,96424,5
42338,96450,5
42352,96469,4
42373,96537,5
42399,96577,6
42414,96626,4
42442,96636,5
42477,96733,4
42505,96808,5
42535,96876,5
42572,96884,5
42614,97035,4
42659,97117,4
42697,97208,5
42750,97281,5
42797,97400,5
42844,97500,4
42887,97586,5
42940,97722,5
42978,97772,5
43031,97854,5
43062,97926,4
43102,98069,5
43142,98079,5
43171,98132,5
43201,98192,5
43227,98305,4
43256,98313,5
43281,98351,5
43290,98376,6
43305,98407,5
43310,98377,3
43292,98346,5
43261,98297,5
43227,98241,5
43210,98166,5
43189,98100,4
43151,98045,5
43136,98013,5
43125,97992,5
43122,98005,4
43131,98020,4
43152,98065,5
43169,98107,5
43206,98181,5
43249,98272,4
43288,98355,5
43327,98429,5
43363,98494,5
43396,98573,5
43438,98656,5
43470,98726,4
43495,98767,5
43502,98748,5
43461,98665,5
43388,98514,4
43335,98393,5
43310,98339,5
43292,98333,5
43286,98322,5
43297,98336,4
43305,98355,5
43312,98390,5
43331,98421,5
43350,98467,5
43379,98527,4
43401,98605,5
43444,98696,5
43495,98791,5
43547,98915,4
43622,99040,5
43686,99189,5
43749,99311,5
43807,99415,5
43861,99509,4
43900,99585,6
43923,99647,4
43952,99704,5
43983,99752,5
44004,99788,4
44020,99811,5
44025,99844,5
44052,99860,5
44062,99902,5
44074,99934,4
44102,99995,5
44133,100047,5
44146,100063,5
44156,100066,5
44140,100053,4
44144,100041,5
44141,100040,5
44141,100028,5
44126,100013,4
44130,100001,4
44131,99998,5
44119,99985,5
44112,99975,5
44104,99967,4
44092,99952,5
44089,99937,6
44092,99947,4
44104,99960,5
44113,99975,4
44129,100014,5
44151,100039,5
44166,100096,5
44202,100161,5
44244,100236,4
44281,100343,5
44332,100450,5
44384,100578,5
44458,100705,5
44524,100829,4
44588,100963,5
44610,101086,5
44715,101201,5
44768,101318,5
44813,101406,4
44798,101480,5
44879,101510,5
44891,101542,5
44885,101531,4
44831,101525,4
44864,101476,5
44846,101421,6
44824,101360,4
44814,101305,4
44778,101262,5
44758,101242,5
44756,101228,5
44814,101235,5
44763,101274,4
44788,101309,5
44815,101363,5
44902,101466,5
44908,101572,5
44967,101699,4
45005,101789,5
45082,101880,5
45107,102007,5
45161,102086,5
45186,102118,5
45182,102064,4
45126,101959,5
45048,101788,5
44976,101645,6
44932,101529,3
44912,101548,5
44906,101543,5
44916,101556,5
44922,101537,4
44950,101635,5
44982,101704,5
45012,101784,5
45055,101856,5
45107,101985,4
45160,102109,5
45229,102256,5
45312,102456,5
45382,102573,5
45474,102741,4
45555,102910,5
45644,103131,5
45713,103204,5
45771,103329,5
45823,103428,4
45873,103555,5
45911,103597,5
45956,103665,5
45985,103740,5
46017,103806,5
46044,103852,4
46085,103917,5
46129,104011,5
46165,104095,4
46198,104151,4
46215,104161,5
46214,104167,5
46227,104175,5
46223,104179,4
46218,104165,5
46222,104163,5
46221,104164,5
46233,104169,5
46220,104157,4
46213,104139,5
46199,104122,5
46189,104085,5
46172,104051,5
46164,104038,4
46163,104031,5
46158,104042,5
46169,104065,5
46189,104084,5
46202,104130,4
46218,104174,6
46254,104234,4
46290,104317,5
46331,104403,5
46393,104514,4
46449,104636,5
46518,104779,5
46580,104907,5
46650,105031,4
46711,105170,4
46766,105268,5
46814,105333,5
46828,105368,5
46838,105376,4
46834,105356,5
46826,105338,5
46815,105317,5
46812,105325,5
46814,105324,4
46815,105335,5
46824,105358,5
46848,105394,5
46875,105459,5
46921,105550,4
46972,105656,5
47014,105727,5
47041,105789,5
47089,105905,5
47152,106042,4
47200,106141,5
47229,106161,5
47211,106099,5
47160,105956,5
47066,105792,4
47004,105673,5
46957,105574,5
46913,105506,5
46891,105473,4
46891,105467,4
46880,105472,5
46892,105482,5
46905,105504,5
46905,105520,5
46918,105535,4
46926,105557,5
46937,105584,5
46945,105596,6
46955,105639,3
46970,105663,5
46983,105688,5
46990,105711,5
47009,105727,5
47008,105741,4
47009,105742,5
47023,105760,5
47015,105776,5
47024,105781,5
47030,105785,4
47026,105784,5
47023,105787,5
46983,105779,5
47026,105784,5
47029,105799,4
47043,105809,5
46969,105787,5
47015,105749,5
46998,105711,4
46974,105683,6
46914,105621,4
46921,105556,5
46883,105479,5
46861,105425,6
46857,105341,3
46784,105260,5
46731,105141,5
46654,105004,5
46660,104864,4
46518,104696,5
46438,104554,5
46378,104431,5
46380,104346,5
46293,104282,4
46267,104239,5
46250,104199,5
46251,104154,5
46221,104124,5
46212,104097,4
46189,104075,5
46174,104025,5
46161,104022,5
46143,103990,4
46128,103946,4
46084,103804,6
46032,103736,4
45960,103585,5
45871,103403,5
45780,103168,6
45706,103086,3
45635,102956,5
45586,102845,5
45529,102744,4
45505,102699,5
45482,102678,5
45487,102679,5
45480,102724,5
45483,102685,4
45486,102684,5
45483,102731,5
45519,102837,5
45529,102790,5
45531,102786,4
45498,102692,5
45409,102530,5
45301,102271,5
45217,102121,5
45140,101975,4
45078,101860,5
45026,101772,6
45005,101732,4
45006,101728,4
44998,101740,4
45002,101752,5
45012,101759,5
45014,101781,5
45022,101795,4
45038,101829,5
45046,101845,5
45061,101872,5
45074,101905,5
45093,101941,4
45102,101960,5
45125,101999,5
45139,102025,5
45138,102042,5
45159,102070,4
45163,102086,5
45169,102096,5
45179,102122,5
45189,102124,5
45189,102132,4
45188,102142,5
45195,102153,5
45214,102184,6
45233,102232,4
45244,102266,4
45250,102261,5
45247,102253,5
45248,102256,5
45254,102258,4
45246,102251,4
45237,102223,5
45231,102223,5
45222,102208,5
45220,102191,4
45212,102168,5
45199,102142,5
45179,102103,5
45161,102043,5
45131,101977,4
45093,101911,5
45069,101861,5
45045,101810,5
45019,101761,5
44999,101721,5
44978,101677,4
44969,101652,5
44946,101610,5
44934,101594,6
44926,101587,3
44916,101566,5
44917,101567,5
44909,101556,5
44893,101541,5
44888,101506,4
44859,101440,5
44813,101341,5
44750,101192,5
44679,101047,4
44607,100901,5
44540,100765,5
44482,100652,5
44422,100537,5
44372,100422,4
44345,100365,5
44321,100339,5
44321,100345,5
44332,100370,5
44345,100390,4
44348,100411,6
44354,100424,4
44369,100464,5
44395,100539,5
44420,100584,4
44434,100608,5
44422,100570,5
44363,100425,5
44270,100225,5
44179,100059,4
44118,99943,5
44068,99813,5
44020,99740,5
43948,99697,4
43979,99685,4
43973,99686,5
43976,99677,5
43915,99698,5
43979,99704,4
43986,99714,5
43993,99739,5
43974,99754,5
44020,99788,5
44030,99815,4
44039,99835,5
44090,99851,6
44065,99873,4
44066,99899,5
44073,99918,4
44153,99939,5
44096,99955,5
44113,99975,5
44113,99986,5
44167,100002,4
44129,100012,5
44135,100037,5
44147,100043,5
44163,100062,5
44166,100099,4
44183,100147,5
44208,100186,5
44229,100188,5
44237,100221,4
44243,100241,4
44250,100259,5
44260,100217,5
44264,100282,5
44263,100294,4
44264,100298,5
44267,100253,5
44270,100313,6
44281,100310,4
44277,100304,5
44259,100275,4
44259,100257,5
44248,100234,5
44236,100212,5
44220,100237,4
44209,100158,5
44197,100132,5
44186,100105,5
44170,100152,5
44169,100072,4
44158,100059,5
44159,100051,5
44163,100086,5
44156,100062,5
44160,100075,4
44174,100090,5
44179,100120,5
44198,100138,5
44208,100163,5
44210,100180,4
44234,100205,5
44242,100236,5
44251,100274,5
44273,100292,4
44282,100310,5
44281,100316,5
44284,100303,5
44267,100279,5
44247,100208,4
44194,100112,5
44134,99958,5
44044,99758,5
43946,99549,5
43847,99344,4
43757,99162,5
43690,99015,5
43633,98929,5
43600,98891,5
43602,98913,4
43632,98956,5
43654,99033,5
43702,99103,5
43744,99202,4
43790,99315,5
43834,99403,4
43869,99478,5
43894,99536,5
43920,99596,4
43972,99695,5
43993,99768,5
44011,99754,5
43967,99660,5
43887,99461,4
43784,99260,5
43719,99141,5
43673,99071,5
43637,99001,5
43621,98949,4
43612,98950,5
43626,98951,5
43626,98979,5
43629,98989,5
43643,99016,4
43650,99046,5
43667,99078,5
43689,99117,5
43710,99172,5
43735,99236,4
43764,99287,6
43787,99339,4
43809,99373,5
43833,99408,4
43854,99455,4
43868,99491,5
43886,99534,5
43897,99567,5
43922,99587,4
43926,99628,5
43951,99655,5
43954,99674,5
43973,99705,5
43989,99736,4
44003,99774,5
44021,99811,5
44040,99882,5
44075,99930,5
44097,99974,4
44105,99979,5
44113,99979,5
44121,99998,5
44131,100015,5
44126,100029,4
44134,100038,5
44149,100048,5
44144,100051,5
44139,100040,5
44133,100019,4
44114,100010,5
44117,99969,5
44115,99952,5
44090,99922,4
44026,99890,5
44075,99879,5
44057,99850,5
44041,99816,5
43968,99795,4
44022,99787,5
44016,99774,5
44022,99766,5
44011,99777,5
44025,99780,4
44025,99801,5
44021,99805,5
44081,99827,5
44051,99841,5
44063,99865,4
44072,99894,5
44153,99914,5
44092,99939,5
44098,99953,5
44108,99969,4
44148,99989,5
44124,100002,5
44135,100013,5
44138,100015,4
44151,100037,4
44146,100040,5
44142,100033,5
44140,100038,5
44138,99993,4
44137,100028,5
44134,100012,5
44122,99993,5
44123,99916,5
44102,99961,4
44104,99941,5
44089,99915,5
44082,99827,5
44065,99848,5
44037,99796,5
44002,99710,3
43941,99599,5
43867,99397,5
43770,99176,5
43653,98966,4
43560,98830,5
43477,98588,5
43408,98458,5
43355,98356,5
43313,98362,4
43299,98285,5
43307,98292,5
43321,98329,5
43336,98403,4
43365,98432,5
43392,98502,5
43427,98583,5
43470,98673,5
43514,98755,4
43539,98807,5
43562,98874,6
43589,98941,4
43614,98983,5
43615,98972,4
43582,98861,7
43492,98647,3
43372,98419,5
43289,98273,5
43240,98198,4
43210,98120,5
43192,98089,5
43169,98068,5
43176,98057,5
43166,98053,4
43179,98074,5
43175,98085,5
43182,98092,5
43191,98124,4
43204,98160,4
43227,98204,5
43243,98254,5
43270,98288,5
43280,98332,4
43297,98360,5
43309,98403,5
43333,98414,6
43334,98432,4
43347,98455,4
43358,98473,5
43376,98488,5
43370,98504,5
43372,98512,5
43378,98513,4
43383,98518,5
43368,98518,5
43383,98527,5
43387,98539,5
43394,98560,4
43406,98575,5
43419,98602,5
43417,98594,5
43411,98578,4
43410,98569,4
43410,98560,5
43404,98555,5
43394,98550,5
43397,98544,5
43399,98538,4
43385,98515,5
43366,98493,5
43356,98454,6
43340,98414,3
43320,98375,5
43302,98347,5
43297,98316,5
43279,98296,5
43263,98267,4
43252,98232,5
43243,98208,5
43218,98184,5
43218,98149,5
43206,98142,4
43207,98147,5
43199,98153,5
43207,98167,5
43215,98176,5
43224,98174,4
43230,98190,5
43229,98204,5
43225,98215,5
43236,98225,4
43234,98231,6
43254,98242,4
43252,98260,5
43256,98268,5
43261,98281,6
43257,98277,3
43275,98293,5
43224,98285,5
43263,98278,5
43263,98271,4
43259,98266,5
43202,98259,5
43256,98262,5
43250,98238,5
43249,98225,4
43176,98185,5
43192,98124,5
43149,98023,5
43094,97898,5
43043,97746,4
42943,97587,5
42875,97439,5
42810,97323,5
42824,97220,4
42731,97164,4
42702,97122,6
42694,97101,4
42735,97092,5
42694,97128,4
42708,97148,5
42728,97193,5
42756,97227,5
42748,97253,5
42758,97272,4
42756,97276,5
42766,97260,5
42760,97277,5
42764,97275,5
42766,97261,4
42741,97169,5
42692,97089,5
42602,96888,5
42496,96698,5
42416,96485,4
42377,96476,5
42333,96421,5
42316,96383,5
42305,96364,4
42309,96362,4
42304,96371,5
42301,96370,6
42311,96448,4
42322,96419,4
42338,96442,5
42343,96478,5
42364,96590,5
42393,96566,5
42418,96614,4
42431,96665,5
42456,96742,5
42477,96761,5
42502,96806,5
42529,96852,4
42555,96924,5
42572,96969,5
42617,97041,5
42649,97107,5
42678,97186,4
42721,97261,5
42765,97344,5
42792,97417,5
42843,97515,5
42890,97629,4
42947,97707,5
42987,97774,5
43000,97805,6
43003,97820,3
43014,97851,4
43032,97866,5
43057,97903,5
43066,97925,5
43077,97944,4
43083,97954,5
43082,97960,5
43089,97965,5
43088,97970,5
43099,97988,4
43106,98008,5
43135,98045,5
43147,98094,5
43171,98144,5
43200,98195,4
43220,98239,5
43246,98313,5
43287,98366,5
43311,98434,5
43351,98512,5
43394,98609,4
43442,98688,5
43477,98779,5
43533,98880,5
43577,98977,4
43635,99061,5
43666,99152,5
43710,99248,5
43757,99327,4
43789,99405,5
43827,99483,5
43866,99541,5
43892,99594,5
43918,99643,4
43938,99676,5
43950,99691,5
43949,99695,5
43948,99681,5
43933,99653,4
43929,99616,5
43914,99583,5
43898,99547,5
43880,99517,5
43876,99508,4
43867,99502,6
43877,99513,4
43882,99541,5
43897,99579,5
43927,99631,4
43964,99715,5
43998,99769,5
44022,99821,5
44032,99872,4
44075,99942,4
44102,100013,5
44137,100056,5
44158,100083,5
44150,100056,4
44120,99983,5
44055,99831,5
43976,99680,5
43929,99593,5
43909,99567,4
43906,99564,5
43911,99567,5
43914,99578,5
43920,99610,5
43907,99633,4
43938,99667,5
43967,99718,6
43985,99764,4
43971,99829,5
44056,99896,4
44099,99995,5
44143,100088,5
44129,100181,5
44233,100274,5
44272,100348,4
44319,100436,5
44334,100499,5
44387,100563,5
44410,100618,4
44435,100664,4
44511,100706,5
44475,100756,5
44495,100795,5
44518,100834,5
44619,100882,4
44572,100954,5
44621,101025,5
44650,101072,6
44703,101082,3
44659,101077,5
44646,101064,5
44652,101055,5
44648,101038,5
44624,101021,4
44619,100997,5
44614,100985,5
44595,100926,5
44586,100930,5
44573,100897,4
44562,100876,5
44545,100799,5
44543,100847,5
44542,100846,5
44555,100859,4
44563,100824,5
44580,100913,5
44587,100940,5
44612,100987,5
44635,101053,4
44662,101109,5
44696,101188,5
44740,101275,5
44788,101423,5
44835,101459,4
44874,101555,5
44935,101655,5
44977,101820,5
45023,101841,6
45062,101941,3
45109,102020,5
45151,102120,5
45178,102162,5
45203,102198,4
45213,102221,5
45221,102223,5
45218,102199,5
45191,102158,5
45170,102108,4
45141,102048,5
45125,101999,5
45113,101964,5
45092,101940,5
45094,101945,4
45105,101964,5
45122,101986,5
45131,102042,5
45168,102123,4
45213,102211,6
45253,102296,4
45288,102364,5
45327,102445,5
45365,102541,4
45411,102628,5
45431,102648,5
45425,102637,5
45401,102528,5
45329,102373,4
45250,102223,5
45192,102126,5
45174,102083,5
45163,102079,5
45166,102080,4
45162,102094,5
45192,102129,5
45199,102166,5
45216,102209,5
45243,102265,4
45280,102335,5
45307,102409,5
45348,102511,5
45405,102603,4
45454,102708,4
45508,102819,6
45571,102938,4
45622,103062,5
45679,103175,4
45726,103274,5
45781,103370,5
45824,103462,5
45865,103549,5
45905,103620,4
45940,103674,5
45963,103740,5
46007,103802,5
46040,103868,5
46081,103968,4
46135,104051,5
46167,104093,5
46174,104100,5
46170,104107,5
46166,104114,4
46182,104102,5
46166,104098,5
46163,104085,5
46153,104084,4
46157,104075,4
46164,104064,5
46148,104046,5
46134,104019,5
46118,103984,4
46101,103942,4
46095,103918,5
46088,103915,5
46087,103919,5
46092,103938,4
46103,103957,5
46114,103989,5
46142,104046,5
46165,104099,5
46194,104157,4
46237,104242,5
46272,104337,5
46330,104441,5
46381,104537,5
46442,104651,5
46480,104772,4
46546,104883,5
46605,104988,5
46657,105078,6
46645,105158,3
46735,105228,5
46747,105256,5
46770,105275,5
46705,105282,5
46760,105252,4
46737,105209,5
46708,105136,5
46671,105085,5
46656,105009,4
46627,104958,4
46597,104905,5
46629,104865,5
46566,104841,5
46568,104863,4
46567,104862,5
46657,104902,5
46600,104931,5
46605,104947,5
46619,104974,4
46684,105044,6
46676,105091,4
46677,105106,5
46674,105086,5
46652,105001,6
46564,104819,3
46469,104614,5
46387,104469,5
46330,104329,5
46272,104263,4
46248,104221,5
46243,104207,5
46236,104140,5
46239,104199,5
46230,104204,4
46241,104212,5
46240,104156,5
46248,104230,5
46253,104248,4
46262,104266,6
46266,104300,4
46267,104295,5
46281,104314,5
46287,104329,4
46295,104392,5
46293,104332,6
46301,104338,4
46296,104343,5
46299,104420,4
46301,104361,5
46294,104340,5
46300,104343,5
46291,104359,5
46285,104335,4
46291,104335,5
46299,104360,5
46299,104359,5
46294,104335,5
46275,104294,4
46260,104264,5
46246,104229,5
46210,104162,5
46181,104073,4
46139,103998,4
46097,103925,5
46053,103840,5
46014,103750,5
45956,103626,4
45899,103500,5
45814,103339,5
45743,103181,6
45655,103042,4
45605,102932,4
45551,102840,5
45531,102778,5
45499,102736,5
45473,102693,5
45466,102662,4
45451,102642,5
45444,102621,5
45430,102597,5
45425,102599,5
45426,102604,4
45423,102596,5
45426,102613,5
45434,102608,5
45435,102631,5
45443,102631,4
45436,102624,5
45425,102625,5
45431,102612,5
45422,102583,5
45393,102521,4
45349,102423,5
45286,102292,5
45210,102136,6
45130,101975,3
45048,101811,5
44975,101655,5
44920,101524,5
44847,101405,5
44801,101329,4
44775,101289,5
44775,101272,5
44783,101295,5
44798,101307,5
44799,101341,4
44812,101359,5
44824,101400,5
44858,101470,5
44881,101536,5
44909,101573,4
44900,101562,5
44878,101494,5
44811,101333,5
44729,101149,5
44641,101014,5
44594,100895,4
44538,100810,5
44513,100754,5
44492,100720,4
44487,100724,4
44494,100716,5
44481,100721,5
44489,100727,5
44491,100742,4
44494,100743,5
44501,100778,5
44521,100794,5
44528,100838,5
44557,100877,4
44569,100914,5
44587,100943,5
44600,100988,5
44620,101010,5
44635,101043,4
44638,101080,5
44632,101092,5
44673,101120,5
44680,101149,5
44696,101158,4
44644,101180,6
44700,101202,4
44719,101212,5
44728,101241,4
44681,101283,4
44768,101323,5
44779,101339,5
44771,101325,5
44769,101326,4
44777,101319,5
44767,101295,5
44758,101278,5
44801,101260,5
44741,101253,4
44735,101225,5
44724,101209,5
44777,101167,5
44682,101128,5
44656,101058,4
44623,100991,5
44634,100933,5
44570,100889,5
44547,100846,5
44535,100820,4
44530,100790,5
44522,100778,6
44507,100763,4
44502,100752,5
44497,100703,4
44493,100747,5
44498,100749,5
44498,100749,5
44504,100697,4
44507,100770,4
44514,100773,5
44523,100803,5
44522,100754,5
44535,100818,4
44542,100837,5
44549,100846,5
44545,100888,5
44558,100870,5
44560,100881,4
44561,100882,5
44561,100938,5
44548,100855,5
44529,100821,5
44514,100762,4
44455,100706,5
44390,100449,5
44266,100216,6
44152,99964,4
44018,99751,4
43929,99522,5
43844,99366,5
43790,99256,5
43742,99197,5
43743,99195,4
43756,99226,5
43776,99283,5
43803,99339,5
43835,99411,4
43865,99487,4
43905,99567,5
43945,99641,5
43976,99730,5
44035,99828,4
44073,99919,5
44102,99985,5
44105,99959,5
44059,99856,5
43976,99678,5
43907,99539,4
43865,99456,5
43826,99391,5
43800,99332,5
43786,99330,4
43781,99327,5
43792,99322,5
43790,99323,5
43798,99331,5
43790,99344,4
43802,99362,5
43814,99389,5
43825,99432,5
43845,99477,5
43880,99517,4
43886,99556,5
43909,99599,5
43928,99623,5
43939,99676,4
43956,99707,5
43980,99726,5
43985,99758,5
43988,99776,5
44007,99789,4
44011,99811,6
44028,99834,4
44036,99848,5
44037,99859,5
44050,99875,4
44052,99895,5
44077,99929,5
44100,99975,5
44112,100008,5
44130,100031,4
44129,100037,5
44128,100038,5
44131,100052,5
44133,100033,5
44126,100043,4
44142,100043,5
44133,100046,5
44132,100042,5
44128,100029,4
44125,100017,4
44114,99985,5
44111,99957,5
44085,99913,5
44067,99877,4
44043,99837,5
44028,99803,6
44014,99784,4
43999,99755,5
43996,99738,4
43979,99715,5
43975,99710,5
43976,99705,5
43986,99701,5
43979,99723,4
43995,99733,5
43990,99747,5
43997,99757,5
44008,99777,5
44014,99799,4
44032,99823,5
44035,99843,5
44027,99856,5
44056,99875,5
44071,99893,4
44071,99912,5
44025,99920,5
44085,99927,5
44090,99942,4
44090,99953,4
44031,99961,5
44097,99963,5
44103,99963,5
44102,99960,4
44083,99956,5
44091,99931,5
44076,99915,5
44059,99876,5
44081,99816,4
43995,99713,5
43937,99579,5
43849,99392,5
43827,99195,5
43668,99000,4
43577,98830,5
43514,98704,5
43490,98604,5
43417,98536,5
43408,98518,4
43405,98526,5
43424,98556,5
43435,98600,5
43456,98672,5
43501,98736,4
43532,98789,5
43576,98902,5
43611,98969,5
43636,99036,4
43670,99061,4
43702,99186,5
43729,99229,5
43742,99230,5
43722,99099,4
43649,98993,5
43551,98805,5
43468,98656,5
43436,98608,5
43413,98546,4
43391,98504,5
43373,98489,5
43375,98547,6
43377,98486,4
43379,98507,4
43386,98511,6
43396,98608,4
43400,98566,5
43422,98606,5
43442,98663,6
43474,98745,3
43505,98784,5
43522,98821,5
43539,98874,5
43565,98919,4
43581,98953,5
43585,98978,5
43599,99007,5
43623,99030,4
43633,99061,5
43640,99073,5
43648,99100,5
43670,99114,5
43668,99130,4
43684,99150,5
43689,99155,5
43688,99165,5
43702,99200,5
43708,99207,4
43720,99234,5
43725,99226,6
43716,99214,4
43705,99199,5
43704,99195,4
43702,99174,7
43692,99164,3
43690,99158,5
43679,99143,5
43681,99130,4
43673,99098,5
43654,99075,5
43639,99040,5
43636,99011,4
43619,98991,4
43609,98972,5
43598,98968,5
43595,98952,5
43594,98930,4
43576,98918,5
43586,98924,5
43570,98920,5
43586,98924,5
43589,98931,4
43588,98944,5
43606,98958,5
43595,98974,6
43605,98980,4
43620,99002,4
43624,99019,5
43642,99041,5
43646,99062,5
43663,99097,5
43668,99120,4
43682,99143,5
43688,99151,5
43682,99165,5
43701,99175,5
43711,99191,4
43711,99195,5
43710,99195,5
43715,99191,5
43717,99188,4
43711,99180,4
43693,99157,5
43689,99143,5
43680,99120,5
43666,99104,5
43645,99046,4
43619,98996,5
43590,98915,5
43541,98812,6
43478,98662,3
43402,98506,5
43316,98337,5
43249,98186,5
43178,98056,5
43123,97946,4
43087,97870,5
43052,97820,5
43035,97783,5
43021,97774,5
43029,97796,4
43037,97823,5
43065,97867,5
43082,97918,5
43078,97948,5
43112,97976,4
43130,98011,5
43144,98044,5
43109,98064,5
43167,98074,4
43165,98069,6
43133,98002,4
43007,97833,5
42964,97611,5
42864,97437,6
42814,97353,3
42771,97295,5
42748,97225,5
42731,97201,5
42718,97193,4
42758,97176,5
42711,97169,5
42705,97168,5
42698,97180,5
42776,97196,4
42720,97231,5
42732,97255,5
42758,97298,5
42813,97341,5
42802,97379,4
42800,97404,5
42819,97436,5
42839,97455,5
42838,97477,4
42846,97494,4
42850,97508,6
42859,97477,4
42853,97511,5
42852,97518,4
42859,97494,5
42847,97439,5
42842,97468,5
42830,97448,5
42822,97436,5
42829,97389,4
42825,97449,5
42821,97426,5
42809,97394,5
42781,97363,4
42770,97309,5
42757,97276,5
42731,97231,5
42703,97241,5
42684,97132,4
42653,97069,5
42622,96997,5
42581,96984,5
42551,96845,5
42524,96780,4
42481,96714,5
42450,96686,6
42439,96609,4
42413,96589,4
42408,96554,4
42379,96529,5
42371,96494,5
42367,96483,5
42350,96481,4
42348,96471,5
42353,96483,5
42360,96484,5
42357,96499,5
42367,96499,4
42359,96504,5
42367,96501,5
42372,96516,5
42360,96513,5
42363,96498,4
42366,96502,5
42358,96497,5
42357,96500,5
42363,96502,5
42369,96534,4
42382,96568,5
42391,96578,5
42388,96580,6
42389,96576,4
42390,96568,4
42386,96552,5
42375,96529,5
42368,96510,5
42346,96482,4
42357,96485,5
42351,96482,5
42346,96467,5
42338,96440,5
42318,96417,4
42317,96408,5
42302,96383,5
42293,96326,5
42249,96242,5
42204,96143,4
42178,96069,5
42165,96086,5
42187,96135,5
42219,96188,5
42241,96252,5
42272,96294,4
42305,96375,5
42352,96501,5
42432,96653,5
42506,96809,4
42568,96933,5
42613,97032,5
42655,97103,5
42695,97199,4
42752,97304,4
42800,97404,5
42842,97477,5
42844,97466,5
42813,97389,4
42763,97277,5
42715,97193,5
42700,97176,5
42705,97184,5
42712,97198,4
42722,97215,5
42737,97258,5
42761,97319,5
42786,97375,5
42822,97442,4
42844,97511,6
42882,97600,4
42931,97702,5
42991,97820,5
43062,97966,4
43125,98102,5
43197,98256,5
43268,98390,5
43333,98527,5
43402,98644,4
43448,98759,5
43501,98861,5
43544,98933,5
43584,98996,4
43597,99074,4
43656,99149,5
43674,99189,5
43711,99237,5
43675,99274,4
43744,99311,5
43762,99347,5
43800,99409,5
43763,99443,5
43823,99463,4
43826,99443,5
43808,99437,6
43806,99418,4
43803,99393,5
43784,99375,4
43779,99354,5
43824,99336,5
43763,99323,5
43770,99292,5
43743,99275,4
43810,99259,5
43738,99261,5
43739,99261,5
43735,99268,4
43786,99286,4
43765,99313,5
43780,99348,5
43792,99375,5
43827,99424,4
43852,99482,5
43875,99547,5
43902,99626,5
43945,99675,5
43985,99782,4
44033,99864,5
44079,99953,5
44111,99967,6
44154,100109,4
44198,100199,4
44242,100290,5
44282,100322,5
44323,100444,5
44357,100511,5
44373,100558,5
44385,100587,4
44396,100570,5
44384,100558,5
44378,100529,5
44358,100551,4
44333,100441,5
44316,100386,5
44292,100352,5
44275,100372,4
44279,100302,4
44271,100310,5
44281,100335,5
44300,100384,5
44307,100406,5
44342,100476,4
44380,100552,5
44423,100652,5
44463,100715,5
44491,100780,4
44525,100863,5
44561,100937,5
44592,100981,5
44595,100981,5
44594,100948,4
44539,100830,5
44454,100660,5
44390,100512,5
44349,100444,5
44336,100432,4
44329,100425,5
44335,100430,5
44335,100444,5
44352,100481,4
44367,100515,4
44381,100563,5
44415,100637,5
44462,100726,5
44504,100826,4
44565,100946,6
44619,101058,4
44681,101165,5
44740,101298,5
44791,101406,4
44847,101505,5
44880,101599,5
44917,101660,5
44949,101714,5
44974,101755,4
44991,101782,5
45008,101813,5
45019,101825,5
45027,101843,5
45029,101865,4
45043,101876,5
45053,101915,5
45071,101947,5
45090,101988,5
45096,101989,4
45091,101966,5
45083,101948,5
45081,101941,5
45079,101930,4
45066,101910,4
45058,101900,6
45049,101890,4
45053,101879,5
45043,101867,4
45031,101860,5
45038,101836,5
45034,101830,5
45032,101836,5
45035,101834,4
45041,101859,5
45052,101899,5
45075,101933,5
45097,101969,5
45107,102023,4
45157,102084,5
45188,102174,5
45228,102256,5
45268,102364,5
45331,102480,4
45395,102614,5
45464,102738,5
45523,102878,5
45586,102997,4
45656,103113,4
45700,103225,5
45758,103336,5
45806,103426,5
45839,103490,4
45871,103551,5
45882,103568,5
45894,103565,5
45881,103552,5
45870,103505,4
45845,103448,5
45782,103397,5
45796,103367,5
45781,103337,5
45782,103320,4
45716,103333,5
45793,103347,5
45801,103377,5
45829,103438,5
45808,103538,5
45921,103654,4
45986,103781,5
46039,103895,5
46122,104028,6
46191,104197,3
46262,104332,5
46302,104384,5
46370,104393,5
46278,104295,4
46211,104143,4
46140,104005,5
46158,103935,5
46069,103879,5
46047,103867,4
46044,103859,5
46085,103868,5
46061,103902,5
46077,103918,5
46089,103956,4
46114,103993,5
46139,104074,5
46167,104148,5
46224,104246,5
46265,104290,4
46316,104447,6
46373,104562,4
46436,104685,5
46482,104715,5
46534,104885,6
46586,104974,3
46624,105065,5
46674,105115,5
46718,105223,5
46747,105291,6
46776,105361,3
46816,105456,5
46838,105455,5
46850,105507,4
46884,105545,5
46916,105703,5
46960,105697,5
46985,105742,5
46978,105739,4
46978,105775,5
46972,105728,5
46981,105702,5
46963,105690,5
46953,105682,4
46951,105662,5
46933,105640,6
46943,105620,4
46912,105596,5
46904,105550,4
46871,105491,5
46841,105443,5
46821,105388,5
46816,105381,5
46809,105374,4
46805,105378,5
46816,105382,5
46816,105404,5
46829,105427,4
46842,105450,4
46866,105489,5
46876,105538,5
46907,105576,5
46928,105630,4
46958,105702,5
46996,105771,5
47036,105839,5
47065,105910,5
47094,105972,4
47117,106021,5
47135,106048,5
47144,106061,10
47140,106032,7
46972,105728,7
47090,105936,8
47057,105839,7
46811,105338,9
46811,105338,10
46776,105236,5
46750,105241,5
46746,105238,10
46760,105241,5
46788,105362,7
46788,105362,8
46815,105408,5
46827,105407,7
46820,105414,8
46813,105377,5
46753,105270,7
46226,104193,8
46226,104193,5
46135,104092,7
46111,104035,8
46111,103984,5
46089,103946,7
46071,103937,8
46035,103860,9
46035,103860,8
46047,103829,5
46047,103875,7
46064,103893,8
46078,103899,5
46055,103894,7
46070,103912,8
46070,103912,5
46057,103851,7
46060,103896,8
46060,103908,9
46061,103909,5
46083,103954,8
46083,103954,7
45992,103940,5
46066,103913,8
46055,103894,7
46035,103857,8
45887,103628,9
45887,103628,5
45894,103560,8
45836,103414,7
45783,103307,5
45748,103159,8
45637,103023,7
45567,102890,5
45359,102482,8
45359,102482,7
45381,102376,7
45300,102390,8
45298,102365,7
45279,102363,5
45280,102330,8
45280,102330,7
45248,102362,5
45276,102362,8
45294,102378,7
45304,102335,10
45304,102335,7
45301,102405,5
45303,102426,8
45299,102377,7
45316,102393,5
45323,102381,8
45289,102344,7
45252,102262,5
44625,101024,8
44625,101024,7
44501,100637,7
44385,100465,8
44301,100306,7
44246,100278,5
44288,100348,10
44288,100348,5
44311,100421,5
44361,100514,10
44398,100610,5
44451,100701,5
44609,100985,10
44609,100985,5
44527,100816,5
44447,100622,10
44378,100521,5
44343,100426,5
44322,100341,10
44262,100276,5
44218,100247,5
44216,100212,10
44216,100212,5
44226,100229,5
44254,100260,10
44254,100310,5
44273,100348,7
44295,100389,8
44323,100438,5
44400,100614,5
44400,100614,2
44420,100650,0
44420,100650,5
44436,100688,5
44446,100711,5
44464,100732,4
44471,100746,5
44471,100760,5
44488,100775,5
44488,100769,5
44492,100777,4
44503,100805,5
44510,100836,5
44531,100860,5
44524,100858,5
44522,100840,4
44513,100826,5
44507,100818,5
44506,100796,5
44488,100769,5
44476,100749,4
44469,100734,6
44471,100718,4
44451,100682,5
44440,100643,4
44409,100594,5
44387,100536,5
44365,100485,5
44333,100437,5
44307,100393,4
44299,100364,5
44284,100325,5
44273,100309,5
44260,100284,5
44239,100256,4
44240,100248,5
44237,100254,5
44232,100243,5
44238,100249,5
44234,100243,4
44245,100263,5
44256,100280,5
44252,100288,5
44261,100300,5
44266,100317,4
44267,100329,5
44276,100331,6
44278,100350,4
44282,100349,4
44247,100352,4
44300,100361,5
44291,100362,5
44291,100368,5
44238,100362,4
44291,100360,5
44292,100360,5
44284,100342,5
44220,100344,5
44273,100317,4
44263,100297,5
44260,100288,5
44263,100274,5
44234,100241,5
44226,100211,4
44221,100187,5
44259,100161,5
44185,100125,5
44161,100094,5
44145,100066,4
44194,100034,5
44121,99988,5
44102,99950,5
44076,99888,4
44064,99820,4
44001,99725,5
43939,99585,5
43835,99381,5
43717,99113,4
43592,98854,5
43458,98589,5
43338,98358,5
43249,98125,5
43179,98035,4
43125,97946,5
43099,97907,5
43089,97848,5
43103,97931,5
43117,97961,4
43143,98012,6
43161,98057,4
43200,98150,5
43245,98243,5
43296,98337,6
43337,98477,3
43385,98527,5
43415,98605,5
43442,98651,5
43447,98726,4
43431,98590,5
43351,98414,5
43257,98217,5
43186,98138,4
43160,98038,5
43129,97990,5
43100,97944,5
43087,97931,5
43084,97905,4
43080,97900,5
43081,97921,5
43083,97919,5
43088,97944,5
43110,97971,4
43128,98022,5
43153,98072,5
43184,98128,4
43197,98196,5
43232,98250,4
43258,98304,7
43284,98343,3
43300,98398,5
43312,98427,5
43335,98460,4
43342,98493,5
43366,98520,5
43372,98544,5
43384,98581,4
43411,98592,4
43415,98613,5
43422,98618,5
43415,98623,5
43415,98634,4
43422,98646,5
43444,98653,5
43444,98691,5
43462,98698,5
43456,98690,4
43454,98679,5
43441,98664,5
43440,98654,6
43438,98646,4
43435,98629,4
43433,98628,5
43417,98608,5
43413,98590,5
43402,98572,5
43390,98546,4
43392,98519,5
43366,98501,5
43361,98484,5
43349,98475,4
43346,98465,4
43346,98451,5
43345,98447,5
43347,98439,5
43344,98447,4
43340,98437,5
43347,98448,5
43355,98475,5
43356,98470,5
43358,98496,5
43360,98517,4
43387,98541,5
43397,98564,5
43403,98585,6
43412,98608,3
43427,98637,5
43441,98656,5
43449,98677,5
43453,98703,5
43470,98716,4
43474,98723,5
43474,98723,5
43475,98737,5
43474,98738,5
43480,98740,4
43482,98746,5
43490,98731,5
43471,98710,5
43456,98677,4
43442,98623,5
43410,98555,5
43357,98462,5
43310,98343,5
43255,98226,4
43207,98127,6
43163,98040,4
43114,97975,5
43102,97930,5
43092,97902,6
43078,97887,3
43038,97894,5
43092,97913,5
43108,97946,5
43122,97987,4
43069,98008,5
43135,98021,5
43137,98031,5
43148,98039,5
43144,98058,4
43151,98061,5
43153,98050,5
43136,98017,5
43168,97954,4
43044,97790,4
42954,97585,5
42855,97442,5
42878,97372,5
42797,97332,4
42789,97292,5
42775,97286,6
42814,97272,4
42764,97273,5
42771,97275,4
42762,97283,5
42775,97304,5
42783,97329,5
42803,97356,5
42813,97401,4
42830,97418,5
42847,97493,5
42870,97532,5
42899,97565,5
42907,97544,4
42928,97635,5
42939,97655,5
42946,97682,5
42949,97633,4
42957,97704,4
42954,97703,5
42965,97714,5
42966,97729,5
42958,97709,5
42955,97702,4
42966,97701,5
42954,97764,6
42958,97709,4
42966,97702,4
42950,97684,5
42943,97699,5
42915,97614,5
42917,97581,5
42896,97568,4
42881,97555,5
42880,97511,5
42860,97472,5
42833,97430,5
42814,97376,4
42793,97319,5
42768,97272,5
42748,97246,5
42744,97239,5
42735,97223,4
42739,97219,5
42730,97221,5
42736,97226,5
42735,97218,5
42737,97232,4
42736,97245,5
42752,97251,5
42751,97266,6
42757,97278,3
42774,97294,5
42774,97299,5
42773,97315,5
42777,97326,5
42781,97341,4
42784,97345,5
42795,97346,5
42787,97357,5
42791,97349,5
42795,97359,4
42790,97348,5
42791,97354,5
42787,97359,5
42799,97355,5
42794,97361,4
42795,97362,5
42789,97362,5
42786,97346,5
42786,97345,4
42790,97328,5
42774,97316,4
42761,97288,5
42754,97276,5
42752,97259,4
42738,97233,5
42721,97206,5
42704,97166,5
42693,97134,5
42675,97100,4
42657,97052,5
42634,97015,5
42612,96967,5
42587,96906,5
42552,96822,4
42505,96726,5
42446,96598,5
42374,96456,5
42309,96292,5
42227,96144,4
42154,95984,5
42094,95861,5
42033,95763,5
42000,95684,4
41973,95630,4
41959,95611,6
41955,95598,4
41951,95620,5
41958,95642,4
41982,95672,5
41996,95705,5
42005,95719,5
41996,95718,5
42000,95732,4
42005,95724,5
41998,95719,5
41990,95688,5
41959,95612,5
41889,95452,4
41771,95205,5
41664,94999,5
41589,94884,5
41560,94840,5
41534,94783,4
41507,94745,5
41506,94733,5
41503,94727,11
41465,94737,7
41511,94754,5
41512,94779,7
41524,94810,8
41464,94854,5
41562,94905,7
41723,95223,8
41723,95223,9
41733,95275,8
41787,95326,5
41789,95368,7
41932,95679,8
41932,95679,5
41936,95745,7
42046,95818,8
42022,95881,5
42064,95928,7
42094,95975,8
42229,96262,10
42229,96262,8
42260,96319,5
42275,96363,7
42297,96422,6
42314,96387,1
42316,96444,5
42342,96481,5
42348,96532,5
42361,96445,5
42369,96530,5
42386,96562,4
42390,96588,5
42420,96620,5
42445,96685,5
42472,96738,4
42494,96791,5
42519,96895,5
42548,96910,5
42586,96965,5
42621,97057,5
42664,97209,4
42703,97234,5
42757,97324,5
42813,97441,4
42867,97582,4
42925,97661,5
42971,97774,5
43028,97882,5
43088,97984,4
43133,98080,5
43177,98152,5
43213,98248,5
43247,98316,5
43292,98394,4
43331,98458,5
43367,98533,5
43405,98594,5
43424,98654,5
43442,98689,4
43445,98701,5
43453,98686,5
43444,98656,5
43417,98604,5
43380,98531,4
43361,98455,6
43325,98395,4
43304,98345,5
43281,98304,4
43267,98289,4
43260,98289,5
43282,98304,5
43288,98336,5
43297,98376,4
43332,98437,5
43362,98511,5
43400,98582,5
43431,98661,5
43461,98720,4
43485,98753,5
43508,98812,5
43518,98849,5
43539,98866,5
43547,98860,4
43531,98824,5
43480,98720,5
43410,98542,5
43328,98382,5
43284,98311,4
43271,98294,5
43263,98267,5
43256,98273,5
43263,98292,4
43273,98324,4
43297,98368,5
43324,98433,5
43365,98517,5
43409,98626,4
43466,98741,5
43526,98866,5
43584,99005,5
43662,99132,5
43723,99266,4
43776,99389,5
43827,99496,5
43886,99580,5
43918,99648,5
43939,99703,4
