RED,IR,EKG,TIME
35977,79514,183409
36578,81312,1
36578,81312,3
36578,81315,4
36575,81320,5
36582,81325,5
36576,81327,5
36579,81328,4
36575,81334,5
36585,81331,4
36585,81339,5
36590,81349,5
36580,81354,4
36581,81345,5
36588,81352,5
36592,81346,5
36585,81362,5
36593,81371,4
36594,81377,5
36605,81380,5
36603,81378,5
36602,81388,5
36606,81401,4
36600,81413,5
36620,81427,5
36627,81440,5
36630,81452,5
36637,81465,4
36638,81469,5
36645,81480,5
36644,81493,5
36655,81502,4
36657,81517,5
36658,81521,6
36665,81530,4
36669,81551,5
36676,81558,4
36681,81587,5
36696,81600,5
36701,81613,5
36712,81631,5
36710,81634,4
36725,81649,5
36721,81670,5
36732,81681,5
36731,81694,5
36739,81705,4
36749,81731,5
36753,81738,5
36754,81747,5
36761,81752,5
36763,81758,4
36764,81751,5
36770,81757,5
36769,81760,5
36776,81765,4
36771,81766,5
36766,81775,5
36763,81777,5
36776,81779,5
36774,81781,4
36779,81780,5
36770,81785,5
36775,81774,5
36771,81778,5
36771,81788,4
36779,81781,5
36778,81786,5
36771,81772,5
36768,81792,5
36776,81785,4
36769,81782,5
36764,81784,5
36773,81788,5
36770,81787,4
36768,81778,4
36782,81783,5
36772,81780,5
36773,81778,5
36772,81779,5
36762,81777,4
36770,81779,5
36768,81770,5
36766,81782,5
36771,81773,4
36765,81782,5
36762,81786,5
36770,81790,5
36778,81804,5
36778,81828,4
36795,81838,5
36791,81852,5
36811,81869,5
36810,81878,5
36818,81895,4
36817,81901,5
36833,81925,5
36841,81275,5
36838,81277,4
36848,81312,4
36849,81317,5
36865,81322,4
36864,81330,5
36879,81339,4
36871,81349,7
36880,81363,3
36882,81369,5
36889,81372,5
36886,81376,4
36884,81384,5
36890,81388,5
36897,81393,5
36900,81403,5
36905,81419,4
36902,81425,5
36897,81430,5
36913,81442,5
36919,81447,5
36922,81453,4
36921,81447,5
36919,81464,5
36930,81463,5
36929,81476,5
36929,81476,4
36938,81499,5
36945,81508,6
36939,81514,4
36948,81522,4
36945,81530,5
36956,81544,5
36950,81533,5
36955,81558,5
36958,81550,4
36963,81565,5
36964,81566,5
36964,81578,5
36963,81568,5
36974,81569,4
36971,81590,5
36982,81604,5
36976,81596,5
36976,81606,5
36980,81614,4
36986,81609,5
36981,81623,5
36995,81637,5
36988,81636,5
36992,81649,4
36997,81643,5
37003,81662,5
36998,81648,6
37003,81664,3
37006,81665,5
36998,81660,5
37006,81665,5
36997,81651,5
37007,81655,4
36995,81647,5
36997,81653,5
37008,81654,5
37000,81659,5
37004,81664,4
36999,81653,5
37004,81656,5
36998,81661,5
36998,81660,5
37008,81660,4
37014,81666,5
37006,81670,5
36999,81667,5
37008,81667,4
37000,81661,5
37004,81665,4
37002,81663,5
37002,81660,5
37010,81661,6
36995,81667,3
37003,81656,5
36997,81660,5
37002,81663,5
36999,81651,4
36992,81655,5
36991,81644,5
36988,81647,5
36993,81645,5
36992,81640,4
36993,81646,5
36991,81639,5
36990,81649,5
36990,81644,5
37000,81652,4
36997,81651,5
36991,81666,5
36992,81664,5
37007,81664,4
37000,81680,4
36998,81679,6
37003,81678,4
37010,81683,5
37006,81674,4
37000,81667,5
36995,81659,5
36998,81655,5
36987,81650,5
36988,81648,4
36982,81646,5
36994,81662,5
36994,81662,5
36997,81666,5
36999,81669,4
37006,81673,5
37001,81679,5
37008,81691,5
37001,81695,5
37017,81705,4
37019,81717,5
37021,81712,5
37016,81720,5
37023,81728,4
37022,81722,9
37020,81731,6
37020,81750,4
37032,81745,4
37025,81751,5
37028,81746,5
37037,81758,5
37037,81766,5
37041,81769,4
37031,81767,5
37033,81768,5
37040,81768,5
37041,81777,5
37037,81772,4
37044,81787,5
37044,81784,5
37048,81791,5
37050,81803,5
37057,81809,4
37054,81807,5
37056,81819,5
37052,81819,5
37055,81816,5
37063,81817,4
37053,81826,5
37069,81827,5
37070,81824,6
37069,81839,3
37070,81844,5
37071,81853,5
37073,81858,5
37071,81858,5
37080,81863,4
37087,81864,5
37075,81864,5
37075,81852,5
37069,81857,5
37069,81852,4
37070,81851,5
37074,81866,5
37080,81862,5
37078,81874,5
37082,81882,4
37080,81892,5
37086,81900,5
37088,81895,5
37085,81908,5
37094,81911,5
37086,81909,4
37092,81920,5
37109,81927,5
37103,81934,4
37100,81937,4
37104,81951,5
37103,81948,5
37109,81951,5
37104,81947,4
37106,81962,5
37112,81961,5
37112,81958,5
37109,81947,5
37111,81958,4
37109,81962,5
37109,81955,5
37105,81958,5
37107,81964,5
37114,81961,4
37114,81970,5
37120,81977,5
37109,81992,5
37133,81994,5
37121,82007,4
37142,82014,6
37130,82015,4
37131,82021,5
37138,82024,4
37139,82027,4
37130,82028,5
37141,82024,5
37138,82029,5
37141,82052,4
37148,82056,5
37163,82067,5
37153,82087,5
37164,82091,5
37163,82106,4
37173,82111,5
37172,82117,5
37175,82128,5
37184,82118,5
37171,82126,4
37172,82128,5
37172,82116,5
37173,82103,5
37157,82100,5
37166,82094,4
37156,82089,5
37153,82083,6
37158,82095,4
37152,82090,4
37154,82084,4
37154,82079,5
37136,82063,5
37137,82051,5
37133,82051,4
37126,82039,5
37128,82038,5
37126,82038,5
37135,82042,5
37127,82043,4
37132,82048,5
37136,82046,5
37126,82042,5
37132,82063,5
37138,82061,4
37135,82060,5
37139,82057,5
37146,82061,5
37140,82058,5
37142,82066,4
37133,82062,5
37140,82056,5
37131,82047,5
37127,82035,4
37134,82031,4
37129,82032,5
37115,82015,5
37123,82017,5
37119,82018,4
37125,82015,5
37124,82017,5
37118,82010,5
37119,82008,5
37118,82003,4
37116,82011,5
37120,81998,5
37127,82013,5
37124,82009,5
37120,82018,4
37122,82006,5
37118,82013,5
37116,82006,5
37116,82010,5
37122,82004,5
37108,81989,4
37120,81991,5
37109,81994,5
37101,81982,4
37106,81992,4
37119,81995,5
37109,81989,5
37112,81990,5
37102,81995,4
37107,81997,5
37101,81987,5
37102,81989,5
37114,81993,5
37117,81998,4
37103,81990,5
37116,81997,5
37114,82000,5
37114,82000,5
37129,81999,4
37116,82007,5
37121,82013,6
37121,82007,4
37132,82016,5
37128,82009,4
37120,82010,6
37116,82014,4
37132,82009,5
37121,82012,5
37120,82012,4
37126,82010,5
37119,82001,5
37124,82006,5
37118,82002,4
37123,82006,5
37130,82002,5
37115,82003,5
37121,82008,5
37123,82007,4
37132,82014,5
37130,82019,5
37129,82019,5
37130,82025,5
37134,82010,4
37128,82025,5
37127,82028,5
37139,82024,5
37133,82026,5
37134,82030,4
37129,82035,5
37149,82038,5
37138,82042,5
37145,82043,5
37140,82046,4
37141,82043,5
37144,82064,5
37145,82053,5
37146,82053,4
37138,82063,4
37147,82056,5
37144,82060,5
37152,82054,5
37142,82046,4
37137,82047,5
37140,82042,5
37140,82033,5
37147,82035,5
37134,82025,4
37136,82032,5
37145,82036,5
37142,82050,5
37144,82051,5
37158,82059,4
37148,82061,5
37148,82066,5
37155,82073,5
37156,82075,5
37155,82090,4
37158,82077,5
37162,82089,5
37160,82089,5
37164,82090,4
37168,82092,4
37168,82092,5
37163,82105,5
37173,82100,5
37172,82103,4
37180,82101,5
37176,82103,5
37177,82107,5
37169,82102,5
37166,82110,4
37176,82109,5
37182,82112,5
37176,82102,5
37186,82124,5
37166,82118,5
37178,82112,3
37168,82110,5
37174,82116,5
37174,82109,5
37180,82113,4
37176,82110,5
37173,82105,5
37172,82102,5
37174,82112,4
37175,82111,4
37179,82120,5
37184,82129,5
37181,82124,5
37184,82133,4
37191,82132,5
37182,82139,5
37186,82149,5
37204,82149,5
37193,82150,4
37193,82145,5
37198,82156,6
37194,82159,4
37201,82158,5
37201,82171,4
37209,82160,7
37211,82165,3
37208,82165,5
37205,82158,5
37205,82157,4
37195,82158,5
37202,82169,5
37203,82167,5
37201,82170,5
37210,82161,4
37205,82167,5
37205,82165,5
37202,82167,5
37201,82175,4
37202,82172,4
37208,82170,5
37209,82165,5
37210,82175,5
37218,82188,4
37206,82178,5
37215,82186,5
37217,82185,6
37217,82195,4
37213,82183,4
37216,82184,5
37221,82196,5
37217,82199,5
37219,82200,5
37219,82216,4
37227,82200,5
37225,82219,5
37226,82220,5
37222,82227,5
37232,82231,4
37233,82230,5
37225,82226,5
37234,82224,5
37229,82229,4
37222,82216,4
37235,82220,5
37223,82206,5
37224,82209,5
37231,82220,5
37231,82206,4
37223,82214,5
37228,82224,5
37231,82225,6
37245,82229,3
37237,82240,5
37239,82239,5
37239,82249,5
37243,82246,5
37241,82254,4
37247,82253,5
37252,82264,5
37248,82260,5
37261,82259,5
37251,82279,4
37258,82267,5
37250,82263,5
37265,82279,5
37262,82273,5
37254,82271,4
37258,82267,5
37258,82278,5
37255,82276,5
37258,82285,4
37257,82279,6
37259,82275,4
37257,82279,5
37260,82273,5
37255,82293,6
37268,82280,3
37261,82276,5
37273,82290,5
37270,82326,5
37272,82295,4
37263,82296,5
37271,82299,5
37267,82308,5
37274,82294,5
37275,82301,4
37277,82309,5
37279,82317,5
37277,82316,5
37275,82324,5
37283,82339,4
37291,82335,5
37293,82341,5
37289,82353,5
37292,82353,4
37297,82357,4
37299,82355,6
37298,82355,4
37302,82377,5
37307,82370,4
37314,82388,5
37306,82388,5
37310,82399,5
37306,82388,5
37317,82395,4
37315,82407,5
37318,82396,5
37312,82396,5
37313,82393,5
37311,82399,4
37324,82398,5
37313,82400,5
37309,82401,5
37326,82400,5
37314,82394,4
37304,82402,5
37317,82395,5
37319,82400,5
37314,82404,4
37321,82400,4
37326,82404,5
37322,82411,6
37322,82419,4
37328,82415,4
37329,82430,5
37324,82431,5
37337,82436,5
37328,82418,5
37328,82428,4
37327,82421,5
37338,82426,5
37331,82435,5
37340,82441,5
37339,82445,4
37336,82428,5
37332,82439,5
37331,82435,5
37340,82437,5
37331,82431,4
37335,82427,5
37321,82418,5
37322,82411,5
37325,82415,5
37312,82410,4
37327,82411,5
37319,82415,5
37323,82417,6
37323,82421,3
37329,82427,5
37323,82422,5
37329,82431,5
37322,82415,5
37332,82409,4
37315,82404,5
37320,82397,5
37308,82382,5
37303,82369,5
37302,82358,7
37284,82336,2
37284,82323,5
37280,82302,5
37269,82288,5
37253,82266,4
37237,82239,5
37230,82219,5
37227,82191,5
37221,82171,5
37207,82158,5
37196,82141,4
37203,82143,5
37206,82134,5
37196,82128,4
37188,82121,4
37180,82107,5
37182,82090,5
37176,82074,5
37158,82063,4
37155,82041,5
37151,82027,5
37141,82003,5
37124,81994,5
37131,81970,4
37130,81969,5
37121,81963,5
37121,81955,5
37110,81936,5
37092,81921,4
37093,81906,5
37089,81895,5
37086,81884,5
37082,81877,5
37076,81875,4
37080,81864,6
37073,81866,4
37065,81860,5
37068,81860,4
37076,81858,4
37067,81847,5
37058,81843,5
37057,81824,5
37047,81807,4
37037,81793,5
37033,81791,5
37034,81759,5
37026,81734,5
37010,81717,4
36998,81683,5
36986,81668,5
36972,81643,5
36964,81627,5
36952,81609,5
36945,81589,4
36941,81582,5
36943,81580,5
36939,81570,5
36938,81576,4
36934,81589,5
36938,81585,6
36939,81582,4
36939,81583,5
36944,81596,4
36945,81579,5
36935,81572,5
36929,81557,5
36929,81552,4
36926,81525,4
36918,81523,5
36915,81502,5
36896,81503,5
36902,81502,4
36894,81502,5
36905,81482,5
36894,81489,5
36892,81480,5
36901,81482,4
36888,81477,5
36907,81489,5
36904,81506,5
36910,81521,5
36928,81542,4
36929,81557,5
36929,81577,5
36948,81591,5
36957,81607,5
36961,81622,4
36972,81636,5
36974,81645,5
36967,81655,5
36982,81663,4
36978,81660,4
36990,81672,5
36983,81675,5
36986,81684,5
37007,81694,4
36998,81700,5
36998,81695,5
37000,81705,5
37000,81710,5
37000,81713,4
37003,81709,5
37005,81720,5
37007,81713,5
37012,81725,5
37010,81739,5
37011,81736,4
37028,81749,5
37017,81743,5
37024,81747,5
37025,81746,4
37020,81741,5
37026,81753,5
37021,81756,5
37015,81755,5
37020,81764,4
37026,81766,5
37035,81780,5
37034,81781,5
37038,81792,4
37037,81796,4
37041,81797,5
37045,81796,5
37050,81807,5
37043,81801,4
37046,81802,5
37051,81812,5
37052,81815,5
37050,81824,5
37061,81832,4
37059,81838,6
37061,81833,4
37070,81842,5
37070,81852,5
37070,81861,4
37077,81861,5
37073,81868,5
37067,81870,5
37075,81876,5
37077,81883,4
37092,81886,5
37086,81889,5
37083,81896,5
37093,81906,4
37092,81917,4
37091,81920,5
37112,81923,5
37110,81942,5
37119,81949,4
37114,81952,5
37116,81962,5
37116,81971,5
37132,81971,5
37125,81981,4
37125,81987,5
37135,81993,6
37141,82001,4
37141,82006,5
37154,82018,4
37134,82011,5
37139,82012,5
37151,82018,5
37145,82022,5
37146,82014,4
37144,82016,5
37145,82030,5
37141,82016,5
37149,82026,5
37147,82018,4
37142,82014,5
37139,82012,5
37153,82023,5
37149,82020,4
37150,82017,4
37146,82006,5
37156,82019,5
37148,82011,5
37141,82016,4
37150,82016,5
37146,82019,5
37143,82020,5
37153,82028,5
37153,82026,4
37154,82025,5
37151,82031,5
37155,82026,5
37142,82027,5
37145,82019,4
37150,82025,5
37146,82017,5
37140,82007,5
37136,81996,5
37136,82006,4
37136,81995,5
37129,81989,5
37132,81981,5
37121,81984,4
37122,81990,5
37122,81991,4
37126,81994,5
37138,81989,5
37137,81998,6
37133,81998,3
37132,82016,5
37134,81997,5
37127,81994,5
37127,81987,4
37139,81997,5
37134,81984,5
37138,81986,5
37133,81986,5
37133,81988,4
37124,81999,5
37136,81992,5
37130,81988,5
37125,81989,5
37132,81986,4
37139,81995,5
37132,81983,5
37135,81984,5
37136,81990,5
37133,81981,4
37130,81985,6
37141,81993,4
37132,81997,5
37134,81993,4
37138,81998,6
37130,82004,3
37136,81994,5
37142,81991,5
37132,81987,4
37131,81997,5
37137,81998,5
37129,81997,5
37132,81993,5
37140,82004,4
37140,82016,5
37141,82019,5
37135,82014,5
37136,82008,5
37138,82005,4
37143,82011,5
37140,82014,5
37145,82011,5
37140,82006,5
37132,82007,4
37143,82014,5
37141,82023,6
37135,82015,4
37140,82014,4
37139,82011,4
37140,82029,5
37148,82025,5
37143,82016,5
37155,82030,4
37146,82025,5
37149,82021,5
37146,82021,5
37138,82018,5
37145,82023,4
37135,82027,5
37154,82015,5
37148,82019,5
37149,82007,5
37140,82009,4
37140,82010,5
37138,82005,5
37143,82007,5
37145,82002,5
37140,82005,4
37135,82004,5
37141,82011,5
37141,82010,6
37141,82007,4
37145,82005,4
37141,82018,5
37137,82008,5
37142,81997,5
37140,82000,4
37138,82003,4
37132,81997,5
37137,81993,5
37130,81999,5
37130,81996,4
37135,81993,5
37139,82003,5
37134,82004,5
37126,81988,5
37135,81996,4
37132,81985,5
37126,81976,5
37127,81994,5
37124,81979,5
37129,81983,5
37128,81976,4
37133,81980,5
37134,81984,5
37133,81983,6
37122,81981,3
37131,81978,5
37112,81974,5
37124,81982,5
37128,81975,4
37133,81981,4
37123,81975,5
37131,81987,5
37122,81979,5
37122,81979,4
37136,81984,5
37129,81974,5
37123,81976,5
37120,81960,5
37126,81953,4
37116,81954,5
37107,81945,5
37110,81941,5
37118,81934,5
37107,81918,4
37092,81916,6
37099,81933,4
37105,81932,5
37103,81926,5
37106,81939,4
37111,81936,5
37112,81945,5
37111,81936,5
37110,81942,4
37114,81947,4
37101,81939,5
37111,81943,5
37105,81948,5
37111,81951,4
37116,81940,5
37117,81956,5
37113,81948,5
37112,81952,5
37109,81957,4
37116,81957,5
37116,81946,5
37115,81950,5
37120,81952,5
37109,81946,4
37119,81939,5
37115,81953,6
37119,81954,4
37116,81948,5
37112,81956,4
37119,81963,5
37113,81949,5
37117,81943,5
37112,81943,4
37108,81934,4
37107,81935,5
37105,81932,5
37099,81931,5
37101,81928,4
37101,81931,5
37106,81940,5
37097,81938,5
37110,81947,5
37113,81945,4
37103,81941,5
37113,81943,5
37103,81940,5
37103,81934,5
37112,81927,4
37116,81926,5
37099,81925,5
37099,81936,6
37100,81928,4
37098,81931,4
37103,81921,5
37101,81921,5
37103,81932,5
37095,81933,5
37103,81934,4
37102,81941,5
37111,81931,5
37110,81934,5
37109,81926,4
37108,81934,4
37100,81934,5
37102,81931,5
37105,81933,5
37097,81931,4
37095,81932,5
37101,81931,5
37108,81920,5
37105,81933,5
37104,81926,5
37103,81927,4
37101,81916,5
37098,81911,5
37101,81921,5
37100,81917,4
37098,81923,5
37098,81913,5
37095,81908,5
37096,81914,5
37098,81912,4
37096,81911,5
37094,81911,5
37094,81910,5
37096,81907,4
37093,81896,4
37087,81895,5
37101,81899,5
37091,81897,5
37095,81902,4
37082,81895,5
37082,81890,5
37093,81889,5
37077,81891,5
37086,81890,4
37082,81888,6
37095,81897,4
37093,81891,5
37090,81891,5
37086,81891,4
37090,81894,5
37089,81886,5
37085,81902,5
37094,81897,5
37083,81901,4
37083,81895,5
37084,81899,5
37085,81905,5
37089,81901,4
37090,81902,4
37093,81892,5
37082,81893,5
37090,81897,5
37084,81891,4
37085,81883,5
37071,81878,5
37075,81877,5
37074,81862,5
37062,81852,4
37066,81853,5
37067,81850,6
37059,81841,4
37043,81841,5
37053,81842,4
37054,81848,5
37069,81842,5
37066,81864,5
37067,81848,5
37067,81853,4
37063,81855,5
37066,81841,5
37066,81845,5
37058,81842,4
37063,81834,4
37065,81847,5
37058,81841,5
37060,81841,5
37063,81845,4
37070,81856,5
37052,81845,5
37062,81852,5
37062,81831,5
37069,81835,4
37055,81823,5
37050,81832,5
37050,81825,5
37045,81820,5
37043,81819,4
37053,81830,5
37049,81815,5
37053,81802,5
37047,81824,5
37043,81820,4
37052,81822,5
37048,81815,5
37044,81807,5
37049,81808,5
37034,81811,4
37040,81806,5
37032,81803,5
37035,81796,5
37043,81799,4
37036,81811,5
37045,81810,5
37036,81813,5
37046,81816,5
37046,81826,5
37044,81819,4
37047,81815,5
37048,81815,5
37047,81818,5
37047,81823,4
37044,81827,5
37044,81818,5
37047,81818,5
37049,81812,5
37043,81815,4
37044,81818,5
37045,81820,5
37042,81823,5
37039,81817,5
37046,81812,4
37039,81822,5
37042,81821,5
37040,81819,5
37048,81827,4
37041,81823,5
37040,81826,5
37050,81825,5
37042,81830,5
37050,81825,4
37040,81832,6
37052,81829,4
37052,81831,5
37051,81842,5
37058,81843,4
37052,81837,5
37056,81851,5
37055,81849,5
37050,81842,5
37053,81849,4
37046,81846,5
37054,81859,5
37057,81858,5
37052,81869,5
37055,81856,4
37061,81853,5
37061,81869,5
37058,81862,5
37065,81859,4
37051,81862,4
37060,81865,5
37065,81873,5
37064,81874,5
37069,81880,4
37069,81875,5
37068,81885,5
37070,81892,5
37065,81890,5
37072,81896,4
37073,81890,5
37065,81886,5
37072,81893,5
37078,81892,5
37071,81901,4
37069,81903,5
37073,81908,5
37078,81911,5
37076,81911,5
37073,81902,4
37072,81908,5
37068,81904,5
37069,81884,5
37057,81883,4
37057,81884,4
37063,81878,5
37054,81876,5
37053,81867,5
37055,81864,3
37061,81877,5
37060,81885,5
37061,81886,5
37063,81888,5
37069,81895,4
37065,81899,5
37067,81893,5
37064,81904,5
37072,81912,5
37076,81916,4
37077,81926,5
37075,81935,5
37087,81941,5
37100,81953,5
37086,81960,4
37097,81976,5
37094,81990,5
37097,81984,5
37097,81996,4
37095,81997,5
37097,81988,4
37109,81996,5
37107,81993,5
37108,81993,6
37109,82005,3
37106,82003,5
37111,82002,5
37116,81999,5
37114,82015,4
37106,82012,5
37117,82014,5
37110,82014,5
37115,81997,5
37112,81999,4
37096,82006,5
37106,82000,5
37113,82009,5
37112,82012,5
37112,82005,4
37110,82026,5
37110,82022,5
37108,82018,5
37115,82029,4
37113,82019,4
37112,82029,6
37118,82028,4
37111,82039,5
37116,82029,4
37115,82026,7
37113,82045,3
37113,82035,5
37116,82030,5
37113,82030,4
37123,82039,5
37121,82037,5
37111,82037,5
37117,82026,5
37115,82025,4
37104,82031,5
37113,82035,5
37111,82027,5
37118,82015,5
37105,82023,4
37116,82022,5
37111,82028,5
37112,82000,5
37106,81998,4
37098,82002,4
37097,82000,5
37094,82002,6
37088,81987,4
37097,81983,4
37096,81988,5
37095,81987,5
37089,81981,5
37095,81980,5
37092,81980,4
37099,81994,5
37094,81996,5
37103,81992,5
37098,81990,5
37104,81990,4
37104,81995,5
37099,81989,5
37099,81985,5
37097,81979,5
37102,81992,4
37096,81984,5
37093,81978,5
37092,81969,5
37088,81975,5
37087,81974,4
37097,81969,5
37096,81977,5
37092,81982,6
37100,81973,3
37094,81974,5
37095,81993,5
37102,81994,5
37101,81989,5
37092,81992,4
37102,81989,5
37113,81997,5
37103,81987,5
37102,81992,5
37093,81985,4
37100,81985,5
37090,81993,5
37092,81976,5
37094,81967,5
37084,81952,4
37086,81964,5
37081,81959,5
37086,81956,5
37083,81959,4
37086,81960,5
37088,81967,4
37091,81966,5
37088,81976,5
37094,81970,6
37093,81977,3
37095,81976,5
37108,81990,5
37104,81994,5
37095,81988,4
37106,81992,5
37101,81997,5
37102,81986,5
37102,81999,5
37101,81998,4
37109,82004,5
37113,81996,5
37101,81996,5
37112,82000,5
37107,82011,4
37105,81991,5
37110,82008,5
37102,82000,5
37112,82009,4
37111,82005,4
37106,82011,6
37114,82011,4
37118,82025,5
37114,82021,4
37118,82026,5
37122,82027,5
37122,82025,5
37113,82031,5
37112,82014,4
37113,82036,5
37127,82032,5
37125,82022,5
37131,82028,5
37127,82039,4
37133,82045,5
37127,82049,5
37141,82048,5
37134,82076,5
37149,82074,4
37148,82086,5
37144,82078,5
37144,82077,5
37154,82077,5
37150,82079,4
37143,82072,5
37149,82090,6
37156,82091,4
37163,82100,4
37154,82096,5
37158,82099,5
37161,82112,5
37161,82106,5
37163,82103,4
37173,82102,5
37155,82106,5
37158,82109,5
37159,82118,5
37172,82119,4
37174,82127,5
37179,82125,5
37172,82127,5
37173,82129,5
37172,82133,4
37174,82136,5
37166,82139,5
37177,82136,5
37180,82138,5
37178,82136,4
37185,82132,5
37179,82124,5
37178,82128,6
37176,82126,4
37171,82121,4
37172,82118,5
37169,82113,5
37165,82119,5
37169,82105,4
37165,82110,5
37163,82107,5
37158,82105,5
37159,82097,5
37157,82105,4
37151,82081,5
37156,82084,5
37157,82089,5
37160,82103,5
37160,82087,4
37154,82084,5
37158,82086,5
37148,82093,5
37154,82073,5
37144,82070,5
37146,82072,4
37144,82057,5
37133,82034,5
37120,82014,4
37122,81998,4
37114,81967,5
37094,81950,5
37081,81937,5
37078,81927,4
37073,81915,5
37081,81916,5
37086,81919,5
37078,81907,5
37079,81910,4
37065,81887,5
37065,81878,5
37055,81858,5
37040,81824,5
37023,81794,4
37013,81769,5
37002,81750,5
36994,81729,5
36984,81695,5
36969,81669,4
36957,81652,6
36949,81628,4
36944,81602,5
36938,81592,4
36923,81574,4
36914,81556,5
36908,81522,5
36895,81484,5
36878,81467,4
36871,81425,5
36847,81399,5
36844,81380,5
36832,81351,5
36814,81337,4
36812,81326,5
36804,81297,5
36784,81269,5
36771,81228,5
36762,81202,4
36740,81166,5
36737,81143,5
36728,81127,5
36722,81118,5
36713,81117,4
36713,81112,5
36713,81115,6
36709,81119,4
36713,81101,4
36710,81080,4
36697,81061,5
36686,81037,5
36671,81026,5
36669,81014,4
36660,81008,5
36668,80999,5
36654,80997,5
36657,80990,5
36658,80979,4
36651,80960,5
36632,80936,5
36628,80923,8
36620,80900,2
36614,80886,4
36595,80879,5
36599,80868,5
36608,80870,5
36604,80850,5
36595,80856,4
36598,80853,5
36592,80839,5
36592,80822,5
36579,80803,5
36577,80785,4
36569,80779,5
36556,80769,5
36557,80758,5
36543,80741,4
36543,80725,4
36535,80713,5
36531,80698,5
36528,80695,5
36517,80687,4
36511,80668,5
36508,80653,5
36501,80649,5
36493,80627,5
36484,80612,4
36485,80588,5
36477,80575,5
36461,80557,5
36458,80537,5
36454,80527,5
36435,80506,4
36434,80484,5
36438,80474,5
36421,80465,5
36416,80445,4
36414,80445,5
36417,80439,5
36401,80431,5
36401,80416,4
36401,80403,4
36388,80383,5
36379,80375,5
36381,80372,5
36381,80373,4
36388,80368,5
36376,80369,5
36376,80367,5
36380,80374,5
36382,80373,4
36381,80370,5
36385,80364,6
36372,80355,4
36369,80328,5
36360,80305,4
36357,80304,7
36355,80298,3
36353,80297,5
36356,80307,5
36357,80305,5
36359,80317,4
36363,80325,5
36370,80332,5
36371,80343,5
36371,80362,4
36385,80376,5
36389,80382,5
36384,80397,5
36399,80398,4
36400,80400,4
36390,80401,5
36392,80405,5
36393,80411,5
36405,80434,4
36418,80445,5
36424,80457,5
36438,80478,5
36449,80499,5
36454,80533,4
36467,80550,5
36468,80549,5
36475,80565,5
36476,80563,5
36469,80567,4
36471,80562,5
36480,80577,5
36481,80582,5
36478,80586,5
36487,80593,4
36493,80595,5
36498,80619,5
36495,80633,5
36498,80634,4
36514,80645,4
36523,80668,5
36529,80684,5
36541,80707,5
36548,80721,5
36551,80745,4
36558,80766,5
36580,80784,5
36580,80810,6
36606,80837,3
36613,80862,5
36623,80875,5
36627,80898,5
36642,80908,5
36643,80916,4
36642,80935,5
36658,80950,5
36664,80962,5
36670,80984,5
36681,81004,4
36686,81012,5
36685,81024,5
36689,81028,5
36691,81035,5
36699,81034,4
36695,81028,5
36691,81023,5
36700,81027,5
36696,81025,4
36691,81032,5
36706,81043,4
36700,81038,5
36699,81046,5
36703,81052,6
36701,81051,3
36708,81058,5
36712,81061,5
36720,81065,5
36717,81074,4
36710,81079,5
36716,81074,5
36711,81083,5
36721,81079,5
36715,81077,4
36719,81085,5
36728,81081,5
36720,81085,5
36720,81081,5
36716,81079,4
36711,81079,5
36712,81061,5
36702,81061,5
36697,81057,5
36699,81049,4
36703,81041,6
36700,81036,4
36697,81038,5
36696,81049,4
36698,81047,7
36706,81055,3
36700,81038,5
36694,81043,5
36703,81032,4
36696,81018,5
36688,81009,5
36679,80994,5
36674,80990,5
36670,80978,4
36669,80977,5
36663,80981,5
36669,80977,5
36664,80972,5
36669,80967,4
36656,80969,5
36668,80964,5
36674,80972,5
36675,80980,5
36672,80996,4
36671,80990,5
36684,80982,6
36674,80978,4
36672,80978,4
36671,80975,4
36679,80974,5
36682,80973,5
36681,80981,5
36668,80978,4
36664,80976,5
36674,80977,5
36674,80976,5
36673,80986,5
36676,80976,4
36673,80970,5
36670,80956,5
36661,80957,5
36648,80947,5
36651,80939,4
36649,80942,5
36649,80937,5
36648,80939,5
36649,80932,5
36650,80929,4
36658,80943,5
36653,80943,5
36660,80943,6
36660,80935,4
36655,80939,4
36654,80925,5
36647,80920,5
36642,80918,5
36643,80899,4
36650,80908,4
36639,80910,5
36642,80918,5
36649,80916,5
36635,80911,4
36650,80918,5
36642,80932,5
36645,80913,5
36645,80901,5
36633,80894,4
36625,80889,5
36620,80850,5
36606,80843,5
36603,80839,5
36601,80822,5
36605,80831,4
36600,80823,5
36598,80825,5
36604,80831,6
36608,80835,3
36609,80847,5
36609,80838,5
36605,80841,5
36605,80832,4
36606,80833,4
36608,80840,5
36615,80839,5
36605,80842,5
36610,80850,4
36604,80836,5
36607,80838,5
36609,80841,5
36608,80824,5
36607,80822,4
36597,80825,5
36595,80818,5
36597,80813,5
36592,80805,5
36594,80811,4
36588,80801,6
36589,80791,4
36584,80787,5
36575,80782,5
36568,80770,4
36572,80777,5
36577,80771,5
36572,80753,5
36564,80757,5
36561,80751,4
36564,80752,5
36566,80753,5
36568,80768,5
36567,80750,4
36554,80748,4
36562,80746,5
36561,80717,5
36549,80707,5
36538,80694,4
36540,80690,5
36540,80686,5
36530,80672,5
36522,80662,5
36520,80661,4
36515,80653,5
36526,80649,6
36515,80641,4
36508,80636,5
36510,80615,4
36501,80611,5
36485,80596,5
36486,80567,5
36483,80574,5
36475,80567,4
36481,80574,5
36483,80571,5
36481,80565,5
36476,80555,5
36466,80534,4
36454,80527,5
36457,80516,5
36449,80497,5
36448,80497,4
36441,80483,5
36444,80488,5
36447,80483,5
36447,80479,5
36434,80474,4
36430,80475,5
36434,80470,5
36439,80476,6
36437,80482,4
36440,80480,4
36447,80479,5
36436,80482,5
36436,80480,5
36428,80472,5
36433,80478,4
36438,80478,5
36436,80493,5
36436,80507,5
36455,80521,5
36459,80531,4
36468,80559,5
36467,80566,5
36487,80594,5
36505,80626,4
36510,80637,4
36515,80667,5
36534,80690,5
36545,80715,5
36559,80733,5
36568,80763,4
36577,80788,5
36596,80810,5
36595,80811,5
36617,80834,4
36608,80849,5
36612,80869,5
36632,80885,5
36645,80899,5
36635,80914,4
36648,80930,5
36654,80943,5
36665,80948,5
36669,80966,5
36677,80989,4
36684,81017,5
36697,81039,5
36714,81074,5
36720,81111,5
36735,81120,4
36750,81148,5
36756,81174,5
36779,81198,5
36781,81219,4
36795,81242,5
36811,81269,4
36815,81290,5
36824,81321,5
36831,81341,4
36850,81359,5
36852,81367,5
36857,81382,5
36870,81396,5
36874,81399,4
36878,81419,5
36883,81428,5
36883,81439,5
36889,81444,5
36892,81458,4
36901,81466,5
36908,81486,5
36910,81492,5
36924,81518,5
36923,81530,4
36925,81528,5
36929,81537,5
36935,81538,5
36934,81544,4
36933,81550,4
36942,81570,6
36954,81575,4
36951,81593,5
36956,81589,4
36963,81609,5
36966,81606,5
36971,81618,5
36967,81635,5
36971,81628,4
36972,81638,5
36977,81644,5
36984,81652,5
36979,81654,5
36986,81662,4
36989,81658,5
36986,81670,5
36991,81663,5
36991,81679,5
36997,81675,4
36993,81676,5
36998,81682,5
37005,81682,5
36992,81685,5
36995,81691,4
36999,81687,5
37001,81680,5
37005,81699,5
37005,81691,4
37000,81688,5
37007,81694,5
37000,81700,5
37004,81707,5
37004,81707,4
37011,81699,5
37008,81702,5
37008,81717,5
37009,81712,5
37005,81715,4
37005,81714,5
37014,81728,5
37013,81715,5
37009,81721,5
37011,81719,4
37011,81722,5
37013,81727,5
37019,81717,5
37013,81725,5
37015,81725,4
37013,81719,5
37016,81722,5
37022,81728,5
37012,81720,4
37021,81732,4
37014,81736,6
37016,81735,4
37022,81728,5
37026,81733,4
37026,81728,5
37019,81737,5
37015,81736,5
37022,81739,5
37016,81744,4
37023,81747,5
37020,81744,5
37032,81755,5
37024,81751,5
37025,81759,4
37031,81757,5
37029,81757,5
37032,81761,5
37025,81764,5
37035,81766,5
37035,81768,4
37029,81767,5
37034,81768,5
37031,81775,5
37037,81769,4
37030,81761,5
37034,81766,5
37032,81762,5
37025,81767,4
37029,81767,4
37041,81767,5
37036,81770,5
37026,81768,5
37036,81780,4
37035,81771,5
37040,81777,5
37027,81780,5
37033,81778,5
37038,81777,4
37031,81778,5
37041,81777,5
37035,81793,4
37035,81792,5
37040,81800,4
37067,81813,7
37051,81809,3
37044,81824,5
37057,81825,5
37068,81824,4
37056,81835,5
37065,81839,5
37067,81846,5
37067,81852,4
37072,81856,4
37074,81852,5
37074,81848,5
37072,81840,5
37077,81841,4
37060,81831,5
37060,81829,5
37059,81825,5
37062,81823,5
37052,81823,4
37053,81818,4
37058,81822,5
37064,81840,6
37056,81829,4
37056,81845,4
37066,81842,5
37066,81850,5
37067,81846,5
37072,81858,5
37067,81863,4
37072,81861,5
37063,81850,5
37072,81870,5
37071,81870,4
37074,81855,4
37069,81860,5
37070,81864,5
37064,81869,5
37072,81858,4
37067,81865,5
37069,81861,5
37072,81864,5
37072,81865,5
37070,81863,5
37069,81856,4
37068,81861,5
37077,81865,5
37064,81864,6
37078,81868,3
37071,81876,5
37069,81873,5
37073,81870,5
37078,81867,5
37081,81864,4
37072,81869,5
37074,81859,5
37072,81862,5
37068,81861,5
37079,81875,4
37075,81872,5
37082,81871,5
37079,81875,5
37079,81872,4
37079,81873,4
37080,81881,5
37082,81876,5
37086,81879,5
37079,81879,4
37077,81878,6
37078,81874,4
37075,81876,5
37078,81864,5
37071,81868,6
37072,81873,3
37075,81865,5
37083,81881,5
37084,81875,5
37068,81865,4
37075,81879,5
37073,81874,5
37070,81872,5
37071,81877,5
37076,81873,4
37072,81880,5
37084,81877,5
37077,81865,5
37084,81873,5
37066,81876,4
37069,81872,5
37078,81874,5
37072,81867,5
37069,81870,4
37069,81870,5
37070,81863,6
37075,81856,4
37073,81858,5
37065,81865,4
37059,81861,5
37064,81858,5
37065,81843,5
37067,81850,5
37066,81845,4
37064,81857,5
37062,81850,5
37069,81846,5
37062,81849,5
37067,81857,4
37053,81854,5
37070,81855,5
37062,81851,5
37063,81848,5
37069,81851,4
37058,81837,5
37057,81834,5
37066,81852,5
37065,81845,4
37068,81841,4
37060,81845,5
37056,81852,6
37057,81844,4
37060,81843,4
37059,81842,5
37059,81839,5
37050,81833,5
37048,81849,5
37061,81837,4
37043,81838,5
37055,81834,5
37050,81830,5
37050,81829,5
37034,81821,4
37051,81818,5
37051,81816,5
37040,81823,5
37029,81816,5
37041,81825,4
37047,81818,5
37044,81832,5
37051,81832,5
37047,81827,5
37047,81825,4
37050,81828,5
37057,81825,5
37047,81827,6
37046,81846,3
37051,81839,5
37068,81841,5
37048,81834,5
37041,81817,5
37050,81816,4
37044,81814,5
37030,81808,5
37026,81797,5
37033,81793,5
37037,81799,4
37033,81797,5
37034,81801,5
37039,81808,5
37042,81810,5
37029,81801,4
37040,81806,5
37037,81824,5
37041,81806,5
37045,81819,5
37029,81819,5
37042,81811,4
37035,81803,5
37024,81794,5
37026,81782,4
37011,81775,4
37003,81764,5
37004,81757,5
37001,81758,5
36999,81751,4
36987,81749,5
36989,81727,5
36984,81732,5
36975,81729,5
36989,81734,4
36992,81737,5
36992,81747,5
36986,81740,5
36987,81741,5
36981,81732,4
36985,81724,5
36988,81733,5
36983,81723,5
36986,81736,5
36989,81731,4
36988,81723,6
36978,81735,4
36968,81722,5
36974,81702,4
36966,81694,4
36966,81701,5
36954,81686,5
36954,81684,5
36955,81671,4
36945,81679,5
36958,81668,5
36941,81659,5
36952,81661,5
36952,81665,4
36950,81666,5
36950,81672,5
36953,81678,5
36954,81681,5
36960,81685,4
36959,81703,5
36967,81702,5
36969,81709,5
36972,81724,5
36985,81745,4
36992,81756,5
36993,81785,6
37004,81805,4
37020,81829,5
37034,81860,4
37039,81881,5
37055,81891,5
37066,81913,5
37070,81932,4
37064,81944,4
37071,81943,5
37064,81925,5
37067,81918,5
37061,81916,4
37063,81910,5
37054,81906,5
37060,81907,5
37046,81891,5
37047,81886,4
37044,81900,5
37047,81896,5
37054,81895,5
37055,81914,5
37063,81917,4
37063,81940,5
37067,81947,5
37090,81959,6
37090,81964,4
37088,81973,4
37086,81978,5
37085,81973,5
37076,81971,5
37088,81986,4
37093,81978,4
37087,81992,5
37091,82001,5
37100,81989,5
37107,82003,4
37100,82007,5
37103,82021,5
37104,82008,5
37106,82008,5
37097,82002,4
37097,82004,5
37096,82003,5
37093,81996,5
37096,81988,5
37093,81977,5
37089,81979,4
37092,81974,5
37090,81969,5
37079,81964,5
37079,81941,4
37065,81933,5
37059,81917,5
37060,81895,5
37052,81881,5
37043,81870,4
37030,81852,5
37035,81844,5
37018,81825,5
37016,81816,4
37014,81813,5
37021,81825,5
37023,81823,5
37027,81823,5
37028,81829,4
37025,81820,5
37026,81822,6
37024,81822,4
37027,81822,5
37028,81809,4
37019,81824,6
37025,81816,4
37036,81813,5
37024,81817,5
37027,81817,4
37026,81817,5
37024,81827,5
37032,81824,5
37033,81818,5
37030,81829,4
37030,81821,5
37029,81828,5
37032,81821,5
37028,81829,4
37023,81824,4
37036,81828,5
37031,81817,5
37028,81811,5
37027,81805,4
37023,81816,5
37020,81805,5
37009,81798,5
37012,81794,5
37016,81786,4
37011,81783,5
37008,81769,6
37004,81775,4
37010,81768,5
37006,81773,4
37004,81780,5
37016,81793,5
37013,81777,5
37010,81784,5
37006,81785,4
37008,81777,5
37007,81776,5
37010,81775,5
37016,81781,4
37013,81776,4
37010,81788,5
37011,81779,5
37015,81777,5
37018,81779,4
37016,81776,5
37014,81777,5
37015,81780,5
37014,81781,5
37011,81778,4
37010,81772,5
37011,81767,5
37015,81774,5
37015,81764,5
37011,81766,4
37009,81770,5
37013,81763,5
37008,81765,5
37006,81757,5
37011,81755,4
36998,81750,5
37003,81735,5
37000,81725,5
36990,81735,5
36989,81729,4
36982,81726,5
36986,81709,5
36988,81713,5
36978,81708,4
36982,81703,5
36986,81702,5
36989,81710,5
36986,81714,5
36982,81714,5
36986,81700,3
36982,81707,5
36984,81710,5
36979,81706,5
36984,81705,4
36988,81719,5
36987,81714,5
36987,81720,5
36984,81713,5
36997,81711,4
36986,81713,5
36990,81718,5
36989,81708,5
36988,81712,5
36989,81709,4
36977,81692,5
36976,81691,5
36980,81686,5
36981,81689,8
36982,81694,1
36982,81700,6
36979,81713,4
36988,81705,5
36994,81717,4
36983,81715,7
36998,81724,3
36999,81724,5
36991,81733,5
36997,81734,4
37001,81724,5
36994,81721,5
36992,81732,5
37001,81740,5
37009,81736,4
37002,81735,5
37005,81741,5
37010,81749,5
36998,81740,5
36997,81742,4
37005,81736,5
37014,81742,5
37003,81737,5
37007,81735,5
36998,81736,4
37007,81739,5
36999,81743,6
37005,81735,4
36999,81746,4
37008,81738,5
37002,81736,5
37006,81733,5
37002,81738,5
37010,81739,4
37005,81730,5
37000,81735,5
36999,81733,5
37000,81730,5
37008,81728,4
37002,81748,5
37003,81746,5
37007,81745,5
37017,81750,5
37014,81747,4
37023,81760,5
37011,81769,5
37018,81757,5
37007,81756,5
37019,81760,4
37005,81749,5
37005,81749,5
37014,81748,6
37012,81751,3
37009,81740,4
37013,81746,5
37010,81734,5
37011,81733,5
37005,81733,4
36999,81744,5
37005,81739,5
37003,81747,5
36999,81749,5
37001,81739,4
37014,81750,5
37004,81743,5
37004,81746,5
37012,81747,5
37013,81742,4
37009,81739,5
37010,81749,5
37014,81748,5
37011,81739,5
37009,81751,5
37016,81759,4
37020,81769,5
37014,81769,5
37020,81769,6
37027,81772,3
37023,81777,5
37033,81780,5
37034,81800,5
37030,81800,4
37039,81805,5
37034,81805,5
37036,81809,5
37030,81799,5
37035,81806,4
37028,81793,5
37028,81783,5
37026,81776,5
37028,81765,5
37019,81774,4
37012,81769,5
37028,81776,5
37028,81767,5
37022,81781,5
37023,81777,4
37022,81791,6
37026,81797,4
37034,81785,5
37029,81789,5
37026,81790,4
37039,81791,5
37036,81799,5
37032,81803,5
37032,81808,4
37038,81816,4
37041,81810,5
37046,81813,5
37034,81820,5
37042,81836,4
37046,81838,5
37047,81834,5
37049,81830,5
37051,81835,5
37053,81834,4
37046,81830,5
37050,81840,5
37049,81848,5
37051,81845,5
37053,81848,4
37057,81843,5
37062,81850,6
37052,81850,4
37051,81849,5
37062,81850,4
37052,81842,5
37051,81848,5
37054,81851,5
37054,81851,5
37054,81854,4
37056,81846,5
37060,81850,5
37060,81855,5
37066,81856,4
37069,81857,5
37061,81860,5
37062,81878,5
37072,81872,5
37063,81877,4
37069,81886,5
37063,81873,5
37069,81878,5
37083,81882,5
37076,81880,4
37077,81873,5
37078,81882,5
37070,81877,6
37082,81869,4
37073,81874,4
37068,81867,5
37067,81872,5
37067,81858,5
37066,81865,5
37064,81851,4
37055,81846,5
37063,81843,5
37059,81853,5
37056,81855,4
37049,81863,4
37054,81850,5
37057,81851,5
37049,81847,5
37059,81844,4
37055,81847,5
37058,81850,5
37057,81838,5
37048,81833,5
37046,81828,5
37047,81824,4
37050,81825,5
37046,81809,5
37040,81810,6
37027,81798,3
37024,81790,5
37028,81771,5
37022,81763,5
37009,81756,5
37018,81755,4
37008,81750,5
37013,81757,5
37011,81752,5
37011,81753,4
37011,81754,4
37018,81766,5
37024,81760,5
37020,81765,5
37018,81766,4
37011,81767,5
37027,81754,5
37011,81754,5
37012,81747,5
37009,81737,4
37016,81749,6
37013,81729,4
37008,81725,5
37002,81715,5
36988,81707,4
36990,81690,5
36985,81692,5
36976,81689,5
36989,81671,5
36977,81687,4
36983,81687,5
36984,81681,5
36988,81679,5
36987,81686,5
36979,81681,4
36986,81684,5
36986,81679,5
36979,81675,5
36979,81687,5
36977,81684,4
36975,81664,5
36977,81669,5
36971,81675,5
36974,81660,4
36969,81679,5
36979,81672,6
36973,81673,4
36975,81680,5
36982,81689,4
36979,81677,5
36972,81673,5
36978,81685,5
36985,81679,5
36985,81683,4
36981,81673,5
36987,81690,5
36983,81681,5
36986,81681,5
36984,81686,4
36988,81693,5
36992,81693,5
36985,81691,5
36982,81681,4
36974,81674,4
36979,81668,5
36962,81654,5
36966,81641,5
36964,81634,4
36967,81645,5
36957,81630,5
36957,81636,6
36962,81621,3
36947,81615,4
36952,81619,5
36950,81618,5
36957,81608,5
36955,81614,5
36946,81612,4
36956,81610,5
36956,81609,5
36953,81608,5
36949,81599,5
36950,81598,4
36938,81597,5
36944,81580,5
36939,81584,5
36931,81569,5
36934,81571,4
36935,81561,5
36933,81569,5
36936,81566,5
36922,81549,5
36925,81540,4
36917,81534,5
36905,81522,5
36917,81511,5
36911,81519,4
36916,81517,5
36909,81523,5
36910,81535,5
36916,81542,5
36921,81538,4
36917,81546,5
36914,81547,5
36921,81550,5
36921,81533,5
36915,81537,4
36909,81524,5
36918,81537,5
36922,81531,5
36915,81535,5
36917,81530,4
36915,81528,5
36910,81510,5
36902,81518,5
36917,81526,4
36904,81523,5
36898,81518,4
36901,81509,5
36909,81503,5
36900,81494,4
36907,81508,5
36903,81499,5
36908,81500,5
36894,81494,5
36907,81501,4
36901,81510,5
36894,81493,5
36891,81498,5
36890,81485,5
36893,81467,4
36884,81462,5
36878,81456,5
36871,81440,5
36872,81435,5
36869,81430,4
36873,81428,5
36857,81422,5
36860,81411,5
36855,81414,4
36861,81402,4
36847,81393,6
36860,81399,4
36843,81396,5
36855,81383,4
36839,81384,5
36846,81382,5
36854,81390,5
36847,81381,5
36839,81386,4
36844,81378,5
36840,81373,5
36841,81370,5
36843,81370,5
36833,81366,4
36845,81368,5
36842,81356,5
36832,81353,5
36832,81342,5
36823,81333,4
36824,81324,5
36821,81339,5
36819,81322,5
36814,81314,5
36815,81313,4
36809,81316,5
36817,81310,5
36812,81316,5
36813,81313,4
36814,81306,4
36808,81307,5
36816,81315,5
36812,81315,5
36809,81316,4
36818,81310,5
36813,81310,5
36806,81315,5
36814,81302,5
36804,81302,4
36807,81300,5
36810,81298,4
36812,81300,5
36802,81296,5
36806,81292,5
36801,81288,4
36806,81297,5
36804,81294,5
36818,81299,6
36803,81288,3
36805,81293,5
36807,81299,5
36805,81286,5
36807,81287,4
36799,81281,4
36789,81281,5
36809,81276,5
36796,81287,5
36800,81283,4
36802,81281,5
36809,81298,5
36797,81288,5
36801,81284,5
36800,81296,4
36810,81291,5
36804,81299,5
36800,81299,5
36813,81296,5
36804,81302,4
36803,81305,6
36817,81312,4
36812,81316,5
36807,81302,5
36806,81313,6
36812,81310,3
36808,81300,5
36809,81293,5
36808,81296,5
36802,81291,4
36804,81292,5
36809,81295,5
36799,81309,5
36804,81304,4
36813,81314,4
36816,81320,5
36827,81342,5
36829,81349,5
36838,81366,4
36841,81374,5
36848,81387,5
36853,81388,5
36847,81396,5
36854,81401,4
36855,81404,5
36869,81411,6
36873,81429,4
36870,81440,5
36874,81452,4
36880,81468,5
36893,81476,5
36890,81474,5
36898,81501,5
36898,81501,4
36907,81522,5
36916,81538,5
36923,81543,6
36933,81559,3
36929,81569,4
36942,81583,5
36961,81607,5
36955,81615,5
36956,81616,4
36964,81617,5
36955,81624,5
36954,81620,5
36956,81619,5
36955,81612,4
36947,81613,5
36951,81605,5
36955,81603,6
36945,81613,4
36955,81619,4
36951,81616,5
36953,81617,5
36956,81607,5
36952,81611,5
36956,81612,4
36956,81614,5
36946,81618,5
36954,81612,5
36957,81626,5
36953,81610,4
36953,81614,5
36951,81607,5
36951,81606,5
36955,81607,4
36946,81609,4
36955,81602,5
36948,81617,5
36946,81598,5
36940,81594,5
36939,81587,4
36944,81579,5
36934,81588,5
36939,81580,6
36937,81575,3
36932,81577,5
36934,81578,5
36935,81574,5
36928,81566,5
36939,81572,4
36940,81577,5
36935,81580,5
36935,81572,5
36937,81575,5
36938,81565,4
36922,81554,5
36920,81548,5
36920,81548,5
36930,81550,4
36917,81548,4
36916,81549,5
36921,81552,5
36926,81554,5
36924,81541,4
36924,81541,6
36924,81548,4
36912,81546,5
36917,81543,5
36915,81540,6
36921,81534,3
36918,81523,5
36912,81517,5
36904,81519,5
36903,81513,4
36910,81491,5
36896,81490,5
36898,81483,5
36894,81497,5
36895,81483,4
36899,81494,5
36888,81500,5
36893,81508,5
36896,81503,5
36903,81500,4
36898,81500,5
36900,81498,5
36903,81510,5
36899,81505,4
36897,81500,4
36906,81506,6
36901,81515,4
36908,81502,5
36898,81494,4
36894,81496,5
36894,81503,5
36891,81495,5
36893,81505,5
36897,81498,4
36886,81487,5
36899,81485,5
36892,81497,5
36883,81488,5
36903,81490,4
36901,81495,5
36900,81496,5
36896,81500,5
36896,81492,5
36898,81492,4
36901,81494,5
36892,81487,5
36898,81490,5
36882,81485,4
36895,81486,4
36897,81494,5
36895,81492,6
36906,81493,4
36887,81495,4
36886,81488,5
36889,81482,5
36887,81467,5
36875,81452,5
36876,81450,4
36876,81449,5
36881,81444,5
36874,81463,5
36878,81465,5
36877,81460,4
36887,81478,5
36891,81471,5
36891,81483,5
36895,81493,5
36898,81494,4
36900,81508,5
36907,81506,5
36910,81519,5
36915,81527,5
36906,81538,4
36914,81540,5
36926,81553,5
36916,81556,6
36930,81569,3
36929,81574,5
36934,81568,5
36931,81571,5
36932,81566,5
36934,81584,4
36936,81587,5
36949,81594,5
36945,81610,5
36947,81612,5
36955,81620,4
36959,81631,5
36962,81648,5
36965,81650,5
36979,81669,5
36978,81678,4
36978,81679,5
36976,81689,5
36987,81690,5
36973,81690,5
36977,81689,5
36986,81690,4
36982,81684,5
36987,81695,5
36993,81697,4
36992,81702,4
36981,81706,5
37000,81712,5
36989,81723,5
36992,81699,4
36998,81707,5
36995,81714,5
36993,81709,5
36996,81714,5
37005,81723,4
36999,81726,5
37007,81717,5
37006,81728,5
37000,81738,5
37004,81746,4
37005,81750,5
37007,81743,5
37017,81742,5
37005,81747,5
37013,81746,4
37006,81744,6
37007,81750,4
37000,81745,5
37015,81754,4
37011,81755,4
37012,81763,5
37018,81757,5
37018,81764,5
37020,81757,4
37015,81770,5
37020,81776,5
37012,81762,5
37025,81774,5
37024,81780,4
37028,81778,5
37021,81787,5
37023,81776,5
37023,81782,5
37023,81780,4
37022,81777,5
37023,81789,5
37027,81772,5
37018,81776,5
37026,81781,4
37025,81780,5
37022,81782,6
37025,81778,4
37019,81776,5
37029,81787,4
37030,81774,5
37026,81769,5
37018,81772,5
37030,81783,5
37026,81785,4
37023,81783,5
37024,81792,5
37038,81794,5
37040,81799,4
37029,81805,5
37035,81806,5
37035,81801,5
37033,81804,5
37037,81811,4
37030,81806,5
37037,81809,5
37033,81812,5
37043,81811,5
37037,81811,4
37031,81809,5
37037,81808,5
37037,81795,5
37031,81798,5
37023,81791,4
37025,81802,5
37031,81792,5
37034,81800,5
37032,81802,4
37030,81800,4
37027,81806,5
37035,81802,5
37030,81804,5
37031,81801,4
37027,81803,5
37029,81797,5
37024,81807,5
37031,81799,5
37022,81801,4
37017,81787,5
37019,81789,5
37017,81777,5
37018,81765,5
37023,81782,5
37013,81782,4
37019,81768,5
37018,81773,5
37024,81776,5
37021,81780,4
37022,81794,5
37026,81798,5
37025,81788,5
37035,81803,4
37034,81805,4
37036,81812,5
37030,81815,5
37026,81800,5
37029,81797,4
37022,81786,5
37018,81789,5
37006,81770,5
37004,81762,5
37001,81764,4
37010,81759,5
37008,81766,5
37010,81769,5
37006,81771,5
37002,81765,4
37008,81761,6
37012,81765,4
37020,81791,5
37022,81803,5
37027,81811,4
37030,81823,5
37037,81837,5
37029,81831,5
37040,81842,5
37036,81831,4
37034,81825,5
37030,81818,5
37026,81822,5
37023,81818,4
37023,81816,4
37035,81820,5
37036,81822,5
37034,81832,5
37040,81853,4
37049,81854,5
37041,81870,5
37054,81879,5
37068,81891,4
37057,81894,4
37065,81898,5
37065,81908,5
37073,81917,5
37071,81912,5
37071,81922,4
37072,81926,5
37082,81940,5
37088,81943,5
37079,81958,5
37098,81963,4
37110,81970,5
37097,81989,5
37111,82011,5
37114,82010,4
37115,82007,4
37111,82019,5
37126,82018,5
37113,82029,5
37121,82031,5
37120,82030,4
37128,82027,5
37122,82039,5
37122,82046,6
37125,82053,3
37130,82065,5
37139,82059,5
37141,82062,5
37141,82078,5
37137,82079,4
37150,82075,5
37133,82085,5
37152,82080,5
37137,82077,5
37146,82077,4
37137,82083,5
37144,82075,5
37134,82072,5
37125,82075,5
37136,82083,4
37136,82080,5
37138,82093,5
37145,82092,5
37144,82098,4
37141,82095,5
37132,82099,4
37149,82105,5
37159,82111,5
37150,82109,6
37150,82112,3
37157,82129,5
37157,82129,5
37164,82136,5
37158,82133,4
37157,82140,5
37166,82139,5
37153,82147,5
37162,82153,5
37156,82147,4
37161,82146,5
37153,82153,5
37164,82147,5
37163,82147,5
37161,82142,4
37156,82148,5
37153,82123,5
37149,82122,5
37141,82125,4
37144,82127,4
37141,82120,6
37141,82122,4
37140,82128,5
37151,82136,4
37149,82140,5
37160,82151,5
37155,82152,5
37164,82158,5
37156,82168,4
37164,82157,5
37154,82146,5
37166,82159,5
37156,82148,5
37156,82145,4
37158,82141,5
37154,82138,5
37146,82118,5
37140,82103,5
37127,82082,4
37120,82059,5
37113,82042,5
37112,82033,5
37098,82008,5
37093,82008,4
37091,82002,5
37100,82005,6
37091,82007,4
37097,82002,4
37098,81996,4
37081,81993,5
37091,81982,5
37083,81971,5
37081,81963,4
37078,81971,5
37071,81944,5
37067,81934,5
37054,81913,5
37052,81904,4
37044,81905,5
37045,81903,5
37049,81883,5
37043,81862,5
37038,81849,4
37028,81832,5
37003,81809,5
37003,81794,5
37006,81792,5
36995,81765,4
36996,81770,9
36997,81750,1
36975,81735,6
36977,81711,3
36977,81719,4
36972,81711,5
36959,81702,5
36965,81688,5
36959,81692,4
36966,81679,5
36953,81677,5
36953,81660,5
36943,81645,5
36932,81627,4
36924,81606,5
36923,81593,5
36918,81578,5
36902,81565,5
36899,81540,4
36892,81546,5
36890,81527,5
36893,81535,5
36880,81510,5
36879,81504,5
36871,81486,4
36860,81465,5
36858,81434,5
36835,81407,6
36832,81383,3
36814,81357,5
36812,81341,5
36792,81299,5
36771,81281,4
36765,81258,4
36765,81242,5
36754,81238,5
36766,81239,5
36761,81252,4
36769,81237,5
36760,81242,5
36764,81249,5
36771,81240,5
36770,81251,4
36775,81257,5
36763,81255,5
36770,81258,5
36768,81258,5
36775,81252,4
36759,81247,6
36762,81247,4
36764,81241,5
36762,81233,5
36769,81246,4
36764,81246,5
36765,81238,5
36759,81222,5
36759,81213,4
36736,81174,4
36725,81159,5
36714,81133,5
36718,81125,5
36700,81125,4
36710,81113,5
36716,81120,5
36706,81117,5
36715,81127,5
36719,81133,4
36722,81140,5
36724,81143,5
36724,81140,5
36720,81132,5
36722,81127,4
36716,81108,5
36704,81100,6
36705,81087,4
36694,81073,5
36688,81047,4
36676,81037,5
36677,81022,5
36661,81019,5
36660,80989,5
36642,80979,4
36641,80961,5
36629,80946,5
36636,80932,5
36618,80927,4
36618,80915,4
36605,80902,5
36614,80912,5
36618,80905,5
36604,80894,4
36596,80886,5
36592,80871,5
36582,80849,5
36575,80818,5
36567,80803,4
36558,80796,5
36564,80797,5
36565,80798,6
36570,80798,4
36566,80793,4
36556,80787,5
36555,80767,5
36538,80749,5
36527,80719,5
36521,80709,4
36515,80687,5
36506,80683,5
36513,80698,5
36513,80691,4
36511,80680,4
36513,80674,5
36507,80683,5
36513,80659,5
36497,80662,4
36494,80652,5
36498,80646,5
36487,80635,5
36480,80625,5
36481,80620,5
36476,80588,4
36471,80578,5
36466,80581,5
36467,80581,5
36459,80581,4
36468,80578,5
36461,80581,5
36466,80581,5
36470,80583,5
36468,80588,4
36473,80584,5
36471,80587,5
36474,80593,5
36473,80585,5
36477,80600,4
36469,80601,5
36479,80615,5
36479,80621,5
36485,80638,4
36497,80645,4
36502,80663,5
36508,80676,5
36515,80688,5
36519,80702,4
36529,80716,6
36528,80732,4
36537,80722,5
36544,80736,5
36548,80740,4
36535,80737,5
36544,80733,5
36539,80735,5
36543,80737,5
36545,80744,4
36538,80744,5
36548,80754,5
36557,80759,5
36562,80767,5
36569,80788,4
36568,80803,5
36574,80830,5
36589,80847,5
36599,80863,4
36609,80875,4
36617,80896,5
36617,80916,5
36626,80914,5
36632,80930,4
36640,80940,5
36635,80952,6
36646,80961,4
36648,80983,5
36661,80997,4
36662,81006,5
36669,81020,5
36673,81026,5
36687,81026,5
36688,81032,4
36690,81052,5
36691,81055,5
36689,81048,5
36692,81061,5
36698,81058,4
36693,81074,5
36696,81075,5
36692,81076,5
36714,81086,5
36706,81092,4
36707,81109,5
36721,81110,5
36729,81122,5
36728,81123,4
36720,81126,4
36724,81117,5
36713,81119,5
36712,81098,5
36712,81104,4
36721,81103,5
36720,81094,5
36710,81094,5
36710,81089,5
36718,81081,4
36705,81085,5
36701,81092,5
36703,81088,5
36704,81080,5
36705,81093,4
36701,81090,5
36712,81102,5
36722,81098,5
36714,81111,5
36714,81119,5
36717,81124,4
36727,81122,5
36716,81125,5
36731,81131,6
36729,81145,3
36737,81136,5
36735,81155,5
36732,81151,5
36738,81155,4
36725,81147,5
36740,81157,5
36732,81150,5
36732,81151,5
36738,81162,4
36735,81139,5
36739,81146,5
36730,81146,5
36737,81155,5
36740,81145,4
36739,81147,5
36739,81148,5
36737,81146,5
36735,81141,5
36734,81135,4
36730,81146,5
36737,81144,5
36737,81144,5
36737,81140,5
36740,81148,5
36738,81138,4
36741,81138,5
36732,81141,5
36730,81145,4
36727,81147,4
36733,81137,5
36735,81130,5
36732,81128,5
36723,81129,4
36721,81114,5
36732,81125,5
36716,81113,5
36722,81112,5
36725,81116,4
36718,81123,5
36724,81130,5
36730,81132,5
36734,81149,5
36738,81143,4
36737,81133,5
36735,81133,6
36732,81141,4
36732,81140,5
36736,81145,4
36740,81139,7
36733,81138,3
36736,81140,5
36741,81140,4
36732,81140,4
36729,81142,5
36742,81131,5
36736,81130,5
36738,81132,4
36739,81138,5
36730,81130,5
36729,81125,5
36735,81123,5
36738,81124,4
36729,81134,5
36740,81132,5
36739,81146,5
36735,81147,5
36743,81148,4
36737,81156,5
36735,81155,5
36748,81152,6
36734,81151,4
36741,81156,4
36744,81145,5
36747,81154,5
36747,81152,5
36738,81153,5
36742,81161,4
36747,81161,5
36751,81162,5
36749,81164,5
36751,81163,4
36755,81172,4
36756,81170,5
36758,81176,5
36759,81188,5
36760,81195,4
36763,81202,5
36765,81203,5
36762,81201,5
36771,81205,5
36762,81208,5
36769,81208,4
36768,81213,5
36764,81213,5
36764,81212,6
36767,81207,3
36773,81211,5
36775,81217,5
36772,81228,5
36769,81217,5
36772,81220,4
36771,81217,5
36766,81219,5
36764,81213,5
36773,81216,4
36768,81222,4
36781,81215,5
36775,81222,5
36774,81224,5
36780,81235,4
36775,81231,5
36788,81232,5
36778,81231,5
36779,81227,5
36775,81235,4
36778,81234,6
36777,81241,4
36788,81241,5
36778,81242,5
36782,81236,6
36785,81244,3
36790,81248,5
36778,81233,5
36789,81238,5
36787,81239,4
36789,81245,5
36774,81225,5
36786,81245,5
36783,81221,4
36776,81214,4
36776,81219,5
36772,81208,5
36777,81210,5
36770,81202,4
36774,81215,5
36775,81213,5
36779,81227,5
36787,81230,5
36781,81240,4
36778,81247,5
36788,81234,6
36782,81234,4
36779,81235,5
36783,81239,5
36791,81235,4
36780,81242,5
36784,81238,5
36787,81246,5
36787,81241,4
36784,81247,5
36793,81250,5
36788,81237,5
36787,81243,5
36781,81251,4
36777,81231,5
36788,81241,5
36783,81231,5
36777,81230,4
36777,81233,4
36775,81235,5
36779,81234,5
36781,81226,5
36785,81239,4
36786,81232,5
36780,81210,5
36770,81219,6
36779,81202,4
36766,81195,4
36768,81190,5
36760,81186,5
36756,81184,5
36760,81190,5
36761,81188,4
36764,81190,5
36762,81193,5
36755,81186,5
36760,81196,5
36758,81187,4
36765,81185,5
36764,81196,5
36763,81180,5
36764,81185,4
36757,81182,4
36761,81186,5
36753,81183,5
36752,81183,5
36757,81180,5
36760,81174,4
36756,81171,5
36757,81167,5
36747,81160,6
36745,81149,3
36738,81152,5
36731,81143,5
36738,81132,5
36739,81143,5
36729,81134,4
36733,81137,5
36742,81126,5
36735,81125,5
36729,81122,5
36723,81112,6
36723,81115,3
36720,81115,5
36727,81108,5
36729,81123,5
36728,81119,4
36726,81120,5
36730,81137,5
36730,81134,5
36731,81125,4
36733,81121,5
36731,81131,4
36731,81125,5
36730,81129,5
36732,81118,4
36727,81129,5
36722,81125,5
36737,81132,5
36731,81127,5
36733,81137,4
36732,81141,5
36728,81139,5
36738,81139,5
36737,81130,5
36733,81136,4
36736,81135,5
36736,81145,5
36736,81137,5
36747,81145,5
36743,81151,4
36735,81146,5
36734,81162,5
36750,81161,5
36752,81162,4
36746,81169,4
36746,81169,6
36757,81169,4
36758,81180,5
36753,81189,4
36763,81188,5
36763,81179,5
36755,81182,5
36762,81195,5
36771,81200,4
36760,81198,5
36761,81197,5
36765,81191,5
36756,81189,5
36758,81189,4
36749,81184,5
36751,81176,5
36743,81174,5
36747,81161,5
36754,81172,4
36760,81185,5
36752,81177,5
36758,81186,5
36768,81191,5
36766,81206,4
36770,81204,5
36764,81208,6
36774,81218,4
36774,81214,4
36772,81217,4
36780,81226,5
36778,81237,5
36777,81254,5
36782,81254,4
36786,81258,5
36800,81270,5
36793,81273,5
36805,81285,5
36807,81293,4
36808,81301,5
36812,81321,5
36831,81326,5
36826,81352,5
36838,81344,4
36844,81366,5
36840,81365,5
36848,81373,5
36848,81367,5
36853,81393,4
36855,81389,5
36855,81388,5
36853,81393,5
36853,81383,4
36841,81381,4
36843,81383,5
36850,81402,5
36849,81393,5
36847,81405,4
36853,81406,5
36869,81425,5
36874,81432,5
36875,81440,5
36874,81459,4
36888,81476,5
36897,81493,5
36906,81497,5
36903,81518,5
36917,81527,4
36914,81550,5
36936,81563,5
36943,81580,5
36942,81593,5
36952,81605,5
36955,81618,4
36957,81637,5
36968,81651,5
36979,81670,4
36982,81682,4
36988,81696,5
36992,81706,5
36998,81713,5
36997,81715,4
37003,81720,5
37005,81733,5
37009,81735,5
37003,81737,5
37012,81746,4
37014,81751,5
37016,81762,5
37021,81763,5
37029,81773,5
37032,81768,4
37023,81780,5
37032,81779,5
37033,81787,5
37029,81802,5
37034,81792,4
37037,81810,6
37043,81809,4
37049,81819,5
37039,81829,5
37043,81819,4
37057,81834,5
37051,81836,5
37064,81834,5
37059,81841,4
37059,81841,4
37061,81854,5
37064,81851,5
37067,81862,5
37062,81860,4
37068,81855,5
37064,81865,5
37069,81873,5
37072,81870,5
37069,81873,4
37067,81877,5
37064,81877,5
37069,81871,5
37065,81866,5
37077,81875,4
37067,81889,5
37068,81885,6
37075,81891,4
37084,81894,5
37077,81901,4
37079,81893,5
37082,81897,5
37079,81900,5
37082,81910,4
37089,81910,4
37076,81900,5
37086,81898,5
37070,81890,5
37079,81895,4
37077,81893,5
37067,81888,5
37067,81888,5
37074,81879,5
37076,81890,4
37076,81880,5
37078,81888,5
37085,81887,5
37084,81893,5
37078,81889,4
37078,81896,5
37071,81897,5
37077,81892,5
37090,81900,5
37079,81892,4
37079,81892,5
37074,81898,5
37065,81891,5
37074,81880,5
37072,81863,4
37064,81868,5
37058,81859,5
37057,81844,5
37056,81830,4
37056,81830,4
37051,81826,5
37043,81827,5
37046,81814,5
37042,81829,4
37045,81825,5
37046,81825,4
37040,81829,5
37033,81814,5
37040,81810,5
37036,81800,3
37029,81783,5
37024,81781,5
37021,81768,5
37007,81745,4
37009,81732,5
36993,81706,5
36988,81682,5
36982,81681,5
36972,81674,4
36973,81659,5
36959,81641,5
36963,81643,5
36958,81643,5
36963,81647,4
36969,81632,5
36964,81649,5
36969,81655,5
36959,81654,4
36964,81646,5
36959,81640,6
36970,81648,4
36961,81646,5
36961,81647,4
36956,81627,7
36957,81640,3
36954,81636,5
36950,81636,5
36948,81617,4
36950,81606,5
36946,81605,5
36944,81622,5
36945,81615,5
36946,81613,4
36943,81617,5
36950,81620,5
36943,81619,5
36949,81614,5
36954,81628,4
36957,81627,5
36954,81620,5
36961,81636,5
36963,81641,4
36958,81653,4
36976,81660,5
36969,81661,6
36977,81674,4
36972,81670,4
36979,81676,5
36974,81683,5
36986,81693,5
36986,81700,5
36992,81704,4
36982,81683,5
36978,81694,5
36980,81699,5
36981,81705,5
36989,81714,4
36989,81704,5
36996,81716,5
36986,81714,5
36992,81713,5
36996,81723,4
36988,81717,5
36993,81722,5
36988,81724,5
36994,81725,5
37001,81730,4
37002,81739,5
36997,81733,5
37001,81744,6
37005,81737,3
37002,81747,5
36998,81743,5
37011,81762,5
37006,81759,5
37007,81761,4
37009,81760,5
37013,81777,5
37016,81772,5
37016,81771,5
37016,81775,4
37016,81780,5
37018,81784,5
37021,81789,5
37022,81783,5
37030,81799,4
37026,81801,5
37021,81789,5
37023,81796,5
37021,81793,5
37022,81799,5
37018,81794,4
37023,81790,5
37021,81791,5
37017,81789,6
37017,81785,3
37018,81792,5
37019,81782,5
37013,81767,5
37007,81772,4
37007,81768,5
37006,81749,5
37002,81748,5
36997,81744,5
36996,81736,4
36993,81736,5
36998,81725,5
36992,81732,5
36998,81738,5
36996,81736,4
36988,81740,5
36995,81756,5
37000,81747,5
36994,81748,5
36993,81744,4
36998,81748,6
36998,81745,4
37002,81751,5
37001,81753,4
36995,81751,4
36993,81752,5
37002,81750,5
37003,81756,5
36985,81748,4
36995,81747,5
36996,81745,5
36999,81740,5
36987,81744,5
36991,81739,4
36993,81743,5
36999,81750,5
37003,81740,5
36997,81745,5
36995,81750,4
36996,81752,5
36999,81752,5
36997,81757,5
37003,81764,5
37005,81757,4
36996,81764,5
37002,81754,6
36994,81747,4
36994,81750,5
36998,81756,4
36995,81748,5
36990,81757,5
37003,81761,5
37007,81751,4
37004,81768,4
37006,81763,5
37000,81760,5
37009,81762,5
37001,81761,4
37008,81766,5
37005,81776,5
37014,81773,5
37010,81777,5
37010,81771,5
37010,81773,4
37009,81777,5
37003,81782,5
37013,81784,5
37014,81778,4
37015,81783,5
37008,81788,5
37008,81785,6
37009,81786,4
37014,81797,4
37017,81800,5
37012,81794,5
37006,81789,5
37017,81798,5
37018,81807,4
37012,81804,5
37016,81792,5
37013,81799,5
37020,81805,4
37023,81807,4
37020,81808,5
37017,81807,5
37025,81809,5
37021,81813,4
37019,81816,5
37026,81829,5
37035,81826,5
37028,81833,5
37030,81843,5
37034,81851,4
37028,81851,5
37033,81858,5
37038,81860,5
37030,81858,4
37044,81864,5
37035,81863,5
37031,81867,5
37041,81859,5
37039,81864,4
37042,81867,5
37033,81870,5
37037,81859,5
37037,81864,4
37034,81860,4
37037,81865,5
37029,81867,5
37032,81870,5
37032,81870,4
37047,81880,5
37052,81885,5
37047,81886,5
37050,81886,5
37051,81897,4
37057,81897,6
37058,81913,4
37053,81916,9
37057,81920,6
37056,81919,4
37059,81898,5
37055,81899,5
37052,81892,5
37036,81887,4
37031,81887,5
37040,81872,5
37038,81875,5
37040,81879,5
37045,81886,4
37038,81895,5
37046,81897,5
37051,81889,5
37052,81903,4
37056,81912,4
37054,81915,5
37057,81926,5
37059,81920,5
37056,81931,4
37061,81927,5
37058,81925,6
37057,81936,4
37059,81926,5
37057,81940,4
37059,81942,5
37062,81943,5
37064,81943,5
37058,81943,5
37055,81942,4
37066,81937,5
37063,81950,5
37068,81940,5
37070,81935,5
37057,81940,4
37065,81954,5
37063,81956,5
37063,81960,5
37071,81956,4
37068,81951,4
37064,81957,5
37076,81958,5
37075,81964,5
37060,81960,4
37074,81955,5
37072,81950,5
37060,81939,6
37060,81956,4
37061,81964,4
37073,81967,5
37069,81966,5
37078,81971,5
37082,81979,5
37088,81987,4
37082,81986,5
37083,81990,5
37081,81988,5
37079,82000,5
37088,81993,4
37085,81989,5
37086,81984,5
37085,81989,5
37091,81987,5
37076,81981,5
37086,81985,4
37089,81989,5
37084,81984,5
37082,81988,6
37083,81978,3
37094,81974,5
37081,81986,5
37080,81976,5
37078,81965,4
37070,81955,5
37070,81955,5
37063,81957,5
37066,81948,5
37068,81950,4
37063,81949,5
37064,81944,5
37065,81938,5
37063,81938,5
37063,81923,4
37059,81925,5
37061,81924,5
37056,81923,5
37050,81928,5
37059,81930,4
37051,81919,5
37063,81930,5
37055,81929,5
37058,81922,4
37061,81919,5
37060,81919,4
37061,81936,5
37063,81914,5
37053,81920,4
37060,81920,5
37057,81922,5
37057,81913,5
37056,81917,5
37055,81921,4
37050,81921,5
37054,81925,5
37059,81932,5
37061,81933,5
37074,81935,4
37060,81945,5
37066,81936,5
37079,81942,5
37067,81949,5
37074,81952,4
37073,81949,5
37066,81962,5
37077,81965,5
37072,81952,4
37073,81959,4
37083,81950,6
37068,81939,4
37068,81932,5
37055,81928,4
37063,81932,5
37063,81924,5
37060,81926,5
37059,81937,5
37067,81949,4
37070,81955,5
37069,81964,5
37083,81972,5
37083,81981,5
37081,81991,4
37092,81983,5
37089,81995,5
37089,81981,5
37086,81989,5
37092,81995,4
37090,81982,5
37096,82003,5
37098,82005,5
37097,82011,5
37093,82013,4
37098,82009,5
37113,82006,5
37107,82009,5
37111,82011,4
37104,82009,4
37110,82007,5
37108,82006,5
37104,82006,5
37105,82016,4
37100,82015,5
37111,82008,5
37106,82023,5
37103,82010,5
37106,82016,4
37108,82021,5
37110,82011,5
37110,82013,5
37111,82013,5
37106,82016,5
37095,82014,4
37103,82013,5
37105,82015,5
37103,82030,6
37109,82031,3
37115,82033,5
37114,82038,5
37124,82039,5
37126,82046,4
37115,82046,4
37121,82048,5
37122,82059,5
37123,82060,5
37131,82052,4
37127,82065,5
37136,82065,5
37129,82068,5
37132,82069,5
37135,82067,4
37135,82077,5
37143,82074,5
37144,82077,5
37137,82085,5
37143,82090,4
37139,82083,6
37141,82091,4
37145,82091,5
37135,82095,5
37144,82096,6
37138,82102,3
37152,82105,5
37147,82101,5
37153,82104,5
37154,82105,4
37149,82111,5
37152,82110,5
37156,82105,5
37149,82109,4
37148,82116,4
37167,82117,5
37153,82118,5
37156,82116,5
37155,82122,4
37172,82122,5
37155,82125,5
37166,82136,5
37161,82133,5
37167,82140,4
37165,82138,5
37169,82143,6
37166,82151,4
37177,82157,5
37179,82154,4
37182,82157,5
37175,82155,5
37175,82145,5
37173,82152,5
37171,82148,4
37163,82153,5
37168,82136,5
37175,82151,5
37169,82146,4
37175,82146,4
37176,82150,5
37178,82160,5
37184,82162,5
37186,82168,4
37187,82191,5
37186,82191,5
37195,82198,5
37198,82198,5
37205,82217,4
37199,82216,5
37200,82218,5
37204,82213,6
37206,82236,4
37206,82220,4
37210,82223,5
37202,82216,5
37208,82228,5
37207,82231,5
37210,82221,4
37206,82222,5
37213,82221,5
37202,82225,5
37205,82217,5
37212,82220,4
37213,82227,5
37208,82228,5
37214,82237,5
37208,82240,4
37219,82232,4
37219,82243,5
37218,82243,5
37218,82246,5
37224,82245,5
37219,82249,4
37220,82247,5
37215,82243,5
37223,82253,6
37222,82244,3
37225,82252,5
37229,82260,5
37222,82261,5
37224,82260,5
37234,82275,4
37238,82280,5
37238,82276,5
37238,82272,5
37236,82282,5
37247,82286,4
37244,82287,5
37240,82284,5
37243,82288,5
37243,82304,4
37246,82293,4
37245,82301,5
37250,82298,5
37247,82302,5
37252,82305,4
37247,82309,6
37246,82304,4
37257,82304,5
37252,82301,5
37251,82307,4
37258,82316,5
37252,82323,5
37250,82314,5
37255,82309,5
37254,82314,4
37254,82318,5
37249,82308,5
37242,82294,5
37242,82292,5
37233,82277,4
37238,82279,5
37228,82271,5
37235,82253,5
37227,82256,5
37229,82242,4
37223,82245,5
37221,82231,5
37220,82233,5
37220,82236,4
37218,82232,4
37220,82233,6
37211,82238,4
37219,82238,5
37209,82237,4
37209,82225,5
37208,82226,5
37198,82224,5
37208,82220,5
37197,82198,4
37202,82196,5
37183,82166,5
37186,82168,5
37190,82162,5
37178,82156,4
37175,82147,5
37174,82138,5
37170,82136,5
37166,82128,5
37167,82135,4
37155,82125,5
37169,82129,5
37157,82122,5
37162,82118,4
37156,82113,4
37164,82107,5
37162,82112,6
37162,82124,4
37158,82109,4
37161,82110,5
37160,82111,5
37158,82116,5
37157,82121,5
37169,82116,4
37158,82111,5
37161,82112,5
37163,82101,5
37156,82103,5
37153,82109,4
37159,82104,5
37162,82106,5
37156,82103,5
37155,82101,5
37168,82108,4
37158,82098,5
37152,82106,5
37153,82105,5
37151,82104,5
37159,82101,4
37154,82104,5
37157,82104,5
37149,82090,6
37146,82080,3
37142,82084,4
37136,82090,5
37147,82077,5
37138,82076,5
37146,82088,5
37141,82077,4
37140,82079,5
37142,82066,5
37143,82071,5
37145,82067,4
37141,82067,5
37144,82070,5
37143,82061,5
37141,82059,5
37136,82058,4
37129,82064,5
37140,82050,5
37121,82040,5
37124,82018,5
37106,82001,5
37096,81970,4
37085,81937,5
37066,81912,5
37056,81897,4
37046,81879,4
37043,81851,5
37031,81858,5
37028,81836,5
37033,81829,4
37025,81797,5
37017,81791,5
37007,81760,5
36987,81735,5
36969,81701,4
36956,81667,5
36942,81638,5
36924,81620,5
36913,81594,5
36912,81560,4
36905,81554,5
36903,81535,5
36901,81523,5
36883,81498,5
36875,81486,4
36864,81475,6
36859,81449,4
36845,81432,5
36840,81415,4
36834,81385,4
36816,81363,5
36804,81339,5
36803,81322,5
36792,81319,4
36790,81293,5
36785,81274,5
36772,81247,5
36751,81208,5
36734,81164,4
36721,81125,5
36702,81092,7
36681,81063,3
36675,81037,5
36660,81031,4
36661,81012,5
36659,81008,5
36650,81002,5
36654,80993,5
36650,80983,4
36645,80965,5
36647,80951,6
36634,80942,4
36628,80928,5
36618,80920,4
36625,80921,5
36624,80922,5
36625,80927,5
36622,80920,4
36624,80911,4
36611,80890,5
36604,80872,5
36588,80861,5
36596,80848,4
36587,80840,5
36585,80836,5
36574,80823,5
36576,80823,5
36573,80816,4
36567,80807,5
36573,80806,5
36557,80802,5
36572,80803,5
36559,80788,4
36557,80794,5
36564,80783,5
36552,80784,5
36559,80783,5
36568,80790,4
36561,80794,5
36570,80803,5
36568,80817,5
36569,80819,4
36584,80830,4
36586,80845,5
36595,80854,5
36598,80867,5
36601,80883,4
36603,80904,5
36624,80931,5
36626,80947,5
36647,80984,5
36667,81030,4
36689,81058,5
36693,81087,5
36716,81119,5
36724,81148,5
36735,81169,5
36737,81208,4
36769,81217,5
36762,81239,5
36782,81255,5
36787,81282,4
36796,81303,5
36805,81323,5
36822,81345,5
36836,81373,5
36838,81399,4
36847,81408,5
36862,81434,5
36877,81456,5
36880,81469,4
36885,81486,5
36883,81494,5
36896,81504,5
36901,81516,5
36902,81528,4
36909,81531,5
36913,81542,5
36919,81545,5
36913,81558,5
36919,81562,4
36923,81563,6
36926,81571,4
36922,81581,5
36929,81568,5
36925,81576,4
36931,81582,5
36934,81587,5
36924,81598,5
36936,81611,5
36944,81612,4
36951,81614,5
36943,81622,5
36948,81631,5
36953,81622,4
36947,81639,4
36950,81636,5
36947,81637,5
36951,81633,5
36944,81636,4
36956,81624,5
36951,81628,5
36940,81615,6
36935,81607,4
36941,81596,4
36943,81602,5
36939,81602,5
36942,81605,5
36938,81614,5
36939,81623,4
36942,81622,5
36947,81626,5
36944,81624,5
36948,81623,5
36949,81620,4
36952,81622,5
36942,81635,5
36955,81629,5
36950,81627,4
36945,81625,4
36950,81624,5
36952,81626,5
36953,81630,5
36961,81622,5
36946,81621,4
36948,81638,5
36958,81619,5
36954,81629,6
36955,81624,3
36958,81630,5
36947,81636,5
36953,81630,5
36955,81640,5
36959,81635,4
36958,81644,5
36961,81651,5
36966,81656,5
36975,81657,5
36976,81662,4
36960,81660,5
36970,81654,5
36970,81660,5
36965,81673,5
36963,81683,4
36980,81685,5
36984,81700,5
36998,81712,5
36996,81731,4
37005,81728,6
37008,81749,4
37016,81758,5
37015,81768,5
37022,81782,6
37021,81791,3
37032,81797,5
37037,81809,5
37036,81804,5
37041,81815,4
37046,81824,5
37041,81830,5
37045,81843,5
37047,81833,5
37055,81845,4
37054,81854,5
37053,81854,5
37053,81856,5
37066,81847,5
37050,81864,4
37062,81856,5
37060,81861,5
37068,81874,5
37068,81872,4
37062,81868,4
37068,81872,6
37063,81888,4
37072,81883,5
37067,81878,4
37069,81884,5
37073,81889,5
37066,81887,5
37067,81883,5
37071,81881,4
37068,81885,5
37077,81891,5
37069,81899,5
37078,81898,5
37071,81883,4
37075,81892,5
37071,81899,5
37073,81897,5
37076,81894,5
37076,81906,4
37083,81899,5
37074,81895,5
37068,81901,5
37074,81895,4
37076,81900,4
37081,81893,5
37070,81904,6
37083,81892,4
37081,81892,4
37075,81896,5
37079,81896,5
37070,81897,5
37072,81886,5
37067,81895,4
37082,81889,5
37068,81873,5
37058,81879,5
37068,81870,5
37070,81874,4
37060,81878,5
37062,81870,5
37065,81870,5
37064,81866,5
37067,81875,4
37057,81859,5
37062,81851,5
37056,81850,5
37056,81854,5
37055,81860,4
37057,81860,5
37054,81851,5
37058,81855,6
37056,81861,3
37057,81861,4
37052,81845,5
37061,81853,5
37052,81858,5
37058,81860,4
37058,81854,5
37062,81854,5
37059,81852,5
37061,81848,5
37051,81863,4
37059,81855,5
37068,81862,5
37059,81863,5
37061,81881,5
37062,81876,4
37059,81877,5
37070,81883,5
37074,81891,5
37070,81887,5
37068,81895,5
37075,81897,4
37064,81895,5
37068,81904,5
37078,81886,6
37068,81891,3
37074,81880,5
37066,81882,5
37061,81860,5
37062,81871,4
37061,81863,5
37057,81849,5
37055,81859,5
37053,81865,5
37063,81859,4
37067,81865,5
37058,81873,5
37060,81884,5
37068,81887,5
37070,81883,4
37068,81892,5
37064,81871,5
37069,81873,5
37073,81874,5
37060,81875,4
37078,81883,6
37067,81882,4
37068,81886,5
37067,81883,4
37064,81874,4
37067,81879,5
37067,81881,5
37060,81880,5
37067,81878,4
37068,81878,5
37066,81885,5
37065,81878,5
37074,81881,5
37068,81875,4
37066,81872,5
37068,81884,5
37064,81883,5
37068,81875,5
37064,81889,4
37067,81885,5
37063,81886,5
37067,81880,5
37064,81878,5
37060,81868,4
37053,81866,5
37057,81865,6
37068,81859,4
37062,81862,5
37065,81868,4
37056,81871,5
37058,81876,5
37073,81874,5
37056,81877,4
37057,81870,4
37063,81867,5
37062,81867,5
37056,81865,5
37067,81872,4
37063,81864,5
37057,81868,5
37066,81866,5
37062,81872,5
37062,81871,4
37063,81870,5
37058,81877,5
37057,81877,5
37067,81869,5
37069,81875,4
37058,81879,5
37069,81884,5
37066,81879,6
37065,81874,4
37075,81884,4
37059,81887,5
37069,81879,5
37071,81883,5
37071,81895,4
37067,81886,4
37059,81879,5
37068,81885,5
37067,81891,5
37062,81886,4
37069,81887,5
37071,81897,5
37069,81893,5
37071,81894,5
37063,81890,4
37063,81886,5
37072,81885,5
37066,81895,5
37074,81891,5
37065,81892,5
37066,81886,4
37068,81889,5
37075,81886,5
37074,81887,5
37072,81895,4
37069,81884,5
37080,81890,5
37070,81887,5
37064,81888,4
37073,81890,4
37070,81886,5
37073,81882,5
37068,81890,5
37069,81882,4
37066,81892,5
37073,81887,5
37065,81892,5
37075,81884,5
37063,81873,4
37067,81878,5
37059,81882,5
37065,81877,5
37068,81864,5
37062,81872,5
37061,81876,5
37058,81875,4
37062,81866,5
37064,81876,5
37063,81883,4
37063,81884,5
37062,81884,5
37072,81881,5
37064,81885,5
37065,81878,4
37064,81892,5
37066,81878,5
37072,81882,5
37069,81883,4
37069,81893,4
37073,81884,5
37065,81888,5
37064,81875,5
37066,81870,4
37058,81870,5
37055,81863,5
37058,81861,5
37063,81855,5
37054,81852,4
37054,81851,5
37054,81846,6
37059,81853,4
37056,81852,5
37053,81861,4
37051,81866,5
37056,81869,5
37060,81866,5
37062,81866,5
37054,81877,4
37067,81875,5
37061,81875,5
37061,81875,5
37068,81874,4
37054,81866,4
37061,81871,5
37066,81870,5
37064,81876,5
37059,81869,4
37052,81873,5
37061,81871,5
37068,81865,5
37055,81868,5
37060,81869,4
37063,81867,5
37063,81869,5
37054,81866,5
37056,81859,5
37052,81873,9
37052,81873,5
37051,81859,5
37055,81861,5
37055,81858,4
37050,81857,5
37054,81862,5
37046,81847,5
37056,81854,4
37060,81873,4
37062,81861,5
37059,81863,5
37059,81870,5
37063,81866,4
37056,81868,5
37055,81870,5
37062,81858,5
37048,81863,5
37049,81854,5
37045,81854,4
37051,81851,5
37052,81854,5
37055,81863,5
37052,81863,4
37057,81870,5
37069,81871,5
37056,81880,5
37060,81885,5
37060,81892,4
37062,81887,5
37061,81883,5
37068,81888,5
37067,81893,5
37068,81894,4
37063,81884,5
37070,81888,5
37067,81891,5
37063,81885,4
37057,81890,5
37062,81885,5
37065,81880,5
37061,81876,5
37061,81876,4
37052,81880,6
37055,81880,4
37055,81881,5
37064,81881,5
37057,81886,4
37054,81882,5
37059,81875,5
37058,81878,5
37060,81874,5
37052,81874,4
37065,81877,5
37058,81882,5
37055,81890,5
37064,81891,5
37059,81884,4
37066,81883,5
37062,81881,5
37072,81893,5
37069,81888,4
37061,81888,4
37058,81899,5
37073,81892,6
37056,81895,4
37059,81893,4
37065,81896,5
37070,81897,5
37066,81896,5
37067,81898,5
37069,81915,4
37077,81917,5
37078,81917,5
37079,81913,5
37075,81929,5
37075,81930,4
37089,81936,5
37073,81935,5
37075,81921,5
37079,81931,5
37080,81935,4
37083,81933,5
37079,81943,5
37079,81922,5
37080,81922,5
37080,81932,4
37077,81920,5
37062,81915,5
37062,81910,6
37062,81910,3
37067,81908,5
37072,81916,5
37066,81917,5
37064,81921,5
37073,81921,4
37076,81938,5
37076,81935,5
37081,81939,5
37081,81951,5
37089,81946,4
37089,81943,5
37083,81953,5
37082,81953,5
37087,81956,5
37088,81961,4
37088,81953,5
37089,81960,5
37094,81956,5
37090,81961,5
37087,81963,5
37089,81964,4
37086,81957,5
37085,81959,5
37094,81951,6
37091,81962,3
37085,81966,5
37090,81964,5
37084,81971,5
37092,81969,4
37097,81986,5
37087,81976,5
37094,81979,5
37093,81976,5
37089,81977,4
37101,81976,5
37093,81981,5
37094,81978,5
37091,81978,5
37084,81975,4
37093,81974,5
37093,81979,5
37099,81991,5
37091,81993,5
37094,81988,4
37107,82000,6
37103,82001,4
37105,81995,5
37105,81999,4
37098,81996,4
37104,81994,5
37098,81999,5
37106,81997,5
37098,82001,4
37111,81994,5
37100,82001,5
37104,81998,5
37108,82009,5
37112,82005,4
37110,82007,5
37102,82009,5
37101,82010,5
37107,82008,5
37110,82003,4
37106,81997,5
37105,81994,5
37097,81995,8
37096,82002,4
37078,82005,4
37088,81991,4
37099,81990,9
37094,82015,4
37088,81991,4
37096,81936,9
37094,81976,4
37096,81981,4
37087,81983,9
37087,81983,4
37099,81984,4
37075,81974,9
37093,81985,4
37088,81987,6
37085,81983,7
37085,81983,4
37123,81975,6
37095,81972,7
37072,81981,4
37087,81972,6
37095,81998,7
37087,81993,4
37087,81965,6
37087,81965,7
37080,81964,4
37077,81958,6
37086,81958,7
37087,81965,4
37090,81975,6
37084,81973,7
37084,81973,4
37100,81952,6
37087,81958,7
37082,81953,6
37075,81946,4
37062,81951,7
37069,81933,6
37059,81897,9
37059,81897,4
37048,81886,6
37053,81874,4
37049,81869,7
37044,81869,6
37031,81820,4
36969,81716,7
36969,81716,6
36961,81700,7
36958,81674,6
36947,81642,6
36865,81473,7
36865,81473,6
36838,81414,4
36818,81366,7
36799,81338,6
36798,81313,8
36752,81235,9
36752,81235,8
36742,81199,9
36738,81169,4
36714,81139,4
36670,81041,9
36670,81041,4
36668,81017,4
36656,80995,9
36619,80945,4
36613,80927,4
36557,80790,9
36557,80790,4
36561,80779,4
36560,80771,9
36543,80766,4
36529,80744,4
36517,80718,9
36509,80693,4
36503,80695,4
36454,80582,9
36454,80582,4
36449,80564,6
36451,80561,7
36430,80523,4
36447,80495,6
36327,80304,7
36327,80304,4
36323,80281,6
36307,80236,7
36286,80201,4
36287,80194,6
36313,80164,7
36262,80143,4
36246,80128,6
36195,80008,7
36195,80008,4
36206,79995,6
36198,80000,7
36182,79998,4
36191,79989,6
36185,79986,7
36158,79935,6
36158,79935,7
36173,79946,4
36164,79950,6
36160,79924,4
36139,79863,0
36111,79783,5
36074,79681,5
36026,79604,5
36000,79552,4
35992,79539,5
35989,79513,5
35982,79512,5
35971,79474,5
35943,79427,4
35937,79414,5
35933,79412,5
35928,79421,5
35937,79423,5
35947,79436,4
35945,79443,5
35940,79425,5
35929,79408,5
35921,79374,4
35915,79363,4
35905,79345,5
35899,79331,5
35895,79334,5
35896,79327,4
35900,79331,6
35899,79332,4
35898,79337,5
35901,79344,5
35896,79362,4
35913,79362,5
35922,79377,5
35920,79384,5
35925,79381,5
35933,79393,4
35926,79388,5
35930,79396,5
35948,79428,5
35949,79472,5
35985,79501,4
35981,79522,5
35999,79540,5
36013,79582,5
36019,79609,4
36036,79647,4
36067,79680,5
36079,79730,5
36098,79772,5
36116,79811,4
36134,79836,5
36147,79875,6
36157,79914,4
36175,79953,5
36196,79981,4
36210,80016,5
36225,80051,5
36236,80070,5
36251,80100,5
36276,80148,4
36285,80196,5
36315,80240,5
36333,80284,5
36359,80339,5
36382,80384,5
36405,80439,4
36425,80479,5
36440,80520,5
36466,80544,5
36465,80579,4
36480,80611,5
36494,80637,5
36503,80666,6
36521,80694,3
36535,80732,4
36549,80755,5
36565,80787,5
36579,80814,5
36596,80850,4
36606,80877,5
36617,80910,5
36626,80930,5
36648,80963,5
36652,80994,4
36678,81027,5
36682,81059,5
36711,81080,5
36708,81104,5
36716,81121,4
36729,81128,5
36729,81133,5
36720,81124,5
36727,81124,5
36719,81138,4
36727,81132,5
36728,81140,5
36738,81147,5
36736,81159,5
36742,81184,4
36748,81196,5
36769,81213,5
36763,81217,5
36777,81223,4
36767,81230,5
36776,81242,5
36785,81242,5
36779,81236,5
36774,81241,4
36778,81252,5
36785,81258,5
36783,81255,5
36779,81260,5
36785,81257,4
36788,81271,5
36793,81267,5
36785,81257,5
36787,81258,7
36786,81266,2
36799,81268,5
36805,81278,4
36791,81283,5
36799,81281,4
36808,81303,5
36801,81310,3
36805,81317,5
36811,81303,5
36816,81309,4
36817,81307,5
36799,81299,5
36801,81303,5
36806,81295,5
36801,81298,4
36796,81291,5
36801,81285,5
36792,81290,5
36795,81281,5
36800,81288,4
36802,81291,5
36797,81280,5
36798,81277,5
36795,81288,5
36792,81289,4
36799,81290,5
36804,81306,6
36799,81304,4
36801,81316,5
36811,81315,4
36816,81322,5
36817,81334,5
36826,81342,5
36822,81345,4
36826,81353,4
36828,81372,5
36838,81369,5
36833,81381,5
36841,81389,4
36840,81386,5
36846,81395,5
36850,81402,5
36850,81396,5
36844,81400,4
36848,81400,5
36843,81399,5
36848,81408,5
36860,81400,5
36847,81407,4
36847,81400,5
36836,81389,5
36850,81392,6
36846,81391,4
36842,81393,4
36830,81391,5
36834,81385,5
36841,81380,5
36842,81372,4
36837,81366,4
36822,81365,5
36823,81346,5
36820,81334,5
36812,81318,4
36811,81312,5
36798,81302,5
36798,81285,5
36798,81282,5
36789,81269,4
36785,81256,5
36782,81251,5
36766,81237,5
36758,81235,5
36765,81222,5
36768,81226,4
36771,81228,5
36767,81234,5
36771,81231,6
36772,81232,3
36768,81221,5
36762,81214,5
36758,81210,5
36754,81190,5
36754,81195,4
36758,81200,5
36751,81206,5
36750,81209,5
36756,81197,4
36746,81200,4
36758,81197,5
36754,81198,5
36750,81186,5
36747,81175,4
36740,81184,5
36741,81170,5
36739,81171,5
36726,81154,5
36721,81135,4
36713,81127,6
36715,81127,4
36713,81106,5
36697,81093,5
36692,81085,6
36689,81081,3
36692,81059,5
36669,81036,5
36659,81006,5
36655,80966,4
36639,80945,5
36624,80935,5
36616,80924,5
36608,80904,4
36611,80898,4
36602,80888,5
36602,80875,5
36593,80852,5
36582,80815,4
36563,80798,5
36552,80766,5
36533,80744,5
36527,80706,5
36512,80686,4
36510,80681,5
36514,80676,6
36493,80653,4
36486,80628,5
36477,80614,4
36456,80581,5
36446,80544,5
36443,80522,5
36426,80500,5
36426,80477,4
36413,80477,5
36408,80457,5
36401,80435,5
36384,80389,5
36362,80351,4
36345,80302,5
36319,80256,5
36305,80229,5
36293,80216,4
36287,80202,4
36293,80199,5
36285,80195,5
36289,80187,5
36286,80172,4
36273,80156,5
36256,80126,5
36251,80097,6
36240,80072,4
36228,80056,4
36228,80051,5
36221,80066,5
36233,80043,5
36213,80023,5
36203,80007,4
36198,79992,5
36192,79978,5
36184,79947,5
36171,79945,5
36165,79915,4
36159,79892,5
36153,79866,5
36137,79841,5
36122,79809,4
36107,79781,4
36089,79757,5
36099,79758,5
36091,79737,5
36089,79734,5
36084,79729,4
36071,79730,5
36063,79713,5
36069,79711,6
36064,79686,3
36063,79688,5
36057,79679,5
36060,79690,5
36060,79681,5
36059,79673,4
36057,79667,5
36057,79676,5
36048,79671,5
36042,79655,5
36040,79641,4
36043,79626,5
36032,79608,5
36019,79607,5
36017,79601,5
36030,79600,4
36025,79593,5
36018,79583,5
36011,79576,5
36011,79576,4
36011,79572,5
36000,79568,4
35992,79539,5
35998,79527,5
35986,79520,4
35986,79502,5
35985,79510,5
35987,79502,5
35980,79494,5
35966,79484,4
35978,79481,5
35961,79481,5
35966,79476,5
35968,79465,5
35972,79458,4
35959,79474,5
35964,79459,5
35955,79454,5
35958,79442,5
35951,79442,4
35954,79444,5
35950,79436,5
35954,79445,5
35952,79424,4
35941,79436,4
35946,79424,6
35941,79415,4
35946,79409,5
35945,79410,5
35941,79410,4
35933,79395,5
35936,79399,5
35939,79404,5
35939,79412,4
35939,79401,5
35938,79389,5
35928,79364,5
35913,79346,5
35903,79340,4
35905,79330,5
35898,79324,5
35903,79318,5
35902,79350,5
35913,79342,4
35911,79340,5
35912,79340,5
35909,79347,5
35911,79346,5
35912,79346,4
35905,79329,5
35902,79331,6
35901,79328,4
35899,79331,4
35905,79322,4
35893,79314,5
35902,79315,5
35906,79327,5
35898,79318,4
35903,79330,5
35909,79329,5
35909,79319,5
35895,79303,5
35905,79307,4
35892,79292,5
35894,79294,5
35880,79280,5
35868,79258,5
35860,79236,4
35864,79224,5
35864,79220,5
35854,79236,5
35865,79246,5
35868,79249,4
35870,79245,5
35862,79249,5
35867,79238,5
35865,79227,4
35866,79222,4
35855,79217,5
35853,79213,5
35856,79221,5
35863,79229,4
35860,79230,5
35863,79231,5
35860,79229,5
35864,79225,5
35863,79209,4
35853,79205,5
35842,79178,5
35847,79181,5
35837,79172,5
35831,79172,4
35838,79173,5
35843,79183,5
35832,79172,5
35835,79177,5
35828,79163,5
35828,79150,4
35816,79126,5
35810,79109,5
35802,79094,5
35799,79099,4
35799,79089,5
35797,79083,5
35794,79080,5
35797,79081,4
35798,79081,4
35796,79080,5
35795,79080,5
35800,79067,5
35793,79070,4
35786,79073,5
35796,79063,5
35793,79067,5
35789,79063,5
35782,79059,4
35771,79042,5
35784,79028,5
35770,79016,5
35773,79010,5
35765,79007,4
35762,78995,6
35754,78982,4
35755,78970,5
35752,78967,5
35746,78965,4
35748,78980,5
35756,78993,5
35758,78988,5
35760,79002,4
35761,78999,4
35759,78990,5
35748,78984,5
35745,78972,5
35740,78950,4
35727,78936,5
35732,78942,5
35735,78931,5
35732,78933,5
35726,78935,4
35733,78921,5
35713,78914,5
35711,78890,5
35713,78883,5
35703,78879,4
35704,78872,5
35708,78865,5
35697,78846,5
35690,78844,5
35694,78841,4
35691,78839,5
35702,78852,5
35693,78832,5
35686,78821,5
35675,78802,4
35686,78799,5
35676,78798,5
35669,78789,5
35667,78787,4
35669,78788,4
35673,78775,5
35656,78777,5
35653,78746,5
35640,78728,4
35633,78704,4
35630,78684,5
35611,78659,5
35599,78629,5
35589,78592,4
35564,78560,5
35553,78544,5
35557,78523,5
35549,78525,5
35541,78522,5
35542,78504,4
35535,78492,5
35523,78472,5
35514,78455,5
35510,78449,4
35513,78457,5
35501,78436,5
35503,78421,5
35490,78408,4
35489,78397,4
35486,78390,5
35479,78389,5
35480,78386,5
35463,78355,4
35462,78330,6
35454,78315,4
35449,78302,5
35435,78269,5
35426,78247,6
35415,78231,3
35406,78232,5
35410,78232,5
35417,78232,5
35409,78229,4
35413,78222,5
35405,78215,5
35411,78222,5
35404,78201,5
35396,78175,4
35379,78145,5
35369,78126,5
35359,78084,5
35341,78059,5
35336,78035,4
35326,78016,5
35314,77995,5
35310,77989,5
35304,77976,4
35306,77965,4
35275,77926,6
35267,77881,4
35247,77861,5
35238,77822,4
35230,77795,7
35217,77765,3
35204,77734,5
35193,77695,5
35170,77622,4
35134,77583,5
35126,77528,5
35091,77467,5
35052,77396,5
35051,77387,4
35048,77384,5
35063,77428,5
35052,77392,5
35034,77332,5
34999,77268,4
34976,77215,5
34972,77199,5
34963,77195,5
34967,77192,4
34976,77208,4
34960,77200,5
34947,77162,6
34921,77105,4
34920,77089,4
34927,77105,5
34934,77154,5
34976,77208,5
34995,77271,5
35012,77299,4
34990,77266,5
34994,77244,5
34978,77205,5
34962,77201,5
34973,77226,4
34994,77240,5
35004,77263,5
35005,77277,5
35011,77270,5
34989,77229,4
34964,77182,5
34949,77147,5
34944,77149,5
34946,77167,5
34975,77214,4
34984,77250,5
34993,77262,5
34987,77230,6
34971,77202,3
34951,77161,4
34943,77143,5
34947,77144,5
34952,77169,5
34962,77181,4
34980,77213,5
34981,77209,5
34962,77169,5
34947,77122,5
34920,77077,4
34903,77042,5
34900,77059,5
34922,77109,5
34936,77100,5
34932,77102,4
34922,77105,5
34920,77072,5
34911,77057,5
34917,77065,5
34926,77078,5
34934,77116,4
34948,77143,5
34949,77121,5
34946,77101,6
34929,77098,3
34930,77099,5
34929,77094,5
34944,77103,5
34946,77133,4
34962,77165,5
34965,77166,5
34962,77158,5
34942,77108,5
34940,77093,4
34931,77081,5
34934,77092,5
34929,77088,5
34906,77053,5
34907,77031,4
34890,76990,5
34861,76942,5
34851,76888,5
34830,76872,5
34825,76834,4
34799,76781,6
34762,76710,4
34743,76639,5
34725,76616,5
34730,76634,4
34741,76663,5
34730,76623,5
34702,76578,5
34694,76530,4
34680,76507,4
34678,76508,5
34685,76545,5
34669,76474,5
34641,76394,4
34617,76340,5
34590,76298,5
34589,76307,5
34605,76334,5
34613,76374,4
34642,76414,5
34655,76466,5
34664,76465,5
34639,76438,5
34635,76417,4
34642,76427,5
34653,76460,6
34678,76504,4
34694,76549,5
34703,76575,4
34711,76587,5
34689,76562,5
34686,76528,5
34680,76529,4
34693,76542,4
34692,76559,5
34711,76592,5
34712,76601,5
34725,76623,4
34715,76618,5
34702,76583,5
34695,76560,5
34708,76585,5
34721,76626,4
34738,76667,5
34749,76686,5
34764,76728,5
34772,76752,5
34779,76776,4
34784,76786,5
34797,76798,5
34785,76769,6
34774,76753,4
34765,76741,4
34765,76725,5
34761,76730,5
34772,76726,5
34778,76737,5
34783,76776,4
34805,76831,5
34824,76861,5
34829,76891,5
34846,76893,4
34843,76910,4
34845,76910,5
34845,76916,5
34851,76916,5
34853,76942,4
34870,76962,5
34872,76968,5
34862,76952,5
34853,76938,5
34862,76930,5
34862,76935,4
34853,76923,5
34854,76931,5
34860,76950,5
34890,76980,4
34894,77008,5
34899,77030,5
34908,77052,5
34917,77053,5
34911,77055,4
34919,77060,5
34915,77062,5
34914,77053,5
34916,77041,4
34911,77056,4
34909,77080,5
34930,77103,5
34928,77104,5
34934,77086,4
34930,77086,5
34930,77092,5
34925,77101,5
34931,77095,5
34927,77100,4
34940,77120,6
34947,77134,4
34951,77134,5
34946,77141,5
34943,77134,4
34941,77129,5
34945,77141,5
34954,77146,5
34952,77160,5
34969,77162,4
34953,77139,5
34939,77096,5
34900,77041,5
34890,77004,5
34889,76999,4
34892,77022,5
34911,77070,5
34943,77125,5
34970,77172,4
34989,77217,4
35005,77253,5
35007,77258,5
35006,77252,5
34999,77254,4
35009,77266,5
35000,77256,6
35010,77282,4
35025,77315,5
35037,77339,4
35037,77354,5
35048,77377,5
35069,77389,5
35081,77416,5
35084,77445,4
35092,77461,5
35097,77477,5
35121,77507,5
35135,77531,5
35128,77549,4
35137,77554,5
35153,77573,5
35152,77600,5
35168,77610,5
35171,77628,4
35171,77636,5
35183,77667,5
35192,77690,6
35213,77725,3
35220,77755,4
35241,77784,5
35252,77816,7
35263,77846,3
35267,77869,4
35289,77884,5
35297,77908,5
35307,77934,5
35324,77983,5
35334,77996,4
35338,78012,5
35346,78029,5
35349,78046,5
35363,78052,5
35366,78070,4
35369,78072,5
35376,78078,5
35371,78089,5
35379,78098,5
35387,78112,4
35389,78128,5
35404,78152,5
35420,78191,5
35440,78225,5
35447,78260,4
35476,78298,5
35487,78326,5
35501,78363,5
35510,78393,4
35528,78411,5
35534,78433,5
35540,78443,5
35549,78467,5
35549,78488,4
35571,78505,5
35575,78537,5
35581,78557,5
35599,78592,5
35602,78607,4
35608,78625,5
35624,78639,5
35622,78655,5
35631,78665,5
35635,78673,4
35636,78681,5
35640,78691,5
35645,78700,5
35643,78704,5
35649,78709,5
35652,78716,4
35647,78711,5
35653,78726,5
35656,78721,4
35653,78735,4
35660,78732,5
35661,78751,5
35672,78753,5
35671,78759,4
35665,78754,5
35677,78766,5
35667,78773,5
35679,78777,5
35677,78782,4
35682,78786,5
35685,78794,5
35685,78802,5
35691,78809,5
35687,78806,4
35692,78814,5
35693,78817,5
35699,78818,5
35688,78821,5
35690,78829,4
35700,78833,6
35700,78841,4
35698,78833,5
35696,78837,4
35698,78840,4
35709,78835,5
35699,78836,5
35691,78836,5
35704,78842,4
35696,78842,5
35701,78845,5
35705,78855,5
35702,78856,5
35701,78870,4
35709,78877,5
35712,78892,5
35714,78891,5
35724,78882,5
35714,78870,4
35709,78867,5
35707,78866,5
35707,78868,5
35702,78870,4
35716,78866,4
35710,78871,5
35715,78888,5
35718,78890,5
35720,78898,5
35719,78906,4
35728,78909,5
35723,78906,5
35734,78912,5
35719,78916,4
35729,78904,4
35715,78905,5
35725,78905,5
35711,78897,5
35725,78898,4
35721,78888,5
35716,78884,5
35709,78875,5
35701,78866,5
35703,78852,5
35696,78839,4
35701,78820,5
35675,78794,5
35664,78782,6
35659,78764,3
35667,78748,5
35652,78742,5
35648,78740,5
35645,78732,5
35644,78721,4
35636,78716,5
35624,78697,5
35613,78666,5
35601,78641,5
35591,78598,4
35577,78544,5
35538,78485,5
35510,78411,5
35490,78361,4
35472,78313,4
35441,78263,5
35425,78198,5
35394,78163,5
35385,78130,5
35366,78103,5
35362,78081,4
35348,78031,5
35330,78015,5
35324,78016,6
35325,77996,3
35321,77990,5
35323,77981,5
35314,77986,5
35312,77988,4
35318,77974,5
35318,77959,5
35317,77970,5
35314,77975,5
35315,77980,4
35318,77983,5
35320,78003,5
35324,78021,5
35331,78012,4
35341,78027,4
35345,78019,5
35344,78027,5
35334,78024,5
35343,78024,4
35338,78035,9
35344,78039,7
35346,78043,4
35352,78050,6
35352,78047,7
