RED,IR,EKG,TIME
34769,70505,9
34773,70481,5
34832,70493,5
34763,70454,8
34758,70456,7
34751,70441,9
34751,70441,10
34757,70434,9
34735,70417,10
34735,70417,9
34742,70422,10
34736,70408,5
34724,70307,5
34753,70461,10
34753,70461,5
34748,70447,5
34756,70451,10
34767,70487,5
34745,70446,5
34754,70451,10
34754,70451,5
34748,70457,5
34756,70503,10
34780,70482,5
34772,70483,5
34726,70489,10
34762,70505,5
34774,70503,7
34791,70534,8
34791,70534,9
34801,70542,10
34799,70543,5
34791,70541,7
34791,70541,8
34792,70536,5
34789,70531,7
34795,70532,8
34787,70528,5
34750,70538,7
34827,70580,8
34827,70580,5
34829,70592,7
34835,70611,8
34843,70625,5
34835,70635,7
34811,70651,8
34855,70674,5
34867,70692,7
34887,70721,8
34887,70721,9
34893,70723,8
34908,70759,5
34917,70743,7
34990,70918,8
34990,70918,5
34999,70927,7
34999,70940,8
34997,70930,5
34991,70920,7
34992,70882,8
34985,70904,5
35009,70942,7
35009,70942,8
35041,70942,7
35011,70935,5
35005,70937,8
34996,70939,7
35005,70939,5
35006,70939,8
35006,70939,7
35041,70951,5
35005,70972,8
35030,71019,7
35061,71056,7
35089,71098,8
35089,71098,7
35081,71081,5
35081,71100,8
35080,71052,5
35062,71063,2
35091,71077,5
35057,71080,4
35067,71071,5
35032,71043,5
35045,70989,6
35008,70924,3
34975,70878,5
34914,70864,5
34973,70873,5
34967,70854,5
34945,70829,4
34880,70802,5
34914,70749,5
34873,70664,5
34821,70576,5
34783,70476,4
34715,70351,5
34645,70230,5
34566,70091,5
34540,69899,5
34384,69715,4
34317,69606,5
34266,69481,5
34250,69364,5
34123,69201,4
34020,68970,6
33907,68751,4
33814,68519,5
33679,68305,5
33589,68130,6
33490,67919,3
33383,67689,5
33267,67480,5
33144,67231,5
33029,67019,4
32935,66794,5
32861,66686,5
32803,66593,5
32783,66560,5
32791,66555,4
32823,66697,5
32892,66811,5
32957,66956,5
33024,67097,6
33109,67289,3
33226,67531,5
33361,67817,5
33523,68187,5
33695,68484,4
33862,68812,4
34004,69078,6
34124,69374,4
34240,69534,5
34338,69722,4
34437,69895,5
34504,70056,5
34568,70119,5
34606,70222,5
34658,70290,4
34678,70361,5
34718,70410,5
34751,70494,5
34798,70584,5
34822,70633,4
34852,70675,5
34871,70709,5
34897,70768,5
34926,70846,5
34962,70880,4
34972,70907,5
35002,70964,5
35031,71022,5
35047,71034,5
35047,71032,4
35029,71002,5
35012,70987,6
35019,70999,4
35033,71016,4
35035,71012,4
35018,70996,5
35017,70984,5
35011,70989,5
35025,71006,4
35040,71043,5
35043,71052,5
35060,71075,5
35071,71108,5
35087,71139,4
35100,71151,5
35104,71160,5
35116,71175,5
35119,71202,5
35125,71211,4
35132,71211,5
35133,71221,5
35135,71217,5
35134,71212,5
35124,71200,4
35120,71191,5
35115,71195,5
35104,71147,6
35076,71099,4
35039,71029,4
35011,70978,5
34983,70923,5
34936,70824,5
34890,70751,4
34860,70709,4
34849,70658,5
34811,70581,5
34761,70497,5
34723,70433,4
34686,70377,5
34684,70342,5
34671,70316,5
34648,70281,5
34628,70241,4
34608,70220,5
34602,70204,5
34599,70206,5
34608,70219,5
34609,70232,5
34627,70248,4
34640,70275,5
34656,70319,5
34680,70349,6
34690,70374,3
34701,70387,5
34706,70412,5
34723,70443,5
34750,70485,5
34769,70528,4
34792,70568,5
34813,70597,5
34827,70630,5
34834,70658,4
34847,70677,5
34852,70688,5
34862,70705,5
34876,70723,5
34845,70731,4
34879,70740,5
34885,70737,5
34873,70707,5
34807,70688,5
34844,70664,4
34830,70634,6
34826,70623,4
34768,70618,5
34814,70613,5
34817,70616,4
34815,70600,5
34823,70594,5
34799,70574,5
34791,70553,5
34767,70520,4
34806,70471,5
34727,70425,5
34712,70389,5
34689,70366,4
34743,70359,4
34674,70362,5
34687,70366,5
34686,70360,5
34705,70365,4
34695,70379,5
34700,70394,5
34698,70400,5
34701,70382,5
34703,70397,4
34698,70387,5
34698,70367,6
34682,70306,4
34663,70329,5
34661,70308,4
34643,70287,5
34640,70215,5
34632,70247,5
34620,70240,5
34628,70241,4
34618,70227,5
34621,70233,5
34622,70237,5
34621,70245,5
34628,70303,4
34629,70264,5
34634,70268,5
34634,70269,5
34638,70348,4
34646,70287,4
34645,70290,5
34652,70300,5
34654,70325,5
34653,70296,4
34649,70289,5
34648,70282,5
34648,70285,6
34641,70279,4
34643,70277,4
34641,70274,5
34633,70270,5
34632,70255,5
34630,70247,5
34622,70236,4
34618,70226,5
34606,70227,5
34601,70197,5
34601,70194,5
34596,70171,4
34587,70158,5
34580,70161,5
34576,70137,5
34568,70132,5
34568,70118,4
34563,70117,5
34556,70109,5
34548,70093,5
34543,70076,5
34530,70068,4
34531,70061,5
34531,70059,5
34529,70051,5
34521,70049,4
34517,70032,5
34526,70037,5
34515,70031,5
34510,70031,5
34518,70029,4
34513,70028,5
34506,70029,5
34514,70019,5
34500,70009,5
34503,70017,4
34504,70005,5
34510,70009,5
34499,69997,5
34493,69996,5
34504,69992,4
34501,69998,5
34503,70001,5
34493,69994,5
34499,69995,5
34492,69982,5
34477,69945,4
34469,69929,5
34454,69904,5
34438,69887,4
34441,69865,4
34423,69843,5
34425,69833,5
34418,69840,5
34426,69844,4
34425,69850,5
34430,69861,5
34433,69873,5
34437,69896,5
34448,69906,4
34454,69914,5
34463,69929,5
34460,69935,5
34465,69942,5
34474,69950,4
34468,69948,5
34461,69937,5
34463,69929,5
34455,69920,5
34460,69923,4
34448,69916,6
34445,69906,4
34449,69891,5
34454,69905,5
34451,69900,4
34453,69901,5
34449,69907,5
34450,69904,5
34448,69914,4
34449,69906,5
34424,69915,5
34461,69909,5
34455,69912,5
34450,69928,4
34408,69919,5
34467,69932,5
34467,69937,5
34470,69948,5
34418,69954,4
34479,69944,5
34480,69953,5
34484,69971,5
34500,69967,5
34482,69973,4
34491,69977,5
34480,69972,6
34536,69971,4
34482,69979,5
34493,69991,4
34501,69996,5
34546,69984,5
34497,69992,5
34494,69997,4
34504,69988,4
34516,70000,5
34492,69994,5
34495,69988,5
34499,69998,4
34500,69984,5
34508,70005,5
34508,70003,5
34503,70019,5
34507,69962,4
34503,70005,5
34505,70001,5
34511,70019,5
34507,69963,5
34513,70018,4
34517,70021,5
34507,70028,5
34511,70027,5
34521,70048,5
34518,70042,4
34524,70045,5
34524,70095,5
34529,70052,5
34523,70051,5
34528,70060,4
34520,70120,5
34531,70061,5
34526,70059,5
34526,70063,4
34534,70101,4
34531,70067,5
34527,70066,5
34539,70069,5
34532,70074,4
34534,70063,5
34540,70070,5
34539,70078,5
34542,70083,5
34541,70074,5
34537,70085,4
34532,70074,5
34541,70077,5
34543,70077,5
34540,70080,4
34550,70090,5
34538,70093,5
34539,70094,5
34537,70091,5
34546,70098,4
34549,70103,5
34540,70092,5
34549,70104,5
34548,70102,5
34546,70104,4
34548,70097,5
34550,70101,5
34545,70107,5
34546,70101,4
34547,70109,4
34543,70093,6
34554,70098,4
34544,70098,5
34548,70110,4
34554,70111,7
34563,70109,3
34558,70116,5
34562,70115,5
34560,70117,4
34552,70114,5
34563,70122,5
34559,70127,5
34559,70133,5
34563,70136,4
34567,70127,5
34568,70132,5
34569,70137,5
34566,70135,5
34562,70133,4
34568,70142,5
34569,70133,5
34568,70138,5
34574,70143,5
34560,70152,4
34568,70139,5
34572,70134,6
34565,70139,4
34562,70126,4
34548,70094,4
34534,70062,5
34512,70029,5
34504,70000,5
34476,69966,4
34463,69953,5
34469,69950,5
34465,69933,5
34462,69936,5
34456,69943,4
34461,69960,5
34468,69965,5
34485,69989,5
34496,70016,5
34510,70045,4
34523,70065,5
34548,70109,5
34562,70142,5
34569,70165,5
34584,70169,4
34577,70177,5
34583,70168,5
34578,70169,6
34582,70172,4
34577,70173,4
34574,70165,5
34578,70173,5
34551,70161,5
34573,70180,4
34577,70180,4
34586,70177,5
34529,70170,5
34591,70174,5
34590,70188,4
34586,70176,5
34540,70189,5
34591,70191,5
34602,70184,5
34595,70197,4
34615,70193,5
34589,70189,5
34601,70198,5
34594,70202,5
34656,70202,5
34595,70205,4
34599,70200,5
34587,70202,5
34638,70197,6
34593,70200,3
34591,70194,5
34585,70192,5
34614,70205,5
34590,70203,5
34585,70198,4
34589,70190,5
34597,70170,5
34589,70187,5
34580,70185,4
34583,70189,5
34581,70138,5
34579,70187,5
34589,70173,5
34582,70174,4
34583,70108,5
34580,70166,5
34574,70160,5
34577,70170,5
34574,70161,4
34572,70170,6
34586,70174,4
34584,70172,5
34582,70224,5
34586,70180,6
34585,70177,7
34589,70180,1
34586,70252,5
34594,70220,5
34600,70202,4
34591,70205,5
34592,70240,5
34604,70211,5
34600,70213,5
34606,70221,4
34610,70227,5
34613,70230,5
34607,70240,5
34614,70232,4
34619,70228,5
34616,70247,5
34618,70237,5
34619,70244,5
34616,70233,4
34618,70239,5
34622,70245,6
34608,70241,4
34609,70242,5
34616,70236,4
34614,70239,5
34609,70241,5
34617,70240,5
34614,70235,5
34606,70230,4
34604,70221,5
34612,70227,5
34601,70222,5
34604,70215,5
34596,70207,4
34598,70225,5
34605,70213,5
34602,70217,5
34599,70206,4
34600,70217,4
34595,70220,5
34598,70218,5
34603,70213,5
34607,70204,4
34596,70205,5
34591,70208,5
34599,70200,6
34595,70218,4
34598,70217,4
34598,70207,5
34596,70212,5
34587,70208,5
34593,70197,5
34574,70171,4
34572,70142,5
34547,70107,5
34534,70092,5
34520,70057,5
34500,70015,4
34496,70003,5
34480,69985,5
34475,69970,5
34478,69975,5
34481,69992,4
34482,69992,5
34486,70009,5
34501,70026,5
34511,70050,5
34528,70070,4
34537,70105,5
34549,70121,5
34553,70142,6
34562,70139,3
34569,70135,5
34555,70137,5
34555,70113,5
34553,70119,5
34550,70116,4
34536,70110,5
34548,70108,5
34542,70120,5
34537,70106,5
34546,70111,4
34543,70114,5
34547,70105,5
34538,70102,5
34554,70111,5
34543,70098,4
34544,70103,5
34543,70105,5
34551,70101,5
34543,70105,5
34529,70111,5
34552,70109,4
34548,70102,5
34548,70106,5
34493,70107,4
34537,70100,4
34538,70101,5
34537,70098,5
34488,70095,5
34535,70079,4
34532,70080,5
34528,70071,5
34532,70062,5
34527,70061,5
34510,70052,4
34528,70051,5
34563,70052,5
34517,70052,5
34519,70031,5
34510,70027,4
34567,70008,5
34494,70004,5
34486,69992,5
34482,69989,5
34511,69981,4
34486,69980,6
34482,69976,4
34477,69968,5
34487,69979,5
34480,69977,4
34475,69978,5
34477,69970,5
34479,69937,5
34485,69968,4
34485,69976,4
34480,69981,5
34487,69925,5
34490,69986,5
34491,69994,5
34498,69991,4
34488,69961,5
34492,69997,5
34487,69996,5
34493,69994,4
34483,70027,5
34492,69996,5
34490,69994,5
34495,69990,4
34489,70056,4
34489,69995,5
34492,69988,7
34487,69984,3
34481,70027,5
34482,69985,4
34481,69984,5
34482,69986,5
34488,69994,5
34474,69975,5
34480,69972,4
34472,69967,5
34468,69967,5
34477,69952,5
34462,69935,4
34448,69911,4
34443,69884,5
34425,69871,5
34420,69845,5
34412,69825,4
34404,69803,5
34379,69788,5
34389,69782,5
34383,69779,5
34385,69794,4
34398,69803,5
34406,69823,5
34408,69844,5
34426,69866,5
34424,69883,4
34439,69894,5
34453,69909,5
34458,69900,5
34446,69922,5
34441,69900,4
34438,69895,5
34435,69891,5
34432,69892,5
34445,69891,5
34432,69894,4
34441,69892,5
34438,69898,5
34432,69884,5
34442,69888,4
34433,69898,5
34436,69896,5
34448,69897,5
34446,69903,5
34439,69916,5
34441,69911,4
34447,69917,5
34454,69921,5
34445,69929,5
34462,69932,4
34464,69933,5
34463,69941,5
34456,69938,5
34467,69936,5
34463,69938,4
34454,69928,5
34458,69928,5
34458,69939,5
34461,69945,5
34460,69942,4
34468,69946,5
34470,69956,5
34471,69955,5
34461,69970,5
34475,69968,4
34468,69971,5
34474,69967,5
34479,69967,5
34476,69974,4
34487,69978,7
34484,69984,3
34477,69980,5
34477,69980,5
34485,69995,4
34490,69998,5
34489,70004,5
34492,70013,5
34500,70016,5
34508,70030,4
34509,70036,5
34501,70042,5
34515,70043,5
34516,70053,5
34517,70063,4
34526,70075,5
34526,70070,5
34512,70092,5
34530,70085,5
34539,70108,4
34531,70104,5
34496,70110,5
34535,70113,5
34553,70113,4
34549,70123,4
34496,70120,6
34549,70122,4
34547,70127,5
34546,70118,4
34539,70130,5
34556,70128,5
34557,70127,5
34552,70126,5
34601,70130,4
34560,70140,5
34559,70132,5
34553,70129,5
34617,70122,5
34554,70105,4
34546,70112,5
34532,70102,5
34561,70092,5
34533,70077,5
34517,70076,4
34524,70072,5
34532,70075,5
34523,70079,6
34526,70094,4
34539,70103,4
34546,70104,5
34561,70156,5
34566,70167,5
34582,70176,4
34575,70137,4
34577,70204,5
34590,70202,5
34586,70201,5
34589,70134,4
34584,70186,6
34584,70191,4
34578,70201,5
34586,70219,5
34587,70187,4
34582,70200,5
34581,70203,5
34587,70265,5
34592,70201,5
34589,70207,5
34587,70201,4
34590,70256,5
34591,70199,5
34581,70211,6
34590,70215,3
34589,70229,5
34589,70213,5
34591,70215,5
34593,70216,5
34593,70221,4
34595,70221,5
34594,70217,5
34596,70212,5
34593,70214,4
34588,70217,4
34597,70218,5
34591,70217,5
34596,70217,5
34600,70226,4
34601,70225,5
34607,70231,5
34590,70226,5
34597,70230,5
34593,70232,4
34607,70238,6
34609,70239,4
34603,70241,5
34604,70245,5
34602,70237,6
34597,70238,3
34601,70237,5
34600,70246,5
34595,70247,5
34609,70243,4
34616,70249,5
34621,70266,5
34617,70262,5
34620,70258,5
34619,70264,4
34626,70271,5
34629,70280,5
34623,70276,5
34628,70267,4
34625,70275,4
34627,70276,5
34622,70283,5
34623,70290,5
34629,70284,4
34624,70291,5
34626,70294,6
34636,70294,4
34637,70295,5
34632,70302,4
34640,70294,5
34634,70301,5
34639,70302,5
34636,70299,5
34638,70300,4
34639,70293,5
34638,70301,5
34637,70311,5
34640,70300,5
34637,70309,4
34648,70318,5
34645,70311,5
34644,70310,5
34640,70316,4
34646,70317,4
34643,70308,5
34638,70300,5
34632,70281,5
34625,70273,4
34620,70270,5
34618,70249,5
34603,70238,6
34592,70224,4
34591,70215,4
34592,70207,5
34584,70213,5
34600,70224,5
34591,70231,5
34604,70253,4
34611,70270,5
34635,70297,5
34630,70309,5
34649,70333,5
34646,70334,4
34665,70360,5
34671,70366,5
34660,70360,5
34626,70361,5
34660,70348,4
34667,70345,5
34666,70354,5
34602,70346,5
34662,70341,5
34647,70342,4
34651,70338,5
34628,70333,5
34657,70331,6
34650,70336,3
34653,70331,5
34684,70336,5
34645,70340,5
34646,70336,5
34649,70336,4
34715,70330,5
34656,70343,5
34646,70335,5
34657,70337,5
34685,70338,4
34652,70332,5
34645,70332,5
34654,70343,5
34660,70331,5
34651,70334,4
34652,70329,5
34642,70333,5
34656,70306,5
34649,70340,5
34659,70341,5
34651,70336,4
34659,70292,5
34657,70334,5
34656,70336,6
34656,70345,3
34655,70295,5
34658,70339,5
34657,70347,5
34655,70346,4
34658,70353,5
34659,70335,5
34656,70336,5
34647,70330,5
34646,70397,4
34648,70343,5
34655,70348,5
34653,70350,5
34660,70410,6
34668,70355,3
34659,70359,5
34658,70360,5
34663,70376,5
34672,70357,5
34665,70371,4
34669,70366,6
34675,70368,4
34679,70371,5
34675,70376,5
34676,70368,4
34671,70374,5
34675,70384,5
34675,70377,5
34677,70391,4
34674,70388,4
34671,70374,5
34674,70383,5
34677,70381,5
34675,70390,4
34680,70382,5
34682,70385,5
34689,70380,5
34673,70391,5
34677,70381,4
34680,70379,5
34671,70372,5
34674,70358,5
34669,70361,5
34661,70361,4
34659,70358,5
34666,70355,6
34662,70365,4
34672,70381,5
34676,70390,4
34691,70409,5
34706,70420,5
34705,70436,5
34714,70448,5
34713,70447,4
34714,70463,5
34718,70467,5
34723,70454,5
34715,70471,4
34705,70460,4
34713,70444,5
34711,70447,5
34707,70454,5
34712,70449,4
34702,70439,5
34711,70448,5
34707,70447,5
34713,70448,5
34711,70439,4
34717,70453,5
34714,70457,5
34711,70459,6
34711,70465,4
34715,70463,4
34716,70464,5
34713,70452,5
34716,70466,5
34713,70457,5
34704,70452,4
34712,70457,5
34711,70450,5
34707,70455,5
34720,70462,5
34716,70461,4
34713,70465,5
34717,70463,5
34721,70461,5
34718,70474,4
34718,70463,4
34728,70481,5
34720,70479,5
34729,70475,5
34725,70483,5
34729,70492,4
34732,70490,5
34734,70502,5
34737,70499,5
34741,70506,4
34738,70507,5
34735,70502,5
34733,70503,5
34739,70517,5
34742,70525,4
34710,70512,5
34743,70519,5
34750,70531,5
34743,70535,5
34702,70533,4
34754,70525,5
34755,70524,5
34760,70529,5
34718,70543,5
34752,70540,4
34758,70543,5
34750,70543,5
34782,70544,5
34751,70549,4
34758,70549,5
34754,70552,4
34823,70544,5
34766,70561,5
34768,70551,4
34769,70550,5
34813,70551,5
34756,70549,5
34765,70560,5
34762,70560,4
34777,70561,5
34774,70570,5
34775,70565,5
34775,70571,5
34776,70544,4
34768,70568,5
34766,70558,5
34764,70563,5
34766,70514,5
34767,70558,4
34764,70574,5
34775,70583,5
34788,70540,5
34792,70604,5
34790,70605,4
34787,70605,6
34785,70621,4
34788,70617,5
34796,70607,4
34779,70599,5
34779,70638,5
34779,70578,5
34773,70576,5
34779,70578,4
34770,70636,5
34769,70583,5
34766,70583,5
34780,70585,5
34779,70614,4
34769,70578,5
34774,70569,5
34773,70583,5
34777,70598,5
34776,70597,4
34790,70594,5
34789,70591,5
34784,70605,5
34786,70610,5
34792,70626,4
34794,70618,5
34797,70619,5
34799,70624,5
34792,70620,4
34792,70611,4
34789,70606,5
34785,70605,5
34789,70613,5
34787,70613,4
34799,70622,5
34808,70644,5
34812,70665,5
34819,70679,5
34842,70690,4
34827,70693,5
34835,70690,5
34837,70702,5
34849,70740,5
34862,70759,4
34874,70777,5
34891,70788,5
34899,70816,5
34903,70823,5
34904,70841,4
34914,70854,5
34916,70849,5
34919,70874,5
34930,70902,5
34958,70954,4
34984,70986,5
34994,71017,5
35005,71032,5
35012,71052,4
35016,71057,4
35025,71056,5
35027,71065,5
35025,71082,5
35034,71094,4
35045,71106,5
35040,71113,5
35051,71128,5
35058,71134,5
35065,71155,4
35065,71166,5
35077,71174,4
35077,71186,5
35101,71213,5
35116,71257,5
35136,71299,3
35147,71318,5
35160,71320,5
35154,71312,5
35144,71306,4
35141,71308,5
35148,71315,5
35159,71331,5
35173,71365,5
35212,71431,4
35224,71480,5
35256,71517,5
35266,71560,5
35289,71594,4
35306,71628,4
35324,71658,5
35336,71685,5
35354,71720,5
35366,71724,4
35355,71723,5
35361,71740,6
35373,71770,4
35410,71821,5
35444,71902,4
35476,71939,7
35468,71950,3
35436,71939,5
35474,71960,5
35476,71969,4
35485,71989,5
35448,72017,5
35505,72027,5
35517,72040,5
35512,72025,4
35460,72040,5
35512,72040,5
35519,72043,5
35526,72072,5
35580,72124,4
35576,72158,5
35593,72191,5
35613,72234,5
35695,72272,4
35644,72288,4
35657,72310,5
35660,72330,6
35709,72327,4
35655,72306,4
35657,72306,5
35653,72316,5
35681,72323,5
35659,72330,5
35662,72335,4
35676,72354,5
35680,72355,5
35693,72387,5
35697,72412,5
35711,72440,4
35733,72405,5
35737,72473,5
35736,72465,5
35734,72481,5
35754,72442,4
35771,72541,5
35774,72552,5
35774,72555,5
35765,72512,5
35758,72515,4
35742,72499,5
35750,72506,5
35752,72564,6
35755,72528,3
35764,72550,4
35780,72552,5
35767,72596,5
35749,72488,5
35720,72437,4
35685,72384,5
35675,72371,5
35651,72321,5
35657,72334,5
35673,72339,4
35653,72326,5
35650,72287,5
35636,72265,5
35622,72241,5
35613,72225,4
35606,72214,5
35602,72216,5
35597,72209,5
35595,72194,5
35592,72187,5
35577,72179,4
35577,72168,5
35576,72153,5
35551,72127,6
35549,72097,3
35525,72060,5
35510,72026,5
35493,71992,5
35481,71976,4
35465,71948,4
35456,71923,5
35437,71891,5
35406,71843,5
35381,71786,4
35379,71761,5
35363,71746,5
35347,71732,5
35335,71702,5
35330,71693,4
35323,71675,5
35320,71685,5
35310,71674,5
35310,71657,5
35312,71662,4
35314,71658,6
35314,71663,4
35308,71653,5
35318,71647,5
35299,71648,4
35304,71658,5
35305,71664,5
35306,71658,5
35305,71658,5
35313,71653,4
35312,71670,5
35318,71668,5
35311,71663,5
35314,71676,4
35311,71673,4
35314,71680,5
35328,71703,5
35330,71694,5
35327,71690,4
35331,71691,5
35327,71698,5
35336,71726,5
35365,71755,5
35376,71793,4
35392,71814,5
35399,71820,6
35406,71849,4
35419,71883,5
35449,71922,4
35465,71961,5
35474,71969,5
35463,71944,5
35457,71911,5
35441,71913,4
35486,71992,5
35498,72025,5
35519,72042,5
35509,72011,5
35488,72004,4
35493,72007,5
35503,72016,5
35510,72033,5
35522,72045,4
35525,72052,4
35515,72015,5
35493,72002,5
35508,72033,5
35530,72138,4
35601,72200,5
35588,72170,5
35569,72122,6
35519,72130,4
35574,72153,4
35602,72214,5
35623,72230,5
35566,72229,5
35615,72227,5
35610,72231,4
35630,72246,5
35621,72246,5
35611,72216,5
35592,72164,5
35565,72112,4
35597,72095,5
35538,72074,5
35526,72047,5
35532,72061,5
35616,72115,4
35561,72123,5
35560,72114,5
35558,72116,5
35585,72120,5
35567,72121,4
35585,72152,5
35581,72164,5
35578,72152,6
35571,72139,3
35559,72107,5
35552,72108,5
35574,72114,5
35574,72158,5
35584,72161,4
35578,72162,5
35575,72084,5
35570,72125,5
35564,72140,5
35583,72165,4
35583,72140,5
35579,72166,5
35579,72159,5
35563,72113,5
35544,72126,4
35535,72091,5
35542,72091,5
35541,72082,5
35546,72149,5
35544,72094,5
35544,72085,4
35541,72066,5
35549,72170,5
35577,72149,4
35571,72142,8
35559,72114,1
35552,72127,5
35559,72119,5
35562,72155,4
35547,72113,5
35536,72084,5
35538,72081,5
35540,72099,5
35540,72083,4
35531,72061,5
35538,72059,5
35548,72123,5
35581,72175,5
35592,72173,4
35578,72166,5
35579,72162,5
35576,72147,5
35566,72149,5
35557,72120,4
35559,72109,6
35544,72111,4
35550,72109,5
35544,72112,5
35561,72114,4
35542,72115,5
35548,72081,5
35524,72053,5
35509,72013,4
35501,72002,5
35495,71991,5
35497,72004,5
35500,72007,5
35503,72015,4
35501,71994,5
35486,71989,5
35491,71997,5
35496,72008,5
35496,72011,4
35493,72024,5
35523,72057,5
35533,72077,5
35527,72071,5
35549,72112,4
35555,72119,5
35558,72116,6
35553,72116,4
35560,72131,5
35568,72144,4
35571,72143,5
35570,72138,5
35569,72157,5
35588,72190,5
35597,72227,4
35604,72228,5
35605,72208,5
35589,72186,5
35561,72132,4
35546,72127,4
35545,72115,5
35518,72073,5
35510,72045,5
35493,72005,4
35456,71939,5
35417,71869,5
35360,71730,5
35278,71565,5
35194,71410,4
35123,71303,5
35081,71219,5
35019,71117,5
34994,71064,5
34966,70988,4
34907,70870,5
34823,70694,5
34737,70527,5
34644,70353,5
34569,70201,4
34469,69992,5
34355,69765,5
34203,69473,5
34041,69117,5
33840,68712,4
33621,68323,5
33466,68005,5
33332,67740,5
33214,67504,4
33073,67314,4
33064,67263,5
33075,67309,5
33117,67410,5
33122,67534,5
33243,67678,4
33324,67808,5
33395,67977,5
33468,68190,5
33640,68475,4
33792,68805,5
33948,69121,5
34149,69448,5
34269,69752,5
34438,70082,4
34592,70371,5
34776,70579,5
34791,70739,5
34882,70906,5
34960,71053,4
35069,71207,5
35097,71319,5
35143,71399,5
35164,71410,5
35165,71402,4
35173,71438,6
35189,71486,4
35222,71551,5
35252,71580,4
35292,71668,7
35313,71700,3
35309,71702,5
35341,71700,5
35379,71828,5
35412,71885,4
35419,71913,5
35416,71836,5
35402,71871,5
35394,71856,4
35397,71854,5
35401,71874,5
35417,71902,5
35448,71953,5
35460,71981,4
35463,72034,5
35456,71960,5
35446,71961,5
35442,71954,5
35442,72019,4
35456,71977,5
35485,72028,5
35504,72063,4
35505,72075,5
35497,72072,4
35504,72070,7
35503,72065,3
35506,72068,5
35492,72032,4
35479,72007,5
35472,71984,5
35462,71972,5
35446,71947,5
35451,71951,4
35458,71964,5
35458,71984,5
35469,71985,5
35456,71988,5
35461,71977,4
35447,71950,5
35432,71943,5
35441,71939,5
35426,71912,5
35430,71913,4
35433,71923,5
35418,71903,5
35410,71888,6
35411,71872,4
35389,71845,4
35384,71817,5
35387,71837,5
35394,71854,5
35404,71858,4
35401,71864,4
35391,71859,5
35393,71846,5
35379,71826,5
35383,71828,4
35374,71814,5
35368,71805,5
35368,71793,5
35369,71794,5
35365,71797,4
35371,71805,5
35372,71805,5
35373,71815,5
35370,71787,5
35340,71737,5
35314,71701,4
35301,71672,5
35301,71655,5
35291,71660,6
35292,71660,3
35307,71683,5
35312,71688,5
35304,71692,5
35313,71703,5
35300,71675,4
35293,71652,5
35281,71646,5
35281,71622,5
35273,71608,5
35262,71606,4
35262,71616,5
35277,71626,5
35271,71620,5
35275,71636,4
35285,71655,5
35299,71671,5
35306,71683,5
35302,71693,5
35307,71678,4
35296,71656,6
35294,71651,4
35289,71634,5
35274,71613,5
35244,71543,6
35211,71480,3
35167,71410,5
35149,71370,5
35141,71357,5
35127,71337,4
35105,71277,5
35061,71187,5
35008,71092,5
34963,70993,5
34880,70800,4
34751,70552,5
34574,70289,5
34464,70004,5
34314,69717,5
34198,69470,4
34035,69290,5
33996,69098,5
33914,68967,5
33863,68856,4
33776,68799,5
33825,68818,6
33849,68854,4
33860,68876,5
33864,68830,4
33800,68729,5
33751,68637,5
33724,68592,5
33750,68545,5
33702,68561,4
33724,68595,5
33743,68649,5
33827,68721,5
33801,68770,5
33812,68792,4
33838,68830,5
33870,68897,5
33906,69015,5
33995,69172,5
34082,69358,4
34178,69530,5
34273,69748,5
34374,69952,5
34488,70149,5
34581,70289,4
34672,70523,5
34747,70646,6
34809,70771,4
34867,70827,4
34917,70969,5
34961,71059,4
35012,71145,5
35056,71228,5
35106,71330,4
35166,71453,5
35208,71523,5
35215,71575,5
35203,71512,5
35204,71507,4
35206,71503,5
35221,71590,5
35226,71519,5
35225,71534,5
35236,71570,4
35259,71634,5
35278,71622,5
35281,71629,5
35281,71613,5
35264,71595,4
35255,71586,5
35265,71624,5
35275,71613,6
35267,71607,3
35265,71578,4
35255,71578,5
35258,71582,5
35254,71573,5
35248,71552,4
35244,71536,5
35233,71538,5
35237,71539,5
35245,71555,5
35235,71546,4
35237,71527,5
35231,71530,5
35232,71506,5
35210,71480,5
35193,71436,4
35163,71398,5
35158,71368,5
35144,71346,5
35128,71328,5
35113,71310,5
35110,71290,4
35108,71275,5
35096,71272,5
35090,71250,5
35086,71250,4
35087,71250,5
35092,71267,5
35096,71280,5
35105,71288,4
35113,71303,4
35110,71316,5
35120,71315,5
35125,71321,5
35120,71306,4
35116,71301,5
35112,71288,5
35102,71264,5
35088,71255,5
35082,71233,4
35069,71212,5
35067,71185,5
35057,71174,5
35046,71158,5
35039,71152,4
35034,71130,6
35018,71110,4
35007,71091,5
35001,71067,5
35004,71064,4
34994,71055,5
34981,71030,5
34972,71018,5
34966,71004,5
34960,70999,4
34962,71000,5
34953,71003,5
34969,70993,5
34967,70995,4
34955,70991,4
34958,70989,5
34952,70973,5
34947,70979,5
34954,70977,4
34949,70974,5
34950,70977,5
34947,70963,5
34941,70960,5
34939,70948,4
34931,70946,5
34935,70945,6
34924,70938,4
34924,70940,5
34918,70935,4
34918,70915,5
34916,70896,5
34914,70898,5
34879,70886,5
34906,70885,4
34900,70884,5
34896,70867,5
34849,70851,5
34884,70839,5
34874,70822,4
34869,70822,5
34803,70820,5
34859,70816,5
34861,70813,4
34863,70808,4
34866,70813,5
34868,70817,5
34865,70808,5
34860,70798,4
34908,70799,5
34862,70796,5
34857,70790,6
34855,70782,4
34907,70768,4
34844,70770,5
34852,70765,5
34841,70762,5
34878,70768,5
34846,70761,4
34846,70756,5
34832,70759,5
34835,70746,5
34827,70744,5
34831,70727,4
34817,70710,5
34800,70645,5
34790,70666,5
34776,70644,5
34776,70622,4
34760,70553,5
34765,70608,5
34759,70602,5
34762,70598,5
34764,70574,4
34769,70626,5
34774,70641,5
34788,70657,5
34793,70714,4
34801,70681,5
34796,70681,5
34797,70689,5
34800,70760,5
34798,70691,4
34803,70683,5
34798,70677,5
34798,70715,5
34789,70673,5
34794,70667,4
34789,70667,5
34787,70690,5
34780,70659,6
34778,70655,4
34781,70648,4
34785,70639,5
34779,70635,5
34774,70641,5
34777,70628,4
34776,70634,5
34771,70626,4
34771,70627,5
34773,70630,5
34772,70628,4
34773,70625,5
34775,70623,5
34768,70614,5
34770,70616,5
34760,70612,4
34770,70625,5
34766,70620,5
34761,70615,5
34767,70612,5
34760,70623,4
34770,70623,5
34772,70630,5
34775,70637,5
34773,70644,5
34784,70647,4
34781,70647,5
34777,70647,5
34786,70649,5
34777,70650,5
34786,70652,4
34783,70655,6
34785,70646,4
34777,70651,5
34782,70651,4
34774,70642,4
34780,70643,5
34783,70635,5
34781,70635,5
34773,70636,4
34771,70647,5
34779,70638,5
34778,70637,5
34777,70647,5
34772,70638,4
34777,70653,5
34781,70634,5
34777,70635,5
34770,70637,5
34778,70647,4
34785,70656,5
34785,70656,5
34786,70659,5
34785,70667,5
34787,70662,4
34790,70669,5
34797,70675,5
34792,70684,5
34801,70687,5
34801,70693,4
34798,70698,5
34801,70705,5
34813,70700,5
34804,70700,4
34806,70714,4
34813,70703,5
34806,70714,5
34816,70719,5
34815,70712,4
34819,70725,5
34817,70712,5
34812,70717,5
34823,70722,5
34812,70712,4
34827,70725,4
34818,70719,5
34820,70712,5
34812,70706,5
34810,70689,3
34778,70678,5
34787,70667,5
34777,70643,5
34773,70643,5
34715,70619,4
34763,70608,5
34760,70614,5
34752,70616,5
34710,70615,5
34771,70632,4
34777,70646,5
34781,70670,5
34789,70685,5
34807,70720,4
34823,70732,4
34822,70764,5
34886,70785,5
34849,70788,5
34860,70795,4
34857,70806,6
34912,70798,4
34846,70793,5
34841,70785,5
34854,70781,6
34866,70772,3
34827,70768,5
34832,70752,5
34833,70742,5
34830,70747,4
34823,70750,5
34826,70758,5
34835,70752,5
34832,70726,5
34836,70760,4
34838,70761,5
34838,70759,5
34834,70708,5
34830,70772,5
34832,70771,4
34840,70768,5
34837,70733,5
34846,70783,5
34846,70770,4
34849,70781,5
34844,70818,6
34841,70789,4
34847,70786,5
34845,70780,4
34842,70842,7
34843,70774,3
34838,70769,5
34842,70773,5
34837,70829,4
34838,70773,5
34842,70767,5
34838,70764,5
34837,70775,5
34833,70760,4
34830,70752,5
34829,70751,5
34828,70745,5
34822,70736,5
34824,70735,4
34824,70733,5
34821,70733,5
34821,70744,5
34820,70745,4
34826,70746,4
34830,70756,5
34833,70754,6
34840,70768,4
34841,70781,4
34847,70789,5
34847,70801,5
34850,70802,5
34865,70807,5
34854,70819,4
34860,70815,5
34876,70827,5
34862,70835,5
34876,70843,5
34874,70851,4
34879,70851,5
34879,70862,5
34883,70860,5
34896,70859,5
34890,70867,4
34887,70867,5
34889,70863,5
34884,70857,5
34883,70860,5
34872,70853,4
34880,70854,5
34883,70851,5
34884,70849,6
34882,70842,3
34874,70854,4
34885,70847,5
34884,70849,5
34881,70844,5
34880,70842,4
34878,70857,5
34887,70841,5
34878,70841,5
34871,70838,5
34871,70832,4
34866,70828,5
34857,70823,5
34855,70818,5
34856,70814,5
34857,70812,4
34859,70812,5
34863,70821,5
34871,70821,5
34869,70831,5
34870,70858,5
34898,70879,4
34896,70888,5
34909,70911,5
34910,70918,6
34922,70938,3
34920,70935,5
34931,70936,5
34922,70943,5
34921,70937,4
34908,70927,5
34906,70919,5
34909,70906,5
34900,70904,5
34902,70888,4
34892,70887,5
34885,70880,5
34901,70894,5
34891,70895,5
34895,70895,4
34899,70898,5
34902,70900,5
34872,70900,5
34906,70907,5
34906,70903,4
34904,70910,6
34853,70922,4
34915,70920,5
34919,70927,5
34914,70929,4
34857,70925,5
34911,70925,5
34917,70930,5
34923,70939,4
34927,70940,4
34925,70931,5
34922,70939,5
34919,70939,5
34964,70934,4
34922,70941,5
34931,70947,5
34922,70947,5
34989,70951,5
34917,70946,4
34930,70941,5
34920,70950,5
34958,70948,5
34935,70951,5
34931,70950,4
34927,70945,5
34933,70954,6
34934,70954,4
34928,70957,5
34934,70962,4
34932,70913,5
34936,70963,5
34937,70972,5
34943,70979,5
34932,70923,4
34945,70978,5
34942,70989,5
34955,70991,5
34952,70969,4
34948,70999,4
34959,71012,5
34960,71006,5
34966,71042,5
34967,71021,4
34968,71026,5
34961,71021,5
34971,71093,5
34967,71026,5
34973,71026,4
34965,71035,5
34970,71085,5
34980,71031,6
34975,71044,4
34976,71045,4
34980,71057,5
34975,71040,5
34978,71054,5
34980,71049,5
34985,71060,4
34983,71062,5
34993,71054,5
34983,71067,5
34988,71052,5
34983,71061,4
34981,71066,5
34989,71050,5
34987,71053,5
34982,71058,4
34969,71043,4
34977,71043,5
34987,71053,5
34980,71053,5
34982,71061,5
34981,71066,4
34995,71084,5
35002,71102,5
35011,71119,5
35018,71131,4
35025,71150,5
35026,71164,5
35042,71172,5
35043,71173,5
35039,71166,4
35044,71179,5
35042,71162,5
35029,71158,5
35032,71161,5
35024,71153,4
35023,71145,5
35032,71139,5
35028,71141,5
35027,71142,5
35025,71131,4
35031,71127,5
35024,71131,5
35028,71141,5
35027,71151,4
35032,71145,6
35031,71165,4
35033,71154,5
35037,71157,5
35031,71162,4
35032,71160,5
35041,71173,5
35045,71175,5
35044,71179,5
35045,71172,4
35044,71188,5
35050,71189,5
35056,71202,5
35058,71207,5
35068,71207,4
35069,71218,5
35071,71231,5
35073,71227,5
35077,71254,5
35085,71250,4
35080,71256,5
35083,71252,5
35084,71261,5
35083,71259,4
35086,71272,4
35097,71270,6
35094,71275,4
35089,71270,5
35087,71283,4
35112,71289,5
35101,71293,5
35107,71311,5
35110,71316,5
35124,71329,4
35127,71339,5
35132,71350,5
35131,71364,5
35144,71376,5
35124,71380,4
35152,71391,5
35152,71395,5
35160,71407,5
35121,71418,5
35171,71420,4
35171,71432,5
35173,71426,5
35124,71437,5
35181,71437,5
35173,71441,4
35189,71453,5
35188,71451,6
35185,71455,4
35201,71459,4
35188,71464,4
35247,71458,5
35195,71471,5
35194,71475,5
35204,71488,4
35254,71473,5
35208,71483,5
35206,71480,5
35197,71490,5
35232,71487,4
35207,71493,5
35198,71483,5
35206,71495,5
35216,71495,5
35206,71509,5
35215,71507,4
35229,71525,5
35225,71518,5
35240,71561,6
35253,71580,3
35253,71584,5
35263,71542,5
35268,71615,5
35272,71623,5
35277,71624,4
35281,71602,5
35268,71617,5
35270,71620,5
35266,71610,4
35268,71650,4
35265,71610,5
35272,71612,5
35269,71612,5
35276,71679,4
35271,71612,5
35272,71619,5
35267,71625,5
35276,71669,5
35276,71624,4
35277,71625,5
35284,71625,5
35281,71653,5
35275,71639,5
35289,71644,5
35286,71654,4
35286,71665,5
35287,71667,5
35309,71679,5
35302,71683,8
35305,71694,1
35314,71704,5
35317,71697,5
35314,71729,5
35325,71698,4
35328,71721,5
35331,71729,5
35329,71726,5
35342,71743,4
35335,71741,4
35343,71749,5
35348,71759,5
35346,71767,5
35353,71775,4
35360,71787,5
35368,71799,5
35371,71800,4
35376,71821,5
35386,71836,4
35389,71851,6
35393,71861,3
35395,71866,5
35412,71886,5
35414,71893,4
35408,71900,5
35418,71912,5
35430,71918,5
35432,71932,5
35438,71938,4
35430,71948,5
35435,71953,5
35450,71971,5
35450,71968,5
35447,71971,4
35455,71980,5
35456,71973,5
35458,71980,5
35453,71975,4
35453,71963,4
35455,71969,5
35449,71962,6
35449,71957,4
35449,71951,4
35442,71950,5
35441,71946,5
35440,71937,5
35436,71929,5
35425,71916,4
35427,71925,5
35414,71901,5
35407,71890,5
35406,71877,5
35403,71878,4
35404,71870,5
35393,71864,5
35402,71874,5
35396,71852,5
35395,71856,4
35395,71854,5
35393,71840,5
35382,71841,5
35386,71836,5
35376,71827,4
35375,71820,5
35358,71796,5
35345,71779,6
35349,71769,3
35332,71740,4
35324,71738,5
35323,71731,5
35317,71714,5
35313,71708,4
35311,71706,5
35287,71702,5
35307,71695,5
35304,71701,5
35305,71690,4
35252,71678,5
35291,71677,5
35289,71671,5
35297,71662,5
35234,71663,4
35285,71654,5
35288,71655,5
35274,71663,5
35273,71650,5
35274,71649,5
35276,71644,4
35272,71650,5
35324,71644,5
35272,71639,6
35273,71648,3
35284,71647,5
35343,71653,5
35292,71652,5
35289,71659,4
35284,71651,5
35305,71647,5
35285,71647,5
35274,71643,5
35280,71647,4
35278,71636,5
35273,71638,5
35270,71636,5
35280,71627,5
35274,71595,4
35262,71628,5
35268,71617,5
35261,71621,5
35266,71556,5
35256,71608,5
35254,71611,5
35254,71605,4
35261,71568,5
35252,71592,5
35248,71579,4
35253,71584,5
35254,71612,5
35235,71570,5
35248,71565,4
35241,71565,4
35242,71643,5
35235,71571,5
35233,71577,5
35240,71566,4
35225,71608,5
35234,71551,5
35235,71542,5
35221,71542,5
35217,71541,4
35210,71526,5
35219,71525,5
35208,71519,5
35204,71501,5
35204,71499,4
35200,71488,5
35190,71476,6
35188,71476,4
35188,71468,5
35186,71473,4
35186,71471,5
35191,71475,5
35199,71488,5
35195,71492,5
35197,71498,4
35197,71507,5
35210,71510,5
35214,71515,5
35219,71510,4
35217,71512,5
35206,71514,5
35211,71505,5
35203,71499,5
35205,71503,4
35202,71514,5
35204,71512,5
35207,71520,5
35206,71515,5
35209,71516,4
35209,71517,5
35199,71503,5
35201,71512,6
35209,71503,4
35201,71507,4
35198,71495,5
35204,71492,5
35193,71491,5
35189,71485,5
35198,71491,4
35192,71487,5
35193,71479,5
35183,71465,5
35186,71476,4
35181,71468,4
35174,71458,5
35172,71452,5
35184,71453,5
35174,71458,4
35168,71446,5
35173,71452,5
35176,71448,5
35172,71465,5
35186,71466,5
35181,71469,4
35182,71470,5
35185,71474,5
35186,71478,6
35188,71466,3
35183,71477,5
35188,71474,5
35182,71472,5
35185,71481,5
35190,71481,4
35183,71474,5
35185,71470,5
35191,71476,5
35186,71476,5
35191,71479,4
35182,71478,5
35189,71476,5
35180,71474,5
35190,71471,4
35187,71475,4
35186,71467,5
35188,71487,5
35185,71470,5
35188,71480,4
35182,71467,6
35187,71482,4
35192,71479,5
35170,71481,5
35191,71488,4
35193,71489,5
35194,71489,5
35152,71482,5
35196,71490,5
35196,71492,4
35202,71495,5
35142,71489,5
35203,71490,5
35205,71500,5
35193,71505,4
35208,71497,5
35192,71483,5
35192,71488,5
35187,71474,5
35240,71472,4
35194,71477,5
35185,71468,5
35186,71476,5
35251,71478,4
35190,71484,4
35193,71486,6
35201,71487,4
35230,71495,5
35203,71496,4
35197,71502,5
35199,71508,5
35211,71505,5
35197,71501,5
35202,71492,4
35186,71474,5
35186,71439,5
35181,71457,5
35174,71463,5
35180,71459,4
35175,71398,5
35173,71458,5
35170,71454,5
35165,71443,5
35165,71407,4
35162,71446,5
35162,71446,5
35167,71429,5
35158,71463,5
35157,71430,4
35155,71435,5
35164,71439,6
35155,71492,4
35168,71418,4
35152,71423,4
35159,71414,5
35154,71464,5
35155,71417,5
35152,71399,4
35151,71405,5
35142,71412,5
35145,71399,5
35145,71399,5
35139,71390,4
35144,71390,5
35138,71398,5
35134,71401,5
35140,71390,5
35133,71387,4
35142,71385,5
35132,71381,5
35132,71373,5
35135,71372,5
35130,71374,4
35135,71371,5
35131,71366,5
35116,71367,5
35121,71360,5
35130,71361,4
35132,71365,5
35128,71362,5
35132,71358,5
35129,71366,4
35121,71371,5
35128,71363,5
35115,71350,5
35113,71352,5
35113,71336,4
35105,71338,5
35109,71340,5
35112,71332,5
35108,71333,5
35114,71338,4
35115,71330,5
35117,71334,5
35108,71331,5
35102,71329,5
35111,71327,5
35108,71323,4
35108,71326,5
35102,71314,5
35103,71312,5
35099,71320,4
35097,71310,5
35100,71304,5
35092,71300,5
35083,71289,4
35081,71284,4
35082,71276,5
35070,71259,5
35064,71239,5
35055,71225,4
35048,71210,5
35034,71209,5
35042,71195,5
35045,71192,5
35031,71185,4
35034,71186,5
35036,71195,5
35036,71206,5
35030,71202,5
35037,71211,4
35043,71199,6
35042,71201,4
35038,71190,5
35033,71187,5
35030,71168,4
35020,71156,5
35015,71149,5
35007,71142,5
35001,71136,5
35003,71134,4
35005,71131,5
35001,71143,5
35010,71142,5
35005,71155,4
35009,71147,4
35017,71153,5
35009,71154,5
35017,71137,5
35012,71137,4
34995,71132,5
34998,71124,5
35010,71127,5
35005,71133,5
34971,71137,4
35011,71135,5
35014,71139,5
35012,71153,5
34966,71144,5
35013,71154,4
35011,71146,5
35023,71156,5
35009,71157,5
35020,71153,5
35013,71149,4
35018,71148,5
35064,71137,5
35016,71148,5
35017,71147,5
35013,71144,4
35074,71143,5
35011,71144,5
35007,71134,5
35006,71131,4
35035,71126,5
35001,71124,5
35010,71126,5
35000,71133,5
35007,71117,3
35000,71116,5
35001,71121,5
35001,71119,5
34995,71081,5
34998,71131,4
35004,71124,5
35007,71138,5
35011,71088,5
35018,71150,5
35023,71160,4
35017,71166,5
35019,71128,5
35031,71181,5
35028,71193,5
35044,71199,4
35042,71240,5
35050,71224,5
35047,71226,5
35051,71223,4
35066,71301,5
35061,71241,4
35071,71253,5
35068,71260,5
35073,71296,6
35054,71227,3
35044,71205,5
35047,71197,5
35034,71197,5
35019,71167,4
35016,71148,5
35014,71140,5
35013,71134,5
35004,71128,5
35000,71136,4
35014,71138,5
35020,71154,5
35023,71162,5
35037,71174,5
35042,71194,4
35054,71216,5
35052,71227,5
35056,71220,6
35057,71218,4
35055,71217,4
35038,71207,6
35038,71196,4
35036,71189,5
35038,71180,4
35028,71179,6
35030,71178,3
35025,71175,5
35027,71179,5
35038,71189,4
35030,71194,5
35042,71194,5
35035,71186,5
35031,71175,5
35030,71177,4
35032,71182,5
35037,71177,5
35030,71184,5
35038,71189,5
35029,71188,4
35032,71173,5
35023,71164,5
35023,71169,5
35013,71148,5
35013,71145,4
35000,71132,5
34994,71110,6
34998,71097,4
34988,71102,5
34985,71098,4
34987,71097,5
34993,71103,5
34997,71107,5
34995,71104,4
34999,71111,4
34993,71113,5
35000,71121,5
35003,71124,5
35008,71128,4
35002,71116,5
34999,71118,5
34995,71118,5
35001,71115,5
34995,71129,4
35005,71132,5
35012,71154,5
35030,71178,5
35035,71189,5
35043,71206,4
35041,71189,5
35035,71189,5
35030,71185,6
35025,71181,4
35023,71160,4
35004,71125,5
34992,71101,5
34978,71064,5
34966,71021,4
34921,70962,4
34885,70882,5
34848,70816,5
34808,70738,5
34754,70623,4
34688,70499,5
34622,70368,5
34541,70218,5
34469,70065,5
34409,69969,4
34381,69933,5
34352,69955,5
34425,70011,5
34452,70072,5
34475,70128,5
34440,70144,4
34487,70118,5
34462,70074,5
34435,70040,6
34398,70024,3
34448,70087,5
34490,70184,5
34561,70317,5
34665,70457,5
34701,70567,4
34728,70621,5
34747,70664,5
34821,70687,5
34784,70727,4
34819,70783,4
34852,70858,5
34958,71020,5
35001,71139,5
35050,71258,4
35119,71378,5
35193,71500,5
35240,71612,5
35297,71714,5
35352,71816,4
35397,71884,6
35445,71985,4
35465,72052,5
35501,72092,5
35526,72087,4
35558,72199,5
35581,72242,5
35605,72297,5
35623,72274,5
35632,72335,5
35643,72356,4
35635,72360,5
35643,72366,5
35643,72355,5
35641,72351,4
35651,72371,5
35661,72437,5
35666,72386,5
35658,72383,4
35659,72379,4
35651,72427,5
35645,72366,5
35654,72370,5
35656,72375,4
35647,72390,5
35643,72359,6
35634,72346,4
35639,72340,5
35633,72338,4
35625,72316,5
35611,72316,5
35610,72304,5
35605,72297,5
35610,72297,4
35608,72305,5
35607,72293,5
35603,72283,5
35600,72273,5
35597,72290,4
35600,72269,5
35585,72266,5
35592,72258,5
35580,72249,5
35576,72239,4
35580,72234,5
35569,72229,5
35568,72223,5
35568,72209,4
35561,72216,5
35558,72202,5
35553,72195,6
35547,72177,4
35543,72177,4
35530,72157,5
35533,72148,5
35516,72146,5
35515,72143,5
35518,72139,4
35509,72129,5
35517,72132,5
35516,72138,5
35516,72148,5
35527,72162,4
35535,72168,5
35549,72183,5
35548,72217,5
35571,72220,5
35561,72226,4
35566,72247,5
35577,72255,5
35578,72254,5
35578,72246,5
35566,72240,4
35556,72244,5
35560,72224,5
35553,72222,6
35555,72214,3
35551,72220,5
35556,72205,5
35558,72216,5
35555,72218,5
35553,72210,4
35552,72218,5
35553,72214,5
35563,72223,5
35560,72223,5
35558,72224,4
35560,72226,5
35554,72221,5
35558,72225,5
35560,72236,5
35564,72240,4
35575,72250,5
35571,72257,5
35580,72254,5
35581,72255,5
35581,72266,5
35590,72265,4
35577,72269,5
35586,72271,5
35593,72283,4
35593,72293,4
35601,72300,5
35600,72303,5
35602,72305,5
35607,72325,4
35622,72328,5
35617,72347,5
35622,72347,5
35597,72356,5
35620,72356,4
35633,72364,5
35639,72367,5
35579,72379,5
35634,72375,5
35643,72370,4
35643,72370,5
35601,72387,5
35644,72393,5
35647,72398,5
35660,72402,4
35683,72414,6
35661,72418,4
35670,72427,5
35664,72430,5
35729,72435,4
35680,72432,5
35677,72445,5
35681,72447,5
35725,72453,4
35681,72447,4
35676,72471,5
35682,72458,5
35700,72456,5
35688,72465,4
35687,72466,5
35691,72464,5
35688,72448,5
35692,72477,5
35700,72481,4
35702,72489,5
35700,72440,5
35703,72500,6
35709,72500,4
35704,72505,4
35706,72436,5
35703,72492,7
35704,72478,3
35690,72477,5
35679,72478,4
35684,72462,5
35683,72474,5
35684,72467,5
35683,72525,5
35691,72487,4
35697,72500,5
35703,72516,5
35719,72600,5
35738,72562,4
35743,72578,5
35739,72581,5
35748,72631,5
35754,72604,5
35755,72613,4
35756,72611,5
35757,72614,5
35761,72617,5
35758,72604,5
35740,72592,4
35747,72590,5
35744,72585,5
35740,72578,5
35735,72570,5
35739,72577,4
35737,72570,5
35733,72570,5
35737,72581,5
35738,72576,5
35733,72567,4
35736,72577,5
35737,72582,5
35737,72577,5
35742,72582,4
35743,72582,4
35740,72583,5
35744,72591,5
35738,72590,5
35745,72594,4
35752,72600,5
35746,72608,5
35755,72606,5
35747,72603,5
35746,72594,5
35752,72602,4
35755,72599,5
35754,72596,5
35749,72607,5
35756,72607,4
35756,72619,5
35762,72623,5
35759,72617,5
35760,72615,5
35752,72608,4
35765,72607,5
35751,72622,5
35760,72621,5
35761,72629,5
35761,72632,4
35769,72631,5
35763,72627,5
35767,72644,5
35766,72641,4
35776,72654,4
35782,72665,5
35778,72663,5
35782,72665,5
35782,72670,4
35780,72664,6
35787,72681,4
35791,72678,5
35784,72686,5
35783,72685,4
35792,72699,5
35802,72696,5
35799,72698,5
35806,72707,5
35808,72720,4
35804,72714,5
35808,72714,5
35806,72713,5
35808,72721,5
35820,72725,4
35818,72728,5
35816,72724,5
35821,72733,5
35823,72729,5
35806,72726,4
35815,72709,5
35808,72701,6
35804,72704,4
35799,72700,4
35798,72697,5
35793,72704,5
35797,72708,5
35811,72713,5
35818,72726,4
35780,72736,5
35820,72756,5
35832,72775,5
35844,72773,5
35782,72777,4
35846,72798,5
35853,72801,5
35849,72809,5
35801,72798,5
35853,72805,4
35858,72791,5
35854,72785,5
35867,72779,5
35834,72784,5
35839,72785,4
35842,72782,5
35894,72777,5
35842,72774,6
35831,72769,3
35836,72776,4
35884,72777,5
35840,72778,5
35829,72778,5
35849,72783,4
35853,72788,5
35842,72799,5
35850,72790,5
35837,72808,5
35845,72788,4
35852,72807,5
35849,72818,5
35854,72810,5
35862,72767,5
35862,72820,4
35864,72825,5
35864,72830,5
35870,72767,5
35863,72832,5
35859,72829,5
35862,72836,4
35869,72832,5
35881,72846,5
35876,72846,6
35884,72860,3
35878,72908,5
35883,72866,5
35890,72865,5
35882,72866,4
35886,72934,4
35889,72886,5
35893,72876,5
35894,72884,5
35895,72911,4
35904,72888,5
35902,72902,5
35911,72915,5
35914,72923,5
35920,72923,4
35916,72926,5
35919,72942,5
35930,72947,5
35932,72955,5
35928,72965,4
35938,72965,6
35934,72965,4
35931,72966,5
35943,72969,5
35938,72976,6
35937,72963,3
35941,72963,5
35937,72969,5
35943,72966,5
35935,72968,8
35939,72978,1
35952,72978,5
35950,72986,5
35953,73005,4
35960,72998,4
35962,72997,5
35955,73000,5
35962,73017,5
35959,73012,4
35960,73009,5
35971,73007,5
35967,73008,5
35957,73020,5
35964,73019,4
35983,73020,5
35969,73036,6
35982,73046,4
35986,73062,5
35994,73074,4
36007,73085,5
36004,73106,5
36017,73116,5
36018,73116,5
36019,73128,4
36023,73131,5
36027,73136,5
36027,73129,5
36013,73124,4
36019,73114,4
36019,73116,5
36014,73121,5
36015,73105,5
36008,73106,4
36014,73117,5
36013,73108,5
36006,73113,5
36020,73110,5
36006,73121,4
36018,73130,5
36019,73143,5
36030,73140,6
36031,73153,4
36038,73159,4
36036,73169,5
36037,73166,5
36041,73161,5
36042,73169,5
36037,73165,4
36045,73173,5
36037,73176,5
36041,73183,5
36062,73193,5
36053,73206,4
36053,73213,5
36073,73218,5
36069,73218,5
36064,73234,4
36072,73236,5
36078,73236,5
36076,73242,5
36069,73242,5
36075,73238,5
36074,73234,4
36074,73244,5
36032,73223,5
36070,73228,6
36062,73224,3
36058,73225,5
36005,73211,5
36058,73222,5
36053,73204,5
36059,73202,4
36017,73210,5
36055,73198,5
36046,73193,5
36052,73178,5
36068,73178,4
36033,73176,5
36031,73160,5
36024,73154,5
36082,73148,4
36018,73121,4
36004,73113,5
36003,73102,5
36034,73091,5
35995,73080,4
35990,73073,6
35984,73056,4
35991,73059,5
35968,73052,5
35977,73038,4
35962,73033,5
35963,72998,5
35963,73020,5
35952,73013,5
35949,73001,4
35944,72934,5
35931,72991,5
35932,72966,5
35928,72965,5
35915,72894,4
35918,72943,5
35911,72924,5
35910,72930,5
35908,72943,4
35906,72924,4
35898,72913,5
35895,72917,5
35904,72980,5
35902,72918,4
35902,72915,5
35888,72894,6
35884,72935,4
35877,72872,5
35856,72851,4
35856,72838,5
35849,72842,5
35847,72824,5
35830,72814,5
35837,72805,4
35833,72790,5
35833,72783,5
35821,72784,5
35825,72773,5
35820,72764,4
35819,72749,5
35811,72748,5
35804,72743,5
35804,72727,5
35795,72728,4
35789,72720,5
35786,72713,5
35789,72718,5
35797,72709,4
35784,72705,5
35779,72688,5
35779,72693,6
35782,72682,4
35770,72674,4
35774,72677,5
35777,72678,5
35760,72676,5
35772,72676,5
35771,72668,4
35769,72681,5
35769,72678,5
35768,72669,5
35757,72657,5
35761,72642,4
35754,72637,5
35753,72641,5
35751,72634,5
35750,72640,5
35747,72650,4
35749,72641,5
35750,72647,5
35753,72642,5
35754,72646,5
35758,72638,4
35750,72640,5
35749,72635,5
35751,72640,5
35751,72641,4
35746,72642,5
35753,72645,5
35751,72648,5
35762,72655,5
35750,72650,4
35758,72651,5
35753,72643,5
35749,72633,5
35749,72637,5
35747,72639,4
35752,72637,5
35752,72637,5
35754,72645,5
35750,72639,5
35755,72646,4
35751,72636,5
35748,72643,5
35741,72634,5
35739,72628,4
35736,72624,5
35735,72626,4
35735,72619,5
35724,72613,5
35737,72609,4
35726,72606,5
35729,72606,5
35730,72613,5
35736,72609,5
35737,72623,4
35742,72631,5
35750,72629,5
35750,72648,5
35750,72649,5
35759,72649,4
35734,72659,5
35756,72657,5
35756,72640,5
35743,72639,5
35697,72638,4
35748,72634,5
35738,72624,5
35741,72617,5
35678,72609,5
35725,72605,4
35721,72592,6
35716,72595,4
35721,72592,5
35717,72588,4
35714,72568,5
35715,72567,5
35758,72569,5
35711,72561,5
35702,72560,4
35706,72550,5
35765,72548,5
35708,72557,5
35705,72555,5
35699,72563,4
35731,72562,5
35705,72557,5
35702,72557,5
35701,72560,5
35702,72548,4
35710,72557,5
35703,72562,5
35712,72573,5
35716,72535,5
35712,72572,4
35712,72569,5
35713,72585,5
35716,72510,5
35711,72568,5
35711,72566,4
35723,72557,5
35711,72535,5
35706,72552,5
35703,72549,4
35693,72543,5
35690,72583,5
35685,72530,5
35695,72533,5
35694,72529,4
35688,72599,5
35692,72534,5
35695,72527,5
35697,72523,5
35686,72558,4
35684,72527,5
35689,72525,5
35686,72531,5
35677,72528,5
35686,72519,4
35684,72516,5
35679,72517,5
35682,72517,5
35680,72528,4
35688,72523,4
35681,72520,5
35692,72537,5
35692,72532,5
35688,72539,4
35692,72528,5
35688,72530,5
35688,72527,5
35684,72519,5
35673,72500,4
35678,72506,5
35676,72496,5
35666,72479,5
35660,72465,5
35655,72458,4
35647,72447,6
35644,72438,4
35657,72452,5
35659,72446,5
35650,72458,6
35644,72458,3
35647,72461,5
35661,72476,5
35672,72486,4
35676,72508,4
35699,72547,5
35715,72585,5
35722,72609,5
35744,72631,4
35756,72658,5
35771,72679,5
35789,72722,5
35819,72778,5
35863,72855,4
35890,72922,5
35914,72931,5
35898,72912,5
35894,72903,5
35893,72910,4
35921,72971,5
35991,73128,6
36092,73323,4
36189,73499,5
36227,73554,4
36237,73540,5
36247,73560,5
36269,73631,5
36348,73755,5
36434,73954,4
36526,74122,5
36608,74239,5
36630,74272,5
36631,74271,4
36611,74252,4
36627,74288,5
36636,74322,5
36677,74397,5
36700,74423,4
36729,74459,5
36723,74450,5
36703,74393,5
36653,74311,5
36617,74272,4
36639,74308,5
36670,74379,5
36728,74498,6
36806,74629,4
36818,74612,4
36784,74559,5
36711,74424,5
36645,74304,5
36617,74277,5
36617,74280,4
36646,74353,5
36689,74414,5
36695,74465,5
36747,74497,5
36734,74471,4
36695,74381,5
36621,74370,5
36661,74347,5
36646,74332,4
36658,74335,4
36612,74385,5
36686,74408,5
36704,74432,5
36704,74418,5
36689,74355,4
36637,74269,5
36604,74217,5
36579,74189,6
36634,74207,3
36620,74286,5
36674,74393,5
36728,74473,5
36783,74437,5
36671,74325,4
36587,74189,5
36525,74111,5
36535,74078,5
36506,74056,5
36505,74077,4
36503,74061,5
36495,74041,5
36476,73998,5
36442,73932,4
36387,73852,4
36350,73730,5
36330,73754,5
36340,73755,5
36348,73786,4
36361,73758,6
36374,73851,4
36421,73897,5
36444,73954,5
36456,73942,4
36429,73908,5
36403,73868,5
36397,73867,5
36415,73946,5
36430,73907,4
36420,73909,5
36410,73878,5
36387,73896,5
36380,73812,5
36374,73833,4
36403,73885,5
36438,73977,5
36467,74002,5
36476,74013,4
36474,73995,4
36463,73978,5
36446,73935,5
36431,73931,5
36425,73927,4
36449,73975,5
36480,74014,6
36474,74010,4
36476,74010,5
36473,74002,4
36463,73976,5
36458,73969,5
36462,73976,5
36446,73953,5
36433,73911,4
36385,73835,5
36359,73776,5
36357,73772,5
36338,73756,5
36349,73777,4
36363,73790,5
36367,73797,5
36365,73796,5
36355,73780,5
36334,73729,4
36312,73675,5
36269,73595,5
36227,73519,5
36195,73471,6
36178,73459,3
36172,73441,5
36157,73410,6
36134,73358,4
36086,73266,4
36051,73196,5
36016,73131,5
35993,73104,5
35988,73091,5
35982,73066,4
35966,73059,5
35964,73045,5
35969,73053,5
35969,73068,5
35981,73077,4
35990,73089,5
35981,73079,5
35977,73077,5
35966,73044,5
35954,73015,4
35928,72997,5
35927,72973,5
35915,72966,5
35893,72915,5
35861,72833,4
35795,72720,5
35737,72600,5
35670,72497,6
35622,72416,3
35584,72352,5
35553,72297,5
35532,72303,5
35554,72320,5
35566,72325,4
35551,72305,5
35534,72271,5
35507,72240,5
35515,72249,5
35515,72267,4
35530,72286,5
35544,72319,5
35539,72283,5
35500,72207,5
35449,72132,4
35430,72099,5
35430,72098,5
35427,72089,5
35423,72075,4
35402,72020,5
35322,71832,4
35166,71539,5
35019,71292,5
34941,71146,4
34833,70970,5
34736,70720,5
34641,70538,5
34564,70378,5
34445,70288,4
34471,70272,5
34496,70335,5
34563,70492,5
34614,70721,5
34811,71011,4
34954,71308,5
35131,71658,5
35343,72032,5
35527,72403,5
35711,72734,4
35881,73045,5
36071,73247,5
36103,73413,5
36182,73547,5
36299,73819,4
36473,74026,6
36493,74177,4
36550,74273,5
36598,74361,4
36688,74493,5
36735,74600,5
36750,74660,5
36791,74712,5
36814,74725,4
36808,74788,5
36862,74886,5
36876,74884,5
36885,74869,5
36929,75006,4
36976,75089,5
37036,75205,5
37077,75219,5
37115,75351,5
37142,75417,4
37193,75484,5
37222,75544,5
37278,75642,5
37314,75742,4
37437,75935,4
37573,76230,5
37622,76262,7
37675,76320,3
37779,76592,4
37894,76872,4
38015,77041,5
38090,77191,5
38176,77299,5
38206,77410,4
38246,77427,5
38255,77514,5
38314,77602,5
38357,77640,5
38360,77665,4
38328,77619,5
38334,77632,5
38285,77552,5
38235,77515,5
38259,77593,4
38336,77768,5
38407,77903,5
38494,78125,5
38589,78294,5
38681,78474,4
38771,78648,5
38874,78900,5
39002,79130,5
39086,79333,4
39203,79567,4
39311,79786,5
39403,79996,5
39493,80161,5
39551,80302,4
39633,80496,5
39710,80645,5
39832,80905,5
39972,81167,5
40094,81433,4
40236,81653,5
40269,81705,5
40271,81745,5
40292,81801,5
40297,81837,4
40335,81944,5
40373,81398,5
40424,81538,5
40493,81686,5
40536,81840,5
40589,81980,4
40683,82159,5
40778,82404,5
40860,82515,5
40836,82536,4
40859,82512,5
40776,82435,5
40764,82422,5
40680,82187,4
40610,82066,5
40542,81934,5
40472,81811,5
40394,81673,5
40339,81557,4
40256,81454,5
40177,81330,5
40117,81250,5
40004,80994,5
39813,80657,4
39591,80272,5
39383,79948,5
39245,79718,5
39147,79558,5
39040,79388,4
38851,79047,6
38680,78830,4
38606,78670,5
38479,78456,5
38354,78204,4
38202,77887,5
38015,77578,5
37894,77375,5
37758,77117,4
37573,76771,4
37385,76419,5
37203,76064,5
37027,75700,5
36812,75280,4
36656,74972,5
36513,74652,5
36301,74178,5
36042,73641,5
35749,73009,4
35461,72478,5
35277,72068,5
35093,71759,5
34950,71409,5
34775,71021,4
34588,70664,5
34387,70350,5
34348,70159,5
34274,70021,5
34222,69872,4
34104,69756,5
34092,69617,5
34018,69454,5
33938,69281,4
33866,69142,4
33820,69037,5
33804,69017,5
33818,69042,5
33881,69046,4
33768,68918,5
33659,68623,5
33503,68305,5
33446,68085,5
33334,67984,5
33293,67887,4
33260,67794,5
33216,67644,5
33112,67466,6
33023,67268,3
32946,67098,5
32856,66901,5
32807,66829,5
32800,66811,5
32781,66767,4
32754,66648,5
32720,66640,5
32693,66525,5
32630,66414,5
32592,66284,4
32595,66328,5
32578,66261,5
32532,66151,5
32496,66052,4
32489,66054,5
32476,66033,4
32465,65990,5
32436,65958,5
32435,65914,4
32440,65929,6
32444,65926,4
32462,66043,5
32486,66028,5
32483,66007,6
32469,65975,3
32454,66031,5
32488,66048,5
32505,66051,5
32513,66063,4
32502,66061,5
32525,66114,5
32569,66177,5
32576,66192,5
32575,66210,4
32597,66251,5
32607,66285,5
32640,66336,5
32659,66381,4
32678,66435,4
32702,66493,5
32741,66569,5
32787,66661,5
32815,66718,4
32838,66781,5
32875,66855,6
32920,66972,4
32981,67093,5
33035,67219,4
33087,67335,5
33150,67445,5
33206,67565,5
33263,67697,5
33315,67815,4
33393,67968,5
33461,68089,5
33489,68167,5
33530,68279,5
33620,68455,4
33699,68646,5
33776,68790,5
33843,68929,5
33942,69155,5
34055,69399,4
34152,69669,5
34277,69921,5
34375,70114,5
34450,70323,4
34570,70583,4
34658,70743,5
34736,70907,6
34834,71120,4
34924,71339,4
34991,71467,5
35048,71609,5
35121,71778,5
35203,71921,5
35232,72003,4
35268,72107,5
35346,72274,5
35427,72505,5
35563,72771,5
35672,72967,4
35729,73105,5
35818,73296,5
35909,73504,5
36057,73873,5
36218,74156,4
36256,74226,5
36254,74237,5
36164,74043,5
36110,73986,5
36172,74117,4
36201,74170,5
36221,74207,5
36224,74214,6
36253,74299,3
36303,74403,5
36361,74523,5
36378,74541,5
36333,74510,5
36392,74646,4
36437,74739,5
36505,74916,5
36661,75250,5
36822,75541,5
36823,75488,4
36695,75254,5
36659,75218,5
36711,75329,5
36688,75293,5
36644,75200,4
36614,75134,5
36556,75065,5
36493,74929,5
36353,74748,4
36340,74680,5
36374,74829,4
36467,74944,5
36417,74963,5
36474,74972,6
36473,74948,3
36442,74900,5
36431,74941,5
36428,74883,5
36416,74850,4
36349,74748,5
36391,74719,5
36350,74789,5
36370,74806,5
36378,74822,4
36445,74841,5
36393,74858,5
36328,74701,5
36251,74582,5
36282,74583,4
36289,74697,5
36337,74784,5
36354,74823,5
36358,74832,5
36378,74910,4
36395,74913,6
36335,74800,4
36313,74728,5
36332,74835,4
36374,74947,4
36439,75084,5
36528,75223,5
36600,75411,5
36648,75543,4
36708,75640,5
36734,75724,5
36825,75961,5
36907,76137,5
36972,76284,4
37075,76517,5
37163,76706,5
37247,76859,5
37340,77098,5
37453,77406,4
37604,77666,5
37734,77960,5
37871,78247,5
38053,78654,5
38150,78813,4
38258,78987,5
38274,79056,6
38284,79108,4
38283,79071,4
38249,79037,4
38266,79089,5
38266,79106,5
38292,79183,5
38337,79247,4
38345,79288,5
38373,79369,5
38422,79469,5
38476,79600,5
38560,79725,4
38608,79847,5
38670,79963,5
38724,80075,5
38777,80163,5
38784,80210,4
38806,80273,5
38813,80289,5
38820,80297,5
38802,80267,5
38804,80267,4
38801,80309,5
38834,80384,5
38842,80391,6
38825,80341,3
38787,80276,4
38765,80241,5
38767,80242,5
38763,80244,5
38749,80232,4
38753,80227,5
38748,80226,5
38748,80218,9
38749,80208,1
38739,80194,4
38755,80223,5
38766,80233,5
38787,80296,5
38815,80330,5
38826,80352,4
38854,80385,5
38879,80457,5
38920,80497,5
38925,80521,5
38953,80576,5
38991,80633,4
39007,80658,5
39000,80650,5
38989,80631,5
38979,80605,4
38977,80583,5
38954,80559,5
38938,80529,5
38925,80505,4
38918,80480,5
38901,80463,5
38888,80435,5
38879,80392,5
38846,80364,4
38834,80344,5
38831,80339,5
38806,80297,5
38802,80289,5
38806,80299,4
38830,80342,5
38839,80377,5
38863,80401,5
38859,80381,5
38833,80336,4
38820,80327,6
38832,80350,4
38838,80358,5
38847,80367,5
38855,80372,4
38865,80415,5
38875,80441,5
38898,80468,5
38908,80510,4
38935,80558,5
38956,80597,5
38970,80652,5
39019,80724,5
39060,80800,4
39084,80831,5
39046,80849,5
39104,80854,5
39090,80844,5
39065,80783,4
38973,80729,5
39018,80697,5
39005,80679,5
39007,80670,5
39006,80691,4
39021,80708,5
39019,80719,6
39024,80730,4
39087,80741,5
39043,80745,4
39041,80753,5
39056,80766,5
39131,80778,5
39067,80804,4
39064,80787,4
39054,80761,5
39077,80747,5
39032,80717,5
39020,80705,4
39015,80697,5
39024,80686,5
39026,80720,5
39031,80719,5
39042,80728,4
39044,80712,5
39071,80785,5
39081,80793,5
39075,80786,5
39071,80712,4
39069,80761,5
39045,80741,5
39046,80728,5
39032,80646,5
39007,80675,5
39000,80657,4
39004,80647,5
39000,80671,5
38989,80622,4
38980,80618,4
38981,80617,5
38996,80696,5
38982,80619,5
38977,80603,4
38971,80585,5
38964,80627,5
38953,80532,5
38934,80517,5
38913,80483,4
38904,80483,5
38888,80441,5
38875,80415,5
38876,80410,5
38870,80389,5
38862,80377,4
38849,80374,5
38858,80393,5
38883,80433,5
38897,80454,4
38920,80500,5
38945,80517,5
38952,80551,5
38949,80528,5
38940,80519,4
38937,80507,5
38943,80499,5
38932,80488,5
38923,80464,4
38918,80465,5
38918,80456,5
38916,80458,5
38909,80461,5
38903,80436,4
38885,80407,5
38889,80396,5
38886,80394,5
38884,80392,5
38896,80401,4
38891,80394,6
38881,80400,4
38893,80418,5
38905,80444,5
38905,80436,4
38909,80449,5
38921,80440,5
38922,80440,5
38917,80441,5
38921,80447,4
38928,80459,5
38924,80461,5
38929,80457,5
38927,80457,4
38931,80461,4
38933,80466,5
38931,80457,5
38939,80457,5
38938,80462,4
38939,80455,5
38924,80447,5
38928,80431,6
38910,80418,4
38908,80415,4
38890,80400,5
38887,80382,5
38876,80365,5
38874,80350,5
38865,80339,4
38864,80321,5
38856,80310,5
38850,80297,5
38837,80292,5
38830,80289,4
38835,80280,5
38830,80278,5
38825,80271,5
38826,80265,4
38820,80267,4
38824,80258,5
38820,80240,5
38810,80225,5
38798,80205,5
38788,80197,4
38773,80178,5
38767,80159,5
38755,80128,6
38746,80111,3
38734,80092,5
38726,80075,5
38708,80050,5
38699,80040,5
38666,80015,4
38684,79993,5
38665,79978,5
38661,79957,5
38589,79939,5
38644,79923,4
38632,79906,5
38620,79893,5
38558,79877,5
38609,79862,5
38603,79842,4
38574,79812,5
38552,79777,5
38529,79710,5
38497,79653,4
38466,79598,5
38494,79557,4
38409,79503,5
38385,79474,5
38375,79450,6
38449,79439,3
38373,79444,5
38373,79446,5
38383,79460,5
38415,79475,4
38398,79494,5
38400,79502,5
38414,79519,5
38420,79528,5
38427,79539,4
38420,79532,5
38410,79503,5
38391,79432,5
38385,79462,5
38370,79432,4
38351,79411,5
38341,79348,5
38353,79401,5
38346,79409,5
38349,79408,4
38356,79365,6
38351,79411,4
38359,79403,5
38354,79407,4
38349,79433,5
38347,79397,5
38341,79390,5
38354,79388,5
38350,79457,4
38346,79385,5
38340,79399,5
38346,79386,5
38345,79458,5
38363,79414,4
38366,79427,5
38366,79426,5
38371,79452,5
38378,79445,5
38384,79444,4
38381,79440,5
38373,79427,5
38375,79426,5
38373,79427,5
38371,79429,4
38376,79435,5
38382,79429,6
38378,79430,4
38368,79422,4
38372,79423,4
38370,79411,5
38364,79407,5
38358,79390,5
38336,79379,4
38332,79361,5
38322,79343,5
38309,79326,5
38304,79311,5
38296,79282,4
38285,79262,5
38273,79251,5
38261,79237,5
38256,79220,5
38240,79200,4
38244,79195,5
38239,79173,5
38235,79178,5
38231,79170,5
38234,79169,4
38228,79166,5
38225,79180,5
38232,79180,6
38238,79184,4
38240,79198,4
38240,79200,5
38245,79190,5
38243,79192,5
38248,79200,4
38254,79205,4
38248,79203,5
38253,79205,5
38251,79200,5
38260,79215,4
38260,79207,5
38253,79216,5
38262,79211,5
38257,79209,5
38254,79215,4
38246,79199,5
38246,79185,5
38240,79165,5
38218,79141,5
38195,79103,5
38172,79062,4
38163,79028,5
38137,78993,5
38117,78960,6
38107,78936,3
38088,78925,5
38082,78913,5
38089,78911,5
38088,78918,5
38095,78926,4
38106,78946,5
38119,78977,5
38130,78980,5
38133,79014,4
38154,79035,5
38162,79059,5
38175,79076,5
38185,79080,5
38177,79085,4
38187,79091,5
38181,79083,5
38180,79088,5
38181,79087,5
38187,79104,4
38201,79115,6
38198,79134,4
38214,79148,5
38225,79172,5
38247,79204,4
38217,79228,5
38270,79255,5
38294,79284,5
38309,79329,5
38272,79371,4
38364,79408,5
38386,79455,5
38408,79493,5
38399,79536,4
38445,79550,4
38462,79575,5
38467,79591,5
38497,79587,5
38466,79592,4
38470,79599,5
38475,79607,5
38540,79598,5
38474,79604,5
38476,79611,4
38475,79615,5
38533,79630,6
38491,79633,4
38492,79633,5
38495,79629,4
38492,79616,5
38482,79613,5
38481,79610,5
38475,79608,5
38477,79583,4
38481,79612,5
38479,79591,5
38460,79575,5
38465,79512,5
38450,79548,4
38444,79530,5
38426,79510,5
38426,79446,5
38423,79496,5
38416,79489,4
38412,79492,5
38417,79502,5
38411,79487,5
38409,79489,4
38412,79499,5
38424,79578,5
38438,79535,6
38441,79548,4
38445,79558,4
38451,79631,5
38469,79582,5
38477,79599,5
38484,79626,5
38501,79670,4
38504,79646,5
38513,79654,5
38512,79661,5
38518,79663,5
38515,79672,4
38516,79672,5
38516,79683,5
38518,79680,5
38514,79674,5
38522,79665,4
38520,79671,5
38515,79661,5
38511,79669,5
38526,79662,5
38514,79665,4
38512,79652,5
38499,79644,5
38500,79614,5
38475,79569,4
38453,79532,5
38428,79474,5
38397,79428,5
38368,79393,5
38347,79339,4
38321,79306,5
38299,79262,5
38285,79230,5
38271,79203,5
38256,79168,4
38256,79176,5
38265,79181,5
38256,79182,5
38276,79205,5
38279,79233,4
38296,79252,5
38307,79283,5
38321,79315,5
38339,79324,4
38351,79332,5
38342,79308,6
38330,79302,3
38328,79308,5
38322,79284,4
38320,79267,5
38308,79269,5
38301,79257,5
38302,79258,5
38301,79239,4
38303,79240,5
38294,79232,5
38289,79221,5
38289,79206,5
38291,79205,4
38290,79207,5
38284,79209,5
38276,79198,5
38282,79199,5
38281,79192,4
38279,79176,5
38268,79165,5
38267,79177,5
38272,79167,5
38264,79154,4
38260,79156,6
38266,79146,4
38257,79145,5
38257,79134,4
38247,79127,4
38244,79111,5
38235,79099,5
38217,79069,5
38203,79045,4
38190,79011,5
38162,78966,5
38136,78927,5
38123,78896,5
38110,78865,4
38096,78826,5
38082,78813,5
38064,78800,5
38056,78777,5
38048,78762,4
38034,78741,5
38036,78726,5
37986,78709,5
38017,78707,5
38017,78704,4
38012,78713,5
37960,78711,5
38025,78714,5
38020,78725,5
38031,78733,4
37976,78733,5
38040,78753,5
38045,78759,5
38057,78782,4
38092,78800,4
38089,78825,5
38094,78863,5
38116,78891,5
38204,78918,4
38145,78946,5
38166,78968,5
38179,78994,5
38248,79032,5
38215,79076,5
38230,79093,4
38240,79126,5
38291,79159,5
38291,79208,6
38314,79242,3
38330,79275,5
38345,79275,5
38359,79344,5
38388,79373,5
38390,79375,4
38388,79340,5
38399,79396,5
38393,79385,5
38383,79378,5
38368,79275,4
38365,79324,5
38340,79292,5
38336,79262,5
38327,79243,4
38303,79232,5
38299,79213,5
38294,79218,5
38304,79270,5
38300,79232,4
38312,79245,5
38321,79268,4
38337,79368,5
38360,79335,5
38382,79377,6
38405,79425,3
38433,79501,5
38450,79513,5
38481,79552,5
38487,79573,4
38500,79589,5
38501,79588,5
38502,79586,5
38493,79581,5
38495,79578,4
38491,79568,5
38501,79590,5
38500,79599,5
38511,79610,4
38522,79624,4
38530,79642,5
38541,79666,5
38564,79712,5
38585,79741,4
38611,79785,5
38628,79834,6
38652,79869,4
38669,79915,5
38702,79961,4
38722,79999,7
38734,80036,3
38748,80054,5
38774,80092,5
38793,80124,4
38797,80129,5
38800,80132,5
38801,80139,5
38805,80140,5
38796,80140,4
38800,80145,5
38801,80140,5
38800,80143,5
38804,80153,5
38802,80159,4
38808,80153,5
38811,80153,5
38802,80145,5
38797,80140,4
38800,80138,4
38784,80122,5
38784,80119,6
38776,80102,4
38777,80082,4
38763,80075,5
38754,80057,5
38761,80045,5
38733,80029,5
38735,80021,4
38714,79995,5
38715,79989,5
38711,79982,5
38713,79984,5
38710,79979,4
38707,79985,5
38716,79998,5
38725,80009,5
38733,80027,5
38752,80048,4
38762,80066,5
38773,80095,5
38788,80102,5
38792,80121,5
38812,80151,4
38823,80185,5
38839,80200,5
38843,80206,6
38852,80233,3
38860,80248,5
38870,80273,5
38874,80293,5
38894,80313,5
38900,80328,4
38907,80328,5
38899,80321,5
38896,80320,5
38883,80297,5
38889,80295,4
38878,80302,5
38900,80317,5
38907,80348,5
38924,80386,5
38909,80427,4
38986,80479,5
39009,80546,5
39047,80611,5
39011,80659,5
39117,80742,5
39158,80802,4
39194,80870,5
39161,80926,5
39252,80954,6
39246,80947,3
39234,80916,5
39240,80863,5
39116,80664,5
38955,80374,4
38792,80088,5
38671,79741,5
38400,79379,5
38221,79072,5
38074,78787,4
38002,78566,5
37850,78406,5
37799,78300,5
37699,78106,5
37640,77934,4
37558,77804,5
37532,77779,5
37547,77782,5
37618,77877,5
37708,78015,4
37784,78121,6
37861,78236,4
37987,78414,5
38115,78695,5
38282,78987,4
38446,79274,5
38649,79524,5
38866,80030,5
39108,80449,4
39362,80867,4
39653,81391,5
39935,81880,5
40217,82345,5
40486,82850,4
40786,83418,5
41064,83817,5
41266,84210,5
41565,84790,5
41932,85493,4
42306,86042,5
42614,86504,5
42736,86638,5
42720,86640,5
42660,86465,4
42559,86326,5
42507,86192,6
42441,86124,4
42458,86169,5
42541,86311,4
42596,86377,5
42555,86275,5
42488,86125,5
42385,85948,4
42256,85707,4
42089,85406,5
41880,85050,5
41683,84700,5
41484,84335,4
41242,83925,5
41023,83513,5
40777,83105,5
40544,82733,5
40380,82420,4
40265,82212,5
40133,81940,5
39965,81645,5
39803,81350,5
39607,80941,4
39374,80455,5
39049,79798,5
38597,78976,6
38190,78200,4
37862,77588,4
37528,76918,5
37134,76143,5
36806,75532,5
36564,75047,5
36351,74560,4
36086,74018,5
35866,73540,5
35685,73176,5
35543,72874,4
35405,72601,4
35280,72319,5
35134,72048,5
35005,71780,5
34881,71531,4
34776,71302,5
34582,70936,5
34390,70656,5
34288,70497,5
34247,70407,5
34195,70300,4
34170,70247,5
34139,70167,5
34090,70039,5
34019,69924,4
33985,69842,5
33932,69751,5
33889,69665,5
33847,69596,5
33797,69521,4
33758,69432,5
33696,69331,5
33655,69244,5
33608,69138,5
33564,69035,4
33489,68878,5
33400,68705,5
33331,68557,5
33291,68464,4
33239,68362,4
33162,68181,5
33088,68024,5
33023,67898,5
32990,67824,4
32957,67744,6
32906,67643,4
32866,67546,5
32772,67361,5
32662,67174,4
32596,67012,5
32533,66870,5
32497,66779,5
32442,66629,5
32383,66517,4
32358,66461,5
32295,66368,5
32297,66291,5
32250,66163,5
32177,65984,4
32034,65782,5
32017,65617,5
31977,65518,5
31941,66105,5
31859,66014,4
31883,65945,5
31856,65860,5
31849,65849,5
31876,65844,4
31866,65830,5
31859,65791,6
31830,65724,4
31854,65654,5
31807,65632,4
31819,65643,5
31846,65715,5
31937,65798,5
31918,65837,5
31930,65846,4
31934,65830,5
31938,65779,5
31883,65683,5
31845,65613,5
31868,65658,4
31912,65707,5
31934,65744,5
31921,65709,5
31886,65619,5
31848,65465,4
31819,65460,5
31802,65417,5
31778,65356,5
31742,65210,5
31704,65185,4
31692,65149,4
31689,65154,6
31684,65139,4
31692,65144,4
31660,65051,5
31578,64851,5
31452,64565,5
31301,64143,5
31161,63845,4
31048,63634,5
31025,63598,5
30970,63414,5
30875,63171,5
30778,62963,4
30700,62795,5
30596,62543,5
30479,62289,5
30362,62013,5
30247,61733,4
30118,61452,5
30019,61234,5
29905,60997,5
29832,60821,5
29774,60741,4
29774,60755,5
29799,60796,5
29807,60856,5
29832,60934,4
29862,60978,4
29884,61048,5
29946,61169,5
30015,61319,5
30090,61454,4
30137,61544,5
30155,61571,5
30161,61575,5
30141,61513,5
30097,61428,4
30079,61376,5
30043,61299,5
29999,61209,5
29998,61227,5
30032,61317,4
30089,61436,5
30126,61550,5
30157,61631,5
30204,61723,5
30244,61791,5
30286,61866,4
30328,61927,5
30358,61971,5
30397,62056,5
30453,62164,4
30511,62269,5
30552,62327,5
30580,62334,5
30587,62323,4
30566,62275,4
30553,62248,5
30544,62241,5
30571,62288,9
30580,62272,1
30613,62292,4
30602,62270,5
30090,61454,5
30569,62181,5
30587,62206,4
30622,62269,5
30680,62383,5
30743,62486,5
30789,62583,5
30832,62658,4
30879,62734,6
30911,62793,4
30938,62849,5
30984,62934,5
31035,63042,4
31082,63089,5
31076,63034,5
31027,62925,5
30974,62834,4
30921,62752,4
30868,62667,5
30853,62634,5
30882,62734,5
30936,62848,4
31000,62935,5
31006,62907,5
31010,62911,5
31030,62943,5
31074,63082,4
31181,63234,5
31204,63308,5
31256,63375,6
31283,63429,4
31324,63465,4
31374,63560,5
31397,63595,5
31428,63634,5
31449,63700,5
31465,63674,4
31412,63546,5
31339,63387,5
31245,63285,5
31247,63216,5
31229,63179,4
31218,63141,5
31154,63077,5
31183,63034,5
31181,63009,4
31191,63007,4
31204,62992,5
31165,62924,5
31135,62831,5
31087,62752,5
31080,62669,4
31000,62588,5
30952,62493,5
30912,62401,6
30910,62313,3
30800,62215,5
30736,62106,5
30704,62062,5
30711,62055,5
30711,62111,4
30741,62181,5
30787,62308,5
30870,62439,5
30907,62533,5
30975,62634,4
31053,62842,5
31154,63016,5
31238,63191,5
31312,63328,5
31353,63431,4
31408,63504,5
31458,63672,5
31538,63829,5
31627,64015,4
31708,64176,5
31777,64315,4
31819,64439,5
31849,64535,5
31929,64761,6
32006,64847,3
32014,64906,5
32072,65047,5
32195,65373,5
32313,65539,4
32399,65671,5
32399,65650,5
32356,65609,5
32334,65531,5
32296,65463,4
32284,65469,5
32318,65535,5
32384,65647,5
32485,65827,5
32583,65979,4
32591,65998,5
32583,65965,5
32537,65878,5
32478,65762,5
32468,65740,4
32468,65692,6
32437,65633,4
32426,65572,5
32400,65463,4
32345,65385,4
32345,65367,5
32347,65359,5
32341,65316,5
32322,65258,4
32285,65176,5
32245,65104,5
32236,65077,5
32226,65044,5
32186,64974,4
32159,64900,5
32116,64813,5
32079,64741,5
32036,64636,5
32016,64624,4
32038,64655,5
32035,64651,5
32012,64562,5
31947,64415,5
31869,64236,4
31821,64115,5
31767,64017,6
31688,63828,4
31580,63566,5
31463,63299,4
31326,63019,5
31198,62739,5
31077,62497,5
30990,62328,4
30947,62226,5
30894,62102,5
30809,61931,5
30710,61692,5
30565,61373,4
30407,61039,5
30303,60810,5
30247,60723,5
30224,60674,5
30197,60629,4
30187,60572,5
30137,60456,5
30029,60245,5
29910,59993,5
29812,59803,4
29728,59654,5
29657,59510,5
29604,59434,6
29615,59488,4
29659,59615,4
29733,59773,5
29804,59928,5
29877,60072,5
29957,60263,4
30065,60469,4
30157,60653,5
30232,60802,5
30281,60900,5
30311,60947,4
30331,60985,5
30343,61000,5
30332,60994,5
30344,61025,5
30375,61076,4
30419,61206,5
30497,61379,5
30575,61545,5
30665,61735,5
30721,61856,5
30779,61984,4
30865,62141,5
30965,62387,5
31086,62621,6
31155,62829,3
31254,62940,5
31263,62928,5
31246,62899,5
31186,62868,5
31249,62893,4
31262,62916,5
31297,62996,5
31330,63048,5
31348,63087,4
31343,63048,4
31315,62954,5
31268,62781,5
31128,62532,5
31017,62306,4
30923,62143,5
30905,61972,5
30793,61857,5
30757,61762,5
30724,61705,4
30731,61691,6
30697,61665,4
30635,61526,5
30529,61287,5
30403,61033,4
30280,60831,5
30215,60696,5
30178,60632,5
30131,60485,5
30064,60382,4
29999,60219,5
29920,60060,5
29885,59969,5
29859,59968,5
29840,59896,4
29817,59785,5
29735,59578,5
29654,59455,5
29593,59334,4
29544,59212,4
29506,59137,5
29456,59030,5
29433,58960,5
29407,58907,4
29385,58896,5
29313,58694,6
29212,58492,4
29149,58311,5
29062,58169,4
29003,57995,5
28951,57876,5
28904,57753,5
28850,57636,5
28798,57487,4
28726,57305,5
28629,57074,5
28528,56926,5
28479,56841,5
28447,56786,4
28440,56739,5
28417,56654,5
28360,56504,5
28279,56301,5
28214,56114,4
28088,55845,5
27967,55591,5
27862,55374,5
27795,55220,4
27747,55124,5
27719,55087,5
27719,55107,6
27747,55164,4
27776,55241,4
27827,55316,5
27854,55374,5
27894,55461,5
27940,55563,5
27984,55653,4
28025,55739,5
28066,55825,5
28103,55895,5
28144,55988,5
28181,56069,4
28215,56138,5
28249,56203,5
28262,56228,5
28255,56205,5
28243,56196,4
28253,56211,5
28276,56250,5
28280,56271,5
28296,56301,5
28301,56337,4
28327,56352,5
28319,56342,5
28306,56326,5
28292,56327,4
28291,56315,5
28273,56285,5
28252,56241,5
28222,56194,5
28191,56133,4
28151,56044,5
28108,55927,5
28051,55843,5
28016,55751,5
27975,55664,4
27932,55547,5
27859,55439,5
27868,55430,5
27873,55440,5
27888,55449,4
27909,55445,5
27922,55454,5
27957,55525,5
28008,55582,5
28065,55693,5
28129,55809,4
28199,55973,5
28255,56039,5
28285,56096,4
28320,56104,4
28337,56115,5
28333,56122,5
28377,56185,5
28408,56250,4
28464,56337,5
28523,56443,5
28568,56518,5
28587,56557,5
28595,56551,4
28600,56567,5
28607,56563,5
28595,56554,5
28588,56499,5
28560,56453,4
28567,56443,5
28554,56444,5
28587,56479,5
28586,56440,5
28577,56417,4
28534,56399,6
28574,56362,4
28542,56339,5
28578,56383,5
28564,56419,4
28622,56474,5
28656,56517,5
28690,56600,5
28757,56694,4
28766,56756,4
28818,56855,5
28886,56988,5
28985,57049,5
28988,57127,4
29009,57142,5
29034,57161,5
29104,57180,5
29075,57213,5
29114,57254,4
29102,57285,5
29139,57333,5
29147,57381,6
29183,57429,4
29196,57456,4
29217,57446,5
29232,57522,6
29247,57591,4
29307,57767,5
29342,57834,4
29392,57954,5
29393,57997,5
29405,58033,5
29420,58033,4
29465,58171,5
29520,58210,4
29565,58304,5
29624,58428,5
29696,58516,4
29715,58548,5
29727,58554,5
29734,58597,5
29800,58699,5
29892,58876,4
30011,59069,5
30103,59190,5
30124,59207,5
30180,59294,5
30213,59343,4
30216,59255,5
30165,59095,5
30106,58924,5
30037,58775,5
30070,58677,4
30059,58556,5
30085,58525,5
29966,58139,5
30049,58183,5
30091,58131,4
30157,58084,5
30139,57906,5
30077,57762,5
30114,57749,4
30173,57778,4
30227,57858,5
30268,57893,5
30319,57923,5
30338,57966,4
30481,58242,5
30641,58540,4
30812,58784,5
30851,58887,5
30888,58911,5
30901,58913,3
30896,58856,5
30871,58747,5
30823,58657,5
30804,58608,4
30784,58527,5
30749,58460,5
30710,58312,5
30594,58084,5
30535,57922,4
30465,57779,5
30424,57689,5
30390,57614,5
30334,57496,5
30289,57368,4
30234,57241,5
30200,57176,5
30165,57121,5
30120,56979,4
30029,56778,4
29930,56570,6
29823,56331,4
29704,56114,5
29632,56030,4
29622,56068,7
29644,56170,5
29708,56294,3
29774,56427,5
29878,56616,4
30010,56885,5
30188,57269,5
30429,57760,5
30628,58140,5
30738,58330,4
30798,58432,5
30875,58614,5
31010,58910,5
31183,59326,5
31456,59893,4
31765,60476,5
31975,60862,5
32109,61085,5
32165,61163,5
32184,61198,4
32201,61237,5
32228,61307,6
32255,61331,4
32262,61334,4
32258,61316,5
32230,61282,5
32245,61293,5
32260,61317,5
32286,61381,4
32315,61421,5
32310,61378,5
32274,61282,5
32199,61117,5
32150,61013,4
32109,60941,5
32087,60874,5
32057,60810,5
31996,60723,5
31979,60627,4
31936,60539,5
31910,60485,5
31878,60474,5
31905,60496,5
31933,60524,4
31949,60540,5
31901,60492,5
31907,60437,6
31880,60373,4
31853,60319,4
31825,60261,5
31799,60204,5
31758,60129,5
31750,60093,4
31770,60063,5
31738,60056,5
31739,60045,5
31709,59989,5
31716,59923,4
31646,59852,5
31619,59787,5
31588,59737,5
31580,59680,5
31528,59586,4
31468,59477,5
31422,59360,5
31372,59245,5
31330,59171,5
31297,59081,5
31243,59008,4
31218,58926,5
31194,58888,5
31156,58834,6
31134,58769,3
31093,58669,5
31076,58660,5
31052,58636,5
31046,58597,4
31034,58558,4
31022,58563,5
31006,58537,5
30998,58531,5
31002,58547,4
30987,58497,5
30974,58462,5
30947,58416,5
30907,58384,5
30879,58279,4
30851,58224,5
30826,58177,5
30791,58166,5
30762,58080,5
30732,58037,4
30726,58001,6
30707,57984,4
30698,57951,5
30684,57924,5
30669,57907,4
30657,57876,5
30651,57840,5
30624,57796,5
30593,57710,5
30545,57609,4
30499,57486,5
30451,57398,5
30412,57285,5
30354,57200,4
30321,57112,4
30280,57035,5
30244,56957,5
30204,56877,5
30176,56807,4
30134,56711,5
30062,56545,5
29981,56389,5
29899,56208,5
29797,56023,4
29719,55857,5
29624,55674,6
29554,55539,4
29503,55446,5
29465,55366,4
29442,55326,5
29445,55316,5
29445,55312,5
29437,55286,5
29431,55281,4
29415,55240,5
29392,55199,5
29377,55166,5
29358,55111,5
29334,55056,4
29296,54979,5
29268,54898,5
29228,54830,5
29197,54759,4
29177,54709,4
29156,54665,5
29148,54632,5
29137,54601,5
29127,54585,4
29101,54548,5
29104,54516,5
29092,54495,6
29080,54471,4
29064,54445,4
29062,54432,5
29053,54423,5
29041,54386,5
29030,54363,5
29027,54355,4
29027,54359,5
29030,54346,5
29029,54340,5
29038,54341,5
29030,54337,4
29022,54318,5
29014,54311,5
29009,54271,5
29012,54257,5
28997,54214,4
28980,54198,5
28971,54169,5
28963,54147,5
28944,54119,5
28925,54062,4
28898,54009,5
28863,53971,5
28833,53897,6
28812,53841,3
28798,53797,5
28782,53746,5
28765,53725,5
28758,53691,5
28741,53664,4
28718,53614,5
28707,53574,5
28683,53528,5
28661,53489,5
28616,53424,4
28617,53363,5
28600,53313,5
28600,53304,5
28565,53268,5
28564,53207,4
28530,53126,5
28480,53014,5
28432,52887,5
28394,52792,4
28366,52751,5
28371,52784,4
28435,52820,5
28433,52872,5
28450,52881,4
28444,52874,5
28493,52919,5
28470,52952,5
28505,52990,5
28515,53053,4
28561,53094,5
28563,53131,5
28585,53159,5
28612,53227,5
28656,53301,4
28698,53409,5
28752,53534,5
28809,53620,5
28823,53652,5
28839,53694,4
28850,53731,5
28864,53766,5
28873,53752,5
28889,53828,5
28920,53895,4
28940,53972,6
28978,54033,4
28993,54107,5
29028,54185,4
29037,54240,4
29066,54334,5
29107,54403,5
29125,54467,5
29138,54491,4
29128,54530,5
29112,54502,5
29097,54502,5
29082,54539,5
29092,54603,4
29071,54567,5
29025,54525,5
28968,54449,5
28917,54391,5
28888,54343,4
28843,54268,5
28789,54174,5
28724,54058,5
28668,53934,5
28588,53782,4
28537,53666,5
28472,53568,6
28426,53431,4
28379,53356,5
28335,53230,4
28285,53160,5
28257,53112,5
28231,53092,5
28211,53027,4
28157,52933,4
28107,52832,5
28049,52752,5
28009,52708,5
27975,52694,4
27974,52737,5
28015,52852,5
28055,52936,5
28081,52994,5
28065,52953,4
28048,52961,5
28040,52957,5
28043,52962,5
28052,52945,5
28045,52962,4
28075,52984,5
28120,53033,5
28164,53116,5
28201,53126,5
28199,53159,4
28209,53160,5
28231,53159,5
28248,53194,5
28243,53171,5
28236,53133,4
28235,53144,5
28256,53178,5
28268,53166,5
28275,53177,4
28284,53205,5
28288,53157,5
28295,53179,5
28317,53200,5
28337,53231,4
28344,53234,5
28330,53226,5
28348,53226,5
28353,53242,5
28371,53231,5
28378,53235,4
28388,53230,5
28380,53224,5
28398,53249,5
28399,53279,4
28409,53307,5
28424,53323,5
28428,53335,5
28436,53346,5
28451,53374,4
28471,53429,5
28497,53503,5
28543,53589,5
28596,53690,4
28636,53760,4
28662,53816,5
28692,53866,5
28724,53893,5
28751,53931,4
28815,54061,5
28901,54201,5
28955,54304,5
28997,54385,5
29023,54408,4
29033,54422,6
29060,54458,4
29082,54482,5
29070,54448,5
29044,54406,4
29041,54399,5
29034,54431,5
29083,54437,5
29095,54448,5
29123,54475,4
29127,54524,5
29189,54530,5
29188,54519,5
29184,54505,5
29181,54475,4
29244,54543,5
29267,54547,5
29271,54544,5
29302,54520,4
29228,54457,4
29202,54403,5
29208,54409,5
29210,54365,4
29178,54368,4
29188,54382,5
29177,54337,5
29212,54305,5
29213,54338,5
29215,54295,4
29224,54290,5
29241,54311,5
29251,54321,5
29275,54370,5
29267,54344,4
29291,54346,5
29312,54358,5
29295,54321,5
29279,54325,5
29295,54318,4
29304,54402,5
29358,54480,5
29385,54553,5
29423,54579,5
29448,54655,5
29466,54692,4
29480,54725,5
29507,54761,6
29510,54762,3
29515,54760,4
29524,54771,5
29542,54834,5
29562,54848,5
29591,54898,4
29616,54973,5
29654,55082,5
29685,55098,5
29719,55139,5
29739,55181,4
29764,55232,5
29794,55290,5
29832,55375,5
29883,55438,5
29907,55481,4
29919,55503,5
29936,55544,5
29965,55582,5
29993,55634,5
30028,55692,5
30062,55742,4
30084,55797,5
30107,55818,5
30107,55830,6
30117,55849,3
30137,55875,5
30151,55904,5
30158,55916,5
30179,55966,4
30200,56003,5
30198,55985,5
30164,55911,5
30120,55860,5
30108,55813,4
30087,55786,5
30072,55763,5
30063,55761,5
30065,55750,5
30050,55720,4
30040,55701,5
30027,55662,5
30006,55626,5
29995,55613,5
29981,55618,4
29984,55617,6
29983,55601,4
29967,55566,5
29946,55539,5
29934,55501,6
29916,55493,3
29926,55501,5
29915,55467,5
29888,55415,4
29869,55391,4
29855,55362,5
29842,55332,5
29836,55313,5
29804,55258,4
29771,55213,5
29748,55173,5
29750,55163,5
29737,55150,9
29743,55162,1
29743,55147,4
29727,55125,5
29723,55090,5
29711,55065,5
29681,55038,4
29675,54999,5
29643,54953,6
29614,54907,4
29611,54887,5
29594,54868,4
29588,54841,5
29584,54818,5
29556,54801,5
29551,54775,5
29541,54779,4
29518,54739,5
29507,54685,5
29483,54658,5
29477,54660,4
29465,54627,4
29441,54582,5
29424,54543,5
29415,54515,5
29396,54505,4
29374,54476,5
29363,54454,5
29354,54431,5
29340,54414,5
29329,54408,4
29335,54400,5
29333,54388,5
29312,54385,6
29299,54378,4
29313,54359,4
29310,54364,5
29313,54333,5
29246,54280,5
29259,54262,5
29243,54240,4
29244,54235,5
29226,54244,5
29255,54258,5
29281,54290,5
29298,54323,4
29311,54320,5
29297,54294,5
29285,54253,5
29253,54198,4
29257,54128,5
29190,54059,5
29154,53986,5
29115,53899,5
29095,53797,5
29012,53702,4
28964,53597,5
28924,53535,5
28905,53501,6
28874,53417,3
28829,53366,5
28793,53260,5
28745,53161,5
28685,53054,5
28626,52932,4
28582,52819,5
28516,52669,5
28450,52579,5
28381,52482,5
28367,52423,4
28326,52345,5
28302,52342,5
28292,52321,5
28272,52300,4
28268,52310,4
28275,52347,5
28287,52409,5
28288,52392,5
28261,52395,4
28271,52375,6
28274,52413,4
28300,52447,5
28310,52507,5
28331,52491,4
28340,52496,5
28333,52501,5
28337,52524,5
28338,52510,5
28344,52526,4
28359,52546,5
28359,52554,5
28342,52542,5
28348,52548,5
28372,52578,4
28405,52616,5
28403,52644,5
28409,52648,5
28408,52652,5
28416,52661,4
28385,52647,5
28378,52625,5
28366,52603,5
28361,52611,4
28364,52593,4
28349,52589,6
28350,52572,4
28348,52575,5
28348,52571,4
28336,52558,5
28343,52564,5
28330,52569,5
28331,52567,5
28343,52594,4
28350,52601,5
28353,52621,5
28356,52627,5
28362,52623,5
28367,52627,4
28367,52632,5
28378,52643,5
28386,52679,5
28404,52713,5
28419,52766,4
28439,52784,5
28456,52800,5
28472,52825,5
28472,52820,5
28472,52801,4
28451,52768,5
28435,52738,6
28413,52689,4
28415,52683,4
28425,52699,4
28435,52723,5
28451,52731,5
28442,52727,5
28442,52727,4
28435,52724,5
28421,52692,5
28396,52639,5
28367,52591,5
28333,52536,4
28320,52491,5
28306,52486,5
28319,52518,5
28348,52552,5
28361,52554,4
28359,52527,5
28350,52517,5
28327,52465,5
28305,52453,5
28303,52467,4
28330,52528,5
28373,52601,5
28402,52688,5
28436,52766,8
28483,52800,7
28517,52903,9
28517,52903,10
28524,52902,9
28549,52971,10
28549,52971,9
28557,52983,8
28571,53019,7
28603,53123,10
28603,53123,9
28576,53110,9
28588,53086,10
28588,53086,5
28590,53089,8
28598,53100,7
28618,53110,7
28623,53140,10
28623,53140,5
28602,53110,5
28616,53117,10
28668,53142,5
28641,53161,5
28652,53136,10
28692,53242,9
28692,53242,10
28687,53229,5
28684,53236,5
28705,53249,10
28698,53259,5
28701,53240,5
28720,53261,10
28720,53261,5
28714,53258,5
28710,53238,10
28689,53195,5
28677,53181,5
28634,53090,10
28634,53090,5
28629,53081,5
28633,53116,10
28640,53101,5
28657,53108,7
28667,53077,8
28715,53220,9
28715,53220,10
28721,53215,5
28744,53257,7
28778,53289,8
28800,53311,5
28779,53185,7
28779,53185,8
28738,53150,5
28762,53137,7
28774,53138,8
28771,53119,5
28756,53095,7
28640,52804,8
28640,52804,5
28608,52748,7
28587,52697,8
28591,52667,5
28564,52602,7
28532,52489,8
28383,52222,9
28383,52222,5
28349,52155,8
28320,52104,7
28284,52028,5
28219,51978,8
28213,51904,7
28014,51518,8
28014,51518,5
27992,51446,7
27973,51400,5
27932,51343,8
27900,51261,7
27866,51190,5
27835,51120,8
27604,50673,7
27604,50673,5
27588,50635,8
27556,50543,7
27521,50462,8
27499,50417,7
27324,50018,9
27324,50018,10
27293,49919,9
27049,49339,8
27049,49339,7
27047,49299,10
27006,49237,6
27003,49199,3
27001,49156,6
26967,49065,3
26982,49809,5
26965,49769,5
26963,49704,4
26950,49638,5
26938,49558,5
26957,49536,5
26948,49495,5
26904,49345,4
26863,49222,5
26784,49049,5
26704,48847,5
26597,48627,5
26513,48465,4
26464,48372,5
26413,48298,5
26438,48318,5
26397,48185,5
26314,48016,4
26238,47876,5
26171,47689,6
26103,47554,4
26050,47454,5
25982,47356,4
25970,47280,5
25937,47196,5
25879,47099,5
25867,47032,4
25824,46983,4
25808,46944,5
25782,46887,5
25807,46845,5
25742,46765,4
25691,46669,5
25637,46540,5
25582,46378,5
25451,46158,5
25342,45982,4
25349,46008,5
25384,46052,5
25374,46043,5
25368,46026,5
25366,46029,4
25378,46026,5
25377,46042,5
25377,46016,6
25350,45978,4
25327,45900,4
25308,45896,5
25283,45857,5
25264,45819,5
25246,45765,5
25239,45780,5
25244,45765,9
25213,45726,8
25213,45726,5
25217,45729,5
25188,45734,8
25206,45739,5
25223,45752,5
25234,45773,8
25239,45778,5
25248,45800,5
25261,45822,5
25279,45851,8
25304,45896,5
25325,45948,5
25430,46145,8
25430,46145,5
25414,46168,5
25448,46188,5
25460,46224,8
25488,46288,5
25507,46311,5
25527,46348,8
25555,46396,5
25570,46412,5
25573,46421,8
25548,46400,5
25543,46374,2
25526,46354,2
25522,46338,5
25513,46333,5
25535,46342,5
25528,46361,4
25529,46383,6
25554,46420,4
25562,46452,5
25587,46494,5
25618,46573,6
25668,46664,3
25717,46741,5
25744,46823,5
25794,46898,5
25823,46951,4
25844,46998,5
25852,47014,5
25855,47035,5
25870,47047,5
25862,47053,4
25865,47062,5
25874,47079,5
25880,47086,5
25888,47096,5
25885,47116,4
25895,47149,5
25922,47194,5
25944,47256,5
25982,47315,4
26003,47369,4
26029,47412,6
26038,47438,4
26044,47452,5
26061,47467,4
26061,47486,5
26065,47503,7
26074,47515,3
26068,47512,5
26079,47510,4
26064,47501,5
26060,47481,5
26038,47446,5
26013,47410,5
25991,47367,4
25967,47318,5
25937,47273,5
25905,47224,5
25890,47177,5
25862,47115,4
25835,47087,5
25802,47033,5
25777,46970,5
25739,46909,5
25712,46831,4
25661,46773,5
25636,46708,6
25591,46634,4
25552,46565,4
25519,46510,4
25488,46440,5
25457,46367,5
25422,46313,5
25395,46253,4
25372,46209,5
25342,46146,5
25309,46108,5
25297,46050,5
25272,46005,4
25253,45967,5
25221,45912,5
25199,45860,5
25166,45807,5
25142,45739,4
25101,45670,5
25062,45595,5
25015,45514,5
24990,45440,5
24961,45402,4
24939,45361,5
24927,45331,5
24889,45286,6
24862,45243,4
24834,45196,4
24810,45146,5
24784,45107,5
24776,45072,5
24750,45038,4
24736,45005,4
24723,44974,5
24705,44951,5
24701,44948,5
24706,44957,4
24711,44967,5
24719,44973,5
24728,44978,5
24731,44998,5
24743,45026,4
24748,45033,5
24756,45041,5
24756,45053,5
24766,45059,5
24772,45070,5
24781,45102,4
24802,45133,5
24821,45155,5
24828,45184,5
24836,45196,4
24851,45233,5
24867,45258,5
24872,45279,5
24885,45306,5
24906,45338,4
24925,45382,5
24954,45445,5
24980,45499,5
25022,45567,5
25047,45626,4
25082,45687,5
25105,45739,5
25141,45807,5
25166,45877,4
