RED,IR,EKG,TIME
55430,116823,8
55434,116824,5
55432,116848,5
55433,116816,8
55434,116789,5
55421,116822,5
55469,116811,5
55447,116828,8
55417,116837,5
55431,116852,5
55446,116840,8
55457,116867,5
55450,116858,5
55446,116856,5
55459,116867,8
55459,116867,5
55459,116858,5
55462,116868,8
55466,116866,5
55471,116907,5
55446,116911,8
55478,116922,5
55494,116919,5
55493,116952,5
55489,116918,8
55481,116898,5
55476,116901,5
55455,116870,8
55455,116870,5
55453,116861,5
55465,116863,5
55448,116871,8
55453,116870,5
55470,116882,5
55470,116929,8
55474,116916,5
55481,116877,5
55473,116903,8
55498,116918,5
55489,116924,5
55489,116924,5
55488,116947,8
55487,116925,5
55484,116923,5
55491,116934,8
55491,116936,5
55489,116944,5
55486,116901,5
55490,116907,8
55502,116946,5
55496,116948,5
55514,116983,8
55514,116983,5
55517,116988,5
55524,116982,5
55527,116987,8
55518,116988,5
55522,116977,5
55510,116975,8
55498,116966,5
55518,116963,5
55496,116963,8
55511,116968,5
55515,116975,5
55518,116980,5
55544,117021,8
55544,117021,5
55541,117026,5
55548,117048,8
55564,117046,5
55545,117039,5
55538,117036,5
55550,117053,8
55551,117064,5
55561,117065,5
55556,117075,8
55559,117080,5
55559,117086,5
55582,117107,8
55582,117107,5
55611,117108,5
55588,117097,5
55552,117116,8
55563,117107,5
55586,117125,5
55588,117134,8
55599,117150,5
55589,117146,5
55599,117144,5
55600,117158,8
55618,117159,5
55619,117171,5
55625,117194,8
55625,117194,5
55578,117179,5
55616,117187,8
55627,117185,5
55626,117209,5
55626,117223,5
55653,117239,2
55659,117262,1
55676,117283,3
55662,117284,5
55673,117283,5
55677,117277,5
55659,117271,4
55679,117272,5
55660,117250,5
55656,117248,5
55649,117246,5
55665,117236,4
55639,117234,5
55644,117229,5
55656,117232,5
55664,117245,5
55643,117256,4
55660,117271,5
55671,117281,5
55676,117287,5
55662,117290,5
55671,117292,5
55669,117291,4
55659,117278,5
55671,117274,5
55666,117280,5
55670,117288,4
55665,117260,5
55668,117280,5
55662,117282,5
55673,117282,4
55674,117270,4
55669,117289,5
55666,117283,5
55680,117288,5
55670,117291,4
55678,117287,5
55672,117295,5
55683,117309,5
55685,117324,5
55688,117328,4
55696,117317,5
55689,117330,5
55698,117345,5
55700,117325,5
55694,117335,4
55687,117328,6
55693,117333,4
55689,117324,5
55700,117323,5
55692,117333,4
55698,117330,5
55701,117343,5
55708,117337,5
55706,117346,5
55703,117354,4
55711,117366,5
55709,117353,5
55715,117369,5
55708,117354,5
55711,117348,4
55711,117358,5
55703,117368,5
55708,117376,5
55723,117381,4
55720,117387,4
55728,117398,5
55739,117413,5
55741,117430,5
55743,117430,4
55749,117434,5
55750,117429,6
55749,117434,4
55752,117428,5
55735,117423,4
55739,117424,5
55735,117425,8
55754,117423,2
55772,117424,5
55749,117433,4
55753,117437,5
55754,117448,5
55761,117459,5
55769,117477,5
55781,117493,4
55788,117513,5
55789,117536,5
55809,117543,5
55810,117558,5
55817,117568,4
55834,117594,5
55846,117599,5
55841,117601,5
55838,117612,4
55834,117604,4
55830,117593,5
55824,117575,5
55822,117562,5
55806,117546,4
55799,117531,5
55795,117533,5
55801,117508,5
55781,117498,5
55778,117493,4
55776,117491,5
55786,117504,5
55782,117486,5
55781,117496,5
55786,117508,4
55785,117511,5
55791,117518,5
55801,117517,5
55800,117531,5
55799,117519,4
55795,117526,5
55795,117521,5
55798,117528,5
55798,117524,5
55803,117526,4
55794,117538,5
55793,117522,5
55797,117523,5
55798,117516,5
55785,117509,4
55791,117506,5
55787,117507,5
55791,117500,5
55789,117497,4
55779,117494,4
55787,117506,5
55796,117516,5
55783,117508,5
55780,117506,4
55794,117514,5
55797,117516,5
55790,117508,5
55779,117504,5
55784,117501,4
55785,117489,6
55785,117503,4
55767,117504,5
55790,117504,5
55804,117515,6
55795,117520,3
55794,117536,5
55798,117532,5
55801,117537,5
55808,117542,4
55819,117547,5
55813,117559,5
55811,117566,5
55809,117573,5
55852,117563,4
55819,117577,5
55821,117580,5
55816,117579,5
55842,117594,5
55829,117606,4
55841,117601,5
55836,117609,5
55837,117611,5
55838,117614,4
55842,117611,5
55840,117621,6
55840,117610,4
55849,117618,5
55846,117627,4
55844,117623,7
55858,117612,3
55850,117637,5
55854,117631,5
55847,117627,4
55855,117620,5
55843,117618,5
55854,117633,5
55850,117622,5
55847,117633,4
55840,117635,5
55850,117637,5
55844,117637,5
55853,117665,5
55856,117635,4
55859,117648,5
55849,117659,5
55864,117673,5
55867,117658,5
55868,117664,4
55862,117651,5
55853,117657,6
55854,117652,4
55851,117627,4
55846,117614,4
55842,117618,5
55846,117604,5
55833,117599,5
55827,117586,4
55837,117598,5
55841,117609,5
55842,117612,5
55854,117636,5
55859,117649,4
55855,117652,5
55864,117645,5
55865,117657,5
55856,117666,5
55860,117648,4
55862,117662,5
55862,117665,5
55867,117671,5
55869,117667,5
55871,117672,4
55879,117681,5
55868,117677,5
55878,117684,6
55873,117672,4
55878,117695,4
55883,117697,5
55881,117685,5
55882,117689,5
55876,117703,5
55888,117698,4
55880,117708,5
55889,117710,5
55894,117720,5
55899,117735,4
55902,117720,4
55904,117739,5
55908,117737,5
55894,117719,5
55901,117730,4
55898,117729,5
55904,117737,5
55907,117729,5
55905,117733,5
55905,117743,5
55911,117752,4
55917,117761,5
55920,117764,5
55920,117770,6
55911,117772,3
55920,117762,5
55915,117768,5
55930,117772,5
55919,117771,5
55924,117772,4
55929,117771,5
55925,117788,5
55935,117782,5
55931,117785,5
55929,117788,4
55941,117792,5
55941,117793,5
55942,117804,5
55944,117808,4
55944,117809,4
55946,117812,5
55950,117814,5
55946,117815,5
55937,117821,4
55942,117817,6
55947,117811,4
55941,117816,5
55947,117811,5
55948,117811,6
55941,117817,3
55943,117816,5
55952,117822,5
55953,117835,5
55951,117838,4
55959,117841,5
55962,117840,5
55955,117846,5
55964,117848,5
55949,117838,4
55949,117859,5
55959,117836,5
55956,117825,5
55932,117826,5
55949,117812,4
55949,117820,5
55951,117818,5
55927,117801,5
55939,117795,5
55934,117807,4
55938,117799,6
55936,117787,4
55923,117790,5
55929,117781,4
55930,117780,4
55951,117788,5
55936,117782,5
55933,117788,5
55931,117778,4
55944,117772,5
55923,117781,5
55938,117771,5
55919,117760,5
55925,117750,4
55913,117746,5
55899,117735,5
55893,117711,5
55882,117665,5
55861,117636,4
55849,117616,5
55832,117592,5
55828,117547,5
55824,117559,5
55811,117566,4
55818,117561,5
55825,117550,6
55822,117581,4
55822,117564,5
55822,117576,4
55821,117546,5
55828,117543,5
55812,117547,5
55802,117540,5
55811,117552,4
55806,117535,5
55809,117528,5
55810,117542,5
55804,117551,4
55803,117531,5
55794,117521,5
55800,117507,5
55789,117519,5
55791,117497,4
55785,117500,5
55768,117482,5
55783,117482,5
55766,117468,5
55775,117468,4
55772,117462,5
55766,117456,5
55769,117468,6
55772,117466,4
55771,117458,4
55768,117454,5
55751,117442,5
55750,117437,5
55754,117426,5
55744,117427,4
55760,117422,5
55746,117429,5
55761,117430,5
55754,117424,5
55753,117429,4
55747,117431,5
55754,117427,5
55755,117424,5
55749,117427,4
55749,117432,4
55746,117435,5
55748,117436,5
55753,117436,5
55757,117442,5
55751,117443,4
55749,117439,5
55752,117437,5
55752,117437,6
55757,117440,3
55757,117448,5
55750,117440,5
55753,117426,5
55753,117437,5
55749,117427,4
55746,117428,5
55746,117426,5
55755,117419,5
55744,117419,5
55733,117408,4
55740,117411,5
55736,117415,5
55742,117415,5
55736,117410,5
55736,117396,4
55735,117398,5
55742,117395,5
55729,117391,5
55729,117390,5
55727,117393,5
55730,117380,4
55726,117376,5
55728,117370,5
55728,117378,4
55710,117375,4
55711,117370,5
55718,117367,5
55718,117365,5
55722,117365,4
55714,117360,5
55711,117343,5
55701,117352,5
55705,117352,5
55705,117346,4
55704,117332,5
55695,117336,5
55708,117333,5
55702,117324,5
55694,117335,4
55694,117330,5
55698,117332,5
55699,117323,5
55689,117326,5
55704,117327,4
55695,117327,6
55700,117324,4
55688,117322,5
55695,117325,5
55702,117331,4
55689,117315,5
55694,117325,5
55692,117320,5
55687,117317,5
55685,117321,4
55688,117316,5
55694,117322,5
55692,117317,5
55681,117314,4
55696,117326,5
55688,117315,5
55701,117308,5
55681,117325,5
55698,117329,4
55691,117331,5
55697,117327,5
55700,117333,5
55695,117319,5
55698,117319,4
55689,117315,5
55710,117305,6
55688,117309,4
55688,117319,5
55687,117310,4
55707,117301,5
55677,117302,5
55679,117292,5
55678,117295,5
55686,117297,4
55684,117299,5
55691,117296,5
55684,117313,5
55687,117296,5
55687,117316,4
55683,117313,5
55682,117317,5
55692,117300,5
55676,117298,4
55674,117285,4
55677,117267,5
55666,117231,5
55650,117225,5
55650,117227,4
55646,117198,5
55638,117187,5
55630,117183,5
55619,117167,5
55620,117170,4
55619,117182,5
55622,117170,5
55620,117177,5
55615,117172,5
55620,117200,4
55618,117181,5
55623,117168,5
55622,117176,5
55622,117193,5
55630,117180,4
55622,117193,5
55627,117181,5
55629,117185,5
55625,117180,5
55633,117174,4
55624,117184,5
55618,117167,5
55613,117151,5
55604,117156,5
55613,117148,4
55615,117142,5
55607,117132,5
55595,117131,5
55599,117129,4
55598,117122,4
55601,117132,5
55591,117137,5
55594,117144,5
55606,117136,4
55604,117149,5
55607,117154,5
55605,117145,5
55600,117138,5
55601,117134,4
55600,117132,5
55604,117139,5
55600,117133,6
55598,117134,4
55599,117129,4
55607,117128,5
55594,117126,5
55599,117133,5
55598,117121,5
55593,117123,5
55601,117128,4
55596,117129,5
55583,117113,5
55585,117108,5
55588,117119,4
55580,117116,5
55589,117117,5
55586,117111,5
55588,117104,4
55585,117108,4
55591,117119,5
55588,117117,5
55592,117107,5
55579,117113,4
55588,117114,5
55585,117103,5
55579,117104,5
55578,117099,5
55580,117097,4
55575,117094,5
55570,117103,5
55573,117089,5
55584,117089,5
55573,117091,4
55579,117089,6
55574,117084,4
55573,117078,5
55574,117083,5
55571,117072,4
55561,117073,5
55566,117064,5
55570,117064,5
55564,117067,5
55562,117066,4
55563,117052,5
55560,117052,5
55556,117049,5
55547,117036,5
55555,117029,4
55550,117021,5
55545,117014,5
55537,117014,5
55541,117005,4
55537,117012,4
55538,117012,5
55533,117007,6
55540,117006,4
55530,117019,4
55534,117015,5
55527,117023,5
55534,117013,5
55538,117017,5
55543,117022,4
55534,117030,5
55544,117032,5
55548,117035,5
55551,117037,5
55533,117042,4
55545,117040,5
55551,117031,5
55549,117031,5
55543,117027,5
55537,117027,4
55541,117019,5
55536,117015,5
55554,117014,5
55538,117004,5
55538,117011,4
55536,117010,5
55559,117016,5
55540,117011,6
55539,117015,4
55534,117020,4
55552,117026,5
55545,117032,5
55551,117034,5
55551,117052,4
55557,117059,5
55551,117056,5
55547,117039,5
55536,117036,5
55537,117004,4
55529,116992,5
55514,116972,5
55508,116962,5
55508,116931,5
55499,116947,4
55491,116939,5
55489,116932,5
55490,116924,5
55489,116938,5
55502,116946,5
55500,116941,4
55500,116961,5
55507,116953,5
55516,116968,6
55516,116967,3
55508,116982,5
55508,116956,5
55513,116948,5
55507,116976,5
55515,116992,4
55502,116970,5
55512,116978,5
55506,116973,5
55514,116981,4
55511,116977,4
55513,116979,5
55518,116977,5
55512,116987,5
55516,116980,4
55525,116987,5
55525,116985,5
55524,116985,5
55520,116980,5
55528,117001,4
55532,117002,6
55531,117003,4
55520,117004,5
55535,117006,5
55537,117016,6
55530,117010,3
55530,117008,5
55532,117007,5
55537,116997,5
55533,117011,4
55538,117014,5
55541,117024,5
55544,117041,5
55549,117036,5
55547,117045,4
55547,117056,5
55557,117058,5
55551,117052,5
55557,117057,5
55566,117063,4
55556,117057,5
55553,117068,5
55556,117069,5
55557,117068,4
55551,117065,4
55565,117067,6
55563,117066,4
55566,117075,5
55560,117077,4
55563,117083,5
55567,117080,5
55570,117092,5
55568,117092,5
55562,117083,4
55564,117089,5
55571,117080,5
55564,117081,5
55559,117069,5
55563,117068,4
55551,117059,5
55552,117058,5
55553,117062,5
55565,117077,5
55558,117080,4
55554,117075,5
55561,117067,5
55560,117090,5
55566,117095,5
55573,117092,4
55572,117100,5
55566,117096,6
55567,117086,4
55569,117089,5
55570,117081,4
55566,117086,5
55555,117087,5
55561,117078,5
55562,117073,4
55556,117070,5
55555,117063,5
55563,117079,5
55559,117072,5
55559,117077,4
55556,117084,5
55564,117086,5
55561,117083,5
55564,117097,5
55569,117094,4
55572,117092,5
55576,117101,5
55570,117102,5
55573,117105,5
55572,117101,4
55576,117111,5
55574,117111,5
55568,117098,6
55574,117107,4
55579,117099,4
55567,117109,5
55578,117097,5
55576,117104,5
55577,117108,5
55550,117111,4
55576,117107,5
55574,117094,5
55572,117095,5
55565,117092,4
55575,117085,4
55576,117079,5
55564,117080,5
55575,117086,5
55561,117069,4
55548,117047,5
55521,117006,5
55532,116963,5
55492,116933,5
55468,116881,5
55444,116832,4
55435,116794,5
55405,116766,5
55388,116727,6
55365,116686,3
55355,116637,5
55342,116622,5
55316,116595,5
55302,116566,5
55291,116526,4
55271,116499,5
55245,116475,5
55231,116446,5
55224,116412,5
55212,116411,4
55222,116419,5
55220,116437,5
55230,116420,5
55232,116440,5
55236,116452,4
55243,116462,5
55227,116467,5
55237,116453,5
55234,116444,4
55237,116453,5
55243,116486,4
55247,116480,5
55247,116486,5
55259,116498,4
55259,116528,5
55277,116531,5
55280,116538,5
55288,116554,5
55299,116572,4
55290,116572,5
55299,116601,5
55319,116605,5
55320,116626,5
55322,116628,4
55326,116634,5
55332,116632,5
55338,116647,5
55341,116646,5
55340,116666,4
55353,116680,5
55361,116694,5
55375,116710,5
55373,116718,5
55377,116716,4
55377,116716,6
55377,116718,4
55373,116711,5
55378,116694,4
55368,116709,4
55374,116699,5
55371,116717,5
55371,116718,5
55373,116706,4
55383,116712,5
55385,116729,5
55390,116729,5
55394,116744,5
55395,116744,4
55387,116739,5
55392,116737,5
55395,116730,5
55380,116730,5
55388,116735,4
55398,116740,5
55389,116726,5
55387,116726,5
55387,116715,5
55391,116721,4
55382,116713,5
55379,116718,6
55377,116728,4
55381,116722,5
55391,116731,4
55391,116728,5
55380,116727,5
55388,116732,5
55395,116737,5
55386,116738,4
55396,116729,5
55393,116729,5
55389,116735,5
55393,116734,4
55392,116738,4
55398,116738,5
55389,116740,5
55387,116736,5
55407,116743,4
55396,116750,5
55411,116757,5
55416,116780,5
55429,116813,5
55436,116824,4
55439,116826,5
55450,116834,5
55449,116828,6
55441,116838,4
55443,116821,4
55429,116807,5
55426,116792,5
55424,116788,5
55413,116783,5
55426,116795,4
55411,116777,5
55424,116781,5
55416,116796,5
55426,116807,5
55431,116802,4
55441,116817,5
55438,116826,5
55446,116831,5
55441,116841,5
55446,116846,4
55456,116841,5
55447,116853,5
55458,116855,5
55454,116852,5
55456,116851,4
55439,116863,5
55458,116872,5
55467,116876,5
55466,116866,4
55451,116862,5
55459,116862,5
55458,116862,5
55458,116868,5
55468,116870,4
55465,116873,5
55464,116883,5
55471,116893,5
55502,116898,5
55480,116912,4
55487,116913,5
55488,116910,5
55522,116929,5
55494,116935,5
55497,116936,4
55497,116939,5
55500,116933,5
55494,116922,5
55488,116918,5
55502,116923,5
55491,116926,4
55498,116930,5
55499,116950,5
55508,116950,5
55514,116957,4
55520,116990,5
55524,117002,5
55534,117017,5
55533,117012,4
55547,117040,5
55555,117042,5
55553,117038,5
55548,117047,5
55551,117055,4
55552,117057,5
55554,117061,5
55564,117080,5
55568,117081,5
55565,117080,4
55571,117092,5
55585,117123,5
55579,117106,5
55584,117105,5
55590,117120,4
55595,117131,6
55594,117126,4
55596,117129,5
55602,117135,5
55598,117147,4
55609,117167,5
55609,117162,5
55610,117175,5
55612,117179,5
55630,117194,4
55627,117212,5
55642,117214,5
55647,117234,5
55652,117237,4
55652,117245,4
55654,117254,5
55669,117257,5
55662,117260,5
55662,117258,4
55665,117272,5
55684,117285,5
55673,117294,5
55689,117302,5
55682,117307,4
55694,117298,5
55682,117290,6
55683,117287,6
55677,117298,3
55672,117284,4
55672,117281,5
55675,117276,5
55680,117277,5
55668,117277,5
55673,117277,4
55678,117285,5
55680,117295,5
55685,117297,5
55686,117316,5
55693,117328,4
55692,117326,5
55706,117327,5
55707,117334,5
55706,117347,5
55715,117341,4
55714,117339,5
55717,117361,5
55717,117356,5
55721,117371,4
55717,117378,5
55716,117371,5
55712,117378,5
55725,117366,5
55723,117377,4
55719,117382,5
55728,117381,5
55723,117381,5
55719,117386,5
55736,117388,4
55732,117386,5
55732,117392,5
55732,117399,5
55736,117391,5
55739,117400,4
55745,117405,5
55742,117401,5
55732,117406,5
55736,117406,5
55743,117413,5
55740,117412,4
55747,117404,5
55741,117414,5
55757,117439,6
55757,117441,3
55766,117451,5
55765,117473,5
55775,117476,5
55787,117499,4
55786,117491,4
55786,117496,5
55793,117504,5
55790,117507,5
55796,117515,4
55796,117503,5
55798,117522,5
55800,117527,5
55797,117527,5
55798,117531,4
55805,117538,5
55813,117539,5
55791,117548,5
55804,117546,5
55800,117551,4
55820,117557,6
55794,117561,4
55815,117572,5
55813,117569,5
55825,117574,6
55822,117572,3
55823,117573,5
55827,117570,5
55821,117575,5
55834,117566,4
55825,117564,5
55831,117566,5
55829,117576,5
55839,117567,5
55822,117583,4
55823,117580,5
55828,117580,5
55843,117589,5
55833,117586,4
55840,117602,4
55853,117612,5
55840,117621,5
55849,117627,5
55855,117634,4
55859,117624,5
55857,117620,6
55846,117623,4
55851,117620,5
55836,117609,4
55838,117581,5
55838,117602,5
55830,117585,5
55827,117571,5
55819,117554,4
55817,117572,5
55834,117575,5
55827,117593,5
55840,117621,5
55834,117616,4
55855,117633,5
55857,117642,5
55862,117656,5
55854,117639,5
55865,117656,4
55863,117649,5
55864,117678,5
55872,117677,5
55870,117667,5
55869,117671,4
55883,117687,5
55877,117684,6
55880,117688,4
55881,117681,4
55871,117684,5
55881,117690,5
55891,117690,5
55885,117694,5
55878,117690,4
55887,117694,5
55878,117686,5
55888,117697,5
55893,117724,5
55904,117720,4
55904,117732,5
55904,117734,5
55904,117736,5
55908,117735,5
55914,117738,4
55907,117742,5
55905,117743,5
55923,117756,5
55917,117770,5
55927,117773,4
55941,117783,5
55940,117791,5
55933,117808,6
55947,117806,4
55944,117813,4
55949,117805,5
55943,117811,5
55951,117810,5
55952,117812,4
55938,117808,4
55955,117811,5
55939,117791,5
55946,117791,5
55942,117795,4
55930,117789,5
55931,117783,5
55935,117770,5
55929,117764,5
55928,117767,4
55909,117754,5
55919,117757,5
55911,117759,5
55923,117769,5
55925,117756,5
55923,117761,4
55924,117759,5
55922,117773,5
55924,117774,6
55927,117780,3
55937,117773,5
55923,117775,5
55929,117787,5
55925,117774,5
55927,117791,4
55936,117790,5
55930,117782,5
55935,117784,5
55936,117784,5
55935,117795,4
55931,117797,5
55943,117810,5
55952,117821,5
55944,117821,4
55950,117824,4
55953,117836,5
55956,117834,5
55954,117838,5
55956,117834,4
55950,117823,6
55954,117817,4
55942,117815,5
55943,117791,5
55921,117775,4
55916,117748,5
55911,117751,5
55909,117736,5
55903,117739,5
55915,117742,4
55919,117755,5
55922,117759,5
55928,117762,5
55909,117763,5
55919,117780,4
55927,117762,5
55918,117755,5
55905,117760,5
55917,117747,5
55915,117760,4
55917,117756,5
55908,117758,5
55920,117753,5
55917,117737,5
55922,117729,4
55919,117725,6
55906,117727,4
55906,117724,5
55901,117720,4
55920,117716,4
55906,117711,5
55898,117717,5
55896,117705,5
55909,117704,4
55897,117706,5
55901,117713,5
55896,117708,5
55905,117722,5
55893,117704,4
55895,117699,5
55895,117690,5
55881,117666,5
55868,117666,5
55872,117650,4
55878,117649,5
55860,117638,5
55862,117645,5
55862,117647,5
55860,117644,4
55859,117621,5
55860,117630,6
55852,117622,4
55853,117613,5
55855,117615,4
55847,117618,5
55842,117614,5
55847,117615,5
55842,117622,5
55837,117611,4
55844,117600,5
55845,117603,5
55837,117627,5
55844,117600,4
55837,117606,5
55840,117593,5
55840,117617,5
55837,117596,5
55839,117600,4
55828,117590,5
55829,117594,5
55833,117585,5
55837,117585,5
55830,117578,4
55830,117575,5
55811,117564,5
55816,117559,6
55813,117549,4
55814,117544,4
55810,117546,5
55812,117530,5
55799,117523,5
55795,117518,5
55790,117498,4
55788,117489,5
55780,117481,5
55782,117463,5
55773,117473,5
55772,117459,4
55773,117457,5
55774,117451,5
55768,117451,5
55761,117455,5
55758,117450,4
55764,117436,5
55765,117444,5
55751,117432,5
55757,117424,5
55753,117427,4
55758,117427,5
55754,117423,5
55745,117420,5
55747,117414,4
55748,117412,5
55737,117407,5
55742,117412,5
55743,117417,5
55740,117408,4
55742,117394,5
55736,117398,5
55731,117384,5
55731,117379,5
55732,117377,4
55725,117374,5
55720,117376,5
55725,117371,5
55718,117369,5
55719,117358,4
55711,117365,5
55717,117351,5
55716,117348,5
55711,117348,5
55717,117347,5
55710,117348,4
55712,117356,5
55712,117356,5
55713,117354,4
55715,117347,4
55704,117350,5
55718,117350,5
55716,117347,5
55714,117349,4
55704,117349,5
55707,117342,5
55710,117341,5
55711,117339,5
55697,117344,4
55709,117344,5
55706,117336,5
55701,117337,5
55710,117334,5
55701,117333,4
55701,117336,5
55699,117335,5
55695,117333,5
55702,117320,5
55703,117329,4
55693,117316,6
55697,117319,4
55700,117309,5
55697,117315,5
55689,117328,4
55690,117304,5
55693,117297,5
55680,117287,5
55664,117289,5
55684,117286,4
55679,117287,5
55684,117288,5
55669,117302,5
55682,117302,4
55694,117323,4
55698,117313,5
55684,117320,5
55692,117299,5
55687,117288,4
55669,117253,5
55663,117237,5
55642,117211,5
55625,117185,5
55622,117162,4
55628,117152,5
55613,117134,6
55605,117134,4
55616,117142,5
55624,117141,4
55610,117140,5
55611,117161,5
55613,117160,5
55620,117154,5
55617,117156,4
55619,117166,5
55617,117161,5
55617,117163,5
55612,117163,5
55616,117161,4
55627,117168,5
55620,117155,5
55618,117171,5
55621,117159,5
55610,117162,4
55608,117143,5
55614,117152,5
55610,117150,5
55608,117148,4
55614,117135,5
55614,117141,5
55605,117142,5
55610,117150,5
55607,117154,4
55605,117140,5
55603,117135,5
55604,117133,5
55594,117151,5
55607,117125,4
55597,117136,5
55605,117141,5
55597,117145,5
55600,117133,5
55602,117125,4
55594,117125,5
55597,117125,5
55597,117129,5
55597,117120,5
55597,117124,4
55591,117131,5
55591,117124,5
55599,117113,5
55590,117113,5
55595,117112,4
55602,117106,5
55595,117106,5
55592,117115,5
55591,117117,4
55600,117114,4
55591,117122,5
55586,117109,5
55596,117117,5
55586,117101,4
55585,117108,5
55588,117111,5
55590,117105,9
55581,117098,1
55578,117123,4
55582,117085,5
55589,117092,5
55570,117086,5
55578,117078,5
55578,117078,4
55581,117066,5
55566,117073,5
55572,117059,5
55569,117059,5
55569,117068,6
55566,117058,3
55566,117063,5
55573,117061,5
55564,117064,5
55576,117065,4
55566,117057,5
55560,117064,5
55564,117061,5
55566,117063,5
55567,117059,4
55571,117062,5
55567,117063,5
55563,117056,5
55561,117059,4
55559,117058,4
55571,117061,5
55562,117063,5
55559,117060,5
55554,117049,4
55551,117053,5
55553,117061,6
55555,117067,4
55552,117054,5
55556,117046,4
55557,117051,7
55557,117035,3
55551,117045,5
55552,117038,5
55546,117048,4
55558,117047,5
55554,117023,5
55558,117040,5
55554,117038,5
55551,117031,4
55552,117026,5
55549,117030,5
55551,117031,5
55551,117027,5
55551,117026,4
55541,117028,5
55545,117020,5
55536,117020,5
55538,117015,5
55544,117002,4
55541,117007,5
55533,117001,6
55533,117000,4
55535,116994,4
55527,116997,4
55533,116998,5
55540,117005,5
55542,117019,5
55523,117016,4
55540,117013,5
55529,117003,5
55524,116997,5
55504,116975,5
55515,116959,4
55500,116927,5
55484,116907,5
55472,116907,5
55473,116890,5
55472,116881,4
55476,116869,5
55477,116867,5
55464,116873,5
55473,116882,5
55477,116892,4
55504,116908,5
55494,116909,5
55493,116916,6
55483,116907,4
55508,116920,4
55483,116903,5
55493,116917,5
55489,116910,5
55492,116912,5
55492,116908,4
55493,116901,5
55490,116907,5
55489,116902,5
55490,116909,4
55478,116911,4
55481,116907,5
55483,116887,5
55477,116895,5
55483,116894,4
55469,116886,5
55482,116864,5
55475,116890,5
55476,116889,5
55477,116887,5
55476,116901,4
55480,116901,5
55493,116909,5
55488,116913,6
55490,116929,3
55493,116913,5
55481,116921,5
55490,116915,5
55487,116937,5
55494,116919,4
55483,116917,5
55493,116919,5
55496,116939,5
55491,116914,5
55498,116923,4
55486,116933,5
55497,116939,5
55495,116947,5
55497,116946,5
55507,116951,4
55508,116961,5
55510,116971,5
55509,116960,5
55517,116968,4
55515,116975,6
55510,116974,4
55519,116985,5
55526,116980,5
55522,116998,6
55525,117000,3
55529,116997,5
55527,117013,5
55540,117007,5
55524,117014,4
55532,117009,5
55543,117013,5
55532,117014,5
55542,117023,5
55537,117022,4
55539,117018,5
55539,117019,5
55536,117019,5
55527,117019,5
55529,117020,4
55531,117010,5
55537,117015,5
55535,117015,5
55533,117016,5
55543,117017,4
55535,117017,6
55542,117024,4
55546,117026,5
55544,117032,4
55543,117029,4
55548,117035,5
55549,117036,5
55547,117028,5
55537,117038,4
55546,117028,5
55545,117044,5
55540,117034,5
55551,117040,5
55548,117044,4
55552,117045,5
55553,117048,5
55551,117048,5
55551,117045,5
55548,117050,4
55552,117055,5
55557,117062,5
55555,117063,5
55557,117065,5
55558,117069,4
55558,117074,5
55551,117056,6
55557,117046,4
55554,117030,5
55535,117021,4
55532,117006,5
55528,116988,5
55517,116988,5
55512,116967,5
55512,116958,4
55508,116959,5
55501,116953,5
55504,116960,5
55506,116977,4
55510,116985,4
55525,116998,5
55525,117006,5
55530,117012,5
55534,117017,4
55547,117021,5
55537,117032,5
55542,117032,5
55540,117035,5
55537,117027,4
55542,117032,5
55545,117042,5
55546,117044,6
55536,117034,4
55529,117038,4
55544,117037,5
55545,117039,5
55535,117030,5
55529,117034,5
55545,117028,4
55541,117032,5
55538,117042,5
55548,117040,5
55545,117039,5
55546,117050,4
55551,117052,5
55562,117044,5
55554,117048,5
55543,117039,5
55547,117033,4
55556,117032,5
55538,117020,5
55541,117020,5
55537,117022,5
55544,117035,4
55543,117029,5
55535,117021,5
55545,117036,6
55544,117035,3
55546,117029,5
55547,117027,5
55535,117036,5
55546,117026,5
55553,117035,4
55538,117020,5
55539,117027,5
55543,117007,5
55537,117033,5
55532,117028,4
55544,117037,5
55545,117014,5
55550,117040,5
55552,117048,5
55559,117049,4
55547,117049,5
55542,117050,5
55552,117048,5
55555,117048,5
55553,117072,5
55552,117047,4
55547,117050,5
55548,117048,5
55553,117070,4
55547,117041,4
55548,117047,5
55552,117036,5
55546,117045,5
55549,117041,4
55544,117036,5
55543,117043,5
55541,117038,5
55543,117034,5
55547,117030,4
55544,117038,5
55542,117040,5
55542,117032,5
55546,117039,5
55552,117042,4
55541,117035,5
55541,117033,5
55546,117042,5
55556,117045,5
55549,117053,4
55563,117062,6
55552,117067,4
55562,117069,5
55562,117059,5
55551,117060,4
55560,117061,5
55555,117041,5
55540,117041,5
55547,117041,5
55544,117038,4
55546,117031,5
55542,117036,5
55542,117043,5
55539,117020,4
55545,117024,4
55530,117011,5
55528,117014,5
55523,117009,5
55536,117000,4
55526,116999,5
55521,117001,5
55525,116996,5
55530,116990,5
55526,116999,4
55529,116995,5
55517,116987,6
55519,116983,4
55514,116985,5
55508,116974,4
55520,116981,5
55518,116984,5
55521,116999,5
55520,116993,5
55524,117004,4
55533,117006,5
55526,116999,5
55529,116990,5
55516,116990,5
55526,116988,4
55511,116974,5
55506,116955,5
55505,116955,5
55491,116953,5
55497,116945,4
55496,116931,5
55491,116935,5
55498,116939,5
55498,116938,4
55492,116948,5
55504,116951,5
55509,116959,6
55505,116959,4
55509,116969,4
55509,116977,5
55520,116971,5
55517,116982,5
55514,116967,5
55517,116978,4
55520,116965,5
55510,116970,5
55510,116970,5
55511,116968,5
55509,116975,4
55512,116970,5
55509,116983,5
55511,116978,5
55513,116978,5
55514,116978,4
55511,116983,5
55516,116976,5
55520,116978,5
55521,116983,5
55506,116997,4
55523,116984,5
55524,116999,5
55523,116987,5
55502,116995,4
55526,116995,4
55523,117000,5
55522,116986,5
55520,116991,5
55524,116994,4
55530,116993,5
55513,116995,5
55532,116996,5
55525,117002,5
55528,117006,4
55522,116994,5
55541,117003,5
55535,117013,5
55529,117013,5
55531,117008,4
55533,117012,5
55530,117024,5
55534,117023,5
55543,117027,5
55546,117040,5
55549,117051,4
55553,117061,5
55558,117062,5
55557,117056,5
55563,117072,4
55566,117073,5
55563,117081,5
55570,117066,5
55572,117087,5
55571,117100,4
55574,117115,5
55584,117096,5
55584,117117,5
55592,117132,4
55587,117130,4
55589,117138,5
55591,117126,5
55591,117144,5
55592,117135,4
55599,117152,5
55596,117131,5
55596,117139,5
55601,117135,5
55598,117161,4
55590,117143,6
55598,117156,4
55606,117160,5
55605,117171,5
55607,117177,4
55617,117179,5
55620,117183,5
55625,117195,5
55622,117204,5
55634,117204,4
55639,117204,5
55640,117216,5
55647,117247,5
55657,117254,5
55660,117263,4
55660,117267,5
55660,117267,5
55663,117256,5
55659,117258,5
55656,117257,4
55653,117257,5
55639,117238,5
55640,117234,5
55641,117238,3
55636,117224,4
55643,117237,5
55655,117254,5
55654,117261,5
55666,117282,4
55675,117300,5
55677,117316,5
55688,117322,5
55684,117315,5
55697,117333,4
55692,117329,5
55693,117334,5
55689,117331,5
55689,117333,5
55699,117341,4
55702,117333,5
55700,117354,5
55700,117352,5
55704,117354,5
55711,117366,4
55711,117368,5
55718,117366,5
55718,117377,6
55724,117388,4
55722,117393,4
55730,117408,5
55733,117415,5
55748,117423,5
55741,117437,4
55737,117416,4
55748,117437,5
55743,117438,5
55747,117432,5
55749,117426,4
55752,117424,5
55746,117431,5
55748,117426,5
55747,117433,5
55747,117437,4
55753,117452,5
55758,117452,5
55757,117464,5
55767,117471,5
55769,117481,5
55770,117477,4
55775,117491,5
55779,117481,5
55771,117495,6
55778,117503,3
55778,117508,5
55790,117510,5
55790,117522,5
55788,117526,5
55795,117533,4
55794,117524,5
55792,117544,5
55788,117535,5
55803,117534,5
55790,117534,4
55792,117530,5
55795,117530,5
55791,117543,5
55798,117532,4
55807,117538,4
55790,117545,5
55806,117547,5
55807,117557,5
55811,117546,4
55789,117556,6
55817,117553,4
55810,117559,5
55806,117561,5
55801,117571,6
55810,117563,3
55822,117575,5
55823,117571,5
55826,117573,5
55814,117570,4
55824,117577,5
55820,117588,5
55850,117594,5
55824,117592,5
55838,117607,4
55836,117620,5
55862,117638,5
55857,117649,5
55857,117643,5
55860,117639,4
55863,117643,5
55853,117632,5
55849,117634,5
55842,117618,5
55845,117601,4
55831,117608,6
55837,117594,4
55831,117588,5
55833,117575,4
55835,117612,5
55842,117615,5
55846,117620,5
55850,117623,5
55860,117649,4
55859,117664,5
55863,117665,5
55866,117673,5
55876,117677,5
55881,117686,4
55878,117687,5
55885,117696,5
55886,117698,5
55884,117702,5
55885,117702,4
55894,117740,5
55890,117706,5
55892,117716,5
55890,117716,5
55892,117715,4
55883,117707,5
55893,117702,6
55892,117694,4
55882,117708,5
55891,117690,4
55883,117706,5
55891,117713,5
55898,117714,5
55886,117712,4
55896,117718,4
55891,117720,5
55901,117721,5
55895,117716,5
55896,117709,4
55892,117714,5
55896,117720,5
55902,117719,5
55890,117725,5
55904,117731,4
55900,117737,5
55908,117739,5
55913,117734,5
55909,117748,5
55917,117752,4
55916,117753,5
55911,117761,5
55907,117752,6
55913,117751,4
55914,117758,4
55920,117760,5
55912,117766,5
55916,117769,5
55923,117783,5
55927,117793,4
55934,117800,5
55927,117790,5
55935,117790,5
55933,117798,5
55938,117795,4
55934,117796,5
55941,117797,5
55943,117798,5
55940,117806,4
55944,117803,4
55942,117811,5
55939,117810,5
55946,117817,5
55949,117822,5
55944,117822,4
55956,117834,5
55958,117838,5
55945,117833,6
55953,117830,3
55958,117844,5
55965,117857,5
55968,117854,5
55959,117862,5
55965,117863,4
55965,117855,5
55975,117856,5
55969,117869,5
55965,117869,5
55965,117867,4
55956,117854,5
55974,117858,5
55958,117856,5
55975,117863,5
55976,117859,4
55974,117855,5
55966,117854,5
55970,117870,5
55963,117865,5
55972,117867,5
55966,117874,4
55984,117880,5
55979,117874,5
55975,117867,4
55967,117870,4
55972,117863,5
55972,117861,5
55973,117856,5
55967,117845,4
55950,117817,5
55946,117813,5
55928,117783,5
55925,117766,5
55924,117773,4
55913,117772,5
55921,117773,5
55930,117798,5
55936,117807,5
55933,117796,4
55925,117790,5
55936,117789,5
55937,117792,5
55938,117792,5
55928,117789,4
55927,117789,6
55931,117793,4
55939,117781,5
55944,117774,5
55929,117781,4
55927,117773,5
55925,117776,5
55944,117772,5
55918,117753,5
55915,117751,4
55906,117746,5
55923,117738,5
55905,117736,5
55904,117726,4
55895,117726,4
55900,117721,5
55902,117706,5
55891,117716,5
55882,117711,4
55896,117706,5
55892,117704,5
55895,117705,5
55888,117693,5
55879,117664,4
55871,117655,5
55867,117652,6
55866,117654,4
55861,117631,5
55855,117647,4
55853,117649,5
55847,117632,5
55856,117638,5
55854,117626,5
55839,117607,4
55845,117600,5
55834,117607,5
55825,117603,5
55836,117593,5
55833,117593,4
55831,117607,5
55823,117575,5
55833,117574,5
55820,117580,5
55832,117584,4
55818,117572,5
55820,117561,5
55819,117558,5
55819,117567,4
55816,117553,5
55811,117550,5
55805,117543,6
55801,117530,4
55802,117536,4
55804,117531,5
55795,117524,5
55790,117516,5
55795,117522,5
55795,117521,4
55788,117503,5
55789,117508,5
55788,117514,5
55790,117506,5
55794,117505,4
55788,117501,5
55792,117503,5
55781,117507,5
55784,117501,5
55784,117504,4
55793,117496,5
55787,117500,5
55785,117498,5
55787,117485,5
55784,117493,4
55780,117489,5
55777,117476,5
55776,117466,5
55770,117458,4
55765,117460,4
55757,117445,5
55751,117445,5
55759,117438,5
55758,117449,4
55757,117447,5
55761,117438,5
55752,117446,5
55761,117438,5
55760,117450,4
55753,117444,5
55757,117453,5
55753,117433,5
55750,117434,5
55755,117426,4
55737,117414,5
55746,117413,5
55736,117410,5
55742,117400,5
55734,117390,5
55739,117393,4
55738,117401,5
55729,117382,5
55724,117389,5
55737,117392,4
55730,117399,5
55733,117396,5
55729,117404,5
55737,117405,5
55743,117410,4
55742,117406,5
55748,117420,5
55739,117418,5
55738,117408,4
55733,117392,4
55729,117383,5
55718,117370,5
55712,117336,5
55702,117317,4
55684,117309,5
55677,117290,5
55676,117260,5
55664,117264,5
55659,117254,4
55668,117264,6
55664,117273,4
55671,117290,5
55676,117292,5
55684,117291,4
55678,117283,5
55672,117271,5
55669,117280,5
55675,117270,5
55674,117274,4
55659,117278,5
55657,117272,5
55674,117266,5
55665,117252,5
55656,117255,4
55639,117250,5
55661,117245,5
55650,117233,5
55647,117219,5
55641,117228,4
55651,117228,5
55639,117227,5
55644,117226,5
55659,117223,4
55649,117222,4
55641,117216,6
55639,117229,4
55672,117235,5
55646,117228,4
55645,117230,5
55653,117223,5
55661,117211,5
55634,117207,5
55631,117195,4
55635,117200,5
55637,117190,5
55622,117195,5
55628,117192,5
55637,117197,4
55636,117196,5
55636,117195,5
55628,117182,5
55630,117189,5
55632,117174,4
55623,117181,5
55620,117194,5
55623,117189,5
55630,117164,5
55627,117183,4
55625,117182,5
55630,117185,5
55625,117193,5
55619,117181,5
55621,117178,4
55613,117174,5
55618,117187,5
55624,117174,5
55624,117162,4
55618,117174,4
55610,117187,5
55614,117156,5
55610,117149,5
55605,117144,4
55603,117149,5
55597,117123,5
55595,117122,5
55585,117117,5
55582,117123,4
55590,117107,4
55585,117097,5
55577,117091,5
55570,117089,6
55562,117065,3
55563,117056,5
55556,117049,5
55548,117034,5
55551,117032,5
55539,117023,4
55538,117017,5
55540,117022,5
55534,117018,8
55538,117001,2
55525,116991,4
55527,116994,5
55532,116995,5
55526,116987,5
55529,116983,5
55526,116981,4
55518,116991,5
55525,116979,5
55520,116991,5
55526,116977,4
55516,116970,5
55528,116979,4
55517,116979,5
55520,116973,5
55522,116983,6
55516,116979,3
55523,116978,5
55515,116966,5
55521,116972,5
55522,116973,4
55512,116968,5
55520,116980,5
55516,116976,5
55507,116963,5
55521,116968,4
55513,116972,5
55517,116959,5
55515,116969,5
55518,116967,5
55507,116963,4
55518,116970,5
55521,116965,5
55516,116963,5
55515,116963,5
55506,116966,4
55505,116952,6
55500,116959,4
55504,116949,5
55503,116942,5
55496,116945,6
55503,116946,3
55499,116938,5
55494,116941,5
55501,116934,4
55500,116930,5
55497,116927,5
55502,116916,5
55487,116913,5
55488,116904,4
55490,116909,5
55482,116911,5
55484,116892,5
55475,116892,5
55467,116887,4
55464,116886,5
55478,116889,5
55470,116892,5
55477,116900,5
55480,116897,4
55478,116896,5
55480,116903,6
55480,116905,4
55469,116880,5
55473,116870,4
55450,116849,5
55446,116834,5
55430,116803,5
55421,116769,5
55419,116759,4
55402,116738,5
55381,116728,5
55390,116711,5
55389,116708,5
55380,116718,4
55369,116728,5
55391,116735,5
55404,116740,5
55402,116747,4
55404,116757,5
55410,116752,5
55410,116760,5
55405,116758,5
55420,116757,4
55409,116763,5
55403,116760,5
55403,116760,6
55424,116750,4
55399,116740,4
55390,116740,5
55402,116738,5
55397,116731,5
55385,116719,5
55386,116721,4
55391,116725,5
55402,116729,5
55399,116735,5
55390,116723,5
55398,116729,4
55399,116722,5
55405,116738,5
55407,116745,5
55405,116758,5
55404,116734,4
55405,116750,5
55408,116746,5
55404,116763,5
55406,116737,5
55395,116739,4
55396,116740,5
55394,116737,5
55401,116749,6
55408,116749,3
55405,116759,5
55411,116762,5
55412,116779,5
55414,116764,5
55408,116766,4
55410,116778,5
55415,116792,5
55416,116777,5
55414,116783,5
55419,116781,4
55420,116799,5
55422,116794,5
55423,116782,5
55427,116781,5
55423,116786,4
55420,116778,5
55415,116789,5
55421,116777,5
55422,116773,5
55428,116788,5
55427,116789,4
55424,116778,5
55421,116786,5
55420,116791,6
55423,116787,3
55418,116798,5
55423,116793,5
55421,116776,5
55421,116794,5
55411,116786,4
55415,116779,5
55414,116779,5
55414,116771,5
55403,116771,4
55413,116774,5
55416,116769,5
55406,116775,5
55411,116780,5
55410,116780,4
55409,116781,5
55412,116781,5
55415,116779,5
55410,116783,5
55415,116781,4
55421,116776,6
55418,116788,4
55431,116788,5
55420,116802,5
55428,116796,4
55422,116808,5
55425,116818,5
55435,116827,5
55436,116836,5
55450,116845,4
55452,116851,5
55443,116857,5
55456,116849,5
55452,116871,5
55467,116867,4
55453,116869,5
55458,116879,5
55463,116881,5
55471,116884,5
55475,116895,4
55473,116900,5
55476,116897,5
55478,116907,5
55479,116902,4
55478,116902,5
55473,116903,6
55477,116908,4
55479,116905,5
55477,116902,4
55482,116918,5
55481,116912,5
55482,116913,5
55488,116924,5
55490,116939,4
55505,116936,5
55499,116948,5
55494,116932,5
55482,116931,5
55485,116915,4
55478,116905,5
55471,116884,5
55449,116860,5
55449,116860,5
55452,116853,4
55448,116825,5
55438,116819,5
55440,116819,5
55437,116822,5
55431,116825,4
55446,116835,5
55455,116842,6
55453,116858,4
55455,116858,5
55450,116856,4
55451,116870,5
55451,116871,5
55460,116872,5
55464,116870,4
55459,116871,5
55438,116877,5
55454,116860,5
55464,116850,5
55457,116857,4
55442,116856,5
55451,116857,5
55449,116853,5
55445,116847,5
55442,116830,4
55439,116836,5
55441,116833,5
55440,116824,5
55451,116823,5
55432,116826,4
55429,116808,5
55421,116810,5
55431,116774,6
55408,116773,4
55411,116761,4
55401,116752,5
55398,116742,5
55390,116728,5
55375,116717,5
55367,116713,4
55375,116697,5
55366,116703,5
55375,116705,5
55372,116703,5
55364,116684,4
55369,116709,5
55393,116712,5
55379,116711,5
55384,116711,4
55374,116731,5
55382,116722,5
55381,116728,5
55379,116722,5
55378,116721,5
55383,116725,4
55369,116701,5
55369,116725,5
55373,116698,5
55363,116685,4
55359,116685,5
55346,116697,5
55361,116672,5
55352,116670,5
55348,116668,4
55339,116670,5
55354,116652,5
55348,116646,5
55341,116646,5
55341,116658,4
55344,116644,5
55346,116642,5
55345,116638,5
55344,116636,5
55338,116625,4
55337,116618,5
55318,116611,5
55323,116608,5
55326,116606,4
55326,116607,5
55321,116601,4
55319,116609,5
55323,116605,5
55319,116616,4
55330,116620,5
55332,116634,5
55335,116634,5
55337,116639,5
55342,116640,4
55340,116656,5
55349,116660,5
55351,116664,5
55350,116675,5
55364,116677,4
55360,116682,5
55367,116694,5
55369,116688,5
55379,116697,5
55378,116706,4
55385,116717,5
55385,116728,5
55390,116737,5
55392,116738,5
55387,116736,4
55380,116723,6
55382,116718,4
55382,116718,5
55375,116711,5
55366,116684,4
55358,116675,5
55352,116667,5
55347,116652,5
55337,116645,4
55335,116631,4
55343,116641,5
55338,116632,5
55340,116641,5
55349,116656,4
55351,116657,5
55364,116673,5
55361,116671,5
55364,116672,5
55368,116688,4
55368,116698,5
55363,116707,5
55371,116703,5
55374,116698,5
55375,116709,4
55381,116713,5
55382,116724,6
55384,116716,4
55380,116717,5
55386,116724,4
55387,116721,5
55384,116717,5
55373,116725,5
55391,116727,5
55392,116730,4
55382,116737,5
55393,116741,5
55393,116747,5
55398,116753,5
55397,116765,4
55398,116757,5
55397,116769,5
55405,116761,5
55402,116770,4
55405,116764,4
55397,116760,5
55405,116761,5
55401,116768,5
55405,116776,4
55410,116787,5
55424,116797,5
55414,116792,5
55410,116813,5
55431,116831,4
55442,116851,5
55452,116852,5
55437,116852,5
55449,116855,5
55452,116863,4
55458,116866,5
55458,116865,5
55466,116882,5
55458,116878,5
55463,116883,4
55482,116900,5
55479,116896,5
55478,116919,5
55483,116912,5
55488,116914,4
55485,116921,5
55480,116919,5
55488,116931,5
55508,116935,5
55485,116944,4
55500,116943,5
55494,116964,5
55511,116970,5
55515,116976,4
55514,116973,4
55513,116982,5
55519,116978,5
55523,116988,5
55524,117004,4
55531,116998,5
55526,116988,5
55534,117019,5
55526,117019,5
55538,117023,4
55538,117014,5
55547,117050,5
55544,117037,5
55550,117046,5
55549,117061,4
55555,117061,6
55560,117075,4
55565,117085,5
55583,117122,5
55581,117113,6
55595,117151,3
55604,117176,5
55612,117202,5
55620,117187,5
55613,117181,4
55614,117174,5
55622,117186,5
55609,117180,5
55614,117168,5
55610,117164,4
55610,117159,5
55599,117152,5
55599,117154,5
55605,117149,4
55608,117168,4
55608,117174,5
55612,117190,5
55627,117200,6
55632,117217,3
55639,117222,5
55651,117244,6
55652,117249,4
55650,117248,5
55661,117261,4
55664,117281,7
55668,117279,3
55669,117299,5
55671,117299,5
55691,117303,4
55685,117315,5
55696,117304,5
55682,117318,5
55690,117304,5
55684,117315,4
55693,117318,5
55687,117308,5
55679,117305,5
55688,117308,5
55683,117307,4
55679,117309,5
55684,117309,5
55689,117315,5
55690,117310,5
55691,117317,4
55685,117323,5
55698,117319,6
55695,117323,4
55690,117324,4
55692,117318,4
55690,117317,5
55680,117316,5
55699,117318,5
55697,117332,4
55706,117333,5
55702,117344,5
55700,117341,5
55704,117340,5
55701,117338,4
55699,117332,5
55702,117346,5
55705,117345,5
55698,117339,5
55702,117342,4
55707,117353,5
55706,117353,5
55709,117349,5
55708,117363,5
55715,117368,4
55725,117385,5
55718,117382,5
55721,117394,6
55722,117404,4
55734,117405,4
55737,117403,5
55736,117405,5
55727,117398,5
55730,117404,5
55725,117386,4
55727,117394,5
55741,117398,5
55736,117402,5
55729,117404,4
55734,117404,4
55734,117404,5
55742,117405,5
55736,117407,5
55742,117415,4
55742,117417,5
55744,117425,5
55748,117435,5
55755,117442,5
55746,117438,5
55750,117447,4
55752,117441,5
55752,117447,5
55749,117454,6
55754,117459,3
55756,117470,5
55768,117478,5
55762,117504,5
55782,117519,5
55798,117530,4
55797,117535,5
55806,117548,5
55804,117542,5
55798,117512,5
55796,117522,4
55808,117515,5
55787,117513,5
55774,117509,5
55772,117485,5
55794,117475,4
55765,117467,5
55773,117462,5
55761,117468,5
55779,117475,4
55771,117471,5
55781,117495,4
55780,117506,5
55786,117506,5
55795,117521,6
55790,117509,3
55791,117507,5
55786,117507,5
55793,117514,5
55792,117525,4
55796,117532,5
55796,117512,5
55793,117523,5
55797,117519,5
55790,117510,4
55786,117492,5
55782,117498,5
55786,117499,5
55786,117504,5
55787,117512,4
55785,117504,5
55786,117502,5
55788,117506,5
55786,117523,5
55781,117510,4
55792,117506,6
55787,117511,4
55800,117527,5
55788,117510,5
55797,117519,4
55792,117525,5
55788,117513,5
55799,117505,5
55783,117504,4
55784,117504,4
55791,117511,5
55797,117512,5
55791,117515,5
55803,117535,4
55803,117551,5
55812,117546,5
55809,117549,5
55817,117553,5
55815,117565,4
55810,117560,5
55820,117572,5
55819,117577,5
55831,117586,5
55833,117595,4
55828,117581,5
55824,117592,6
55835,117595,4
55824,117599,5
55840,117605,4
55843,117602,5
55837,117606,5
55837,117606,5
55839,117614,5
55844,117607,4
55837,117607,5
55834,117612,5
55848,117624,5
55842,117627,5
55854,117636,4
55852,117647,5
55856,117641,5
55852,117657,5
55865,117659,4
55864,117643,4
55861,117637,5
55864,117655,5
55866,117658,5
55860,117647,4
55857,117645,5
55861,117651,5
55863,117654,6
55871,117661,4
55863,117660,4
55865,117655,5
55870,117669,5
55869,117664,5
55867,117658,5
55869,117673,4
55874,117680,5
55873,117673,5
55880,117690,5
55884,117701,5
55885,117714,4
55902,117710,5
55900,117721,5
55899,117732,5
55893,117730,5
55894,117715,4
55891,117713,5
55901,117716,5
55894,117722,5
55886,117692,5
55880,117694,4
55884,117685,5
55877,117680,5
55878,117678,6
55880,117676,3
55872,117685,4
55881,117699,5
55887,117713,5
55901,117727,5
55901,117734,4
55902,117749,5
55914,117755,5
55916,117754,5
55913,117755,5
55913,117757,4
55908,117751,5
55919,117745,5
55918,117757,5
55916,117760,5
55907,117752,4
55913,117753,5
55911,117754,5
55914,117745,5
55883,117740,5
55905,117727,5
55899,117718,4
55902,117715,5
55879,117719,5
55891,117709,5
55891,117712,4
55897,117719,5
55900,117727,5
55908,117723,5
55909,117744,5
55911,117747,4
55917,117737,5
55910,117740,5
55907,117731,5
55912,117737,4
55924,117731,5
55907,117728,5
55905,117750,5
55912,117749,5
55916,117756,4
55914,117758,5
55911,117768,5
55915,117761,5
55923,117773,5
55925,117767,4
55936,117778,6
55925,117786,4
55935,117777,5
55941,117806,5
55937,117816,4
55944,117813,5
55936,117808,5
55948,117824,5
55951,117814,5
55954,117814,4
55947,117805,5
55947,117824,5
55941,117816,5
55945,117827,5
55956,117821,4
55948,117821,5
55945,117824,5
55940,117825,5
55949,117852,5
55962,117840,4
55954,117834,5
55956,117841,5
55956,117858,5
55961,117843,4
55963,117833,5
55947,117830,6
55950,117827,4
55944,117814,5
55940,117821,4
55955,117815,5
55938,117810,5
55941,117822,5
55938,117812,5
55944,117806,4
55948,117803,5
55936,117798,5
55935,117800,5
55932,117795,5
55942,117802,4
55937,117801,5
55938,117792,5
55939,117799,5
55935,117787,5
55934,117789,4
55932,117785,5
55934,117775,5
55925,117777,5
55925,117769,5
55918,117783,4
55918,117762,5
55932,117767,6
55922,117767,4
55925,117765,4
55923,117768,4
55921,117756,5
55914,117752,5
55917,117748,5
55908,117741,4
55903,117730,5
55889,117709,5
55886,117694,5
55883,117693,5
55877,117668,4
55868,117649,5
55839,117610,5
55830,117583,5
55819,117554,5
55809,117528,4
55798,117507,5
55789,117506,5
55784,117505,5
55790,117504,5
55795,117501,4
55781,117502,5
55779,117504,5
55779,117486,5
55779,117480,5
55766,117472,4
55761,117448,5
55752,117434,5
55743,117429,5
55747,117419,5
55745,117422,4
55736,117409,5
55741,117411,5
55735,117394,5
55730,117378,4
55717,117379,4
55726,117371,5
55713,117357,5
55704,117344,5
55703,117336,4
55697,117319,5
55699,117324,5
55697,117318,5
55689,117314,5
55687,117321,5
55693,117318,4
55696,117324,5
55689,117305,5
55680,117302,5
55679,117301,4
55685,117293,5
55681,117298,5
55687,117298,5
55686,117294,5
55677,117300,4
55686,117297,5
55684,117305,5
55683,117308,5
55687,117300,5
55676,117303,4
55681,117300,5
55689,117308,5
55692,117304,5
55667,117307,5
55683,117308,4
55688,117313,5
55689,117313,5
55673,117311,5
55685,117313,4
55681,117301,5
55687,117295,4
55689,117300,5
55683,117289,5
55676,117298,4
55679,117296,5
55688,117277,5
55675,117276,5
55666,117268,5
55668,117258,4
55692,117273,5
55662,117260,5
55661,117268,5
55655,117260,5
55666,117246,4
55656,117249,5
55668,117249,5
55657,117248,5
55661,117234,5
55660,117244,4
55651,117243,5
55653,117240,6
55658,117230,4
55648,117249,5
55651,117247,4
55655,117235,7
55649,117221,3
55649,117241,5
55642,117228,5
55644,117234,4
55650,117228,5
55648,117223,5
55648,117220,5
55640,117231,4
55643,117221,5
55636,117217,5
55635,117209,5
55636,117204,5
55634,117217,4
55625,117190,5
55630,117183,5
55617,117181,5
55614,117183,5
55620,117167,4
55619,117175,5
55627,117178,5
55621,117170,6
55609,117170,4
55616,117183,4
55615,117175,5
55627,117176,5
55618,117167,7
55619,117181,3
55615,117166,4
55621,117173,5
55621,117164,5
55612,117180,5
55614,117177,5
55620,117168,4
55620,117170,5
55616,117173,5
55614,117176,5
55619,117174,4
55615,117178,4
55615,117170,5
55616,117167,5
55606,117155,5
55600,117145,5
55591,117132,4
55582,117111,5
55572,117065,5
55551,117053,6
55549,117027,3
55534,117001,5
55538,117000,5
55525,116988,5
55529,116975,5
55522,116986,4
55523,116988,5
55534,116996,5
55534,117003,5
55529,116994,5
55526,116993,4
55533,116980,5
55516,116977,5
55521,116973,5
55516,116971,5
55512,116969,4
55514,116968,5
55509,116972,5
55510,116968,5
55510,116965,5
55510,116946,5
55497,116940,4
55498,116930,5
55493,116921,5
55484,116922,6
55484,116912,3
55485,116906,5
55492,116909,5
55486,116920,5
55483,116914,4
55493,116924,5
55494,116922,5
55498,116934,5
55497,116927,5
55498,116938,4
55497,116927,5
55493,116918,5
55489,116913,5
55485,116909,5
55478,116898,4
55474,116901,5
55477,116900,5
55474,116888,5
55472,116897,5
55485,116901,4
55478,116887,6
55475,116886,4
55469,116877,5
55475,116884,5
55479,116890,6
55478,116888,3
55478,116902,5
55474,116913,5
55478,116899,5
55481,116900,4
55469,116898,5
55477,116908,5
55477,116904,5
55479,116905,4
55469,116901,4
55482,116901,5
55476,116896,5
55469,116897,5
55462,116898,4
55472,116891,5
55475,116887,5
55475,116879,5
55449,116882,5
55465,116875,4
55456,116867,5
55467,116870,6
55472,116871,4
55458,116855,5
55452,116851,4
55450,116843,5
55471,116848,5
55453,116841,5
55454,116833,5
55442,116832,4
55462,116833,5
55442,116833,5
55443,116832,5
55443,116827,5
55453,116816,4
55434,116825,5
55437,116809,5
55434,116802,5
55427,116804,5
55420,116789,4
55425,116785,5
55420,116787,5
55409,116766,5
55414,116779,4
55410,116782,4
55416,116779,5
55410,116761,6
55421,116769,4
55405,116758,4
55405,116770,5
55403,116752,5
55403,116764,5
55404,116752,5
55401,116750,4
55401,116755,5
55402,116755,5
55391,116746,5
55396,116744,5
55389,116757,4
55394,116741,5
55399,116734,5
55391,116739,5
55394,116744,5
55381,116734,4
55395,116734,5
55391,116735,5
55400,116756,5
55397,116744,5
55397,116750,4
55401,116764,5
55408,116773,5
55405,116780,6
55422,116791,4
55421,116795,4
55419,116797,5
55414,116797,5
55427,116788,5
55423,116785,4
55414,116789,4
55410,116770,5
55406,116757,5
55389,116733,5
55387,116733,4
55383,116723,5
55381,116703,5
55370,116695,5
55371,116691,5
55366,116687,4
55363,116686,5
55371,116689,5
55369,116695,5
55367,116695,5
55371,116700,5
55368,116684,4
55369,116691,5
55369,116685,5
55362,116679,5
55370,116682,4
55363,116664,5
55368,116679,5
55368,116705,5
55369,116685,5
55371,116695,4
55368,116685,5
55365,116682,5
55359,116687,5
55362,116680,5
55366,116684,4
55366,116683,5
55358,116682,5
55365,116684,5
55361,116690,4
55366,116688,4
55365,116693,5
55370,116698,5
55366,116697,5
55369,116698,4
55371,116697,6
55363,116691,4
55366,116688,5
55373,116702,5
55366,116688,4
55368,116688,5
55371,116696,5
55374,116710,5
55379,116706,5
55379,116713,4
55381,116706,5
55380,116725,5
55375,116727,5
55391,116723,5
55384,116735,4
55386,116726,5
55389,116737,5
55393,116736,5
55391,116745,5
55399,116744,4
55399,116754,5
55396,116755,5
55404,116756,5
55409,116770,5
55399,116766,4
55403,116774,6
55411,116765,4
55406,116769,5
55412,116773,4
55406,116777,4
55411,116779,5
55415,116789,5
55411,116791,5
55412,116794,4
55412,116794,5
55428,116806,5
55417,116800,5
55416,116806,5
55401,116795,4
55419,116793,5
55416,116790,5
55410,116778,5
55397,116779,5
55412,116782,4
55408,116780,5
55412,116779,5
55415,116776,5
55409,116778,5
55411,116782,4
55409,116787,5
55438,116777,6
55412,116792,4
55426,116795,5
55430,116815,4
55438,116803,5
55426,116806,5
55429,116807,5
55427,116805,5
55423,116788,4
55420,116796,5
55427,116800,5
55416,116800,5
55415,116796,4
55420,116802,4
55418,116792,5
55418,116791,5
55423,116786,5
55419,116781,4
55416,116792,5
55422,116801,5
55432,116793,5
55433,116823,5
55431,116820,4
55427,116828,5
55432,116809,5
55424,116811,5
55426,116810,5
55417,116781,4
55412,116784,5
55399,116759,5
55397,116753,5
55393,116747,5
55389,116759,4
55392,116735,5
55380,116734,5
55392,116741,5
55392,116753,5
55395,116753,4
55387,116761,5
55400,116756,5
55395,116759,5
55397,116758,5
55403,116762,4
55401,116765,5
55397,116757,5
55398,116757,5
55406,116769,5
55408,116772,4
55406,116772,5
55406,116776,5
55414,116782,5
55410,116768,4
55416,116769,5
55403,116772,5
55407,116771,5
55405,116771,5
55411,116779,4
55404,116781,5
55404,116786,5
55414,116784,5
55411,116793,5
55406,116778,4
55405,116773,5
55400,116767,5
55406,116764,5
55398,116764,5
55395,116749,4
55379,116742,5
55374,116721,5
55385,116729,5
55381,116731,5
55381,116739,5
55388,116729,4
55383,116738,5
55384,116737,5
55390,116729,4
55383,116728,4
55384,116733,5
55384,116732,5
55388,116728,5
55379,116720,4
55378,116707,5
55372,116709,5
55378,116708,5
55381,116721,5
55363,116699,4
55365,116705,5
55372,116711,5
55359,116704,5
55370,116704,5
55359,116708,4
55364,116705,5
55367,116693,5
55359,116688,5
55359,116681,5
55352,116674,4
55351,116670,6
55353,116663,4
55343,116641,5
55335,116648,5
55343,116631,4
55327,116627,5
55325,116616,5
55319,116610,5
55327,116602,5
55312,116589,4
55305,116573,5
55306,116568,5
55303,116562,5
55296,116570,4
55294,116565,4
55290,116553,5
55294,116550,5
55289,116543,5
55281,116543,4
55289,116537,5
55287,116529,5
55289,116537,5
55284,116536,5
55290,116531,4
55290,116535,5
55284,116543,5
55280,116540,5
55293,116543,5
55300,116554,4
55290,116567,5
55309,116579,5
55312,116573,5
55304,116568,5
55279,116556,4
55293,116551,5
55297,116541,5
55286,116522,5
55267,116496,5
55261,116484,4
55255,116472,5
55259,116465,5
55259,116447,5
55238,116438,5
55239,116440,4
55244,116452,5
55262,116459,5
55251,116466,6
55251,116477,3
55262,116477,4
55271,116482,5
55260,116492,5
55260,116483,5
55269,116482,4
55259,116481,5
55257,116487,5
55265,116482,5
55260,116482,5
55259,116484,4
55265,116484,5
55265,116493,5
55259,116492,5
55263,116483,5
55267,116485,4
55261,116496,5
55267,116493,5
55268,116478,5
55268,116498,5
55263,116492,5
55275,116502,4
55275,116508,5
55270,116499,5
55268,116505,6
55268,116504,3
55272,116520,5
55273,116501,5
55256,116492,5
55269,116498,5
55261,116520,4
55264,116505,5
55270,116499,5
55267,116515,5
55283,116524,4
55289,116528,4
55286,116529,5
55280,116537,9
55284,116548,1
55290,116544,4
55288,116554,5
55289,116546,5
55288,116526,5
55281,116521,5
55280,116541,4
55285,116535,6
55285,116541,4
55300,116555,5
55301,116562,5
55303,116583,6
55304,116592,3
55317,116606,5
55320,116618,5
55330,116615,5
55321,116617,4
55328,116614,5
55330,116616,5
55330,116604,5
55321,116607,5
55322,116611,4
55322,116609,5
55325,116601,5
55323,116614,5
55318,116617,5
55327,116616,4
55339,116614,5
55326,116634,5
55338,116641,5
55341,116652,4
55353,116666,4
55359,116682,6
55362,116676,4
55364,116703,5
55365,116707,4
55387,116717,5
55394,116737,5
55389,116745,5
55405,116768,5
55406,116794,4
55426,116814,5
55426,116817,5
55424,116815,5
55432,116809,5
55419,116800,4
55424,116793,5
55409,116784,5
55406,116763,5
55401,116766,5
55402,116753,4
55398,116749,5
55398,116751,5
55397,116751,5
55403,116753,5
55399,116771,4
55410,116780,5
55412,116798,6
55416,116804,4
55428,116813,5
55426,116816,4
55433,116820,5
55436,116822,5
55435,116831,5
55445,116831,4
55439,116824,4
55441,116825,5
55434,116839,5
55435,116839,5
55437,116828,4
55439,116824,5
55440,116823,5
55441,116826,5
55447,116825,5
55443,116838,4
55448,116844,5
55451,116843,5
55456,116868,5
55461,116875,5
55466,116885,4
55465,116896,5
55461,116887,5
55470,116884,6
55462,116886,4
55461,116877,4
55453,116875,5
55460,116892,5
55462,116884,5
55465,116868,5
55448,116885,4
55464,116893,5
55466,116893,5
55476,116916,5
55471,116913,5
55482,116929,4
55490,116937,5
55502,116952,5
55517,116964,5
55506,116967,4
55509,116971,4
55512,116978,5
55538,116982,5
55517,116990,5
55515,116995,5
55527,117006,4
55541,117008,5
55527,117012,5
55538,117034,6
55547,117028,3
55559,117044,5
55556,117039,5
55556,117043,5
55546,117047,5
55558,117046,4
55560,117059,5
55558,117076,5
55567,117078,5
55571,117074,5
55572,117088,4
55572,117100,5
55582,117101,5
55581,117097,5
55582,117118,5
55584,117124,4
55590,117119,5
55593,117123,5
55590,117135,5
55598,117143,5
55603,117152,5
55611,117181,4
55618,117164,5
55625,117183,5
55619,117173,4
55615,117200,4
55607,117166,5
55611,117167,5
55614,117164,5
55601,117162,4
55598,117129,5
55601,117144,5
55595,117127,5
55597,117140,5
55590,117133,4
55596,117134,5
55594,117151,5
55604,117159,5
55605,117161,5
55619,117187,4
55625,117193,5
55629,117201,5
55623,117212,5
55626,117204,5
55634,117204,4
55628,117211,6
55626,117212,4
55640,117211,5
55636,117212,5
55628,117207,4
55632,117221,5
55631,117204,5
55633,117215,5
55641,117218,5
55646,117218,4
55643,117218,5
55653,117245,5
55656,117241,5
55649,117248,4
55660,117264,4
55660,117273,5
55668,117287,5
55680,117295,5
55668,117298,4
55668,117292,5
55680,117295,5
55673,117290,5
55671,117269,5
55663,117269,4
55665,117259,5
55663,117261,6
55658,117265,4
55666,117272,5
55664,117273,4
55667,117290,5
55671,117298,5
55679,117291,5
55684,117287,5
55675,117298,4
55683,117291,5
55681,117301,5
55681,117309,5
55680,117295,5
55684,117305,4
55685,117310,5
55680,117309,5
55686,117317,5
55688,117327,5
55681,117318,4
55696,117330,5
55689,117325,5
55700,117316,5
55705,117335,4
55698,117315,4
55693,117331,5
55693,117322,6
55701,117317,4
55684,117323,4
55688,117315,5
55689,117316,5
55693,117322,5
55690,117335,5
55697,117337,4
55702,117344,5
55702,117342,5
55709,117355,5
55713,117354,5
55709,117356,4
55727,117374,5
55724,117382,5
55728,117394,5
55724,117399,5
55730,117401,4
55735,117409,5
55735,117408,5
55732,117411,5
55734,117409,5
55735,117401,4
55710,117395,5
55734,117387,5
55729,117368,5
55724,117375,5
55699,117367,4
55712,117364,5
55710,117367,5
55722,117366,5
55706,117378,4
55726,117394,4
55733,117410,5
55748,117430,5
55759,117439,5
55755,117442,4
55756,117452,5
55764,117462,5
55775,117446,5
55757,117457,5
55765,117448,4
55766,117459,5
55781,117456,5
55764,117462,5
55762,117461,5
55764,117458,5
55766,117457,4
55761,117445,5
55759,117447,5
55749,117433,5
55754,117423,4
55751,117437,5
55748,117440,5
55751,117435,5
55744,117425,5
55755,117436,4
55749,117444,5
55758,117444,5
55748,117415,5
55756,117441,5
55750,117434,4
55748,117423,5
55736,117419,5
55747,117406,5
55746,117424,4
55739,117421,4
55745,117433,5
55745,117424,5
55739,117430,5
55745,117418,4
55753,117451,6
55746,117417,4
55745,117418,5
55741,117415,5
55743,117433,4
55743,117429,5
55746,117424,5
55743,117425,5
55751,117427,5
55743,117426,4
55736,117418,5
55742,117416,5
55735,117424,5
55743,117404,5
55731,117407,4
55738,117407,5
55729,117395,5
55732,117404,5
55726,117393,5
55725,117389,4
55735,117380,5
55717,117382,5
55729,117378,5
55728,117377,5
55723,117380,4
55726,117380,6
55728,117382,4
55721,117388,5
55730,117386,4
55725,117386,4
55730,117375,5
55727,117376,5
55721,117376,5
55720,117367,4
55709,117361,5
55710,117353,5
55706,117338,5
55700,117331,5
55707,117324,4
55689,117313,5
55690,117312,5
55679,117296,5
55676,117272,5
55666,117269,4
55666,117261,5
55665,117242,5
55658,117246,5
55643,117219,5
55633,117208,4
55635,117180,5
55615,117169,5
55597,117121,5
55580,117083,5
55567,117061,4
55552,117031,5
55539,117013,5
55528,117002,5
55524,116988,5
55530,116992,4
55528,116988,5
55525,116995,5
55528,116992,5
55530,116988,4
55536,116989,4
55528,116979,5
55520,116967,5
55512,116957,5
55513,116958,4
55508,116944,4
55508,116942,5
55495,116938,5
55500,116916,5
55484,116898,3
55485,116889,5
55466,116863,5
55458,116846,5
55431,116806,5
55426,116760,4
55391,116699,5
55340,116585,5
55277,116471,5
55229,116365,5
55178,116271,4
55142,116216,5
55114,116159,5
55092,116106,5
55071,116059,5
55054,116023,4
55019,115975,5
55000,115944,5
55000,115943,5
54999,115937,5
54988,115921,5
54980,115925,4
54988,115930,5
54999,115942,5
55003,115952,6
54989,115960,3
55012,115967,5
55019,115978,5
55029,115991,5
55011,115994,4
55034,116001,5
55035,116011,5
55045,116038,5
55050,116034,5
55050,116047,4
55047,116055,5
55061,116070,5
55091,116075,5
55068,116086,5
55073,116111,4
55086,116124,5
55107,116124,5
55089,116131,5
55098,116146,5
55102,116155,4
55119,116155,6
55118,116161,4
55109,116170,5
55112,116168,5
55120,116158,6
55106,116165,3
55119,116154,5
55107,116162,5
55113,116148,5
55105,116164,4
55117,116160,5
55107,116149,5
55106,116127,5
55097,116145,4
55103,116141,4
55091,116122,5
55093,116116,5
55079,116106,5
55084,116106,4
55076,116091,5
55070,116113,5
55072,116096,5
55069,116083,5
55066,116071,4
55066,116092,5
55065,116074,6
55063,116063,5
55055,116062,4
55047,116050,4
55058,116034,5
55047,116033,5
55038,116020,5
55033,115999,5
55023,115986,4
55020,115965,5
55011,115958,5
55002,115951,5
54992,115942,5
54992,115923,4
54995,115927,5
54992,115913,5
54990,115922,5
54981,115926,5
54994,115925,4
54994,115931,5
54997,115928,5
54988,115935,5
54993,115957,4
55006,115964,4
55006,115971,5
55010,115965,6
54998,115959,4
54993,115932,4
54985,115925,5
54987,115912,5
54968,115887,5
54971,115883,5
54964,115870,4
54970,115862,5
54962,115871,5
54966,115873,5
54959,115881,5
54964,115890,4
54977,115900,5
54981,115903,5
54976,115903,5
54980,115910,5
54988,115908,4
54977,115894,5
54976,115904,5
54969,115897,5
54976,115914,5
54981,115911,4
54989,115902,5
54988,115907,5
54978,115902,6
54984,115905,4
54980,115905,4
54972,115900,5
54975,115902,5
54979,115895,5
54973,115895,4
54966,115881,5
54971,115874,5
54967,115872,5
54959,115864,5
54962,115867,4
54967,115866,5
54971,115882,5
54957,115872,5
54970,115868,5
54961,115856,4
54960,115859,5
54952,115851,5
54953,115847,5
54953,115846,5
54952,115846,5
54953,115852,4
54955,115843,5
54955,115849,5
54955,115847,6
54941,115849,3
54950,115843,5
54948,115853,5
54953,115842,5
54960,115853,5
54950,115857,4
54953,115854,5
54948,115862,5
54950,115868,5
54960,115858,5
54955,115864,4
54949,115857,5
54951,115864,5
54943,115861,5
54963,115859,4
54950,115852,5
54943,115857,5
54953,115849,5
54951,115862,5
54944,115848,4
54936,115843,6
54949,115858,4
54951,115859,5
54949,115843,5
54950,115850,4
54944,115844,5
54948,115840,5
54948,115829,5
54960,115841,5
54945,115838,4
54946,115825,5
54939,115835,5
54965,115833,5
54952,115841,5
54932,115835,4
54940,115838,5
54954,115843,5
54945,115837,5
54937,115837,5
54940,115824,4
54940,115836,5
54938,115827,5
54942,115828,5
54935,115813,5
54938,115817,4
54936,115825,6
54939,115828,4
54941,115822,5
54934,115807,4
54938,115820,4
54933,115827,5
54948,115827,5
54947,115808,5
54936,115825,4
54934,115826,5
54934,115833,5
54941,115833,5
54936,115822,5
54944,115837,4
54939,115831,5
54937,115841,5
54941,115828,5
54935,115818,5
54935,115826,4
54941,115844,5
54929,115815,5
54929,115831,5
54932,115820,5
54929,115843,4
54932,115812,5
54935,115816,6
54928,115810,4
54935,115815,5
54937,115815,4
54928,115809,5
54933,115810,5
54928,115808,5
54932,115809,5
54936,115819,4
54930,115820,5
54932,115813,5
54927,115806,5
54938,115802,4
54926,115816,4
54922,115816,5
54926,115805,5
54929,115808,5
54930,115806,4
54926,115802,5
54921,115795,5
54928,115800,5
54929,115814,5
54933,115813,4
54931,115814,5
54934,115808,5
54933,115806,6
54935,115816,4
54933,115818,4
54932,115812,5
54935,115822,5
54937,115821,5
54932,115824,5
54945,115829,4
54942,115829,5
54935,115839,5
54931,115816,5
54933,115808,5
54922,115801,4
54925,115787,5
54912,115762,5
54907,115755,5
54904,115769,5
54903,115763,4
54907,115750,5
54903,115748,5
54899,115746,5
54902,115756,5
54907,115770,4
54905,115770,5
54910,115766,5
54915,115778,5
54913,115779,4
54904,115776,5
54916,115770,5
54914,115772,5
54915,115782,5
54915,115777,4
54918,115779,5
54913,115776,5
54918,115783,5
54919,115782,5
54916,115793,4
54930,115791,5
54927,115808,5
54914,115793,5
54924,115792,5
54922,115786,4
54920,115785,5
54914,115782,5
54917,115790,5
54919,115787,5
54908,115790,5
54920,115785,4
54920,115799,5
54918,115798,5
54923,115798,4
54927,115800,4
54919,115800,5
54914,115800,5
54921,115795,5
54915,115783,4
54911,115797,5
54916,115788,5
54918,115800,5
54925,115806,5
54923,115816,4
54927,115820,5
54911,115816,5
54936,115820,5
54936,115827,5
54924,115831,4
54925,115835,5
54948,115835,5
54945,115845,5
54937,115839,5
54934,115839,4
54946,115833,6
54940,115839,4
54934,115844,5
54951,115844,5
54939,115840,4
54941,115830,5
54929,115836,5
54958,115846,5
54946,115839,5
54939,115846,4
54952,115837,5
54956,115848,5
54945,115858,5
54943,115853,4
54952,115858,4
54948,115851,5
54956,115859,5
54941,115858,5
54949,115859,4
54949,115848,5
54950,115849,5
54939,115859,5
54950,115860,5
54939,115847,4
54954,115863,5
54952,115863,6
54947,115853,4
54950,115853,5
54953,115858,4
54953,115859,5
54943,115868,5
54953,115871,5
54950,115860,5
54951,115866,4
54951,115870,5
54942,115890,5
54950,115868,5
54954,115877,5
54967,115879,4
54958,115902,5
54967,115881,5
54953,115889,5
54952,115886,5
54960,115897,4
54963,115892,5
54958,115887,5
54961,115889,5
54959,115891,4
54959,115889,4
54962,115888,5
54959,115885,5
54960,115893,5
54960,115889,4
54968,115900,5
54959,115907,5
54965,115897,5
54965,115895,5
54962,115898,4
54963,115895,5
54967,115886,5
54957,115897,5
54966,115907,5
54980,115918,4
54962,115930,5
54973,115923,5
54979,115922,5
54971,115917,5
54971,115914,4
54971,115893,5
54955,115877,5
54943,115867,5
54932,115843,5
54929,115828,4
54927,115807,5
54915,115797,5
54901,115792,5
54913,115791,5
54913,115796,4
54903,115793,5
54911,115803,5
54907,115808,5
54913,115805,4
54916,115800,4
54909,115792,5
54911,115780,5
54899,115761,5
54894,115745,4
54882,115749,5
54879,115732,5
54871,115721,5
54876,115717,5
54872,115701,4
54857,115676,6
54844,115653,4
54838,115641,5
54829,115623,5
54814,115597,6
54817,115596,3
54805,115592,5
54812,115575,5
54802,115587,5
54796,115574,4
54802,115572,5
54797,115581,5
54804,115568,5
54801,115567,5
54792,115565,4
54786,115566,5
54794,115559,5
54786,115555,5
54787,115544,5
54781,115545,4
54780,115548,5
54788,115543,5
54784,115560,5
54787,115556,4
54788,115551,4
54780,115546,6
54775,115533,4
54783,115543,5
54777,115534,4
54781,115545,7
54781,115544,3
54775,115543,5
54787,115548,5
54788,115545,4
54782,115542,5
54787,115543,5
54784,115564,5
54788,115557,5
54792,115553,4
54790,115558,5
54785,115557,5
54795,115567,5
54791,115564,5
54796,115559,4
54772,115553,5
54787,115556,5
54795,115539,5
54789,115547,5
54773,115532,4
54774,115540,5
54776,115552,6
54783,115542,4
54790,115536,5
54783,115537,4
54787,115549,5
54788,115548,5
54815,115546,5
54792,115558,4
54789,115555,4
54789,115558,5
54810,115549,5
54793,115552,5
54787,115557,4
54793,115554,5
54800,115564,5
54797,115563,5
54790,115558,5
54804,115559,4
54789,115563,5
54793,115553,5
54787,115564,5
54795,115565,5
54785,115554,4
54797,115573,5
54806,115582,5
54807,115578,6
54796,115554,4
54789,115571,4
54786,115558,5
54792,115550,5
54789,115524,5
54774,115521,5
54770,115504,4
54760,115507,5
54757,115510,8
54766,115486,2
54756,115488,5
54776,115501,4
54768,115526,5
54775,115518,5
54780,115528,5
54781,115546,4
54795,115562,4
54796,115560,5
54791,115553,5
54785,115553,5
54792,115555,5
54787,115554,4
54787,115547,5
54794,115563,5
54797,115562,6
54801,115561,3
54800,115564,5
54797,115572,5
54802,115571,5
54799,115570,5
54798,115568,4
54796,115576,5
54806,115565,5
54802,115571,5
54802,115581,5
54809,115584,4
54800,115583,5
54802,115584,5
54812,115590,5
54810,115599,5
54813,115600,4
54825,115603,5
54811,115602,5
54810,115608,5
54815,115600,5
54822,115609,5
54827,115627,4
54837,115647,5
54841,115646,5
54841,115655,6
54847,115672,3
54844,115674,5
54852,115691,5
54858,115690,5
54864,115706,4
54863,115708,5
54869,115705,5
54868,115710,5
54874,115720,5
54872,115729,4
54865,115722,5
54877,115731,5
54881,115733,5
54884,115744,5
54896,115749,4
54886,115745,5
54890,115753,5
54892,115755,5
54896,115766,5
54900,115770,4
54893,115768,6
54904,115778,4
54902,115769,5
54905,115791,5
54914,115788,4
54911,115786,5
54914,115782,5
54917,115787,5
54917,115796,5
54907,115802,4
54919,115794,5
54915,115802,5
54926,115802,5
54924,115801,4
54918,115804,4
54929,115812,5
54924,115817,5
54933,115819,5
54927,115819,4
54924,115828,5
54933,115831,5
54939,115830,5
54937,115841,5
54933,115846,4
54944,115846,5
54952,115866,6
54956,115884,4
54971,115890,5
54966,115894,4
54964,115873,5
54957,115883,5
54954,115877,5
54959,115861,5
54953,115853,4
54952,115857,5
54937,115855,5
54950,115850,5
54952,115861,5
54947,115871,4
54945,115880,5
54964,115899,5
54959,115909,5
54963,115915,5
54967,115932,4
54982,115935,5
54997,115946,5
54992,115951,5
55008,115957,4
55009,115962,5
55004,115963,5
55004,115975,6
55028,115987,4
55012,115979,4
55008,115989,5
55011,115986,5
55025,115989,5
55010,115995,5
55021,115996,4
55013,116002,5
55031,116006,5
55020,116007,5
55020,115997,5
55022,116007,4
55031,115998,5
55022,116012,5
55018,116017,5
55030,116023,5
55020,116011,4
55030,116031,5
55036,116047,5
55038,116045,5
55036,116036,5
55042,116047,4
55047,116060,5
55047,116057,5
55050,116059,6
55055,116075,3
55059,116083,4
55059,116081,5
55056,116103,5
55067,116085,5
55071,116084,4
55062,116079,5
55067,116101,5
55071,116076,5
55063,116076,5
55068,116083,4
55063,116099,5
55062,116080,5
55066,116106,5
55077,116107,5
55078,116115,4
55074,116111,5
55079,116116,5
55069,116120,5
55077,116126,5
55071,116118,5
55075,116125,4
55080,116115,5
55082,116130,5
55088,116140,5
55087,116148,4
55094,116141,5
55096,116150,5
55097,116153,5
55101,116151,5
55096,116153,4
55102,116160,5
55104,116160,5
55096,116170,5
55103,116175,4
55111,116186,4
55119,116202,5
55122,116205,5
55125,116212,5
55120,116214,4
55139,116229,5
55135,116222,5
55135,116211,5
55126,116197,5
55104,116146,4
55073,116095,6
55034,116025,4
55010,115965,5
54988,115910,5
54959,115865,4
54940,115811,5
54913,115778,5
54912,115762,5
54889,115738,5
54891,115730,4
54890,115736,5
54892,115745,5
54892,115768,5
54910,115784,5
54928,115807,4
54940,115829,5
54958,115871,5
54968,115899,5
54980,115925,5
55005,115961,4
55006,115987,5
55030,116011,5
55031,116026,5
55042,116050,4
55052,116050,4
55050,116075,6
55067,116085,4
55068,116087,5
55067,116096,4
55066,116091,5
55084,116113,5
55073,116105,5
55076,116111,5
55085,116118,4
55082,116113,5
55092,116124,5
55084,116131,5
55086,116122,5
55085,116146,4
55097,116152,5
55105,116149,5
55099,116161,5
55100,116163,5
55106,116170,4
55103,116168,5
55105,116169,5
55108,116178,5
55118,116174,5
55114,116177,4
55107,116169,5
55100,116163,6
55110,116179,4
55112,116187,5
55122,116196,4
55129,116209,5
55124,116222,5
55142,116239,5
55145,116237,4
55151,116245,4
55131,116243,5
55151,116252,5
55162,116272,5
55167,116271,4
55148,116279,5
55168,116275,5
55162,116284,5
55170,116286,5
55178,116290,4
55161,116297,5
55174,116290,5
55175,116289,5
55183,116285,5
55167,116286,4
55172,116289,5
55172,116278,5
55190,116287,5
55175,116291,5
55169,116286,4
55181,116290,5
55170,116293,5
55164,116286,5
55166,116284,5
55166,116288,4
55170,116284,5
55168,116293,5
55185,116295,5
55166,116279,5
55166,116262,4
55172,116292,5
55168,116286,5
55170,116288,5
55170,116267,4
55170,116272,5
55160,116284,5
55166,116271,5
55167,116265,5
55161,116277,5
55157,116275,4
55160,116283,5
55168,116291,5
55164,116286,5
55173,116283,4
55171,116273,5
55171,116313,5
55167,116275,5
55164,116268,5
55167,116266,4
55154,116276,5
55158,116254,5
55136,116242,5
55140,116227,5
55124,116217,4
55123,116179,5
55115,116182,5
55116,116188,5
55126,116191,5
55127,116205,4
55136,116213,5
55141,116224,5
55148,116231,5
55145,116228,4
55144,116242,5
55137,116226,4
55147,116235,5
55135,116230,5
55138,116226,4
55131,116223,5
55132,116217,5
55145,116222,5
55136,116216,5
55140,116210,4
55136,116215,5
55133,116215,5
55130,116212,5
55131,116200,5
55125,116184,4
55124,116184,5
55126,116182,5
55107,116178,5
55110,116169,5
55112,116162,4
55103,116159,5
55103,116132,6
55100,116137,4
55088,116106,5
55090,116098,4
55073,116082,7
55067,116057,3
55048,116047,5
55056,116041,5
55044,116028,4
55037,116015,5
55030,115987,5
55028,115980,5
55009,115956,4
55003,115952,4
54994,115940,5
54988,115914,5
54979,115907,5
54971,115902,4
54976,115897,5
54965,115884,5
54971,115873,5
54964,115878,5
54965,115872,4
54947,115857,5
54949,115852,5
54959,115838,6
54947,115839,4
54936,115828,4
54937,115829,5
54947,115817,5
54936,115822,5
54938,115831,5
54952,115822,4
54944,115822,5
54938,115822,5
54942,115814,5
54929,115808,5
54935,115793,4
54920,115787,5
54921,115772,5
54918,115774,5
54908,115762,5
54907,115758,4
54907,115747,5
54897,115750,5
54908,115752,5
54908,115748,5
54908,115751,4
54904,115760,5
54905,115766,5
54900,115755,6
54902,115760,3
54907,115758,5
54908,115760,5
54887,115744,5
54913,115755,5
54897,115743,4
54904,115741,5
54883,115739,5
54893,115731,5
54896,115739,5
54891,115737,4
54888,115738,5
54891,115738,5
54884,115736,5
54898,115728,5
54909,115729,4
54896,115734,5
54896,115738,5
54900,115745,5
54911,115734,5
54898,115739,5
54903,115746,4
54894,115741,5
54911,115745,5
54904,115739,6
54892,115734,3
54899,115745,5
54896,115739,5
54902,115743,5
54898,115741,4
54902,115747,5
54900,115738,5
54905,115743,5
54890,115745,5
54900,115742,4
54898,115721,5
54899,115743,5
54894,115734,5
54897,115733,5
54893,115715,4
54892,115731,5
54888,115714,5
54889,115723,6
54891,115724,4
54879,115711,4
54878,115710,6
54885,115706,4
54875,115716,5
54871,115699,5
54881,115695,6
54869,115690,3
54870,115703,5
54865,115676,5
54867,115674,5
54868,115677,4
54864,115674,5
54864,115654,5
54852,115656,5
54852,115651,4
54850,115648,4
54853,115638,5
54848,115636,5
54836,115634,5
54844,115626,4
54842,115630,5
54843,115627,5
54832,115630,5
54831,115621,5
54839,115617,4
54838,115614,5
54840,115599,6
54832,115608,4
54828,115608,5
54833,115590,4
54832,115603,5
54823,115604,5
54833,115604,5
54835,115620,5
54838,115612,4
54836,115634,5
54834,115621,5
54848,115613,5
54825,115595,5
54813,115584,4
54811,115568,5
54800,115548,5
54794,115529,5
54792,115531,5
54784,115510,4
54785,115490,5
54773,115483,5
54771,115486,5
54767,115487,4
54768,115483,4
54779,115490,5
54762,115503,6
54772,115488,4
54766,115488,4
54772,115497,5
54774,115497,5
54766,115485,5
54771,115479,5
54776,115490,4
54773,115477,5
54768,115474,5
54773,115480,5
54768,115487,5
54772,115469,4
54763,115461,5
54755,115449,5
54747,115448,5
54750,115438,5
54750,115440,4
54741,115425,5
54734,115419,5
54736,115415,5
54728,115405,5
54723,115399,4
54730,115397,5
54720,115389,5
54718,115394,6
54726,115384,4
54719,115384,4
54712,115386,5
54720,115377,5
54712,115364,5
54711,115368,4
54709,115360,5
54703,115357,5
54704,115350,5
54701,115347,5
54700,115347,4
54711,115349,5
54708,115353,5
54705,115353,5
54707,115354,5
54695,115354,4
54704,115355,5
54696,115345,5
54705,115346,5
54699,115352,5
54704,115351,5
54699,115342,4
54709,115357,5
54689,115346,5
54704,115346,5
54703,115348,4
54701,115348,5
54687,115352,5
54695,115357,5
54692,115345,5
54698,115349,4
54690,115345,5
54692,115343,5
54690,115344,5
54684,115323,4
54694,115324,4
54693,115324,5
54692,115324,5
54681,115317,5
54697,115316,4
54686,115307,5
54676,115309,5
54673,115299,5
54688,115307,5
54666,115298,4
54673,115290,6
54666,115291,4
54675,115290,5
54671,115288,5
54665,115280,4
54661,115279,5
54666,115272,5
54665,115276,5
54667,115281,5
54665,115279,4
54659,115255,5
54665,115271,5
54657,115283,5
54657,115286,5
54667,115256,4
54671,115294,5
54653,115279,5
54666,115280,5
54669,115287,5
54667,115286,4
54675,115297,5
54666,115288,5
54673,115303,5
54663,115288,4
54664,115281,4
54652,115276,6
54655,115295,4
54668,115284,5
54670,115274,4
54658,115274,5
54666,115284,5
54664,115278,5
54668,115290,5
54660,115291,4
54672,115290,5
54664,115280,5
54669,115293,5
54665,115292,5
54671,115293,4
54677,115307,5
54688,115305,5
54678,115312,5
54679,115316,5
54681,115320,4
54683,115332,5
54690,115325,5
54690,115355,5
54695,115354,5
54709,115371,4
54708,115390,5
54718,115397,6
54720,115406,4
54716,115393,4
54706,115382,4
54709,115369,5
54710,115371,5
54697,115347,5
54699,115354,4
54695,115345,5
54698,115346,5
54704,115345,5
54692,115339,5
54686,115330,4
54700,115343,5
54694,115353,5
54701,115359,5
54708,115371,5
54711,115371,4
54713,115379,5
54705,115377,5
54715,115376,5
54713,115372,5
54706,115369,4
54694,115364,5
54699,115375,5
54710,115366,5
54704,115365,5
54711,115365,4
54694,115364,5
54703,115370,5
54706,115380,5
54707,115363,5
54705,115383,4
54715,115381,5
54712,115388,5
54716,115381,5
54710,115379,4
54712,115394,4
54720,115388,5
54713,115398,5
54715,115397,5
54725,115408,4
54710,115400,5
54717,115402,5
54722,115401,5
54721,115399,5
54718,115403,5
54713,115393,4
54716,115397,5
54718,115392,5
54719,115398,5
54722,115404,4
54714,115408,5
54714,115401,5
54728,115407,5
54726,115413,5
54720,115418,4
54722,115419,5
54728,115413,5
54719,115422,5
54722,115409,5
54728,115417,4
54722,115412,5
54720,115427,5
54721,115413,5
54713,115418,4
54721,115419,4
54730,115431,5
54737,115425,5
54720,115431,5
54734,115446,4
54736,115444,6
54746,115445,4
54716,115455,5
54738,115443,5
54741,115448,4
54738,115444,5
54740,115448,5
54741,115457,5
54739,115446,5
54737,115443,4
54746,115432,5
54735,115442,5
54735,115426,5
54730,115438,5
54753,115429,4
54733,115431,5
54734,115427,5
54732,115428,5
54739,115429,5
54720,115418,4
54725,115414,5
54721,115416,5
54726,115416,5
54715,115413,4
54714,115418,4
54720,115415,6
54723,115396,4
54725,115420,5
54732,115421,4
54728,115431,5
54729,115405,5
54730,115417,5
54729,115427,5
54726,115429,4
54727,115413,5
54724,115419,5
54728,115429,5
54730,115437,5
54732,115445,4
54736,115451,5
54743,115450,5
54737,115444,5
54738,115457,5
54736,115427,4
54727,115414,5
54717,115404,5
54706,115396,5
54702,115363,5
54695,115354,4
54686,115350,5
54683,115335,5
54670,115321,5
54676,115326,5
54676,115325,4
54674,115325,5
54683,115323,5
54678,115335,5
54685,115334,4
54682,115336,5
54675,115333,5
54678,115340,5
54683,115333,5
54678,115328,4
54674,115323,5
54674,115330,5
54676,115319,5
54682,115332,5
54680,115320,5
54677,115318,4
54668,115323,5
54676,115319,5
54675,115327,6
54675,115320,3
54669,115310,5
54667,115306,5
54667,115305,5
54670,115301,5
54672,115299,4
54657,115310,5
54665,115303,5
54664,115295,5
54659,115301,5
54670,115296,4
54664,115284,5
54667,115285,5
54652,115270,5
54634,115255,4
54642,115244,4
54627,115219,5
54616,115199,5
54609,115182,5
54600,115152,4
54587,115128,6
54558,115096,4
54546,115075,5
54533,115045,5
54528,115020,6
54517,115005,3
54505,114986,5
54493,114975,5
54501,114965,5
54499,114957,4
54498,114954,5
54498,114949,5
54495,114951,5
54487,114962,5
54491,114951,4
54490,114942,5
54485,114944,5
54484,114932,5
54491,114927,5
54474,114917,4
54474,114909,5
54472,114916,5
54468,114901,5
54457,114899,4
54458,114891,4
54455,114893,6
54464,114890,4
54459,114876,5
54448,114885,4
54456,114882,7
54458,114881,3
54450,114888,5
54461,114899,5
54457,114897,4
54467,114899,5
54464,114902,5
54473,114897,5
54470,114904,5
54463,114903,4
54457,114898,5
54469,114898,5
54461,114896,5
54459,114900,5
54450,114887,4
54462,114904,5
54457,114888,5
54456,114891,5
54451,114900,5
54463,114894,4
54465,114890,5
54457,114888,6
54461,114884,4
54459,114878,5
54461,114881,4
54461,114882,5
54477,114894,5
54469,114896,5
54471,114911,4
54467,114915,5
54498,114920,5
54468,114910,5
54467,114900,5
54455,114881,4
54464,114877,5
54447,114872,5
54442,114843,5
54437,114845,5
54438,114830,4
54434,114832,5
54433,114826,5
54431,114828,5
54437,114826,5
54437,114837,4
54434,114843,5
54445,114862,5
54448,114854,6
54450,114881,4
54454,114882,4
54458,114880,5
54469,114879,5
54475,114911,7
54473,114915,3
54477,114910,4
54472,114927,5
54479,114928,5
54470,114930,5
54484,114922,4
54476,114942,4
54474,114923,5
54478,114929,5
54484,114936,5
54476,114964,4
54490,114941,5
54497,114952,5
54496,114956,5
54492,114967,5
54501,114971,5
54505,114990,4
54501,114999,5
54512,114999,5
54515,115000,6
54524,115009,3
54515,115017,5
54521,115009,5
54522,115010,5
54524,115001,5
54518,115004,4
54530,115023,5
54528,115022,5
54541,115038,5
54537,115047,5
54544,115056,4
54541,115070,5
54547,115071,5
54551,115072,5
54547,115072,4
54554,115063,4
54550,115071,5
54554,115082,5
54559,115085,5
54570,115090,4
54571,115088,6
54558,115096,4
54567,115102,5
54576,115109,5
54573,115108,4
54574,115116,5
54581,115108,5
54571,115116,5
54584,115122,5
54585,115127,4
54576,115137,5
54582,115137,5
54591,115147,5
54601,115143,5
54588,115144,4
54598,115132,5
54589,115144,5
54590,115144,5
54598,115138,5
54588,115148,4
54598,115149,5
54592,115151,5
54600,115162,5
54605,115169,4
54598,115164,4
54607,115162,6
54605,115177,4
54595,115166,5
54599,115176,4
54607,115190,5
54614,115179,5
54610,115196,5
54615,115197,5
54628,115216,4
54628,115231,5
54642,115225,5
54630,115225,5
54630,115214,5
54630,115205,4
54618,115221,5
54622,115205,5
54623,115200,5
54621,115200,5
54611,115187,4
54613,115197,5
54611,115192,5
54619,115199,5
54621,115202,5
54626,115211,4
54626,115217,5
54629,115223,6
54627,115223,4
54630,115224,5
54634,115234,4
54645,115241,5
54645,115241,5
54652,115254,5
54652,115253,4
54644,115256,4
54641,115264,5
54649,115264,5
54656,115267,5
54652,115269,4
54633,115276,5
54658,115269,5
54653,115254,5
54649,115246,5
54631,115242,4
54642,115233,5
54640,115222,5
54640,115232,5
54643,115231,5
54624,115232,4
54631,115214,5
54630,115217,5
54642,115206,6
54625,115221,4
54622,115220,4
54632,115216,5
54649,115209,5
54630,115216,5
54625,115214,5
54634,115216,4
54637,115215,5
54630,115230,5
54634,115228,5
54634,115230,4
54637,115228,4
54641,115230,5
54630,115227,5
54635,115240,5
54647,115228,4
54639,115235,5
54648,115240,5
54643,115243,5
54645,115226,5
54640,115257,5
54645,115259,4
54650,115262,5
54648,115250,5
54659,115271,5
54653,115269,4
54669,115283,5
54669,115300,5
54674,115293,5
54673,115303,5
54677,115301,4
54685,115334,5
54682,115306,5
54681,115313,5
54685,115317,5
54682,115325,4
54679,115311,5
54677,115318,5
54684,115323,5
54675,115329,5
54687,115336,4
54683,115340,5
54688,115330,5
54691,115336,5
54695,115333,4
54691,115328,5
54684,115339,4
54687,115345,5
54700,115347,5
54697,115369,4
54709,115375,5
54715,115385,5
54719,115385,5
54724,115405,5
54716,115413,4
54733,115412,5
54733,115398,5
54725,115401,5
54716,115399,5
54717,115395,4
54727,115397,5
54723,115385,5
54711,115379,5
54704,115375,5
54702,115348,4
54700,115366,5
54710,115356,5
54707,115353,5
54712,115379,5
54716,115375,4
54713,115384,6
54720,115395,4
54730,115386,5
54718,115397,4
54722,115384,4
54717,115386,5
54710,115386,5
54707,115377,5
54714,115389,4
54710,115367,5
54707,115379,5
54711,115378,5
54708,115368,5
54702,115365,4
54702,115357,5
54705,115372,5
54711,115368,5
54708,115373,5
54715,115381,4
54714,115375,5
54709,115369,5
54715,115382,5
54721,115387,5
54709,115385,4
54712,115389,5
54721,115404,6
54723,115397,4
54723,115384,5
54714,115387,4
54710,115373,5
54708,115363,10
54713,115363,5
54707,115357,9
54689,115320,8
54689,115320,5
54690,115324,5
54686,115318,8
54701,115311,5
54657,115297,5
54661,115267,5
54658,115268,8
54655,115256,5
54653,115243,5
54644,115242,8
54630,115215,5
54629,115197,5
54585,115122,8
54585,115122,5
54596,115096,5
54568,115068,5
54527,115051,8
54529,115022,5
54516,115005,5
54510,114985,8
54507,114965,5
54501,114926,5
54476,114897,5
54469,114871,8
54455,114864,5
54447,114832,5
54399,114708,8
54399,114708,5
54351,114688,5
54359,114657,8
54350,114631,5
54345,114609,5
54312,114568,5
54306,114553,8
54299,114524,5
54296,114512,5
54271,114474,8
54247,114425,5
54236,114398,5
54212,114345,5
54122,114181,8
54122,114181,5
54108,114179,5
54095,114121,8
54068,114021,5
54051,114023,5
54052,114003,8
54032,113966,5
54001,113926,5
53972,113864,5
53936,113811,8
53919,113754,5
53897,113728,5
53710,113347,8
53710,113347,5
53685,113243,5
53658,113227,5
53647,113221,8
53639,113196,5
53625,113161,5
53573,113161,8
53596,113153,5
53594,113129,5
53591,113113,8
53583,113095,5
53570,113058,5
53566,113054,5
53524,112975,8
53524,112975,5
53513,112943,5
53508,112919,8
53485,112887,5
53455,112855,5
53447,112821,5
53434,112783,8
53424,112785,5
53404,112736,5
53396,112703,8
53382,112686,5
53381,112674,5
53338,112596,8
53338,112596,5
53333,112567,5
53302,112544,5
53284,112515,8
53280,112495,5
53274,112467,5
53263,112455,8
53237,112392,5
53231,112376,5
53231,112381,5
53185,112281,8
53185,112281,5
53177,112270,5
53167,112253,8
53160,112243,5
53146,112218,5
53149,112211,8
53136,112192,5
53129,112185,5
53127,112128,5
53126,112153,8
53116,112146,5
53119,112145,5
53073,112078,8
53073,112078,5
53072,112058,5
53064,112023,5
53049,112018,8
53059,112004,5
53036,111990,5
53024,111949,8
53010,111954,5
53011,111949,5
53018,111941,8
53007,111922,5
52983,111914,5
52995,111904,5
52961,111855,8
52961,111855,5
52980,111843,2
52978,111827,1
52978,111827,3
52950,111822,5
52952,111814,5
52945,111813,5
52941,111804,5
52948,111806,4
52943,111799,5
52941,111785,5
52931,111787,6
52928,111775,3
52920,111765,5
52927,111763,5
52916,111753,5
52927,111746,4
52908,111739,5
52917,111742,5
52912,111730,5
52910,111732,5
52904,111721,4
52903,111711,5
52895,111692,5
52890,111676,5
52898,111673,5
52883,111659,4
52867,111647,5
52860,111630,5
52862,111620,5
52848,111611,5
52849,111595,4
52840,111589,6
52847,111579,4
52828,111565,5
52827,111563,5
52829,111551,4
52824,111551,5
52825,111538,5
52815,111550,5
52810,111538,4
52811,111523,4
52817,111527,5
52807,111519,5
52802,111497,5
52791,111482,4
52787,111478,5
52791,111467,5
52783,111454,5
52775,111433,9
52768,111431,0
52758,111381,5
52752,111389,5
52746,111394,5
52736,111371,5
52735,111357,4
52724,111337,5
52712,111342,6
52712,111301,4
52708,111283,5
52690,111274,4
52683,111269,5
52682,111248,5
52664,111227,5
52666,111210,5
52650,111205,4
52649,111176,5
52631,111157,5
52618,111136,5
52622,111116,5
52607,111098,4
52598,111079,5
52588,111054,5
52573,111038,5
52570,111024,4
52557,110992,4
52547,110976,5
52540,110965,5
52525,110948,5
52533,110942,4
52517,110917,5
52508,110905,5
52506,110877,6
52493,110856,4
52478,110854,4
52480,110845,5
52481,110847,5
52475,110851,5
52488,110845,5
52477,110837,4
52475,110826,5
52462,110782,5
52450,110760,5
52429,110727,5
52405,110663,4
52369,110606,5
52357,110571,5
52343,110555,5
52332,110520,5
52318,110498,4
52304,110476,5
52297,110461,5
52296,110459,5
52285,110450,5
52293,110455,4
52291,110455,5
52280,110444,5
52282,110441,6
52292,110440,3
52283,110427,4
52276,110420,5
52273,110397,5
52267,110394,5
52266,110376,4
52260,110367,5
52249,110357,5
52238,110339,5
52240,110321,5
52226,110311,4
52219,110293,5
52200,110278,5
52194,110254,5
52187,110240,5
52181,110227,4
52176,110212,5
52172,110207,5
52158,110187,5
52161,110183,5
52165,110170,5
52160,110170,4
52147,110155,5
52151,110158,5
52150,110138,5
52143,110118,4
52142,110128,5
52132,110119,5
52138,110105,5
52121,110087,5
52109,110077,4
52108,110057,5
52098,110058,5
52102,110052,5
52097,110045,4
52088,110042,4
52092,110035,5
52089,110015,5
52090,110023,5
52078,110006,4
52075,109999,5
52073,109986,5
52063,109997,5
52068,109981,5
52056,109970,4
52061,109966,6
52037,109950,4
52042,109943,5
52033,109938,5
52035,109914,4
52012,109913,5
52014,109882,5
52006,109869,5
51997,109852,5
52000,109824,4
51980,109803,5
51958,109783,5
51952,109756,5
51969,109735,5
51945,109726,4
51933,109709,5
51927,109697,5
51929,109687,5
51916,109670,5
51905,109658,4
51900,109658,5
51906,109642,5
51892,109624,5
51889,109614,4
51882,109597,5
51872,109574,6
51860,109559,4
51851,109533,5
51834,109518,4
51827,109482,5
51822,109482,5
51809,109478,5
51813,109462,5
51807,109418,4
51789,109428,5
51797,109419,5
51781,109403,5
51776,109390,5
51775,109389,4
51769,109383,5
51765,109370,5
51770,109372,5
51755,109354,5
51757,109346,4
51750,109339,5
51739,109341,5
51745,109317,5
51735,109307,5
51727,109296,4
51726,109295,5
51718,109257,6
51715,109270,4
51705,109238,4
51706,109237,4
51698,109227,5
51700,109202,5
51691,109206,5
51684,109201,4
51685,109197,5
51679,109190,5
51668,109173,5
51661,109142,5
51646,109100,4
51614,109041,5
51588,108993,5
51556,108930,5
51524,108861,5
51486,108796,4
51463,108749,5
51441,108701,5
51412,108655,5
51403,108602,5
51382,108581,4
51377,108565,5
51364,108556,5
51364,108538,5
51356,108522,5
51346,108507,4
51333,108501,5
51332,108485,5
51329,108472,5
51326,108462,5
51319,108460,4
51316,108449,5
51313,108434,5
51311,108421,5
51305,108417,4
51300,108390,4
51283,108379,5
51273,108360,5
51265,108344,5
51254,108323,4
51250,108302,5
51244,108280,5
51227,108253,5
51213,108232,5
51203,108210,5
51202,108182,4
51184,108179,5
51182,108149,5
51171,108156,5
51164,108128,4
51166,108114,5
51160,108109,5
51149,108103,5
51154,108079,5
51146,108078,4
51125,108054,5
51115,108027,5
51117,108024,5
51112,108016,5
51122,108011,4
51109,108011,5
51107,107994,5
51103,107997,5
51098,107979,5
51098,107977,4
51095,107977,5
51091,107962,5
51096,107959,5
51089,107947,4
51095,107955,6
51085,107953,4
51087,107952,5
51088,107948,5
51090,107952,4
51087,107962,5
51078,107954,5
51081,107956,5
51084,107956,5
51083,107949,4
51083,107960,5
51092,107965,5
51088,107962,5
51084,107955,5
51076,107960,4
51090,107953,5
51090,107960,5
51082,107962,5
51095,107959,5
51091,107966,4
51095,107969,5
51074,107962,5
51086,107963,5
51092,107961,5
51086,107964,4
51076,107955,6
51089,107973,4
51095,107963,5
51099,107964,4
51107,107972,4
51092,107975,5
51090,107980,5
51102,107977,5
51111,107979,4
51095,107981,5
51100,107975,5
51101,107980,5
51116,107983,5
51108,107986,4
51105,107989,5
51108,107996,5
51110,107987,5
51117,107996,5
51108,107996,4
51112,108004,5
51120,108004,5
51120,108023,5
51124,108030,5
51123,108037,4
51134,108019,5
51129,108028,5
51109,108009,5
51116,107993,5
51097,107968,4
51102,107969,5
51091,107949,5
51077,107943,5
51078,107943,5
51086,107936,4
51077,107930,5
51081,107932,5
51081,107950,5
51080,107934,4
51085,107945,4
51082,107953,5
51083,107975,5
51093,107964,5
51086,107960,5
51086,107959,4
51089,107975,5
51087,107964,5
51087,107956,6
51082,107945,3
51090,107958,5
51083,107940,5
51075,107927,5
51074,107931,5
51071,107913,4
51068,107888,5
51056,107877,5
51041,107858,5
51034,107846,5
51028,107829,4
51024,107818,5
51011,107816,5
51016,107804,5
51010,107804,5
51020,107807,4
51015,107815,5
51013,107813,5
51015,107803,5
51021,107808,5
51022,107803,5
51021,107806,4
51019,107799,5
51021,107785,5
50999,107774,6
50997,107774,3
51004,107770,5
51001,107764,5
50996,107757,5
50991,107757,4
50990,107744,5
50991,107751,5
50980,107744,5
50993,107740,5
50993,107761,4
50997,107757,5
51000,107766,5
50998,107767,5
51013,107777,5
51011,107782,4
51018,107791,5
51011,107804,5
51021,107821,5
51018,107824,5
51027,107831,4
51038,107842,6
51046,107856,4
51048,107866,5
51051,107857,5
51058,107867,6
51057,107870,3
51052,107875,5
51058,107879,5
51061,107881,4
51055,107882,4
51060,107882,5
51056,107872,5
51052,107870,5
51059,107863,4
51056,107877,5
51056,107871,5
51059,107884,5
51061,107882,5
51067,107880,4
51067,107894,5
51064,107900,5
51069,107904,5
51077,107911,5
51066,107919,4
51081,107920,5
51086,107934,6
51081,107935,4
51087,107942,5
51095,107944,4
51086,107952,5
51098,107953,5
51104,107956,5
51100,107960,5
51099,107947,4
51091,107930,5
51089,107915,5
51077,107894,5
51057,107888,5
51056,107864,4
51051,107847,5
51037,107829,5
51010,107802,5
51017,107776,4
50995,107764,4
50998,107760,5
50988,107752,5
50994,107759,5
51009,107774,4
51011,107766,5
51007,107788,5
51007,107772,6
51019,107785,4
51020,107781,4
51026,107770,5
51001,107767,5
51017,107773,5
51019,107772,5
51037,107781,4
51017,107786,5
51017,107783,5
51015,107788,5
51034,107787,5
51020,107797,4
51021,107795,5
51021,107799,5
51029,107804,5
51027,107800,5
51031,107806,4
51027,107807,5
51032,107809,5
51040,107826,5
51046,107829,5
51046,107841,4
51042,107819,5
51048,107847,5
51044,107842,6
51052,107846,6
51043,107824,2
51040,107828,5
51049,107839,5
51036,107829,5
51054,107839,4
51047,107837,5
51047,107850,5
51051,107854,5
