RED,IR,EKG,TIME
56749,120607,183366
56747,120604,0
53635,114094,4
53625,114071,5
53632,114076,4
53626,114062,5
53613,114062,5
53616,114052,5
53615,114048,4
53609,114043,5
53609,114036,4
53596,114021,5
53594,114016,5
53594,114010,6
53603,114010,3
53604,114000,5
53589,114003,5
53590,113991,5
53588,113998,4
53585,113996,5
53577,114000,5
53582,113993,5
53587,113990,5
53584,113992,4
53575,113985,5
53579,113990,5
53576,113980,5
53571,113983,5
53577,113987,4
53572,113973,5
53571,113967,5
53562,113960,5
53567,113952,4
53552,113956,4
53541,113954,6
53554,113957,4
53565,113956,5
53558,113967,4
53538,113969,5
53568,113973,5
53562,113964,5
53561,113972,5
53541,113960,4
53560,113959,5
53560,113972,5
53554,113965,5
53576,113974,5
53568,113976,4
53556,113976,5
53568,113982,5
53585,113988,5
53569,113995,5
53571,114004,4
53578,114006,5
53590,113996,5
53575,114003,5
53564,113981,4
53555,113959,4
53555,113946,5
53535,113934,6
53537,113939,4
53537,113936,4
53537,113920,5
53531,113923,5
53530,113918,5
53537,113920,5
53535,113904,4
53534,113933,5
53546,113933,5
53541,113945,5
53529,113916,5
53544,113940,4
53549,113956,5
53537,113952,5
53539,113950,5
53548,113956,5
53538,113947,4
53545,113956,5
53539,113974,5
53545,113939,5
53550,113951,5
53533,113955,4
53548,113979,5
53534,113945,5
53543,113934,6
53541,113951,3
53536,113957,4
53537,113947,5
53541,113942,5
53539,113937,5
53535,113940,4
53527,113944,5
53537,113943,5
53537,113951,5
53527,113942,5
53532,113946,4
53534,113938,5
53530,113940,5
53528,113927,5
53522,113933,5
53521,113925,4
53509,113920,5
53520,113925,5
53522,113928,5
53521,113932,5
53528,113934,5
53530,113949,4
53529,113946,5
53532,113945,5
53539,113951,6
53536,113946,3
53537,113948,5
53535,113954,5
53539,113959,5
53534,113953,4
53530,113961,5
53536,113950,5
53536,113951,5
53530,113960,5
53529,113954,4
53524,113946,5
53530,113954,5
53529,113945,5
53529,113948,5
53523,113945,4
53525,113952,5
53526,113952,5
53522,113944,5
53523,113953,5
53530,113941,4
53524,113942,6
53518,113940,4
53529,113938,5
53521,113929,5
53526,113934,4
53525,113945,5
53519,113929,5
53520,113930,5
53518,113935,4
53522,113934,4
53519,113934,5
53520,113946,5
53522,113939,5
53514,113938,4
53526,113937,5
53523,113942,5
53522,113941,5
53529,113943,5
53527,113949,4
53518,113954,5
53531,113943,5
53531,113950,5
53524,113946,5
53524,113948,4
53526,113960,5
53531,113950,6
53530,113940,4
53534,113950,5
53529,113968,4
53536,113971,5
53532,113967,5
53529,113970,5
53537,113974,4
53537,113984,4
53543,113974,5
53546,113983,5
53542,113981,5
53540,113998,4
53542,114001,5
53548,114002,5
53553,114002,5
53538,114011,5
53549,114008,4
53555,114001,5
53551,114000,5
53523,113993,5
53542,114001,5
53538,113972,4
53535,113963,5
53521,113972,5
53523,113969,6
53533,113968,4
53526,113965,4
53547,113970,5
53534,113974,5
53540,113967,5
53535,113986,5
53560,113989,4
53549,113990,5
53536,113997,5
53547,113994,5
53564,113994,4
53539,113997,4
53552,113998,5
53535,113998,5
53560,114008,5
53548,114000,4
53544,114014,5
53548,114015,5
53552,114006,5
53544,114012,5
53550,114010,5
53545,114008,4
53548,113983,5
53557,114014,5
53553,114014,5
53554,114009,4
53556,114004,5
53558,114018,5
53557,114039,5
53560,114022,5
53562,114025,4
53562,114042,5
53564,114053,5
53561,114049,5
53570,114063,5
53575,114050,4
53576,114050,5
53569,114061,5
53568,114077,5
53559,114067,4
53578,114082,5
53581,114071,5
53580,114082,5
53582,114072,5
53576,114085,4
53584,114082,6
53590,114089,3
53579,114087,5
53582,114090,5
53592,114097,4
53594,114093,5
53600,114103,5
53598,114105,5
53597,114123,5
53603,114120,4
53604,114132,5
53612,114145,5
53614,114151,5
53617,114148,5
53616,114148,4
53616,114153,5
53621,114166,5
53616,114156,5
53621,114162,4
53627,114160,4
53624,114170,5
53625,114163,5
53617,114164,5
53618,114173,4
53627,114170,5
53629,114173,6
53630,114167,4
53627,114180,5
53624,114190,4
53635,114179,5
53627,114180,5
53622,114175,5
53630,114182,5
53636,114203,4
53650,114214,5
53649,114225,5
53652,114228,5
53645,114240,5
53651,114244,4
53659,114247,5
53664,114243,5
53664,114249,5
53666,114259,5
53669,114263,4
53668,114268,5
53674,114272,5
53669,114264,5
53680,114263,4
53682,114291,4
53686,114305,5
53698,114318,5
53705,114331,5
53706,114342,4
53721,114354,5
53712,114362,5
53720,114375,5
53719,114371,5
53728,114374,4
53715,114361,5
53714,114366,5
53711,114352,5
53718,114355,5
53708,114350,4
53712,114349,5
53711,114350,5
53713,114348,5
53707,114353,5
53720,114363,4
53717,114378,5
53716,114377,5
53725,114383,5
53728,114384,5
53723,114386,4
53732,114392,5
53734,114391,5
53736,114393,5
53733,114393,4
53733,114407,5
53735,114407,5
53735,114414,5
53732,114406,5
53748,114414,4
53724,114406,5
53736,114396,5
53732,114407,5
53726,114406,5
53723,114397,4
53733,114405,5
53740,114418,5
53745,114419,5
53727,114432,5
53755,114449,4
53751,114442,5
53761,114441,5
53751,114443,5
53765,114440,5
53755,114441,5
53760,114435,4
53769,114443,5
53746,114439,5
53746,114433,4
53755,114437,4
53777,114446,5
53756,114442,5
53757,114447,5
53759,114455,4
53766,114451,5
53762,114464,5
53769,114471,5
53764,114467,5
53770,114473,4
53773,114482,5
53769,114478,5
53774,114491,5
53780,114487,5
53783,114509,4
53799,114521,5
53793,114520,6
53797,114502,4
53802,114533,5
53804,114537,4
53796,114533,5
53801,114529,5
53815,114541,5
53803,114543,5
53808,114558,5
53811,114568,4
53813,114557,5
53803,114565,5
53813,114565,4
53814,114585,4
53815,114568,5
53822,114573,5
53821,114569,5
53811,114589,4
53818,114567,5
53820,114560,5
53819,114561,5
53821,114585,5
53821,114581,4
53814,114582,5
53820,114588,5
53821,114590,6
53826,114599,4
53832,114609,4
53837,114618,5
53839,114622,5
53841,114643,5
53848,114645,5
53859,114656,4
53871,114674,5
53872,114683,5
53886,114698,5
53882,114171,5
53887,114181,4
53886,114181,5
53880,114187,5
53894,114190,5
53889,114196,4
53896,114205,5
53896,114190,5
53899,114191,5
53893,114188,5
53883,114184,5
53886,114182,4
53885,114186,5
53896,114204,5
53901,114209,6
53902,114223,3
53914,114235,5
53918,114232,5
53918,114233,5
53912,114238,5
53926,114250,4
53927,114247,5
53934,114266,5
53937,114280,5
53938,114290,5
53945,114309,4
53951,114320,5
53958,114327,5
53966,114333,5
53962,114333,4
53963,114338,4
53968,114341,5
53960,114336,5
53968,114339,5
53975,114347,4
53968,114346,6
53968,114340,4
53974,114345,5
53970,114355,5
53975,114363,6
53969,114360,3
53974,114351,5
53971,114348,5
53966,114338,5
53969,114347,4
53974,114352,5
53967,114344,5
53965,114351,5
53969,114345,5
53974,114346,4
53972,114364,5
53980,114365,5
53984,114355,5
53985,114369,5
53986,114369,4
53988,114382,5
53987,114378,5
53983,114374,5
53990,114389,4
54002,114389,4
53981,114394,6
54002,114398,4
53991,114396,5
53998,114407,4
54003,114416,5
54000,114427,5
54000,114434,5
54012,114439,5
54014,114434,4
54018,114443,5
54005,114443,5
54015,114446,5
54024,114451,5
54023,114469,4
54011,114465,5
54025,114462,5
54021,114476,5
54028,114469,5
54021,114472,4
54025,114474,5
54028,114470,5
54017,114473,5
54031,114469,5
54024,114456,4
54027,114468,5
54029,114472,6
54045,114465,4
54037,114475,4
54043,114474,5
54035,114478,5
54041,114485,5
54031,114487,5
54030,114498,4
54045,114508,5
54047,114517,5
54058,114524,5
54061,114544,5
54069,114558,4
54066,114554,5
54080,114578,5
54083,114579,5
54081,114569,5
54082,114560,4
54069,114571,5
54075,114558,5
54069,114552,5
54070,114526,5
54059,114545,4
54056,114534,5
54058,114530,5
54060,114551,5
54060,114544,4
54067,114549,4
54068,114555,5
54075,114576,5
54073,114568,5
54071,114571,4
54075,114574,5
54077,114597,5
54071,114573,5
54067,114569,5
54082,114574,4
54072,114585,5
54075,114572,5
54083,114592,5
54078,114591,5
54091,114593,4
54089,114598,5
54086,114608,5
54101,114601,5
54089,114605,5
54094,114607,5
54103,114608,4
54092,114613,5
54100,114612,5
54100,114610,6
54102,114620,3
54104,114636,5
54102,114646,5
54108,114640,5
54107,114656,4
54108,114657,4
54117,114650,5
54114,114641,5
54103,114634,5
54110,114627,4
54110,114639,5
54108,114650,5
54106,114645,5
54111,114659,5
54109,114665,4
54127,114658,5
54124,114665,5
54123,114664,5
54125,114671,5
54126,114675,4
54123,114685,6
54124,114686,4
54137,114690,5
54143,114708,5
54145,114714,4
54139,114713,5
54142,114723,5
54147,114734,5
54151,114738,5
54158,114745,4
54155,114740,5
54159,114747,5
54158,114753,5
54168,114748,4
54164,114747,4
54163,114746,5
54159,114756,5
54161,114760,5
54156,114758,4
54166,114759,5
54167,114763,5
54168,114744,5
54169,114746,5
54160,114744,4
54166,114746,5
54154,114740,6
54152,114732,4
54161,114735,5
54159,114739,4
54152,114737,5
54159,114739,5
54159,114740,5
54166,114748,5
54153,114738,4
54148,114741,5
54148,114737,5
54152,114722,5
54141,114727,5
54141,114731,4
54148,114713,5
54152,114711,5
54146,114718,5
54139,114718,4
54150,114707,5
54143,114711,5
54145,114708,5
54138,114698,5
54138,114696,4
54129,114691,5
54130,114694,5
54133,114682,6
54114,114661,4
54113,114644,4
54105,114627,5
54099,114606,5
54065,114590,5
54077,114570,5
54082,114570,4
54079,114576,5
54050,114562,5
54076,114564,5
54069,114564,5
54067,114550,4
54078,114541,5
54060,114547,5
54062,114538,5
54055,114524,4
54069,114529,4
54055,114518,5
54052,114519,5
54050,114520,5
54067,114501,5
54046,114499,4
54042,114486,5
54030,114474,5
54033,114455,5
54017,114439,4
54014,114437,5
54001,114424,5
53997,114410,5
53995,114403,5
53992,114395,4
53986,114398,5
53978,114360,5
53972,114371,5
53968,114358,5
53963,114355,4
53961,114323,5
53959,114330,5
53957,114324,5
53948,114308,5
53945,114294,4
53937,114293,5
53932,114284,5
53935,114277,5
53928,114282,4
53925,114267,5
53933,114250,4
53918,114241,5
53924,114264,5
53912,114235,4
53907,114223,5
53910,114209,5
53902,114230,5
53897,114206,5
53894,114207,4
53897,114203,5
53896,114209,5
53892,114198,5
53900,114194,5
53896,114202,4
53894,114187,5
53883,114184,5
53894,114184,5
53895,114193,5
53889,114189,4
53883,114187,5
53882,114181,5
53884,114171,5
53874,114163,4
53872,114149,4
53864,114148,6
53863,114132,4
53855,114134,5
53861,114119,4
53857,114109,5
53846,114111,5
53859,114106,5
53846,114099,5
53846,114089,4
53835,114090,5
53832,114085,5
53829,114083,5
53837,114075,5
53825,114072,4
53828,114062,5
53819,114059,5
53821,114054,5
53828,114061,5
53815,114052,4
53821,114052,5
53824,114056,5
53821,114045,5
53820,114041,5
53813,114040,4
53813,114050,5
53806,114026,5
53804,114033,5
53811,114036,4
53801,114017,4
53800,114021,5
53807,114024,5
53787,114011,5
53794,114008,4
53791,114002,5
53794,113999,5
53794,113992,5
53795,113987,5
53796,113994,4
53782,113996,5
53780,113985,5
53789,113980,5
53789,113991,5
53786,113974,4
53785,113975,5
53776,113976,5
53781,113969,5
53780,113981,5
53783,113975,4
53789,113974,5
53787,113976,5
53784,113971,5
53784,113988,5
53792,114002,4
53796,114003,5
53795,114006,5
53795,113995,5
53791,113985,4
53788,113982,4
53785,113968,5
53772,113958,5
53759,113931,5
53755,113920,4
53742,113911,8
53740,113898,3
53725,113882,4
53724,113860,5
53727,113877,4
53719,113868,5
53722,113867,5
53724,113870,5
53735,113878,5
53708,113876,5
53731,113877,3
53731,113875,5
53729,113874,5
53706,113865,5
53726,113859,4
53715,113853,5
53726,113866,5
53726,113869,5
53722,113858,5
53710,113853,4
53715,113847,5
53734,113834,5
53712,113839,5
53710,113817,4
53704,113818,5
53724,113811,5
53695,113811,5
53696,113795,5
53686,113787,4
53706,113784,5
53694,113807,6
53689,113790,4
53686,113794,5
53692,113778,4
53684,113782,7
53685,113772,3
53682,113769,5
53681,113749,5
53669,113755,4
53666,113749,5
53669,113743,5
53670,113716,5
53661,113722,5
53658,113739,4
53670,113739,5
53664,113721,5
53662,113735,5
53661,113725,4
53650,113727,5
53660,113733,4
53650,113725,5
53660,113718,5
53640,113710,4
53648,113736,5
53655,113718,5
53654,113711,6
53651,113716,4
53647,113733,4
53653,113713,5
53655,113710,5
53647,113723,5
53645,113715,5
53643,113714,4
53643,113707,5
53644,113693,5
53641,113685,5
53633,113675,5
53636,113670,4
53627,113656,5
53628,113659,5
53618,113649,5
53619,113651,5
53614,113650,4
53612,113642,5
53622,113646,5
53619,113639,5
53617,113633,5
53612,113636,4
53608,113637,5
53601,113626,5
53609,113626,6
53608,113616,3
53608,113612,5
53603,113619,5
53602,113603,5
53594,113599,5
53596,113592,4
53585,113582,5
53580,113582,5
53582,113579,5
53577,113563,5
53583,113564,4
53583,113553,5
53572,113551,5
53561,113544,5
53569,113550,5
53574,113535,4
53561,113537,5
53562,113527,5
53561,113525,5
53554,113523,5
53554,113524,5
53554,113517,4
53551,113522,5
53548,113516,5
53556,113509,6
53558,113513,3
53545,113515,5
53547,113506,5
53549,113511,5
53545,113516,4
53549,113510,5
53555,113498,5
53542,113498,5
53546,113485,5
53543,113487,4
53541,113485,5
53544,113500,5
53530,113487,5
53541,113490,5
53536,113493,4
53540,113489,5
53536,113494,5
53539,113498,5
53543,113491,5
53533,113500,4
53542,113491,6
53554,113506,4
53550,113515,5
53554,113521,5
53560,113531,4
53552,113518,5
53559,113509,5
53550,113507,5
53546,113494,4
53535,113477,5
53530,113462,5
53527,113467,5
53523,113449,5
53530,113452,4
53509,113439,5
53511,113431,5
53513,113431,5
53510,113436,5
53519,113434,4
53516,113442,5
53509,113443,5
53518,113447,5
53512,113451,5
53515,113441,4
53497,113438,5
53519,113445,6
53511,113432,4
53516,113439,5
53498,113448,4
53516,113439,5
53515,113441,5
53513,113443,5
53527,113438,4
53507,113430,4
53512,113430,5
53503,113419,5
53533,113415,5
53503,113406,4
53498,113404,5
53502,113402,5
53510,113418,5
53506,113405,5
53500,113401,4
53499,113404,5
53503,113411,5
53500,113403,5
53498,113399,5
53506,113407,4
53485,113384,5
53492,113398,5
53494,113385,6
53488,113380,4
53486,113371,4
53493,113378,5
53492,113384,5
53492,113393,5
53492,113367,5
53494,113395,4
53490,113395,5
53483,113393,5
53495,113385,5
53494,113390,4
53479,113378,4
53491,113388,5
53485,113404,5
53495,113382,5
53490,113387,4
53487,113382,5
53492,113400,5
53492,113386,5
53483,113388,5
53488,113382,5
53492,113396,4
53493,113390,5
53485,113390,5
53483,113392,6
53487,113397,3
53495,113389,5
53490,113393,5
53495,113395,5
53488,113398,5
53489,113387,4
53484,113383,5
53484,113389,5
53491,113384,5
53483,113381,5
53482,113373,4
53480,113359,5
53473,113355,5
53479,113355,5
53469,113361,4
53476,113357,5
53483,113350,5
53471,113345,5
53465,113349,5
53469,113341,4
53471,113337,6
53468,113340,4
53463,113341,5
53456,113324,5
53455,113330,4
53459,113328,5
53452,113318,5
53453,113325,5
53460,113331,5
53461,113334,4
53454,113314,5
53452,113327,5
53460,113309,5
53452,113314,5
53455,113322,4
53458,113335,5
53462,113328,5
53455,113321,5
53452,113318,4
53459,113314,4
53453,113310,5
53446,113312,5
53449,113294,5
53439,113273,4
53433,113263,5
53418,113238,6
53409,113231,4
53411,113220,5
53401,113219,4
53397,113214,5
53402,113215,5
53406,113216,5
53402,113222,5
53401,113226,4
53413,113228,5
53403,113234,5
53417,113239,5
53411,113243,5
53418,113233,4
53410,113235,5
53406,113228,5
53412,113242,5
53410,113229,5
53409,113225,4
53408,113221,5
53412,113221,5
53410,113217,5
53400,113212,4
53409,113209,4
53399,113214,5
53401,113206,6
53398,113203,4
53401,113202,4
53402,113206,5
53399,113219,5
53392,113208,5
53403,113210,5
53394,113207,4
53395,113196,5
53391,113198,5
53390,113173,5
53376,113153,5
53370,113155,4
53363,113135,5
53364,113128,5
53337,113120,5
53345,113114,5
53351,113113,4
53350,113105,5
53326,113097,5
53344,113091,5
53337,113091,5
53333,113083,4
53339,113082,5
53333,113081,5
53340,113080,5
53340,113082,4
53354,113082,4
53332,113080,5
53334,113083,5
53333,113080,5
53357,113076,4
53324,113068,5
53330,113075,5
53329,113057,5
53338,113072,5
53320,113065,4
53324,113048,5
53318,113042,5
53325,113051,5
53323,113040,5
53325,113037,4
53320,113043,6
53315,113027,4
53322,113044,5
53314,113039,5
53317,113043,6
53323,113012,3
53308,113028,5
53311,113027,5
53310,113021,5
53309,113007,4
53307,113016,5
53300,113008,5
53302,113017,5
53289,113007,4
53291,113002,4
53301,112991,5
53294,112985,5
53280,112994,5
53273,112968,4
53276,112958,5
53280,112951,5
53267,112970,5
53271,112941,5
53269,112943,4
53261,112945,5
53262,112947,5
53266,112933,5
53268,112932,5
53272,112942,4
53273,112947,6
53272,112951,4
53268,112949,5
53264,112943,5
53258,112929,4
53260,112928,5
53270,112918,5
53259,112904,5
53253,112893,5
53249,112860,4
53222,112847,5
53218,112846,5
53221,112835,5
53215,112816,4
53205,112833,4
53216,112831,5
53210,112825,5
53214,112835,5
53220,112849,4
53228,112858,5
53222,112855,5
53225,112857,5
53220,112857,5
53224,112856,4
53225,112862,5
53231,112867,6
53225,112865,4
53232,112864,5
53235,112880,4
53237,112880,5
53237,112881,5
53248,112879,5
53252,112888,5
53243,112885,4
53241,112879,5
53240,112875,5
53241,112880,5
53241,112886,4
53247,112884,4
53240,112889,5
53241,112889,5
53252,112893,5
53246,112900,4
53254,112894,5
53245,112895,5
53243,112893,5
53243,112880,5
53239,112875,4
53237,112875,5
53234,112867,5
53232,112888,5
53235,112892,5
53246,112888,4
53251,112900,5
53247,112908,5
53255,112905,5
53254,112925,5
53251,112917,4
53263,112929,5
53265,112943,5
53271,112938,5
53270,112946,5
53267,112952,4
53274,112947,5
53276,112962,5
53281,112966,5
53282,112962,4
53281,112980,4
53289,112984,4
53291,112998,5
53292,113004,5
53294,113019,6
53309,113017,3
53307,113027,5
53310,113030,5
53310,113029,5
53310,113031,4
53314,113023,5
53306,113031,5
53313,113038,5
53310,113040,5
53296,113042,4
53317,113028,5
53314,113029,5
53321,113033,5
53294,113031,5
53315,113029,4
53307,113033,5
53319,113040,5
53312,113055,5
53326,113057,5
53329,113077,4
53336,113072,6
53348,113088,4
53334,113100,5
53349,113111,4
53360,113124,6
53387,113136,3
53372,113162,5
53380,113173,5
53386,113190,4
53399,113187,5
53383,113190,5
53386,113189,5
53393,113193,5
53387,113197,4
53376,113176,5
53376,113161,5
53375,113159,5
53375,113150,5
53363,113159,4
53365,113162,5
53369,113163,5
53377,113148,5
53383,113179,5
53384,113179,4
53398,113199,5
53393,113193,6
53393,113210,4
53401,113220,5
53407,113223,5
53405,113235,4
53409,113224,5
53410,113227,5
53411,113239,4
53410,113263,4
53413,113242,5
53417,113247,5
53416,113249,5
53414,113270,4
53419,113246,5
53422,113239,5
53415,113250,5
53416,113256,5
53415,113249,4
53425,113268,5
53433,113258,5
53420,113276,5
53440,113281,5
53432,113295,4
53450,113299,5
53440,113293,5
53438,113297,6
53441,113296,4
53440,113301,4
53436,113292,5
53440,113299,5
53430,113294,5
53450,113290,4
53440,113293,4
53439,113306,5
53446,113311,5
53444,113319,5
53454,113331,4
53457,113333,5
53460,113333,5
53461,113342,5
53459,113343,5
53467,113353,4
53462,113353,5
53469,113363,5
53481,113379,5
53476,113373,5
53482,113390,5
53486,113390,4
53483,113379,5
53485,113392,5
53492,113401,6
53490,113389,3
53487,113404,5
53492,113409,5
53487,113394,5
53492,113391,5
53488,113394,4
53495,113403,5
53497,113405,5
53491,113402,5
53493,113407,4
53501,113413,5
53497,113408,5
53499,113419,5
53503,113415,5
53507,113433,4
53498,113427,5
53514,113437,5
53502,113441,5
53508,113430,5
53513,113433,4
53519,113451,6
53521,113447,4
53512,113467,5
53529,113475,5
53530,113493,4
53549,113511,5
53551,113527,5
53557,113543,5
53560,113541,5
53556,113543,4
53562,113551,5
53562,113544,5
53562,113535,5
53554,113527,4
53551,113529,4
53558,113529,5
53550,113518,5
53548,113521,5
53556,113523,4
53563,113531,5
53559,113544,5
53573,113552,5
53569,113566,5
53574,113566,4
53575,113578,5
53584,113587,6
53585,113594,4
53586,113591,5
53583,113596,4
53593,113604,5
53575,113619,5
53600,113621,5
53596,113626,5
53598,113631,4
53591,113634,5
53608,113640,5
53607,113631,5
53612,113636,5
53609,113636,4
53616,113658,5
53619,113663,5
53620,113657,5
53635,113663,4
53625,113675,4
53623,113682,5
53631,113687,5
53655,113688,5
53642,113702,4
53645,113696,5
53647,113722,5
53667,113721,6
53641,113723,4
53646,113723,4
53658,113723,5
53656,113732,5
53659,113740,5
53661,113751,5
53670,113761,4
53679,113774,5
53682,113791,5
53681,113807,5
53694,113802,5
53694,113789,4
53689,113827,5
53697,113818,5
53695,113816,5
53692,113812,4
53704,113833,4
53705,113836,5
53714,113846,5
53718,113864,5
53709,113861,5
53728,113869,4
53728,113882,5
53728,113909,5
53728,113889,6
53735,113890,3
53725,113885,5
53729,113905,5
53729,113875,5
53736,113891,5
53729,113899,4
53730,113897,5
53731,113896,5
53731,113906,5
53737,113903,5
53740,113910,4
53744,113913,5
53753,113918,5
53744,113918,5
53729,113905,5
53743,113909,4
53733,113906,5
53734,113914,5
53737,113912,5
53746,113914,4
53741,113913,5
53743,113925,4
53754,113932,5
53761,113941,5
53759,113933,4
53760,113936,5
53755,113932,5
53750,113934,5
53750,113918,5
53739,113911,4
53737,113906,5
53731,113890,5
53728,113896,5
53724,113879,5
53722,113869,4
53724,113871,5
53726,113877,5
53727,113876,5
53732,113882,5
53727,113887,4
53733,113894,5
53735,113905,5
53738,113897,5
53734,113896,4
53726,113890,4
53735,113891,6
53733,113896,4
53739,113899,5
53736,113890,4
53732,113890,5
53730,113884,5
53734,113892,5
53737,113890,5
53728,113877,4
53726,113878,5
53719,113873,5
53727,113868,5
53726,113868,5
53725,113867,4
53717,113865,5
53723,113860,5
53715,113864,5
53715,113864,5
53718,113855,4
53707,113845,5
53711,113845,5
53708,113838,5
53702,113824,5
53703,113816,4
53693,113810,5
53682,113807,6
53691,113806,4
53690,113804,4
53688,113807,4
53693,113810,5
53695,113808,5
53684,113802,5
53687,113805,4
53684,113807,5
53692,113780,5
53677,113777,5
53678,113783,5
53683,113794,4
53685,113786,5
53676,113782,5
53680,113784,5
53676,113784,5
53675,113782,4
53687,113766,5
53675,113778,5
53682,113779,5
53667,113779,5
53681,113772,4
53669,113769,5
53668,113788,5
53656,113783,5
53674,113779,5
53670,113785,4
53681,113781,5
53663,113775,5
53669,113769,5
53670,113768,4
53671,113756,4
53670,113759,5
53663,113768,5
53664,113761,5
53661,113754,4
53687,113754,5
53666,113750,5
53668,113760,5
53658,113746,5
53682,113747,4
53658,113746,5
53649,113758,5
53657,113749,5
53667,113741,5
53656,113732,5
53658,113738,4
53660,113743,5
53649,113727,5
53656,113733,5
53651,113723,4
53642,113716,5
53648,113709,5
53649,113720,5
53647,113716,5
53640,113723,4
53648,113681,5
53643,113698,5
53638,113700,5
53637,113701,5
53630,113699,4
53644,113699,5
53641,113703,5
53643,113696,5
53639,113727,4
53636,113705,5
53639,113709,5
53630,113711,5
53653,113738,5
53653,113720,4
53642,113734,6
53651,113739,4
53652,113748,5
53656,113720,5
53648,113713,4
53635,113706,5
53633,113674,5
53612,113665,5
53617,113653,5
53608,113645,4
53608,113626,5
53599,113614,5
53586,113611,5
53591,113619,5
53586,113612,4
53605,113614,5
53598,113626,5
53601,113618,5
53597,113627,4
53601,113622,4
53590,113617,5
53598,113617,5
53588,113620,5
53588,113619,4
53593,113617,5
53596,113616,7
53603,113621,3
53597,113620,5
53595,113619,4
53602,113620,5
53600,113620,5
53590,113618,5
53594,113619,5
53599,113615,4
53590,113608,5
53602,113614,5
53593,113612,5
53591,113622,5
53588,113611,4
53586,113624,5
53593,113625,5
53593,113626,5
53597,113608,5
53595,113620,4
53594,113612,5
53594,113614,5
53588,113609,5
53595,113605,3
53589,113612,4
53599,113614,5
53585,113613,5
53596,113626,5
53597,113614,4
53596,113608,5
53601,113611,5
53595,113614,5
53589,113603,5
53590,113613,4
53584,113607,5
53594,113609,5
53595,113607,5
53591,113612,5
53597,113613,4
53593,113614,5
53601,113615,5
53594,113626,5
53588,113615,5
53598,113616,5
53601,113612,4
53588,113610,5
53587,113598,5
53589,113601,6
53592,113593,3
53585,113593,5
53592,113589,5
53592,113595,5
53577,113592,4
53585,113598,4
53579,113598,5
53588,113602,5
53593,113600,5
53588,113606,4
53595,113597,5
53585,113613,5
53593,113603,5
53595,113607,5
53578,113595,4
53575,113608,8
53588,113605,2
53577,113601,5
53571,113594,5
53567,113598,4
53580,113590,6
53580,113585,4
53576,113588,5
53562,113579,5
53570,113584,6
53579,113575,3
53575,113578,5
53572,113573,5
53573,113576,5
53582,113580,4
53582,113562,5
53588,113567,5
53574,113569,5
53578,113567,4
53567,113573,4
53592,113568,5
53569,113567,5
53566,113558,5
53562,113548,4
53584,113561,5
53565,113563,5
53568,113556,5
53563,113559,5
53569,113550,4
53560,113551,5
53560,113549,6
53558,113536,4
53559,113529,5
53562,113550,4
53560,113545,5
53559,113540,5
53556,113515,5
53557,113533,5
53556,113541,4
53552,113528,5
53558,113520,5
53550,113526,5
53555,113537,5
53552,113523,5
53545,113534,4
53542,113517,5
53539,113523,5
53542,113518,4
53538,113530,5
53541,113498,5
53534,113516,5
53539,113498,5
53534,113520,4
53537,113508,5
53534,113491,5
53529,113500,6
53532,113509,4
53539,113500,4
53531,113490,5
53537,113492,5
53538,113492,5
53536,113497,5
53533,113498,4
53537,113499,5
53536,113501,5
53539,113492,5
53538,113501,5
53534,113491,4
53527,113486,5
53535,113487,5
53525,113470,5
53527,113476,4
53525,113478,4
53527,113473,5
53524,113478,5
53516,113473,5
53518,113471,5
53520,113475,4
53526,113481,5
53527,113465,5
53522,113476,6
53521,113463,3
53518,113468,5
53525,113471,5
53523,113482,5
53530,113489,5
53525,113498,4
53537,113500,5
53538,113498,5
53535,113496,5
53521,113490,5
53525,113477,4
53509,113447,5
53503,113428,5
53495,113424,5
53491,113417,5
53488,113409,4
53482,113401,5
53484,113385,5
53486,113401,5
53486,113404,4
53491,113397,5
53485,113404,4
53496,113406,5
53490,113411,5
53493,113411,6
53491,113412,3
53494,113411,5
53498,113407,5
53488,113403,5
53486,113411,4
53496,113410,5
53489,113414,5
53504,113407,5
53491,113413,5
53487,113401,4
53495,113406,5
53490,113401,5
53476,113399,5
53486,113402,5
53483,113387,4
53484,113388,5
53482,113384,5
53474,113380,5
53478,113388,5
53478,113384,4
53487,113394,6
53479,113389,4
53481,113388,5
53489,113388,4
53477,113393,4
53491,113396,5
53471,113389,5
53486,113398,5
53481,113396,4
53478,113387,5
53482,113375,5
53472,113372,5
53470,113373,5
53474,113377,4
53478,113388,5
53465,113385,5
53474,113393,5
53482,113388,5
53480,113393,4
53458,113392,5
53487,113395,5
53481,113392,5
53480,113384,5
53463,113407,4
53478,113412,5
53484,113394,6
53480,113412,4
53492,113400,5
53480,113400,4
53479,113409,5
53494,113393,5
53496,113390,5
53486,113386,4
53480,113390,4
53472,113377,5
53497,113375,5
53470,113373,5
53472,113378,4
53476,113389,5
53486,113377,5
53476,113385,5
53482,113376,5
53475,113397,4
53479,113393,5
53485,113400,5
53486,113401,5
53484,113400,5
53479,113376,4
53488,113406,5
53491,113400,5
53478,113401,5
53489,113375,5
53485,113396,4
53481,113390,5
53474,113385,5
53490,113385,5
53477,113392,5
53487,113391,4
53473,113384,5
53479,113393,5
53476,113385,5
53477,113378,4
53478,113383,4
53472,113408,5
53481,113385,5
53482,113384,5
53481,113376,4
53479,113399,5
53479,113389,5
53477,113405,5
53491,113422,5
53498,113432,5
53489,113434,4
53493,113424,5
53498,113422,5
53497,113403,5
53484,113403,4
53484,113391,5
53470,113380,5
53464,113365,5
53455,113339,5
53460,113350,4
53456,113347,5
53456,113338,5
53451,113328,5
53445,113330,5
53457,113338,4
53452,113327,5
53454,113327,5
53455,113339,5
53456,113346,4
53455,113353,4
53464,113355,5
53466,113364,5
53462,113361,5
53466,113362,4
53479,113394,56
53487,113398,5
53478,113404,2
53490,113402,5
53498,113421,4
53475,113433,5
53508,113433,5
53504,113448,5
53519,113463,5
53520,113461,4
53511,113467,5
53517,113459,5
53513,113465,5
53521,113456,4
53521,113463,4
53512,113465,6
53514,113469,4
53514,113470,5
53526,113469,4
53526,113477,5
53532,113493,5
53523,113498,5
53532,113493,5
53534,113510,4
53542,113521,5
53547,113527,5
53549,113533,5
53557,113545,5
53551,113549,4
53567,113543,5
53558,113556,5
53559,113562,5
53565,113566,5
53572,113585,4
53575,113570,5
53573,113588,5
53583,113603,5
53584,113616,5
53592,113628,4
53594,113634,5
53599,113648,6
53604,113657,4
53615,113676,4
53630,113681,4
53622,113686,5
53623,113690,5
53626,113697,5
53629,113695,4
53624,113699,5
53625,113699,5
53634,113702,5
53633,113708,5
53609,113703,4
53637,113696,5
53633,113708,5
53633,113704,5
53617,113711,5
53641,113713,5
53638,113727,4
53641,113726,5
53630,113723,5
53637,113730,5
53645,113722,4
53644,113729,5
53669,113727,5
53651,113743,5
53656,113745,5
53659,113746,4
53683,113750,5
53670,113754,5
53664,113754,5
53656,113755,4
53676,113752,4
53657,113747,5
53655,113730,5
53640,113729,5
53639,113715,4
53637,113708,5
53632,113692,5
53625,113692,5
53627,113679,5
53634,113699,4
53638,113703,5
53638,113719,5
53653,113717,5
53639,113722,5
53651,113727,5
53643,113740,4
53643,113716,5
53653,113742,5
53659,113756,5
53668,113766,4
53666,113779,5
53669,113785,5
53672,113794,5
53672,113793,5
53676,113823,4
53678,113802,5
53675,113800,5
53690,113812,5
53688,113839,4
53694,113821,5
53691,113814,5
53696,113827,5
53687,113838,5
53696,113842,4
53707,113848,5
53706,113849,5
53707,113872,5
53716,113881,5
53714,113884,4
53717,113890,6
53725,113894,4
53732,113891,5
53725,113897,5
53719,113893,4
53727,113899,5
53734,113906,5
53737,113915,5
53732,113931,5
53743,113930,4
53749,113931,5
53744,113933,5
53758,113952,5
53751,113958,4
53762,113963,4
53751,113972,5
53765,113968,5
53766,113972,5
53764,113984,4
53766,113987,5
53781,114006,5
53782,114026,5
53782,114031,4
53792,114048,4
53795,114029,5
53791,114036,5
53789,114041,5
53799,114041,5
53794,114044,4
53811,114049,5
53805,114053,5
53808,114052,5
53809,114053,5
53807,114059,4
53805,114055,5
53813,114074,5
53815,114062,5
53811,114069,5
53820,114077,4
53817,114080,5
53814,114082,5
53827,114083,5
53827,114099,5
53824,114100,4
53829,114106,5
53828,114104,5
53830,114116,6
53829,114121,3
53832,114125,5
53845,114136,5
53844,114142,5
53849,114154,5
53852,114165,4
53865,114176,5
53866,114175,5
53869,114171,5
53864,114162,5
53866,114168,4
53862,114170,5
53857,114154,5
53843,114157,5
53854,114154,5
53850,114151,4
53856,114150,5
53854,114155,5
53853,114157,5
53855,114159,5
53870,114174,5
53872,114195,4
53868,114198,5
53877,114206,5
53878,114208,6
53874,114203,3
53880,114214,5
53876,114220,5
53887,114217,5
53893,114225,4
53889,114224,5
53873,114234,5
53893,114238,5
53904,114230,5
53897,114236,4
53886,114236,5
53892,114238,5
53897,114250,5
53895,114247,5
53881,114241,4
53897,114248,5
53904,114251,5
53905,114249,5
53913,114267,5
53907,114280,4
53912,114280,6
53910,114282,4
53933,114282,5
53918,114277,5
53917,114288,6
53919,114289,3
53938,114287,5
53917,114293,5
53918,114296,4
53934,114312,4
53932,114311,5
53936,114324,5
53937,114326,5
53931,114330,4
53945,114338,5
53943,114335,5
53946,114346,5
53949,114344,5
53955,114336,4
53947,114336,5
53953,114355,5
53958,114355,5
53954,114341,5
53957,114368,5
53969,114367,4
53959,114379,6
53965,114358,4
53965,114378,5
53966,114384,4
53968,114381,5
53964,114389,5
53960,114378,5
53956,114383,5
53960,114375,4
53959,114397,5
53954,114376,5
53961,114368,5
53967,114371,4
53951,114394,4
53964,114361,5
53956,114369,5
53957,114353,5
53955,114359,4
53948,114353,5
53953,114355,5
53955,114341,5
53950,114351,5
53952,114349,4
53953,114342,5
53943,114343,5
53937,114338,6
53929,114328,4
53931,114327,4
53933,114326,5
53932,114330,5
53939,114332,5
53944,114330,5
53942,114330,4
53934,114335,5
53944,114336,5
53943,114327,5
53939,114319,5
53934,114323,4
53932,114306,5
53919,114283,5
53911,114267,5
53907,114250,4
53899,114253,4
53887,114229,5
53889,114233,5
53884,114223,5
53891,114225,5
53885,114228,4
53889,114240,5
53895,114238,5
53893,114236,6
53888,114234,3
53883,114229,5
53886,114222,5
53885,114214,5
53889,114208,5
53889,114214,4
53880,114216,5
53885,114224,5
53880,114211,5
53883,114208,5
53870,114201,4
53866,114196,5
53872,114184,5
53863,114170,5
53853,114159,5
53851,114144,4
53846,114133,5
53844,114119,5
53832,114105,5
53833,114109,4
53827,114104,5
53823,114100,4
53819,114115,5
53822,114094,5
53816,114093,4
53819,114093,5
53818,114085,5
53817,114079,5
53811,114074,5
53809,114058,4
53803,114050,5
53802,114031,5
53792,114015,5
53792,114026,5
53785,114012,4
53781,113992,5
53765,113992,5
53764,113980,5
53765,113956,5
53752,113950,4
53745,113941,5
53751,113937,5
53742,113931,5
53749,113925,5
53748,113926,4
53742,113909,6
53735,113905,4
53735,113908,5
53728,113900,4
53730,113889,4
53726,113893,5
53712,113881,5
53716,113874,5
53718,113877,4
53717,113865,5
53686,113854,5
53712,113844,5
53706,113854,5
53694,113846,4
53682,113834,5
53705,113831,5
53693,113835,5
53696,113842,5
53705,113828,4
53698,113832,5
53699,113832,5
53696,113840,5
53720,113838,5
53697,113847,4
53704,113834,5
53700,113846,6
53717,113839,4
53703,113836,5
53699,113846,4
53697,113845,5
53696,113846,5
53694,113844,5
53690,113845,4
53703,113840,4
53702,113834,5
53707,113846,5
53700,113836,5
53700,113822,4
53689,113809,5
53698,113838,5
53693,113828,5
53696,113840,5
53697,113826,4
53704,113844,5
53706,113851,5
53704,113865,5
53716,113865,5
53718,113872,4
53724,113882,5
53721,113889,5
53722,113901,6
53716,113880,4
53718,113871,4
53706,113865,5
53703,113871,5
53703,113843,5
53692,113835,5
53687,113827,4
53683,113832,5
53678,113807,5
53684,113799,5
53682,113799,4
53680,113802,4
53685,113818,5
53691,113822,5
53683,113817,5
53694,113816,4
53680,113808,5
53686,113814,5
53682,113817,5
53684,113808,5
53680,113806,5
53686,113806,4
53679,113809,5
53679,113806,5
53684,113803,5
53679,113798,4
53669,113792,5
53667,113785,5
53671,113787,5
53669,113783,5
53665,113772,4
53665,113771,5
53668,113769,5
53663,113771,5
53669,113764,5
53668,113777,4
53664,113775,5
53669,113776,5
53656,113771,5
53664,113761,4
53658,113757,4
53648,113738,5
53646,113734,5
53640,113730,5
53644,113716,4
53643,113725,6
53641,113711,4
53644,113719,5
53632,113709,5
53638,113712,4
53637,113710,5
53629,113702,5
53623,113706,5
53638,113704,5
53633,113707,4
53631,113701,5
53621,113704,5
53634,113696,5
53627,113694,5
53625,113695,4
53623,113690,5
53626,113690,5
53622,113700,5
53624,113684,5
53613,113670,4
53608,113674,5
53616,113673,5
53613,113664,5
53611,113675,4
53620,113662,4
53616,113658,6
53609,113666,4
53616,113667,5
53604,113662,4
53618,113672,5
53621,113662,5
53609,113665,5
53611,113649,5
53604,113642,4
53601,113657,5
53601,113643,5
53604,113640,5
53606,113637,5
53599,113625,4
53587,113618,5
53595,113624,5
53601,113628,5
53591,113615,5
53588,113621,4
53585,113621,5
53590,113614,5
53592,113618,5
53589,113616,5
53592,113619,4
53586,113619,5
53591,113621,5
53574,113615,5
53582,113614,4
53582,113608,4
53580,113622,5
53571,113618,5
53581,113608,5
53593,113611,4
53589,113618,5
53585,113622,5
53590,113623,5
53589,113617,5
53588,113624,4
53618,113644,5
53593,113647,5
53599,113644,5
53606,113644,5
53628,113641,4
53598,113655,5
53611,113640,5
53599,113630,5
53618,113650,5
53605,113646,4
53599,113641,5
53603,113637,5
53592,113641,5
53599,113634,5
53603,113647,4
53595,113636,5
53599,113640,5
53605,113644,5
53605,113651,4
53609,113660,4
53597,113626,5
53605,113655,5
53601,113646,5
53603,113646,4
53601,113634,5
53597,113651,5
53601,113646,5
53604,113650,5
53613,113660,4
53608,113666,6
53619,113679,4
53622,113677,5
53608,113694,5
53607,113672,6
53602,113646,3
53610,113657,5
53598,113661,5
53592,113639,5
53590,113622,4
53588,113618,5
53583,113615,5
53581,113608,5
53580,113595,5
53585,113599,4
53581,113598,5
53576,113606,5
53580,113609,5
53582,113611,4
53585,113611,5
53588,113611,5
53587,113617,5
53597,113616,5
53589,113612,4
53592,113620,5
53576,113612,6
53583,113617,4
53587,113618,5
53586,113615,4
53585,113608,7
53584,113606,3
53585,113612,5
53580,113601,5
53580,113595,4
53578,113591,5
53578,113586,5
53574,113589,5
53566,113579,5
53562,113579,4
53566,113579,5
53569,113589,5
53569,113585,5
53566,113577,4
53566,113574,4
53567,113569,5
53564,113567,5
53566,113568,5
53553,113565,4
53563,113550,5
53564,113555,5
53564,113561,6
53553,113551,4
53563,113567,4
53559,113577,5
53562,113574,5
53572,113575,5
53564,113574,5
53571,113580,4
53562,113571,5
53559,113572,5
53565,113569,5
53560,113573,5
53568,113571,4
53573,113589,5
53573,113580,5
53567,113570,5
53564,113585,5
53568,113589,4
53562,113581,5
53573,113578,5
53582,113585,5
53571,113581,5
53569,113586,4
53577,113589,5
53573,113595,5
53570,113591,6
53581,113594,3
53585,113589,5
53573,113599,5
53579,113592,5
53566,113598,5
53580,113591,4
53569,113590,5
53568,113586,5
53578,113585,5
53568,113586,5
53565,113579,4
53572,113584,5
53568,113580,5
53571,113577,5
53565,113587,5
53572,113582,7
53562,113591,2
53563,113581,5
53573,113579,5
53585,113571,5
53558,113567,5
53556,113566,4
53562,113570,5
53557,113563,5
53536,113558,6
53567,113566,3
53565,113559,5
53562,113553,5
53550,113565,5
53565,113559,4
53560,113560,5
53560,113567,5
53572,113569,5
53561,113570,5
53559,113561,4
53556,113570,5
53594,113557,5
53569,113572,5
53568,113565,5
53557,113570,4
53586,113577,5
53556,113576,5
53569,113585,5
53572,113589,5
53581,113600,4
53581,113594,6
53576,113599,4
53580,113592,5
53577,113592,5
53571,113595,4
53565,113583,5
53563,113569,5
53559,113537,5
53550,113545,5
53555,113544,4
53546,113535,5
53547,113507,5
53540,113526,5
53543,113526,4
53536,113527,5
53532,113527,5
53547,113529,5
53547,113530,5
53552,113540,4
53550,113558,5
53544,113529,5
53546,113532,5
53548,113528,5
53543,113552,4
53542,113524,5
53550,113523,6
53543,113526,4
53541,113545,5
53542,113515,4
53547,113518,5
53537,113512,5
53539,113514,5
53533,113501,5
53534,113509,4
53532,113499,5
53532,113505,5
53535,113501,5
53539,113500,4
53535,113499,4
53530,113493,5
53529,113498,5
53528,113501,5
53531,113493,4
53523,113478,5
53515,113468,5
53506,113454,5
53497,113447,5
53494,113423,4
53493,113407,5
53492,113408,5
53488,113412,6
53485,113416,4
53480,113411,4
53477,113418,5
53486,113403,5
53480,113396,5
53479,113405,5
53486,113403,4
53479,113404,5
53481,113409,5
53488,113412,5
53483,113407,5
53486,113407,4
53487,113408,5
53480,113410,5
53486,113411,5
53485,113409,4
53489,113417,5
53480,113414,5
53494,113421,5
53494,113431,5
53503,113437,5
53492,113438,4
53493,113448,5
53498,113436,5
53491,113435,6
53500,113443,3
53501,113439,5
53513,113454,5
53502,113450,5
53497,113442,5
53497,113440,4
53492,113436,5
53497,113436,5
53491,113437,5
53493,113424,5
53490,113432,4
53488,113429,5
53490,113432,5
53488,113443,5
53498,113436,4
53509,113449,4
53497,113440,5
53499,113447,5
53503,113449,5
53511,113461,4
53514,113460,6
53512,113467,4
53507,113470,5
53510,113465,5
53516,113477,4
53514,113472,5
53506,113467,5
53508,113459,5
53511,113461,5
53503,113465,4
53503,113465,5
53509,113454,5
53505,113463,5
53512,113459,5
53510,113464,4
53507,113469,5
53504,113472,5
53508,113467,5
53503,113468,5
53509,113471,4
53498,113465,5
53523,113472,5
53519,113485,5
53519,113484,4
53511,113504,4
53541,113517,6
53532,113524,4
53544,113539,5
53538,113544,4
53549,113543,5
53547,113534,5
53550,113536,5
53558,113534,5
53540,113522,4
53536,113513,5
53532,113506,5
53549,113508,5
53529,113513,5
53528,113493,4
53526,113497,5
53540,113499,5
53535,113516,5
53535,113524,5
53549,113526,4
53546,113543,5
53551,113550,5
53559,113557,5
53554,113565,5
53559,113545,4
53563,113574,5
53560,113576,6
53566,113583,4
53572,113565,4
53568,113580,4
53572,113588,5
53576,113603,5
53584,113587,5
53582,113607,5
53576,113615,4
53583,113607,5
53587,113615,5
53575,113618,5
53591,113634,4
53585,113633,5
53595,113664,5
53605,113658,5
53605,113655,5
53617,113668,4
53615,113671,5
53608,113675,5
53615,113676,5
53616,113672,5
53608,113671,4
53609,113676,5
53615,113679,5
53619,113675,5
53616,113674,5
53620,113698,4
53625,113705,5
53630,113720,5
53632,113717,5
53631,113721,4
53641,113727,4
53642,113740,5
53649,113750,5
53648,113756,5
53645,113750,4
53650,113766,5
53659,113769,5
53663,113769,5
53667,113779,5
53668,113782,4
53674,113796,5
53679,113806,5
53680,113816,5
53690,113829,5
53692,113835,5
53699,113840,4
53700,113847,5
53704,113857,5
53701,113868,5
53702,113854,4
53705,113853,5
53713,113862,5
53705,113869,5
53707,113879,4
53715,113875,4
53707,113880,5
53708,113882,5
53714,113875,5
53710,113870,4
53716,113873,5
53713,113880,5
53717,113880,5
53708,113883,5
53714,113886,4
53721,113885,5
53716,113868,5
53717,113879,5
53713,113887,5
53720,113883,4
53720,113885,6
53713,113890,4
53718,113899,5
53723,113905,5
53723,113902,4
53724,113903,5
53736,113915,5
53740,113921,5
53746,113944,5
53746,113948,4
53748,113962,5
53753,113963,5
53753,113956,5
53751,113959,4
53751,113963,4
53754,113967,5
53754,113951,5
53741,113953,5
53743,113943,4
53737,113940,5
53753,113933,5
53734,113939,5
53738,113942,5
53748,113956,4
53756,113965,5
53760,113977,6
53766,113989,4
53768,113998,5
53778,114000,4
53775,114012,5
53787,114018,5
53774,114030,5
53784,114034,5
53787,114033,4
53787,114046,5
53799,114043,5
53781,114052,5
53799,114044,5
53798,114048,4
53804,114058,5
53782,114052,5
53804,114056,5
53793,114051,4
53807,114052,4
53801,114070,5
53797,114066,5
53808,114063,5
53811,114080,4
53833,114090,5
53815,114087,5
53817,114093,5
53820,114097,5
53835,114097,4
53806,114090,5
53815,114098,5
53819,114091,5
53826,114083,5
53823,114096,4
53824,114096,5
53813,114098,5
53832,114110,5
53834,114123,5
53848,114133,4
53839,114143,5
53846,114141,5
53845,114152,5
53856,114167,4
53863,114173,4
53859,114158,4
53866,114188,5
53868,114190,5
53869,114206,6
53868,114201,3
53881,114213,5
53884,114232,5
53885,114234,5
53891,114240,4
53891,114246,5
53891,114243,5
53886,114251,5
53890,114278,5
53900,114266,4
53893,114266,5
53901,114259,5
53904,114287,5
53902,114276,5
53912,114285,4
53912,114279,5
53919,114308,5
53914,114299,5
53923,114297,5
53923,114302,4
53927,114305,6
53915,114303,4
53920,114297,5
53922,114308,4
53926,114310,6
53924,114311,3
53922,114316,5
53929,114324,5
53930,114317,4
53932,114324,5
53932,114317,5
53932,114329,5
53938,114337,5
53943,114340,4
53946,114361,5
53948,114365,5
53959,114379,5
53967,114391,5
53971,114406,4
53973,114400,5
53974,114405,5
53971,114406,5
53967,114413,5
53968,114397,4
53957,114392,5
53959,114382,6
53952,114382,4
53963,114377,5
53969,114385,4
53972,114387,5
53970,114405,5
53966,114417,5
53975,114435,4
53978,114451,4
53986,114448,5
53987,114460,5
53996,114462,5
53993,114462,4
54010,114471,5
54008,114481,5
54011,114490,5
54010,114490,5
54015,114510,4
54020,114502,5
54025,114513,5
54023,114522,5
54023,114515,5
54025,114506,4
54020,114507,5
54023,114516,5
54016,114513,6
54028,114517,4
54023,114517,4
54021,114516,5
54022,114516,5
54038,114530,5
54030,114531,5
54035,114538,4
54044,114537,5
54037,114545,5
54044,114539,5
54044,114547,4
54040,114529,4
54028,114543,5
54034,114537,5
54039,114536,5
54042,114548,4
54041,114551,5
54044,114562,5
54052,114556,5
54048,114565,5
54063,114574,5
54054,114579,4
54064,114585,5
54059,114587,5
54055,114598,6
54059,114610,3
54067,114614,5
54074,114625,5
54065,114624,5
54073,114627,5
54065,114635,4
54080,114634,5
54084,114644,5
54078,114642,5
54070,114641,5
54087,114642,4
54087,114643,5
54085,114640,5
54065,114637,5
54079,114630,4
54085,114630,4
54072,114617,5
54081,114620,5
54071,114622,5
54079,114617,4
54074,114614,6
54088,114611,4
54067,114602,5
54073,114607,5
54079,114611,7
54078,114600,2
54063,114601,5
54067,114601,5
54066,114596,5
54067,114593,4
54056,114598,5
54058,114579,5
54049,114572,5
54056,114561,5
54053,114566,4
54053,114561,5
54049,114567,5
54049,114553,5
54049,114562,5
54052,114572,4
54052,114569,5
54047,114547,5
54049,114573,5
54044,114556,4
54038,114552,4
54045,114542,6
54027,114530,4
54021,114508,5
54013,114501,4
54011,114491,5
53993,114470,5
53998,114453,5
53985,114458,5
53997,114480,4
53999,114458,5
53999,114472,5
53993,114464,5
54005,114473,5
53999,114466,4
53999,114455,5
53997,114446,5
53990,114442,5
53994,114444,5
53986,114445,4
53991,114444,5
53992,114432,5
53990,114443,5
53980,114432,5
53978,114431,4
53977,114418,5
53976,114407,6
53972,114401,4
53958,114390,4
53958,114376,5
53957,114380,5
53946,114364,5
53947,114351,5
53948,114345,4
53942,114343,5
53940,114344,5
53937,114341,5
53929,114327,5
53923,114327,4
53931,114314,5
53927,114304,5
53924,114301,5
53916,114296,5
53922,114283,4
53918,114299,5
53907,114280,5
53916,114286,5
53904,114285,5
53908,114279,4
53903,114279,5
53908,114273,5
53901,114264,6
53904,114252,3
53896,114248,4
53892,114247,5
53887,114253,5
53891,114247,5
53896,114255,4
53899,114262,5
53890,114253,5
53891,114262,5
53899,114254,5
53889,114253,4
53895,114254,5
53891,114243,5
53890,114249,5
53894,114249,5
53894,114241,4
53887,114241,5
53884,114245,5
53884,114227,5
53885,114227,5
53883,114223,5
53880,114215,4
53871,114222,5
53876,114208,5
53875,114213,5
53869,114198,4
53871,114213,5
53874,114203,5
53868,114197,5
53869,114193,4
53862,114205,4
53865,114200,5
53871,114196,5
53865,114192,5
53860,114195,4
53860,114187,5
53866,114195,5
53854,114197,5
53867,114193,5
53863,114190,4
53864,114189,5
53864,114189,5
53858,114185,5
53863,114173,5
53855,114181,4
53859,114173,6
53839,114168,4
53855,114162,5
53846,114153,5
53845,114160,4
53835,114162,5
53839,114152,5
53846,114140,5
53837,114148,5
53817,114144,4
53843,114148,5
53840,114151,5
53849,114150,5
53844,114158,4
53838,114168,4
53845,114147,5
53837,114155,5
53860,114144,5
53842,114144,4
53833,114138,5
53836,114133,5
53856,114136,5
53832,114137,5
53824,114128,4
53839,114124,5
53835,114124,6
53833,114123,4
53834,114122,5
53822,114121,4
53825,114107,5
53821,114107,5
53819,114104,5
53818,114094,5
53818,114075,4
53814,114095,5
53814,114088,5
53803,114079,5
53811,114060,5
53802,114075,4
53800,114078,5
53806,114072,5
53801,114047,5
53797,114059,5
53797,114057,4
53801,114052,5
53800,114063,5
53797,114056,6
53801,114063,3
53794,114064,5
53793,114078,5
53798,114058,7
53789,114064,3
53800,114062,4
53798,114065,5
53791,114047,5
53786,114038,5
53788,114034,5
53782,114042,4
53786,114022,5
53785,114029,5
53776,114026,5
53770,114025,5
53775,114027,4
53771,114010,5
53774,114009,5
53775,114000,5
53769,113995,5
53759,113996,4
53773,114005,5
53775,114009,5
53770,114015,5
53776,114024,5
53785,114029,4
53787,114032,5
53784,114033,5
53791,114020,5
53784,114009,4
53769,113999,5
53764,113983,5
53742,113947,5
53737,113941,5
53738,113934,4
53732,113920,5
53720,113905,5
53717,113897,5
53715,113896,5
53713,113893,4
53718,113889,5
53718,113889,5
53716,113894,5
53723,113888,5
53716,113893,4
53709,113888,5
53712,113893,5
53721,113897,5
53707,113886,5
53714,113898,5
53717,113898,4
53723,113897,5
53710,113896,5
53717,113883,4
53712,113885,4
53704,113882,5
53721,113870,5
53702,113876,5
53693,113870,4
53704,113865,5
53699,113878,5
53699,113868,5
53705,113869,5
53701,113871,4
53708,113868,5
53699,113866,5
53707,113872,5
53706,113865,5
53713,113873,4
53704,113870,5
53698,113865,5
53696,113867,5
53700,113861,5
53692,113855,4
53691,113835,6
53686,113828,4
53683,113831,5
53680,113836,5
53678,113832,4
53689,113844,5
53699,113840,5
53694,113841,5
53688,113841,4
53685,113832,4
53680,113836,5
53684,113825,5
53687,113827,5
53694,113821,4
53685,113823,5
53688,113822,5
53685,113811,5
53674,113814,5
53674,113825,4
53679,113814,5
53685,113804,5
53670,113817,5
53677,113821,4
53678,113808,4
53668,113802,5
53661,113810,5
53675,113799,5
53672,113806,5
53673,113795,4
53649,113783,5
53668,113783,5
53658,113788,5
53666,113779,5
53665,113773,4
53653,113769,5
53650,113765,5
53649,113763,5
53677,113756,4
53649,113749,4
53642,113741,5
53642,113730,5
53658,113743,5
53644,113743,5
53642,113730,4
53638,113728,5
53654,113731,5
53634,113731,6
53621,113728,3
53627,113715,5
53627,113722,5
53630,113721,5
53626,113712,5
53636,113711,4
53626,113685,5
53629,113702,5
53625,113700,5
53619,113689,5
53605,113671,4
53615,113682,5
53613,113676,5
53612,113676,5
53611,113661,5
53605,113662,4
53603,113668,5
53604,113660,5
53607,113674,5
53601,113665,4
53594,113659,5
53593,113658,4
53592,113677,5
53599,113651,5
53593,113665,6
53597,113657,3
53592,113672,5
53597,113662,5
53604,113662,5
53611,113671,4
53612,113674,5
53615,113674,5
53605,113660,5
53601,113652,5
53599,113654,4
53594,113641,5
53578,113624,5
53569,113598,5
53576,113588,5
53555,113566,4
53554,113569,5
53546,113562,5
53551,113550,5
53549,113543,5
53549,113561,4
53557,113556,6
53561,113574,4
53562,113573,5
53558,113578,4
53560,113574,6
53557,113582,3
53565,113575,5
53561,113575,5
53556,113576,4
53574,113573,5
53565,113579,5
53563,113569,5
53565,113570,5
53558,113568,4
53557,113566,5
53558,113578,5
53548,113564,5
53557,113559,5
53544,113549,4
53547,113545,5
53549,113552,5
53544,113549,5
53547,113543,5
53550,113548,4
53551,113547,5
53550,113551,6
53552,113545,4
53552,113537,5
53549,113533,4
53537,113536,5
53533,113527,5
53540,113526,5
53527,113521,4
53538,113518,4
53535,113514,5
53526,113507,5
53529,113505,5
53526,113507,4
53531,113514,5
53528,113513,5
53525,113518,5
53528,113526,5
53535,113514,4
53530,113528,5
53530,113516,5
53533,113512,5
53529,113512,5
53530,113506,4
53536,113512,5
53526,113505,5
53528,113512,6
53522,113511,4
53530,113507,4
53525,113516,5
53530,113517,5
53523,113523,5
53530,113528,4
53539,113523,4
53534,113528,5
53536,113535,5
53547,113534,5
53542,113541,4
53536,113533,5
53543,113542,5
53536,113540,5
53538,113535,5
53532,113534,7
53537,113542,3
53542,113539,4
53542,113543,5
53545,113550,5
53538,113541,5
53539,113547,4
53542,113548,5
53526,113550,5
53539,113549,6
53545,113560,3
53538,113560,5
53548,113558,5
53555,113571,5
53552,113568,5
53558,113570,4
53574,113577,5
53566,113585,5
53557,113580,5
53559,113576,4
53580,113582,4
53564,113577,5
53557,113584,5
53558,113587,5
53583,113597,4
53567,113594,5
53569,113592,5
53565,113594,5
53574,113597,5
53564,113601,4
53573,113605,6
53569,113604,4
53579,113599,5
53572,113597,5
53567,113598,4
53572,113599,5
53569,113586,5
53569,113612,5
53576,113613,5
53579,113625,4
53583,113610,5
53585,113643,5
53588,113643,5
53593,113655,5
53596,113669,4
53602,113665,5
53608,113678,5
53613,113701,5
53611,113733,4
53637,113722,4
53635,113728,5
53628,113727,5
53631,113749,5
53630,113733,4
53633,113730,5
53637,113713,6
53626,113719,4
53621,113699,5
53619,113711,4
53623,113701,5
53624,113711,5
53622,113707,5
53624,113713,5
53627,113709,4
53619,113713,5
53619,113720,5
53628,113722,5
53637,113725,5
53634,113726,4
53637,113739,5
53632,113734,5
53632,113735,5
53641,113750,5
53639,113740,4
53644,113762,5
53653,113770,5
53666,113782,5
53656,113790,4
53665,113791,4
53661,113797,5
53667,113810,6
53665,113803,4
53676,113819,4
53677,113825,5
53689,113822,5
53681,113833,5
53682,113832,5
53684,113833,4
53689,113835,5
53687,113846,5
53693,113857,5
53704,113845,5
53694,113857,4
53701,113857,5
53695,113853,5
53696,113856,5
53694,113868,5
53705,113870,4
53707,113867,5
53705,113865,5
53707,113874,5
53705,113892,5
53717,113887,4
53712,113897,5
53718,113901,5
53724,113914,6
53720,113911,3
53734,113926,4
53730,113931,5
53738,113938,5
53735,113947,5
53739,113941,4
53742,113947,5
53739,113947,5
53743,113954,5
53733,113956,5
53739,113957,4
53748,113959,5
53744,113962,5
53751,113963,5
53736,113967,5
53743,113968,4
53749,113969,5
53758,113979,5
53752,113977,5
53748,113983,5
53757,113986,5
53761,113992,4
53759,113987,5
53766,114004,5
53761,114006,5
53769,114000,4
53766,113997,5
53768,114007,5
53772,114004,5
53766,114011,4
53772,114010,4
53764,114014,5
53769,114028,5
53786,114032,5
53780,114037,4
53766,114035,5
53786,114039,5
53787,114058,5
53796,114065,5
53784,114068,4
53807,114071,5
53807,114085,5
53812,114099,5
53792,114098,5
53814,114097,4
53816,114097,6
53820,114109,4
53833,114124,5
53821,114126,5
53830,114146,4
53851,114152,5
53864,114174,5
53847,114167,5
53847,114176,5
53848,114168,4
53875,114149,5
53844,114154,5
53841,114145,5
53840,114138,4
53828,114133,5
53833,114141,5
53832,114139,5
53828,114135,5
53827,114125,4
53842,114151,5
53844,114149,5
53840,114145,5
53837,114134,5
53845,114155,4
53844,114160,5
53850,114157,6
53843,114134,4
53847,114160,5
53845,114163,4
53845,114156,5
53847,114132,5
53826,114136,5
53820,114118,5
53814,114104,4
53811,114106,5
53810,114084,5
53797,114075,5
53803,114059,5
53793,114075,4
53790,114035,5
53783,114033,5
53785,114033,5
53772,114031,4
53770,114025,5
53770,114010,5
53770,114005,5
53767,113993,5
53764,113994,4
53763,113995,5
53761,113987,5
53755,113982,5
53756,113981,5
53755,113984,4
53765,113991,5
53769,114006,5
53774,114012,5
53772,114006,5
53784,114025,4
53783,114025,5
53785,114035,5
53790,114050,5
53790,114053,5
53796,114051,4
53799,114062,5
53802,114067,5
53802,114061,5
53806,114078,4
53806,114098,4
53811,114106,5
53817,114123,5
53828,114122,5
53832,114131,5
53841,114149,4
53833,114149,5
53839,114159,5
53848,114155,5
53849,114172,4
53848,114169,5
53853,114175,5
53868,114182,5
53856,114190,5
53865,114194,4
53866,114203,5
53868,114209,5
53872,114218,5
53869,114210,5
53873,114209,4
53872,114212,5
53876,114226,5
53870,114235,5
53879,114229,5
53877,114225,4
53889,114234,5
53869,114233,5
53883,114233,5
53882,114238,4
53876,114243,5
53873,114235,4
53883,114261,5
53891,114264,5
53907,114285,4
53905,114295,5
53920,114309,5
53919,114318,5
53914,114311,5
53921,114314,4
53922,114307,5
53917,114303,5
53906,114307,5
53901,114294,5
53904,114290,4
53908,114287,5
53900,114273,5
53901,114286,5
53908,114291,5
53905,114292,4
53916,114314,5
53921,114323,6
53918,114331,4
53929,114335,5
53928,114334,4
53933,114343,7
53937,114330,3
53936,114332,5
53930,114341,4
53941,114342,4
53936,114340,5
53929,114344,5
53933,114333,5
53933,114338,4
53924,114331,5
53920,114327,5
53921,114327,5
53920,114318,5
53916,114321,4
53896,114320,5
53923,114313,5
53919,114317,5
53918,114320,5
53909,114310,4
53918,114307,5
53920,114307,5
53903,114283,6
53916,114289,4
53896,114280,4
53889,114255,5
53878,114229,5
53893,114224,5
53865,114210,5
53861,114184,4
53863,114181,5
53863,114179,5
53843,114174,5
53841,114161,4
53833,114135,4
53830,114107,5
53818,114101,5
53815,114104,5
53812,114089,4
53811,114072,5
53801,114088,5
53811,114075,5
53793,114069,5
53792,114041,5
53794,114055,4
53798,114055,5
53786,114047,5
53790,114031,6
53778,114036,4
53777,114031,4
53773,114013,5
53778,114024,5
53771,114000,5
53765,114000,4
53764,113996,5
53752,114002,5
53760,113980,5
53755,113978,5
53749,113974,4
53745,113982,5
53745,113952,5
53747,113955,5
53733,113948,4
53735,113962,4
53737,113948,5
53732,113925,5
53723,113934,5
53725,113924,4
53728,113929,6
53723,113911,4
53725,113920,5
53723,113908,5
53719,113918,6
53720,113905,3
53719,113895,5
53715,113901,5
53715,113896,5
53714,113887,4
53706,113880,5
53713,113882,5
53708,113865,5
53703,113874,5
53694,113854,4
53677,113821,5
53676,113823,5
53680,113802,5
53661,113794,5
53658,113789,4
53656,113788,5
53667,113795,5
53667,113789,5
53669,113799,4
53668,113796,4
53671,113806,6
53677,113803,4
53657,113805,5
53654,113794,4
53660,113793,5
53666,113792,5
53668,113790,5
53670,113799,5
53668,113797,4
53668,113803,5
53657,113799,5
53656,113783,5
53655,113797,5
53658,113779,4
53650,113771,5
53652,113772,5
53644,113756,5
53648,113760,5
53639,113746,4
53637,113734,5
53629,113744,5
53631,113738,5
53625,113732,5
53636,113733,4
53627,113736,5
53627,113723,6
53623,113719,4
53626,113703,4
53613,113692,4
53623,113686,5
53609,113688,5
53611,113681,5
53604,113687,4
53614,113680,5
53610,113680,5
53617,113676,5
53610,113676,5
53609,113687,4
53611,113681,5
53611,113677,5
53616,113672,5
53609,113679,5
53601,113670,4
53606,113682,5
53609,113680,5
53605,113681,5
53603,113680,5
53610,113691,4
53618,113682,5
53614,113690,5
53613,113686,6
53605,113693,4
53613,113686,4
53610,113683,5
53613,113690,5
53602,113696,5
53621,113695,4
53621,113691,4
53623,113706,5
53594,113694,5
53620,113700,5
53625,113712,4
53632,113712,5
53606,113712,5
53621,113716,5
53620,113716,5
53628,113703,4
53627,113709,5
53622,113692,5
53609,113699,5
53613,113697,5
53640,113695,5
53617,113696,4
53613,113693,5
53615,113704,5
53629,113700,6
53614,113699,3
53614,113706,5
53617,113688,5
53627,113699,5
53616,113693,5
53619,113700,4
53621,113710,5
53620,113695,5
53620,113710,5
53618,113700,4
53614,113705,4
53611,113682,5
53612,113705,5
53620,113712,5
53621,113716,4
53631,113703,5
53626,113721,5
53631,113715,5
53629,113725,5
53623,113704,4
53616,113697,6
53612,113686,4
53606,113674,5
53604,113687,5
53603,113662,4
53602,113669,5
53604,113670,5
53604,113695,5
53606,113671,5
53614,113683,4
53612,113700,5
53613,113699,5
53612,113684,5
53603,113678,4
53611,113686,4
53611,113687,5
53603,113684,5
53614,113696,5
53609,113691,4
53617,113690,5
53611,113700,5
53622,113701,5
53617,113684,5
53608,113683,4
53604,113676,5
53614,113679,6
53607,113676,4
53601,113669,5
53603,113672,4
53604,113666,5
53607,113668,5
53603,113674,5
53600,113676,5
53608,113679,4
53612,113685,5
53607,113668,5
53604,113678,5
53600,113668,5
53591,113661,4
53599,113667,5
53607,113662,5
53602,113659,5
53601,113669,4
53606,113676,4
53609,113674,5
53600,113671,5
53604,113668,5
53609,113687,4
53608,113684,5
53605,113678,5
53617,113689,6
53616,113686,4
53604,113678,4
53602,113684,5
53612,113687,5
53616,113692,5
53614,113692,5
53614,113695,4
53611,113692,5
53614,113684,5
53615,113687,5
53614,113683,5
53614,113682,4
53612,113696,5
53618,113696,5
53610,113691,5
53612,113695,5
53614,113705,4
53624,113704,5
53626,113700,5
53619,113701,5
53627,113708,5
53622,113695,4
53615,113712,5
53621,113699,5
53618,113692,5
53617,113688,4
53615,113696,5
53612,113678,5
53612,113685,5
53612,113689,5
53613,113681,4
53611,113678,5
53604,113677,5
53606,113674,5
53603,113679,5
53605,113665,4
53600,113677,5
53609,113670,5
53602,113675,5
53602,113671,5
53608,113677,4
53604,113674,5
53614,113674,5
53602,113661,5
53598,113672,5
53598,113664,5
53609,113669,4
53605,113672,5
53611,113667,5
53586,113672,4
53608,113678,4
53611,113681,5
53614,113694,5
53597,113687,5
53623,113703,4
53609,113691,5
53607,113695,5
53605,113683,5
53602,113665,5
53599,113655,4
53595,113635,5
53606,113610,5
53578,113610,5
53568,113602,5
53570,113589,4
53588,113588,5
53566,113588,6
53572,113592,4
53573,113604,5
53581,113602,4
53584,113605,6
53577,113607,4
53575,113604,5
53575,113603,5
53577,113592,4
53569,113599,5
53561,113607,5
53571,113575,5
53562,113593,4
53567,113594,4
53561,113587,5
53576,113571,5
53565,113589,5
53564,113578,4
53559,113571,5
53552,113554,5
53557,113568,5
53552,113568,5
53556,113554,4
53550,113571,5
53550,113565,5
53552,113563,5
53549,113569,5
53555,113590,4
53552,113563,5
53549,113558,5
53543,113556,5
53544,113563,5
53542,113547,4
53540,113528,5
53542,113538,5
53538,113543,5
53542,113534,5
53538,113546,4
53542,113541,5
53528,113530,5
53537,113531,5
53533,113538,4
53532,113534,5
53539,113528,5
53542,113545,5
53543,113544,5
53537,113548,4
53539,113557,5
53537,113546,5
53543,113555,5
53538,113549,5
53546,113559,4
53537,113553,5
53540,113543,5
53545,113540,5
53548,113550,5
53545,113553,4
53546,113547,5
53550,113541,5
53536,113554,5
53534,113542,5
53537,113539,4
53535,113544,5
53542,113545,5
53540,113542,5
53544,113548,4
53538,113549,4
53546,113553,5
53545,113547,5
53546,113537,5
53541,113545,4
53547,113541,5
53539,113545,4
53534,113548,5
53539,113543,5
53532,113545,5
53533,113539,3
53528,113535,5
53530,113521,5
53534,113528,5
53538,113532,4
53542,113526,5
53542,113531,5
53538,113537,5
53543,113538,5
53540,113540,4
53533,113537,5
53536,113535,5
53542,113544,5
53541,113546,5
53542,113544,4
53532,113549,5
53532,113529,5
53540,113527,5
53539,113531,4
53539,113537,4
53534,113537,6
53538,113531,4
53536,113534,5
53537,113533,4
53535,113523,7
53530,113530,3
53535,113532,5
53533,113521,5
53531,113525,4
53533,113524,5
53533,113529,5
53521,113527,5
53535,113542,5
53539,113532,4
53529,113532,5
53538,113535,5
53536,113545,5
53542,113533,5
53541,113526,4
53537,113535,5
53536,113534,5
53536,113537,5
53534,113535,5
53528,113533,4
53519,113534,5
53534,113530,6
53537,113535,4
53540,113532,4
53515,113544,4
53526,113529,5
53531,113520,5
53532,113527,5
53521,113529,4
53536,113526,5
53531,113528,5
53536,113524,5
53541,113533,5
53526,113529,4
53532,113535,5
53524,113526,5
53553,113533,5
53529,113529,5
53527,113528,4
53531,113536,5
53553,113542,5
53528,113533,5
53537,113532,5
53542,113531,4
53535,113533,5
53539,113541,5
53534,113547,6
53539,113559,4
53541,113552,4
53545,113568,5
53543,113572,5
53555,113576,5
53554,113561,4
53549,113568,4
53548,113557,5
53536,113555,5
53536,113499,5
53530,113504,5
53525,113511,4
53524,113513,5
53520,113490,5
53516,113488,5
53514,113478,4
53499,113476,5
53508,113499,5
53506,113481,5
53507,113478,5
53504,113491,5
53510,113506,4
53510,113492,5
53520,113482,5
53514,113488,6
53514,113492,3
53515,113487,5
53524,113491,5
53514,113484,5
53509,113500,4
53520,113479,4
53509,113479,5
53500,113478,5
53505,113469,5
53501,113468,4
53490,113457,5
53495,113453,5
53489,113450,5
53495,113459,5
53484,113449,4
53500,113457,5
53501,113457,5
53492,113464,5
53498,113455,5
53483,113446,4
53480,113437,6
53480,113414,4
53474,113409,5
53474,113406,5
53463,113401,4
53475,113414,5
53470,113411,5
53476,113415,5
53474,113424,5
53482,113429,4
53480,113430,5
53475,113429,5
53490,113439,5
53494,113430,4
53486,113439,5
53484,113445,5
53487,113442,5
53485,113443,5
53497,113447,4
53489,113445,5
53494,113462,5
53499,113466,5
53498,113461,5
53506,113459,4
53495,113470,5
53508,113466,6
53506,113472,4
53512,113478,5
53507,113479,4
53507,113481,5
53513,113481,5
53502,113487,5
53508,113488,5
53522,113486,4
53519,113489,5
53517,113500,5
53517,113503,5
53510,113489,4
53505,113497,4
53512,113497,5
53519,113507,5
53523,113500,5
53513,113500,4
53507,113494,5
53514,113497,5
53519,113495,5
53515,113494,5
53517,113499,4
53520,113503,5
53515,113493,5
53514,113498,6
53512,113507,4
53519,113507,4
53520,113518,5
53528,113520,5
53528,113533,5
53532,113533,5
53542,113538,4
53537,113538,5
53540,113545,5
53541,113554,5
53545,113565,5
53557,113566,4
53549,113574,5
53558,113578,5
53540,113594,5
53565,113606,7
53573,113623,2
53585,113635,4
53573,113658,5
53613,113672,5
53593,113675,5
53601,113672,4
53594,113666,5
53603,113666,5
53604,113671,6
53591,113648,3
53601,113649,5
53588,113647,5
53582,113655,5
53593,113655,5
53614,113661,4
53587,113668,5
53599,113659,5
53599,113664,5
53617,113681,5
53595,113671,4
53604,113673,5
53602,113664,5
53612,113686,5
53608,113682,4
53609,113671,4
53603,113676,5
53602,113676,5
53608,113684,5
53613,113697,4
53616,113694,6
53621,113696,4
53621,113715,5
53630,113724,5
53631,113725,4
53632,113702,5
53639,113736,5
53632,113741,5
53639,113752,5
53647,113758,4
53643,113770,5
53653,113765,5
53655,113785,5
53652,113800,5
53650,113771,4
53650,113768,5
53656,113775,5
53662,113797,5
53652,113772,5
53653,113784,4
53653,113778,5
53658,113795,5
53651,113802,5
53664,113798,4
53670,113796,5
53672,113811,6
53668,113822,4
53671,113823,5
53672,113836,4
53676,113849,5
53677,113846,5
53694,113852,5
53686,113851,5
53695,113860,4
53690,113868,5
53695,113872,5
53699,113876,5
53709,113890,5
53702,113897,4
53710,113898,5
53711,113903,5
53707,113904,5
53715,113899,5
53721,113914,4
53723,113921,5
53717,113921,5
53730,113928,5
53728,113941,4
53733,113943,4
53728,113961,5
53735,113961,6
53751,113962,4
53738,113957,4
53736,113956,5
53739,113964,5
53742,113957,5
53743,113957,5
53742,113970,4
53744,113969,5
53746,113959,5
53749,113977,5
53751,113983,5
53757,113989,4
53754,113995,5
53756,114006,5
53764,114019,5
53769,114033,5
53773,114020,4
53787,114037,5
53781,114048,5
53785,114061,5
53805,114079,5
53809,114098,4
53808,114095,5
53816,114121,5
53813,114117,5
53833,114122,4
53823,114113,5
53810,114114,5
53813,114121,5
53817,114113,5
53815,114096,4
53805,114098,5
53797,114088,5
53803,114081,5
53803,114086,5
53798,114082,4
53805,114088,5
53808,114081,5
53805,114097,5
53813,114103,5
53817,114115,4
53812,114116,5
53818,114123,5
53825,114120,5
53823,114121,5
53819,114120,5
53820,114125,4
53820,114125,5
53820,114137,5
53830,114148,4
53842,114147,5
53817,114152,5
53843,114151,5
53831,114149,5
53833,114156,4
53813,114147,5
53838,114152,5
53829,114149,5
53836,114142,5
53814,114149,4
53835,114159,5
53837,114149,5
53831,114167,5
53838,114158,5
53840,114155,4
53839,114158,5
53834,114156,5
53851,114156,5
53831,114155,5
53835,114167,4
53837,114159,6
53851,114159,4
53839,114175,5
53838,114183,4
53852,114184,4
53865,114197,5
53860,114196,5
53851,114208,5
53859,114205,4
53872,114212,5
53872,114224,5
53874,114231,5
53876,114234,5
53886,114239,4
53880,114260,5
53893,114267,5
53895,114266,5
53894,114265,5
53909,114290,5
53910,114291,4
53900,114294,5
53901,114295,5
53906,114303,5
53908,114305,4
53904,114308,5
53912,114318,5
53908,114315,5
53917,114327,4
53922,114339,4
53921,114354,5
53935,114349,5
53932,114346,5
53935,114345,4
53934,114368,5
53940,114360,5
53934,114359,5
53939,114358,5
53946,114372,4
53943,114368,5
53943,114374,5
53945,114366,5
53934,114368,5
53943,114369,4
53942,114376,5
53935,114378,5
53947,114366,5
53939,114373,6
53947,114375,3
53947,114385,5
53959,114407,5
53963,114411,5
53965,114416,5
53967,114423,4
53973,114436,5
53970,114443,5
53976,114439,5
53983,114422,4
53975,114430,4
53975,114424,5
53970,114422,5
53955,114404,5
53950,114411,4
53953,114390,5
53946,114381,5
53949,114376,5
53945,114377,5
53950,114385,4
53954,114390,5
53956,114406,4
53961,114406,5
53966,114414,5
53965,114413,6
53968,114415,3
53965,114416,5
53969,114422,5
53964,114419,5
53964,114412,4
53961,114409,5
53963,114412,5
53956,114413,5
53961,114408,4
53958,114404,4
53960,114393,5
53958,114399,5
53952,114397,5
53951,114388,4
53949,114384,5
53940,114378,5
53947,114379,5
53939,114367,5
53933,114359,4
53940,114368,5
53936,114370,6
53935,114363,4
53941,114356,5
53934,114354,4
53929,114349,7
53929,114345,3
53918,114333,5
53921,114320,5
53929,114322,4
53911,114323,5
53917,114320,5
53914,114316,5
53906,114306,5
53906,114303,4
53910,114306,5
53908,114298,5
53896,114292,5
53902,114279,4
53896,114285,4
53883,114267,5
53890,114274,5
53888,114273,5
53886,114275,4
53890,114269,5
53881,114263,5
53881,114254,6
53880,114251,4
53884,114255,4
53886,114246,5
53880,114246,5
53861,114240,5
53869,114239,5
53881,114231,4
53869,114224,5
53848,114220,5
53869,114219,5
53863,114208,5
53864,114206,4
53856,114205,5
53867,114197,5
53858,114207,5
53855,114200,5
53871,114205,4
53852,114193,5
53854,114190,5
53849,114187,5
53864,114175,5
53856,114174,4
53844,114164,5
53841,114165,5
53839,114148,6
53830,114142,3
53830,114140,5
53829,114138,5
53828,114129,5
53817,114130,5
53815,114120,4
53813,114125,5
53817,114100,5
53814,114115,5
53818,114112,5
53814,114107,4
53817,114091,5
53814,114119,5
53813,114119,5
53816,114108,5
53816,114094,4
53811,114106,5
53806,114105,5
53814,114109,5
53819,114128,4
53819,114120,5
53816,114110,4
53804,114100,5
53804,114119,5
53806,114095,6
53799,114085,3
53796,114053,5
53781,114067,5
53784,114045,5
53769,114015,4
53757,114014,5
53761,114015,5
53765,114001,5
53760,113992,5
53759,114001,4
53761,114006,5
53759,114008,5
53759,113998,5
53760,114007,5
53760,113987,4
53752,113997,5
53750,113980,5
53754,113977,5
53751,113985,5
53750,113987,4
53755,113981,6
53756,113990,4
53753,113977,5
53750,113983,4
53760,113971,4
53749,113969,5
53743,113971,5
53748,113974,5
53741,113966,4
53741,113962,5
53741,113966,5
53749,113965,5
53734,113956,5
53739,113961,4
53737,113964,5
53736,113977,5
53743,113953,5
53733,113942,5
53735,113945,4
53735,113939,5
53720,113922,5
53720,113912,5
53716,113913,5
53717,113910,4
53714,113905,5
53716,113906,6
53720,113899,4
53721,113914,5
53715,113909,4
53714,113909,5
53714,113908,5
53711,113897,5
53719,113904,4
53710,113904,4
53706,113894,5
53698,113890,5
53705,113892,5
53704,113878,4
53699,113872,5
53695,113874,5
53694,113875,5
53689,113871,5
53695,113865,4
53701,113874,5
53693,113869,5
53695,113867,5
53694,113857,5
53694,113871,4
53697,113864,5
53690,113862,5
53687,113861,6
53689,113862,4
53688,113858,4
53688,113856,5
53689,113849,5
53680,113840,5
53684,113849,5
53687,113844,4
53690,113843,5
53685,113838,5
53688,113849,5
53684,113842,4
53688,113853,4
53689,113849,5
53682,113836,5
53674,113850,5
53683,113833,4
53679,113830,5
53683,113848,5
53680,113833,5
53672,113823,5
53655,113823,5
53670,113827,4
53669,113817,5
53671,113805,5
53643,113821,6
53665,113822,3
53665,113817,5
53668,113814,5
53650,113811,5
53662,113813,5
53671,113813,4
53684,113813,5
53675,113817,5
53672,113820,5
53674,113824,5
53662,113815,4
53696,113823,5
53672,113820,5
53673,113820,5
53666,113808,4
53687,113809,4
53667,113809,5
53672,113809,5
53668,113809,5
53665,113810,4
53674,113805,6
53665,113800,4
53665,113803,5
53665,113802,5
53662,113803,4
53656,113794,5
53661,113795,5
53664,113794,5
53666,113803,5
53655,113794,4
53660,113800,5
53659,113784,5
53662,113809,5
53664,113809,5
53662,113800,4
53659,113807,5
53669,113814,5
53673,113829,5
53674,113845,5
53678,113846,4
53679,113844,5
53681,113844,5
53679,113827,5
53676,113842,4
53660,113806,4
53664,113803,6
53657,113780,4
53650,113780,5
53645,113770,4
53645,113755,5
53638,113765,5
53635,113749,5
53633,113755,5
53631,113759,4
53638,113757,5
53646,113766,5
53647,113778,5
53645,113785,5
53659,113788,4
53648,113787,5
53655,113796,5
53654,113779,5
53645,113789,5
53654,113792,4
53652,113785,5
53654,113791,5
53657,113777,5
53650,113785,5
53657,113776,4
53645,113766,5
53643,113763,6
53634,113760,4
53645,113756,4
53642,113757,4
53641,113756,5
53638,113761,5
53640,113749,5
53640,113752,4
53631,113752,5
53638,113755,5
53629,113748,5
53634,113751,5
53638,113753,4
53646,113747,5
53635,113740,5
53631,113747,5
53636,113743,5
53629,113740,4
53627,113736,5
53632,113743,5
53627,113744,5
53634,113732,5
53635,113745,4
53636,113741,5
53633,113742,5
53627,113741,5
53636,113740,5
53631,113731,4
53634,113744,5
53632,113739,5
53629,113736,5
53630,113746,4
53630,113750,4
53631,113751,5
53637,113754,5
53631,113760,5
53635,113747,4
53639,113753,5
53634,113749,5
53630,113763,5
53637,113753,5
53638,113745,4
53626,113748,5
53639,113742,5
53625,113741,5
53621,113740,5
53637,113742,5
53626,113741,4
53631,113722,5
53621,113735,5
53622,113728,5
53624,113730,4
53616,113725,5
53620,113722,5
53626,113717,5
53621,113710,5
53617,113725,4
53618,113719,5
53618,113713,5
53617,113713,5
53618,113708,4
53615,113709,4
53620,113700,5
53615,113698,5
53608,113703,5
53608,113701,4
53592,113697,5
53608,113695,5
53607,113696,4
53600,113690,5
53592,113693,4
53611,113689,6
53609,113684,4
53609,113690,5
53599,113699,5
53612,113693,4
53602,113709,5
53611,113700,5
53625,113698,5
53606,113695,5
53606,113697,4
53607,113684,5
53628,113691,5
53595,113678,5
53601,113687,5
53604,113684,4
53617,113681,5
53607,113685,5
53603,113676,5
53609,113692,4
53606,113681,4
53606,113682,5
53598,113682,5
53598,113672,5
53601,113659,4
53592,113669,5
53589,113654,6
53591,113652,4
53586,113638,5
53590,113645,5
53584,113639,4
53586,113646,5
53589,113624,5
53573,113632,5
53584,113639,4
53593,113655,5
53582,113672,5
53599,113678,5
53604,113682,5
53607,113688,4
53597,113688,5
53594,113673,5
53600,113662,5
53580,113652,5
53578,113660,4
53568,113617,5
53572,113609,5
53566,113605,5
53561,113598,3
53554,113567,4
53557,113573,5
53546,113573,5
53551,113583,5
53554,113588,4
53557,113595,5
53557,113593,5
53552,113594,5
53562,113591,5
53565,113598,4
53560,113598,5
53562,113599,5
53564,113598,5
53560,113606,5
53562,113596,4
53565,113607,5
53562,113599,5
53555,113595,5
53564,113591,5
53560,113578,5
53549,113576,4
53552,113579,5
53560,113569,5
53552,113577,6
53545,113577,3
53546,113571,5
53554,113580,5
53540,113587,5
53546,113576,4
53554,113586,4
53548,113576,5
53546,113578,5
53557,113573,5
53550,113566,4
53541,113559,5
53543,113560,5
53535,113556,5
53541,113553,5
53537,113556,4
53544,113551,5
53535,113545,5
53540,113548,5
53544,113561,5
53548,113549,4
53543,113551,6
53535,113555,4
53541,113555,5
53547,113556,5
53536,113562,6
53537,113559,3
53547,113568,5
53536,113558,5
53548,113572,5
53542,113574,4
53544,113573,5
53550,113577,5
53552,113583,5
53558,113592,4
53549,113580,4
53555,113586,5
53555,113586,5
53552,113589,5
53559,113588,4
53557,113583,5
53561,113595,5
53557,113593,5
53554,113586,5
53559,113595,4
53553,113591,5
53561,113591,6
53548,113593,4
53557,113592,5
53555,113593,4
53560,113592,5
53559,113593,5
53551,113587,5
53563,113597,5
53549,113590,4
53556,113598,5
53556,113592,5
53555,113598,5
53555,113590,5
53564,113595,4
53553,113595,5
53549,113603,5
53560,113595,5
53555,113601,4
53562,113605,4
53546,113610,5
53564,113611,5
53561,113617,5
53563,113622,4
53551,113629,5
53585,113634,5
53576,113625,6
53578,113642,4
53576,113648,4
53585,113640,5
53581,113652,5
53581,113656,5
53599,113645,5
53585,113652,4
53588,113653,5
53584,113651,5
53605,113652,5
53581,113649,5
53576,113639,4
53578,113658,5
53593,113659,5
53577,113645,5
53592,113658,5
53588,113658,4
53602,113659,5
53586,113663,5
53591,113661,5
53594,113674,5
53594,113663,4
53603,113670,5
53598,113685,5
53600,113685,6
53598,113656,3
53604,113691,5
53615,113713,5
53614,113712,5
53620,113706,5
53614,113731,5
53617,113726,4
53625,113727,5
53620,113736,5
53610,113707,5
53613,113706,4
53603,113702,5
53597,113723,5
53613,113689,5
53608,113683,5
53596,113677,4
53601,113699,5
53603,113681,5
53603,113702,5
53606,113704,5
53614,113712,5
53612,113714,4
53618,113723,5
53615,113726,5
53631,113730,6
53629,113735,3
53624,113733,5
53627,113747,5
53638,113742,5
53640,113744,4
53631,113748,5
53628,113759,5
53630,113759,5
53626,113763,5
53641,113756,4
53629,113747,5
53637,113759,5
53628,113762,5
53641,113766,5
53633,113762,4
53639,113762,5
53635,113767,5
53642,113770,5
53638,113768,5
53643,113776,4
53655,113779,6
53645,113780,4
53653,113778,5
53647,113776,5
53649,113780,4
53649,113777,5
53648,113776,5
53641,113768,5
53639,113764,4
53639,113770,4
53645,113777,5
53648,113763,5
53637,113783,5
53646,113771,4
53631,113767,5
53640,113769,5
53641,113767,5
53647,113772,5
53642,113770,4
53645,113770,5
53644,113781,5
53645,113789,5
53652,113793,5
53658,113791,4
53658,113802,5
53657,113800,6
53674,113816,4
53670,113814,5
53665,113822,4
53672,113823,5
53678,113827,5
53667,113838,5
53674,113829,4
53676,113832,4
53675,113837,5
53678,113845,5
53684,113841,5
53687,113856,4
53688,113862,5
53688,113867,5
53694,113879,5
53695,113880,5
53706,113896,4
53710,113902,5
53704,113902,5
53707,113914,5
53711,113905,5
53710,113920,4
53717,113926,5
53713,113917,5
53715,113939,6
53718,113929,4
53730,113933,4
53719,113925,5
53706,113941,5
53730,113929,8
53723,113932,5
53729,113936,7
53737,113972,8
53737,113972,5
53758,113983,7
53736,113978,8
53766,114012,9
53769,114044,10
53769,114044,10
53771,114034,10
53789,114009,9
53789,114009,9
53765,114007,8
53761,113997,7
53776,114038,8
53776,114038,7
53762,114044,5
53786,114052,8
53786,114064,7
53784,114050,7
53799,114055,8
53799,114055,7
53794,114072,5
53797,114059,10
53793,114085,9
53795,114073,8
53795,114073,7
53819,114083,5
53798,114082,8
53793,114087,7
53795,114105,7
53802,114097,10
53802,114097,5
53800,114101,5
53801,114107,10
53791,114084,5
53793,114084,5
53786,114074,10
53805,114077,5
53804,114081,5
53801,114082,10
53801,114082,5
53797,114081,5
53800,114092,10
53813,114106,5
53806,114092,5
53815,114128,10
53815,114128,5
53800,114139,5
53807,114139,10
53824,114143,5
53825,114158,5
53836,114192,10
53832,114159,5
53828,114151,7
53828,114151,8
53835,114148,5
53836,114151,7
53830,114149,8
53829,114151,5
53795,114144,7
53835,114131,8
53835,114131,5
53826,114149,7
53828,114144,8
53830,114149,5
53832,114146,7
53800,114142,8
53826,114150,5
53832,114148,7
53839,114172,8
53839,114172,9
53855,114173,8
53843,114194,5
53840,114161,7
53867,114214,8
53867,114214,5
53857,114210,7
53854,114207,8
53856,114202,5
53852,114197,7
53839,114159,8
53855,114188,5
53854,114211,7
53854,114211,8
53894,114221,5
53866,114219,7
53855,114212,8
53871,114243,7
53871,114253,5
53894,114278,8
53894,114278,7
53919,114288,5
53903,114292,8
53897,114291,7
53898,114301,7
53896,114323,8
53894,114282,7
53894,114282,5
53905,114314,8
53899,114272,7
53879,114295,10
53929,114345,9
53929,114345,7
53922,114345,3
53921,114345,4
53962,114341,4
53920,114321,5
53917,114321,5
53910,114322,5
53945,114333,4
53926,114321,6
53918,114343,3
53913,114340,5
53939,114345,5
53927,114350,4
53925,114356,5
53935,114356,5
53928,114354,5
53936,114356,5
53930,114358,4
53936,114362,5
53931,114368,5
53939,114379,5
53947,114381,5
53945,114394,4
53950,114376,5
53955,114396,5
53952,114402,5
53955,114410,5
53948,114380,4
53958,114403,5
53961,114405,6
53947,114399,4
53961,114407,4
53957,114412,4
53954,114415,5
53960,114418,5
53954,114434,5
53964,114417,4
53975,114418,5
53963,114431,5
53954,114456,5
53963,114433,5
53965,114439,4
53962,114446,5
53965,114454,5
53972,114452,5
53983,114440,5
53965,114447,4
53973,114465,5
53971,114457,5
53979,114465,5
53979,114461,5
53975,114457,4
53982,114462,5
53983,114465,5
53984,114458,6
53978,114457,4
53979,114460,4
53973,114452,5
53971,114428,5
53959,114419,5
53953,114411,4
53944,114397,4
53949,114394,5
53944,114382,5
53945,114385,5
53944,114393,4
53952,114403,5
53947,114399,5
53957,114408,5
53951,114408,5
53952,114398,4
53953,114402,5
53951,114387,5
53948,114393,5
53948,114381,5
53947,114374,5
53946,114386,4
53935,114394,5
53943,114375,5
53932,114367,6
53935,114367,3
53920,114346,5
53924,114336,5
53915,114327,5
53914,114318,5
53907,114312,4
53897,114299,5
53899,114285,5
53901,114283,5
53892,114269,4
53894,114272,4
53891,114278,5
53885,114262,5
53875,114253,5
53879,114255,4
53865,114242,5
53867,114237,5
53856,114223,5
53865,114213,5
53858,114212,4
53855,114212,6
53855,114211,4
53860,114211,5
53849,114215,5
53853,114205,6
53853,114211,3
53864,114199,5
53855,114211,5
53850,114203,5
53853,114203,4
53848,114188,5
53854,114199,5
53849,114199,5
53854,114188,5
53839,114184,4
53842,114187,5
53843,114174,5
53843,114170,5
53845,114166,5
53839,114174,4
53845,114170,5
53841,114169,5
53830,114167,5
53828,114156,4
53828,114166,5
53822,114154,6
53828,114153,4
53828,114147,5
53821,114152,4
53829,114135,5
53814,114135,5
53825,114139,5
53795,114128,5
53818,114125,4
53815,114123,5
53808,114120,5
53782,114117,5
53815,114108,5
53809,114103,4
53809,114117,5
53806,114112,5
53806,114122,5
53809,114125,5
53814,114118,4
53830,114121,5
53808,114113,5
53809,114105,5
53798,114093,5
53819,114074,4
53784,114054,5
53765,114018,6
53761,113988,4
53760,113988,4
53746,113977,5
53740,113973,5
53741,113961,5
53733,113957,5
53748,113970,4
53743,113972,5
53747,113980,5
53752,113967,5
53737,113982,5
53745,113975,4
53738,113976,5
53745,113950,5
53736,113976,5
53746,113965,5
53742,113964,4
53726,113953,5
53728,113968,5
53742,113957,5
53739,113949,5
53727,113949,4
53728,113935,5
53724,113931,5
53717,113928,6
53725,113954,3
53721,113926,4
53721,113929,5
53713,113930,5
53729,113958,5
53728,113945,4
53728,113949,5
53729,113936,5
53723,113942,5
53721,113937,5
53724,113933,4
53717,113921,5
53721,113920,5
53708,113918,5
53706,113906,5
53708,113902,4
53719,113905,5
53703,113905,5
53715,113907,5
53705,113911,5
53713,113906,5
53713,113908,4
53716,113905,5
53711,113905,5
53710,113894,6
53705,113906,3
53713,113909,5
53707,113915,5
53704,113896,5
53715,113908,4
53711,113906,4
53711,113904,5
53713,113905,5
53709,113895,5
53703,113909,4
53710,113908,5
53711,113896,5
53706,113897,5
53704,113892,5
53697,113898,4
53698,113888,5
53695,113881,5
53689,113875,5
53698,113881,5
53690,113866,4
53694,113873,6
53686,113872,4
53685,113859,5
53684,113859,5
53689,113861,4
53690,113857,5
53685,113851,5
53681,113841,5
53685,113844,5
53681,113835,4
53679,113834,5
53674,113840,5
53678,113838,5
53670,113830,4
53676,113829,4
53675,113837,5
53676,113845,5
53671,113842,5
53681,113841,4
53675,113849,5
53668,113837,5
53667,113830,5
53666,113814,5
53652,113806,4
53657,113781,5
53640,113766,6
53630,113756,4
53627,113743,5
53625,113735,4
53624,113730,5
53626,113730,5
53625,113726,5
53619,113720,5
53613,113717,4
53620,113725,5
53620,113732,5
53617,113727,5
53622,113721,5
53615,113707,4
53616,113714,5
53607,113700,5
53610,113692,5
53607,113693,4
53610,113710,4
53605,113701,5
53615,113701,5
53605,113703,5
53607,113694,4
53582,113689,5
53599,113686,5
53600,113675,6
53598,113667,4
53570,113673,4
53601,113684,5
53592,113678,7
53596,113685,3
53588,113681,5
53598,113680,4
53602,113672,5
53594,113671,5
53605,113659,5
53595,113655,5
53579,113655,4
53576,113648,5
53603,113643,5
53586,113643,5
53578,113631,5
53580,113634,4
53593,113634,5
53578,113629,5
53578,113619,5
53568,113621,5
53575,113616,4
53563,113604,5
53562,113608,5
53562,113605,5
53553,113600,4
53559,113598,5
53559,113599,5
53561,113600,5
53562,113573,5
53558,113588,4
53559,113585,5
53544,113587,5
53546,113566,5
53556,113593,5
53559,113591,5
53558,113595,4
53551,113597,5
53559,113590,5
53553,113592,5
53550,113585,4
53558,113591,5
53549,113593,5
53557,113573,5
53553,113586,5
53548,113595,5
53545,113585,4
53539,113563,5
53547,113560,5
53542,113571,4
53544,113570,5
53534,113557,5
53537,113559,5
53534,113562,5
53540,113558,4
53536,113554,5
53531,113548,5
53538,113540,5
53526,113542,5
53528,113531,4
53521,113543,5
53532,113535,5
53520,113535,5
53523,113520,5
53511,113519,4
53517,113519,5
53516,113514,5
53520,113509,5
53522,113510,5
53513,113513,4
53517,113523,6
53524,113520,4
53521,113523,5
53525,113538,4
53538,113555,4
53535,113551,5
53536,113556,5
53540,113555,5
53532,113555,4
53537,113556,5
53524,113532,5
53522,113519,5
53514,113509,5
53506,113482,4
53501,113482,5
53495,113477,5
53485,113471,5
53490,113464,5
53488,113463,4
53486,113455,5
53489,113463,5
53495,113461,5
53492,113466,5
53499,113471,4
53501,113470,5
53496,113473,5
53496,113482,5
53497,113481,5
53497,113472,4
53495,113470,5
53488,113471,5
53494,113471,5
53497,113471,4
53497,113486,4
53505,113483,5
53500,113488,5
53499,113474,5
53500,113475,4
53488,113471,5
53494,113461,5
53482,113456,5
53492,113462,5
53489,113464,4
53495,113463,5
53488,113457,5
53487,113460,5
53494,113456,5
53495,113470,4
53493,113459,5
53488,113468,5
53483,113456,5
53475,113449,5
53482,113450,4
53479,113447,5
53477,113448,5
53484,113439,5
53486,113451,5
53483,113452,4
53487,113463,5
53491,113473,5
53498,113467,5
53500,113478,4
53500,113474,4
53491,113476,5
53492,113479,5
53504,113495,5
53501,113501,4
53508,113492,5
53491,113496,4
53498,113490,5
53511,113498,5
53507,113502,5
53486,113507,3
53508,113506,5
53517,113523,5
53510,113516,5
53512,113516,4
53521,113532,5
53525,113525,5
53523,113538,5
53543,113541,5
53532,113548,4
53533,113540,5
53531,113538,5
53547,113553,5
53531,113550,5
53537,113558,4
53536,113560,5
53548,113571,5
53530,113556,5
53536,113558,4
53530,113555,4
53542,113557,6
53535,113554,4
53540,113555,5
53536,113552,4
53550,113550,7
53551,113561,3
53544,113577,5
53541,113575,5
53543,113557,4
53552,113583,5
53544,113593,5
53552,113589,5
53554,113591,5
53556,113609,4
53566,113617,5
53574,113628,5
53570,113639,5
53574,113634,5
53583,113652,4
53580,113655,5
53584,113666,5
53593,113659,5
53595,113674,5
53596,113684,4
53609,113715,5
53607,113703,6
53617,113731,4
53618,113743,4
53633,113756,4
53632,113757,5
53635,113767,5
53635,113750,5
53629,113744,4
53632,113743,5
53624,113732,5
53622,113728,5
53623,113724,5
53615,113723,4
53619,113722,5
53617,113730,5
53617,113715,5
53617,113728,5
53620,113738,4
53633,113750,5
53634,113752,5
53639,113777,5
53645,113779,5
53641,113781,4
53644,113782,5
53653,113796,5
53651,113798,6
53659,113806,4
53665,113807,4
53664,113817,5
53659,113822,5
53667,113828,5
53659,113824,4
53664,113825,4
53670,113830,5
53660,113827,5
53673,113832,5
53674,113834,4
53672,113832,5
53671,113834,5
53679,113855,5
53676,113862,5
53682,113867,4
53691,113877,5
53687,113872,5
53701,113887,5
53694,113887,5
53688,113883,5
53694,113885,4
53695,113881,5
53705,113889,5
53707,113902,6
53701,113896,3
53707,113919,5
53713,113917,5
53715,113919,5
53725,113936,5
53710,113932,4
53721,113946,5
53730,113954,5
53737,113959,5
53736,113964,4
53734,113978,4
53747,113982,5
53746,113987,5
53746,113991,5
53744,113991,4
53754,114008,5
53763,114005,5
53768,114016,5
53769,114041,5
53774,114051,4
53774,114058,6
53778,114060,4
53779,114068,5
53781,114064,5
53777,114061,4
53786,114059,5
53786,114058,5
53785,114056,5
53789,114079,5
53783,114074,4
53785,114071,5
53788,114078,5
53787,114076,5
53795,114086,4
53791,114075,4
53792,114081,5
53785,114082,5
53782,114088,5
53798,114095,4
53799,114090,5
53798,114096,5
53784,114100,5
53805,114114,5
53801,114111,4
53812,114114,5
53803,114124,6
53819,114139,4
53816,114128,5
53817,114139,4
53818,114139,5
53826,114151,5
53837,114166,5
53838,114185,5
53860,114200,4
53854,114216,5
53858,114225,5
53858,114219,5
53878,114216,5
53861,114218,4
53851,114214,5
53860,114192,5
53844,114192,5
53839,114177,4
53827,114176,4
53837,114161,5
53830,114154,5
53834,114172,5
53839,114169,4
53847,114178,5
53848,114172,5
53856,114197,6
53866,114218,4
53860,114226,4
53860,114210,5
53870,114228,5
53868,114235,5
53871,114237,5
53867,114255,4
53871,114255,5
53877,114252,5
53887,114257,5
53876,114284,5
53877,114277,4
53888,114268,5
53886,114263,5
53884,114283,5
53885,114258,5
53884,114267,4
53882,114266,5
53875,114272,5
53882,114263,5
53884,114263,5
53889,114275,4
53884,114274,5
53898,114262,5
53892,114268,6
53893,114286,3
53897,114270,5
53893,114273,5
53891,114269,5
53888,114288,5
53894,114285,4
53895,114290,5
53892,114301,5
53908,114300,5
53907,114317,5
53909,114326,4
53916,114324,5
53915,114340,5
53923,114341,5
53929,114345,5
53929,114356,4
53929,114366,5
53938,114381,5
53941,114385,5
53939,114397,4
53945,114411,5
53955,114414,4
53951,114415,5
53959,114427,5
53956,114425,4
53962,114430,5
53954,114440,5
53966,114438,5
53962,114443,5
53967,114436,4
53975,114438,5
53968,114446,5
53969,114446,5
53976,114443,5
53976,114459,4
53989,114465,5
53978,114467,5
53981,114466,5
53986,114466,5
53979,114460,4
53979,114476,5
53981,114476,5
53986,114485,5
53997,114486,5
53996,114493,4
54004,114503,6
53996,114512,4
53999,114493,5
53993,114507,4
53994,114504,4
54005,114510,5
54003,114511,5
54007,114507,5
54003,114516,4
54005,114522,5
54007,114520,5
54015,114533,5
54015,114539,5
54012,114531,4
54025,114547,5
54032,114566,5
54032,114570,5
54032,114586,5
54041,114595,4
54047,114591,5
54042,114586,5
54035,114585,5
54040,114586,5
54036,114575,4
54034,114557,5
54016,114547,6
54018,114527,4
54013,114525,5
54013,114518,4
54009,114526,5
54012,114531,5
54016,114542,5
54026,114559,4
54024,114569,4
54036,114565,5
54034,114582,5
54038,114589,5
54018,114584,4
54042,114602,5
54043,114597,5
54046,114599,5
54026,114615,9
54049,114608,5
54043,114605,5
54049,114605,5
54057,114604,5
54047,114612,4
54051,114605,5
54056,114608,5
54078,114611,5
54045,114615,5
54049,114624,4
54054,114609,5
54076,114621,5
54052,114619,5
54064,114629,5
54067,114639,4
54073,114635,5
54057,114644,5
54069,114640,5
54068,114636,4
54065,114635,4
54057,114630,5
54055,114628,5
54065,114631,5
54073,114632,4
54068,114653,6
54074,114659,4
54089,114667,5
54082,114646,5
54079,114673,6
54077,114669,3
54079,114682,5
54081,114653,5
54090,114681,5
54079,114674,4
54084,114689,5
54083,114691,5
54090,114691,5
54092,114692,5
54099,114693,4
54089,114723,5
54094,114697,5
54088,114697,5
54085,114687,5
54097,114712,4
54095,114699,5
54092,114689,5
54092,114682,5
54082,114697,4
54091,114690,4
54094,114677,5
54085,114681,5
54086,114676,5
54085,114669,4
54075,114665,6
54085,114656,4
54076,114647,5
54079,114656,5
54076,114650,4
54068,114648,5
54067,114645,5
54070,114649,5
54065,114637,5
54063,114644,4
54060,114628,5
54063,114629,5
54054,114617,5
54052,114605,5
54047,114607,4
54052,114600,5
54046,114593,5
54047,114587,5
54038,114580,5
54038,114584,4
54034,114570,5
54031,114558,5
54029,114553,5
54020,114551,4
54027,114549,4
54018,114560,6
54026,114552,4
54027,114553,5
54030,114556,4
54019,114555,5
54021,114544,5
54011,114552,5
54008,114527,5
54005,114515,4
53999,114484,5
53988,114465,5
53973,114444,5
53967,114429,5
53960,114404,4
53950,114405,5
53946,114401,5
53949,114393,5
53951,114394,5
53952,114393,4
53949,114392,5
53948,114397,5
53949,114396,5
53943,114384,5
53935,114373,4
53926,114363,5
53934,114363,5
53938,114355,5
53930,114352,4
53928,114360,4
53926,114355,5
53922,114333,5
53917,114330,5
53914,114319,4
53906,114319,5
53898,114295,5
53895,114287,5
53891,114270,5
53881,114267,4
53876,114256,5
53875,114260,5
53872,114238,5
53876,114249,5
53875,114250,5
53873,114234,4
53864,114233,5
53868,114232,5
53870,114228,6
53861,114224,3
53860,114217,5
53855,114222,5
53853,114225,5
53862,114222,5
53858,114217,4
53859,114209,5
53845,114215,5
53852,114214,5
53865,114215,4
53854,114208,4
53834,114202,5
53856,114201,5
53850,114210,5
53846,114214,4
53848,114217,5
53852,114214,5
53858,114212,5
53854,114207,5
53870,114213,4
53851,114218,6
53863,114215,4
53857,114219,5
53878,114218,5
53861,114217,6
53855,114223,3
53857,114218,5
53879,114219,5
53863,114220,5
53861,114218,4
53863,114224,5
53860,114217,5
53855,114217,5
53856,114216,5
53849,114209,4
53846,114200,5
53847,114202,5
53846,114208,5
53847,114196,4
53843,114183,4
53851,114201,5
53843,114180,5
53846,114177,5
53839,114158,4
53840,114177,5
53835,114171,5
53832,114162,4
53831,114152,5
53821,114143,4
53822,114137,7
53816,114136,3
53822,114156,5
53819,114133,5
53817,114126,4
53807,114126,5
53817,114160,5
53814,114140,5
53826,114142,5
53819,114134,4
53822,114153,5
53821,114140,5
53818,114130,5
53818,114133,5
53803,114126,4
53815,114137,5
53812,114136,5
53808,114126,5
53811,114130,5
53813,114129,4
53821,114126,5
53805,114137,6
53816,114138,4
53823,114127,4
53802,114121,4
53816,114120,5
53798,114107,5
53794,114080,5
53784,114059,4
53778,114044,5
53772,114034,5
53768,114025,5
53761,114015,5
53752,114016,4
53750,114019,5
53764,114012,5
53761,114021,5
53753,114023,5
53759,114020,4
53757,114023,5
53762,114015,5
53766,114007,5
53750,114011,5
53753,114011,4
53756,114021,5
53759,114012,5
53764,114013,6
53760,114000,4
53757,113997,4
53743,113994,5
53747,113984,5
53747,113977,5
53740,113973,4
53729,113969,4
53736,113963,5
53725,113964,5
53731,113953,5
53731,113948,4
53728,113954,5
53721,113938,5
53730,113965,5
53728,113953,5
53720,113947,4
53727,113943,5
53719,113945,5
53727,113940,5
53716,113918,5
53714,113920,5
53698,113918,4
53708,113926,5
53702,113922,5
53716,113926,6
53708,113919,3
53714,113935,5
53717,113932,5
53716,113935,5
53720,113928,5
53711,113926,4
53719,113936,5
53717,113922,5
53718,113924,5
53716,113925,4
53718,113922,4
53712,113927,5
53715,113919,5
53713,113923,5
53701,113914,4
53715,113908,5
53711,113912,5
53700,113914,5
53701,113910,5
53707,113917,4
53702,113913,6
53703,113917,4
53716,113916,5
53699,113922,5
53709,113917,4
53719,113920,5
53705,113924,5
53688,113927,5
53704,113903,5
53705,113909,4
53703,113897,5
53679,113906,5
53703,113902,5
53696,113896,5
53702,113896,4
53697,113891,5
53689,113887,5
53697,113879,5
53690,113888,4
53705,113871,4
53687,113878,5
53693,113863,5
53684,113859,5
53705,113861,4
53676,113840,5
53678,113847,6
53664,113827,4
53674,113829,5
53664,113824,4
53662,113821,5
53661,113801,5
53661,113796,5
53651,113796,5
53642,113789,4
53648,113781,5
53647,113764,5
53646,113770,5
53633,113758,5
53640,113756,4
53625,113732,5
53629,113747,5
53627,113733,5
53630,113734,5
53615,113719,4
53609,113726,5
53618,113720,5
53621,113726,5
53612,113732,4
53609,113709,4
53605,113716,5
53604,113714,6
53610,113722,4
53608,113710,4
53601,113704,9
53606,113699,5
53590,113675,8
53590,113675,7
53585,113655,5
53583,113656,8
53584,113665,7
53579,113658,5
53551,113659,8
53583,113657,7
53589,113649,8
53589,113649,7
