RED,IR,EKG,TIME
43655,90083,8
43663,90125,7
43666,90101,10
43658,90086,7
43660,90087,5
43651,90116,5
43642,90064,10
43642,90064,5
43650,90057,5
43652,90056,10
43638,90063,5
43639,90055,5
43635,90061,10
43657,90100,5
43657,90100,5
43660,90109,10
43675,90113,5
43674,90116,5
43683,90130,10
43697,90127,5
43707,90127,5
43669,90113,10
43669,90113,5
43665,90045,5
43652,90063,10
43657,90073,5
43656,90076,7
43663,90074,8
43648,90082,5
43636,90058,7
43636,90058,8
43626,90064,5
43644,90062,7
43640,90059,8
43641,90058,5
43638,90033,7
43634,90044,8
43634,90044,5
43631,90038,7
43634,90047,8
43627,90044,5
43625,90039,7
43697,90127,8
43632,90046,5
43641,90061,7
43641,90061,8
43667,90049,7
43635,90039,8
43622,90039,5
43615,90039,7
43614,90001,8
43614,90001,5
43635,90006,7
43627,90000,8
43602,90006,5
43603,89999,7
43598,89991,8
43603,90001,5
43596,89986,7
43596,89986,8
43596,89989,5
43590,89995,7
43592,89989,8
43599,89971,5
43626,89984,7
43562,89944,8
43562,89944,5
43536,89923,7
43549,89909,8
43548,89882,7
43544,89885,5
43535,89873,8
43527,89856,7
43522,89846,7
43522,89846,8
43483,89847,7
43531,89844,5
43517,89850,8
43512,89874,7
43511,89834,3
43549,89838,2
43516,89836,4
43513,89838,5
43484,89819,5
43522,89821,5
43488,89802,5
43480,89783,4
43476,89775,5
43470,89773,6
43464,89759,4
43465,89761,5
43453,89759,4
43452,89728,5
43452,89741,5
43448,89736,5
43443,89732,5
43444,89689,4
43433,89718,5
43434,89715,5
43426,89712,5
43429,89672,5
43424,89694,5
43416,89690,4
43411,89677,5
43410,89678,5
43411,89663,4
43405,89660,4
43396,89646,9
43400,89680,1
43390,89650,5
43393,89637,4
43387,89610,5
43385,89676,5
43389,89633,6
43386,89631,4
43392,89617,4
43381,89622,5
43378,89608,5
43362,89591,5
43372,89598,5
43363,89595,4
43358,89590,5
43352,89577,5
43357,89581,5
43353,89577,5
43363,89585,4
43357,89574,5
43347,89573,5
43348,89558,5
43342,89557,4
43345,89571,4
43344,89568,5
43355,89564,5
43342,89571,5
43344,89569,5
43355,89569,4
43359,89588,5
43371,89605,5
43371,89606,5
43380,89613,4
43377,89629,5
43395,89651,5
43408,89681,5
43432,89716,5
43453,89757,4
43480,89782,5
43486,89805,5
43484,89803,5
43487,89785,5
43474,89789,4
43499,89815,5
43513,89858,5
43550,89902,5
43568,89953,5
43595,89991,4
43605,90008,5
43614,90008,5
43618,90010,5
43619,90021,4
43614,90021,5
43628,90038,4
43647,90067,5
43666,90103,5
43686,90125,4
43689,90150,5
43699,90172,5
43735,90213,5
43750,90227,5
43751,90238,4
43759,90271,5
43795,90315,5
43823,90368,5
43846,90394,5
43855,90404,4
43873,90442,5
43905,90505,5
43941,90587,5
43968,90610,5
43974,90601,4
43966,90585,5
43958,90599,5
43985,90647,5
44031,90716,5
44056,90739,4
44047,90716,6
44017,90682,4
44010,90660,5
44028,90696,4
44036,90721,4
44026,90685,5
44016,90673,5
44007,90660,5
44005,90651,4
44010,90662,5
44006,90657,5
43998,90637,5
43987,90613,5
43968,90574,4
43939,90550,5
43950,90561,5
43975,90607,5
43967,90618,5
43980,90592,4
43949,90534,5
43915,90487,5
43870,90482,5
43905,90480,5
43905,90490,4
43894,90458,5
43845,90397,6
43853,90384,4
43847,90380,4
43860,90396,4
43870,90388,5
43835,90363,5
43830,90349,5
43827,90341,4
43866,90337,5
43807,90305,5
43791,90298,5
43790,90297,5
43820,90300,4
43799,90286,5
43779,90268,5
43768,90240,5
43775,90226,5
43761,90250,5
43781,90257,4
43765,90239,5
43751,90187,5
43721,90178,6
43725,90175,3
43738,90188,5
43731,90160,5
43730,90173,5
43710,90149,4
43707,90138,4
43711,90115,5
43719,90168,5
43725,90171,5
43720,90172,4
43718,90171,5
43725,90155,5
43716,90154,5
43716,90152,5
43711,90189,4
43719,90176,5
43736,90195,5
43737,90187,5
43721,90203,5
43720,90154,4
43724,90155,5
43725,90159,5
43714,90174,5
43707,90136,5
43695,90124,5
43691,90114,4
43694,90118,5
43689,90104,5
43682,90106,5
43665,90072,4
43666,90069,5
43671,90100,5
43711,90138,5
43722,90178,4
43719,90146,4
43690,90105,5
43689,90091,5
43694,90144,5
43727,90196,4
43772,90253,5
43774,90259,5
43767,90247,5
43768,90242,5
43772,90259,4
43787,90280,5
43806,90300,5
43796,90307,4
43811,90312,5
43817,90345,4
43836,90375,7
43841,90374,3
43852,90393,5
43866,90436,5
43907,90498,4
43960,90597,5
44025,90672,5
44039,90695,5
44032,90679,4
44019,90666,4
44041,90695,5
44082,90788,5
44147,90895,5
44176,90925,4
44165,90909,5
44166,90912,5
44199,90965,5
44214,90996,5
44221,91010,4
44224,91010,5
44254,91065,5
44296,91148,6
44332,91194,4
44338,91189,4
44317,91160,5
44327,91179,5
44353,91224,5
44414,91349,5
44501,91501,4
44578,91602,5
44607,91637,5
44604,91644,5
44603,91645,4
44611,91656,4
44607,91661,5
44632,91692,5
44651,91711,5
44673,91774,4
44710,91827,5
44736,91856,5
44750,91891,5
44752,91893,5
44763,91899,5
44754,91867,4
44721,91796,5
44702,91776,5
44708,91820,6
44744,91860,3
44733,91817,5
44686,91717,5
44607,91608,5
44566,91563,5
44570,91563,4
44570,91567,5
44563,91576,5
44557,91512,5
44505,91437,5
44456,91348,4
44375,91263,5
44361,91198,5
44317,91130,5
44291,91069,4
44199,90980,4
44192,90901,5
44140,90834,5
44113,90780,5
44078,90753,4
44077,90728,6
44065,90715,4
44049,90696,5
44073,90699,5
44065,90723,6
44076,90750,3
44090,90769,5
44137,90784,5
44096,90784,5
44094,90773,4
44076,90732,5
44075,90697,5
44025,90641,5
43997,90606,5
43974,90556,4
43951,90531,5
43916,90499,5
43900,90455,5
43892,90420,4
43869,90367,4
43839,90339,5
43818,90306,5
43787,90250,5
43760,90183,4
43746,90192,5
43715,90155,6
43706,90141,4
43700,90092,5
43689,90115,5
43679,90102,4
43677,90084,5
43663,90078,5
43641,90033,5
43628,89998,4
43619,89981,5
43591,89973,5
43579,89916,5
43559,89874,5
43527,89832,4
43507,89824,5
43481,89756,5
43476,89753,5
43469,89750,5
43455,89744,4
43450,89719,5
43444,89687,5
43427,89686,5
43433,89674,4
43424,89657,4
43416,89653,5
43410,89643,6
43400,89633,4
43394,89621,4
43393,89614,5
43396,89609,5
43390,89607,5
43387,89603,5
43379,89602,4
43385,89594,5
43377,89595,5
43380,89586,5
43383,89589,5
43390,89595,4
43387,89609,5
43390,89608,5
43386,89620,5
43394,89613,5
43387,89618,4
43393,89628,5
43403,89625,5
43399,89629,5
43398,89639,5
43409,89620,4
43410,89635,5
43399,89627,5
43406,89642,6
43411,89627,3
43404,89628,5
43397,89625,5
43400,89620,5
43397,89609,5
43394,89608,4
43392,89605,5
43395,89612,5
43390,89609,5
43388,89607,5
43393,89604,4
43395,89605,5
43391,89610,5
43391,89614,5
43394,89618,5
43396,89625,4
43401,89624,5
43393,89625,5
43397,89618,5
43399,89624,5
43395,89607,5
43387,89602,4
43379,89599,5
43379,89598,5
43374,89588,4
43369,89589,4
43364,89572,5
43360,89553,5
43357,89545,5
43343,89534,4
43346,89532,5
43336,89521,5
43333,89503,5
43328,89508,5
43316,89497,4
43311,89477,5
43319,89483,5
43298,89476,5
43312,89471,5
43306,89475,4
43299,89479,5
43299,89467,5
43304,89475,5
43299,89460,5
43301,89462,4
43290,89449,6
43290,89441,4
43286,89441,5
43269,89421,4
43265,89403,4
43263,89393,5
43249,89378,5
43221,89375,5
43235,89356,4
43233,89343,5
43217,89325,5
43183,89315,5
43211,89322,5
43215,89317,4
43212,89326,5
43198,89323,5
43218,89317,5
43215,89330,5
43210,89333,4
43246,89332,5
43229,89350,5
43235,89356,5
43238,89372,5
43286,89370,4
43244,89369,5
43240,89377,6
43241,89374,4
43274,89362,5
43228,89364,4
43227,89344,5
43229,89348,5
43238,89344,5
43245,89356,4
43232,89357,4
43249,89380,5
43255,89363,5
43255,89386,5
43261,89394,4
43271,89420,5
43271,89387,5
43278,89432,5
43285,89437,5
43289,89440,4
43290,89415,5
43298,89467,5
43297,89463,5
43296,89472,5
43311,89483,4
43303,89471,5
43303,89477,5
43309,89474,6
43296,89508,4
43308,89475,4
43311,89473,5
43309,89470,5
43309,89518,5
43323,89496,5
43330,89531,6
43364,89557,3
43359,89594,5
43376,89583,5
43377,89593,4
43387,89610,4
43393,89644,5
43415,89662,5
43422,89693,5
43456,89741,4
43476,89776,5
43501,89805,5
43513,89846,5
43527,89851,5
43540,89879,5
43548,89892,4
43563,89894,5
43572,89917,5
43584,89954,5
43603,89975,4
43611,89992,5
43618,90013,5
43636,90036,5
43656,90053,5
43662,90078,4
43680,90108,5
43693,90123,5
43692,90129,5
43704,90140,4
43703,90135,4
43699,90135,5
43698,90136,5
43706,90152,5
43709,90152,4
43703,90151,5
43717,90155,5
43721,90166,5
43724,90179,5
43725,90178,4
43733,90181,6
43743,90187,4
43735,90196,5
43730,90191,5
43724,90166,4
43718,90166,5
43713,90157,5
43716,90159,5
43715,90156,5
43714,90144,4
43702,90150,5
43708,90136,5
43697,90121,5
43692,90132,5
43684,90117,4
43689,90093,5
43678,90079,5
43665,90082,5
43671,90072,4
43662,90059,4
43659,90055,5
43650,90057,5
43655,90072,5
43674,90098,4
43680,90127,5
43720,90174,6
43770,90284,4
43854,90429,5
43946,90570,4
43992,90618,5
43975,90578,5
43947,90520,5
43918,90481,5
43889,90421,4
43860,90389,5
43843,90355,5
43810,90300,5
43775,90250,5
43757,90212,4
43739,90164,5
43711,90136,5
43687,90096,5
43672,90068,5
43645,90023,4
43626,89998,5
43613,89976,5
43597,89957,5
43587,89928,4
43547,89911,4
43562,89893,5
43568,89894,5
43562,89906,5
43540,89925,4
43581,89927,5
43588,89939,5
43585,89947,5
43572,89941,5
43589,89957,4
43589,89939,5
43586,89936,5
43603,89934,5
43578,89916,5
43568,89911,4
43564,89895,5
43608,89899,5
43572,89907,5
43578,89916,5
43578,89926,4
43615,89925,4
43578,89927,5
43574,89929,5
43585,89914,5
43581,89923,3
43574,89932,5
43590,89946,5
43605,89959,5
43605,89946,4
43610,89960,4
43614,89985,5
43619,89989,5
43627,89968,5
43619,90009,5
43623,90009,4
43632,90009,5
43644,89987,5
43629,90025,5
43635,90006,4
43633,90015,5
43628,90014,5
43635,90001,5
43632,90012,5
43635,90012,4
43628,90050,6
43630,90015,4
43638,90026,5
43642,90026,5
43644,90059,6
43634,90027,3
43639,90025,5
43643,90030,5
43639,90040,4
43641,90032,4
43640,90031,5
43653,90030,5
43650,90042,5
43650,90034,4
43647,90029,5
43634,90014,5
43642,90015,5
43632,89999,5
43626,89990,4
43616,89987,5
43607,89965,5
43598,89952,5
43598,89949,5
43593,89946,4
43582,89928,5
43582,89925,6
43582,89920,4
43586,89939,5
43582,89933,4
43582,89942,5
43584,89940,5
43590,89950,5
43588,89954,5
43594,89950,4
43597,89960,5
43595,89969,5
43597,89956,5
43592,89950,4
43593,89943,4
43586,89928,5
43572,89913,5
43569,89897,5
43558,89897,4
43552,89857,5
43536,89854,5
43525,89835,5
43522,89826,5
43519,89829,4
43514,89813,5
43516,89802,5
43503,89791,6
43494,89779,4
43491,89768,4
43484,89768,5
43474,89748,5
43473,89739,5
43466,89728,5
43462,89714,4
43447,89698,5
43435,89685,5
43435,89657,5
43418,89641,5
43394,89617,4
43383,89599,5
43366,89576,5
43353,89552,5
43354,89529,4
43334,89512,4
43319,89473,5
43297,89453,5
43281,89420,5
43266,89408,5
43258,89366,4
43250,89355,5
43241,89340,5
43238,89338,6
43241,89340,3
43224,89334,5
43233,89336,5
43237,89337,5
43241,89348,5
43242,89351,4
43234,89352,5
43237,89347,5
43240,89328,5
43231,89327,5
43221,89329,4
43225,89318,5
43219,89302,5
43199,89287,5
43191,89271,4
43197,89280,4
43207,89289,5
43186,89292,5
43201,89287,5
43194,89281,4
43192,89280,6
43161,89273,4
43199,89280,5
43209,89299,5
43221,89291,6
43188,89305,3
43202,89312,5
43212,89309,5
43222,89325,5
43244,89333,4
43228,89336,5
43238,89340,5
43233,89331,5
43261,89319,5
43223,89322,4
43246,89359,5
43258,89386,5
43293,89376,5
43248,89353,5
43254,89371,4
43265,89402,5
43291,89428,5
43292,89443,5
43305,89453,4
43312,89474,4
43325,89485,6
43344,89508,4
43335,89494,5
43336,89500,4
43320,89456,5
43319,89466,5
43318,89480,5
43337,89521,5
43379,89549,4
43400,89619,5
43409,89656,5
43448,89700,5
43460,89732,5
43482,89753,4
43499,89768,5
43482,89747,5
43465,89740,5
43453,89690,5
43452,89676,4
43446,89693,5
43451,89753,5
43482,89759,5
43515,89827,4
43552,89899,4
43600,89985,5
43641,90033,6
43664,90052,4
43661,90041,4
43669,90060,5
43705,90146,5
43771,90257,5
43826,90351,5
43868,90417,4
43898,90464,5
43927,90512,5
43956,90570,5
44024,90684,5
44093,90818,4
44207,91018,5
44295,91143,5
44356,91239,5
44383,91274,5
44389,91286,4
44408,91326,5
44456,91427,5
44540,91544,5
44568,91583,5
44570,91582,4
44598,91635,5
44668,91749,5
44720,91858,6
44762,91904,3
44782,91929,4
44782,91922,5
44758,91906,5
44770,91928,5
44810,91989,4
44806,91947,5
44776,91906,5
44778,91934,5
44867,92131,5
45002,92325,4
45071,92443,5
45109,92476,5
45101,92442,5
45064,92383,5
45031,92333,4
45022,92342,5
45058,92404,5
45101,92463,5
45115,92488,5
45132,92497,5
45112,92460,4
45072,92393,5
45014,92285,5
44964,92199,4
44953,92212,4
44960,92233,5
45003,92279,5
44988,92238,5
44927,92103,4
44808,91910,5
44736,91803,5
44713,91786,5
44728,91817,5
44722,91800,4
44689,91732,5
44633,91639,5
44585,91566,5
44515,91432,5
44431,91280,4
44357,91154,5
44272,91015,5
44184,90877,5
44124,90755,5
44036,90620,4
43963,90496,6
43876,90348,4
43785,90189,5
43692,90033,4
43629,89937,4
43571,89836,5
43510,89744,5
43454,89662,5
43421,89586,4
43383,89540,5
43364,89513,5
43338,89471,5
43332,89462,5
43309,89454,4
43327,89450,5
43317,89436,5
43312,89420,5
43269,89417,5
43303,89419,4
43306,89434,5
43320,89449,5
43323,89477,5
43339,89490,5
43347,89502,4
43361,89525,5
43403,89546,6
43391,89583,4
43397,89613,5
43415,89627,4
43459,89636,5
43419,89628,5
43408,89618,5
43414,89616,4
43434,89633,4
43423,89647,5
43430,89641,5
43420,89638,5
43419,89626,4
43411,89647,5
43412,89648,5
43418,89636,5
43422,89617,5
43429,89656,5
43436,89669,4
43441,89692,5
43463,89677,5
43462,89732,6
43472,89743,3
43483,89756,5
43494,89745,5
43512,89803,5
43523,89822,5
43529,89828,4
43539,89855,5
43547,89856,5
43543,89866,5
43550,89865,4
43553,89900,4
43537,89846,5
43543,89851,5
43535,89845,5
43534,89858,4
43523,89829,5
43514,89804,5
43511,89795,5
43499,89792,5
43488,89774,4
43484,89761,5
43472,89738,5
43456,89711,9
43442,89673,1
43413,89645,5
43397,89615,4
43422,89617,5
43375,89579,5
43354,89542,5
43339,89505,4
43323,89478,5
43301,89444,5
43282,89422,5
43265,89384,5
43248,89349,4
43215,89300,5
43198,89269,5
43194,89245,5
43172,89232,4
43172,89223,5
43159,89207,5
43143,89179,5
43134,89161,5
43130,89143,4
43112,89123,5
43107,89115,5
43102,89115,5
43099,89103,5
43093,89082,4
43083,89079,6
43077,89082,4
43095,89089,5
43092,89080,5
43069,89053,4
43032,88995,5
43001,88917,5
42958,88858,5
42942,88818,5
42931,88813,4
42921,88799,5
42916,88775,5
42897,88727,5
42863,88682,4
42826,88597,4
42774,88525,5
42738,88468,5
42709,88403,5
42676,88348,4
42638,88273,5
42590,88186,5
42511,88030,5
42425,87876,4
42333,87720,4
42255,87584,5
42216,87482,5
42154,87401,5
42121,87326,5
42076,87248,4
42039,87175,5
42012,87139,5
42005,87139,5
42020,87165,5
42034,87194,4
42047,87210,5
42060,87220,5
42066,87221,5
42066,87206,4
42051,87190,4
42049,87170,5
42025,87130,5
41980,87058,5
41940,86952,5
41890,86874,4
41848,86792,5
41821,86710,5
41770,86632,6
41725,86537,3
41670,86437,5
41625,86360,5
41573,86316,5
41584,86307,5
41562,86272,4
41543,86224,5
41484,86158,5
41472,86105,5
41457,86045,5
41439,86014,4
41387,85964,5
41368,85855,5
41306,85747,5
41237,85631,5
41156,85507,4
41089,85379,5
41008,85208,5
40915,85072,5
40898,84960,4
40813,84828,5
40719,84674,4
40632,84473,5
40600,84329,5
40482,84184,6
40410,84014,3
40332,83838,5
40276,83720,5
40201,83550,5
40145,83417,4
40087,83267,5
40016,83106,5
39938,82933,5
39881,82786,5
39807,82655,4
39739,82449,5
39637,82284,5
39546,82089,5
39469,81961,5
39418,81817,4
39380,81734,5
39315,81595,5
39248,81444,5
39175,81264,4
39058,81045,4
38935,80815,6
38824,80558,4
38685,80337,5
38541,80010,4
38366,79665,5
38182,79286,5
38025,79001,5
37849,78580,5
37665,78226,4
37540,77934,5
37438,77752,5
37340,77511,5
37218,77243,5
37112,77026,4
37060,76848,5
36977,76664,5
36885,76438,5
36823,76251,5
36686,75996,4
36606,75780,5
36497,75566,5
36413,75384,5
36415,75270,5
36406,75130,4
36441,75086,5
36370,74878,6
36404,74850,4
36446,74886,4
36590,75065,4
36717,75221,5
36878,75433,5
37046,75714,5
37282,76167,4
37597,76724,5
37997,77432,5
38411,78142,5
38775,78757,5
39101,79353,4
39462,79942,5
39806,80534,5
40143,81093,5
40448,81606,5
40724,82047,4
40989,82505,5
41179,82812,5
41324,83018,5
41354,83051,5
41357,83025,4
41313,83000,5
41291,82974,5
41258,82894,6
41143,82697,4
40969,82372,4
40699,81867,5
40335,81249,5
39998,80594,5
39612,79943,4
39370,79511,5
39146,79110,5
38966,78729,5
38793,78404,5
38666,78133,4
38531,77901,5
38402,77694,5
38343,77554,5
38243,77362,5
38036,76971,4
37837,76581,5
37644,76229,5
37467,75910,5
37352,75651,5
37189,75306,5
36987,74832,4
36718,74263,5
36324,73462,5
35972,72806,6
35609,72141,3
35357,71640,5
35116,71170,5
34901,70694,5
34733,70237,4
34481,69640,4
34211,69169,5
34004,68750,5
33856,68349,5
33701,67937,4
33499,67512,5
33395,67224,5
33247,66839,5
33161,66613,5
33040,66292,4
32891,66009,5
32799,65789,5
32715,65640,5
32674,65593,5
32668,65595,4
32713,65635,6
32692,65608,4
32703,65656,5
32712,65720,5
32824,65862,4
32896,66022,5
32976,66169,5
33039,66321,5
33162,66499,5
33246,66647,4
33398,66972,5
33564,67195,5
33675,67410,5
33803,67635,4
33978,67944,4
34190,68311,5
34391,68781,5
34680,69283,5
34951,69756,4
35259,70226,5
35539,70821,5
35874,71492,5
36318,72315,5
36941,73388,4
37483,74376,5
37881,74896,6
37884,75076,4
37960,75305,5
38291,75986,4
38751,76790,5
38957,77019,5
38857,76792,5
38889,76959,5
39019,77227,4
39225,77672,5
39616,78252,5
39868,78847,5
40517,80107,5
41326,81618,4
41994,82519,5
42311,82959,5
42772,83874,5
43195,84428,4
43151,84233,4
42600,83181,5
42177,82720,5
42240,82909,5
42508,83413,4
42855,83957,5
43316,84783,5
43844,85659,6
44282,86428,4
44749,87240,4
45394,88346,5
46166,89669,5
47241,91640,5
48343,93383,5
49192,94868,4
49434,96718,5
50795,99016,5
52232,100887,5
54037,103938,5
56172,107359,4
58606,111553,5
61260,115722,5
63473,118565,5
65665,121784,5
65852,122663,4
65188,121394,5
64335,120448,5
64660,121203,5
65380,122389,5
66157,123596,4
66431,123842,5
66785,124884,5
67645,126404,5
68229,127351,4
69487,130076,5
72278,134633,5
75370,139076,5
78910,144260,5
80218,145171,4
79619,144420,5
80008,145713,5
81693,148799,5
83376,150000,5
82005,148508,4
81929,149556,5
84090,152597,5
83810,150980,5
79856,144040,5
74339,135976,4
71864,133494,5
72186,134038,5
72292,134250,5
72940,135410,5
74296,137499,5
75292,138839,4
76192,140180,5
76572,140583,5
77435,142473,4
79229,145132,4
80365,146635,5
81092,147898,5
81822,148797,5
81685,148329,4
81324,147841,5
81052,147383,5
80672,147107,5
81513,148663,5
82217,149577,4
82903,150768,5
83822,152431,5
86633,157436,5
89727,161336,5
89108,159168,4
86095,154597,5
85114,155290,5
89738,163162,5
92746,166406,5
91780,163410,4
90463,162145,6
91232,163523,4
92361,165289,5
93868,167551,5
96034,171032,4
99393,176352,5
101742,180721,5
103014,181233,5
102868,181823,4
104666,184384,4
106475,187525,5
108798,190944,5
110946,193816,5
112331,195588,4
112614,195381,5
112017,194572,5
112766,196242,5
114795,198936,5
115027,198406,4
111676,192226,5
107052,185586,5
104996,183578,5
105669,185165,5
108248,190130,4
112892,195966,5
113636,195910,6
112700,194590,4
111567,192955,5
111461,193209,4
112389,194419,5
113631,196617,5
115431,199152,5
116820,201203,5
117503,201993,4
117730,202335,5
116998,200335,5
115783,199186,5
116066,200223,4
117596,203159,4
119230,204934,5
119526,205064,5
118498,203686,5
118197,203523,4
118169,203101,5
117957,203347,5
119448,206192,5
122029,210170,5
122842,210571,4
122129,209517,5
121403,208383,5
120604,207099,5
119751,205864,5
119942,206914,4
121105,208514,4
121107,208292,5
120429,206982,5
120573,208125,5
122249,210963,4
123562,212782,5
123797,213132,5
123644,212430,5
123151,211332,4
121642,208913,4
121174,209267,5
123243,212924,5
126044,217210,5
128048,219921,4
128875,221857,5
129486,222503,5
129857,223044,5
129951,223252,5
129928,223198,5
130009,223500,3
130152,223831,5
130195,224016,5
129724,223746,5
129553,223773,4
129474,223640,5
129310,223589,5
129249,223770,5
129189,223842,5
128752,223248,4
128130,222484,7
127517,221676,3
126845,220738,5
126599,220338,5
126278,219785,4
125865,218993,5
125752,218890,5
125920,219280,5
125726,218946,4
124586,217075,4
123019,215081,6
121984,214278,4
121545,213477,5
120657,212040,4
119879,211152,7
119192,210280,3
118552,209680,5
117713,208284,5
116356,206110,4
114123,203047,5
111757,200124,5
108998,196881,5
105576,191925,5
100842,185773,4
95338,177495,5
88697,166303,5
79021,150099,5
70441,136190,5
64194,126902,4
61324,121397,5
58256,116092,5
56605,113509,5
55806,112736,5
55074,111686,4
54538,111090,5
54318,110795,6
53937,110043,4
53316,108884,4
52842,107898,4
52361,106930,5
51857,105690,5
51709,105133,5
51458,104599,4
51483,104701,5
51470,104581,5
51148,103901,5
50864,103455,5
50922,103393,4
50981,103350,5
51373,104091,5
51831,104747,5
52204,105065,5
52092,104778,4
51992,104616,5
52258,105173,5
53094,106801,5
54381,108830,5
55364,110508,4
56456,112181,5
57014,112978,5
57016,112978,6
57321,113773,4
58141,115026,4
59012,116113,5
59380,116624,5
59955,117423,5
60208,117738,4
60494,118266,4
60780,118894,5
61370,119933,5
62415,121393,5
63036,122111,4
62978,121965,5
63655,123347,5
64901,125126,5
65859,126537,5
67189,128717,4
68504,130453,5
68669,130846,5
69390,132149,5
70691,133238,5
71244,133828,5
71831,134887,4
72799,136127,5
73177,136416,5
73110,136351,6
73338,136774,3
73693,137147,5
73494,136720,5
73757,137314,5
74678,138637,4
75466,139850,4
75790,139951,5
75855,140211,5
76753,141291,5
77409,142190,4
78032,143310,5
79276,145049,5
79852,145535,5
79978,145797,5
80338,146427,4
81446,148155,5
82162,148272,5
82175,149512,5
83538,151638,5
84951,153497,4
85896,154559,6
86640,155649,4
87105,156157,5
87287,156473,5
87732,156953,4
88129,157576,5
88002,157217,5
87559,156583,5
87356,156268,5
87177,156109,4
87532,156723,5
88087,157517,5
88467,157974,5
88149,157230,4
87593,156456,4
87173,155882,5
87152,156179,5
87562,156640,5
88748,158633,4
90606,161259,5
92332,163573,5
93453,165056,5
94865,166485,5
96353,168603,4
97593,170096,5
97876,170306,6
97933,170470,4
98524,171501,5
99182,173416,4
100809,175762,5
102526,178167,5
103980,179893,5
104952,181307,5
105752,181766,4
106245,182467,5
106736,183122,5
106674,182847,5
106386,182596,5
106778,183369,4
107783,184824,5
108907,186409,5
109986,187890,5
110907,188961,4
111597,189793,4
112334,190876,5
113376,192375,5
114749,194329,5
115812,196457,4
117241,198161,5
118475,199134,5
119435,200251,6
119922,200678,4
120192,200988,4
120464,201334,5
120671,201492,5
120726,201466,5
120643,201375,5
120682,201448,4
120939,201671,5
121310,202167,5
121828,202796,5
122242,203330,5
122504,203536,4
122442,203513,5
122612,203755,5
123146,204493,5
123568,205073,5
123868,205468,4
123934,205479,5
123957,205623,5
124243,206085,5
124704,206813,5
125290,207746,4
125988,208699,5
126345,209243,5
126783,210028,6
127352,210813,3
127778,211333,5
127918,211923,5
128133,212491,5
128423,213226,5
128692,213354,4
128832,213880,5
128856,214128,5
128892,214514,5
129064,214960,5
129322,215492,4
129586,215998,5
129755,216419,5
129840,216630,5
129763,216850,5
129610,216840,4
129631,217058,5
129710,217308,5
129657,217426,5
129500,217266,5
129078,216762,5
128587,216207,4
128066,215558,5
127387,214683,5
126562,213613,4
125684,212603,4
124863,211519,5
123854,210155,5
122714,208634,5
121280,206934,4
120130,205151,5
118865,203403,5
117544,201570,5
115865,199687,5
114831,197847,4
113532,196143,5
112203,194710,5
110428,192695,5
109318,190692,5
107942,188820,4
106659,186970,5
105251,184913,5
103770,182807,5
102268,180782,5
100798,178644,4
99358,176937,6
97498,174537,4
96132,171706,5
94025,168719,4
92112,165575,4
89885,162633,5
87989,160461,5
86340,158025,5
84792,155528,4
83225,153444,5
82099,151708,5
80840,149845,5
80263,147938,5
79091,146104,4
77731,144731,5
76432,142780,5
75327,140924,5
74239,139434,5
73319,137981,4
72362,136414,5
71304,134592,5
70225,133019,5
69186,131396,4
68150,129648,4
66986,128458,5
65904,126830,7
64695,124929,3
64383,123384,5
63522,122112,4
62676,120699,5
61917,119476,5
61213,118292,5
60534,117315,4
59867,116094,4
59292,115132,5
58585,114000,5
57980,113820,5
57366,112684,4
56710,111572,5
56050,110476,5
55353,109325,5
54665,108143,5
54015,107096,4
53408,106088,5
52752,104951,5
52093,103863,5
51266,102532,5
50656,101578,4
50163,100777,5
49744,100067,5
49328,99351,5
48854,98539,5
49173,97736,4
48715,97475,5
48288,96803,5
47945,96273,5
47693,95841,5
47452,95410,4
47185,94966,5
46953,94560,5
46725,94173,5
46513,93803,4
46304,93456,4
46134,93134,5
45949,92785,5
45742,92436,5
45588,92123,4
45421,91834,5
45238,91566,5
45101,91348,5
44975,91124,5
44854,90904,5
44737,90675,4
44608,90458,5
44506,90295,5
44421,90132,5
44309,89952,4
44209,89741,5
44094,89544,5
43971,89334,5
43810,89036,5
43685,88833,4
43584,88666,5
43495,88452,5
43409,88304,5
43328,88164,5
43252,88023,4
43169,87907,5
43124,87815,5
43071,87716,5
43031,87662,4
43002,87609,4
42976,87571,5
42959,87542,5
42949,87522,5
42939,87501,4
42927,87486,6
42917,87486,4
42923,87480,5
42922,87503,5
42953,87533,4
42975,87569,5
42966,87568,5
42970,87562,5
42964,87566,5
42975,87588,4
42993,87628,5
43006,87660,5
43030,87656,5
43021,87675,5
43036,87693,4
43043,87699,5
43058,87733,5
43062,87753,5
43072,87754,4
43073,87770,4
43088,87791,5
43096,87793,5
43078,87777,5
43079,87774,4
43077,87760,5
43026,87724,5
43034,87695,5
43024,87665,5
43015,87649,4
42948,87652,5
42999,87658,5
42997,87657,5
43006,87645,5
42938,87666,4
43016,87670,5
43009,87658,5
43001,87642,5
42981,87623,5
42972,87602,4
42967,87584,5
42950,87566,5
43012,87556,5
42942,87546,5
42932,87521,4
42928,87513,5
42993,87496,5
42896,87474,6
42894,87466,3
42875,87435,4
42890,87381,5
42814,87335,5
42810,87289,5
42769,87246,4
42762,87204,5
42737,87193,5
42747,87201,5
42752,87207,5
42748,87166,4
42762,87222,5
42752,87228,5
42758,87244,5
42765,87166,5
42757,87219,5
42738,87203,4
42741,87199,5
42733,87112,5
42720,87160,5
42706,87144,5
42704,87122,4
42686,87132,5
42671,87076,5
42670,87067,6
42667,87062,3
42653,87115,5
42640,87028,5
42639,87011,5
42621,86991,4
42616,87032,4
42605,86940,5
42593,86958,5
42590,86922,5
42594,86959,4
42598,86948,5
42599,86957,5
42591,86953,5
42614,86980,5
42628,87009,4
42645,87024,5
42636,87012,5
42636,87013,5
42651,87029,5
42646,87040,4
42640,87024,6
42631,87005,4
42632,87007,9
42644,87031,1
42626,87011,6
42640,87028,3
42652,87032,5
42659,87057,5
42656,87055,5
42644,87023,4
42651,87034,5
42650,87032,5
42657,87039,5
42655,87048,4
42658,87056,4
42656,87061,5
42672,87085,5
42674,87071,5
42674,87081,4
42682,87076,5
42676,87072,5
42666,87058,5
42667,87035,5
42651,87049,4
42666,87055,5
42677,87098,6
42706,87134,4
42718,87158,5
42733,87182,4
42747,87200,5
42766,87240,5
42776,87269,5
42791,87301,5
42813,87327,4
42825,87346,5
42833,87371,5
42836,87381,5
42841,87398,5
42849,87410,4
42864,87422,5
42877,87443,5
42885,87450,5
42886,87458,4
42901,87470,4
42911,87501,5
42915,87512,5
42913,87514,5
42911,87518,4
42915,87523,5
42903,87508,5
42896,87503,6
42899,87505,4
42902,87521,4
42899,87534,5
42921,87588,5
42929,87614,5
42942,87638,5
42945,87634,4
42940,87654,5
42940,87653,5
42944,87666,5
42959,87685,5
42965,87694,4
42954,87690,5
42928,87662,5
42914,87625,5
42903,87631,5
42894,87600,4
42877,87582,5
42884,87598,5
42882,87612,5
42881,87613,5
42876,87603,4
42891,87613,5
42850,87629,5
42891,87628,6
42897,87652,3
42920,87685,5
42873,87709,5
42950,87741,5
42968,87758,5
42976,87768,4
42923,87786,5
42986,87803,5
42985,87794,5
42994,87795,5
43025,87797,4
43008,87805,5
43012,87832,5
43017,87852,5
43109,87881,5
43055,87924,4
43077,87946,5
43063,87934,5
43143,87935,5
43070,87970,5
43102,87995,5
43109,88002,4
43143,88021,5
43127,88048,5
43144,88071,4
43169,88101,4
43176,88102,5
43185,88147,5
43199,88168,5
43203,88195,4
43224,88152,5
43217,88231,5
43230,88238,5
43237,88245,5
43236,88179,4
43234,88256,5
43255,88288,5
43274,88317,5
43275,88319,5
43296,88366,4
43294,88376,5
43310,88400,5
43331,88501,5
43348,88472,5
43349,88505,4
43370,88518,6
43378,88617,4
43384,88523,5
43375,88524,5
43399,88565,4
43414,88641,5
43433,88627,5
43444,88647,5
43445,88665,4
43454,88679,4
43451,88649,5
43452,88663,5
43467,88698,5
43481,88733,4
43502,88746,5
43502,88776,5
43513,88791,5
43512,88823,5
43539,88868,4
43562,88890,5
43584,88916,5
43596,88941,5
43639,89006,5
43645,89028,4
43674,89068,5
43687,89097,6
43693,89102,4
43698,89113,5
43701,89117,4
43706,89129,5
43718,89144,5
43732,89152,5
43734,89173,4
43756,89186,4
43766,89230,5
43774,89229,5
43771,89233,5
43782,89240,4
43786,89246,5
43799,89264,5
43797,89271,5
43799,89281,5
43803,89283,4
43808,89291,5
43802,89283,5
43802,89296,5
43805,89285,5
43797,89288,4
43795,89275,5
43791,89274,5
43789,89271,6
43785,89269,4
43775,89257,4
43790,89267,5
43775,89225,5
43770,89224,5
43750,89197,5
43765,89203,4
43756,89196,5
43753,89183,5
43749,89198,5
43748,89198,4
43754,89210,4
43755,89224,5
43759,89236,5
43775,89271,5
43793,89306,4
43808,89310,5
43809,89341,5
43829,89381,5
43849,89394,5
43862,89406,5
43872,89437,4
43868,89412,5
43849,89377,5
43843,89360,5
43845,89373,4
43853,89381,5
43854,89370,5
43849,89367,5
43848,89368,5
43840,89362,4
43846,89364,5
43849,89374,5
43849,89369,5
43842,89353,5
43832,89339,4
43825,89331,5
43814,89329,5
43815,89320,5
43787,89317,4
43805,89308,4
43798,89296,5
43804,89303,5
43744,89301,5
43801,89293,4
43793,89292,6
43791,89294,4
43715,89306,5
43794,89306,5
43788,89295,4
43783,89280,5
43749,89268,5
43761,89250,5
43753,89233,5
43755,89226,4
43801,89224,5
43734,89207,5
43734,89200,5
43728,89203,5
43816,89207,4
43739,89204,5
43728,89188,5
43726,89180,5
43759,89144,5
43688,89118,4
43669,89099,5
43667,89078,5
43673,89079,5
43669,89069,4
43658,89063,4
43647,89056,6
43646,89009,4
43643,89038,5
43639,89046,4
43647,89046,5
43647,89001,5
43656,89078,5
43667,89104,5
43686,89116,4
43695,89063,5
43708,89156,5
43711,89185,5
43730,89220,5
43747,89261,4
43764,89257,5
43767,89266,5
43753,89241,5
43743,89313,5
43747,89253,4
43755,89263,5
43765,89266,5
43773,89374,5
43776,89302,5
43779,89330,4
43792,89360,5
43803,89387,5
43815,89395,5
43822,89409,4
43842,89429,4
43857,89463,5
43864,89477,5
43879,89515,5
43900,89534,4
43907,89560,5
43914,89567,5
43920,89592,5
43936,89605,5
43941,89630,4
43947,89634,5
43943,89663,5
43959,89669,5
43958,89682,5
43951,89679,4
43948,89669,5
43930,89665,5
43934,89644,5
43916,89643,5
43909,89630,3
43910,89621,5
43904,89621,5
43896,89606,5
43890,89599,5
43890,89597,4
43878,89582,5
43882,89587,5
43879,89583,5
43873,89579,4
43884,89584,4
43881,89584,5
43883,89591,5
43882,89594,5
43890,89597,4
43887,89592,5
43875,89585,5
43876,89581,5
43862,89582,5
43869,89570,4
43869,89559,6
43868,89564,4
43861,89564,5
43857,89554,5
43853,89542,6
43850,89527,3
43846,89529,5
43858,89536,5
43852,89539,5
43841,89519,4
43831,89519,5
43833,89490,5
43812,89455,5
43802,89434,5
43794,89430,4
43796,89420,5
43792,89415,5
43769,89397,5
43772,89384,4
43773,89374,4
43758,89377,5
43766,89375,5
43756,89356,5
43763,89352,4
43750,89344,5
43747,89358,6
43747,89335,4
43731,89319,5
43733,89307,4
43726,89295,7
43723,89298,3
43718,89283,5
43717,89282,5
43701,89273,4
43694,89258,5
43688,89248,5
43689,89243,5
43677,89224,5
43659,89209,4
43663,89197,5
43647,89180,5
43635,89151,5
43623,89131,5
43573,89122,4
43604,89109,5
43603,89085,5
43590,89058,5
43509,89046,4
43561,89032,4
43555,89016,5
43545,88999,6
43476,88980,4
43528,88959,4
43516,88935,5
43501,88905,5
43504,88879,5
43466,88839,5
43448,88818,4
43440,88779,5
43490,88749,5
43398,88713,5
43377,88678,5
43356,88627,4
43386,88583,5
43295,88529,5
43272,88478,5
43235,88432,5
43240,88377,4
43192,88341,5
43186,88322,5
43185,88317,5
43176,88272,5
43176,88283,4
43168,88272,5
43147,88242,5
43126,88137,6
43117,88179,4
43103,88146,4
43091,88126,5
43069,88010,5
43040,88039,5
43026,88006,4
43005,87957,5
42988,87919,5
42975,87903,5
42946,87858,5
42928,87814,4
42917,87826,5
42883,87724,5
42863,87692,5
42835,87641,5
42813,87671,4
42800,87565,5
42776,87532,5
42758,87489,5
42739,87504,5
42724,87431,5
42721,87413,4
42708,87401,5
42698,87393,5
42682,87344,6
42682,87315,3
42650,87301,5
42650,87288,5
42631,87250,5
42632,87241,4
42621,87220,4
42617,87212,5
42609,87196,5
42590,87181,5
42595,87158,4
42580,87130,7
42569,87122,3
42556,87106,5
42543,87086,5
42544,87079,4
42531,87066,5
42522,87050,5
42516,87038,5
42514,87022,5
42508,87009,4
42506,87007,6
42495,86994,4
42486,86982,5
42481,86983,5
42490,86973,4
42483,86969,5
42477,86968,5
42470,86963,5
42473,86962,5
42478,86953,4
42478,86965,5
42478,86974,5
42486,86982,5
42493,87008,4
42502,87002,4
42491,86990,5
42477,86966,5
42474,86969,5
42482,86994,4
42492,86982,5
42481,86979,5
42484,86976,5
42486,86978,5
42489,86979,4
42488,86990,5
42500,86979,6
42488,86979,4
42489,86981,5
42487,86987,4
42482,86972,5
42480,86960,5
42475,86961,5
42470,86950,5
42472,86958,4
42473,86951,5
42471,86960,5
42471,86941,5
42467,86949,5
42469,86943,4
42469,86938,5
42468,86940,5
42456,86930,5
42461,86917,4
42448,86908,4
42447,86899,5
42443,86887,5
42428,86889,5
42436,86882,4
42428,86880,5
42448,86882,5
42433,86890,6
42446,86888,4
42439,86890,4
42443,86890,5
42438,86884,5
42448,86896,5
42442,86896,5
42446,86891,4
42447,86892,5
42423,86882,5
42433,86878,5
42422,86861,5
42432,86856,4
42375,86852,5
42424,86841,5
42423,86830,5
42409,86832,5
42337,86828,4
42404,86822,5
42406,86813,5
42410,86828,5
42380,86831,5
42424,86848,4
42430,86866,5
42430,86867,5
42468,86869,5
42429,86872,4
42421,86861,5
42419,86839,5
42503,86854,5
42415,86855,5
42414,86852,4
42421,86834,5
42466,86834,5
42404,86829,5
42407,86825,5
42411,86818,4
42439,86826,5
42410,86830,5
42409,86825,5
42405,86824,5
42405,86776,4
42400,86797,5
42391,86782,5
42385,86779,5
42380,86706,5
42378,86763,5
42362,86750,4
42365,86749,5
42370,86665,5
42363,86754,5
42368,86739,4
42360,86745,5
42359,86749,5
42356,86745,5
42348,86733,4
42353,86726,5
42350,86786,5
42339,86714,5
42348,86697,5
42342,86697,4
42339,86784,5
42331,86687,5
42334,86677,5
42321,86673,5
42319,86705,4
42320,86671,5
42326,86675,5
42319,86667,5
42316,86673,5
42316,86658,4
42310,86649,6
42304,86643,4
42304,86639,5
42295,86634,5
42297,86620,4
42287,86626,5
42291,86619,5
42293,86615,5
42282,86617,4
42286,86615,4
42297,86618,5
42284,86623,5
42301,86637,5
42313,86650,4
42316,86662,5
42317,86678,5
42329,86688,5
42332,86688,5
42330,86671,4
42312,86667,5
42307,86684,5
42328,86677,5
42326,86678,5
42326,86671,4
42312,86679,5
42327,86674,6
42326,86686,4
42321,86678,5
42323,86688,4
42326,86693,5
42328,86694,5
42337,86696,5
42337,86705,5
42343,86706,4
42344,86721,5
42343,86718,5
42346,86721,5
42352,86726,4
42349,86729,4
42351,86734,5
42358,86740,5
42363,86748,5
42361,86747,4
42352,86748,5
42353,86738,5
42358,86746,5
42351,86734,5
42359,86738,4
42344,86732,5
42348,86725,5
42345,86727,5
42342,86726,5
42343,86719,4
42348,86717,5
42349,86722,5
42343,86731,5
42347,86723,5
42353,86726,4
42346,86731,5
42350,86731,5
42346,86730,5
42342,86730,5
42359,86724,4
42347,86721,5
42341,86709,5
42339,86713,5
42344,86698,4
42339,86710,4
42334,86708,5
42351,86720,5
42343,86727,5
42352,86733,5
42367,86749,4
42369,86766,5
42371,86775,5
42374,86796,5
42389,86816,4
42404,86815,5
42392,86823,5
42367,86810,5
42388,86796,5
42381,86803,4
42387,86825,5
42339,86818,5
42395,86824,5
42404,86836,5
42403,86845,4
42339,86845,5
42414,86850,5
42412,86856,5
42423,86859,4
42419,86872,4
42433,86880,6
42428,86893,4
42435,86902,5
42497,86901,4
42437,86912,5
42438,86914,3
42444,86924,5
42530,86934,5
42457,86947,4
42461,86954,5
42466,86965,5
42501,86968,5
42480,86966,5
42463,86971,4
42469,86965,5
42471,86964,5
42473,86973,5
42471,86966,5
42473,86983,4
42483,86939,5
42473,86980,5
42481,86985,5
42483,86991,5
42479,86910,4
42485,86985,5
42491,86991,6
42489,87001,4
42484,86948,4
42487,87007,5
42492,87007,4
42494,87016,5
42489,87053,5
42489,87011,4
42487,87018,5
42494,87013,5
42487,87081,5
42493,87016,5
42490,87018,4
42499,87025,5
42500,87086,5
42505,87030,5
42498,87034,5
42513,87051,4
42522,87098,5
42530,87089,5
42537,87107,5
42553,87126,5
42563,87153,4
42573,87162,5
42561,87149,5
42554,87122,6
42546,87130,4
42554,87150,4
42563,87155,5
42562,87151,5
42558,87133,5
42565,87145,4
42559,87159,4
42565,87168,5
42575,87170,5
42580,87178,5
42575,87191,4
42584,87192,5
42574,87191,5
42586,87203,5
42590,87213,5
42597,87222,4
42596,87221,5
42595,87236,5
42602,87240,5
42608,87255,5
42612,87253,5
42613,87262,4
42622,87269,5
42626,87276,5
42622,87272,6
42622,87275,3
42622,87267,5
42606,87267,5
42617,87265,5
42615,87252,5
42617,87253,4
42604,87264,5
42619,87261,5
42616,87269,5
42619,87261,4
42621,87267,4
42614,87280,5
42617,87275,5
42625,87285,5
42621,87288,4
42637,87295,5
42628,87297,5
42637,87306,5
42646,87316,5
42654,87331,4
42648,87331,6
42649,87340,4
42644,87343,5
42661,87337,5
42661,87335,6
42651,87336,3
42656,87338,5
42645,87328,5
42648,87332,5
42650,87329,4
42644,87335,5
42645,87333,5
42656,87339,5
42658,87354,5
42655,87355,4
42660,87368,5
42664,87383,5
42673,87390,5
42678,87409,4
42690,87409,4
42683,87404,5
42676,87369,5
42662,87381,5
42685,87396,4
42687,87412,5
42695,87415,6
42699,87416,4
42702,87427,5
42708,87441,4
42711,87449,5
42719,87452,5
42720,87456,5
42679,87465,5
42723,87469,4
42727,87471,5
42736,87485,5
42672,87489,5
42730,87495,5
42743,87504,4
42748,87503,5
42693,87506,5
42749,87508,5
42751,87518,5
42753,87517,4
42778,87515,5
42747,87519,5
42750,87518,5
42755,87512,4
42821,87513,4
42750,87494,5
42746,87500,6
42748,87493,4
42806,87489,4
42740,87471,5
42742,87473,5
42748,87473,5
42765,87475,5
42741,87473,4
42747,87482,5
42744,87469,5
42743,87455,5
42742,87486,5
42744,87488,4
42745,87487,5
42744,87432,5
42756,87500,5
42750,87494,5
42759,87501,4
42764,87434,5
42759,87516,5
42757,87511,5
42760,87509,5
42755,87504,4
42767,87511,5
42765,87506,5
42771,87496,6
42755,87554,3
42751,87491,4
42753,87497,5
42752,87479,5
42753,87570,5
42744,87476,4
42742,87468,5
42730,87463,5
42730,87493,5
42727,87458,5
42739,87458,4
42739,87482,5
42752,87517,5
42764,87505,5
42772,87508,5
42763,87519,4
42765,87511,5
42763,87505,5
42744,87470,5
42745,87474,5
42758,87491,5
42766,87499,4
42759,87502,9
42755,87488,1
42761,87499,5
42760,87492,4
42759,87488,5
42767,87507,5
42772,87507,5
42760,87502,4
42759,87503,4
42762,87489,5
42756,87498,5
42760,87497,5
42765,87503,4
42765,87488,5
42760,87499,5
42768,87501,5
42759,87506,5
42763,87497,4
42762,87495,5
42759,87493,5
42753,87495,5
42749,87487,5
42749,87477,4
42741,87467,6
42740,87443,4
42730,87441,5
42729,87427,5
42727,87430,4
42715,87423,5
42721,87423,5
42720,87429,5
42727,87426,4
42722,87433,4
42723,87421,5
42717,87414,5
42717,87428,5
42716,87430,4
42727,87440,5
42729,87443,5
42727,87454,5
42729,87444,5
42734,87446,4
42732,87453,5
42732,87460,5
42732,87462,5
42742,87480,5
42750,87480,4
42740,87483,5
42747,87487,6
42744,87487,4
42753,87496,5
42749,87496,4
42747,87485,5
42733,87479,5
42739,87480,5
42745,87485,5
42734,87481,4
42740,87491,5
42739,87480,5
42739,87496,5
42742,87499,4
42754,87497,4
42752,87523,5
42762,87532,5
42770,87555,5
42785,87581,4
42787,87592,5
42793,87609,5
42803,87610,5
42804,87602,5
42775,87570,4
42756,87573,5
42790,87615,5
42805,87625,5
42806,87612,5
42742,87613,4
42791,87625,5
42810,87628,5
42817,87654,5
42757,87662,5
42826,87663,4
42828,87676,5
42827,87679,5
42833,87700,5
42851,87719,5
42862,87730,4
42874,87742,5
42925,87754,5
42873,87754,5
42882,87755,4
42884,87771,4
42962,87768,5
42890,87758,5
42900,87776,5
42902,87785,5
42935,87797,4
42906,87774,5
42910,87786,5
42917,87785,5
42918,87788,4
42914,87786,5
42911,87792,5
42908,87777,5
42901,87742,5
42907,87771,4
42897,87764,5
42903,87751,5
42890,87684,5
42894,87742,5
42889,87734,4
42896,87740,5
42884,87687,5
42882,87749,5
42884,87742,5
42877,87750,4
42888,87783,5
42888,87760,5
42895,87767,5
42901,87759,4
42897,87845,5
42904,87773,4
42913,87788,5
42905,87797,5
42913,87855,4
42927,87816,5
42919,87818,5
42925,87813,5
42926,87844,5
42921,87826,4
42927,87822,5
42929,87821,5
42939,87831,5
42934,87833,5
42942,87843,4
42936,87850,5
42942,87855,5
42949,87853,5
42950,87852,5
42948,87859,4
42947,87851,5
42940,87855,5
42949,87848,5
42940,87853,5
42937,87848,4
42931,87842,7
42932,87822,3
42922,87809,5
42906,87803,4
42903,87786,4
42899,87778,5
42903,87782,5
42903,87768,5
42888,87757,4
42892,87766,5
42888,87774,5
42900,87781,5
42897,87785,5
42912,87808,4
42920,87829,5
42928,87843,5
42953,87866,5
42953,87876,5
42963,87888,4
42964,87888,5
42952,87872,5
42931,87834,5
42931,87849,4
42945,87860,4
42945,87856,5
42946,87849,5
42935,87836,5
42928,87831,5
42925,87845,4
42927,87847,5
42939,87849,5
42944,87854,5
42939,87848,4
42942,87856,4
42939,87857,5
42948,87856,5
42952,87875,5
42955,87874,4
42953,87879,5
42953,87881,5
42961,87885,5
42960,87886,5
42959,87889,5
42961,87882,4
42959,87881,5
42957,87888,5
42953,87883,6
42949,87874,3
42949,87868,5
42954,87861,5
42944,87853,5
42935,87846,5
42928,87843,4
42930,87836,5
42926,87837,5
42922,87836,5
42920,87828,5
42921,87832,4
42926,87832,5
42931,87827,5
42924,87836,5
42931,87835,4
42935,87839,4
42927,87842,5
42934,87858,5
42939,87868,5
42949,87869,4
42948,87870,6
42913,87881,4
42958,87889,5
42966,87894,5
42958,87909,6
42894,87913,3
42969,87905,5
42975,87931,5
42981,87922,5
42936,87938,4
42991,87941,5
42994,87936,5
42992,87951,5
43018,87932,5
42990,87944,4
42989,87951,5
42992,87944,5
43068,87945,5
42990,87946,4
42988,87950,4
42992,87935,5
43038,87938,5
42986,87941,5
42989,87923,4
42974,87921,5
42991,87927,6
42979,87930,4
42978,87924,5
42968,87922,4
42964,87893,5
42963,87911,5
42970,87917,5
42972,87916,5
42973,87872,4
42981,87945,5
42994,87972,5
43011,87999,5
43015,87937,5
43015,88000,5
43010,87995,4
42999,87983,5
42982,87948,5
42987,87971,5
43008,87997,4
43013,87984,5
42992,88027,5
42993,87968,5
42985,87977,4
42997,87977,4
43006,88070,5
43003,87996,6
43006,87997,4
43008,87999,4
43004,88043,5
43017,88019,5
43016,88022,5
43017,88013,5
43027,88034,4
43017,88025,5
43018,88024,5
43014,88019,5
43021,88019,5
43022,88009,4
43005,88001,5
43013,88003,5
43007,87998,5
43004,87988,5
42996,87982,4
42992,87964,5
42987,87964,5
42981,87947,5
42990,87956,5
42978,87935,4
42979,87925,5
42975,87923,5
42977,87916,6
42969,87923,3
42976,87919,4
42973,87912,5
42971,87909,5
42972,87908,5
42968,87915,4
42970,87910,5
42971,87920,5
42979,87926,5
42980,87925,5
42984,87942,4
42984,87942,5
42991,87953,5
42992,87957,5
42996,87959,5
43002,87963,4
43006,87968,5
43014,87982,5
43007,87973,5
43013,87983,5
43000,87982,5
43017,87980,4
43013,87990,5
43012,87984,5
43013,87984,6
43010,87989,3
43011,87993,5
43000,87977,5
43009,87970,5
43006,87981,4
43003,87972,4
43007,87982,5
43004,87979,5
43011,87987,5
43018,87989,4
43005,87988,5
42995,87977,5
43004,87988,5
42997,87988,5
43017,87987,4
43019,87994,5
43011,88000,5
43019,88003,5
43005,88001,5
43014,87993,4
43019,87996,6
43011,87983,4
43010,87974,5
43002,87962,5
42999,87961,4
43003,87951,5
43004,87956,5
42998,87962,5
42999,87953,5
43008,87964,4
42997,87962,5
43004,87964,5
43018,87979,5
43015,87991,4
43017,88012,4
43049,88031,5
43060,88073,5
43040,88074,5
43070,88093,4
43077,88094,5
43063,88059,5
42985,88043,5
43058,88065,5
43074,88090,4
43064,88075,5
42997,88055,6
43055,88046,4
43051,88045,5
43058,88054,4
43051,88064,5
43065,88074,5
43065,88070,5
43070,88075,5
43133,88081,4
43072,88092,5
43075,88100,5
43081,88098,5
43167,88105,4
43091,88103,4
43088,88102,5
43082,88111,5
43123,88111,5
43087,88118,4
43090,88102,5
43096,88107,5
43098,88114,5
43087,88108,5
43091,88119,4
43087,88112,5
43083,88060,5
43082,88090,5
43078,88089,5
43066,88079,4
43069,88009,5
43063,88073,5
43068,88071,5
43058,88072,5
43065,88029,4
43065,88077,5
43065,88069,5
43054,88062,5
43059,88114,5
43063,88086,4
43073,88078,5
43072,88094,5
43068,88164,5
43088,88116,4
43105,88126,4
43098,88129,5
43111,88209,5
43108,88138,5
43111,88154,5
43106,88163,4
43111,88186,5
43125,88172,5
43133,88187,5
43127,88204,4
43132,88198,5
43135,88198,5
43139,88210,5
43147,88216,5
43148,88219,4
43142,88227,5
43158,88233,5
43163,88227,5
43159,88230,5
43156,88230,6
43157,88234,3
43157,88226,5
43151,88229,5
43164,88237,5
43153,88227,4
43154,88213,5
43150,88225,5
43152,88214,5
43156,88226,4
43155,88217,5
43151,88208,4
43146,88210,5
43139,88202,5
43149,88191,4
43129,88182,5
43134,88177,5
43141,88192,5
43139,88188,5
43142,88193,4
43140,88197,5
43139,88204,5
43153,88214,5
43151,88225,5
43165,88255,4
43186,88299,5
43196,88295,5
43196,88289,5
43192,88276,5
43176,88238,4
43168,88233,5
43170,88259,5
43186,88272,5
43177,88255,5
43165,88239,4
43158,88225,6
43154,88219,4
43157,88221,5
43171,88242,4
43175,88248,4
43177,88257,5
43177,88249,5
43173,88263,5
43166,88261,4
43177,88271,5
43175,88271,5
43190,88274,5
43194,88289,5
43188,88287,4
43186,88290,5
43192,88291,5
43198,88302,5
43193,88316,5
43190,88309,4
43195,88318,5
43197,88314,5
43193,88311,5
43194,88321,5
43184,88307,4
43178,88299,5
43190,88313,6
43193,88316,4
43187,88302,5
43182,88308,4
43179,88303,5
43179,88294,5
43177,88299,5
43182,88297,4
43169,88301,4
43184,88305,5
43186,88304,5
43189,88322,5
43145,88346,4
43202,88347,5
43208,88361,5
43210,88356,5
43147,88358,5
43216,88384,5
43213,88391,4
43231,88403,5
43211,88420,5
43238,88434,5
43245,88444,4
43250,88448,5
43295,88455,5
43264,88457,5
43260,88464,5
43260,88467,4
43342,88476,5
43259,88474,5
43259,88476,5
43266,88483,5
43317,88489,4
43272,88490,5
43281,88499,5
43269,88496,5
43292,88508,4
43273,88491,4
43278,88499,5
43269,88501,5
43282,88464,5
43279,88500,4
43280,88508,5
43271,88506,5
43278,88451,5
43272,88514,5
43274,88506,5
43273,88521,3
43277,88450,5
43283,88519,5
43274,88512,5
43279,88526,4
43279,88507,5
43269,88489,5
43257,88494,5
43256,88485,5
43252,88557,4
43250,88483,5
43259,88482,5
43252,88476,5
43243,88542,5
43229,88453,4
43234,88435,5
43231,88428,5
43221,88455,5
43219,88415,4
43213,88398,4
43202,88394,6
43198,88400,4
43202,88395,5
43204,88391,4
43203,88381,7
43215,88388,3
43210,88410,5
43223,88409,5
43216,88401,4
43201,88383,5
43193,88354,5
43173,88338,5
43186,88359,5
43196,88366,4
43187,88352,5
43185,88329,5
43169,88321,5
43160,88319,5
43170,88325,4
43173,88330,5
43181,88347,5
43177,88340,5
43173,88343,4
43179,88337,4
43178,88342,5
43180,88347,6
43186,88340,4
43182,88346,4
43177,88336,5
43176,88331,5
43166,88317,5
43165,88320,5
43160,88301,4
43162,88293,5
43157,88288,5
43158,88288,5
43145,88277,5
43148,88276,4
43139,88263,5
43146,88264,5
43133,88253,5
43130,88244,5
43132,88237,4
43117,88234,5
43123,88224,5
43121,88218,5
43110,88217,5
43113,88207,4
43103,88204,5
43107,88201,5
43109,88203,6
43109,88199,3
43103,88199,4
43106,88195,5
43116,88200,5
43105,88203,5
43110,88212,4
43113,88209,5
43127,88212,5
43117,88217,5
43117,88205,5
43120,88211,4
43117,88212,5
43123,88219,5
43111,88218,5
43119,88212,5
43119,88217,4
43119,88218,5
43119,88216,5
43121,88217,5
43116,88227,5
43119,88222,5
43115,88227,4
43116,88228,5
43121,88226,5
43119,88223,6
43119,88230,3
43125,88222,5
43122,88236,5
43126,88233,5
43123,88234,4
43122,88230,4
43095,88232,5
43112,88229,5
43116,88227,5
43120,88225,4
43068,88221,5
43121,88219,5
43102,88210,5
43107,88214,5
43037,88209,4
43106,88205,5
43105,88192,5
43105,88200,5
43103,88175,5
43087,88168,4
43088,88164,6
43082,88158,4
43147,88161,5
43070,88136,5
43054,88135,4
43059,88114,5
43120,88102,5
43031,88084,5
43031,88066,4
43023,88051,4
43046,88043,5
43008,88031,5
42999,88024,5
43009,88027,4
43019,88036,5
43015,88047,5
43018,88064,5
43041,88087,5
43049,88049,4
43040,88104,5
43050,88102,5
43035,88090,5
43034,87996,5
43023,88058,5
43027,88084,4
43037,88085,6
43040,88039,4
43035,88062,5
43025,88050,4
43020,88070,5
43041,88121,5
43038,88088,5
43040,88098,5
43053,88100,4
43045,88190,5
43058,88110,5
43058,88132,5
43071,88141,4
43079,88202,4
43074,88153,5
43075,88150,5
43077,88143,5
43086,88173,4
43082,88151,5
43082,88136,5
43075,88141,5
43072,88143,5
43073,88139,4
43075,88134,5
43070,88122,5
43063,88114,6
43066,88110,4
43060,88102,4
43059,88097,5
43046,88097,5
43049,88087,5
43042,88094,5
43044,88079,4
43040,88079,5
43036,88079,5
43032,88066,5
43034,88056,5
43038,88076,4
43037,88062,5
43033,88058,5
43025,88062,5
43037,88065,4
43032,88064,4
43037,88065,5
43041,88074,5
43042,88076,5
43044,88080,5
43047,88079,4
43051,88098,5
43050,88107,5
43061,88116,6
43062,88117,3
43062,88109,5
43058,88127,5
43065,88117,5
43073,88130,5
43067,88136,4
43069,88140,5
43072,88145,5
43079,88145,5
43074,88141,5
43070,88142,4
43084,88143,5
43078,88146,5
43083,88150,5
43080,88141,4
43079,88151,4
43078,88145,5
43076,88142,5
43071,88143,5
43073,88136,4
43070,88135,6
43068,88136,4
43077,88140,5
43076,88133,5
43075,88128,4
43071,88126,5
43062,88130,5
43063,88125,5
43073,88131,5
43065,88134,4
43061,88130,5
43065,88126,5
43067,88128,5
43072,88131,5
43060,88137,4
43071,88128,5
43063,88134,5
43067,88126,5
43063,88133,5
43067,88135,4
43069,88140,5
43068,88140,5
43069,88122,5
43055,88131,4
43056,88121,4
43055,88120,6
43054,88130,4
43047,88123,5
43046,88125,4
43046,88114,5
43051,88124,5
42998,88117,5
43044,88113,5
43043,88120,4
43043,88116,5
42972,88113,5
43042,88103,5
43023,88097,5
43017,88080,4
42980,88060,5
43003,88034,5
42987,88021,5
42984,88011,5
43019,87992,4
42958,87994,5
42954,87969,5
42957,87969,5
43033,87962,5
42951,87963,4
42951,87960,5
42955,87963,6
42999,87979,4
42975,88001,4
42981,88020,4
42975,88016,5
42987,88010,5
42972,87997,5
42951,87964,4
42958,87980,5
42973,87981,5
42981,88004,5
42978,87994,5
42962,87998,4
42969,87943,5
42975,88021,5
42983,88046,5
43007,88061,5
43003,88008,4
43021,88096,5
43014,88091,5
43024,88111,5
43037,88130,5
43037,88122,4
43038,88140,5
43050,88142,5
43046,88213,5
43057,88160,4
43058,88157,4
43055,88156,5
43060,88243,5
43053,88157,5
43055,88146,4
43036,88146,5
43039,88168,5
43038,88130,5
43037,88119,5
43021,88100,4
43023,88095,5
43011,88069,5
43003,88070,5
42993,88065,5
43000,88065,4
43002,88047,5
42988,88040,5
42984,88033,5
42976,88030,5
42975,88030,6
42976,88038,3
42981,88025,9
42977,88029,1
42974,88031,5
42988,88038,4
42985,88038,5
42999,88054,5
42990,88070,5
43004,88066,4
42996,88079,4
43009,88080,5
43017,88096,5
43031,88104,5
43032,88114,4
43040,88133,5
43049,88140,5
43053,88142,5
43056,88162,5
43061,88155,4
43060,88167,5
43063,88168,5
43064,88177,5
43067,88172,5
43069,88178,4
43072,88178,6
43075,88192,4
43067,88185,5
43069,88190,5
43071,88184,4
43067,88189,5
43075,88179,5
43069,88186,5
43077,88181,5
43080,88188,4
43076,88189,5
43076,88178,5
43077,88198,5
43085,88201,4
43079,88205,4
43090,88203,5
43073,88204,5
43076,88204,5
43084,88214,4
43081,88219,5
43082,88205,5
43081,88202,5
43087,88206,4
43077,88193,4
43079,88208,5
43083,88208,5
43083,88209,5
43085,88221,5
43086,88221,4
43090,88229,5
43097,88230,5
43090,88232,5
43100,88238,5
43103,88253,4
43101,88249,5
43114,88257,5
43104,88270,5
43119,88274,4
43115,88274,4
43118,88289,5
43132,88291,5
43132,88303,5
43132,88305,5
43123,88305,4
43133,88300,5
43131,88307,5
43136,88299,6
43084,88299,3
43120,88290,5
43115,88260,5
43113,88257,5
43034,88248,5
43099,88255,4
43100,88234,5
43099,88235,5
43035,88240,5
43099,88248,5
43106,88263,4
43108,88265,5
43138,88277,5
43127,88304,5
43137,88336,5
43148,88355,4
43225,88366,5
43160,88365,5
43155,88345,5
43143,88320,4
43199,88349,5
43167,88372,4
43169,88382,5
43161,88380,5
43182,88377,6
43160,88394,3
43167,88413,5
43195,88450,5
43205,88458,5
43219,88510,4
43222,88518,5
43238,88549,5
43244,88509,5
43265,88590,5
43269,88607,4
43277,88623,5
43294,88565,5
43301,88658,5
43316,88678,5
43318,88697,4
43330,88708,5
43336,88724,5
43347,88730,5
43352,88736,4
43345,88809,4
43350,88757,6
43344,88752,4
43340,88745,5
43329,88807,4
43339,88738,5
43336,88718,5
43334,88717,5
43335,88764,5
43333,88731,4
43335,88726,5
43341,88723,5
43334,88721,5
43326,88714,5
43315,88696,4
43319,88703,5
43318,88702,5
43313,88693,5
43311,88688,5
43309,88688,4
43300,88676,5
43309,88672,5
43303,88669,5
43289,88663,5
43297,88655,4
43288,88661,5
43295,88661,6
43299,88657,4
43292,88656,4
43293,88665,4
43292,88648,5
43286,88650,5
43283,88643,5
43282,88634,4
43283,88636,5
43276,88630,5
43277,88631,5
43277,88619,5
43266,88606,4
43264,88605,5
43264,88595,5
43242,88573,5
43252,88559,5
43240,88545,4
43231,88530,5
43223,88515,5
43222,88512,5
43222,88511,5
43206,88500,4
43202,88486,5
43201,88477,5
43189,88466,6
43187,88471,4
43186,88463,4
43185,88449,5
43178,88461,5
43184,88450,5
43174,88452,4
43176,88440,4
43171,88433,5
43182,88439,5
43172,88432,5
43164,88429,4
43168,88431,5
43161,88424,5
43158,88425,5
43155,88420,5
43154,88407,4
43155,88402,5
43140,88398,5
43144,88391,5
43138,88387,5
43136,88379,5
43122,88376,4
43108,88355,5
43108,88348,5
43096,88344,6
43081,88329,3
43083,88301,5
43064,88292,5
43059,88265,5
43049,88247,4
43037,88238,4
43025,88216,5
43022,88214,5
43017,88210,5
43016,88202,4
43011,88189,5
43002,88183,5
43012,88178,5
43010,88191,5
43008,88185,4
43006,88200,5
42995,88223,5
43032,88227,5
43021,88226,5
43016,88216,4
42943,88184,6
42991,88177,4
42994,88200,5
43008,88217,5
42940,88197,4
43011,88188,5
42996,88192,5
43006,88204,5
43018,88224,5
43026,88249,4
43030,88265,5
43041,88273,5
43112,88289,5
43050,88299,4
43050,88304,4
43061,88318,5
43138,88328,5
43068,88326,5
43056,88321,4
43066,88322,5
43097,88333,5
43071,88326,5
43065,88329,5
43059,88330,4
43059,88317,5
43056,88315,6
43053,88317,4
43051,88305,5
43053,88253,4
43047,88307,5
43033,88285,5
43044,88292,5
43031,88211,5
43033,88276,5
43020,88265,4
43029,88263,5
43014,88224,5
43002,88242,5
43014,88244,4
43009,88243,5
43005,88274,5
43001,88236,5
43003,88236,4
43010,88241,4
43012,88322,5
43009,88243,5
43013,88250,5
43014,88252,4
43016,88315,5
43035,88279,5
43027,88287,6
43041,88297,4
43043,88320,4
43045,88324,5
43061,88324,5
43058,88332,5
43068,88347,5
43067,88350,4
43068,88359,5
43075,88352,5
43068,88362,5
43069,88347,5
43076,88365,4
43073,88374,5
43079,88364,5
43071,88368,5
43069,88360,5
43070,88361,4
43069,88342,5
43060,88354,5
43064,88359,5
43067,88352,5
43075,88367,4
43067,88358,5
43061,88357,5
43057,88354,5
43066,88357,4
43059,88355,5
43055,88353,5
43057,88348,5
43053,88347,5
43055,88337,4
43048,88340,5
43048,88337,5
43043,88333,5
43049,88334,5
43046,88335,4
43038,88328,5
43033,88331,5
43032,88315,5
43020,88300,5
43007,88285,4
43011,88284,5
43007,88280,5
43012,88269,5
43002,88268,4
42999,88262,5
42999,88266,4
43003,88271,5
42996,88272,5
43003,88270,4
43010,88288,5
43016,88297,5
43030,88330,5
43049,88363,5
43055,88363,4
43055,88370,5
43051,88362,5
43043,88338,5
43031,88326,5
43047,88351,4
43044,88366,5
43043,88354,5
43034,88332,5
43034,88345,5
43041,88349,4
43043,88376,5
43055,88391,5
43072,88390,5
43077,88399,5
43078,88408,4
43073,88427,6
43078,88440,4
43094,88444,5
43086,88452,4
43098,88457,4
43097,88458,5
43107,88464,5
43102,88471,5
43097,88473,4
43100,88471,5
43101,88463,5
43095,88456,5
43073,88459,5
43097,88446,4
43087,88452,5
43098,88451,5
43041,88448,5
43085,88439,5
43095,88446,4
43081,88436,5
43016,88430,5
43085,88434,5
43079,88423,5
43077,88423,4
43060,88424,5
43064,88415,6
43071,88429,4
43066,88416,5
43117,88413,4
43072,88434,5
43079,88426,5
43096,88439,5
43159,88455,4
43090,88458,4
43096,88463,5
43105,88474,5
43142,88479,5
43119,88506,4
43122,88516,5
43122,88529,5
43144,88541,5
43141,88555,5
43145,88548,4
43145,88567,5
43160,88536,5
43165,88598,5
43167,88591,5
43167,88599,4
43173,88555,5
43171,88609,5
43181,88608,5
43179,88618,5
43176,88553,4
43181,88622,5
43187,88636,5
43185,88637,5
43189,88648,5
43190,88638,4
43190,88640,5
43196,88632,5
43188,88712,5
43191,88640,4
43196,88641,4
43185,88642,5
43197,88701,5
43191,88636,5
43193,88644,4
43192,88644,5
43201,88673,5
43203,88650,5
43196,88636,5
43195,88658,5
43205,88642,3
43200,88632,5
43189,88634,5
43185,88637,5
43178,88612,4
43178,88619,5
43170,88618,5
43167,88599,5
43179,88594,5
43161,88592,4
43162,88599,5
43172,88592,5
43167,88605,5
43176,88619,5
43181,88622,6
43192,88649,3
43203,88668,5
43210,88691,5
43219,88700,4
43222,88704,4
43217,88702,6
43206,88681,4
43195,88666,5
43204,88700,4
43218,88694,7
43214,88677,3
43195,88659,5
43195,88661,5
43197,88676,4
43203,88683,5
43220,88706,5
43225,88710,5
43228,88718,5
43236,88727,4
43241,88733,5
43236,88744,5
43240,88754,5
43245,88747,5
43239,88742,4
43238,88755,5
43237,88750,5
43244,88756,5
43233,88754,4
43236,88756,4
43224,88764,5
43229,88754,6
43232,88760,4
43233,88754,4
43226,88753,4
43231,88755,5
43232,88747,5
43226,88744,5
43230,88746,4
43229,88746,5
43217,88733,5
43224,88736,5
43222,88737,5
43218,88735,4
43216,88724,5
43209,88724,5
43216,88703,5
43210,88718,5
43212,88720,4
43212,88722,5
43204,88717,5
43207,88725,5
43215,88749,5
43228,88763,4
43231,88765,5
43230,88767,5
43227,88786,6
43248,88794,3
43253,88801,4
43260,88832,5
43270,88831,5
43271,88843,5
43280,88854,4
43288,88873,5
43292,88889,5
43295,88899,5
43298,88891,5
43256,88912,4
43298,88915,5
43295,88911,5
43294,88920,5
43240,88924,5
43306,88925,4
43303,88933,5
43301,88932,5
43268,88935,5
43306,88937,5
43306,88947,5
43304,88938,4
43344,88954,5
43308,88941,5
43313,88945,6
43321,88956,3
43384,88955,5
43316,88952,5
43314,88964,5
43316,88962,4
43374,88968,4
43322,88978,5
43327,88973,5
43328,88977,5
43354,88992,4
43338,88993,5
43344,88995,5
43342,88988,5
43338,88950,5
43323,88982,4
43322,88984,5
43327,88967,5
43323,88899,5
43322,88959,5
43313,88946,4
43312,88941,6
43311,88871,4
43302,88941,5
43299,88933,5
43304,88929,4
43305,88941,5
43313,88950,5
43317,88957,5
43328,88980,5
43343,89065,4
43354,89028,5
43361,89047,5
43381,89076,5
43392,89156,4
43382,89074,4
43371,89048,5
43370,89049,5
43383,89100,5
43377,89048,4
43369,89016,5
43358,89013,5
43352,89003,5
43352,88995,5
43349,89027,4
43360,89018,5
43360,89028,6
43359,89021,4
43359,89011,5
43362,89030,4
43360,89021,5
43362,89016,5
43362,89019,5
43358,89016,5
43354,89003,4
43346,88997,5
43338,89001,5
43336,88991,5
43343,88985,5
43336,88981,4
43326,88976,5
43326,88956,5
43314,88953,5
43310,88946,4
43309,88941,4
43298,88929,5
43299,88926,5
43297,88918,5
43289,88906,4
43286,88908,5
43271,88902,5
43282,88900,6
43285,88898,4
43268,88881,4
43260,88885,5
43269,88872,5
43262,88871,5
43248,88847,5
43259,88853,4
43252,88856,5
43253,88857,5
43254,88851,5
43243,88851,5
43247,88853,4
43248,88856,5
43261,88844,5
43256,88852,5
43246,88843,5
43252,88847,4
43251,88854,5
43248,88850,5
43247,88857,5
43252,88861,5
43252,88856,4
43252,88849,5
43246,88850,5
43244,88848,6
43245,88844,3
43251,88841,5
43244,88841,5
43246,88835,5
43239,88847,5
43241,88848,4
43239,88847,5
43242,88830,5
43240,88841,5
43236,88818,5
43235,88824,4
43227,88811,5
43229,88815,5
43227,88809,5
43226,88801,5
43215,88803,4
43219,88800,5
43213,88787,5
43212,88798,5
43209,88788,5
43207,88782,5
43202,88763,4
43199,88775,5
43202,88766,5
43202,88765,4
43193,88756,4
43156,88757,5
43193,88738,5
43183,88736,5
43174,88725,4
43112,88705,5
43154,88683,5
43143,88682,5
43144,88657,5
43078,88645,4
43128,88634,5
43123,88634,5
43120,88617,5
43146,88616,5
43114,88611,4
43113,88604,5
43118,88607,5
43178,88614,5
43111,88610,5
43116,88622,4
43113,88632,6
43191,88638,4
43127,88657,5
43144,88659,5
43134,88656,4
43161,88645,5
43129,88638,5
43117,88613,5
43123,88623,4
43127,88608,5
43122,88629,5
43115,88608,5
43108,88601,5
43105,88551,4
43111,88607,5
43109,88631,5
43118,88614,5
43117,88549,5
43118,88622,5
43117,88620,4
43118,88621,5
43114,88602,5
43117,88630,5
43117,88624,4
43116,88621,5
43110,88672,6
43105,88607,4
43098,88607,5
43101,88607,4
43106,88677,5
43092,88601,5
43099,88593,5
43099,88591,4
43102,88633,4
43090,88589,5
43093,88583,5
43092,88584,5
43088,88585,4
43084,88585,5
43095,88575,5
43079,88561,5
43085,88573,5
43072,88554,4
43074,88550,5
43070,88549,5
43058,88546,5
43061,88539,5
43052,88524,4
43058,88518,5
43051,88511,5
43049,88516,5
43050,88515,5
43048,88517,4
43046,88509,5
43049,88520,5
43055,88520,5
43053,88532,5
43065,88530,4
43062,88528,5
43066,88543,5
43074,88547,5
43076,88564,4
43071,88560,4
43079,88573,5
43088,88580,5
43093,88583,5
43094,88590,4
43090,88589,5
43099,88590,5
43087,88581,5
43099,88592,5
43083,88590,5
43094,88591,4
43091,88594,5
43090,88596,5
43096,88588,5
43091,88591,4
43096,88587,5
43090,88577,5
43081,88571,5
43084,88573,5
43073,88567,4
43085,88573,5
43082,88568,5
43068,88563,5
43079,88570,5
43076,88562,4
43075,88554,5
43073,88544,5
43066,88539,5
43059,88527,4
43060,88535,4
43056,88521,5
43057,88529,5
43054,88523,5
43046,88521,4
43052,88520,6
43055,88521,4
43057,88517,5
43051,88515,5
43050,88508,4
43046,88510,5
43051,88507,5
43048,88507,5
43042,88505,5
43035,88514,4
43047,88506,5
43046,88508,5
43038,88498,5
43045,88496,5
43040,88489,4
43032,88487,5
43035,88484,5
43027,88483,5
43026,88470,5
43024,88480,4
43024,88472,5
43025,88463,5
42985,88463,5
43016,88458,4
43023,88452,4
43013,88445,6
42951,88452,3
43010,88442,5
43015,88444,4
43000,88440,5
42939,88445,5
43001,88432,5
42997,88425,5
42992,88412,4
42999,88411,5
42978,88391,5
42980,88372,5
42963,88366,5
43017,88359,4
42956,88343,5
42953,88324,5
42944,88321,5
43003,88300,5
42936,88303,4
42939,88310,5
42943,88311,5
42960,88315,6
42944,88325,4
42943,88319,4
42953,88334,5
42958,88339,5
42955,88355,5
42955,88364,4
42953,88359,4
42955,88296,5
42947,88324,5
42939,88310,5
42941,88317,4
42940,88260,5
42948,88330,5
42941,88318,5
42932,88308,5
42937,88300,4
42956,88349,5
42952,88356,5
42967,88374,5
42969,88422,5
42979,88392,5
42979,88404,4
42991,88418,5
42999,88496,5
42994,88443,6
43004,88456,3
43011,88452,5
43021,88507,5
43023,88474,5
43023,88471,5
43023,88479,4
43038,88496,5
43026,88486,5
43031,88483,5
43027,88482,4
43033,88471,4
43019,88460,5
43023,88457,5
43023,88463,5
43022,88461,4
43010,88449,5
43011,88456,5
43012,88434,5
43004,88435,5
43002,88417,4
43004,88430,6
42993,88427,4
42999,88417,5
42991,88421,5
42989,88407,6
42985,88405,3
42984,88403,9
42993,88403,1
42987,88410,5
42987,88405,4
42996,88399,5
42998,88423,5
43006,88431,5
43009,88434,5
43003,88449,4
43016,88451,5
43019,88454,5
43023,88454,5
43025,88478,4
43026,88477,4
43038,88486,5
43045,88491,5
43044,88500,5
43046,88505,4
43049,88507,5
43051,88516,6
43056,88518,4
43050,88534,5
43055,88535,4
43066,88534,5
43064,88546,5
43065,88547,5
43062,88551,5
43061,88554,4
43071,88554,5
43067,88551,5
43068,88557,5
43070,88561,5
43071,88559,4
43082,88566,5
43081,88570,5
43079,88573,5
43094,88588,5
43097,88595,4
43091,88601,5
43102,88613,5
43106,88623,5
43108,88628,4
43108,88625,4
43106,88626,5
43110,88636,6
43119,88644,4
43111,88650,4
43122,88659,5
43127,88660,5
43124,88665,5
43134,88661,5
43124,88674,4
43131,88677,5
43129,88677,5
43134,88681,5
43139,88688,5
43137,88695,4
43143,88695,5
43147,88715,5
43157,88723,5
43159,88732,5
43137,88741,4
43168,88746,5
43169,88754,5
43182,88765,5
43127,88769,5
43185,88782,4
43199,88788,5
43196,88787,5
43119,88797,6
43196,88792,3
43199,88791,4
43196,88800,5
43198,88786,5
43194,88790,5
43188,88789,4
43184,88796,5
43240,88794,5
43185,88791,5
43195,88796,5
43195,88800,4
43274,88812,5
43200,88811,5
43213,88836,5
43218,88847,5
43253,88856,4
43226,88868,5
43235,88896,5
43245,88918,5
43254,88924,5
43256,88925,5
43259,88933,4
43248,88930,5
43253,88882,5
43257,88926,5
43271,88954,4
43269,88958,5
43280,88918,5
43286,88987,5
43301,89018,4
43313,89051,4
43315,89016,5
43337,89091,5
43348,89112,5
43355,89133,4
43365,89191,5
43380,89190,5
43402,89218,5
43417,89239,5
43429,89341,4
43446,89301,5
43456,89320,5
43467,89354,5
43474,89443,5
43498,89413,4
43522,89439,6
43520,89465,4
43532,89516,5
43548,89514,5
43555,89541,4
43567,89549,5
43581,89568,5
43582,89581,5
43586,89608,4
43601,89632,4
43598,89638,5
43607,89645,5
43605,89630,5
43594,89638,4
43595,89646,5
43591,89633,5
43591,89635,5
43586,89621,5
43579,89620,4
43573,89608,5
43563,89577,5
43549,89565,5
43539,89535,5
43523,89503,4
43510,89493,5
43498,89455,6
43476,89425,4
43463,89403,5
43456,89395,4
43457,89374,5
43443,89357,5
43427,89345,5
43421,89300,5
43395,89273,4
43395,89253,5
43376,89239,5
43369,89215,5
43363,89195,4
43349,89178,4
43337,89151,5
43323,89110,5
43323,89124,5
43304,89088,4
43282,89069,5
43278,89047,5
43264,89020,5
43245,88981,5
43236,88960,4
43219,88940,5
43204,88913,5
43194,88898,6
43186,88878,4
43174,88849,4
43158,88819,5
43146,88803,5
43132,88780,5
43118,88754,5
43117,88741,4
43095,88716,5
43082,88695,5
43070,88664,5
43067,88664,5
43064,88653,4
43056,88644,5
43043,88633,5
43038,88622,5
43041,88606,4
43034,88597,4
43032,88590,5
43025,88562,5
43009,88543,5
43002,88540,5
42991,88515,4
42982,88499,5
42983,88487,5
42965,88481,5
42972,88477,4
42961,88454,5
42953,88444,5
42943,88430,5
42934,88405,5
42929,88397,4
42924,88382,5
42907,88368,5
42904,88359,5
42897,88340,5
42900,88346,4
42845,88344,5
42899,88352,5
42903,88351,5
42907,88355,5
42849,88350,4
42912,88361,6
42917,88376,4
42918,88383,5
42906,88405,4
42938,88421,5
42954,88437,4
42958,88456,5
43001,88453,5
42951,88444,4
42960,88435,5
42945,88429,5
43013,88427,5
42957,88442,5
42964,88447,4
42955,88448,5
43006,88453,5
42967,88459,5
42972,88477,5
42979,88490,4
43000,88504,5
42997,88524,5
43003,88538,5
43006,88544,5
43018,88525,4
43018,88574,5
43018,88580,5
43029,88586,5
43030,88534,5
43033,88586,4
43029,88590,6
43036,88594,4
43039,88532,5
43037,88595,5
43043,88612,4
43040,88602,5
43034,88619,5
43034,88589,5
43030,88591,4
43029,88578,5
43025,88650,5
43032,88569,5
43019,88579,5
43024,88568,4
43026,88634,5
43015,88553,5
43009,88566,5
43012,88554,5
43004,88569,4
43004,88555,5
43004,88545,5
43002,88543,5
43001,88537,5
43008,88543,4
43008,88539,5
43006,88554,5
43006,88546,5
43007,88545,5
43018,88556,4
43012,88565,5
43016,88579,5
43023,88586,5
43040,88593,4
43036,88613,4
43046,88619,5
43053,88638,5
43068,88647,5
43073,88667,4
43070,88674,5
43085,88686,5
43085,88696,5
43091,88694,5
43089,88691,4
43099,88703,5
43095,88698,5
43088,88708,5
43085,88693,5
43093,88695,4
43087,88700,5
43082,88689,5
43077,88682,5
43084,88685,5
43075,88683,4
43066,88672,5
43072,88670,5
43065,88658,5
43065,88659,5
43065,88654,4
43061,88654,5
43069,88650,5
43063,88648,5
43065,88646,4
43051,88645,4
43057,88651,5
43050,88640,5
43056,88636,5
43047,88640,4
43060,88638,6
43044,88627,4
43048,88625,5
43045,88617,5
43034,88600,6
43037,88600,3
43032,88580,5
43019,88578,5
43017,88578,5
43017,88570,4
43007,88551,5
43007,88554,5
43011,88553,5
43005,88542,5
42997,88555,4
43005,88548,5
43008,88558,5
43015,88569,5
43020,88588,4
43021,88602,4
43036,88612,5
43037,88617,5
43041,88625,5
43047,88637,4
43048,88627,5
43043,88622,6
43038,88618,4
43041,88629,5
43049,88632,4
43041,88619,7
43046,88634,3
43045,88641,5
43055,88657,5
43066,88683,4
43070,88701,5
43081,88713,5
43043,88728,5
43098,88728,5
43098,88739,4
43100,88745,5
43051,88757,5
43113,88765,5
43114,88764,5
43121,88771,4
43091,88772,5
43122,88780,5
43119,88766,5
43124,88764,4
43160,88773,4
43113,88759,5
43111,88757,6
43104,88759,4
43182,88760,4
43110,88751,5
43111,88752,5
43096,88752,5
43156,88754,5
43101,88749,4
43103,88743,5
43099,88746,5
43105,88742,5
43095,88744,5
43091,88741,4
43094,88736,5
43097,88710,5
43101,88747,5
43104,88742,5
43094,88734,4
43093,88684,5
43097,88739,5
43100,88743,5
43102,88751,5
43110,88693,4
43107,88767,5
43110,88772,5
43115,88777,6
43109,88793,3
43124,88789,4
43122,88806,5
43130,88801,5
43137,88880,5
43138,88833,4
43145,88842,5
43154,88837,5
43149,88935,5
43156,88867,5
43158,88864,4
43157,88862,5
43155,88897,5
43156,88867,5
43157,88859,5
43156,88863,4
43163,88874,5
43153,88858,5
43147,88858,5
43141,88846,5
43135,88835,5
43140,88826,4
43126,88815,5
43115,88799,5
43107,88785,6
43106,88759,3
43084,88747,5
43087,88734,5
43072,88719,5
43077,88716,4
43068,88697,4
43061,88696,5
43063,88686,5
43050,88687,5
43059,88690,4
43057,88685,5
43051,88697,5
43066,88710,5
43077,88729,5
43074,88731,6
43087,88750,3
43090,88758,5
43088,88753,5
43091,88753,5
43079,88743,4
43085,88731,6
43083,88747,4
43088,88745,5
43079,88741,5
43082,88735,4
43081,88725,5
43084,88728,5
43088,88751,5
43085,88739,5
43089,88751,4
43085,88746,5
43085,88735,5
43083,88740,5
43089,88749,4
43076,88738,4
43085,88747,5
43086,88734,5
43085,88731,5
43079,88737,4
43084,88730,5
43083,88727,5
43083,88731,5
43073,88717,5
43071,88712,4
43076,88713,5
43076,88709,6
43056,88699,4
43065,88696,5
43065,88697,4
43067,88709,5
43070,88714,5
43073,88723,5
43070,88730,5
43075,88713,4
43070,88716,5
43062,88706,5
43061,88697,5
43060,88696,5
43058,88694,4
43056,88677,5
43056,88682,5
43049,88686,5
43055,88676,4
43058,88680,4
43055,88694,5
43052,88693,5
43055,88690,5
43059,88687,4
43060,88698,5
43060,88695,5
43068,88692,6
43064,88697,4
43036,88703,4
43066,88711,5
43066,88717,5
43066,88720,5
43014,88710,5
43073,88716,4
43076,88721,5
43078,88715,5
43015,88719,5
43077,88714,5
43077,88727,4
43078,88720,5
43092,88717,5
43063,88708,5
43062,88706,4
43063,88697,4
43119,88681,5
43044,88679,5
43045,88656,5
43033,88653,5
43087,88640,4
43042,88657,5
43051,88679,5
43058,88704,5
43102,88728,4
43082,88741,5
43083,88746,5
43084,88733,5
43089,88711,5
43075,88716,4
43084,88709,5
43078,88713,5
43070,88661,5
43073,88710,5
43076,88698,4
43072,88690,5
43062,88617,5
43058,88688,5
43057,88674,5
43053,88675,4
43051,88655,5
43045,88654,5
43041,88650,5
43040,88633,4
43028,88688,5
43046,88629,4
43034,88627,5
43033,88609,5
43009,88656,4
43008,88582,5
43006,88581,5
43002,88586,5
43016,88625,5
43003,88581,4
43003,88584,5
43002,88580,5
42992,88586,5
43005,88582,5
43006,88583,4
43006,88594,5
43005,88594,5
43006,88591,5
43009,88593,5
43010,88589,4
43000,88592,5
43019,88585,5
42999,88579,5
43000,88571,5
42999,88562,4
43000,88560,7
42996,88550,3
42981,88551,5
42988,88553,4
42979,88534,4
42976,88522,5
42973,88519,5
42962,88510,5
42969,88509,4
42972,88515,5
42967,88508,5
42963,88505,5
42958,88498,5
42960,88499,4
42960,88488,5
42949,88489,5
42955,88484,5
42955,88495,5
42962,88480,4
42957,88487,5
42955,88497,5
42963,88498,5
42956,88498,5
42961,88498,4
42965,88509,5
42970,88502,6
42968,88521,4
42976,88528,5
42973,88525,4
42983,88533,5
42993,88548,5
42994,88539,5
42992,88552,4
42982,88546,4
42985,88550,5
42983,88544,5
42999,88538,5
42989,88550,4
42987,88534,5
42986,88540,5
42986,88543,5
42984,88538,5
42985,88550,4
42989,88543,5
42992,88542,5
42983,88545,5
42992,88536,5
42988,88540,4
42980,88524,5
42980,88532,5
42984,88534,5
42987,88534,5
42989,88531,4
42985,88535,5
42979,88527,5
42983,88534,5
42984,88522,5
42977,88526,4
42974,88516,5
42978,88516,5
42974,88512,5
42977,88512,4
42981,88516,4
42976,88514,5
42976,88520,5
42975,88518,5
42974,88508,4
42970,88513,5
42948,88510,5
42978,88517,5
42968,88518,5
42976,88516,5
42917,88505,4
42974,88511,5
42971,88515,5
42970,88505,5
42901,88504,4
42969,88482,5
42952,88480,5
42950,88465,5
42944,88450,5
42935,88450,4
42928,88433,5
42933,88432,5
42984,88423,5
42921,88412,4
42913,88410,4
42919,88413,5
42985,88414,5
42913,88405,5
42923,88417,4
42922,88431,5
42966,88445,5
42927,88432,5
42936,88437,5
42939,88455,4
42952,88459,6
42943,88462,3
42948,88455,5
42946,88442,5
42938,88378,4
42924,88408,5
42916,88405,5
42922,88402,5
42907,88335,5
42905,88392,5
42905,88386,4
42899,88376,5
42904,88350,5
42917,88396,5
42920,88396,4
42914,88388,5
42922,88436,5
42919,88399,5
42923,88415,4
42928,88410,4
42921,88491,5
42926,88417,6
42921,88417,4
42922,88413,4
42929,88461,5
42923,88413,5
42923,88414,5
42924,88407,5
42921,88420,4
42919,88398,5
42910,88391,5
42909,88390,5
42912,88390,5
42912,88389,4
42913,88390,5
42908,88382,5
42911,88380,5
42905,88380,5
42908,88388,4
42913,88387,5
42899,88388,5
42901,88372,5
42904,88372,5
42904,88365,4
42905,88366,5
42897,88364,5
42904,88349,6
42899,88357,3
42888,88341,4
42892,88355,5
42893,88344,5
42893,88342,5
42883,88335,4
42888,88350,5
42892,88341,5
42884,88339,5
42886,88349,5
42891,88346,4
42891,88351,5
42901,88360,5
42900,88367,5
42909,88379,5
42908,88387,4
42920,88397,5
42915,88406,5
42925,88409,5
42923,88412,5
42921,88423,5
42934,88418,4
42939,88435,5
42938,88434,5
42930,88434,6
42940,88433,3
42936,88431,5
42930,88432,5
42934,88415,5
42926,88425,4
42927,88419,4
42926,88415,5
42925,88409,5
42914,88408,5
42914,88399,4
42915,88391,5
42908,88389,5
42917,88398,5
42902,88383,5
42905,88384,4
42905,88378,5
42902,88365,5
42899,88367,5
42900,88362,5
42894,88365,4
42892,88358,6
42897,88357,4
42891,88354,5
42897,88359,5
42895,88354,6
42886,88352,3
42886,88346,5
42891,88343,5
42877,88349,5
42880,88344,4
42880,88330,5
42881,88342,5
42885,88347,5
42882,88340,4
42886,88338,4
42883,88335,5
42875,88342,5
42869,88338,5
42884,88345,4
42892,88341,5
42884,88351,5
42838,88341,5
42891,88348,5
42888,88340,4
42888,88341,5
42818,88342,6
42884,88335,4
42878,88319,5
42874,88321,4
42865,88302,5
42853,88286,5
42853,88272,5
42845,88259,5
42888,88255,4
42829,88244,5
42820,88225,5
42818,88217,5
42883,88212,4
42814,88214,4
42815,88209,5
42811,88214,5
42849,88203,5
42811,88217,4
42817,88230,5
42830,88232,5
42837,88245,5
42840,88265,5
42850,88273,4
42838,88271,5
42842,88234,5
42849,88270,6
42841,88260,4
42838,88245,4
42834,88182,5
42847,88259,5
42835,88239,5
42839,88249,5
42841,88198,4
42840,88270,5
42849,88277,5
42858,88293,5
42860,88326,5
42867,88303,4
42863,88320,5
42874,88325,5
42880,88403,5
42890,88343,4
42888,88349,4
42896,88354,5
42899,88412,5
42900,88366,5
42893,88361,5
42904,88361,4
42896,88376,5
42892,88353,5
42890,88348,6
42887,88344,3
42886,88337,5
42875,88322,5
42879,88316,5
42876,88321,5
42865,88316,4
42861,88307,5
42858,88286,5
42853,88287,5
42858,88293,5
42859,88284,4
42858,88278,5
42858,88288,5
42859,88288,5
42853,88283,5
42847,88279,4
42850,88268,5
42853,88268,5
42844,88268,5
42841,88248,4
42843,88254,5
42841,88258,4
42845,88247,5
42841,88256,5
42844,88261,4
42838,88258,5
42847,88266,9
42844,88271,1
42856,88268,5
42854,88270,4
42850,88260,5
42855,88287,5
42861,88287,5
42863,88290,5
42868,88293,4
42863,88300,5
42866,88307,5
42866,88312,5
42869,88304,5
42880,88314,4
42869,88322,5
42873,88319,5
42872,88325,5
42878,88315,5
42869,88315,4
42878,88322,6
42875,88324,4
42881,88322,5
42882,88328,4
42875,88323,4
42888,88326,5
42877,88324,5
42875,88319,5
42872,88313,4
42875,88318,5
42871,88322,5
42878,88312,5
42875,88310,5
42863,88315,4
42873,88307,5
42863,88310,5
42869,88298,5
42869,88309,5
42866,88302,4
42865,88302,5
42866,88299,5
42857,88288,5
42865,88288,5
42862,88290,4
42855,88288,5
42862,88285,6
42851,88282,4
42850,88271,5
42849,88268,4
42848,88275,5
42850,88272,5
42850,88264,5
42838,88264,4
42826,88259,4
42844,88264,5
42832,88251,5
42838,88251,5
42785,88248,4
42828,88247,5
42830,88244,5
42820,88234,5
42757,88226,5
42819,88217,4
42820,88207,4
42801,88191,5
42775,88173,5
42789,88167,5
42783,88158,4
42774,88151,5
42819,88135,5
42775,88150,5
42783,88139,5
42787,88154,4
42858,88150,5
42786,88158,5
42788,88167,5
42795,88167,4
42830,88177,4
42799,88187,5
42795,88198,5
42801,88194,5
42812,88207,4
42816,88226,5
42825,88220,5
42815,88228,5
42824,88205,5
42821,88242,4
42823,88234,5
42828,88237,5
42831,88193,5
42831,88255,5
42840,88264,5
42843,88276,4
42843,88237,5
42866,88316,5
42883,88349,5
42883,88360,4
42896,88394,5
42904,88385,5
42913,88415,5
42931,88424,5
42934,88518,4
42948,88476,5
42957,88481,5
42964,88486,5
42962,88565,4
42974,88506,4
42973,88518,5
42977,88512,5
42972,88543,5
42979,88521,4
42968,88512,5
42981,88517,5
42975,88526,5
42971,88515,5
42979,88520,4
42989,88533,6
42987,88531,4
42987,88542,5
42995,88541,5
42987,88536,4
42999,88551,5
42989,88548,5
42999,88547,5
42994,88548,5
42996,88551,4
42992,88533,5
42993,88537,5
42980,88531,5
42992,88539,5
42984,88542,4
42985,88555,5
42999,88558,5
42994,88562,5
43002,88564,4
43004,88575,4
43010,88588,5
43024,88587,5
43020,88593,5
43026,88602,4
43026,88617,5
43031,88631,6
43034,88635,4
43036,88638,5
43044,88660,4
43052,88658,5
43052,88680,5
43062,88685,5
43069,88688,5
43072,88693,4
43069,88697,5
43070,88698,5
43080,88712,5
43080,88714,5
43075,88714,4
43082,88716,5
43082,88722,5
43087,88724,5
43081,88729,5
43088,88725,4
43083,88728,5
43094,88733,5
43092,88724,5
43093,88731,4
43088,88728,4
43093,88726,5
43087,88724,5
43087,88715,5
43074,88679,4
43063,88666,5
43056,88656,5
43057,88663,5
43061,88674,5
43068,88680,4
43076,88690,5
43068,88704,5
43086,88714,5
43090,88738,5
43099,88749,4
43102,88751,5
43106,88750,5
43111,88762,5
43107,88765,5
43103,88759,5
43110,88750,4
43102,88750,5
43117,88753,5
43114,88762,6
43109,88769,3
43111,88753,5
43098,88744,5
43093,88723,5
43085,88710,4
43071,88690,4
43020,88667,5
43061,88650,5
43054,88643,5
43042,88624,4
42979,88614,5
43029,88612,5
43022,88593,5
43012,88585,5
42976,88577,4
43006,88565,5
43010,88553,5
43003,88552,5
43036,88552,5
43002,88560,4
42993,88561,6
43000,88556,4
43066,88567,5
43006,88563,5
43016,88571,6
43012,88571,3
43055,88569,5
43002,88554,5
42996,88544,5
42991,88545,4
42990,88529,5
42980,88515,5
42979,88520,5
42980,88521,4
42975,88489,4
42967,88507,5
42965,88499,5
42967,88508,5
42981,88455,4
42989,88521,5
42994,88529,5
42983,88542,5
42991,88462,5
42992,88541,5
42994,88535,4
42998,88546,6
43002,88558,4
42991,88550,5
43002,88559,4
42994,88557,5
42992,88615,5
42988,88547,5
42996,88552,5
42991,88543,4
42989,88614,5
42982,88535,5
42982,88525,5
42978,88538,5
42973,88559,4
42985,88531,5
42982,88525,5
42979,88507,5
42979,88529,4
42975,88509,4
42973,88520,5
42968,88497,5
42967,88496,5
42964,88488,4
42964,88482,5
42949,88476,5
42943,88472,6
42941,88465,4
42947,88468,4
42949,88455,5
42943,88473,5
42938,88453,5
42936,88452,5
42944,88458,4
42945,88457,5
42950,88455,5
42947,88469,5
42956,88477,5
42956,88478,4
42962,88489,5
42965,88494,5
42969,88507,5
42981,88511,5
42973,88520,4
42984,88538,5
42977,88533,5
42982,88534,5
42984,88528,5
42976,88521,4
42974,88508,5
42959,88503,5
42964,88497,6
42962,88485,3
42950,88484,5
42954,88483,5
42950,88475,5
42952,88465,5
42955,88467,4
42957,88472,5
42953,88482,5
42957,88476,5
42959,88480,5
42972,88478,4
42958,88491,5
42960,88491,5
42962,88483,5
42960,88492,5
42959,88488,4
42964,88505,5
42970,88503,5
42967,88509,5
42964,88508,4
42973,88506,5
42962,88507,4
42968,88503,5
42967,88492,5
42959,88499,6
42951,88483,3
42970,88480,5
42953,88472,5
42948,88462,5
42945,88472,4
42948,88460,5
42941,88459,5
42941,88458,5
42938,88465,5
42933,88459,4
42948,88462,5
42948,88458,5
42946,88466,5
42956,88477,5
42951,88481,4
42964,88487,5
42963,88504,5
42965,88511,5
42967,88518,5
42970,88517,4
42979,88527,6
42970,88526,4
42922,88512,5
42962,88505,4
42967,88508,4
42967,88509,5
42913,88519,5
42973,88508,5
42975,88534,4
42978,88540,5
42941,88553,5
43005,88577,5
43009,88586,5
43017,88588,4
43053,88609,5
43029,88622,5
43042,88642,5
43045,88651,5
43115,88666,4
43052,88669,5
43052,88676,5
43069,88686,5
43130,88690,5
43068,88702,4
43072,88698,5
43061,88700,6
43087,88692,4
43069,88697,5
43072,88694,4
43071,88688,5
43061,88661,5
43064,88680,5
43052,88678,4
43062,88680,4
43058,88621,5
43061,88681,5
43062,88670,5
43049,88666,4
43053,88600,5
43054,88665,5
43051,88657,5
43053,88654,5
43045,88644,4
43051,88659,5
43045,88653,5
43050,88646,5
43047,88711,5
43046,88659,4
43056,88660,5
43041,88661,5
43051,88748,6
43053,88664,4
43058,88682,4
43060,88690,5
43061,88730,5
43069,88700,5
43074,88716,5
43087,88723,4
43089,88739,5
43095,88741,5
43098,88755,5
43107,88760,4
43108,88769,4
43113,88776,5
43122,88783,5
43124,88800,5
43128,88797,4
43126,88797,5
43118,88803,5
43131,88817,5
43129,88807,5
43129,88809,5
43133,88802,4
43135,88813,5
43120,88812,5
43128,88805,5
43128,88805,4
43123,88791,5
43126,88794,5
43120,88791,5
43118,88792,5
43117,88785,4
43110,88786,5
43117,88779,5
43115,88783,5
43108,88781,5
43118,88768,4
43114,88776,5
43110,88766,5
43103,88764,5
43104,88765,6
43091,88758,3
43094,88754,5
43087,88740,5
43101,88730,5
43084,88726,4
43071,88714,6
43073,88698,4
43073,88695,5
43065,88689,5
43068,88674,4
43061,88676,5
43055,88674,5
43049,88679,5
43050,88664,5
43059,88680,4
43052,88681,5
43055,88691,5
43060,88699,5
43075,88726,5
43079,88723,4
43086,88731,5
43086,88754,5
43095,88745,5
43093,88752,5
43097,88752,4
43098,88736,5
43083,88737,5
43079,88733,5
43095,88750,4
43090,88746,4
43089,88737,6
43094,88748,4
43105,88761,5
43109,88793,4
43123,88802,5
43133,88817,5
43141,88834,5
43144,88849,5
43152,88861,4
43159,88877,5
43176,88896,5
43171,88897,5
43183,88903,5
43187,88921,4
43191,88923,5
43189,88933,5
43198,88930,5
43195,88919,5
43157,88925,4
43184,88930,5
43195,88927,5
43186,88926,5
43133,88926,5
43185,88916,4
43189,88913,5
43197,88911,5
43118,88897,5
43188,88904,4
43189,88899,4
43185,88914,5
43208,88911,5
43176,88889,5
43174,88903,4
43179,88896,5
43245,88889,5
43179,88884,5
43171,88889,5
43175,88880,4
43229,88893,5
43176,88884,5
43180,88891,5
43179,88890,5
43194,88892,4
43179,88906,5
43183,88909,5
43187,88908,5
43193,88903,5
43196,88926,4
43204,88933,5
43206,88947,5
43211,88907,5
43221,88971,5
43227,88976,4
43233,88996,5
43238,88929,5
43242,89018,5
43242,89016,4
43248,89021,4
43255,89007,5
43250,89029,5
43252,89034,5
43266,89043,4
43264,89085,5
43261,89051,5
43270,89052,5
43258,89055,5
43268,89129,4
43257,89043,5
43261,89040,5
43255,89051,5
43262,89083,5
43263,89038,6
43256,89027,3
43250,89020,5
43243,89018,5
43233,89006,5
43235,88993,4
43233,88978,5
43225,88973,5
43219,88964,5
43207,88943,4
43205,88933,4
43195,88922,5
43202,88912,5
43189,88904,5
43178,88896,4
43180,88893,5
43180,88887,5
43174,88889,5
43175,88874,5
43174,88878,4
43172,88891,5
43170,88895,6
43169,88898,4
43178,88895,5
43190,88909,4
43186,88909,7
43185,88912,3
43189,88926,5
43194,88921,5
43191,88915,4
43189,88898,5
43176,88885,5
43158,88872,5
43159,88866,5
43162,88871,4
43162,88861,5
43156,88859,5
43160,88853,5
43164,88867,4
43161,88862,4
43161,88881,5
43172,88889,5
43170,88890,5
43174,88889,4
43176,88898,5
43182,88897,5
43189,88910,6
43176,88903,4
43199,88909,4
43186,88901,5
43189,88911,5
43185,88904,5
43182,88897,5
43179,88894,4
43186,88889,5
43177,88895,5
43171,88879,5
43165,88873,5
43167,88862,4
43153,88852,5
43154,88851,5
43155,88838,5
43145,88840,5
43145,88829,4
43141,88837,5
43148,88821,5
43133,88821,5
43139,88810,5
43138,88806,4
43126,88809,5
43131,88803,5
43128,88798,6
43130,88775,3
43123,88780,5
43118,88772,5
43111,88765,5
43115,88765,5
43112,88771,4
43107,88765,5
43106,88759,5
43100,88756,5
43104,88754,5
43106,88760,4
43107,88760,5
43093,88768,5
43109,88769,5
43116,88768,5
43120,88780,4
43058,88780,5
43117,88789,5
43124,88791,5
43124,88785,5
43061,88797,5
43127,88790,4
43129,88806,5
43125,88795,5
43122,88789,6
43126,88783,3
43123,88769,5
43124,88781,5
43170,88777,5
43119,88782,4
43113,88773,5
43119,88779,5
43193,88767,5
43111,88775,5
43108,88765,4
43109,88759,5
43141,88761,5
43108,88752,9
43101,88761,7
43106,88745,7
43106,88745,10
43093,88711,5
43098,88735,5
43096,88726,10
43084,88687,5
43083,88642,5
43084,88701,10
43084,88701,5
43071,88689,5
43075,88696,10
43064,88715,5
43050,88665,5
43020,88589,10
43020,88589,5
43025,88584,5
43037,88620,10
43021,88565,5
43005,88557,5
42987,88553,10
43000,88575,5
43021,88580,7
43021,88580,8
43008,88581,9
43028,88603,10
43015,88601,5
43015,88573,7
43015,88573,8
43003,88568,5
42997,88558,7
43005,88564,8
42999,88554,5
42974,88547,7
43003,88552,8
43003,88552,5
43019,88567,7
43026,88561,8
43016,88567,5
43005,88573,7
43002,88576,8
43013,88588,5
43016,88581,7
43016,88581,8
43015,88579,9
43016,88578,5
43014,88578,8
43002,88564,7
43003,88566,5
42995,88536,8
42995,88536,7
42996,88572,8
42982,88544,5
42998,88547,7
42995,88539,5
42999,88538,8
42978,88505,7
42978,88505,5
42968,88502,8
42938,88496,7
42962,88481,5
42970,88490,8
42962,88523,7
42965,88491,8
42965,88491,7
42940,88474,9
42958,88488,10
42975,88503,9
42975,88503,8
42977,88506,7
42976,88517,10
42990,88540,7
42990,88540,5
43007,88540,5
42971,88532,10
42963,88526,5
42991,88531,5
42980,88558,10
42986,88548,5
42935,88499,5
42981,88519,10
42981,88519,5
42977,88511,5
42975,88521,10
42973,88517,5
42969,88510,5
42962,88486,10
42962,88486,5
42954,88471,5
43027,88473,10
42964,88463,5
42952,88460,7
42914,88461,8
42968,88451,5
42953,88449,7
42932,88427,8
42932,88427,9
42940,88414,4
42917,88362,1
42917,88338,5
42909,88400,5
42905,88382,5
42902,88305,4
42903,88366,5
42893,88353,5
42889,88350,5
42898,88296,5
42900,88355,4
42889,88367,5
42901,88369,6
42901,88398,4
42910,88373,4
42906,88389,4
42914,88391,5
42920,88475,5
42928,88399,5
42917,88410,4
42922,88410,4
42914,88471,5
42926,88408,5
42924,88406,5
42904,88382,9
42912,88396,8
42912,88379,5
42904,88353,5
42908,88370,8
42919,88409,5
42919,88409,5
42936,88432,5
42937,88427,8
42934,88433,5
42952,88446,5
42949,88462,8
42963,88476,5
42954,88475,5
42963,88421,8
42900,88355,5
42955,88471,5
42955,88461,5
42956,88462,8
42956,88462,5
42950,88449,5
42940,88446,8
42940,88438,5
42953,88440,5
42942,88442,5
42932,88423,8
42932,88429,2
42941,88423,3
42936,88424,5
42937,88426,4
42927,88409,5
42925,88406,5
42923,88406,5
42920,88392,4
42916,88403,9
42923,88403,1
42921,88391,5
42917,88386,5
42915,88393,4
42917,88389,5
42914,88389,5
42920,88392,5
42921,88381,4
42923,88390,4
42915,88403,5
42916,88400,5
42921,88409,5
42921,88413,4
42923,88417,5
42920,88411,5
42932,88421,5
42937,88432,5
42937,88433,4
42943,88450,6
42954,88458,4
42946,88461,5
42954,88472,5
42966,88469,4
42955,88473,5
42962,88478,5
42958,88478,5
42958,88482,5
42960,88480,4
42960,88484,5
42963,88473,5
42963,88477,5
42962,88476,5
42963,88481,4
42966,88483,5
42956,88474,5
42956,88478,5
42962,88470,4
42956,88460,4
42948,88457,5
42948,88445,5
42947,88447,5
42945,88444,4
42942,88448,5
42945,88437,5
42939,88430,5
42937,88434,5
42931,88434,4
42937,88423,5
42933,88424,5
42935,88420,5
42939,88424,5
42933,88424,4
42932,88426,5
42927,88414,5
42922,88412,5
42927,88410,5
42919,88408,4
42923,88405,5
42924,88401,5
42920,88390,5
42920,88392,5
42912,88389,4
42913,88382,5
42908,88372,5
42896,88356,6
42895,88349,3
42883,88334,4
42880,88325,5
42870,88313,5
42864,88298,5
42869,88296,4
42866,88299,5
42857,88298,5
42859,88298,5
42867,88306,5
42867,88304,4
42870,88312,5
42865,88315,5
42870,88323,5
42881,88331,5
42879,88334,4
42891,88331,5
42897,88349,5
42893,88353,5
42891,88348,5
42889,88360,5
42887,88357,4
42887,88339,5
42879,88324,5
42881,88329,6
42883,88335,3
42877,88336,5
42883,88325,5
42882,88326,5
42882,88342,4
42892,88345,4
42894,88361,5
