RED,IR,EKG,TIME
24074,44834,183223
24088,44836,1
26821,49633,4
26815,49692,4
26820,49679,5
26813,49684,5
26822,49693,5
26810,49682,4
26812,49689,5
26814,49677,4
26815,49725,5
26814,49680,5
26809,49687,4
26815,49688,5
26820,49741,5
26809,49678,5
26816,49682,5
26806,49688,4
26812,49707,5
26806,49683,5
26809,49679,5
26818,49686,5
26812,49673,4
26807,49685,5
26804,49678,5
26811,49678,5
26809,49676,5
26806,49678,4
26813,49673,5
26802,49675,5
26812,49670,5
26808,49674,4
26802,49676,5
26807,49676,7
26804,49667,3
26810,49678,5
26803,49679,4
26811,49674,5
26800,49678,5
26798,49679,5
26805,49680,5
26809,49667,4
26803,49669,5
26802,49674,5
26808,49664,5
26797,49659,5
26793,49652,4
26797,49667,5
26790,49660,5
26790,49659,5
26786,49663,4
26792,49653,4
26787,49659,5
26795,49655,5
26789,49667,5
26794,49667,4
26798,49660,5
26807,49667,5
26798,49671,5
26795,49659,5
26792,49675,4
26795,49667,5
26800,49663,5
26793,49658,5
26793,49665,5
26790,49660,4
26795,49654,5
26782,49651,5
26793,49658,5
26785,49656,5
26784,49666,4
26780,49650,5
26778,49652,5
26782,49645,5
26783,49644,4
26786,49647,4
26777,49652,5
26781,49644,5
26786,49646,5
26786,49649,5
26783,49649,4
26781,49641,5
26781,49641,5
26774,49643,5
26791,49642,4
26772,49643,5
26773,49640,5
26770,49633,5
26776,49634,5
26771,49629,4
26773,49632,5
26779,49633,5
26772,49639,5
26772,49632,5
26776,49634,4
26781,49632,5
26773,49628,5
26769,49634,5
26771,49631,4
26753,49628,4
26772,49633,5
26770,49629,4
26768,49617,5
26718,49626,4
26763,49619,6
26763,49625,3
26756,49619,5
26703,49629,5
26763,49632,4
26752,49614,5
26757,49628,5
26746,49621,5
26759,49620,5
26763,49621,4
26756,49621,5
26802,49623,5
26769,49624,5
26758,49618,5
26751,49628,4
26817,49622,5
26753,49628,5
26760,49626,5
26760,49629,4
26792,49616,4
26764,49625,5
26764,49625,6
26761,49623,4
26766,49618,4
26758,49622,5
26757,49624,5
26752,49610,5
26756,49584,5
26751,49624,4
26757,49617,5
26752,49600,5
26759,49571,5
26751,49613,5
26755,49608,4
26756,49617,5
26752,49568,5
26762,49628,5
26750,49617,5
26759,49612,5
26759,49653,4
26756,49621,5
26755,49621,5
26755,49624,5
26761,49684,4
26754,49631,5
26761,49622,5
26751,49612,6
26757,49664,3
26756,49621,5
26760,49618,5
26755,49618,5
26753,49631,5
26759,49621,4
26758,49617,5
26762,49621,5
26752,49614,5
26767,49619,5
26762,49625,4
26760,49618,5
26760,49614,5
26756,49620,5
26748,49615,5
26763,49611,4
26743,49612,5
26744,49606,5
26755,49600,5
26748,49600,4
26748,49597,5
26750,49604,4
26738,49601,5
26741,49604,5
26743,49599,6
26746,49587,3
26740,49593,5
26731,49593,5
26734,49584,5
26746,49593,4
26740,49587,5
26741,49587,5
26743,49595,5
26741,49583,5
26732,49590,4
26745,49589,5
26739,49597,5
26734,49582,5
26733,49586,5
26735,49574,4
26736,49579,5
26731,49576,5
26728,49572,5
26732,49580,4
26724,49567,4
26736,49584,6
26733,49579,4
26733,49581,5
26736,49583,4
26730,49575,5
26724,49566,5
26730,49569,5
26733,49573,5
26725,49572,4
26729,49571,5
26729,49569,5
26719,49570,5
26730,49560,5
26726,49563,4
26723,49555,5
26725,49567,5
26720,49560,5
26725,49566,5
26728,49564,4
26730,49560,5
26723,49566,5
26722,49563,5
26723,49560,4
26727,49563,4
26721,49565,5
26723,49566,6
26724,49565,4
26720,49560,4
26719,49562,5
26721,49560,6
26715,49560,4
26716,49557,5
26716,49551,4
26708,49556,5
26716,49552,5
26721,49546,5
26721,49554,5
26719,49552,4
26717,49549,5
26715,49548,5
26701,49551,5
26719,49556,5
26720,49550,4
26717,49550,5
26671,49545,5
26718,49555,5
26717,49555,5
26717,49556,4
26658,49541,5
26715,49551,5
26718,49558,6
26718,49557,3
26715,49560,5
26722,49560,5
26720,49556,5
26714,49561,5
26766,49554,4
26712,49549,5
26712,49543,5
26718,49547,5
26766,49537,5
26709,49533,4
26701,49526,5
26697,49531,5
26728,49525,5
26703,49528,5
26701,49526,4
26702,49517,5
26704,49527,5
26698,49520,5
26709,49515,4
26700,49524,5
26699,49486,4
26700,49522,5
26693,49514,5
26701,49523,4
26697,49472,5
26697,49527,5
26694,49515,5
26697,49524,5
26701,49485,4
26701,49520,5
26696,49515,5
26697,49507,5
26687,49541,5
26687,49505,4
26693,49513,5
26689,49506,5
26693,49565,5
26692,49508,5
26688,49505,4
26693,49511,5
26690,49544,5
26694,49514,5
26685,49510,5
26682,49502,4
26683,49521,6
26688,49509,4
26695,49509,5
26680,49500,4
26682,49495,5
26679,49487,5
26684,49494,5
26680,49497,5
26681,49497,4
26674,49489,5
26679,49490,5
26676,49485,5
26675,49492,5
26667,49489,4
26674,49488,5
26671,49490,5
26679,49489,5
26681,49486,5
26677,49493,4
26686,49492,5
26684,49490,5
26685,49487,5
26679,49494,4
26674,49491,4
26677,49480,5
26675,49483,6
26674,49490,4
26676,49488,4
26672,49493,5
26676,49498,5
26673,49492,5
26669,49483,5
26670,49488,4
26665,49475,5
26657,49464,5
26657,49457,5
26655,49454,5
26658,49456,4
26658,49455,5
26649,49455,5
26648,49453,5
26645,49460,5
26654,49468,4
26657,49465,5
26659,49473,5
26667,49486,5
26675,49503,5
26678,49506,4
26686,49519,5
26697,49537,5
26699,49531,5
26691,49546,4
26705,49538,5
26703,49549,5
26711,49569,5
26715,49571,5
26725,49585,4
26728,49599,5
26734,49610,5
26737,49615,5
26746,49625,5
26748,49638,4
26755,49643,5
26755,49630,5
26749,49637,5
26743,49629,5
26751,49619,4
26746,49617,5
26737,49614,5
26735,49605,5
26735,49611,4
26729,49597,5
26727,49597,4
26744,49603,5
26728,49587,5
26726,49599,4
26728,49600,5
26727,49592,5
26732,49595,5
26730,49596,5
26736,49601,4
26715,49593,5
26739,49596,5
26737,49593,5
26727,49597,5
26694,49606,4
26745,49612,5
26738,49615,5
26749,49625,5
26697,49631,5
26758,49633,4
26751,49634,5
26757,49628,6
26755,49634,4
26757,49636,5
26761,49633,4
26760,49631,6
26803,49643,4
26764,49640,5
26758,49649,4
26761,49646,5
26832,49644,5
26774,49648,5
26775,49658,5
26772,49650,4
26791,49652,5
26774,49653,5
26769,49663,5
26770,49657,5
26776,49657,4
26777,49653,5
26775,49662,5
26780,49668,5
26773,49625,5
26781,49669,4
26777,49671,5
26780,49671,5
26778,49610,5
26780,49679,5
26781,49672,4
26784,49670,5
26786,49639,5
26778,49668,5
26784,49675,4
26786,49659,6
26781,49700,4
26786,49673,5
26783,49666,5
26779,49667,4
26779,49727,5
26779,49667,5
26777,49674,5
26786,49669,5
26777,49706,4
26775,49653,5
26780,49671,5
26778,49664,5
26779,49684,5
26778,49662,4
26784,49668,5
26788,49662,5
26774,49664,5
26774,49660,5
26773,49659,4
26770,49652,5
26775,49663,5
26776,49656,5
26763,49651,4
26765,49648,5
26775,49643,5
26766,49648,5
26764,49642,5
26772,49644,4
26762,49645,5
26777,49653,5
26764,49651,5
26769,49658,5
26777,49653,4
26766,49648,5
26777,49648,5
26772,49647,5
26775,49647,5
26774,49655,4
26771,49649,5
26763,49660,4
26768,49649,5
26764,49651,5
26767,49654,5
26764,49645,3
26768,49645,5
26765,49646,5
26770,49643,4
26761,49641,5
26767,49652,5
26774,49646,5
26770,49641,5
26766,49650,4
26770,49652,5
26771,49648,5
26774,49646,5
26770,49646,5
26775,49645,4
26770,49641,5
26775,49651,5
26771,49646,5
26765,49654,5
26774,49651,4
26771,49655,5
26766,49647,6
26770,49654,4
26768,49648,5
26768,49659,4
26767,49650,5
26768,49649,5
26776,49653,5
26767,49656,4
26771,49647,4
26782,49647,5
26774,49653,5
26769,49656,5
26769,49661,4
26771,49660,5
26772,49661,5
26773,49660,5
26772,49664,5
26771,49661,4
26773,49662,5
26780,49665,5
26777,49667,5
26773,49664,5
26779,49666,4
26774,49652,5
26780,49659,5
26773,49659,6
26778,49667,4
26775,49662,4
26778,49662,5
26773,49665,5
26752,49671,5
26781,49660,4
26785,49676,4
26778,49669,5
26741,49674,5
26779,49669,5
26781,49663,4
26784,49674,5
26736,49665,5
26782,49667,5
26782,49669,5
26786,49668,4
26791,49672,5
26774,49670,5
26785,49668,5
26787,49669,5
26831,49663,5
26781,49669,4
26784,49667,5
26772,49673,5
26840,49658,6
26785,49659,3
26777,49658,5
26778,49656,5
26800,49664,5
26775,49657,4
26781,49664,4
26776,49664,5
26777,49654,5
26774,49664,5
26779,49652,4
26775,49654,5
26775,49606,5
26775,49641,5
26767,49643,5
26777,49652,4
26771,49587,5
26771,49645,5
26771,49647,5
26767,49644,5
26770,49639,4
26783,49657,6
26777,49659,4
26780,49664,5
26786,49705,5
26776,49664,4
26777,49669,5
26780,49668,5
26781,49727,5
26769,49664,4
26774,49653,4
26772,49654,5
26775,49685,5
26784,49648,5
26774,49666,4
26775,49664,5
26782,49668,5
26778,49661,5
26783,49669,5
26784,49663,4
26783,49671,5
26782,49674,5
26775,49664,5
26786,49665,5
26778,49667,4
26787,49669,5
26775,49670,6
26789,49670,4
26785,49670,5
26787,49673,4
26779,49676,5
26788,49670,5
26771,49669,5
26786,49665,4
26777,49676,4
26789,49676,5
26788,49669,5
26787,49671,5
26785,49672,4
26788,49673,5
26788,49675,5
26796,49669,5
26791,49679,5
26793,49675,4
26787,49683,5
26788,49679,5
26795,49687,5
26791,49681,5
26792,49687,4
26790,49693,5
26799,49696,5
26804,49692,6
26789,49687,4
26790,49692,4
26802,49691,5
26799,49702,5
26794,49689,5
26792,49698,4
26802,49692,4
26798,49704,5
26799,49694,5
26804,49684,5
26803,49694,4
26793,49698,5
26803,49693,5
26806,49690,5
26802,49698,5
26809,49695,4
26796,49698,5
26801,49699,5
26809,49704,5
26808,49708,5
26812,49709,5
26795,49704,4
26810,49705,5
26809,49706,5
26800,49714,5
26809,49705,4
26810,49707,5
26806,49705,5
26804,49700,5
26805,49703,4
26805,49704,4
26803,49708,5
26806,49709,5
26811,49707,5
26803,49698,4
26803,49702,5
26801,49703,5
26799,49705,5
26800,49690,5
26797,49699,4
26795,49694,9
26789,49689,2
26792,49694,4
26801,49701,5
26803,49701,4
26778,49697,6
26797,49707,4
26803,49689,5
26805,49693,5
26762,49693,4
26800,49699,5
26804,49691,5
26803,49695,5
26744,49698,5
26802,49687,4
26798,49696,5
26795,49699,5
26805,49696,5
26798,49693,4
26795,49694,5
26792,49689,5
26843,49682,5
26790,49684,5
26795,49673,4
26786,49673,5
26845,49668,5
26782,49663,5
26781,49660,5
26777,49654,4
26799,49653,5
26779,49661,6
26774,49657,4
26782,49667,5
26787,49665,4
26781,49676,5
26784,49686,5
26786,49678,5
26795,49661,5
26799,49694,4
26801,49706,5
26797,49706,5
26805,49653,5
26804,49718,4
26794,49705,4
26803,49706,5
26798,49676,5
26806,49710,5
26798,49706,4
26797,49699,5
26793,49727,5
26786,49692,5
26793,49701,5
26791,49698,4
26791,49755,5
26799,49695,5
26791,49693,6
26793,49703,4
26793,49727,4
26793,49696,5
26790,49705,5
26796,49701,5
26790,49709,5
26797,49708,4
26790,49706,5
26796,49701,5
26789,49698,5
26797,49703,4
26795,49702,4
26793,49703,5
26795,49703,5
26788,49701,5
26799,49705,4
26782,49700,5
26788,49696,5
26798,49701,5
26782,49704,5
26791,49697,5
26793,49708,4
26790,49713,5
26796,49707,5
26788,49711,5
26795,49713,4
26793,49718,5
26798,49719,5
26797,49720,5
26796,49712,5
26800,49720,4
26798,49708,5
26797,49717,5
26790,49711,5
26790,49712,5
26795,49715,4
26802,49700,5
26785,49713,5
26786,49713,5
26801,49701,4
26794,49704,5
26793,49704,5
26787,49718,5
26798,49717,5
26797,49711,4
26795,49718,6
26791,49726,4
26799,49727,5
26795,49729,5
26803,49731,4
26801,49726,5
26802,49735,5
26814,49729,5
26810,49732,5
26807,49732,4
26808,49727,5
26807,49736,5
26802,49729,5
26806,49734,5
26800,49740,4
26807,49734,5
26812,49730,5
26802,49744,5
26804,49744,4
26815,49744,5
26813,49749,5
26812,49742,5
26810,49744,5
26814,49745,4
26804,49745,5
26807,49748,6
26815,49748,4
26815,49743,5
26811,49745,4
26817,49750,5
26804,49742,5
26805,49745,5
26807,49739,5
26812,49732,4
26802,49733,5
26794,49735,5
26804,49730,5
26793,49722,5
26797,49726,4
26797,49728,5
26802,49730,5
26775,49724,5
26799,49726,4
26799,49728,5
26793,49732,5
26753,49729,5
26805,49735,5
26797,49730,4
26800,49732,5
26743,49728,5
26803,49733,5
26800,49729,5
26793,49732,4
26794,49728,5
26794,49714,5
26786,49718,5
26789,49711,5
26832,49710,4
26780,49707,5
26777,49703,5
26780,49711,5
26837,49715,5
26779,49702,4
26783,49698,5
26770,49698,5
26791,49695,5
26774,49694,4
26774,49693,4
26768,49690,4
26778,49674,5
26770,49682,5
26767,49678,5
26762,49680,3
26773,49630,5
26774,49672,5
26760,49662,5
26757,49669,4
26774,49611,5
26757,49658,5
26763,49652,5
26751,49650,5
26752,49629,4
26747,49654,5
26752,49661,5
26753,49655,5
26767,49696,5
26750,49653,4
26751,49640,5
26745,49632,5
26746,49694,5
26737,49627,4
26734,49619,4
26737,49620,6
26727,49643,4
26725,49606,5
26722,49606,4
26722,49607,7
26723,49600,3
26723,49597,5
26726,49597,5
26734,49604,4
26733,49613,5
26730,49621,5
26742,49623,5
26735,49621,5
26742,49625,4
26745,49633,5
26751,49634,5
26757,49643,5
26752,49644,5
26756,49648,4
26762,49645,5
26764,49663,5
26769,49665,5
26766,49663,4
26768,49676,4
26767,49678,5
26776,49684,6
26780,49683,4
26777,49676,4
26785,49669,5
26778,49683,5
26780,49676,5
26787,49676,5
26768,49668,4
26776,49669,5
26778,49667,5
26772,49674,5
26782,49666,5
26772,49677,4
26779,49672,5
26777,49681,5
26778,49670,5
26772,49668,5
26775,49667,4
26782,49672,5
26776,49671,5
26779,49668,5
26783,49675,5
26771,49678,4
26787,49676,5
26781,49676,5
26784,49681,6
26788,49694,3
26790,49687,5
26783,49699,5
26790,49700,5
26800,49696,5
26800,49691,4
26799,49695,5
26793,49695,5
26792,49687,5
26785,49693,5
26782,49681,4
26783,49683,5
26778,49681,5
26782,49679,5
26776,49674,5
26777,49683,4
26778,49675,5
26778,49671,5
26786,49672,5
26779,49681,5
26790,49675,5
26776,49683,4
26783,49680,5
26775,49682,5
26786,49680,6
26778,49672,3
26782,49680,5
26782,49682,5
26776,49678,5
26786,49678,4
26779,49684,5
26792,49679,5
26776,49680,5
26780,49677,5
26784,49677,4
26756,49675,5
26778,49677,5
26779,49674,5
26778,49688,5
26734,49683,4
26798,49678,5
26784,49675,5
26787,49676,5
26728,49673,5
26780,49676,4
26780,49673,6
26778,49671,4
26785,49661,5
26786,49680,4
26781,49682,4
26786,49678,5
26838,49669,5
26787,49678,5
26778,49678,4
26781,49670,5
26841,49677,5
26784,49671,5
26778,49683,5
26780,49680,4
26812,49673,5
26775,49678,5
26777,49686,5
26780,49679,5
26789,49681,4
26784,49683,5
26787,49681,5
26787,49679,5
26782,49639,5
26783,49688,4
26789,49684,5
26795,49679,6
26787,49633,4
26782,49682,4
26781,49681,4
26783,49680,5
26794,49658,5
26792,49675,5
26790,49678,4
26781,49682,5
26783,49707,5
26777,49681,5
26779,49664,5
26788,49676,4
26778,49732,5
26775,49670,5
26781,49666,5
26771,49678,5
26784,49713,4
26771,49669,5
26779,49657,5
26779,49665,5
26777,49674,5
26769,49658,4
26769,49659,5
26774,49658,5
26763,49645,6
26765,49659,3
26763,49660,4
26767,49656,5
26767,49658,5
26770,49657,5
26775,49659,4
26774,49660,5
26778,49666,5
26777,49667,5
26780,49669,5
26781,49670,4
26776,49670,5
26778,49660,5
26771,49665,5
26773,49652,5
26777,49649,4
26762,49662,5
26772,49654,5
26766,49657,5
26768,49652,5
26768,49649,5
26764,49646,4
26765,49650,5
26770,49649,5
26757,49645,5
26765,49638,4
26762,49647,5
26761,49645,5
26763,49645,5
26757,49642,4
26758,49636,4
26751,49633,5
26754,49632,5
26748,49620,5
26750,49610,4
26744,49614,5
26732,49605,5
26724,49597,5
26728,49575,5
26720,49577,4
26719,49580,5
26717,49579,5
26712,49570,5
26719,49577,5
26703,49562,4
26709,49556,6
26707,49544,4
26701,49552,5
26695,49536,5
26688,49530,4
26696,49525,5
26693,49522,5
26689,49528,5
26687,49520,4
26688,49523,4
26689,49527,5
26680,49519,5
26685,49516,5
26680,49527,4
26695,49533,5
26690,49531,5
26689,49535,5
26687,49526,5
26692,49519,4
26683,49517,5
26679,49500,5
26675,49500,5
26675,49501,5
26669,49504,4
26686,49507,5
26678,49514,6
26679,49509,4
26683,49504,5
26679,49514,4
26683,49520,5
26687,49513,5
26668,49517,5
26689,49530,4
26698,49532,6
26693,49524,3
26646,49532,5
26693,49531,5
26686,49529,4
26702,49538,5
26647,49533,5
26697,49549,5
26706,49541,5
26705,49549,5
26702,49549,4
26709,49556,5
26709,49562,5
26710,49564,5
26764,49573,4
26715,49584,5
26725,49576,5
26726,49573,5
26782,49588,5
26729,49590,4
26728,49590,5
26730,49598,5
26765,49600,5
26737,49608,5
26735,49612,4
26744,49609,5
26758,49612,5
26739,49619,5
26751,49617,4
26752,49623,5
26748,49590,5
26747,49612,5
26739,49613,5
26736,49615,4
26742,49550,5
26737,49608,5
26735,49601,5
26734,49601,5
26732,49558,5
26731,49600,4
26727,49589,5
26727,49593,5
26730,49620,5
26730,49586,4
26732,49587,5
26736,49588,5
26735,49660,5
26725,49584,5
26732,49595,4
26732,49587,5
26728,49630,5
26725,49578,5
26716,49582,4
26716,49579,4
26721,49591,5
26716,49588,5
26722,49577,5
26728,49579,4
26726,49569,5
26720,49567,5
26712,49572,5
26715,49568,5
26724,49571,4
26715,49575,6
26718,49564,4
26715,49573,5
26721,49571,5
26719,49567,4
26718,49563,5
26717,49575,5
26710,49569,5
26718,49565,5
26713,49566,4
26719,49564,5
26707,49559,5
26703,49552,5
26704,49545,4
26696,49542,4
26697,49543,5
26699,49533,5
26693,49529,5
26679,49515,4
26675,49506,5
26670,49488,5
26674,49493,5
26668,49497,5
26663,49484,4
26664,49487,5
26674,49480,5
26655,49479,5
26656,49472,5
26648,49468,4
26655,49462,5
26658,49478,5
26655,49471,5
26650,49470,5
26646,49463,4
26644,49465,5
26645,49457,5
26650,49469,5
26654,49463,4
26643,49462,4
26647,49458,5
26647,49448,5
26641,49436,5
26641,49446,5
26640,49451,4
26637,49456,5
26645,49453,5
26643,49442,5
26638,49453,3
26638,49448,5
26638,49439,5
26638,49432,5
26630,49416,5
26625,49424,4
26621,49413,5
26624,49407,5
26609,49396,5
26608,49395,5
26608,49386,4
26605,49388,5
26607,49394,5
26606,49395,5
26611,49400,5
26615,49400,4
26615,49407,5
26611,49400,5
26610,49389,5
26608,49386,4
26610,49383,6
26596,49376,4
26603,49384,5
26599,49376,5
26601,49367,6
26581,49376,3
26598,49374,5
26597,49381,5
26595,49374,5
26555,49372,4
26585,49381,5
26595,49378,5
26600,49380,5
26553,49383,5
26596,49374,4
26599,49383,5
26595,49380,5
26576,49386,5
26597,49391,5
26595,49384,4
26605,49394,5
26653,49396,5
26607,49398,5
26608,49396,4
26615,49396,4
26665,49407,6
26617,49409,4
26607,49409,5
26614,49416,4
26651,49419,5
26610,49422,5
26618,49416,5
26621,49420,5
26622,49433,4
26627,49431,5
26620,49430,5
26624,49433,5
26629,49403,5
26628,49434,4
26626,49429,5
26625,49412,5
26626,49364,5
26623,49424,5
26617,49420,4
26620,49417,5
26621,49368,5
26626,49420,5
26621,49422,4
26624,49422,5
26623,49436,4
26616,49411,6
26625,49409,4
26616,49411,4
26618,49462,5
26617,49414,5
26622,49406,5
26624,49425,5
26630,49474,4
26622,49424,5
26630,49434,5
26628,49432,5
26634,49459,5
26634,49438,4
26638,49448,5
26634,49453,5
26637,49453,5
26644,49455,5
26643,49449,4
26654,49461,5
26650,49462,5
26649,49466,5
26653,49463,5
26661,49470,4
26652,49471,5
26660,49479,5
26658,49477,6
26659,49475,3
26668,49482,5
26659,49479,5
26664,49481,5
26666,49477,5
26677,49486,4
26671,49485,5
26663,49488,5
26675,49484,5
26670,49487,5
26665,49495,4
26674,49489,5
26682,49500,5
26675,49502,5
26676,49505,5
26674,49509,4
26684,49505,5
26682,49521,5
26694,49524,5
26692,49522,5
26694,49529,5
26695,49535,4
26685,49530,5
26702,49534,5
26697,49541,6
26702,49531,3
26708,49531,5
26690,49526,5
26694,49538,5
26686,49520,4
26697,49528,5
26704,49521,5
26692,49523,5
26702,49535,5
26697,49522,4
26699,49523,5
26693,49528,5
26696,49527,5
26687,49534,5
26694,49534,4
26694,49538,5
26698,49535,5
26695,49540,5
26701,49538,5
26697,49538,4
26690,49544,6
26706,49540,4
26702,49540,5
26697,49545,4
26700,49539,4
26703,49544,5
26696,49546,5
26697,49536,5
26705,49544,4
26705,49545,5
26702,49545,5
26701,49541,5
26698,49545,5
26706,49541,4
26710,49551,5
26704,49553,5
26701,49557,5
26714,49550,5
26715,49554,4
26710,49557,5
26715,49557,5
26702,49556,5
26713,49562,5
26713,49558,4
26706,49558,5
26671,49562,6
26715,49563,4
26719,49564,4
26722,49564,4
26661,49554,5
26713,49563,5
26711,49564,5
26718,49573,4
26689,49564,5
26715,49569,5
26727,49575,5
26724,49570,5
26758,49575,4
26715,49568,5
26727,49572,5
26725,49579,5
26786,49565,5
26727,49583,4
26727,49576,5
26735,49583,5
26777,49578,5
26732,49584,5
26729,49585,4
26735,49579,5
26740,49590,5
26733,49587,6
26728,49583,3
26726,49586,4
26723,49555,5
26723,49584,5
26734,49578,5
26730,49591,4
26735,49540,5
26739,49586,5
26725,49584,5
26734,49586,5
26738,49526,4
26734,49591,5
26731,49581,5
26733,49591,5
26730,49605,5
26738,49594,4
26733,49593,5
26738,49596,5
26733,49647,5
26736,49589,5
26740,49589,5
26735,49596,4
26740,49652,5
26733,49595,5
26737,49596,5
26735,49588,4
26732,49613,5
26750,49599,5
26744,49591,5
26738,49591,4
26739,49594,5
26741,49590,5
26736,49600,5
26744,49594,5
26745,49604,4
26748,49605,5
26744,49599,5
26739,49607,5
26744,49605,5
26749,49613,4
26751,49610,5
26749,49616,5
26756,49622,5
26749,49618,5
26752,49617,4
26752,49623,6
26753,49624,4
26751,49623,5
26762,49620,5
26757,49629,4
26759,49619,5
26758,49624,5
26744,49624,5
26751,49621,4
26750,49614,5
26748,49611,5
26738,49605,5
26741,49610,5
26741,49603,4
26745,49600,5
26741,49597,5
26741,49591,5
26734,49601,5
26729,49597,4
26741,49598,5
26736,49604,5
26743,49611,5
26753,49615,5
26756,49629,4
26761,49627,5
26757,49635,6
26766,49645,4
26765,49641,5
26765,49645,4
26763,49645,5
26765,49643,5
26770,49638,5
26765,49638,4
26757,49632,4
26770,49636,5
26766,49639,5
26774,49638,5
26763,49642,4
26762,49641,5
26776,49649,5
26770,49650,5
26768,49644,5
26766,49663,4
26765,49650,5
26768,49652,5
26768,49656,5
26771,49648,5
26771,49656,4
26770,49649,5
26770,49655,5
26769,49662,5
26775,49650,5
26774,49654,4
26767,49652,5
26774,49650,5
26764,49657,5
26769,49654,4
26770,49652,4
26773,49649,5
26776,49650,5
26770,49644,5
26769,49652,4
26763,49662,5
26778,49666,5
26783,49657,5
26777,49669,5
26745,49670,4
26784,49671,5
26783,49679,5
26785,49669,5
26728,49668,9
26784,49672,2
26777,49654,3
26781,49670,5
26764,49668,5
26784,49669,5
26787,49679,4
26782,49676,5
26817,49682,5
26787,49674,5
26782,49684,4
26782,49682,4
26841,49696,5
26794,49699,5
26785,49694,5
26794,49696,4
26829,49707,5
26799,49710,5
26809,49700,5
26809,49716,5
26815,49723,4
26806,49723,5
26802,49723,5
26804,49722,5
26806,49690,5
26804,49717,4
26811,49711,6
26806,49726,4
26807,49666,5
26807,49717,5
26803,49721,4
26801,49718,5
26804,49667,5
26797,49719,5
26802,49715,4
26804,49715,5
26797,49724,4
26787,49697,5
26783,49688,5
26773,49677,4
26776,49737,5
26772,49678,5
26770,49668,5
26771,49664,5
26758,49708,4
26769,49674,5
26776,49673,5
26772,49664,6
26780,49692,4
26769,49676,4
26771,49676,5
26771,49672,5
26775,49675,5
26765,49674,5
26775,49667,4
26782,49672,5
26761,49670,5
26772,49670,5
26774,49667,5
26761,49673,4
26777,49659,5
26767,49660,5
26765,49659,5
26760,49665,4
26765,49659,5
26766,49664,5
26765,49667,5
26765,49676,5
26775,49683,5
26780,49687,4
26783,49687,5
26777,49699,5
26786,49702,6
26785,49701,3
26783,49701,5
26784,49709,5
26786,49710,5
26786,49706,5
26778,49708,4
26793,49704,5
26786,49698,5
26792,49703,5
26787,49703,5
26789,49710,4
26792,49713,5
26794,49723,5
26799,49722,5
26800,49719,4
26807,49717,4
26805,49727,5
26801,49728,5
26804,49738,5
26812,49743,4
26812,49752,6
26815,49759,4
26824,49757,5
26821,49761,5
26829,49770,6
26821,49765,3
26824,49773,5
26830,49775,5
26828,49781,5
26829,49786,4
26836,49783,5
26838,49782,5
26839,49785,5
26834,49794,5
26842,49792,4
26839,49791,5
26848,49785,5
26846,49782,5
26834,49795,4
26844,49792,4
26843,49793,5
26834,49792,5
26834,49787,5
26833,49787,4
26841,49789,5
26830,49782,6
26829,49781,4
26830,49779,5
26837,49793,4
26832,49781,5
26839,49784,5
26827,49784,5
26831,49781,5
26829,49782,4
26821,49778,5
26824,49781,5
26821,49788,5
26842,49785,5
26835,49792,4
26841,49799,5
26802,49796,5
26848,49802,5
26848,49805,4
26851,49808,4
26795,49808,5
26852,49798,5
26855,49816,5
26854,49810,4
26837,49813,5
26851,49812,5
26844,49814,6
26849,49809,4
26889,49811,4
26846,49811,5
26847,49813,5
26852,49814,5
26910,49823,5
26862,49816,4
26855,49826,5
26855,49807,5
26880,49817,5
26851,49812,5
26849,49813,4
26849,49812,5
26858,49811,5
26851,49813,5
26850,49819,4
26849,49812,4
26850,49780,5
26839,49804,5
26847,49798,5
26838,49811,5
26835,49750,4
26838,49800,5
26833,49793,5
26836,49792,6
26832,49734,3
26831,49773,5
26828,49778,5
26835,49772,5
26831,49793,5
26824,49771,4
26834,49766,5
26826,49762,5
26813,49811,5
26818,49756,5
26813,49757,4
26815,49745,5
26807,49782,5
26803,49732,5
26806,49720,4
26794,49722,4
26792,49730,5
26791,49713,5
26784,49714,5
26780,49708,4
26788,49710,6
26791,49711,4
26792,49711,5
26793,49718,5
26801,49725,4
26806,49727,5
26807,49741,5
26798,49731,5
26806,49733,5
26802,49744,4
26806,49744,5
26803,49749,5
26805,49751,5
26811,49747,5
26810,49743,4
26813,49755,5
26819,49761,5
26824,49762,5
26830,49772,5
26823,49772,4
26828,49771,5
26832,49786,5
26834,49793,5
26841,49799,4
26840,49797,5
26839,49793,6
26846,49793,4
26841,49805,5
26857,49812,4
26857,49821,5
26850,49814,5
26859,49816,5
26850,49817,5
26861,49823,4
26856,49806,5
26855,49816,5
26862,49810,5
26860,49814,5
26855,49813,4
26861,49814,5
26860,49819,5
26855,49811,5
26858,49806,5
26864,49816,4
26852,49809,5
26858,49813,5
26851,49813,5
26861,49805,4
26857,49810,5
26857,49799,5
26851,49792,6
26852,49793,4
26849,49791,4
26855,49788,5
26847,49795,5
26848,49786,5
26848,49778,5
26845,49784,4
26837,49786,5
26841,49782,5
26846,49778,5
26844,49774,5
26847,49776,4
26840,49774,5
26844,49779,5
26838,49773,5
26837,49773,5
26838,49775,4
26851,49790,5
26850,49789,5
26851,49793,5
26850,49792,5
26849,49799,4
26849,49797,5
26855,49794,5
26861,49803,5
26857,49798,4
26844,49799,5
26861,49806,5
26851,49793,5
26848,49798,5
26821,49793,4
26857,49799,5
26856,49794,5
26855,49788,5
26798,49780,5
26855,49789,4
26844,49795,5
26844,49778,5
26828,49778,5
26850,49784,5
26847,49776,4
26838,49776,5
26882,49762,5
26838,49769,5
26839,49765,4
26830,49760,5
26891,49761,4
26821,49752,5
26834,49748,5
26824,49741,4
26863,49752,5
26825,49748,5
26819,49745,5
26825,49748,5
26838,49751,4
26821,49749,5
26830,49745,5
26830,49746,5
26825,49717,5
26835,49755,4
26826,49766,5
26836,49754,5
26828,49702,5
26833,49755,5
26832,49744,4
26826,49748,5
26828,49700,5
26823,49741,5
26815,49744,4
26826,49738,5
26818,49766,5
26822,49742,4
26815,49740,5
26815,49743,4
26826,49805,5
26826,49743,5
26809,49731,5
26825,49734,5
26815,49776,4
26820,49726,5
26815,49734,5
26816,49736,5
26810,49754,5
26810,49732,4
26808,49721,5
26816,49723,5
26811,49717,5
26810,49713,5
26807,49714,4
26794,49717,5
26797,49712,5
26795,49702,5
26799,49714,5
26803,49699,4
26794,49701,5
26782,49689,5
26775,49684,5
26778,49671,4
26775,49663,5
26765,49649,5
26762,49639,5
26750,49626,5
26744,49617,4
26740,49608,5
26735,49608,5
26735,49608,5
26733,49615,5
26749,49607,4
26729,49610,5
26742,49616,5
26741,49617,5
26746,49618,5
26740,49624,4
26744,49630,5
26746,49625,5
26761,49649,5
26757,49644,5
26752,49642,4
26762,49631,5
26750,49625,5
26745,49612,5
26732,49609,4
26727,49591,4
26731,49586,5
26715,49569,5
26704,49570,5
26709,49574,4
26708,49574,5
26719,49580,5
26720,49582,5
26706,49573,5
26711,49560,4
26700,49554,5
26704,49545,5
26699,49554,5
26699,49551,5
26706,49546,4
26697,49548,5
26706,49553,5
26699,49555,5
26697,49556,5
26701,49565,5
26705,49546,4
26693,49545,5
26701,49542,5
26692,49541,4
26696,49534,4
26699,49549,5
26690,49544,5
26694,49548,5
26705,49554,4
26706,49557,5
26703,49574,5
26712,49576,5
26716,49580,5
26727,49590,4
26725,49598,5
26724,49592,5
26721,49592,5
26718,49586,5
26724,49586,4
26717,49578,5
26721,49588,6
26691,49578,4
26710,49571,5
26709,49573,4
26714,49572,7
26669,49571,3
26715,49569,5
26701,49570,5
26698,49575,4
26656,49564,5
26705,49571,5
26708,49570,5
26699,49562,4
26703,49560,5
26692,49556,5
26696,49563,5
26704,49555,7
26744,49556,2
26698,49555,5
26696,49536,5
26691,49527,5
26747,49519,5
26678,49516,4
26681,49515,5
26674,49511,5
26707,49512,6
26682,49509,4
26676,49526,4
26679,49527,5
26681,49511,5
26688,49521,5
26680,49522,5
26684,49523,4
26680,49495,5
26682,49516,5
26682,49521,5
26682,49514,4
26673,49461,4
26668,49510,5
26671,49502,5
26668,49509,5
26664,49461,4
26665,49494,5
26671,49478,5
26658,49483,5
26662,49512,5
26660,49479,5
26658,49477,4
26653,49469,5
26645,49525,5
26645,49466,6
26649,49456,3
26657,49454,5
26641,49496,5
26644,49453,5
26651,49457,5
26640,49453,4
26637,49467,5
26644,49446,5
26632,49441,5
26633,49442,4
26640,49446,4
26636,49433,5
26629,49438,5
26628,49427,5
26625,49428,4
26625,49421,5
26624,49412,5
26625,49416,5
26624,49407,5
26623,49406,4
26624,49412,6
26621,49417,4
26626,49420,5
26626,49416,5
26627,49412,6
26621,49421,3
26631,49421,5
26631,49414,5
26628,49420,5
26624,49423,4
26628,49426,5
26631,49428,5
26624,49416,5
26627,49410,4
26632,49409,4
26619,49411,5
26621,49399,5
26616,49399,5
26614,49397,4
26622,49405,5
26616,49400,5
26621,49407,5
26621,49406,5
26625,49419,4
26626,49413,5
26629,49406,6
26619,49413,4
26625,49417,5
26617,49413,4
26612,49415,5
26622,49411,5
26621,49401,5
26617,49408,5
26613,49400,4
26604,49387,5
26603,49384,5
26607,49384,5
26614,49384,5
26602,49377,4
26589,49376,5
26594,49366,5
26586,49368,5
26596,49349,4
26594,49356,4
26587,49346,5
26577,49350,5
26589,49353,5
26584,49336,4
26582,49334,5
26577,49327,5
26575,49325,6
26572,49327,4
26577,49327,4
26573,49327,5
26569,49322,5
26568,49313,5
26566,49322,5
26565,49315,4
26562,49323,5
26566,49320,5
26565,49310,5
26566,49304,5
26565,49315,4
26575,49311,5
26572,49313,5
26563,49316,5
26568,49317,4
26547,49310,4
26560,49311,5
26561,49303,5
26553,49297,5
26516,49303,5
26560,49305,4
26556,49293,5
26547,49284,5
26504,49295,6
26553,49290,3
26550,49284,5
26552,49288,5
26548,49290,5
26557,49288,5
26545,49286,4
26555,49283,5
26593,49288,5
26555,49285,5
26544,49281,5
26556,49289,4
26605,49281,5
26548,49292,5
26550,49294,5
26551,49289,5
26569,49289,4
26542,49287,5
26546,49289,5
26554,49295,5
26554,49296,4
26551,49296,6
26557,49298,4
26553,49297,5
26546,49263,5
26555,49292,4
26556,49287,5
26545,49289,5
26541,49227,5
26539,49274,5
26534,49264,4
26533,49270,5
26535,49233,5
26533,49264,5
26533,49267,5
26526,49266,5
26525,49291,4
26532,49270,5
26528,49274,5
26537,49284,5
26549,49354,4
26546,49312,5
26551,49305,5
26559,49305,5
26554,49357,4
26556,49316,4
26561,49317,6
26566,49330,4
26564,49348,5
26570,49350,4
26577,49361,5
26577,49353,5
26582,49350,5
26580,49348,5
26583,49357,4
26589,49374,5
26594,49380,5
26610,49405,5
26615,49424,5
26622,49428,4
26630,49455,5
26637,49470,5
26652,49468,5
26646,49489,5
26652,49486,4
26654,49481,5
26648,49485,5
26653,49503,5
26668,49523,4
26676,49539,4
26681,49534,5
26684,49545,6
26696,49558,4
26704,49585,4
26711,49601,5
26706,49605,5
26715,49591,5
26714,49603,5
26712,49596,4
26712,49589,5
26717,49604,5
26722,49616,5
26722,49623,5
26720,49611,4
26707,49592,5
26704,49579,5
26711,49592,5
26710,49602,5
26716,49608,4
26724,49621,5
26733,49624,5
26737,49640,5
26740,49637,5
26725,49624,4
26728,49621,5
26724,49618,5
26730,49616,5
26726,49608,4
26719,49608,5
26722,49610,5
26719,49609,5
26725,49623,5
26722,49619,4
26728,49621,5
26731,49633,5
26733,49637,5
26743,49647,5
26739,49635,4
26730,49635,5
26738,49644,5
26743,49638,5
26737,49632,5
26731,49630,4
26729,49626,5
26726,49624,5
26731,49626,5
26733,49639,5
26735,49642,5
26742,49649,4
26736,49640,5
26741,49640,5
26736,49635,4
26740,49642,4
26743,49652,5
26741,49647,5
26734,49642,5
26746,49645,4
26739,49639,5
26734,49641,5
26727,49662,5
26759,49681,5
26762,49691,4
26766,49706,5
26744,49727,5
26799,49744,5
26794,49740,5
26802,49737,4
26749,49746,5
26800,49741,5
26794,49742,5
26792,49738,5
26784,49741,4
26801,49754,6
26803,49760,4
26801,49765,5
26855,49764,4
26802,49753,4
26800,49749,5
26795,49737,5
26858,49741,5
26804,49752,4
26805,49758,5
26803,49762,5
26837,49767,5
26812,49775,5
26803,49764,4
26812,49765,5
26810,49762,5
26805,49753,5
26798,49733,5
26793,49739,4
26786,49706,5
26780,49738,5
26783,49740,5
26794,49720,5
26789,49662,4
26778,49695,5
26772,49700,5
26768,49683,5
26764,49624,4
26752,49664,4
26755,49663,5
26750,49669,5
26748,49677,5
26747,49643,4
26745,49644,5
26733,49635,5
26740,49681,5
26724,49616,5
26730,49605,4
26731,49609,5
26728,49659,5
26729,49606,5
26725,49600,5
26716,49602,4
26719,49620,5
26719,49590,5
26714,49588,5
26708,49578,6
26718,49578,3
26710,49571,5
26703,49563,5
26701,49558,5
26705,49566,5
26698,49554,4
26689,49539,5
26680,49534,5
26686,49530,5
26687,49532,4
26676,49522,5
26676,49526,5
26681,49527,5
26679,49525,5
26685,49523,4
26688,49535,5
26680,49531,5
26680,49534,5
26686,49532,5
26687,49528,4
26684,49526,6
26685,49526,4
26681,49532,5
26683,49530,5
26689,49529,6
26676,49531,3
26683,49536,5
26684,49526,5
26684,49535,5
26685,49530,4
26692,49538,5
26693,49551,5
26695,49540,5
26699,49552,4
26703,49543,4
26701,49557,5
26698,49563,5
26697,49550,5
26689,49556,4
26703,49557,5
26711,49561,5
26704,49565,5
26710,49573,5
26706,49566,4
26708,49572,5
26708,49569,6
26709,49565,4
26696,49567,5
26699,49570,4
26703,49571,5
26698,49568,5
26712,49564,5
26714,49575,5
26707,49575,4
26713,49580,5
26720,49568,5
26707,49563,5
26709,49571,4
26706,49569,4
26699,49561,5
26700,49574,5
26716,49574,5
26703,49572,4
26716,49573,5
26716,49579,5
26712,49574,5
26722,49588,5
26714,49584,4
26722,49587,5
26726,49587,5
26725,49603,6
26733,49598,4
26724,49610,4
26738,49612,5
26733,49613,5
26739,49615,5
26740,49617,5
26725,49618,4
26741,49616,5
26737,49608,5
26742,49619,5
26699,49617,5
26741,49620,4
26746,49625,5
26737,49628,5
26692,49629,5
26744,49635,4
26753,49634,5
26743,49636,5
26732,49641,5
26748,49647,5
26755,49640,5
26753,49645,4
26785,49652,5
26759,49644,5
26758,49652,6
26750,49649,3
26817,49651,5
26759,49655,5
26760,49655,6
26759,49648,4
26798,49652,4
26761,49645,5
26760,49652,5
26770,49650,5
26769,49649,5
26767,49657,4
26765,49664,5
26776,49661,5
26763,49647,5
26763,49665,4
26779,49677,4
26772,49680,5
26774,49622,5
26776,49676,5
26783,49675,4
26772,49679,6
26777,49632,4
26777,49689,5
26775,49690,5
26785,49689,5
26783,49712,4
26788,49690,5
26785,49699,5
26787,49695,5
26796,49756,4
26788,49697,5
26787,49695,5
26786,49699,5
26783,49750,5
26786,49695,4
26784,49692,5
26786,49692,5
26789,49707,5
26781,49689,4
26785,49685,4
26782,49688,5
26787,49698,5
26786,49696,5
26783,49687,4
26777,49692,5
26778,49687,6
26785,49677,4
26778,49682,5
26778,49680,4
26772,49681,5
26774,49681,5
26779,49688,5
26776,49686,5
26785,49678,4
26787,49683,5
26781,49689,5
26774,49692,5
26780,49693,5
26782,49688,4
26778,49677,5
26783,49683,5
26781,49680,5
26782,49687,5
26772,49687,4
26780,49698,5
26778,49683,5
26784,49690,5
26782,49693,4
26787,49684,5
26779,49686,5
26785,49686,6
26782,49688,4
26787,49697,4
26778,49687,5
26773,49685,5
26787,49681,5
26789,49681,5
26781,49683,4
26780,49685,5
26778,49689,5
26784,49685,5
26771,49686,5
26773,49682,4
26774,49682,5
26776,49680,5
26774,49675,5
26772,49674,5
26768,49666,4
26766,49666,5
26768,49662,5
26767,49657,5
26757,49654,5
26759,49651,4
26760,49662,5
26758,49663,5
26762,49670,6
26772,49682,3
26772,49677,5
26777,49683,5
26779,49673,5
26778,49681,5
26776,49685,4
26776,49686,5
26785,49690,5
26778,49686,5
26778,49685,5
26772,49674,4
26775,49675,5
26786,49680,5
26770,49684,5
26768,49673,5
26784,49669,4
26771,49672,5
26772,49679,5
26765,49671,5
26764,49671,4
26772,49672,5
26765,49669,4
26768,49677,5
26773,49667,5
26768,49670,4
26768,49667,5
26734,49670,5
26772,49654,5
26762,49655,5
26763,49657,4
26708,49666,5
26752,49658,5
26753,49664,5
26768,49668,5
26726,49667,4
26757,49664,5
26763,49666,5
26769,49667,5
26788,49655,5
26764,49661,4
26757,49658,5
26755,49656,5
26811,49659,5
26767,49657,4
26770,49663,4
26760,49664,6
26807,49663,4
26755,49660,5
26757,49661,4
26752,49658,5
26773,49660,5
26762,49668,5
26757,49665,5
26759,49659,4
26760,49634,5
26745,49658,5
26744,49648,5
26744,49646,5
26736,49605,4
26745,49653,5
26739,49650,5
26747,49651,5
26745,49594,5
26746,49664,4
26745,49667,5
26754,49668,5
26747,49668,5
26760,49674,5
26762,49673,4
26752,49673,5
26763,49730,6
26758,49678,4
26757,49684,4
26756,49689,4
26761,49746,5
26767,49687,5
26769,49683,5
26763,49679,4
26766,49707,5
26761,49676,5
26751,49683,5
26757,49679,5
26757,49686,4
26765,49688,5
26760,49687,5
26756,49679,5
26758,49683,5
26764,49687,4
26759,49686,5
26755,49676,5
26757,49681,5
26764,49680,5
26758,49686,4
26762,49684,5
26754,49680,5
26754,49670,5
26748,49668,4
26741,49676,4
26747,49661,5
26743,49669,5
26746,49664,5
26752,49663,4
26738,49661,5
26735,49647,5
26724,49626,5
26722,49624,5
26716,49604,4
26715,49606,5
26706,49600,5
26708,49598,5
26702,49596,5
26699,49588,4
26708,49603,5
26710,49599,5
26718,49605,5
26721,49619,5
26724,49625,5
26717,49625,4
26720,49626,5
26733,49638,5
26732,49642,4
26731,49643,4
26739,49648,5
26728,49641,5
26736,49650,5
26747,49661,4
26752,49664,5
26755,49670,5
26763,49682,5
26765,49683,5
26763,49700,4
26770,49700,5
26772,49701,5
26762,49692,5
26775,49695,5
26766,49701,4
26782,49706,5
26783,49722,5
26783,49714,5
26783,49724,5
26784,49732,4
26785,49725,6
26795,49740,4
26795,49736,5
26795,49751,4
26795,49755,4
26805,49748,5
26796,49752,5
26800,49750,5
26805,49745,4
26801,49733,5
26797,49729,5
26794,49736,5
26799,49736,5
26793,49743,4
26792,49739,5
26794,49739,5
26806,49746,5
26797,49735,5
26791,49734,4
26788,49733,5
26786,49727,5
26799,49733,5
26762,49725,4
26796,49726,4
26789,49719,5
26785,49730,5
26735,49724,5
26783,49717,5
26787,49715,4
26778,49697,5
26731,49679,5
26770,49685,5
26767,49686,4
26770,49693,5
26798,49691,5
26769,49679,5
26774,49694,5
26776,49689,4
26830,49691,5
26769,49694,5
26774,49695,5
26764,49695,5
26810,49689,5
26777,49696,4
26773,49689,5
26768,49689,5
26779,49690,6
26764,49675,3
26766,49684,5
26775,49697,5
26770,49684,5
26774,49697,5
26784,49698,4
26778,49710,5
26779,49651,5
26781,49695,5
26777,49699,4
26775,49691,4
26769,49649,5
26762,49686,5
26781,49695,5
26771,49693,5
26778,49699,4
26777,49700,5
26773,49702,5
26766,49692,5
26768,49721,4
26759,49670,6
26752,49650,4
26755,49658,5
26746,49701,5
26744,49629,6
26734,49626,3
26734,49617,5
26728,49643,5
26727,49614,5
26730,49613,4
26724,49609,5
26718,49626,5
26727,49610,5
26733,49615,4
26727,49614,4
26728,49612,5
26735,49620,5
26733,49609,5
26728,49612,4
26721,49615,5
26731,49607,5
26727,49605,5
26718,49598,5
26722,49589,4
26718,49589,5
26708,49582,6
26703,49574,4
26697,49564,5
26694,49561,4
26692,49561,5
26701,49557,5
26691,49557,5
26694,49553,5
26699,49556,4
26699,49567,5
26690,49557,5
26686,49559,5
26698,49563,5
26708,49570,4
26698,49570,5
26700,49567,5
26700,49564,5
26702,49563,4
26699,49558,5
26702,49555,5
26704,49561,5
26708,49563,5
26698,49562,4
26694,49559,5
26697,49555,5
26699,49552,6
26704,49566,4
26697,49568,4
26698,49565,5
26696,49571,5
26700,49566,5
26708,49569,5
26705,49565,4
26696,49560,5
26699,49568,5
26706,49560,5
26704,49566,5
26700,49560,4
26708,49569,5
26698,49569,5
26702,49563,5
26699,49570,4
26695,49570,4
26704,49571,5
26710,49573,5
26715,49574,5
26702,49584,5
26702,49564,4
26712,49569,5
26712,49573,5
26711,49568,6
26708,49577,3
26705,49570,5
26703,49575,5
26709,49578,5
26705,49578,5
26710,49575,4
26706,49585,5
26707,49576,5
26705,49574,5
26716,49581,5
26707,49568,4
26708,49568,5
26708,49575,5
26702,49565,5
26707,49572,4
26702,49570,4
26678,49572,5
26700,49567,5
26708,49572,5
26700,49563,4
26653,49550,6
26704,49556,4
26702,49551,5
26705,49555,5
26642,49545,4
26700,49551,5
26703,49554,5
26694,49548,5
26708,49547,5
26698,49552,4
26702,49555,5
26705,49557,5
26753,49570,5
26704,49566,5
26704,49575,4
26712,49570,5
26754,49578,5
26709,49571,5
26708,49577,5
26707,49576,4
26729,49568,8
26711,49558,2
26727,49563,5
26697,49559,4
26706,49548,5
26704,49559,6
26701,49561,4
26693,49552,5
26712,49519,4
26707,49564,5
26701,49564,5
26704,49566,5
26704,49518,5
26709,49573,4
26704,49568,5
26704,49572,5
26703,49555,5
26706,49565,5
26703,49557,4
26705,49564,5
26706,49599,5
26699,49558,5
26707,49562,5
26706,49565,4
26700,49616,5
26702,49560,5
26702,49559,5
26703,49553,4
26697,49592,5
26706,49556,5
26704,49557,6
26705,49563,4
26701,49573,4
26706,49558,5
26709,49568,5
26702,49562,5
26709,49563,5
26704,49556,4
26703,49563,5
26710,49562,5
26706,49568,5
26703,49562,5
26708,49564,4
26706,49555,5
26701,49558,5
26704,49556,5
26702,49559,5
26697,49556,4
26709,49566,5
26698,49553,5
26705,49568,5
26707,49568,5
26700,49572,4
26705,49579,5
26706,49575,5
26706,49568,6
26704,49564,3
26709,49570,5
26706,49566,5
26710,49569,5
26706,49572,5
26709,49580,4
26710,49577,5
26712,49572,5
26717,49571,5
26705,49570,5
26714,49569,4
26714,49573,5
26713,49565,5
26702,49569,5
26710,49577,5
26707,49573,4
26709,49578,5
26711,49577,5
26711,49572,5
26710,49569,4
26704,49571,5
26709,49568,4
26708,49571,5
26704,49565,5
26709,49573,4
26705,49581,5
26711,49581,5
26707,49572,5
26720,49578,5
26720,49580,4
26713,49580,5
26716,49582,5
26714,49582,5
26719,49572,5
26711,49574,4
26710,49569,5
26707,49571,5
26703,49557,5
26703,49560,5
26703,49569,4
26708,49567,5
26709,49574,5
26703,49563,5
26707,49572,5
26709,49571,4
26712,49574,6
26698,49563,4
26705,49563,5
26709,49566,4
26701,49563,4
26698,49563,5
26701,49563,5
26705,49558,5
26702,49562,4
26704,49557,5
26693,49554,5
26698,49551,5
26667,49558,5
26706,49552,4
26705,49552,5
26701,49559,5
26650,49565,5
26696,49552,5
26703,49556,4
26698,49560,5
26646,49560,5
26697,49567,5
26706,49557,5
26707,49560,4
26710,49559,5
26711,49568,6
26704,49573,4
26708,49568,4
26763,49580,4
26703,49571,5
26710,49578,5
26708,49582,5
26772,49581,4
26707,49574,5
26712,49580,5
26706,49583,5
26738,49580,5
26716,49575,4
26717,49575,5
26714,49577,5
26713,49578,5
26710,49589,5
26727,49581,4
26722,49582,5
26725,49551,5
26729,49598,5
26724,49596,5
26725,49588,4
26721,49537,5
26733,49596,5
26715,49604,5
26718,49595,5
26728,49572,4
26724,49592,5
26715,49595,5
26722,49602,5
26719,49640,4
26731,49605,5
26730,49612,5
26737,49612,5
26731,49675,5
26738,49608,4
26733,49609,5
26727,49609,5
26732,49649,5
26738,49600,5
26735,49612,4
26734,49606,5
26730,49625,5
26738,49615,5
26730,49613,5
26732,49604,6
26734,49614,3
26741,49614,5
26734,49624,5
26738,49623,5
26738,49631,4
26742,49626,5
26738,49624,5
26751,49632,5
26750,49628,4
26745,49628,4
26749,49631,5
26744,49628,5
26746,49619,5
26743,49624,4
26738,49617,5
26743,49623,5
26745,49617,5
26739,49619,5
26747,49625,4
26745,49619,5
26736,49621,5
26737,49615,5
26743,49627,5
26747,49630,4
26750,49625,6
26746,49623,4
26734,49630,5
26754,49626,5
26745,49623,4
26742,49623,5
26742,49630,5
26749,49623,5
26738,49627,4
26745,49626,4
26748,49631,5
26748,49632,5
26745,49627,5
26750,49633,4
26743,49629,5
26743,49624,5
26746,49638,5
26752,49631,5
26749,49638,4
26751,49631,5
26745,49640,5
26750,49647,6
26758,49639,4
26746,49638,4
26748,49631,5
26753,49634,5
26749,49633,5
26752,49633,5
26750,49632,4
26749,49638,5
26754,49632,5
26740,49630,5
26745,49631,5
26750,49626,4
26751,49626,5
26747,49620,5
26743,49627,5
26749,49627,4
26749,49626,5
26753,49630,5
26750,49624,5
26749,49629,5
26747,49634,5
26751,49627,4
26748,49629,5
26756,49639,5
26754,49633,6
26756,49643,3
26758,49640,5
26756,49641,5
26759,49648,5
26760,49640,5
26758,49649,4
26740,49647,5
26760,49646,5
26762,49651,5
26764,49655,5
26721,49660,4
26770,49669,5
26773,49658,5
26766,49657,5
26713,49672,4
26767,49668,4
26780,49668,5
26775,49673,5
26781,49680,5
26778,49678,4
26776,49680,6
26778,49679,4
26820,49672,5
26783,49676,5
26775,49688,6
26783,49684,3
26849,49681,5
26775,49684,5
26786,49687,5
26772,49688,4
26802,49677,5
26781,49679,5
26774,49680,5
26780,49671,5
26782,49669,4
26773,49679,5
26767,49670,5
26773,49670,5
26771,49636,4
26775,49660,4
26769,49665,5
26768,49666,5
26774,49611,5
26779,49669,4
26779,49685,5
26782,49684,6
26785,49663,4
26780,49689,5
26783,49704,4
26796,49704,5
26791,49735,5
26791,49706,5
26793,49707,5
26797,49715,4
26797,49764,5
26794,49696,5
26790,49698,5
26781,49690,5
26785,49736,4
26777,49701,5
26783,49697,5
26781,49701,5
26794,49713,5
26786,49694,4
26782,49699,5
26783,49695,5
26784,49695,5
26780,49689,4
26782,49696,5
26784,49702,5
26789,49705,6
26782,49703,4
26787,49709,4
26789,49702,5
26787,49700,5
26788,49700,5
26787,49699,5
26787,49700,4
26785,49699,5
26787,49696,5
26784,49692,5
26777,49704,5
26787,49705,4
26784,49695,5
26781,49699,5
26778,49703,5
26781,49703,5
26788,49696,4
26791,49706,5
26782,49711,5
26788,49704,5
26791,49705,5
26797,49695,4
26780,49700,5
26796,49716,5
26790,49711,6
26787,49714,3
26793,49710,5
26802,49709,5
26790,49719,5
26797,49724,5
26799,49715,4
26798,49718,5
26799,49720,5
26808,49723,5
26803,49719,5
26802,49729,4
26801,49733,5
26803,49729,5
26808,49727,5
26804,49735,5
26802,49740,4
26812,49746,5
26811,49744,5
26810,49742,5
26811,49742,4
26810,49738,5
26813,49745,4
26805,49743,5
26818,49740,5
26812,49741,4
26809,49752,5
26804,49743,5
26820,49757,5
26820,49744,5
26811,49758,4
26821,49757,5
26822,49762,5
26819,49764,5
26823,49758,5
26817,49764,4
26825,49766,5
26827,49763,5
26826,49771,5
26818,49768,5
26821,49759,4
26831,49759,5
26832,49767,5
26817,49776,5
26823,49767,5
26829,49771,4
26829,49770,6
26828,49777,4
26809,49774,5
26822,49770,4
26823,49771,5
26824,49769,5
26779,49763,5
26826,49760,5
26819,49763,4
26826,49758,5
26766,49758,5
26830,49763,5
26827,49760,5
26823,49759,4
26818,49756,5
26828,49760,5
26814,49753,5
26831,49765,5
26874,49774,4
26837,49778,5
26829,49771,5
26842,49783,5
26903,49790,5
26846,49791,4
26846,49797,5
26848,49795,6
26876,49798,4
26844,49791,4
26842,49789,4
26843,49783,5
26845,49786,5
26839,49786,5
26841,49782,4
26840,49772,6
26845,49752,4
26834,49791,5
26843,49799,5
26836,49783,4
26838,49732,5
26837,49783,5
26836,49780,5
26842,49787,5
26841,49742,4
26840,49789,5
26829,49785,5
26828,49784,5
26838,49806,5
26836,49792,4
26835,49782,5
26838,49778,5
26837,49846,5
26841,49781,4
26835,49785,4
26834,49776,5
26843,49831,5
26837,49784,5
26834,49788,4
26826,49780,5
26833,49798,5
26840,49784,5
26833,49786,5
26843,49792,4
26847,49795,5
26844,49789,5
26841,49784,5
26839,49788,5
26839,49788,4
26831,49791,5
26835,49795,5
26836,49783,5
26835,49783,5
26844,49784,5
26837,49789,4
26837,49792,5
26846,49788,5
26840,49790,5
26844,49779,4
26847,49791,5
26843,49790,5
26841,49785,5
26837,49794,4
26843,49798,5
26843,49795,5
26836,49803,5
26841,49800,5
26855,49799,4
26844,49806,5
26844,49802,5
26856,49807,5
26854,49811,5
26852,49808,4
26856,49816,5
26854,49811,5
26853,49815,5
26848,49810,5
26851,49813,4
26847,49809,6
26849,49814,4
26851,49810,5
26859,49816,5
26855,49815,4
26859,49808,5
26866,49818,5
26856,49817,5
26860,49823,4
26851,49824,4
26860,49819,5
26865,49826,5
26864,49833,5
26865,49826,4
26867,49831,5
26862,49835,5
26861,49832,5
26872,49839,5
26872,49836,4
26871,49835,5
26862,49827,5
26862,49829,5
26860,49834,5
26872,49832,4
26858,49832,5
26868,49831,6
26867,49824,4
26862,49830,5
26861,49827,4
26867,49832,5
26862,49834,5
26857,49828,5
26864,49828,4
26856,49821,4
26869,49828,5
26863,49826,5
26867,49828,5
26859,49824,4
26865,49832,5
26862,49835,5
26866,49838,5
26864,49831,5
26863,49836,5
26860,49826,4
26866,49824,5
26862,49830,5
26869,49832,5
26826,49833,4
26864,49832,5
26865,49830,5
26871,49824,5
26804,49826,5
26860,49831,4
26862,49812,5
26855,49820,5
26830,49818,5
26845,49807,5
26844,49796,4
26847,49794,5
26886,49790,5
26841,49786,5
26833,49775,4
26840,49778,5
26893,49786,5
26833,49790,5
26830,49777,5
26836,49794,4
26871,49790,5
26847,49800,5
26841,49799,5
26847,49803,5
26860,49795,5
26842,49804,3
26847,49816,5
26838,49801,5
26839,49774,5
26844,49793,4
26839,49783,5
26839,49785,5
26839,49732,5
26836,49788,5
26835,49790,4
26837,49789,5
26837,49741,5
26832,49786,5
26834,49791,4
26842,49795,5
26843,49808,4
26839,49795,5
26834,49809,5
26854,49811,4
26845,49862,5
26847,49808,6
26850,49809,4
26843,49817,5
26843,49865,4
26839,49809,7
26844,49804,3
26851,49807,5
26850,49830,5
26849,49821,4
26858,49821,5
26848,49823,5
26847,49815,5
26853,49820,5
26848,49826,4
26859,49832,5
26856,49830,5
26861,49833,5
26856,49835,4
26870,49826,4
26861,49840,5
26855,49829,5
26865,49830,5
26856,49830,4
26859,49826,5
26858,49823,5
26854,49829,6
26857,49835,4
26855,49840,4
26864,49833,5
26868,49834,5
26862,49837,5
26865,49849,5
26863,49850,4
26864,49840,5
26867,49847,5
26867,49848,5
26875,49851,5
26866,49859,4
26879,49866,5
26883,49867,5
26884,49870,5
26878,49880,4
26885,49893,4
26890,49882,5
26890,49891,5
26888,49893,5
26898,49905,5
26904,49902,4
26898,49912,5
26902,49914,5
26909,49915,6
26908,49914,3
26911,49922,5
26912,49925,5
26919,49935,5
26917,49926,5
26917,49931,4
26915,49938,5
26928,49927,5
26912,49938,5
26920,49936,5
26916,49930,4
26918,49926,5
26917,49918,5
26914,49919,5
26907,49924,4
26913,49923,4
26912,49929,5
26916,49918,5
26917,49923,5
26908,49921,4
26915,49915,6
26906,49917,4
26901,49912,5
26915,49917,5
26912,49907,6
26906,49918,3
26912,49908,5
26911,49918,5
26907,49911,5
26904,49909,4
26908,49915,5
26912,49908,5
26909,49917,5
26909,49905,5
26906,49906,4
26900,49916,5
26910,49913,5
26899,49907,5
26915,49913,4
26907,49919,4
26919,49918,5
26879,49928,5
26928,49932,5
26919,49926,4
26938,49931,5
26878,49937,6
26931,49943,4
26931,49935,5
26930,49935,4
26934,49939,5
26930,49935,5
26930,49924,5
26925,49926,5
26968,49917,4
26927,49919,5
26924,49920,5
26920,49921,5
26984,49923,5
26927,49927,4
26935,49925,5
26923,49916,5
26954,49920,5
26930,49924,4
26926,49924,4
26922,49919,5
26929,49915,5
26935,49923,5
26925,49924,4
26926,49926,5
26934,49878,5
26928,49925,6
26919,49921,4
26921,49925,4
26929,49872,5
26925,49924,5
26926,49914,5
26921,49906,5
26918,49878,4
26916,49903,5
26923,49907,5
26924,49909,5
26927,49928,5
26928,49900,4
26917,49915,5
26928,49903,5
26916,49966,5
26917,49906,4
26928,49904,4
26917,49909,5
26926,49930,5
26915,49899,5
26912,49900,5
26914,49890,4
26917,49907,5
26916,49898,5
26919,49898,6
26909,49887,3
26921,49887,5
26909,49889,5
26907,49888,5
26901,49892,5
26904,49881,4
26908,49886,5
26914,49885,5
26916,49887,5
26907,49895,5
26913,49894,4
26915,49900,5
26913,49901,5
26914,49897,5
26922,49901,4
26922,49908,4
26917,49902,5
26911,49901,5
26912,49901,5
26926,49895,4
26925,49906,6
26927,49898,4
26920,49907,5
26919,49901,5
26927,49900,4
26920,49906,5
26926,49912,5
26920,49900,5
26921,49903,5
26928,49907,4
26917,49905,5
26921,49902,5
26917,49904,5
26922,49900,5
26915,49890,4
26922,49895,5
26916,49889,5
26911,49891,5
26913,49887,4
26912,49878,4
26909,49885,5
26910,49880,5
26910,49886,5
26915,49884,4
26914,49875,5
26911,49877,6
26901,49876,4
26910,49876,5
26898,49864,4
26901,49863,5
26900,49863,5
26896,49854,5
26898,49858,5
26889,49861,4
26901,49872,5
26902,49865,5
26895,49868,5
26902,49872,5
26902,49878,4
26899,49885,5
26911,49876,5
26903,49880,5
26907,49881,4
26896,49876,4
26907,49875,5
26911,49884,5
26910,49877,5
26903,49881,4
26907,49870,5
26907,49875,5
26900,49868,6
26904,49869,4
26900,49875,4
26907,49872,5
26904,49875,5
26912,49886,5
26901,49881,5
26907,49890,4
26880,49886,5
26907,49888,5
26916,49887,5
26917,49889,5
26859,49896,4
26913,49896,5
26905,49891,5
26908,49888,5
26863,49889,4
26919,49887,4
26909,49885,5
26908,49884,5
26929,49891,5
26913,49886,5
26920,49880,4
26904,49883,5
26970,49889,5
26913,49880,5
26906,49891,4
26910,49892,5
26957,49883,5
26911,49879,5
26910,49881,5
26901,49892,4
26929,49880,5
26908,49884,5
26902,49877,5
26911,49878,5
26908,49861,4
26902,49876,5
26907,49874,5
26900,49876,5
26903,49832,4
26902,49874,4
26896,49869,5
26903,49873,5
26910,49822,5
26906,49873,8
26898,49876,2
26899,49881,4
26910,49886,5
26910,49877,5
26908,49884,4
26906,49886,5
26907,49943,5
26918,49893,5
26920,49887,5
26917,49888,4
26915,49957,5
26919,49896,5
26921,49898,5
26911,49888,5
26919,49913,4
26913,49890,5
26917,49886,5
26913,49890,5
26918,49887,4
26911,49888,4
26914,49889,5
26914,49880,5
26910,49888,5
26913,49883,4
26916,49884,5
26916,49884,7
26905,49882,3
26911,49881,5
26903,49887,4
26908,49882,5
26905,49883,5
26896,49874,5
26899,49875,5
26898,49881,4
26897,49873,5
26903,49868,5
26910,49873,5
26900,49872,5
26902,49883,4
26899,49876,5
26908,49876,5
26903,49875,5
26902,49873,4
26906,49871,4
26906,49860,5
26896,49849,5
26892,49858,5
26895,49853,4
26887,49853,5
26881,49845,5
26880,49839,5
26876,49830,5
26873,49824,4
26874,49825,5
26867,49827,5
26869,49828,5
26868,49825,5
26875,49830,4
26866,49822,5
26869,49826,5
26863,49814,5
26867,49825,5
26866,49813,4
26865,49811,5
26874,49817,5
26864,49823,5
26857,49818,4
26873,49813,4
26861,49819,4
26859,49812,5
26857,49795,5
26839,49778,6
26836,49760,3
26821,49740,5
26811,49725,5
26800,49721,5
26797,49702,4
26788,49688,5
26782,49686,5
26778,49689,5
26773,49678,5
26774,49674,4
26770,49663,5
26774,49657,5
26763,49655,5
26770,49659,5
26771,49654,4
26774,49653,5
26766,49653,5
26775,49651,5
26760,49642,4
26773,49641,4
26762,49636,6
26765,49635,4
26768,49641,5
26746,49646,4
26763,49647,7
26765,49650,3
26766,49651,5
26725,49655,5
26776,49650,4
26758,49650,5
26776,49655,5
26723,49647,5
26767,49654,5
26775,49644,4
26774,49646,5
26770,49654,5
26763,49648,5
26769,49645,5
26759,49654,4
26817,49656,5
26770,49648,5
26773,49644,5
26771,49648,4
26830,49644,4
26778,49645,5
26767,49640,6
26763,49640,4
26795,49646,4
26761,49642,5
26758,49648,5
26771,49641,5
26770,49642,5
26769,49656,4
26779,49661,5
26773,49663,5
26774,49622,5
26779,49658,5
26773,49648,4
26780,49659,5
26773,49601,5
26768,49649,5
26775,49646,5
26764,49654,4
26772,49629,4
26768,49651,5
26761,49647,5
26771,49642,5
26775,49688,4
26772,49645,5
26771,49645,5
26774,49655,6
26771,49708,3
26777,49644,5
26766,49649,5
26768,49651,5
26770,49678,5
26768,49649,4
26770,49645,5
26762,49637,5
26769,49656,5
26776,49640,5
26771,49640,4
26770,49637,5
26768,49642,5
26772,49641,5
26769,49643,5
26766,49651,4
26763,49647,5
26768,49641,5
26765,49645,5
26772,49651,4
26772,49655,5
26770,49652,4
26768,49643,5
26776,49654,5
26769,49662,6
26768,49654,3
26770,49655,5
26774,49641,5
26772,49643,5
26765,49650,4
26773,49655,5
26769,49653,5
26766,49653,5
26772,49654,5
26778,49655,4
26772,49652,5
26774,49647,5
26766,49652,5
26771,49654,5
26776,49653,4
26779,49656,5
26774,49654,5
26775,49659,5
26771,49659,4
26772,49648,5
26768,49652,6
26778,49661,4
26778,49654,5
26783,49660,4
26773,49659,5
26789,49657,5
26776,49650,5
26779,49659,5
26774,49653,4
26778,49653,5
26773,49654,5
26781,49655,5
26790,49661,5
26771,49655,4
26784,49664,5
26778,49655,5
26778,49661,5
26779,49671,5
26785,49674,4
26782,49674,5
26778,49673,5
26785,49687,5
26795,49683,4
26799,49690,5
26799,49689,5
26793,49685,6
26797,49687,4
26788,49687,4
26794,49685,5
26796,49691,5
26795,49686,5
26790,49693,5
26796,49689,4
26787,49697,5
26790,49695,5
26797,49693,5
26800,49694,5
26791,49694,4
26794,49695,5
26796,49691,5
26793,49706,5
26795,49702,5
26804,49706,4
26797,49704,5
26766,49701,5
26805,49705,5
26807,49711,5
26807,49709,4
26755,49720,5
26814,49722,5
26810,49721,6
26812,49717,3
26778,49711,5
26803,49716,5
26807,49714,5
26815,49713,5
26835,49707,4
26810,49710,5
26810,49713,5
26817,49711,5
26872,49719,5
26811,49716,4
26815,49734,5
26818,49723,5
26861,49726,5
26811,49720,5
26818,49729,4
26820,49738,5
26828,49726,5
26825,49739,5
26822,49734,4
26825,49735,6
26824,49708,4
26819,49742,5
26823,49735,5
26835,49729,4
26818,49694,5
26827,49740,5
26828,49740,5
26824,49741,5
26826,49690,4
26830,49740,5
26827,49746,5
26829,49745,5
26828,49772,5
26833,49756,4
26831,49751,5
26827,49760,5
26830,49810,5
26832,49763,5
26833,49764,4
26833,49763,5
26835,49811,5
26838,49758,5
26841,49762,4
26838,49757,5
26842,49774,6
26847,49755,4
26839,49773,5
26840,49766,4
26841,49763,5
26834,49771,5
26835,49767,5
26829,49760,5
26832,49765,4
26841,49759,5
26839,49767,5
26839,49762,5
26839,49755,5
26834,49761,4
26826,49755,5
26836,49758,5
26833,49750,5
26835,49762,4
26823,49762,4
26825,49756,5
26830,49759,5
26829,49767,5
26842,49762,4
26845,49769,5
26839,49767,5
26839,49773,6
26837,49775,4
26839,49769,4
26828,49762,5
26839,49764,5
26835,49754,5
26830,49770,5
26836,49763,4
26842,49759,5
26842,49760,5
26844,49768,5
26847,49781,5
26847,49785,4
26845,49784,5
26851,49782,5
26844,49784,5
26844,49780,4
26842,49776,4
26846,49782,5
26852,49785,5
26857,49792,5
26849,49787,5
26850,49796,4
26857,49792,5
26857,49790,5
26860,49789,5
26854,49784,4
26855,49786,5
26857,49784,5
26851,49788,5
26861,49781,5
26856,49785,4
26860,49786,5
26850,49792,5
26856,49798,5
26850,49795,5
26869,49797,4
26854,49800,5
26858,49789,5
26860,49801,5
26858,49808,4
26858,49805,4
26856,49798,5
26866,49808,5
26866,49804,5
26862,49792,4
26864,49804,6
26866,49804,4
26861,49801,5
26867,49805,5
26863,49800,4
26870,49805,5
26865,49817,5
26870,49812,5
26869,49808,5
26867,49815,4
26856,49818,5
26874,49822,5
26873,49816,5
26874,49817,5
26830,49814,4
26872,49811,5
26864,49811,5
26872,49824,5
26827,49819,4
26882,49827,4
26882,49829,5
26872,49824,5
26884,49824,4
26878,49835,4
26878,49832,5
26881,49836,6
26922,49825,4
26881,49826,5
26886,49830,4
26875,49834,5
26940,49828,5
26884,49827,5
26884,49836,5
26885,49835,4
26909,49835,5
26884,49833,5
26882,49841,5
26886,49834,5
26881,49818,4
26876,49820,5
26884,49826,5
26872,49825,5
26878,49789,4
26883,49824,4
26878,49832,5
26885,49836,5
26871,49772,5
26875,49835,4
26875,49834,5
26875,49831,5
26870,49807,5
26879,49826,5
26876,49825,4
26867,49827,5
26870,49872,5
26875,49836,5
26879,49834,5
26873,49836,4
26879,49894,5
26885,49852,5
26888,49846,5
26878,49851,5
26890,49891,6
26881,49863,3
26890,49860,5
26889,49862,5
26892,49869,4
26882,49858,4
26890,49859,4
26885,49857,5
26890,49851,5
26888,49860,5
26891,49861,3
26887,49860,5
26893,49858,5
26892,49875,5
26895,49867,4
26901,49879,5
26900,49879,5
26900,49879,5
26895,49874,5
26895,49877,4
26895,49873,5
26900,49880,5
26903,49877,5
26899,49878,5
26899,49880,4
26906,49889,5
26899,49884,5
26897,49877,5
26905,49887,4
26902,49893,4
26904,49897,6
26908,49894,4
26910,49901,5
26909,49891,4
26911,49902,7
26907,49896,3
26915,49888,5
26908,49902,5
26912,49908,4
26919,49904,5
26917,49910,5
26918,49909,5
26921,49912,5
26919,49910,4
26920,49913,5
26921,49908,5
26920,49908,5
26921,49910,5
26922,49907,4
26923,49916,5
26925,49920,5
26926,49924,5
26930,49920,4
26929,49918,4
26930,49926,5
26933,49928,6
26932,49930,4
26941,49928,4
26927,49937,5
26937,49935,5
26934,49941,5
26943,49949,5
26948,49953,4
26955,49958,5
26955,49959,5
26946,49965,5
26965,49970,5
26964,49967,4
26959,49983,5
26964,49987,5
26964,49987,5
26964,49989,5
26962,49982,4
26957,49978,5
26960,49979,5
26956,49977,5
26957,49970,5
26953,49968,4
26952,49979,5
26955,49976,5
26956,49979,6
26952,49977,3
26960,49973,5
26958,49973,5
26956,49976,5
26925,49976,5
26953,49980,4
26959,49976,5
26958,49977,5
26905,49984,5
26965,49979,5
26958,49975,4
26968,49982,5
26926,49986,5
26962,49986,5
26963,49988,5
26957,49996,4
26980,49990,5
26961,49997,5
26952,49977,5
26959,49975,4
27013,49975,5
26951,49969,4
26954,49970,5
26950,49978,5
26985,49975,6
26954,49967,3
26953,49976,5
26953,49982,5
26956,49978,5
26953,49970,4
26955,49980,5
26964,49984,5
26958,49952,5
26956,49978,5
26956,49979,4
26952,49969,5
26951,49923,5
26948,49969,5
26950,49972,5
26947,49966,4
26934,49904,5
26941,49959,5
26938,49958,5
26928,49958,5
26939,49964,4
26939,49949,6
26942,49952,4
26947,49957,5
26944,50018,4
26949,49971,5
26940,49973,5
26950,49982,5
26956,50038,5
26963,49990,4
26955,49988,5
26958,49986,5
26958,50004,5
26956,49975,5
26955,49983,4
26945,49982,5
26958,49972,5
26952,49970,5
26958,49973,5
26946,49973,4
26943,49977,5
26948,49977,5
26953,49973,5
26942,49973,4
26954,49973,4
26952,49977,5
26953,49981,6
26955,49989,4
26956,49990,4
26953,49986,5
26958,49991,5
26954,49979,5
26956,49988,5
26959,49986,4
26957,49985,5
26957,49989,5
26954,49989,5
26962,49985,5
26956,49981,4
26959,49980,5
26956,49982,5
26952,49977,5
26950,49982,5
26949,49973,4
26951,49979,5
26950,49982,5
26947,49979,5
26954,49986,5
26952,49976,4
26954,49984,5
26953,49981,5
26947,49972,6
26941,49968,3
26943,49980,5
26949,49980,5
26948,49980,5
26945,49978,5
26943,49971,4
26936,49972,5
26942,49969,5
26946,49984,5
26950,49977,5
26934,49969,4
26942,49970,5
26943,49972,5
26942,49972,5
26943,49966,5
26941,49969,4
26948,49965,5
26944,49965,5
26957,49979,5
26944,49973,4
26952,49980,5
26951,49982,4
26952,49982,5
26953,49985,5
26960,49992,4
26948,49982,5
26956,50000,5
26970,49987,5
26958,49989,5
26958,49990,4
26959,49997,5
26961,49988,5
26964,49997,5
26960,49994,5
26965,49999,4
26966,50003,5
26976,50017,5
26975,50015,5
26971,50014,5
26971,50013,4
26978,50016,5
26965,50015,5
26978,50020,5
26986,50020,4
26978,50022,4
26935,50029,6
26980,50030,4
26986,50023,5
26986,50027,4
26927,50028,5
26986,50029,5
26983,50035,5
26980,50031,5
26988,50026,4
26982,50026,5
26985,50032,5
26982,50034,5
27028,50023,5
26990,50025,4
26972,50012,5
26977,50010,5
27029,50006,5
26961,50006,5
26964,50005,4
26963,49999,5
26988,49999,5
26967,50007,5
26964,49998,4
26968,49995,4
26971,49991,5
26965,49997,6
26955,49990,4
26952,49978,4
26952,49937,5
26952,49966,5
26937,49973,5
26949,49958,5
26944,49916,4
26935,49955,5
26940,49948,5
26935,49957,5
26937,49916,5
26941,49937,4
26937,49949,5
26938,49948,5
26931,49982,5
26933,49941,5
26927,49936,4
26932,49941,5
26934,50003,5
26932,49930,5
26926,49926,5
26929,49934,4
26922,49955,5
26919,49920,5
26907,49897,5
26904,49880,4
26896,49893,5
26891,49874,5
26885,49870,5
26892,49876,5
26889,49871,4
26879,49874,5
26889,49873,5
26883,49860,5
26883,49867,5
26888,49872,4
26888,49870,5
26886,49884,5
26886,49881,5
26894,49887,5
26898,49884,4
26893,49882,5
26897,49884,5
26913,49903,5
26917,49916,4
26906,49930,5
26919,49921,4
26922,49924,5
26921,49925,5
26919,49919,4
26917,49930,5
26921,49932,5
26918,49927,5
26923,49919,5
26911,49921,4
26907,49915,5
26916,49918,5
26912,49925,5
26923,49937,5
26922,49948,4
26934,49949,5
26936,49962,5
26936,49964,5
26938,49963,5
26944,49968,4
26931,49948,5
26934,49944,5
26924,49937,5
26913,49923,4
26911,49913,4
26907,49910,6
26912,49898,4
26908,49904,5
26912,49909,4
26908,49903,5
26907,49910,5
26921,49919,5
26916,49925,5
26917,49923,4
26917,49928,5
26924,49937,5
26941,49932,5
26928,49934,5
26934,49937,4
26929,49931,5
26924,49930,5
26927,49936,5
26930,49927,5
26924,49940,4
26935,49935,5
26933,49933,5
26927,49934,5
26922,49930,4
26922,49920,4
26918,49932,5
26925,49929,5
26923,49935,5
26923,49939,4
26934,49945,5
26936,49937,5
26939,49942,5
26935,49944,5
26935,49941,4
26930,49940,5
26933,49946,5
26946,49948,5
26941,49951,5
26914,49944,4
26938,49942,5
26937,49941,5
26941,49946,5
26879,49931,5
26938,49935,4
26929,49924,4
26931,49934,5
26883,49930,5
26933,49929,5
26932,49930,3
26933,49934,5
26946,49930,5
26933,49927,5
26929,49928,4
26927,49919,5
26980,49923,5
26926,49922,5
26916,49923,5
26921,49915,4
26975,49912,5
26925,49912,5
26923,49920,5
26926,49918,5
26937,49916,4
26924,49905,5
26913,49910,5
26923,49914,5
26923,49899,5
26922,49925,4
26929,49913,6
26930,49909,4
26927,49868,5
26926,49911,4
26928,49912,6
26928,49923,3
26921,49859,5
26921,49923,5
26919,49914,4
26924,49913,5
26926,49913,5
26923,49915,5
26923,49916,5
26920,49917,4
26930,49967,5
26926,49915,5
26922,49912,5
26930,49906,5
26921,49982,4
26919,49923,5
26919,49916,5
26924,49915,5
26914,49944,5
26924,49913,4
26924,49914,5
26922,49919,6
26926,49923,4
26925,49916,4
26924,49909,4
26926,49920,5
26916,49925,5
26924,49906,5
26918,49899,9
26920,49901,0
26927,49868,5
26914,49911,5
26918,49899,5
26922,49906,4
26915,49901,5
26925,49906,5
26915,49898,5
26915,49900,5
26914,49904,4
26913,49892,5
26918,49893,5
26909,49890,5
26908,49897,5
26899,49892,4
26913,49893,5
26909,49895,5
26912,49889,6
26915,49885,3
26902,49889,4
26900,49877,5
26904,49885,5
26904,49874,5
26897,49878,4
26899,49880,5
26887,49867,5
26895,49862,5
26890,49857,5
26893,49855,4
26886,49851,5
26879,49850,5
26875,49843,5
26869,49857,5
26869,49842,4
26871,49833,5
26873,49843,5
26857,49833,5
26867,49838,5
26868,49830,5
26873,49840,4
26874,49840,5
26888,49838,5
26869,49841,6
26876,49843,3
26875,49831,5
26871,49837,5
26871,49843,5
26872,49834,4
26872,49833,5
26868,49838,5
26875,49825,5
26865,49832,5
26871,49833,4
26869,49829,5
26873,49834,5
26872,49830,5
26867,49832,5
26873,49828,4
26868,49834,5
26867,49837,5
26860,49825,5
26866,49827,5
26851,49814,4
26857,49820,6
26856,49820,4
26850,49810,5
26858,49812,4
26853,49808,4
26851,49805,5
26851,49812,5
26854,49812,5
26856,49808,4
26858,49804,5
26856,49804,5
26820,49810,5
26852,49808,5
26856,49810,4
26849,49804,5
26805,49810,5
26857,49810,5
26856,49813,5
26853,49806,4
26819,49805,5
26843,49813,5
26843,49805,5
26846,49803,5
26875,49799,4
26852,49807,5
26854,49803,6
26848,49798,4
26905,49797,4
26844,49791,4
26839,49797,5
26853,49793,5
26881,49784,5
26838,49780,4
26837,49781,5
26838,49791,5
26849,49773,5
26838,49780,5
26831,49766,4
26824,49765,5
26835,49751,5
26824,49760,5
26824,49776,5
26821,49758,4
26824,49719,5
26831,49751,5
26822,49759,5
26823,49754,5
26821,49704,4
26822,49765,5
26828,49758,5
26823,49765,6
26825,49777,3
26826,49764,4
26826,49766,5
26820,49759,5
26827,49810,5
26822,49751,4
26827,49756,5
26825,49752,5
26823,49822,5
26827,49752,5
26819,49747,4
26820,49755,5
26823,49773,5
26811,49746,5
26815,49740,5
26809,49743,4
26810,49735,5
26814,49737,5
26813,49730,5
26808,49728,5
26799,49723,5
26811,49724,4
26796,49724,5
26796,49703,5
26794,49703,5
26790,49694,4
26792,49687,5
26775,49682,5
26770,49678,5
26780,49674,4
26776,49670,5
26775,49674,5
26773,49667,5
26772,49658,5
26771,49658,4
26763,49652,5
26763,49663,5
26763,49655,5
26767,49648,5
26761,49657,4
26763,49662,5
26777,49659,5
26768,49662,5
26760,49667,5
26761,49653,4
26757,49648,6
26756,49644,4
26744,49642,5
26749,49639,5
26746,49623,4
26741,49626,5
26744,49627,5
26740,49621,5
26733,49615,4
26740,49626,5
26739,49616,5
26747,49622,5
26744,49634,5
26744,49626,4
26743,49627,5
26753,49627,5
26747,49630,5
26746,49639,5
26756,49644,4
26758,49638,5
26754,49646,5
26760,49649,5
26752,49654,5
26754,49655,4
26764,49659,5
26757,49648,6
26769,49657,4
26765,49656,5
26768,49665,4
26766,49667,5
26763,49660,5
26761,49664,5
26772,49657,4
26774,49665,5
26759,49663,5
26772,49670,5
26779,49668,5
26781,49665,4
26772,49672,5
26773,49678,5
26782,49684,5
26779,49685,5
26784,49692,4
26782,49693,5
26783,49687,5
26780,49693,5
26785,49685,5
26785,49698,4
26780,49689,5
26780,49691,5
26787,49687,5
26781,49684,5
26747,49694,4
26787,49684,5
26782,49680,5
26782,49684,5
26720,49680,4
26776,49675,5
26774,49687,5
26772,49686,5
26746,49686,5
26779,49678,4
26783,49690,5
26790,49684,5
26822,49691,5
26785,49696,5
26793,49690,4
26792,49703,6
26850,49701,4
26789,49705,5
26798,49714,5
26797,49711,5
26835,49700,4
26796,49700,5
26788,49695,5
26792,49694,5
26804,49697,4
26787,49704,5
26785,49699,5
26795,49696,5
26785,49677,4
26787,49702,4
26791,49698,5
26781,49700,5
26789,49638,5
26786,49692,4
26783,49687,5
26784,49689,5
26783,49631,5
26784,49686,5
26783,49688,4
26779,49680,5
26780,49707,5
26783,49685,5
26785,49689,5
26785,49687,4
26791,49740,6
26783,49686,4
26785,49686,5
26781,49688,5
26783,49740,4
26775,49684,5
26774,49677,5
26774,49684,5
26782,49698,4
26779,49678,4
26782,49681,5
26779,49688,5
26777,49693,5
26779,49684,4
26782,49674,5
26783,49671,5
26770,49671,5
26777,49664,5
26773,49671,4
26786,49677,5
26778,49672,5
26776,49680,5
26771,49680,5
26778,49688,4
26774,49682,5
26786,49693,5
26781,49693,5
26786,49693,5
26786,49694,4
26787,49707,5
26790,49702,5
26805,49702,5
26789,49705,4
26799,49708,4
26799,49715,5
26800,49709,5
26808,49717,5
26809,49714,4
26808,49720,5
26799,49718,5
26806,49730,5
26809,49730,5
26813,49728,4
26808,49734,4
26812,49736,5
26806,49728,5
26824,49745,5
26825,49733,3
26824,49748,5
26817,49743,5
26819,49747,5
26824,49752,5
26822,49758,4
26823,49751,5
26833,49762,5
26829,49758,5
26837,49754,4
26824,49751,4
26825,49750,5
26822,49746,5
26823,49749,5
26820,49753,4
26826,49750,5
26820,49754,5
26829,49761,5
26825,49752,5
26817,49749,4
26824,49753,6
26823,49754,4
26819,49741,5
26814,49734,5
26822,49744,6
26822,49737,3
26816,49736,5
26820,49741,5
26809,49742,5
26822,49748,4
26815,49741,5
26829,49744,5
26828,49752,5
26820,49755,4
26825,49759,4
26828,49763,5
26828,49765,5
26834,49762,5
26836,49764,4
26834,49760,5
26826,49763,5
26829,49756,5
26812,49748,5
26825,49749,4
26820,49744,5
26815,49749,6
26782,49744,4
26820,49741,5
26824,49747,4
26822,49744,5
26764,49748,5
26821,49746,5
26820,49749,5
26818,49749,4
26804,49751,5
26824,49752,5
26817,49749,5
26819,49751,5
26860,49754,4
26816,49743,5
26814,49754,5
26820,49743,5
26879,49747,4
26818,49751,5
26824,49756,5
26820,49759,5
26860,49751,5
26828,49755,4
26823,49756,5
26829,49758,5
26836,49756,6
26827,49754,4
26821,49753,4
26817,49753,5
26822,49724,5
26821,49749,5
26818,49751,5
26816,49752,4
26817,49695,5
26817,49737,5
26811,49739,5
26804,49734,5
26826,49689,4
26824,49752,5
26820,49753,5
26823,49753,5
26820,49773,4
26820,49761,5
26825,49750,5
26814,49754,5
26817,49820,5
26823,49760,5
26831,49762,4
26823,49761,5
26831,49821,5
26837,49769,6
26834,49767,3
26843,49778,5
26840,49804,5
26831,49785,5
26840,49784,5
26839,49787,4
26839,49779,5
26843,49776,5
26842,49782,5
26840,49788,5
26850,49788,4
26837,49787,5
26847,49804,5
26855,49802,5
26851,49807,4
26853,49795,5
26861,49809,5
26854,49804,5
26863,49811,5
26866,49819,7
26863,49814,3
26864,49813,4
26863,49812,5
26868,49818,5
26862,49816,4
26874,49821,5
26868,49820,5
26871,49816,5
26870,49824,5
26865,49819,4
26878,49822,5
26859,49824,5
26877,49829,5
26864,49821,5
26867,49832,4
26870,49831,5
26870,49826,5
26863,49817,5
26864,49820,4
26866,49818,4
26858,49818,5
26862,49820,5
26864,49812,5
26864,49819,4
26853,49810,5
26861,49817,6
26859,49812,4
26861,49813,5
26854,49808,4
26864,49812,5
26855,49825,5
26858,49820,5
26867,49820,5
26871,49821,4
26878,49833,5
26877,49837,5
26869,49830,5
26868,49841,5
26875,49832,4
26879,49824,5
26870,49835,5
26873,49823,5
26862,49813,4
26864,49818,4
26866,49819,5
26860,49819,5
26865,49811,5
26860,49814,4
26873,49812,5
26859,49811,5
26865,49826,6
26867,49818,4
26861,49826,4
26870,49823,5
26857,49820,5
26865,49830,5
26871,49834,5
26873,49827,4
26862,49829,5
26865,49824,5
26850,49819,5
26854,49811,5
26851,49805,4
26834,49783,5
26848,49797,5
26833,49792,5
26836,49785,4
26797,49789,4
26844,49789,5
26844,49801,5
26850,49792,5
26791,49799,5
26843,49794,4
26853,49803,5
26843,49797,5
26827,49806,5
26854,49808,4
26856,49812,5
26855,49816,5
26889,49823,5
26856,49820,5
26860,49821,4
26857,49820,5
26925,49816,5
26858,49821,5
26851,49818,5
26853,49810,4
26879,49803,5
26852,49811,5
26852,49816,5
26852,49821,4
26862,49820,4
26864,49816,5
26854,49840,5
26868,49832,5
26861,49812,4
26871,49849,6
26868,49841,4
26870,49845,5
26875,49793,5
26883,49850,4
26878,49852,5
26878,49855,5
26881,49805,5
26874,49863,5
26886,49864,4
26887,49872,5
26889,49884,5
26889,49878,5
26893,49869,5
26894,49885,4
26899,49946,5
26898,49890,5
26905,49895,5
26909,49903,4
26907,49965,4
26913,49912,5
26917,49919,5
26916,49924,5
26911,49928,4
26921,49915,5
26910,49914,6
26919,49921,4
26910,49921,5
26911,49919,4
26916,49915,5
26926,49920,5
26919,49918,5
26921,49913,5
26910,49913,4
26917,49924,5
26913,49925,5
26919,49917,5
26919,49912,5
26919,49917,4
26912,49930,5
26923,49916,5
26908,49911,5
26912,49922,4
26921,49915,4
26922,49928,5
26913,49923,5
26916,49915,5
26913,49919,4
26921,49917,5
26914,49929,5
26917,49925,7
26913,49923,3
26915,49912,4
26914,49917,5
26907,49911,5
26907,49910,5
26906,49894,5
26892,49895,4
26897,49902,5
26895,49898,5
26894,49898,5
26898,49899,5
26894,49890,4
26898,49901,5
26899,49895,5
26903,49913,5
26902,49909,4
26912,49913,4
26907,49914,5
26906,49915,5
26913,49916,5
26916,49912,5
26907,49910,4
26908,49904,5
26903,49900,5
26895,49898,5
26900,49895,4
26896,49903,5
26895,49901,5
26896,49905,5
26897,49900,5
26908,49907,4
26902,49907,5
26907,49906,5
26906,49906,5
26905,49904,5
26904,49913,4
26895,49910,5
26901,49915,5
26896,49910,5
26911,49915,4
26906,49917,4
26910,49925,5
26908,49915,5
26907,49912,5
26909,49915,4
26904,49910,6
26906,49910,4
26907,49916,5
26910,49912,5
26907,49915,4
26909,49931,5
26911,49926,5
26915,49928,5
26904,49928,5
26911,49931,4
26921,49946,5
26919,49936,5
26880,49940,5
26923,49942,5
26924,49946,4
26920,49944,5
26864,49945,5
26931,49961,5
26919,49943,5
26928,49954,4
26920,49949,5
26930,49953,5
26932,49954,5
26933,49950,4
26972,49955,5
26932,49951,6
26931,49952,4
26927,49958,5
26997,49954,4
26938,49964,5
26938,49966,5
26942,49974,5
26973,49967,5
26945,49973,4
26951,49981,5
26949,49987,5
26955,49986,5
26957,50000,5
26956,50004,4
26968,50014,5
26967,49982,5
26959,50016,5
26975,50016,5
26973,50015,4
26968,49976,5
26978,50025,5
26977,50026,5
26976,50026,4
26972,49981,4
26975,50027,5
26979,50026,5
26977,50017,5
26968,50044,4
26971,50025,5
26970,50025,5
26970,50012,5
26972,50076,5
26967,50019,4
26974,50013,5
26961,50014,5
26969,50063,5
26972,50016,5
26965,50007,4
26961,50006,5
26964,50033,5
26964,50018,5
26967,50011,5
26976,50018,5
26968,50015,4
26980,50028,5
26965,50009,5
26960,50009,6
26971,50013,3
26969,50008,5
26971,50014,5
26961,50007,5
26965,49994,4
26950,49986,5
26956,49981,5
26945,49987,5
26945,49987,5
26951,49977,4
26955,49981,5
26944,49981,5
26947,49966,5
26944,49967,5
26939,49968,4
26942,49971,5
26935,49968,5
26936,49963,5
26941,49971,5
26940,49971,4
26949,49984,6
26965,49990,4
26967,50000,5
26973,50015,4
26980,50022,6
26980,50033,3
26987,50038,5
26994,50034,5
26984,50039,4
26983,50030,5
26990,50044,5
26988,50045,5
26983,50024,5
26988,50033,4
26988,50032,5
26985,50029,5
26979,50027,5
26984,50025,5
26989,50027,4
26988,50026,5
26982,50026,5
26983,50031,5
26976,50015,5
26974,50020,4
26972,50009,5
26984,50023,6
26978,50018,4
26972,50021,5
26974,50015,4
26972,50021,5
26981,50011,5
26972,50015,5
26974,50008,4
26974,50015,4
26976,50015,5
26963,50012,5
26975,50016,5
26975,50001,4
26965,50006,5
26958,50007,5
26967,50002,5
26975,49995,5
26967,50009,4
26963,50012,5
26970,50002,5
26964,50005,5
26971,50003,5
26973,50007,4
26969,49997,5
26963,49993,5
26959,49988,6
26965,49987,4
26954,49984,4
26951,49989,5
26964,49983,5
26954,49983,5
26949,49973,4
26921,49972,4
26957,49970,5
26955,49968,5
26953,49974,5
26907,49970,4
26954,49964,5
26952,49978,5
26951,49974,5
26911,49966,5
26951,49971,4
26959,49970,5
26952,49978,5
26980,49983,5
26953,49972,5
26948,49984,5
26948,49990,4
27020,49972,5
26958,49974,5
26966,49984,6
26960,49989,3
27002,49984,5
26953,49981,5
26950,49980,5
26962,49978,5
26963,49973,4
26952,49964,5
26952,49970,5
26953,49965,5
26957,49945,4
26950,49960,4
26942,49962,5
26943,49954,5
26939,49912,5
26942,49963,4
26946,49955,5
26935,49947,5
26946,49901,5
26942,49951,5
26945,49953,4
26936,49953,6
26943,49938,4
26944,49943,5
26935,49941,5
26938,49943,4
26929,49980,5
26927,49926,5
26926,49934,5
26926,49922,5
26912,49992,4
26925,49923,5
26916,49916,5
26923,49910,5
26921,49944,5
26916,49912,4
26922,49902,5
26913,49905,5
26916,49913,5
26913,49904,4
26917,49913,5
26921,49913,5
26924,49916,5
26912,49911,5
26927,49923,4
26921,49915,5
26923,49920,6
26925,49914,4
26927,49919,5
26917,49924,4
26929,49919,5
26909,49919,5
26910,49919,5
26919,49901,5
26917,49912,4
26910,49904,5
26917,49908,5
26918,49907,5
26909,49904,5
26914,49912,4
26922,49915,5
26919,49915,5
26915,49921,5
26915,49913,4
26917,49920,4
26917,49913,5
26920,49921,5
26926,49932,5
26918,49922,4
26916,49927,5
26923,49920,5
26922,49912,6
26913,49921,4
26920,49911,4
26922,49916,5
26916,49909,5
26912,49911,5
26914,49905,5
26917,49913,4
26908,49901,5
26912,49894,5
26908,49901,5
26913,49908,5
26921,49899,4
26913,49912,5
26918,49914,5
26919,49913,5
26912,49902,4
26915,49912,4
26919,49909,5
26916,49907,5
26909,49910,5
26909,49904,5
26920,49910,4
26918,49914,5
26917,49902,5
26916,49903,5
26921,49908,4
26914,49906,5
26910,49906,5
26916,49909,5
26914,49916,5
26912,49914,4
26919,49912,5
26910,49910,5
26917,49910,5
26919,49915,5
26917,49914,4
26920,49907,5
26920,49904,5
26918,49914,5
26909,49909,5
26918,49917,4
26918,49930,5
26928,49929,5
26921,49922,5
26926,49917,4
26918,49921,5
26918,49922,4
26900,49927,5
26918,49914,5
26929,49922,4
26921,49926,5
26880,49930,5
26925,49935,5
26930,49923,5
26926,49928,4
26875,49930,5
26925,49923,5
26916,49928,5
26923,49926,5
26924,49923,4
26927,49916,5
26921,49913,5
26917,49913,5
26965,49908,5
26916,49903,4
26913,49899,5
26912,49907,6
26979,49906,4
26908,49913,4
26917,49911,4
26922,49912,6
26943,49902,4
26912,49905,5
26912,49897,4
26902,49892,5
26908,49875,5
26885,49872,5
26886,49865,5
26890,49850,4
26884,49828,5
26886,49862,5
26892,49858,5
26887,49859,5
26891,49805,4
26884,49854,5
26886,49847,5
26882,49854,5
26880,49805,5
26874,49839,4
26865,49819,5
26853,49816,5
26851,49832,5
26837,49792,5
26833,49780,4
26833,49761,5
26825,49828,5
26824,49762,5
26815,49754,4
26817,49751,4
26819,49788,5
26821,49745,5
26825,49748,5
26819,49750,4
26817,49758,5
26816,49752,5
26825,49759,5
26818,49750,5
26833,49763,4
26818,49773,5
26834,49769,5
26825,49769,5
26829,49765,5
26823,49766,4
26834,49756,5
26825,49763,5
26829,49772,5
26837,49775,5
26833,49778,4
26827,49771,5
26840,49779,5
26842,49785,5
26845,49791,4
26844,49786,4
26852,49789,5
26853,49792,5
26853,49794,5
26849,49802,4
26842,49789,5
26844,49799,5
26843,49786,5
26852,49799,5
26851,49789,4
26848,49797,5
26850,49796,5
26856,49799,5
26846,49797,5
26851,49794,4
26840,49797,5
26843,49788,5
26842,49794,5
26846,49795,5
26847,49794,5
26846,49803,4
26848,49791,5
26844,49798,5
26847,49786,5
26842,49786,4
26839,49785,5
26841,49775,5
26841,49777,5
26843,49773,4
26836,49774,5
26840,49783,5
26839,49773,5
26839,49782,5
26842,49777,4
26841,49779,5
26842,49784,5
26841,49773,5
26828,49786,5
26845,49790,4
26843,49780,5
26839,49776,5
26832,49783,4
26843,49770,5
26837,49769,4
26827,49758,7
26834,49766,3
26829,49756,5
26833,49758,5
26821,49757,4
26819,49751,5
26826,49745,5
26832,49753,5
26825,49750,4
26827,49753,9
26818,49755,5
26816,49728,5
26820,49729,5
26817,49740,10
26825,49739,5
26810,49744,5
26807,49734,10
26817,49739,5
26793,49738,5
26803,49729,10
26800,49726,5
26799,49725,5
26756,49711,10
26800,49718,5
26794,49716,7
26807,49698,8
26747,49687,5
26778,49689,7
26768,49684,8
26768,49684,5
26774,49673,7
26839,49678,8
26770,49687,5
26773,49685,7
26771,49683,8
26816,49690,5
26773,49676,7
26773,49676,8
26764,49703,5
26763,49676,7
26769,49629,8
26764,49670,5
26768,49665,7
26769,49676,8
26769,49676,7
26773,49646,8
26759,49671,5
26777,49671,7
26775,49673,8
26779,49694,5
26773,49687,7
26773,49687,12
26767,49689,7
26781,49691,5
26765,49740,8
26788,49700,7
26788,49700,5
26783,49726,8
26789,49725,7
26790,49710,5
26789,49711,8
26787,49697,7
26790,49708,5
26789,49698,8
26789,49698,7
26780,49726,8
26778,49687,7
26780,49694,5
26777,49688,5
26776,49709,8
26773,49690,7
26773,49690,5
26760,49694,8
26747,49692,7
26771,49687,5
26777,49690,8
26777,49729,7
26774,49686,8
26774,49686,7
26747,49683,9
26764,49689,10
26773,49681,9
26773,49681,8
26772,49687,7
26774,49676,10
26765,49673,7
26765,49673,5
26749,49676,5
26736,49669,10
26754,49673,5
26766,49668,5
26770,49721,10
26766,49674,5
26755,49635,5
26757,49657,10
26757,49657,5
26754,49651,5
26749,49648,10
26755,49663,5
26749,49659,7
26760,49655,4
26763,49668,1
26772,49667,5
26761,49687,6
26772,49695,3
26773,49674,5
26768,49669,5
26770,49669,5
26767,49681,5
26773,49676,4
26774,49677,5
26771,49686,5
26769,49697,5
26788,49704,5
26791,49697,4
26786,49711,5
26784,49714,5
26798,49718,5
26793,49719,5
26790,49718,4
26806,49727,5
26797,49727,5
26773,49723,5
26804,49725,5
26795,49725,5
26805,49719,4
26755,49724,5
26802,49717,5
26796,49720,4
26804,49727,4
26747,49719,5
26798,49716,5
26790,49726,5
26793,49724,4
26818,49719,5
26796,49719,5
26799,49715,5
26789,49719,5
26849,49715,4
26793,49708,5
26791,49716,5
26795,49712,5
26835,49720,5
26803,49717,4
26795,49727,5
26803,49728,5
26812,49728,5
26803,49735,5
26807,49739,4
26802,49731,6
26805,49722,4
26808,49739,5
26803,49726,5
26805,49725,4
26808,49682,5
26795,49733,5
26809,49732,5
26807,49736,4
26807,49681,4
26811,49738,5
26808,49731,5
26799,49733,5
26808,49721,4
26813,49740,5
26803,49743,5
26814,49736,5
26805,49781,5
26804,49739,4
26813,49744,5
26805,49735,5
26807,49797,5
26802,49735,5
26806,49742,4
26804,49733,5
26803,49768,6
26804,49731,4
26797,49728,5
26804,49725,4
26806,49726,5
26804,49724,5
26798,49718,5
26796,49726,4
26797,49719,4
26791,49722,5
26805,49730,5
26797,49729,5
26805,49721,4
26807,49726,5
26802,49726,5
26806,49722,5
26800,49722,5
26803,49720,4
26801,49726,5
26809,49725,5
26799,49731,5
26796,49727,5
26806,49727,4
26795,49723,5
26804,49723,8
26799,49735,2
26805,49731,5
26800,49729,4
26822,49725,5
26805,49735,5
26806,49725,5
26799,49731,5
26799,49731,4
26796,49730,5
26799,49726,5
26806,49725,5
26798,49718,4
26795,49717,4
26797,49722,5
26789,49720,5
26791,49713,5
26804,49719,4
26802,49715,5
26802,49712,5
26795,49724,5
26795,49723,5
26804,49713,5
26795,49711,4
26789,49722,5
26800,49718,5
26802,49723,5
26794,49722,4
26799,49722,5
26796,49722,5
26798,49723,5
26792,49718,5
26800,49719,4
26794,49721,5
26796,49722,5
26797,49729,5
26803,49730,4
26795,49737,4
26807,49734,5
26801,49729,5
26806,49729,5
26811,49739,4
26803,49733,5
26799,49726,5
26805,49724,5
26793,49727,5
26805,49726,4
26798,49727,6
26804,49720,4
26795,49716,5
26799,49723,5
26796,49721,4
26800,49715,5
26791,49712,5
26794,49714,5
26789,49721,5
26801,49709,4
26797,49713,5
26799,49716,5
26795,49718,5
26802,49721,5
26786,49730,4
26803,49731,5
26808,49729,5
26805,49726,5
26768,49728,4
26802,49735,4
26803,49732,5
26810,49732,5
26745,49727,5
26801,49724,4
26805,49711,5
26797,49730,6
26789,49716,4
26799,49719,5
26791,49716,4
26795,49723,5
26826,49717,5
26786,49709,5
26796,49699,5
26786,49690,4
26836,49693,5
26774,49691,5
26777,49686,5
26764,49689,5
26807,49687,4
26773,49691,5
26785,49691,5
26779,49699,5
26781,49688,4
26784,49694,4
26770,49691,5
26780,49692,5
26773,49664,5
26781,49686,4
26785,49699,5
26782,49700,5
26778,49654,5
26786,49709,5
26787,49705,4
26787,49721,5
26793,49671,5
26805,49717,5
26794,49726,5
26794,49723,4
26797,49735,5
26798,49728,5
26796,49723,5
26796,49734,5
26801,49785,4
26797,49730,5
26793,49735,5
26804,49733,5
26805,49791,5
26801,49731,4
26808,49737,4
26802,49736,5
26809,49765,5
26801,49742,6
26806,49740,3
26810,49746,5
26814,49751,5
26815,49751,5
26802,49748,4
26811,49743,5
26812,49751,5
26802,49746,5
26809,49740,5
26805,49751,4
26810,49746,5
26804,49744,5
26819,49746,5
26808,49750,5
26813,49753,4
26802,49744,5
26811,49743,5
26804,49739,5
26824,49755,5
26813,49751,4
26807,49759,6
26808,49747,4
26814,49746,5
26812,49761,4
26817,49763,6
26816,49758,3
26807,49752,5
26806,49750,5
26811,49756,4
26813,49755,5
26812,49755,5
26815,49752,5
26808,49752,5
26814,49754,4
26816,49751,5
26806,49750,5
26810,49748,5
26802,49748,5
26800,49750,4
26805,49753,5
26807,49748,5
26806,49740,5
26803,49738,5
26806,49750,4
26801,49736,5
26805,49746,6
26800,49744,4
26807,49749,5
26815,49745,4
26815,49742,5
26811,49742,5
26807,49747,5
26810,49738,4
26805,49751,4
26811,49741,5
26814,49747,5
26816,49744,5
26813,49747,4
26809,49746,5
26810,49762,5
26804,49759,5
26813,49760,5
26820,49763,4
26824,49781,5
26833,49783,5
26831,49793,5
26846,49801,5
26840,49812,4
26848,49812,5
26844,49821,5
26850,49820,6
26851,49829,4
26848,49819,4
26855,49830,5
26858,49825,5
26853,49829,5
26851,49818,5
26861,49833,4
26866,49826,5
26852,49822,5
26853,49829,5
26861,49834,4
26863,49835,5
26834,49835,5
26863,49840,5
26859,49827,5
26855,49832,4
26810,49833,5
26858,49832,5
26862,49832,5
26861,49836,5
26805,49834,5
26857,49836,4
26860,49825,5
26857,49831,5
26859,49827,6
26849,49822,3
26854,49816,5
26846,49815,5
26892,49810,5
26842,49809,5
26848,49810,4
26838,49814,5
26903,49814,5
26847,49811,5
26843,49802,4
26837,49806,4
26862,49806,5
26839,49800,5
26837,49797,5
26836,49796,4
26839,49797,5
26842,49806,5
26842,49785,5
26835,49788,5
26830,49749,4
26824,49782,6
26830,49785,4
26835,49786,5
26817,49727,5
26831,49770,5
26822,49773,4
26828,49765,5
26823,49732,5
26823,49772,5
26820,49770,4
26819,49771,5
26820,49805,5
26827,49774,5
26823,49771,5
26817,49779,4
26820,49832,5
26824,49771,5
26818,49777,5
26820,49778,4
26817,49831,4
26821,49768,5
26813,49773,5
26828,49777,5
26829,49797,4
26827,49783,5
26821,49787,6
26825,49781,4
26826,49773,5
26827,49777,4
26830,49784,5
26821,49784,5
26829,49787,5
26827,49787,5
26835,49793,4
26839,49792,5
26837,49800,5
26838,49804,5
26832,49786,5
26827,49797,4
26827,49794,5
26830,49799,5
26831,49789,5
26828,49790,4
26833,49792,4
26831,49787,5
26833,49787,5
26832,49785,5
26825,49785,4
26824,49778,5
26825,49779,5
26822,49776,6
26820,49777,4
26821,49769,4
26812,49767,5
26818,49757,5
26811,49761,5
26810,49763,5
26812,49764,4
26811,49763,5
26818,49768,5
26808,49762,5
26812,49762,5
26806,49761,4
26818,49758,5
26808,49757,5
26810,49759,5
26809,49761,5
26818,49756,4
26810,49765,5
26810,49771,5
26818,49773,5
26821,49769,5
26817,49780,4
26832,49778,5
26829,49786,5
26823,49783,6
26836,49796,3
26836,49799,5
26833,49811,5
26840,49817,5
26844,49816,5
26840,49819,4
26850,49812,5
26843,49819,5
26849,49814,5
26847,49816,5
26857,49822,4
26852,49824,5
26855,49841,5
26853,49842,5
26863,49850,5
26872,49854,4
26871,49862,5
26873,49866,5
26885,49877,5
26881,49884,4
26886,49889,5
26899,49896,4
26899,49889,5
26893,49895,5
26897,49889,4
26893,49899,5
26903,49887,5
26902,49893,5
26888,49892,5
26891,49896,4
26901,49890,5
26898,49896,5
26865,49897,5
26905,49898,5
26905,49896,4
26908,49897,5
26852,49904,5
26907,49901,5
26906,49907,5
26906,49904,4
26861,49903,5
26898,49889,5
26908,49899,4
26901,49903,5
26926,49899,4
26909,49894,6
26905,49897,4
26906,49903,5
26956,49899,4
26906,49894,4
26894,49890,5
26903,49891,5
26940,49893,5
26906,49895,4
26907,49893,5
26907,49894,5
26916,49899,5
26908,49901,5
26910,49891,4
26911,49901,5
26912,49890,5
26906,49907,5
26912,49906,5
26921,49907,4
26921,49871,5
26920,49926,5
26920,49916,5
26919,49920,5
26917,49864,4
26920,49912,5
26926,49922,6
26925,49921,4
26924,49922,4
26922,49927,4
26919,49924,5
