RED,IR,EKG,TIME
34652,78824,183389
34652,78824,1
35737,81181,5
35758,81218,5
35755,81224,5
35757,81211,5
35743,81193,4
35727,81142,5
35695,81045,5
35637,80900,4
35585,80852,6
35578,80813,4
35573,80789,5
35571,80785,5
35564,80820,4
35575,80800,5
35582,80833,5
35596,80858,5
35604,80904,5
35615,80929,4
35635,80973,5
35659,81016,5
35678,81058,5
35691,81106,5
35720,81160,4
35739,81207,5
35761,81247,5
35771,81289,5
35796,81332,4
35812,81365,4
35817,81394,5
35831,81413,5
35839,81436,5
35850,81440,4
35842,81448,5
35850,81448,6
35843,81459,4
35844,81442,5
35838,81446,4
35844,81438,5
35846,81455,5
35859,81480,5
35868,81503,5
35853,81496,4
35857,81477,5
35848,81478,5
35857,81470,5
35845,81468,4
35843,81463,4
35848,81453,5
35846,81462,5
35843,81454,5
35838,81445,4
35837,81430,5
35819,81399,5
35806,81377,5
35798,81370,5
35801,81366,4
35808,81370,5
35799,81391,5
35820,81401,6
35827,81432,4
35843,81450,4
35850,81473,5
35864,81520,5
35886,81566,5
35896,81607,5
35927,81665,4
35943,81713,5
35962,81751,5
35995,81796,5
36010,81845,4
36032,81886,4
36044,81906,5
36044,81922,5
36059,81293,5
36052,81291,4
36062,81299,5
36056,81296,5
36058,81264,5
36046,81239,5
36019,81196,5
35993,81119,4
35966,81056,5
35922,80988,5
35905,80928,5
35878,80881,4
35869,80850,5
35861,80834,5
35862,80843,5
35865,80860,5
35878,80877,4
35890,80929,5
35901,80960,5
35919,81004,5
35947,81051,4
35959,81100,5
35984,81150,5
36012,81210,5
36036,81261,5
36055,81285,4
36050,81291,5
36053,81270,5
36000,81166,5
35944,81035,5
35910,80950,4
35886,80899,6
35842,80856,4
35844,80798,5
35827,80780,5
35809,80750,4
35780,80725,5
35789,80705,5
35778,80691,5
35782,80692,5
35781,80686,4
35791,80698,5
35794,80713,5
35791,80707,5
35825,80729,4
35804,80737,5
35811,80737,5
35815,80751,5
35841,80750,5
35818,80764,4
35821,80761,5
35804,80763,5
35826,80762,5
35812,80759,5
35809,80759,4
35810,80753,5
35818,80746,6
35798,80734,4
35799,80732,5
35792,80710,4
35792,80688,5
35795,80702,7
35789,80710,3
35793,80714,5
35779,80659,4
35769,80663,5
35769,80636,5
35753,80626,5
35741,80587,4
35728,80566,5
35726,80538,5
35698,80512,5
35698,80508,5
35680,80442,4
35663,80413,5
35643,80372,5
35627,80359,5
35603,80281,5
35592,80247,4
35569,80236,5
35579,80239,5
35564,80214,5
35572,80209,5
35564,80208,4
35568,80217,5
35571,80211,5
35557,80212,5
35575,80204,4
35565,80217,4
35572,80222,5
35590,80227,5
35580,80236,5
35573,80249,4
35591,80252,5
35587,80244,5
35582,80245,5
35592,80252,5
35589,80246,4
35588,80244,5
35583,80243,5
35589,80247,5
35583,80247,5
35586,80240,5
35585,80229,4
35580,80226,5
35577,80218,5
35568,80203,5
35562,80196,4
35557,80185,5
35554,80159,5
35545,80158,5
35542,80134,4
35529,80115,5
35527,80089,5
35501,80077,5
35502,80049,5
35483,80030,4
35471,79999,5
35460,79944,5
35425,79866,5
35378,79756,5
35333,79632,4
35279,79515,5
35229,79410,5
35187,79324,4
35166,79269,5
35153,79229,4
35143,79229,7
35146,79234,3
35156,79254,5
35163,79289,4
35184,79330,4
35195,79377,5
35220,79420,5
35239,79465,5
35268,79533,4
35301,79598,5
35316,79664,5
35343,79712,5
35352,79748,5
35380,79789,4
35395,79833,5
35402,79837,5
35383,79792,5
35361,79693,5
35287,79521,4
35230,79432,5
35213,79383,5
35201,79341,6
35179,79293,4
35161,79280,4
35156,79263,5
35141,79244,5
35141,79228,5
35140,79227,4
35136,79217,4
35133,79219,5
35139,79237,5
35147,79246,5
35148,79254,4
35159,79267,5
35161,79283,5
35165,79289,5
35166,79302,5
35170,79308,4
35164,79308,5
35170,79319,5
35179,79304,5
35180,79318,5
35159,79321,5
35169,79313,4
35175,79313,5
35175,79321,5
35147,79320,6
35172,79304,3
35185,79308,5
35173,79310,5
35153,79296,5
35176,79300,4
35175,79311,5
35177,79322,5
35190,79306,5
35172,79299,5
35169,79289,4
35162,79282,5
35193,79272,5
35162,79276,5
35163,79279,5
35152,79278,4
35182,79275,5
35154,79265,5
35150,79266,5
35155,79253,5
35151,79252,4
35153,79253,6
35154,79271,4
35147,79263,5
35149,79258,5
35156,79269,6
35163,79287,3
35164,79275,5
35170,79273,5
35167,79303,4
35172,79315,5
35193,79327,5
35178,79319,5
35192,79366,5
35209,79381,4
35211,79389,5
35213,79404,5
35216,79418,5
35219,79437,5
35234,79447,4
35230,79474,5
35227,79456,5
35237,79457,5
35233,79457,5
35232,79490,4
35245,79457,5
35241,79456,6
35240,79448,4
35233,79459,4
35224,79452,4
35234,79441,5
35226,79444,5
35231,79440,5
35223,79427,4
35214,79424,5
35224,79411,5
35218,79409,5
35220,79406,5
35210,79399,4
35215,79405,5
35206,79396,5
35212,79402,5
35208,79401,5
35215,79394,4
35206,79385,5
35212,79381,5
35205,79369,5
35188,79345,5
35176,79294,4
35145,79233,5
35120,79162,5
35082,79090,6
35056,79023,3
35022,78954,4
35011,78921,5
35000,78898,5
34996,78886,5
34989,78890,4
35005,78914,5
35008,78934,5
35026,78975,5
35039,79010,5
35053,79050,4
35074,79099,5
35096,79134,5
35113,79198,5
35142,79251,5
35166,79293,4
35162,79314,5
35176,79327,5
35184,79349,5
35190,79356,5
35192,79340,5
35186,79301,4
35132,79205,5
35072,79049,5
35014,78936,4
35009,78906,4
34995,78882,5
34980,78853,5
34967,78834,5
34958,78830,4
34962,78833,5
34967,78838,5
34961,78839,5
34958,78834,5
34973,78844,4
34973,78850,5
34975,78870,5
34978,78895,5
34986,78903,5
35006,78915,4
35011,78942,5
35010,78950,5
35018,78965,5
35006,78960,5
35016,78962,4
35015,78971,6
35023,78979,4
35024,78971,5
35017,78981,4
35022,78973,5
35027,78973,5
35012,78968,5
35007,78953,5
35024,78959,4
35013,78954,5
35015,78951,5
35016,78951,5
35021,78963,5
35018,78977,4
35026,78963,5
35016,78956,5
35019,78944,5
35009,78960,5
35012,78949,4
35019,78967,5
34998,78967,5
35016,78965,5
35021,78958,5
35019,78955,4
34996,78961,5
35016,78962,6
35008,78964,4
35016,78953,4
35009,78956,5
35026,78962,5
35018,78973,5
35028,78977,5
35046,78989,4
35030,78995,5
35032,79018,5
35045,79028,5
35080,79044,5
35061,79063,4
35063,79080,5
35076,79100,5
35106,79133,5
35097,79149,5
35103,79166,4
35104,79172,5
35120,79173,5
35105,79184,5
35111,79181,5
35108,79186,4
35109,79169,5
35111,79178,5
35115,79172,5
35108,79172,4
35116,79156,5
35110,79184,5
35114,79172,5
35109,79171,5
35111,79145,4
35110,79171,5
35099,79165,5
35109,79159,5
35091,79142,5
35103,79138,4
35104,79143,5
35093,79139,5
35091,79156,5
35096,79127,5
35088,79131,4
35086,79129,5
35088,79158,5
35094,79123,5
35088,79136,4
35081,79117,5
35083,79130,3
35097,79126,5
35089,79121,5
35089,79108,4
35089,79128,5
35081,79118,5
35075,79114,5
35084,79107,5
35079,79102,4
35082,79101,5
35080,79092,5
35078,79094,5
35077,79093,5
35068,79091,4
35066,79088,5
35069,79086,5
35070,79089,5
35068,79080,5
35063,79070,4
35062,79043,5
35044,79012,5
35019,78951,5
35003,78900,4
34966,78826,4
34951,78773,6
34917,78710,4
34893,78690,5
34891,78655,4
34885,78634,5
34876,78646,5
34890,78658,5
34896,78678,5
34912,78698,4
34922,78738,5
34938,78789,5
34954,78834,5
34973,78880,5
34995,78917,4
35007,78957,5
35027,78989,5
35027,78986,5
35024,78984,5
35022,78975,4
35012,78953,5
35004,78901,5
34964,78808,5
34905,78647,4
34848,78567,4
34846,78540,5
34824,78537,5
34811,78506,5
34822,78499,4
34822,78495,5
34816,78501,5
34816,78509,5
34826,78508,5
34819,78527,4
34828,78524,5
34841,78548,5
34835,78566,5
34844,78574,5
34847,78600,4
34863,78611,5
34858,78620,5
34868,78625,5
34863,78618,5
34861,78626,4
34865,78612,5
34859,78604,5
34856,78607,5
34845,78577,5
34844,78568,4
34847,78560,5
34840,78562,5
34834,78552,5
34835,78542,4
34827,78533,5
34833,78524,5
34828,78521,5
34814,78526,5
34830,78543,4
34828,78545,5
34830,78535,5
34820,78527,5
34817,78501,5
34807,78515,4
34817,78503,5
34811,78495,5
34812,78503,5
34786,78494,5
34804,78476,4
34803,78470,5
34800,78466,5
34775,78467,5
34796,78465,4
34800,78462,6
34793,78461,4
34801,78476,5
34800,78476,5
34803,78489,4
34808,78497,5
34826,78505,5
34809,78506,5
34816,78516,5
34820,78527,4
34859,78542,5
34828,78549,5
34847,78562,5
34839,78574,5
34862,78580,4
34852,78590,5
34852,78594,5
34854,78598,5
34862,78600,4
34856,78603,4
34863,78599,5
34855,78600,10
34848,78584,4
34851,78598,5
34843,78594,5
34845,78592,5
34846,78560,5
34849,78586,4
34849,78580,5
34836,78572,5
34841,78555,5
34832,78568,5
34843,78557,5
34844,78561,4
34833,78562,5
34833,78551,5
34826,78555,5
34822,78548,4
34837,78568,5
34832,78544,5
34829,78536,5
34828,78537,5
34831,78568,4
34829,78544,5
34826,78538,5
34823,78524,6
34825,78529,3
34829,78522,5
34825,78521,5
34817,78510,5
34815,78506,5
34807,78487,4
34796,78463,5
34796,78438,5
34768,78391,5
34746,78364,5
34736,78332,4
34736,78301,5
34724,78289,5
34712,78263,5
34712,78263,5
34712,78271,4
34715,78283,5
34727,78298,5
34737,78331,5
34752,78365,4
34760,78415,5
34796,78463,4
34816,78500,5
34826,78537,5
34838,78552,6
34848,78575,3
34854,78593,5
34858,78590,5
34847,78576,5
34855,78592,4
34851,78579,5
34849,78569,5
34834,78539,5
34803,78453,5
34763,78350,4
34734,78322,5
34737,78332,5
34746,78338,5
34740,78332,5
34748,78352,4
34752,78355,5
34758,78387,5
34776,78415,5
34788,78432,4
34792,78457,4
34803,78487,6
34821,78518,4
34837,78551,5
34851,78587,4
34855,78615,5
34865,78640,5
34878,78652,5
34880,78662,5
34883,78664,4
34880,78676,5
34880,78673,5
34885,78669,5
34881,78671,5
34889,78665,4
34886,78655,5
34887,78670,5
34882,78666,5
34893,78659,5
34890,78666,4
34880,78672,5
34894,78681,5
34895,78696,5
34921,78726,4
34906,78735,4
34915,78706,5
34900,78709,6
34900,78701,4
34901,78690,4
34895,78687,5
34902,78694,5
34893,78688,5
34891,78687,5
34889,78679,4
34895,78676,5
34891,78674,5
34892,78674,5
34900,78690,5
34898,78702,4
34905,78709,5
34912,78738,5
34912,78753,5
34936,78793,5
34951,78820,4
34962,78856,5
34956,78907,5
34999,78939,5
35015,78977,5
35034,79020,4
35016,79051,5
35073,79085,5
35079,79106,6
35088,79130,3
35090,79149,5
35091,79161,5
35098,79167,5
35107,79175,5
35136,79184,4
35104,79191,5
35109,79190,5
35121,79194,5
35145,79202,5
35118,79195,4
35124,79200,5
35117,79199,5
35145,79204,5
35124,79200,5
35123,79203,4
35122,79217,5
35124,79202,5
35119,79225,5
35129,79216,4
35131,79225,5
35133,79212,4
35134,79244,5
35145,79245,5
35143,79250,4
35150,79230,5
35134,79241,5
35140,79243,5
35136,79226,5
35127,79187,4
35120,79185,5
35103,79155,5
35091,79127,5
35076,79091,5
35060,79063,4
35058,79039,5
35049,79027,5
35044,79043,5
35050,79029,5
35051,79038,4
35067,79051,5
35062,79105,5
35075,79111,5
35101,79146,4
35105,79185,4
35134,79234,6
35144,79265,4
35159,79292,5
35172,79318,4
35173,79318,5
35169,79317,5
35170,79308,5
35163,79293,5
35157,79278,4
35152,79227,5
35101,79139,5
35062,79030,5
35041,79004,5
35045,79013,4
35045,79018,5
35047,79017,5
35058,79024,5
35062,79054,5
35071,79087,4
35083,79105,5
35096,79146,5
35109,79173,5
35120,79218,5
35139,79251,4
35154,79288,5
35170,79330,6
35182,79356,4
35201,79390,4
35217,79419,5
35228,79432,5
35226,79440,5
35232,79444,5
35228,79466,4
35241,79473,5
35238,79476,5
35248,79479,5
35253,79493,5
35251,79496,4
35259,79512,5
35260,79520,5
35265,79533,5
35268,79537,5
35279,79562,4
35289,79599,5
35297,79608,5
35293,79606,5
35294,79590,5
35296,79595,4
35298,79594,5
35290,79589,5
35287,79583,5
35286,79579,4
35283,79581,5
35291,79583,5
35282,79583,5
35282,79560,5
35285,79567,4
35277,79561,5
35284,79573,5
35289,79569,5
35295,79593,5
35304,79620,4
35308,79652,5
35334,79691,5
35356,79747,5
35378,79806,5
35405,79865,4
35441,79936,5
35459,80004,5
35484,80062,5
35514,80110,5
35537,80167,5
35562,80209,4
35583,80253,5
35595,80295,5
35609,80320,4
35615,80339,5
35625,80355,5
35633,80377,5
35642,80389,5
35646,80391,4
35643,80403,5
35642,80408,5
35653,80390,5
35646,80399,5
35625,80356,4
35625,80332,5
35601,80275,5
35583,80237,5
35542,80198,5
35550,80150,4
35537,80132,5
35527,80120,5
35503,80115,5
35535,80129,5
35544,80146,4
35552,80186,6
35555,80224,4
35582,80271,5
35613,80337,4
35637,80403,5
35682,80446,5
35685,80474,5
35689,80489,5
35690,80508,4
35731,80523,5
35696,80503,5
35685,80483,5
35676,80450,5
35682,80410,4
35614,80315,5
35562,80174,5
35516,80086,5
35513,80080,5
35514,80081,4
35513,80079,5
35524,80090,5
35515,80113,5
35536,80154,5
35560,80195,4
35577,80237,5
35581,80261,6
35605,80320,4
35625,80367,5
35654,80419,4
35674,80441,5
35690,80521,5
35707,80558,5
35735,80610,4
35751,80648,5
35763,80681,5
35781,80699,5
35788,80708,5
35790,80750,4
35788,80734,5
35791,80741,5
35790,80737,5
35792,80773,5
35801,80736,4
35787,80735,5
35800,80736,5
35794,80755,5
35798,80761,5
35818,80791,4
35825,80797,5
35816,80779,5
35813,80775,5
35807,80774,4
35806,80768,5
35808,80756,5
35794,80739,5
35800,80751,5
35797,80746,4
35796,80746,5
35794,80730,5
35782,80706,5
35766,80682,5
35771,80669,4
35762,80656,5
35750,80661,5
35761,80673,5
35767,80685,5
35773,80702,4
35788,80731,5
35794,80763,5
35826,80797,5
35833,80841,5
35860,80895,5
35881,80935,4
35908,81004,5
35924,81050,5
35945,81100,4
35985,81154,5
35992,81184,5
36007,81214,5
36017,81249,5
36033,81252,4
36023,81255,5
36027,81258,5
36022,81249,5
36015,81229,5
35992,81175,4
35967,81114,5
35939,81043,5
35899,80972,5
35877,80897,5
35848,80847,4
35827,80806,5
35818,80782,5
35810,80775,4
35813,80775,5
35813,80791,4
35823,80821,7
35843,80837,3
35851,80885,5
35869,80916,4
35884,80953,4
35896,80993,5
35918,81032,5
35937,81060,5
35951,81090,4
35952,81106,5
35945,81092,5
35933,81035,5
35886,80909,5
35818,80758,4
35781,80686,5
35745,80642,5
35732,80595,5
35709,80532,5
35687,80504,4
35684,80487,5
35673,80459,5
35667,80449,6
35656,80434,4
35655,80428,4
35659,80437,5
35656,80441,5
35662,80439,5
35663,80455,4
35670,80455,4
35672,80462,5
35660,80468,5
35667,80475,5
35675,80479,4
35668,80480,5
35669,80478,5
35668,80464,5
35672,80458,5
35667,80453,4
35647,80446,5
35659,80437,5
35652,80421,5
35641,80424,5
35619,80406,5
35641,80400,4
35636,80401,5
35645,80413,5
35636,80425,6
35639,80403,3
35633,80380,5
35620,80361,5
35626,80340,5
35605,80326,4
35605,80306,5
35597,80293,5
35613,80279,5
35586,80272,5
35587,80244,4
35565,80225,5
35568,80195,5
35543,80152,8
35517,80115,2
35510,80096,4
35496,80084,5
35503,80085,5
35507,80082,5
35507,80094,5
35509,80091,4
35512,80110,6
35515,80122,4
35528,80134,5
35520,80129,5
35529,80157,6
35532,80165,3
35546,80188,5
35550,80162,5
35549,80204,4
35563,80219,4
35560,80213,5
35562,80206,5
35561,80215,5
35559,80201,4
35560,80208,5
35560,80219,5
35556,80213,5
35561,80201,5
35547,80207,4
35559,80222,5
35547,80199,5
35553,80198,5
35537,80179,5
35545,80195,4
35534,80164,5
35523,80139,6
35518,80100,4
35488,80042,5
35447,79928,4
35387,79796,5
35332,79656,5
35270,79529,5
35233,79446,4
35202,79386,4
35195,79361,5
35192,79353,5
35190,79361,5
35191,79389,4
35203,79416,5
35219,79455,5
35240,79480,5
35254,79532,5
35279,79583,4
35297,79623,5
35328,79690,5
35353,79735,5
35364,79791,5
35375,79825,4
35390,79846,5
35403,79875,5
35408,79863,6
35391,79796,4
35330,79653,4
35257,79498,5
35218,79428,5
35198,79369,5
35175,79322,4
35154,79289,4
35144,79251,5
35132,79235,5
35121,79228,5
35112,79199,4
35114,79184,5
35112,79187,5
35112,79186,5
35102,79187,5
35116,79204,4
35117,79205,5
35116,79220,5
35126,79229,5
35122,79235,5
35130,79228,5
35133,79242,4
35135,79246,5
35134,79247,5
35139,79245,6
35134,79241,3
35136,79248,5
35138,79250,5
35132,79254,5
35134,79252,4
35131,79241,4
35137,79235,5
35124,79235,5
35130,79223,5
35131,79225,4
35135,79228,5
35135,79242,5
35131,79247,5
35125,79224,5
35121,79210,4
35117,79208,5
35117,79214,5
35123,79218,5
35113,79209,5
35115,79209,4
35116,79218,6
35115,79201,4
35111,79201,5
35106,79188,5
35108,79188,4
35110,79190,5
35112,79180,5
35110,79185,5
35112,79187,4
35108,79182,4
35110,79187,5
35112,79190,5
35109,79196,5
35113,79214,4
35120,79208,5
35128,79226,5
35121,79242,5
35132,79261,5
35142,79268,4
35154,79287,5
35135,79311,5
35171,79324,5
35171,79328,5
35169,79339,4
35142,79340,5
35184,79347,6
35175,79348,4
35177,79352,5
35191,79348,4
35185,79351,5
35182,79348,5
35179,79351,5
35205,79348,4
35180,79352,4
35176,79341,5
35175,79337,5
35202,79329,5
35166,79322,4
35168,79312,5
35162,79316,5
35169,79299,5
35154,79299,5
35155,79295,4
35154,79288,5
35147,79276,5
35142,79285,5
35149,79274,5
35153,79282,4
35158,79264,5
35153,79280,5
35152,79283,5
35143,79288,5
35148,79254,4
35148,79276,5
35146,79269,5
35142,79270,5
35144,79260,4
35146,79273,4
35145,79271,5
35154,79274,5
35152,79287,5
35155,79273,4
35155,79269,5
35150,79270,5
35147,79289,5
35137,79259,5
35143,79255,4
35143,79243,5
35131,79258,5
35133,79229,5
35135,79225,5
35121,79221,5
35134,79244,4
35129,79212,5
35119,79188,5
35103,79164,5
35085,79095,4
35054,79017,5
35017,78919,5
34961,78818,5
34925,78724,4
34891,78657,4
34872,78611,5
34854,78599,5
34852,78593,5
34863,78598,4
34866,78618,5
34884,78648,5
34900,78698,5
34921,78750,5
34945,78804,4
34963,78857,5
34987,78905,5
35019,78971,5
35040,79028,5
35056,79079,4
35069,79105,6
35087,79117,4
35092,79117,5
35077,79087,5
35049,79016,4
34985,78865,5
34924,78765,5
34917,78738,5
34913,78729,4
34902,78695,4
34891,78687,5
34887,78679,5
34885,78670,5
34893,78667,4
34882,78663,5
34900,78675,5
34899,78680,5
34890,78686,5
34901,78700,4
34899,78703,5
34905,78731,5
34954,78837,5
35025,78995,5
35097,79136,4
35153,79265,5
35203,79363,6
35224,79422,4
35246,79453,5
35260,79475,4
35273,79492,5
35266,79487,5
35263,79479,5
35261,79464,4
35257,79454,4
35236,79430,5
35231,79411,5
35216,79382,5
35212,79367,4
35192,79336,5
35194,79321,5
35185,79316,5
35192,79319,5
35189,79319,4
35177,79304,5
35171,79280,5
35166,79285,5
35169,79281,5
35160,79279,4
35161,79278,5
35171,79280,5
35167,79285,5
35177,79281,5
35163,79271,4
35164,79274,5
35163,79274,5
35158,79274,5
35158,79267,4
35160,79264,4
35157,79265,5
35152,79266,5
35160,79263,5
35140,79267,4
35167,79275,5
35163,79285,5
35167,79297,5
35148,79300,5
35184,79323,4
35183,79335,6
35187,79353,4
35163,79367,5
35200,79372,5
35206,79377,5
35202,79384,4
35211,79384,5
35204,79377,5
35205,79377,5
35192,79378,4
35221,79377,5
35190,79372,5
35201,79374,5
35197,79364,4
35222,79365,4
35195,79366,5
35187,79346,5
35189,79347,5
35194,79346,4
35184,79333,5
35185,79325,5
35176,79325,5
35176,79317,5
35175,79320,4
35169,79316,5
35165,79314,5
35171,79291,5
35174,79296,5
35167,79304,4
35167,79291,6
35156,79261,3
35150,79255,5
35136,79216,5
35116,79177,4
35095,79091,5
35062,79061,5
35042,79008,5
35020,78979,4
35013,78974,4
35012,78951,5
35011,78953,5
35021,78961,5
35027,79012,4
35035,79009,5
35048,79028,5
35059,79069,5
35081,79122,5
35085,79140,4
35099,79157,5
35103,79175,5
35115,79192,6
35112,79196,4
35114,79179,4
35111,79178,5
35115,79172,5
35101,79153,5
35089,79119,5
35051,79033,4
34992,78887,5
34956,78810,5
34936,78787,5
34936,78792,4
34932,78772,5
34923,78756,5
34925,78764,5
34936,78774,5
34931,78780,4
34937,78784,5
34929,78778,5
34939,78785,5
34941,78803,5
34947,78808,5
34952,78840,4
34963,78854,5
34965,78876,5
34980,78898,6
34977,78899,3
34991,78917,5
34994,78925,5
34996,78922,5
34989,78924,5
34993,78925,4
34996,78927,5
34995,78914,5
34991,78922,5
34994,78917,4
34986,78913,5
34987,78913,5
34994,78902,5
34983,78904,5
34989,78913,4
34988,78922,5
34989,78920,5
35001,78923,5
34997,78927,5
34995,78912,4
34985,78913,6
34988,78912,4
35000,78915,5
34985,78930,5
34996,78916,6
34993,78922,3
34989,78919,5
35003,78926,5
34991,78937,4
34992,78921,4
34993,78937,5
35000,78944,5
35009,78946,5
35008,78965,4
35023,78985,5
35019,79006,5
35031,79033,5
35050,79055,5
35060,79080,4
35061,79109,5
35082,79128,5
35094,79158,5
35108,79197,5
35123,79229,4
35140,79258,5
35147,79282,6
35166,79305,4
35170,79321,5
35185,79351,4
35191,79371,5
35194,79392,5
35205,79409,5
35207,79431,4
35221,79449,4
35229,79457,5
35231,79471,5
35231,79466,5
35240,79466,4
35232,79474,5
35220,79457,5
35217,79432,5
35218,79408,5
35193,79377,4
35167,79355,5
35176,79330,5
35167,79301,5
35162,79288,5
35141,79281,4
35155,79291,5
35168,79296,5
35168,79324,6
35195,79358,4
35207,79416,4
35232,79456,5
35254,79514,5
35304,79562,7
35295,79592,2
35295,79599,4
35296,79618,5
35324,79638,5
35308,79637,5
35310,79628,4
35304,79642,5
35311,79629,5
35306,79619,5
35292,79568,5
35255,79473,4
35214,79363,5
35176,79327,5
35179,79330,5
35179,79333,5
35175,79310,5
35176,79323,4
35171,79339,5
35181,79348,5
35188,79332,6
35188,79362,3
35198,79378,5
35205,79396,5
35214,79421,5
35224,79449,4
35248,79476,5
35249,79508,5
35260,79555,5
35267,79559,5
35273,79570,4
35282,79583,5
35289,79613,5
35289,79590,5
35286,79603,5
35294,79599,4
35286,79608,5
35294,79594,5
35290,79588,5
35293,79589,5
35284,79589,4
35284,79582,6
35284,79581,4
35292,79592,5
35306,79627,5
35304,79619,4
35302,79616,5
35294,79605,5
35290,79588,5
35285,79584,4
35285,79584,5
35287,79601,5
35280,79595,5
35285,79596,5
35287,79589,4
35287,79586,5
35282,79599,5
35291,79593,5
35296,79609,5
35302,79625,4
35309,79637,5
35307,79663,5
35328,79691,5
35341,79713,5
35369,79768,4
35374,79802,5
35399,79848,6
35413,79890,4
35444,79943,4
35450,79969,4
35471,80015,5
35490,80042,5
35499,80077,5
35510,80095,4
35524,80122,5
35520,80139,5
35533,80153,5
35537,80164,5
35547,80168,4
35544,80171,5
35551,80190,5
35543,80185,5
35544,80201,5
35555,80199,4
35555,80200,5
35554,80199,5
35557,80203,5
35552,80201,5
35553,80203,4
35552,80199,5
35552,80203,5
35562,80194,6
35566,80209,3
35566,80219,4
35565,80224,5
35562,80231,5
35574,80231,5
35579,80243,4
35570,80227,5
35567,80228,5
35565,80211,5
35546,80181,5
35529,80128,4
35508,80073,5
35483,80026,5
35465,79965,5
35451,79940,5
35428,79924,4
35428,79914,5
35440,79922,5
35441,79944,5
35460,79964,5
35465,80008,5
35493,80046,4
35524,80117,5
35536,80180,5
35572,80241,4
35595,80295,4
35619,80344,5
35644,80400,5
35652,80440,5
35649,80452,4
35669,80451,5
35666,80427,5
35638,80377,5
35577,80255,5
35527,80099,4
35498,80053,5
35485,80035,5
35451,80022,5
35466,80004,5
35476,80014,4
35481,80035,5
35487,80062,5
35498,80075,5
35513,80105,5
35519,80126,4
35558,80172,6
35543,80213,4
35568,80263,5
35596,80303,4
35642,80353,4
35634,80405,5
35653,80445,5
35671,80486,5
35703,80512,4
35695,80540,5
35706,80565,5
35708,80565,5
35730,80572,5
35721,80588,4
35723,80587,5
35718,80590,5
35720,80579,5
35723,80578,5
35720,80579,4
35709,80570,5
35707,80545,5
35718,80575,5
35719,80586,5
35717,80591,4
35718,80547,5
35710,80558,6
35705,80550,4
35706,80536,4
35698,80547,4
35695,80534,5
35703,80536,5
35693,80532,5
35698,80562,4
35701,80533,5
35695,80533,5
35701,80518,5
35697,80559,5
35690,80523,4
35692,80537,5
35706,80540,5
35713,80571,5
35726,80591,5
35739,80614,4
35742,80647,5
35762,80685,5
35781,80740,5
35802,80777,6
35823,80833,3
35854,80886,5
35872,80938,5
35894,80996,5
35914,81038,4
35935,81073,4
35963,81101,5
35963,81144,5
35986,81170,5
35992,81201,4
35998,81213,5
35997,81211,5
35998,81212,5
35992,81194,5
35979,81175,4
35969,81128,5
35939,81059,5
35920,81003,5
35892,80938,5
35860,80886,4
35850,80854,5
35836,80830,5
35831,80831,5
35836,80837,5
35842,80862,5
35862,80895,4
35874,80930,5
35897,80994,5
35928,81051,4
35949,81104,5
35976,81162,5
35993,81216,5
36019,81278,5
36039,81321,4
36079,81382,5
36102,81443,5
36110,81459,5
36100,81437,5
36094,81377,4
36022,81225,5
35962,81101,5
35939,81043,5
35914,81007,5
35897,80973,4
35885,80957,5
35884,80951,5
35886,80958,5
35885,80963,5
35901,80968,4
35899,80985,6
35911,81019,4
35918,81048,5
35938,81065,4
35952,81105,5
35965,81139,5
35983,81169,5
35996,81203,5
36001,81247,4
36030,81279,5
36044,81306,5
36053,81336,5
36071,81365,5
36078,81386,4
36092,81411,5
36090,81418,5
36104,81438,5
36108,81441,5
36119,81443,4
36102,81447,5
36114,81451,5
36120,81466,6
36126,81499,4
36146,81538,4
36150,81531,5
36141,81525,5
36138,81522,5
36140,81521,4
36139,81510,5
36133,81515,5
36138,81508,5
36126,81497,5
36127,81491,4
36102,81489,5
36111,81460,5
36109,81436,5
36089,81410,5
36060,81401,4
36082,81383,5
36069,81384,5
36075,81388,5
36083,81396,5
36093,81416,5
36104,81420,4
36107,81445,5
36138,81475,5
36131,81501,6
36132,81529,3
36152,81564,5
36199,81607,5
36185,81647,5
36205,81683,4
36224,81716,5
36249,81745,5
36244,81766,5
36258,81785,5
36259,81794,4
36266,81808,5
36268,81818,5
36265,81805,5
36267,81813,5
36269,81782,4
36250,81792,5
36252,81781,5
36241,81765,5
36238,81727,5
36236,81745,4
36230,81717,6
36221,81704,4
36201,81659,5
36192,81649,4
36179,81629,6
36176,81595,3
36163,81573,5
36145,81536,5
36135,81511,4
36125,81487,5
36122,81490,5
36096,81433,5
36079,81393,5
36061,81343,4
36032,81282,5
35983,81158,5
35927,81027,5
35871,80889,5
35802,80764,4
35755,80651,5
35721,80571,5
35695,80523,5
35674,80486,5
35670,80470,4
35659,80474,5
35680,80488,6
35682,80517,4
35695,80548,4
35716,80582,4
35723,80613,5
35740,80668,5
35785,80735,5
35807,80790,4
35822,80847,5
35842,80872,5
35863,80913,5
35875,80949,5
35881,80953,4
35861,80900,5
35817,80776,5
35740,80582,5
35663,80462,5
35641,80393,4
35611,80319,5
35583,80236,5
35549,80197,5
35533,80163,5
35517,80128,4
35507,80107,5
35501,80092,5
35488,80085,6
35500,80082,3
35493,80091,4
35504,80103,5
35501,80089,5
35512,80111,5
35509,80106,4
35506,80121,5
35511,80121,5
35514,80126,5
35504,80120,5
35508,80124,4
35509,80116,5
35508,80112,5
35508,80109,5
35502,80110,5
35505,80104,4
35498,80094,5
35500,80091,5
35495,80093,5
35495,80084,5
35495,80077,5
35488,80068,4
35491,80076,5
35498,80084,5
35497,80092,6
35495,80078,3
35477,80057,5
35489,80053,5
35481,80051,5
35477,80036,4
35470,80025,5
35475,80027,5
35468,80013,5
35462,79993,5
35460,79986,4
35451,79971,5
35436,79956,5
35432,79939,5
35428,79932,5
35426,79929,4
35424,79923,5
35432,79933,5
35422,79938,5
35431,79935,5
35435,79953,4
35440,79959,6
35441,79969,4
35451,79975,5
35448,80003,4
35457,80009,5
35463,80025,5
35469,80032,5
35463,80045,5
35479,80064,4
35485,80066,5
35481,80061,5
35462,80070,5
35491,80076,5
35488,80086,4
35495,80083,5
35475,80081,5
35489,80086,5
35498,80088,5
35498,80092,4
35514,80084,5
35490,80089,5
35484,80074,9
35497,80075,5
35513,80065,5
35489,80063,6
35489,80055,4
35475,80052,4
35503,80035,5
35472,80030,5
35470,80015,5
35469,80013,5
35463,80002,4
35462,79997,5
35460,79985,5
35446,79981,5
35442,79964,5
35448,79974,4
35443,79956,5
35442,79951,5
35434,79923,5
35432,79942,5
35435,79941,4
35436,79938,5
35435,79917,5
35433,79938,5
35426,79933,5
35431,79930,4
35427,79921,5
35429,79923,5
35420,79922,5
35416,79915,4
35418,79920,5
35414,79892,5
35412,79871,5
35400,79873,5
35402,79900,4
35396,79845,5
35385,79836,5
35383,79829,5
35375,79839,5
35378,79804,4
35370,79792,5
35359,79756,5
35339,79699,5
35300,79611,5
35258,79498,4
35198,79383,5
35151,79264,5
35114,79178,5
35078,79111,4
35063,79073,5
35055,79047,4
35059,79057,5
35053,79069,5
35074,79093,4
35086,79123,5
35100,79178,5
35124,79232,5
35142,79286,5
35178,79352,4
35200,79421,5
35234,79492,5
35258,79552,5
35274,79587,5
35291,79611,4
35298,79617,5
35290,79600,5
35262,79523,5
35208,79378,5
35146,79251,4
35124,79218,5
35117,79186,5
35086,79141,5
35076,79106,4
35074,79092,5
35061,79086,6
35070,79091,4
35063,79089,5
35065,79089,4
35063,79107,5
35074,79116,5
35081,79127,5
35091,79143,5
35087,79168,4
35089,79173,5
35102,79196,5
35110,79213,5
35108,79197,5
35115,79207,4
35112,79208,5
35110,79208,5
35115,79199,5
35107,79201,5
35105,79189,4
35107,79186,5
35116,79180,5
35102,79179,5
35101,79168,4
35084,79164,5
35095,79166,5
35086,79151,5
35084,79149,5
35093,79157,4
35098,79177,5
35100,79183,5
35096,79174,5
35096,79156,5
35092,79152,4
35082,79144,5
35081,79146,5
35097,79152,5
35092,79148,5
35094,79142,4
35086,79156,5
35087,79133,5
35088,79138,5
35076,79126,4
35076,79126,4
35083,79133,5
35079,79137,5
35084,79144,5
35094,79144,5
35087,79145,4
35099,79151,5
35088,79157,5
35093,79165,5
35107,79178,4
35110,79196,5
35100,79215,5
35121,79218,5
35129,79237,5
35130,79257,4
35116,79258,5
35137,79265,5
35143,79276,5
35150,79283,5
35146,79282,4
35144,79284,5
35146,79295,5
35147,79289,5
35175,79291,4
35153,79300,4
35157,79291,5
35160,79283,5
35182,79285,5
35150,79287,4
35149,79281,6
35140,79275,4
35163,79260,5
35138,79259,5
35140,79262,4
35136,79256,5
35134,79252,5
35136,79241,5
35124,79246,5
35141,79247,4
35134,79236,5
35125,79239,5
35130,79242,5
35132,79229,5
35112,79197,4
35105,79196,5
35107,79162,5
35079,79113,5
35058,79050,4
35036,79024,5
35020,78976,4
35012,78941,5
34997,78930,5
34992,78923,4
34994,78925,5
34991,78924,5
34996,78966,5
35008,78950,5
35018,78980,4
35035,79005,5
35038,79068,5
35055,79070,5
35067,79087,5
35071,79102,4
35081,79128,5
35079,79125,5
35077,79127,5
35079,79118,5
35080,79104,4
35074,79106,5
35063,79083,5
35059,79043,5
35009,78944,4
34955,78801,4
34913,78725,5
34903,78701,5
34902,78699,5
34890,78679,3
34887,78674,5
34883,78683,5
34892,78692,5
34893,78704,5
34900,78707,4
34903,78723,5
34903,78739,5
34912,78754,5
34924,78768,5
34933,78804,4
34936,78815,5
34956,78838,5
34961,78849,5
34963,78861,5
34966,78870,4
34961,78864,5
34962,78854,5
34965,78850,5
34962,78844,4
34950,78834,6
34940,78829,4
34947,78809,5
34947,78809,5
34926,78797,6
34925,78782,3
34932,78774,5
34930,78784,5
34930,78796,5
34933,78808,4
34932,78797,5
34922,78783,5
34920,78773,5
34912,78747,5
34908,78752,4
34913,78742,5
34906,78740,5
34911,78728,5
34911,78714,4
34899,78715,4
34895,78701,5
34894,78694,5
34888,78694,5
34898,78696,4
34898,78685,5
34889,78686,6
34897,78699,4
34893,78706,5
34894,78720,4
34900,78724,5
34906,78735,5
34906,78743,5
34914,78756,5
34931,78771,4
34925,78781,5
34928,78792,5
34931,78803,5
34947,78809,5
34937,78812,4
34948,78815,5
34953,78826,5
34939,78820,5
34943,78820,4
34946,78829,4
34947,78829,5
34939,78833,5
34953,78819,5
34935,78817,4
34944,78815,5
34938,78818,5
34938,78808,6
34940,78795,4
34919,78793,4
34929,78792,5
34933,78789,5
34920,78778,5
34900,78773,5
34922,78770,4
34916,78754,5
34918,78750,5
34888,78757,5
34904,78745,5
34915,78726,4
34896,78716,5
34897,78717,5
34890,78704,5
34893,78692,4
34878,78679,5
34899,78671,5
34873,78645,5
34862,78636,5
34848,78619,5
34875,78600,4
34845,78575,5
34833,78559,5
34819,78531,6
34816,78491,3
34782,78434,5
34759,78376,5
34725,78306,5
34692,78230,5
34672,78182,4
34639,78106,5
34617,78042,5
34596,77980,5
34579,77959,5
34564,77944,4
34558,77923,5
34563,77911,5
34565,77946,5
34570,77974,4
34591,77995,5
34593,78005,5
34605,78056,5
34624,78085,5
34623,78106,4
34642,78142,6
34648,78130,4
34651,78131,5
34646,78139,5
34643,78165,4
34643,78131,5
34635,78100,5
34606,78032,5
34571,77964,5
34544,77889,4
34546,77893,5
34553,77918,5
34557,77921,5
34553,77929,4
34562,77967,4
34580,77994,5
34599,78043,5
34622,78075,5
34634,78121,4
34658,78164,5
34675,78222,5
34701,78273,5
34725,78328,5
34747,78373,4
34767,78412,5
34779,78444,6
34793,78476,4
34800,78504,5
34821,78541,4
34831,78569,5
34835,78584,5
34841,78600,5
34857,78628,5
34875,78643,4
34881,78660,5
34878,78677,5
34899,78683,5
34893,78700,4
34898,78715,4
34908,78729,5
34924,78751,5
34937,78807,5
34960,78846,4
34962,78846,5
34955,78834,5
34950,78838,5
34958,78841,5
34958,78842,4
34946,78840,5
34963,78841,5
34961,78842,6
34953,78834,4
34960,78845,4
34966,78858,5
34958,78860,5
34976,78862,5
34973,78882,5
34978,78899,4
34993,78925,5
35001,78954,5
35014,78991,5
35035,79026,4
35048,79074,4
35067,79121,5
35092,79160,5
35118,79216,5
35140,79268,4
35154,79310,5
35178,79360,5
35195,79396,5
35213,79438,5
35233,79470,5
35235,79498,4
35256,79522,5
35266,79536,5
35263,79551,5
35263,79555,4
35277,79568,5
35277,79570,5
35277,79576,5
35275,79591,5
35289,79591,4
35278,79585,5
35284,79596,5
35284,79601,5
35290,79590,4
35280,79593,4
35282,79582,5
35277,79556,5
35268,79534,5
35257,79499,4
35245,79474,5
35225,79444,5
35214,79427,5
35205,79407,5
35204,79410,4
35205,79413,6
35193,79427,4
35213,79445,5
35238,79462,5
35240,79513,4
35247,79548,5
35288,79603,5
35311,79646,5
35318,79665,5
35305,79695,4
35335,79713,5
35349,79713,5
35336,79705,5
35347,79699,8
35327,79682,1
35318,79669,5
35314,79653,5
35313,79618,5
35250,79476,4
35202,79358,5
35173,79346,5
35209,79349,5
35178,79355,5
35191,79357,4
35192,79375,5
35207,79398,6
35210,79419,4
35225,79452,5
35238,79492,4
35257,79521,5
35273,79575,5
35302,79629,5
35316,79682,5
35337,79704,4
35355,79774,5
35369,79821,5
35386,79853,5
35418,79862,4
35416,79900,5
35428,79924,5
35431,79925,5
35438,79933,5
35436,79941,4
35437,79938,5
35437,79941,5
35433,79967,5
35439,79945,6
35442,79941,3
35446,79950,5
35446,79992,5
35457,79987,5
35471,80002,5
35467,79992,4
35462,80000,5
35462,79974,5
35444,79967,5
35442,79962,4
35442,79963,4
35449,79965,5
35453,79959,5
35447,79963,5
35450,79953,4
35445,79955,5
35445,79943,5
35432,79943,5
35439,79949,5
35451,79954,4
35451,79975,5
35461,79988,5
35474,80021,5
35487,80056,5
35502,80099,5
35529,80158,4
35552,80209,5
35578,80282,5
35606,80337,5
35629,80382,4
35647,80444,5
35674,80499,5
35697,80542,5
35714,80569,4
35718,80600,4
35739,80638,5
35744,80645,5
35753,80668,5
35761,80679,4
35758,80674,5
35762,80665,5
35748,80646,5
35735,80606,5
35719,80562,4
35698,80518,5
35671,80469,5
35654,80433,5
35648,80406,5
35645,80400,4
35636,80399,6
35642,80402,4
35649,80430,5
35664,80459,5
35676,80502,4
35704,80553,5
35720,80594,5
35749,80656,5
35768,80711,4
35784,80745,4
35798,80779,5
35819,80808,5
35832,80831,5
35834,80836,4
35824,80823,5
35812,80785,5
35786,80713,5
35723,80572,5
35680,80452,4
35651,80425,5
35645,80400,5
35636,80378,5
35631,80373,5
35632,80378,4
35626,80395,5
35636,80409,5
35640,80436,5
35656,80466,5
35674,80498,4
35693,80538,5
35716,80584,5
35736,80637,5
35758,80678,4
35782,80723,5
35802,80768,5
35813,80815,5
35829,80856,5
35850,80892,4
35868,80924,5
35865,80935,5
35882,80957,5
35876,80961,5
35878,80966,4
35889,80970,4
35882,80970,5
35886,80957,5
35865,80958,5
35876,80969,3
35887,80979,5
35902,81003,5
35879,81017,5
35905,81009,5
35906,80994,4
35905,80991,5
35896,80986,5
35898,80980,5
35887,80976,4
35888,80972,5
35915,80976,5
35896,80973,5
35890,80975,5
35881,80949,4
35906,80932,5
35875,80933,5
35861,80913,5
35855,80916,5
35889,80931,4
35874,80940,6
35875,80975,4
35892,80998,5
35922,81041,5
35936,81082,6
35955,81137,3
35979,81183,5
36006,81245,5
36040,81319,4
36071,81392,4
36101,81476,5
36135,81524,5
36172,81610,5
36186,81651,4
36202,81699,5
36224,81704,5
36241,81755,5
36248,81762,5
36245,81758,4
36231,81742,5
36217,81700,5
36189,81632,5
36162,81558,5
36131,81509,4
36095,81413,5
36061,81368,6
36056,81330,4
36051,81341,5
36047,81316,4
36043,81331,5
36062,81355,5
36071,81419,5
36096,81446,4
36125,81502,4
36141,81572,5
36178,81635,5
36209,81715,5
36245,81804,4
36290,81892,5
36314,81947,5
36338,81983,5
36338,81978,5
36311,81891,4
36250,81763,5
36207,81691,5
36196,81650,5
36186,81623,5
36170,81604,4
36156,81587,5
36155,81584,5
36154,81576,6
36154,81587,4
36161,81580,4
36154,81588,5
36164,81601,5
36172,81619,5
36183,81643,4
36194,81677,4
36211,81699,5
36225,81739,5
36238,81775,5
36261,81810,4
36281,81846,5
36293,81891,5
36310,81929,5
36330,81954,5
36337,81979,4
36349,81996,5
36358,82026,5
36362,82044,5
36374,82059,5
36380,82087,5
36391,82090,4
36396,82097,5
36404,82124,5
36415,82176,6
36447,82231,3
36455,82244,5
36443,82241,5
36450,82227,5
36456,82240,4
36451,82250,4
36452,82246,5
36446,82235,5
36451,82228,5
36442,82222,4
36439,82207,5
36424,82185,5
36426,82162,5
36399,82129,5
36388,82090,4
36373,82068,5
36369,82037,5
36356,82034,5
36363,82044,5
36362,82044,4
36360,82050,6
36369,82048,4
36365,82050,5
36370,82069,5
36379,82079,4
36381,82094,5
36391,82105,5
36392,82116,5
36404,82134,4
36417,82150,4
36406,82157,5
36422,82165,5
36422,82173,5
36423,82168,4
36421,82166,5
36412,82156,5
36401,82124,5
36383,82090,5
36364,82026,4
36333,81960,5
36297,81896,5
36273,81821,5
36235,81742,5
36210,81677,4
36155,81621,5
36153,81582,6
36147,81557,4
36139,81556,5
36122,81557,4
36151,81572,5
36156,81579,5
36154,81610,5
36185,81646,4
36183,81670,4
36198,81695,5
36213,81727,5
36250,81755,5
36237,81763,4
36226,81725,5
36180,81614,5
36140,81451,5
36057,81340,5
36021,81269,4
35992,81186,5
35966,81133,5
35937,81081,5
35918,81048,5
35906,81005,4
35881,80950,5
35855,80929,5
35847,80882,6
35835,80861,4
35822,80844,4
35817,80841,5
35816,80829,5
35816,80834,5
35816,80799,4
35807,80824,4
35802,80818,5
35804,80807,5
35800,80779,5
35795,80797,5
35796,80796,4
35796,80791,5
35794,80791,5
35797,80779,5
35793,80773,4
35782,80765,5
35788,80774,5
35776,80747,5
35773,80726,5
35766,80729,5
35777,80761,4
35765,80741,5
35769,80727,5
35766,80714,5
35753,80703,4
35746,80686,5
35751,80680,5
35742,80671,5
35743,80649,4
35735,80642,4
35734,80628,5
35724,80603,5
35717,80588,5
35700,80562,4
35702,80539,5
35676,80500,5
35664,80472,5
35651,80459,5
35646,80434,4
35637,80427,5
35638,80424,5
35640,80417,5
35640,80417,5
35637,80428,4
35635,80423,6
35638,80434,4
35649,80434,5
35649,80449,5
35649,80455,4
35651,80473,5
35657,80484,5
35654,80481,5
35666,80490,4
35674,80495,4
35666,80505,5
35672,80502,5
35675,80501,5
35673,80505,4
35677,80503,5
35675,80506,5
35678,80507,5
35665,80500,5
35677,80505,4
35678,80496,5
35665,80494,5
35669,80491,5
35661,80482,5
35657,80480,4
35653,80451,5
35647,80452,6
35643,80437,4
35641,80426,5
35639,80412,4
35636,80402,5
35627,80393,5
35627,80384,5
35623,80376,4
35614,80361,4
35615,80351,5
35613,80361,5
35605,80359,5
35600,80357,4
35595,80348,5
35606,80346,5
35609,80335,5
35601,80335,5
35600,80337,4
35607,80334,5
35604,80350,5
35599,80339,5
35607,80331,5
35594,80345,4
35613,80336,5
35609,80342,5
35601,80348,5
35605,80342,5
35601,80345,4
35603,80338,5
35599,80330,5
35601,80340,5
35599,80329,4
35599,80328,4
35601,80329,5
35597,80322,5
35601,80319,5
35583,80309,4
35599,80308,5
35581,80305,5
35583,80299,5
35570,80297,5
35581,80288,4
35581,80280,5
35579,80272,5
35554,80250,5
35554,80225,5
35527,80155,5
35492,80049,4
35395,79895,5
35348,79733,5
35282,79574,5
35234,79476,6
35201,79403,3
35186,79371,5
35181,79346,5
35176,79350,4
35204,79374,5
35198,79401,5
35207,79436,5
35229,79481,5
35272,79535,4
35277,79593,5
35290,79665,5
35338,79748,5
35377,79820,5
35400,79878,4
35422,79925,5
35436,79951,5
35437,79941,5
35401,79853,5
35338,79691,4
35265,79533,6
35238,79462,4
35218,79439,5
35198,79398,5
35170,79358,4
35168,79317,5
35161,79318,5
35154,79311,5
35161,79304,4
35142,79271,4
35151,79299,5
35159,79312,5
35155,79323,5
35165,79344,4
35168,79359,5
35180,79365,5
35184,79382,5
35179,79409,5
35188,79384,4
35190,79388,5
35189,79392,5
35189,79429,5
35193,79400,5
35191,79403,4
35189,79405,5
35195,79406,5
35193,79403,5
35181,79391,5
35188,79393,4
35177,79384,5
35175,79370,5
35176,79373,5
35178,79357,4
35174,79355,5
35176,79367,5
35175,79368,5
35172,79370,5
35173,79354,4
35177,79357,5
35171,79344,5
35175,79358,5
35166,79344,5
35167,79349,4
35160,79340,5
35168,79343,5
35166,79338,5
35164,79332,5
35163,79331,3
35156,79317,5
35155,79323,5
35152,79319,5
35158,79321,5
35157,79314,4
35158,79328,5
35160,79316,5
35160,79336,5
35164,79338,4
35180,79349,5
35179,79362,5
35180,79374,5
35184,79391,5
35189,79403,4
35206,79412,5
35205,79430,5
35212,79444,5
35216,79458,5
35219,79467,4
35216,79468,6
35225,79471,4
35224,79475,5
35225,79478,5
35216,79478,6
35222,79468,3
35224,79479,5
35227,79467,5
35220,79461,5
35216,79459,4
35217,79444,5
35216,79453,5
35213,79440,5
35210,79431,4
35209,79435,4
35205,79425,5
35196,79432,5
35195,79421,5
35197,79417,4
35198,79404,5
35186,79406,5
35200,79409,5
35190,79400,5
35194,79398,4
35188,79407,5
35186,79393,6
35194,79405,4
35197,79400,5
35195,79401,4
35196,79401,5
35187,79399,5
35192,79392,5
35197,79390,5
35197,79389,4
35195,79392,5
35181,79388,5
35194,79393,5
35179,79381,4
35177,79374,5
35181,79350,5
35158,79304,5
35136,79257,5
35118,79175,4
35070,79098,5
35041,79026,5
35010,78963,5
34996,78924,5
34967,78902,4
34976,78903,5
34977,78914,5
34978,78921,6
34976,78939,4
35006,78971,4
35026,79023,5
35036,79063,5
35058,79104,5
35087,79143,5
35105,79192,4
35124,79239,5
35163,79261,5
35129,79273,5
35142,79273,4
35140,79270,5
35154,79243,5
35106,79180,5
35059,79040,5
34989,78898,4
34966,78853,5
34951,78836,5
34941,78799,5
34921,78786,5
34920,78772,5
34919,78771,4
34918,78767,5
34919,78766,5
34917,78750,6
34917,78777,3
34923,78779,5
34932,78796,5
34932,78779,5
34934,78822,5
34944,78846,4
34948,78858,5
34959,78850,5
34963,78873,5
34955,78886,4
34971,78894,5
34971,78897,5
34958,78886,5
34962,78892,5
34971,78887,4
34964,78913,5
34959,78869,5
34963,78871,5
34950,78866,5
34955,78872,4
34942,78840,6
34942,78834,4
34946,78835,5
34955,78861,5
34950,78860,4
34956,78852,5
34947,78838,5
34940,78833,5
34930,78822,5
34935,78822,4
34936,78819,5
34932,78813,5
34931,78798,5
34922,78798,4
34928,78788,5
34916,78785,5
34919,78777,5
34919,78772,5
34910,78771,4
34918,78781,5
34922,78778,5
34914,78780,5
34926,78777,5
34940,78799,4
34922,78809,5
34938,78817,6
34938,78819,4
34943,78836,5
34951,78842,4
34951,78864,5
34964,78879,5
34961,78887,5
34977,78906,5
34971,78908,4
34981,78904,5
34966,78911,5
34969,78904,5
34974,78915,4
34977,78909,5
34974,78904,5
34968,78914,5
34974,78905,5
34966,78900,4
34976,78897,5
34961,78895,5
34974,78901,5
34966,78881,5
34962,78884,4
34960,78867,5
34950,78868,5
34942,78859,6
34952,78831,4
34937,78823,4
34938,78813,5
34925,78808,5
34916,78787,5
34908,78771,5
34910,78763,4
34907,78744,5
34905,78736,5
34897,78735,5
34891,78715,4
34896,78708,5
34890,78718,5
34894,78702,5
34881,78706,5
34883,78705,4
34883,78698,5
34875,78689,5
34881,78687,5
34877,78672,5
34862,78641,5
34851,78603,4
34823,78554,5
34816,78520,5
34787,78467,5
34772,78423,4
34753,78393,5
34746,78373,5
34747,78367,5
34749,78364,5
34746,78373,4
34760,78396,5
34774,78435,5
34786,78465,5
34809,78529,4
34831,78583,5
34842,78619,5
34865,78667,5
34893,78707,5
34907,78751,4
34918,78781,5
34908,78782,5
34931,78802,5
34935,78811,5
34932,78808,4
34901,78780,6
34900,78701,4
34854,78594,5
34823,78540,5
34826,78553,4
34820,78554,5
34823,78554,5
34825,78564,5
34857,78580,5
34847,78611,4
34847,78625,5
34862,78636,5
34894,78673,5
34887,78709,4
34898,78741,4
34922,78794,5
34954,78838,5
34948,78877,5
34975,78919,4
34985,78948,5
35003,78968,5
35008,78987,5
35017,79001,5
35021,79005,4
35014,78985,5
35019,78997,5
35008,78998,5
35017,78998,5
35016,78964,4
35015,78984,5
35011,78991,5
35005,78983,5
35006,78973,5
35012,78991,5
35019,79006,4
35024,79026,5
35030,79049,5
35033,79030,4
35021,79026,4
35029,79027,5
35029,79056,5
35033,79017,5
35023,79030,4
35027,79022,5
35031,79052,5
35029,79014,5
35036,79028,5
35039,79024,4
35040,79044,5
35036,79029,5
35041,79033,5
35032,79060,5
35047,79060,4
35056,79082,5
35064,79110,5
35080,79136,5
35084,79162,5
35104,79194,4
35113,79220,5
35134,79268,5
35145,79300,5
35156,79329,4
35170,79364,4
35184,79381,5
35204,79423,5
35197,79439,5
35214,79457,4
35223,79478,5
35232,79480,5
35235,79494,5
35236,79500,5
35236,79513,5
35235,79511,4
35247,79520,5
35239,79521,5
35248,79519,5
35247,79534,4
35242,79524,5
35240,79510,5
35245,79517,5
35253,79508,5
35238,79508,4
35241,79503,5
35235,79502,5
35238,79511,5
35239,79509,4
35244,79511,4
35248,79499,5
35241,79506,5
35241,79508,5
35234,79507,4
35244,79518,5
35240,79515,5
35236,79503,5
35232,79490,5
35221,79468,4
35206,79440,6
35192,79399,4
35192,79369,5
35169,79329,5
35155,79310,4
35149,79292,5
35140,79286,5
35151,79285,5
35155,79306,5
35162,79327,4
35174,79339,5
35190,79374,5
35201,79427,5
35227,79474,4
35249,79528,5
35266,79563,5
35279,79585,5
35287,79619,5
35305,79640,4
35298,79637,5
35300,79637,5
35306,79633,5
35295,79617,5
35289,79599,4
35259,79520,5
35216,79399,5
35173,79324,5
35153,79316,5
35167,79323,4
35166,79323,5
35167,79334,5
35172,79347,5
35180,79373,5
35189,79391,4
35210,79416,5
35216,79452,5
35234,79481,5
35234,79512,4
35261,79554,5
35276,79595,5
35293,79631,5
35291,79672,5
35348,79754,9
35348,79754,5
35357,79762,5
35354,79773,5
35359,79766,3
35362,79765,5
35356,79770,5
35362,79762,5
35377,79773,5
35360,79781,4
35369,79785,5
35367,79793,5
35410,79814,5
35383,79851,5
35391,79859,4
35387,79837,5
35395,79824,5
35383,79830,5
35377,79825,4
35378,79821,5
35376,79807,5
35396,79814,5
35374,79829,5
35380,79827,4
35383,79792,6
35371,79816,4
35385,79811,5
35381,79819,5
35379,79794,6
35385,79826,3
35391,79843,5
35401,79872,5
35416,79894,5
35427,79958,4
35450,80019,5
35473,80063,5
35497,80135,5
35524,80180,5
35554,80243,4
35582,80299,5
35610,80373,5
35628,80396,5
35639,80425,4
35664,80471,5
35682,80520,5
35689,80522,5
35696,80549,5
35699,80559,4
35712,80581,5
35721,80591,6
35719,80596,4
35725,80601,5
35722,80617,4
35723,80616,5
35726,80597,5
35722,80594,5
35708,80573,5
35695,80536,4
35670,80483,5
35650,80427,5
35626,80355,5
35602,80310,5
35583,80260,4
35562,80233,5
35558,80229,5
35558,80234,5
35568,80250,4
35577,80286,5
35601,80315,5
35611,80372,5
35645,80435,5
35675,80507,4
35718,80581,5
35739,80647,5
35760,80690,6
35766,80723,4
35781,80761,4
35789,80767,5
35787,80747,5
35786,80727,5
35760,80681,5
35722,80580,4
35664,80418,5
35601,80303,5
35582,80257,5
35577,80257,4
35572,80236,4
35560,80239,5
35564,80255,5
35582,80276,5
35590,80303,4
35603,80339,5
35612,80371,5
35630,80418,5
35658,80452,5
35671,80498,5
35695,80552,4
35705,80607,5
35729,80640,5
35749,80695,6
35764,80728,3
35784,80761,5
35795,80792,5
35806,80807,5
35814,80809,5
35818,80825,4
35823,80826,5
35824,80837,5
35814,80835,5
35815,80831,5
35817,80829,4
35812,80831,5
35816,80831,5
35824,80839,5
35838,80871,4
35862,80902,5
35853,80894,5
35848,80880,5
35847,80878,5
35837,80875,4
35842,80865,6
35839,80875,4
35840,80870,5
35835,80879,5
35836,80879,4
35838,80869,5
35832,80852,5
35829,80837,5
35826,80825,5
35815,80806,4
35815,80818,5
35817,80818,5
35819,80839,5
35821,80866,4
35846,80896,4
35865,80926,5
35879,80970,5
35873,81033,5
35927,81090,4
35958,81153,5
35980,81206,5
35986,81285,5
36039,81342,5
36066,81425,4
36115,81493,5
36137,81553,6
36155,81582,4
36172,81618,5
36180,81644,4
36219,81657,5
36197,81665,5
36187,81662,5
36188,81653,5
36204,81618,4
36162,81579,5
36127,81513,5
36099,81431,5
36074,81353,5
36030,81288,4
36005,81234,5
35988,81199,5
35973,81185,5
35977,81191,4
35979,81199,5
35992,81211,5
36005,81238,5
36018,81295,5
36036,81354,4
36067,81390,5
36081,81409,5
36108,81503,6
36135,81562,4
36167,81610,5
36174,81633,4
36182,81639,5
36168,81604,5
36129,81487,5
36060,81375,4
36038,81313,5
36025,81275,5
36008,81233,5
35987,81241,5
35990,81201,4
35976,81194,5
35980,81180,5
35975,81188,5
35965,81178,4
35965,81173,5
35973,81185,5
35986,81205,5
35983,81215,5
35995,81230,5
36008,81252,4
36005,81270,5
36020,81284,5
36026,81306,6
36037,81313,3
36040,81332,5
36041,81341,5
36045,81345,5
36043,81348,5
36049,81349,4
36051,81347,5
36047,81341,5
36047,81346,5
36042,81347,5
36042,81335,4
36039,81326,5
36045,81337,5
36047,81346,5
36053,81337,4
36032,81305,5
36011,81288,5
36017,81271,5
36001,81244,5
35992,81216,4
35975,81182,6
35969,81166,4
35950,81126,5
35939,81092,5
35918,81051,4
35895,80979,5
35864,80917,5
35829,80852,5
35804,80801,5
35786,80756,4
35779,80738,5
35763,80721,5
35769,80718,5
35767,80717,5
35766,80718,4
35768,80728,5
35768,80725,5
35770,80728,5
35780,80748,4
35777,80751,5
35785,80755,5
35788,80776,5
35792,80771,5
35791,80779,4
35800,80788,5
35794,80791,6
35784,80778,4
35793,80777,5
35791,80765,4
35786,80762,5
35775,80745,5
35776,80738,5
35771,80723,5
35769,80707,4
35760,80700,5
35747,80674,5
35733,80652,5
35720,80613,5
35699,80568,4
35670,80475,5
35618,80369,5
35562,80213,5
35485,80054,4
35433,79903,5
35376,79789,5
35333,79718,5
35318,79678,5
35310,79668,4
35307,79660,5
35321,79684,5
35325,79723,6
35357,79772,4
35365,79825,4
35380,79871,5
35416,79921,5
35434,79969,5
35463,80036,5
35484,80085,4
35490,80131,5
35518,80173,5
35533,80202,5
35547,80228,4
35528,80205,4
35520,80142,5
35457,79968,5
35390,79843,5
35334,79783,4
35344,79729,5
35313,79675,5
35296,79641,5
35286,79613,5
35272,79591,5
35257,79561,4
35245,79547,5
35271,79522,5
35236,79515,5
35241,79514,4
35235,79523,5
35272,79527,5
35242,79528,5
35245,79545,5
35253,79545,4
35270,79546,5
35263,79556,5
35257,79562,5
35247,79566,4
35262,79566,4
35261,79572,5
35263,79574,5
35262,79573,5
35276,79556,4
35264,79569,5
35264,79574,5
35264,79569,5
35267,79540,5
35260,79564,4
35265,79563,6
35265,79573,4
35261,79575,5
35267,79595,5
35259,79582,4
35268,79575,5
35260,79584,5
35257,79563,5
35265,79567,5
35260,79557,4
35262,79594,5
35259,79566,5
35260,79557,5
35254,79556,5
35260,79571,4
35251,79536,5
35251,79533,5
35251,79537,5
35259,79539,4
35243,79532,5
35246,79538,5
35251,79538,6
35257,79550,4
35257,79555,4
35258,79568,5
35262,79578,7
35278,79588,3
35279,79598,5
35285,79631,4
35290,79634,5
35304,79653,5
35305,79667,5
35307,79690,5
35314,79705,4
35321,79713,5
35321,79716,5
35332,79724,5
35334,79735,5
35336,79729,4
35337,79748,5
35336,79751,5
35335,79749,5
35336,79753,4
35341,79756,5
35349,79759,5
35348,79758,5
35336,79760,5
35351,79748,4
35347,79743,5
35335,79749,5
35335,79735,5
35333,79737,5
35334,79730,4
35327,79719,5
35316,79703,5
35311,79661,5
35299,79621,5
35268,79549,4
35225,79466,5
35188,79366,5
35149,79277,5
35115,79209,5
35091,79172,4
35094,79155,5
35087,79142,5
35085,79159,5
35097,79159,4
35103,79200,6
35121,79238,4
35134,79293,5
35158,79329,5
35176,79384,6
35201,79424,3
35235,79488,5
35252,79556,5
35267,79589,5
35280,79621,4
35297,79649,5
35316,79684,5
35320,79687,5
35313,79671,5
35288,79578,4
35213,79420,5
35151,79300,5
35137,79261,5
35124,79229,5
35104,79193,4
35094,79174,5
35088,79164,5
35088,79161,5
35090,79145,4
35080,79143,5
35074,79135,6
35074,79135,4
35088,79147,5
35085,79154,4
35085,79160,7
35093,79181,3
35098,79196,5
35114,79203,5
35112,79222,4
35113,79222,5
35122,79225,5
35105,79235,5
35123,79241,5
35123,79240,7
35119,79236,2
35118,79240,5
35129,79240,5
35131,79240,5
35120,79238,4
35091,79234,5
35117,79224,5
35119,79231,5
35119,79233,4
35124,79224,5
35120,79248,5
35128,79237,6
35129,79235,4
35140,79223,4
35108,79225,5
35114,79214,5
35112,79209,5
35135,79218,5
35112,79216,4
35116,79211,5
35112,79212,5
35116,79211,5
35110,79205,5
35107,79208,4
35114,79206,5
35109,79206,5
35102,79205,5
35113,79212,5
35112,79222,4
35118,79199,5
35118,79235,5
35115,79240,5
35116,79247,5
35137,79242,4
35145,79288,5
35146,79300,5
35156,79315,6
35169,79315,3
35167,79357,5
35177,79369,5
35181,79392,5
35197,79415,5
35198,79411,4
35186,79421,5
35208,79429,5
35201,79461,5
35204,79429,5
35200,79433,4
35213,79431,5
35205,79460,5
35202,79439,5
35202,79445,5
35208,79432,4
35203,79443,5
35205,79434,5
35206,79425,5
35202,79429,4
35208,79413,6
35201,79414,4
35195,79404,5
35201,79395,5
35198,79406,6
35184,79393,3
35189,79401,5
35188,79391,5
35187,79391,5
35187,79390,4
35183,79380,5
35187,79379,5
35187,79382,5
35182,79385,5
35187,79380,4
35178,79380,5
35184,79374,5
35182,79384,5
35187,79382,5
35185,79379,4
35186,79381,5
35183,79375,5
35176,79372,5
35183,79374,4
35180,79376,5
35180,79369,6
35181,79376,4
35181,79377,5
35177,79359,4
35179,79367,5
35180,79365,5
35182,79362,5
35167,79353,5
35172,79360,4
35168,79360,5
35180,79349,5
35170,79345,5
35173,79331,5
35161,79299,4
35130,79250,5
35114,79190,5
35075,79112,5
35037,79031,5
35005,78938,4
34978,78889,5
34956,78859,5
34955,78828,5
34961,78827,4
34955,78837,5
34965,78858,5
34964,78883,6
34987,78912,4
34991,78966,4
35017,79001,5
35039,79054,5
35064,79116,5
35096,79181,5
35118,79248,4
35136,79275,5
35147,79295,5
35145,79310,5
35150,79296,5
35133,79258,4
35094,79159,5
35023,78977,5
34969,78866,5
34948,78837,5
34951,78814,4
34933,78798,5
34919,78774,5
34919,78769,5
34922,78772,5
34913,78766,4
34929,78775,5
34915,78774,5
34923,78788,6
34917,78804,3
34935,78825,5
34935,78835,5
34954,78872,5
34960,78886,5
34962,78890,4
34970,78907,5
34976,78922,5
34977,78922,5
34966,78928,5
34987,78926,4
34986,78929,5
34980,78918,5
34957,78922,5
34984,78910,5
34972,78912,4
34972,78904,5
34968,78887,5
34968,78882,5
34960,78871,4
34958,78863,6
34982,78865,4
34965,78881,5
34968,78889,5
34959,78883,4
35002,78881,5
34955,78865,5
34961,78866,5
34954,78856,5
34974,78863,4
34951,78858,5
34948,78863,5
34955,78854,5
34948,78847,5
34955,78844,4
34947,78845,5
34950,78842,5
34944,78826,5
34953,78849,5
34949,78842,4
34959,78859,5
34952,78850,5
34959,78866,5
34964,78871,4
34967,78881,5
34969,78873,6
34975,78914,4
34979,78925,5
34990,78936,5
34997,78962,4
35000,78967,5
35005,78981,5
35013,79000,5
35013,79032,4
35012,79002,5
35016,79005,5
35020,79005,5
35016,79031,5
35018,79004,4
35015,79004,5
35016,79011,5
35013,79006,5
35017,79005,5
35009,79010,4
35010,79000,5
35017,79001,5
35010,78992,5
35006,78983,4
35008,78978,5
35008,78978,5
35007,78966,6
34999,78976,4
34995,78962,4
34998,78954,5
34998,78947,5
34994,78941,5
34978,78933,5
34979,78931,4
34987,78927,5
34985,78931,5
34972,78917,5
34985,78923,5
34979,78910,4
34977,78910,5
34981,78904,5
34966,78908,5
34974,78900,5
34976,78891,4
34966,78898,5
34969,78894,5
34970,78877,5
34967,78873,5
34963,78874,4
34956,78860,5
34948,78850,5
34945,78830,5
34928,78791,4
34908,78761,5
34886,78691,5
34864,78629,5
34836,78563,5
34806,78498,4
34786,78445,5
34764,78414,5
34752,78395,5
34742,78384,5
34750,78372,4
34748,78388,5
34757,78405,5
34768,78446,5
34788,78484,5
34804,78518,4
34825,78566,5
34847,78608,5
34857,78633,5
34865,78664,4
34879,78682,6
34880,78687,4
34877,78674,5
34876,78666,5
34872,78651,4
34857,78631,5
34838,78563,5
34788,78425,5
34722,78316,5
34711,78300,4
34711,78286,5
34704,78284,5
34705,78284,5
34711,78290,5
34707,78301,4
34722,78315,5
34732,78328,5
34724,78349,5
34740,78381,5
34757,78401,4
34774,78441,5
34782,78476,5
34803,78518,5
34815,78548,4
34828,78586,5
34845,78608,6
34850,78624,4
34859,78630,5
34857,78643,4
34861,78644,5
34852,78654,5
34864,78639,5
34856,78648,5
34865,78646,4
34841,78637,5
34867,78654,5
34865,78660,5
34874,78657,5
34838,78656,4
34872,78679,5
34881,78693,5
34903,78737,5
34913,78740,5
34904,78749,4
34907,78736,5
34892,78739,5
34922,78726,5
34909,78739,4
34901,78744,5
34907,78739,5
34934,78744,5
34913,78744,5
34910,78748,4
34916,78751,5
34927,78761,5
34906,78761,5
34917,78781,5
34929,78796,4
34939,78808,5
34934,78832,5
34952,78851,5
34957,78887,5
34976,78895,4
34986,78950,5
35004,78979,5
35028,79015,5
35043,79035,5
35059,79087,4
35070,79126,4
35085,79138,5
35101,79148,5
35109,79192,6
35101,79208,3
35107,79220,5
35120,79250,5
35119,79241,5
35121,79232,4
35126,79252,5
35122,79276,5
35139,79247,5
35124,79251,5
35129,79248,4
35135,79287,5
35139,79266,5
35134,79266,5
35142,79271,5
35138,79277,4
35139,79268,5
35143,79271,5
35140,79273,5
35134,79274,5
35137,79277,4
35136,79272,6
35138,79259,4
35131,79249,5
35137,79225,4
35106,79202,7
35102,79179,3
35088,79138,5
35084,79111,5
35058,79085,4
35064,79080,5
35055,79084,5
35057,79091,5
35056,79097,5
35066,79121,4
35080,79151,5
35093,79175,5
35112,79215,5
35139,79261,5
35148,79285,4
35158,79315,5
35161,79322,5
35166,79342,5
35172,79346,5
35167,79337,4
35161,79340,5
35165,79330,6
35158,79310,4
35140,79272,4
35115,79193,5
35069,79067,5
35036,79024,5
35042,79034,5
35037,79033,4
35038,79044,5
35038,79046,5
35053,79063,5
35066,79095,5
35068,79105,4
35080,79128,5
35085,79161,5
35102,79195,5
35119,79236,5
35136,79271,4
35143,79302,5
35159,79343,5
35174,79361,5
35181,79388,5
35198,79406,4
35200,79422,5
35209,79431,5
35210,79442,6
35215,79438,3
35212,79447,5
35212,79439,5
35217,79443,5
35214,79440,5
35216,79441,4
35207,79425,5
35215,79436,5
35219,79451,5
35214,79459,5
35231,79490,4
35240,79493,5
35233,79483,5
35228,79477,5
35224,79473,5
35225,79468,4
35227,79472,5
35227,79465,5
35231,79472,5
35218,79472,5
35220,79473,5
35218,79468,4
35213,79457,5
35212,79446,5
35213,79450,10
35216,79458,4
35224,79462,5
35235,79474,5
35224,79497,4
35245,79536,5
35263,79567,5
35284,79609,5
35281,79665,5
35332,79709,4
35352,79780,5
35366,79832,5
35378,79878,5
35425,79932,5
35444,79968,4
35451,80004,5
35476,80032,5
35485,80053,5
35489,80079,5
35502,80105,4
35527,80113,6
35513,80128,4
35519,80142,5
35516,80151,4
35543,80161,5
35526,80161,5
35531,80167,5
35529,80160,5
35546,80172,4
35531,80166,5
35530,80170,5
35535,80166,5
35533,80153,5
35519,80136,4
35512,80118,5
35496,80095,5
35485,80039,5
35480,80018,5
35462,79994,4
35450,79977,5
35446,79926,5
35439,79948,5
35437,79956,5
35444,79962,4
35453,79980,5
35464,80023,6
35484,80080,4
35520,80136,4
35542,80229,4
35572,80279,5
35590,80342,5
35625,80387,5
35634,80455,4
35661,80444,5
35655,80458,5
35658,80454,5
35652,80454,5
35632,80392,4
35592,80287,5
35530,80132,5
35488,80048,5
35474,80022,5
35461,80027,4
35472,80023,5
35476,80038,5
35473,80053,5
35488,80077,5
35501,80111,4
35523,80155,5
35533,80189,5
35550,80241,6
35580,80290,3
35603,80350,5
35629,80397,5
35654,80465,5
35680,80516,5
35701,80564,4
35721,80625,5
35739,80658,5
35758,80679,5
35760,80699,5
35767,80706,4
35767,80712,5
35766,80716,5
35774,80716,5
35771,80713,5
35771,80708,4
35768,80695,5
35763,80704,5
35772,80703,5
35772,80716,5
35778,80744,5
35791,80747,4
35789,80742,5
35786,80739,5
35783,80734,4
35775,80735,4
35779,80735,5
35782,80727,5
35787,80740,5
35788,80744,4
35787,80745,5
35776,80743,5
35773,80723,5
35767,80706,5
35756,80693,4
35752,80678,5
35758,80676,5
35759,80688,5
35762,80704,5
35763,80717,4
35771,80743,5
35792,80765,5
35802,80798,5
35816,80849,5
35848,80896,4
35856,80945,6
35895,80994,4
35919,81059,5
35939,81111,4
35965,81170,4
35984,81213,5
36010,81261,5
36019,81307,5
36048,81322,4
36044,81340,5
36051,81351,5
36063,81355,5
36039,81331,5
36029,81286,4
36006,81239,5
35979,81165,5
35954,81109,5
35935,81077,5
35924,81050,4
35919,81036,5
35914,81035,5
35924,81040,5
35923,81059,5
35922,81079,4
35944,81121,5
35964,81159,6
35981,81195,4
35995,81230,4
36012,81271,4
36009,81311,5
36044,81358,5
36077,81397,5
36079,81409,4
36057,81385,5
36047,81312,5
35977,81141,5
35921,81067,5
35885,81021,4
35906,81007,5
35883,80987,5
35875,80979,5
35876,80970,5
35883,80974,4
35874,80969,5
35881,80968,5
35906,80967,5
35882,80983,5
35887,80986,4
35891,81007,5
35935,81031,5
35913,81046,5
35916,81066,4
35926,81080,4
35947,81109,5
35943,81128,5
35958,81150,5
35965,81162,4
35965,81176,5
35975,81189,5
35982,81200,5
35984,81206,5
35988,81192,4
35976,81196,5
35974,81192,5
35973,81190,5
35977,81164,5
35979,81203,4
35979,81221,6
35986,81195,4
35976,81152,5
35967,81171,5
35964,81152,6
35952,81122,3
35936,81119,5
35934,81083,5
35923,81064,4
35911,81054,4
35910,81053,5
35897,81004,5
35874,80956,5
35855,80898,4
35825,80871,5
35808,80793,5
35786,80768,5
35781,80763,5
35782,80783,4
35791,80774,5
35793,80790,5
35797,80798,5
35803,80793,5
35805,80814,4
35812,80814,5
35817,80837,5
35820,80841,5
35825,80851,5
35840,80879,4
35832,80896,6
35844,80906,4
35853,80907,5
35847,80914,4
35853,80907,4
35851,80902,5
35838,80887,5
35834,80869,5
35807,80824,4
35792,80759,5
35755,80686,5
35731,80623,5
35699,80558,5
35676,80490,4
35654,80452,5
35640,80413,5
35619,80391,5
35629,80398,5
35620,80403,4
35628,80409,5
35638,80425,5
35641,80441,5
35644,80452,5
35657,80473,4
35659,80494,5
35687,80522,5
35694,80550,5
35696,80560,4
35694,80549,4
35677,80491,5
35629,80361,5
35564,80244,5
35541,80204,4
35530,80170,5
35503,80127,5
35490,80102,5
35495,80096,5
35485,80080,4
35483,80060,5
35468,80031,5
35455,80009,5
35448,79991,5
35441,79971,4
35431,79969,4
35435,79960,5
35438,79970,5
35432,79965,6
35435,79975,3
35438,79971,5
35437,79980,5
35439,79978,5
35442,79975,4
35444,79985,4
35444,79986,5
35448,79989,5
35449,79990,5
35445,79994,4
35445,79997,5
35446,79986,5
35446,79979,5
35432,79963,5
35435,79969,4
35437,79965,5
35439,79974,5
35440,79964,5
35428,79949,5
35419,79933,4
35422,79920,6
35403,79906,4
35411,79893,5
35387,79873,5
35389,79867,6
35388,79851,3
35376,79842,5
35370,79826,5
35370,79796,4
35364,79794,4
35346,79764,5
35314,79749,5
35337,79732,5
35327,79727,4
35332,79722,5
35304,79718,5
35333,79716,5
35338,79727,5
35334,79732,4
35334,79749,5
35345,79762,5
35353,79781,5
35354,79792,5
35392,79802,4
35364,79818,5
35381,79834,6
35385,79854,4
35421,79867,5
35392,79866,4
35395,79883,5
35403,79894,5
35416,79890,5
35398,79901,4
35405,79904,4
35411,79916,5
35422,79916,5
35411,79925,5
35413,79921,4
35414,79927,5
35413,79900,5
35423,79916,5
35411,79901,5
35409,79886,4
35383,79829,5
35369,79802,5
35333,79719,5
35294,79622,5
35257,79491,4
35216,79431,5
35183,79380,5
35176,79341,6
35166,79349,4
35169,79342,4
35177,79359,5
35180,79388,5
35194,79455,5
35210,79466,4
35239,79498,4
35248,79549,5
35271,79619,5
35300,79659,5
35319,79718,4
35340,79760,5
35353,79794,5
35366,79823,5
35381,79861,5
35400,79892,4
35401,79875,5
35371,79803,5
35319,79655,5
35248,79499,5
35213,79455,5
35204,79418,4
35195,79389,5
35179,79363,5
35171,79351,6
35172,79336,3
35158,79328,5
35152,79313,5
35148,79295,5
35145,79298,4
35148,79293,4
35148,79300,5
35148,79308,5
35147,79313,5
35160,79332,4
35168,79342,5
35167,79348,5
35161,79356,5
35170,79367,5
35179,79379,4
35178,79380,5
35181,79378,5
35188,79389,5
35188,79396,5
35183,79388,4
35182,79392,6
35181,79393,4
35184,79399,5
35181,79403,5
35184,79392,4
35186,79398,5
35187,79398,5
35194,79414,5
35202,79423,5
35190,79403,4
35181,79397,5
35184,79391,5
35191,79396,5
35188,79400,4
35196,79410,5
35200,79417,5
35191,79416,5
35202,79415,5
35196,79404,4
35186,79409,5
35196,79400,5
35190,79402,5
35188,79410,5
35201,79418,4
35191,79422,5
35207,79425,6
35204,79435,4
35207,79429,5
35214,79438,4
35214,79441,5
35214,79465,5
35223,79489,5
35229,79496,5
35242,79521,4
35245,79535,5
35255,79561,5
35268,79577,5
35274,79587,4
35278,79604,5
35282,79611,5
35292,79620,5
35297,79628,5
35304,79622,8
35301,79618,1
35294,79625,5
35295,79604,5
35285,79636,5
35293,79634,4
35293,79628,5
35291,79626,5
35283,79626,6
35283,79608,4
35261,79576,4
35268,79548,5
35235,79498,5
35210,79425,5
35157,79337,5
35137,79260,4
35105,79183,5
35082,79143,5
35045,79110,5
35058,79104,4
35066,79109,5
35074,79134,5
35085,79159,5
35097,79201,5
35104,79216,4
35120,79254,5
35161,79294,5
35154,79328,5
35176,79351,5
35180,79398,5
35233,79428,4
35212,79437,5
35212,79451,5
35221,79476,5
35240,79491,4
35230,79490,5
35215,79440,5
35166,79319,5
35106,79158,5
35053,79054,4
35024,79011,5
35017,78987,5
34994,78955,5
34993,78955,4
34988,78943,5
34993,78931,5
34993,78911,5
34989,78915,5
34986,78922,5
34981,78926,4
34988,78915,5
34992,78943,5
34996,78958,5
34999,78964,4
35002,78993,6
35016,78985,4
35011,79004,5
35017,79010,5
35020,79039,4
35019,79014,5
35020,79010,5
35025,79010,5
35037,79050,5
35018,79018,4
35023,79017,5
35014,79015,5
35018,79023,5
35019,79004,4
35013,78998,5
35019,78992,5
35015,79007,5
35017,79014,5
35023,79016,4
35019,78997,5
35019,78992,5
35011,78993,5
35012,78988,5
35016,79001,4
35016,78988,5
35013,78992,6
35011,78994,4
35014,78991,5
35015,78992,4
35009,78989,5
35007,78985,5
35002,78979,5
35008,78985,5
35008,78992,4
35013,78989,5
35010,79001,5
35004,78991,5
35019,79008,4
35019,79013,5
35019,79023,5
35025,79033,5
35038,79047,5
35040,79062,4
35042,79078,5
35058,79112,5
35064,79119,5
35064,79146,5
35083,79151,4
35085,79157,5
35084,79171,5
35087,79162,5
35087,79166,5
35084,79176,4
35095,79167,5
35098,79174,5
35090,79181,5
35098,79163,5
35095,79174,4
35089,79166,5
35086,79169,5
35093,79171,5
35093,79165,4
35087,79162,5
35082,79154,5
35091,79159,5
35085,79157,5
35087,79148,4
35073,79155,5
35081,79135,5
35071,79142,5
35081,79142,5
35075,79141,5
35074,79128,4
35069,79140,5
35078,79146,5
35079,79127,5
35077,79131,4
35082,79131,5
35075,79136,5
35066,79128,5
35073,79133,5
35069,79126,4
35075,79131,5
35065,79118,5
35060,79105,5
35051,79070,4
35032,79030,5
35013,78967,5
34982,78894,5
34950,78828,5
34919,78781,4
34902,78737,5
34894,78713,5
34889,78709,5
34895,78719,5
34897,78733,4
34907,78759,6
34914,78799,4
34944,78839,5
34961,78878,5
34978,78928,4
34978,78977,5
35017,79024,5
35043,79068,5
35060,79103,5
35044,79119,4
35064,79120,5
35073,79129,5
35069,79113,5
35055,79067,4
35000,78946,5
34933,78773,5
34886,78670,5
34890,78643,5
34854,78629,4
34845,78613,5
34842,78605,5
34869,78596,5
34846,78603,5
34837,78596,4
34834,78601,5
34851,78604,5
34839,78609,5
34855,78623,5
34848,78647,4
34870,78664,5
34864,78677,5
34879,78688,5
34886,78701,5
34877,78687,4
34889,78721,5
34886,78720,5
34903,78722,5
34894,78698,4
34884,78723,5
34888,78722,5
34890,78714,5
34894,78692,5
34881,78710,4
34886,78699,6
34880,78686,4
34877,78689,5
34875,78681,5
34873,78674,3
34876,78690,5
34872,78709,5
34876,78673,5
34863,78658,5
34867,78650,4
34863,78673,5
34855,78645,5
34846,78636,5
34855,78639,5
34849,78643,4
34859,78620,5
34842,78616,5
34844,78603,5
34845,78607,4
34843,78603,5
34835,78601,5
34844,78613,5
34843,78607,5
34847,78625,4
34848,78630,6
34857,78638,4
34850,78646,5
34864,78657,5
34863,78670,6
34874,78691,3
34874,78703,5
34888,78714,5
34890,78729,5
34899,78746,4
34908,78757,5
34905,78775,5
34901,78761,5
34916,78773,5
34926,78773,4
34918,78772,5
34918,78769,5
34915,78774,5
34919,78778,4
34918,78772,5
34918,78773,5
34917,78782,5
34914,78773,5
34915,78767,4
34915,78770,5
34914,78763,6
34914,78762,4
34913,78759,5
34901,78753,4
34909,78748,5
34903,78749,5
34894,78732,5
34896,78735,5
34893,78730,4
34893,78727,5
34895,78721,5
34889,78729,5
34892,78736,5
34893,78732,4
34888,78731,5
34899,78734,5
34890,78723,5
34893,78728,4
34895,78728,5
34885,78729,5
34898,78737,5
34889,78730,5
34902,78735,4
34901,78734,5
34905,78746,5
34909,78752,6
34910,78761,4
34912,78748,4
34900,78749,5
34908,78739,5
34901,78730,5
34882,78706,5
34882,78684,4
34855,78653,5
34858,78626,5
34843,78615,5
34843,78610,4
34853,78622,4
34860,78638,5
34862,78666,5
34885,78697,5
34895,78739,4
34907,78788,5
34941,78843,5
34968,78885,5
34983,78934,5
35004,78970,5
35016,78997,4
35022,79038,5
35037,79049,5
35028,79044,6
35038,79036,3
35035,79041,5
35025,79017,5
34974,78937,5
34949,78807,5
34890,78682,4
34864,78643,5
34846,78657,5
34873,78658,5
34873,78652,4
34868,78670,4
34883,78685,5
34884,78706,5
34890,78705,5
34898,78732,4
34933,78742,5
34920,78771,5
34922,78814,5
34944,78829,5
34974,78870,4
34965,78901,6
34979,78927,4
34991,78938,5
35010,78965,5
35000,78971,4
35010,78978,5
35003,78987,5
35008,78981,5
35014,78979,5
35006,78980,4
35002,78979,5
35004,78956,5
35009,78970,5
34995,78960,5
34996,78966,4
35004,78932,5
35007,78985,5
35011,78990,5
35030,78996,4
35013,78976,5
35007,78970,5
35007,78977,5
35005,78974,5
35005,78993,4
34997,78985,5
35006,78984,6
35019,78989,4
35015,79015,5
35016,78992,4
35016,78990,5
35007,78997,5
35017,79017,5
35029,79012,5
35031,79033,4
35034,79056,5
35043,79085,5
35060,79113,5
35076,79145,4
35092,79175,4
35108,79216,5
35121,79252,5
35145,79302,5
35164,79336,4
35175,79379,5
35198,79407,5
35206,79431,5
35215,79465,5
35231,79481,4
35239,79512,5
35243,79535,5
35252,79544,6
35263,79556,4
35257,79567,4
35262,79575,5
35274,79578,5
35265,79591,5
35265,79583,5
35273,79596,4
35271,79582,5
35272,79577,5
35270,79578,5
35267,79578,4
35263,79578,4
35263,79578,5
35261,79580,5
35270,79572,5
35268,79567,4
35268,79552,5
35265,79553,5
35255,79546,5
35250,79526,5
35243,79492,5
35230,79469,4
35224,79450,5
35210,79432,5
35197,79412,5
35193,79409,4
35192,79410,5
35196,79425,5
35212,79439,5
35228,79467,5
35230,79498,4
35240,79518,5
35261,79557,5
35273,79597,5
35290,79611,4
35288,79636,4
35296,79646,5
35302,79648,5
35307,79658,5
35302,79648,4
35295,79639,5
35301,79623,5
35276,79584,5
35242,79485,5
35189,79344,4
35143,79269,6
35141,79267,4
35140,79272,5
35146,79280,5
35143,79292,4
35150,79312,5
35155,79328,5
35173,79350,5
35178,79371,5
35182,79396,7
35205,79425,2
35221,79461,5
35244,79504,5
35245,79538,4
35256,79583,4
35274,79610,5
35292,79637,5
35304,79653,5
35303,79665,4
35311,79674,5
35314,79671,5
35315,79681,5
35310,79679,5
35308,79676,4
35294,79672,5
35310,79673,6
35308,79668,4
35306,79651,5
35286,79663,4
35311,79680,5
35315,79686,5
35324,79703,5
35295,79689,5
35318,79688,4
35313,79677,5
35303,79670,5
35326,79683,5
35309,79675,5
35313,79675,4
35311,79670,5
35333,79663,5
35302,79668,5
35303,79648,5
35293,79647,4
35330,79647,5
35303,79651,5
35310,79668,5
35318,79677,3
35326,79705,5
35337,79743,5
35352,79786,5
35374,79839,5
35394,79886,4
35418,79955,5
35457,80009,5
35481,80081,5
35506,80113,5
35533,80185,4
35555,80225,5
35571,80271,5
35596,80285,5
35603,80349,5
35621,80383,4
35630,80406,4
35645,80414,5
35655,80445,5
35657,80462,4
35671,80480,5
35675,80519,5
35678,80506,5
35678,80507,5
35679,80514,5
35681,80545,4
35684,80507,5
35668,80493,5
35664,80472,5
35646,80449,4
35629,80381,5
35611,80328,5
35589,80279,5
35567,80243,5
35558,80218,4
35548,80212,5
35553,80207,5
35558,80218,5
35568,80243,5
35574,80272,4
35591,80309,5
35606,80353,5
35625,80407,5
35651,80470,4
35678,80518,5
35712,80576,5
35717,80615,5
35741,80654,5
35749,80660,4
35754,80675,6
35748,80674,4
35738,80628,5
35704,80535,5
35640,80364,4
35572,80242,5
35556,80216,5
35545,80196,5
35546,80191,5
35545,80192,4
35541,80203,5
35549,80224,5
35560,80242,5
35573,80274,5
35586,80304,4
35604,80347,5
35624,80402,5
35651,80444,5
35667,80492,4
35680,80539,5
35710,80594,5
35733,80628,5
35740,80662,5
35750,80689,4
35764,80712,5
35772,80721,6
35776,80732,4
35780,80743,5
35789,80742,4
35778,80748,5
35783,80747,5
35784,80739,5
35776,80725,5
35778,80728,4
35782,80741,5
35790,80768,5
35791,80773,5
35784,80746,5
35782,80740,4
35772,80730,5
35767,80724,5
35772,80714,5
35764,80710,4
35754,80706,4
35754,80703,5
35766,80700,5
35756,80697,5
35754,80671,3
35747,80663,5
35743,80637,5
35726,80616,5
35731,80619,5
35727,80640,4
35744,80652,5
35752,80672,5
35763,80702,5
35775,80738,5
35780,80774,4
35808,80820,5
35832,80868,5
35853,80921,5
35883,80973,5
35905,81036,4
35923,81089,5
35945,81129,5
35968,81180,5
35993,81209,4
35994,81249,6
36011,81281,4
36005,81302,5
36041,81327,5
36047,81342,6
36066,81385,3
36046,81403,5
36080,81415,5
36088,81424,5
36088,81431,4
36065,81437,5
36084,81424,5
36085,81409,5
36070,81368,5
36058,81325,4
36026,81250,5
35975,81166,5
35947,81066,5
35924,80988,5
35870,80934,4
35846,80892,5
35842,80864,5
35867,80868,5
35840,80881,4
35842,80910,5
35862,80935,6
35882,80972,4
35907,81018,5
35916,81068,4
35934,81112,7
35961,81153,3
35989,81219,5
36005,81258,5
36029,81298,4
36026,81275,5
36016,81260,5
35957,81116,5
35881,80947,5
35823,80809,4
35799,80786,5
35782,80733,5
35753,80684,5
35740,80642,5
35731,80632,4
35721,80617,5
35718,80605,5
35717,80606,5
35709,80599,4
35717,80595,4
35718,80621,5
35733,80651,6
35740,80643,4
35728,80658,4
35744,80663,5
35750,80706,5
35760,80705,5
35763,80707,5
35759,80723,4
35766,80733,5
35766,80725,5
35770,80722,5
35766,80719,5
35760,80707,4
35757,80696,5
35753,80697,5
35752,80692,5
35748,80682,5
35748,80685,4
35755,80679,5
35757,80687,5
35762,80685,5
35738,80654,5
35721,80627,4
35721,80589,5
35706,80580,5
35698,80547,6
35678,80516,3
35673,80488,5
35666,80472,5
35648,80445,5
35642,80431,5
35627,80392,4
35610,80352,5
35586,80326,5
35580,80281,5
35569,80267,5
35564,80262,4
35567,80266,5
35566,80263,5
35566,80278,5
35564,80276,5
35577,80293,4
35580,80300,5
35581,80315,5
35593,80335,5
35600,80339,4
35603,80359,5
35613,80380,4
35624,80396,5
35627,80408,5
35626,80416,6
35637,80420,3
35633,80417,5
35634,80429,5
35635,80423,5
35633,80430,4
35633,80422,5
35635,80424,5
35629,80419,5
35622,80407,5
35611,80398,4
35614,80368,5
35589,80326,5
35571,80264,5
35536,80173,5
35489,80067,4
35445,79961,5
35408,79889,5
35385,79826,5
35355,79797,4
35350,79775,4
35362,79773,6
35362,79791,4
35362,79811,5
35384,79847,4
35390,79876,5
35418,79916,5
35425,79957,5
35438,79999,5
35464,80041,4
35483,80083,5
35498,80130,5
35512,80162,5
35532,80195,5
35532,80198,4
35512,80144,5
35465,80006,5
35404,79873,5
35374,79811,5
35357,79774,4
35343,79743,5
35329,79721,5
35325,79704,5
35297,79688,4
35300,79651,4
35292,79635,5
35282,79614,6
35252,79607,4
35271,79602,4
35279,79607,5
35278,79620,5
35259,79617,5
35281,79626,5
35286,79644,4
35296,79640,5
35301,79636,5
35289,79649,5
35305,79650,5
35305,79667,4
35330,79664,5
35306,79670,5
35314,79684,5
35307,79691,5
35335,79690,4
35319,79697,5
35316,79706,5
35321,79714,5
35335,79709,5
35331,79732,4
35336,79742,5
35336,79748,5
35347,79733,6
35327,79721,3
35325,79719,5
35326,79711,5
35314,79673,5
35321,79694,5
35320,79692,4
35319,79687,5
35310,79662,5
35309,79673,5
35307,79669,5
35309,79652,4
35296,79623,5
35285,79634,9
35292,79635,7
35279,79622,7
35301,79686,8
35301,79686,7
35304,79676,5
35318,79671,8
35321,79685,7
35333,79750,5
35375,79741,8
35347,79764,7
35361,79799,7
35361,79799,10
35330,79813,5
35364,79803,5
35376,79838,8
35376,79846,7
35363,79815,12
35371,79799,7
35367,79798,5
35360,79786,10
35365,79781,5
35351,79772,5
35334,79761,10
35346,79757,5
35344,79744,5
35324,79713,10
35330,79713,5
35326,79716,5
35324,79700,10
35326,79705,5
35324,79701,5
35351,79700,10
35315,79697,5
35310,79695,5
35316,79690,10
35316,79690,5
35320,79690,5
35329,79692,10
35319,79679,5
35311,79677,7
35299,79657,8
35297,79628,5
35129,79220,7
35129,79220,8
35092,79184,5
35060,79084,7
35050,79042,8
35038,79048,5
35049,79054,7
35124,79233,8
35124,79233,5
35138,79324,7
35170,79339,8
35196,79401,9
35270,79581,13
35265,79581,7
35281,79490,8
35182,79334,5
35111,79195,7
35079,79144,8
35084,79132,5
35044,79067,7
35044,79067,8
35046,79061,9
35039,79061,5
35045,79082,8
35061,79083,7
35067,79100,5
35104,79184,8
35104,79184,7
35077,79206,10
35090,79197,5
35110,79209,7
35126,79247,8
35126,79247,7
35144,79233,5
35134,79240,8
35121,79238,7
35116,79236,5
35145,79235,8
35119,79232,7
35131,79251,7
35131,79251,8
35126,79277,7
35135,79238,5
35123,79239,8
35126,79229,7
35127,79253,12
35125,79227,7
35089,79240,5
35111,79232,8
35113,79237,7
35124,79214,7
35130,79271,10
35130,79271,5
35132,79310,5
35150,79291,10
35147,79299,5
35168,79329,5
35165,79346,10
35190,79378,5
35187,79413,3
35190,79412,2
35203,79427,3
35214,79453,4
35219,79459,5
35212,79461,5
35222,79469,5
35224,79474,4
35225,79480,5
35226,79485,5
35229,79481,5
35232,79491,5
35227,79492,4
35241,79492,5
35229,79495,5
35237,79491,5
35232,79491,5
35234,79485,4
35219,79482,5
35228,79471,5
35217,79472,5
35225,79469,5
35215,79464,5
35213,79462,4
35226,79461,5
35218,79459,5
35216,79455,6
35213,79446,3
35214,79447,5
35208,79445,5
35210,79445,5
35214,79448,4
35209,79443,5
35202,79422,5
35198,79404,5
35185,79367,5
35162,79330,4
35142,79268,5
35125,79220,5
35111,79189,5
35092,79159,5
35075,79139,4
35077,79142,5
35079,79135,5
35080,79146,5
35100,79170,5
35104,79190,4
35103,79215,6
35124,79262,4
35144,79289,5
35156,79318,4
35162,79347,6
35177,79376,3
35197,79412,5
35195,79413,5
35210,79432,4
35194,79428,5
35199,79415,5
35200,79393,5
35173,79326,5
35110,79187,4
35046,79040,5
35020,78999,5
35018,78982,5
35004,78973,5
34998,78953,4
35001,78949,5
34992,78951,5
34990,78954,5
34998,78954,5
34991,78951,4
34990,78954,5
35000,78968,6
35011,78979,4
35030,79008,4
35029,79027,4
35037,79040,5
35042,79055,5
35050,79073,5
35045,79078,4
35056,79079,5
35056,79082,5
35056,79080,5
35052,79083,5
35051,79084,4
35048,79078,5
35051,79074,5
35044,79060,5
35037,79062,5
35039,79039,4
35030,79039,5
35030,79023,5
35031,79028,5
35014,79035,5
35045,79045,4
35036,79045,5
35028,79020,5
34997,78999,6
35017,78994,3
35012,78978,5
35010,78984,5
34986,78970,5
35001,78967,5
34993,78960,4
34993,78946,5
34994,78930,5
34983,78909,5
34972,78909,5
34976,78908,4
34992,78888,5
34972,78889,5
34963,78881,5
34963,78879,5
34983,78883,4
34960,78878,5
34962,78875,5
34962,78879,5
34969,78888,5
34966,78893,5
34968,78898,4
34977,78907,5
34984,78897,5
34989,78917,6
34993,78930,3
34980,78923,5
34986,78915,5
34975,78927,5
34981,78911,4
34971,78906,5
34968,78881,5
34969,78906,5
34978,78908,5
34966,78903,4
34971,78894,5
34966,78895,5
34967,78900,5
34963,78880,5
34963,78896,4
34954,78880,5
34958,78876,5
34950,78862,5
34945,78881,5
34946,78848,4
34944,78839,6
34943,78822,4
34935,78835,5
34927,78812,4
34926,78785,5
34922,78778,5
34918,78776,5
34908,78762,5
34913,78757,4
34903,78757,5
34901,78745,5
34901,78753,5
34901,78740,5
34896,78730,4
34896,78717,5
34877,78693,5
34874,78661,5
34842,78612,5
34831,78572,4
34811,78534,5
34805,78502,5
34801,78488,5
34798,78486,5
34791,78485,4
34793,78503,5
34798,78520,6
34811,78548,4
34830,78585,4
34856,78639,5
34868,78686,5
34912,78764,5
34932,78814,5
34951,78868,4
34978,78930,5
35005,78987,5
35014,79019,5
35029,79034,5
35033,79041,4
35028,79039,5
35009,78980,5
34974,78872,5
34932,78801,5
34923,78806,4
34941,78818,5
34943,78827,5
34947,78837,5
34954,78859,5
34955,78874,4
34963,78883,5
34983,78911,5
34980,78931,6
34990,78961,3
34999,78992,5
35024,79026,5
35037,79060,5
35063,79114,5
35082,79159,4
35104,79194,5
35111,79224,5
35123,79254,5
35136,79289,5
35148,79310,4
35159,79331,5
35167,79345,5
35170,79356,5
35181,79358,5
35175,79365,4
35171,79373,5
35172,79371,5
35177,79371,5
35184,79371,4
35177,79376,5
35181,79396,4
35202,79420,5
35206,79427,5
35206,79423,4
35199,79410,5
35202,79409,5
35194,79410,5
35193,79413,5
35193,79414,4
35196,79416,5
35197,79411,5
35203,79411,5
35198,79412,5
35194,79412,4
35203,79419,5
35199,79424,5
35196,79434,5
35199,79439,5
35212,79456,4
35202,79486,5
35230,79517,5
35252,79538,5
35271,79570,4
35262,79616,4
35293,79654,6
35317,79688,4
35331,79740,5
35342,79774,4
35369,79808,5
35382,79845,5
35395,79867,5
35430,79903,5
35419,79933,4
35429,79945,5
35440,79968,5
35480,79988,5
35456,79995,5
35458,80014,4
35461,80020,5
35501,80038,5
35464,80035,5
35484,80042,5
35479,80061,4
35490,80065,5
35479,80070,5
35484,80051,5
35473,80041,4
35477,80013,4
35465,79999,5
35445,79977,6
35428,79942,4
35420,79891,4
35404,79883,5
35392,79862,5
35393,79850,5
35391,79829,5
35395,79861,5
35407,79883,4
35409,79900,5
35425,79939,5
35437,79983,5
35463,80021,4
35487,80070,5
35503,80143,5
35513,80146,5
35533,80174,5
35533,80196,4
35553,80245,5
35557,80227,5
35546,80209,5
35544,80198,5
35518,80159,4
35485,80027,5
35417,79889,5
35377,79817,5
35385,79819,4
35381,79829,5
35386,79823,5
35384,79826,5
35387,79842,5
35397,79867,4
35407,79880,5
35414,79912,5
35423,79948,5
35442,79979,5
35459,80008,4
35472,80069,5
35490,80091,5
35509,80139,5
35532,80173,5
35535,80204,4
35546,80229,5
35559,80233,5
35555,80234,5
35558,80245,4
35563,80232,5
35565,80235,4
35551,80234,5
35549,80226,5
35553,80217,4
35546,80197,5
35543,80199,5
35537,80202,5
35545,80213,5
35556,80237,4
35555,80248,5
35553,80234,5
35533,80210,5
35548,80201,5
35539,80198,4
35536,80199,5
35533,80189,5
35538,80190,5
35538,80198,5
35540,80203,4
35543,80199,5
35537,80189,5
35540,80182,5
35538,80188,4
35536,80184,4
35529,80197,6
35546,80200,4
35563,80224,5
35561,80251,4
35570,80285,5
35590,80325,5
35601,80352,5
35629,80409,5
35650,80474,4
35675,80529,5
35706,80578,5
35723,80622,5
35755,80682,5
35770,80716,8
35782,80751,1
35793,80781,5
35812,80803,5
35815,80813,5
35825,80844,4
35821,80860,5
35826,80866,5
35829,80848,5
35820,80832,4
35812,80816,4
35802,80767,5
35781,80727,5
35757,80686,5
35740,80639,4
35718,80609,5
35712,80587,5
35713,80576,5
35708,80584,5
35725,80611,4
35730,80640,5
35749,80668,5
35763,80715,5
35782,80778,5
35814,80836,4
35834,80870,5
35856,80927,5
35856,80983,5
35911,81045,5
35921,81084,5
35935,81092,4
35902,81076,5
35906,80994,5
35840,80856,6
35802,80776,3
35783,80746,5
35786,80721,5
35772,80706,5
35767,80710,4
35785,80709,5
35771,80714,5
35765,80714,5
35769,80735,5
35805,80756,4
35784,80767,5
35809,80802,5
35819,80830,5
35839,80876,5
35850,80921,4
35867,80953,5
35887,81013,5
35911,81038,5
35929,81065,5
35946,81111,4
35953,81138,6
35977,81150,4
35977,81190,5
35989,81209,4
35994,81225,6
35999,81204,3
35999,81242,5
36009,81254,5
36012,81264,4
36015,81253,5
36020,81307,5
36043,81347,5
36052,81353,5
36044,81348,4
36045,81338,5
36042,81329,5
36036,81312,5
36027,81335,5
36032,81301,4
36025,81293,5
36027,81292,5
36021,81320,5
36011,81271,5
36008,81254,4
35996,81230,5
35991,81210,6
35975,81193,4
35976,81206,5
35988,81215,4
36001,81240,5
36007,81276,5
36024,81294,5
36036,81331,4
36053,81377,5
36084,81426,5
36101,81463,5
36124,81537,5
36152,81597,4
36171,81656,5
36209,81704,5
36234,81761,5
36257,81822,5
36270,81851,4
36280,81881,5
36287,81895,5
36296,81901,5
36286,81877,5
36285,81848,4
36248,81801,5
36239,81742,5
36219,81721,6
36199,81672,3
36189,81641,4
36184,81624,5
36165,81623,5
36169,81627,5
36185,81646,4
36193,81668,5
36211,81714,5
36223,81740,5
36236,81781,5
36259,81834,4
36300,81920,5
36329,82006,5
36367,82064,5
36384,82110,5
36389,82103,4
36365,82024,5
36315,81907,5
36273,81844,5
36268,81827,5
36253,81798,5
36253,81793,4
36248,81791,5
36237,81784,5
36254,81791,6
36243,81785,3
36250,81786,5
36239,81781,5
36251,81791,5
36244,81797,4
36251,81808,5
36260,81823,5
36260,81845,5
36275,81852,5
36283,81874,4
36302,81903,5
36299,81918,5
36314,81939,5
36323,81966,5
36323,81980,4
36338,82010,5
36354,82016,5
36359,82038,5
36359,82049,5
36373,82064,4
36365,82071,6
36382,82086,4
36392,82125,5
36396,82144,5
36415,82188,4
36440,82205,5
36432,82198,5
36422,82202,5
36426,82209,4
36429,82199,5
36421,82199,5
36421,82189,5
36413,82174,5
36413,82162,4
36390,82152,5
36397,82122,5
36382,82092,5
36365,82059,5
36318,82023,4
36323,81976,5
36314,81948,5
36305,81921,5
36273,81917,5
36288,81900,4
36284,81906,5
36289,81906,6
36280,81900,4
36300,81910,4
36301,81929,4
36309,81933,5
36334,81944,5
36309,81950,5
36316,81961,4
36322,81979,5
36355,81976,5
36318,81977,5
36317,81980,5
36317,81960,4
36326,81934,5
36293,81895,5
36279,81852,5
36251,81799,5
36234,81744,4
36199,81693,5
36166,81627,5
36144,81570,5
36124,81516,5
36122,81511,4
36106,81498,5
36099,81486,5
36111,81480,6
36114,81503,4
36109,81526,4
36138,81549,5
36136,81541,5
36151,81596,5
36161,81610,4
36162,81600,5
36130,81539,5
36070,81375,5
36001,81242,5
35976,81163,4
35934,81104,5
35900,80999,5
35872,80940,5
35851,80910,5
35834,80917,4
35822,80866,5
35817,80840,5
35801,80810,5
35790,80801,5
35786,80780,5
35785,80761,4
35786,80762,5
35775,80764,5
35772,80755,5
35780,80750,4
35785,80755,5
35770,80751,5
35773,80761,5
35785,80766,4
35772,80759,5
35787,80764,5
35783,80760,5
35778,80759,5
35779,80770,4
35783,80775,5
35781,80763,5
35784,80775,5
35783,80767,5
35781,80778,4
35788,80797,5
35792,80792,5
35789,80782,5
35786,80768,5
35787,80777,4
35781,80769,6
35777,80744,4
35764,80741,5
35764,80717,4
35752,80696,4
35741,80670,5
35726,80638,5
35707,80591,5
35685,80557,4
35674,80509,5
35653,80452,5
35627,80405,5
35610,80378,5
35588,80343,4
35576,80309,5
35573,80300,5
35580,80294,5
35572,80301,5
35571,80294,4
35583,80302,5
35583,80315,5
35586,80321,5
35590,80341,5
35583,80358,4
35611,80363,5
35612,80379,6
35613,80407,4
35619,80412,5
35628,80422,4
35636,80432,5
35635,80438,5
35641,80445,5
35646,80455,4
35652,80469,5
35654,80469,5
35647,80473,5
35651,80475,5
35657,80483,4
35655,80477,5
35660,80483,5
35649,80482,5
35654,80469,5
35644,80471,4
35648,80465,5
35643,80457,5
35644,80457,5
35644,80450,5
35626,80437,4
35630,80427,5
35635,80416,5
35629,80409,5
35623,80396,4
35614,80368,4
35591,80333,5
35569,80268,5
35531,80178,5
35489,80062,4
35431,79939,5
35378,79824,5
35322,79715,5
35307,79663,5
35299,79628,4
35282,79616,5
35263,79616,5
35294,79631,5
35296,79655,5
35312,79693,4
35296,79725,5
35341,79782,5
35363,79836,5
35400,79905,5
35421,79964,5
35444,80001,4
35463,80047,5
35470,80087,5
35519,80130,5
35513,80139,4
35501,80109,5
35450,79969,5
35401,79803,5
35330,79709,4
35319,79678,5
35292,79642,5
35276,79591,5
35257,79583,5
35262,79568,4
35243,79545,5
35252,79531,5
35237,79509,5
35231,79492,5
35227,79497,4
35234,79493,5
35230,79513,6
35228,79515,4
35240,79533,5
35244,79511,4
35243,79537,5
35250,79547,5
35251,79547,5
35255,79531,4
35259,79562,5
35258,79568,4
35257,79575,5
35265,79590,5
35257,79578,4
35265,79590,5
35266,79593,5
35262,79610,5
35261,79589,5
35258,79577,4
35263,79580,5
35260,79621,5
35271,79594,5
35269,79598,5
35273,79598,4
35269,79607,5
35270,79594,5
35275,79599,5
35271,79596,5
35269,79599,4
35287,79597,5
35276,79603,5
35282,79607,5
35273,79602,4
35266,79603,4
35263,79597,5
35273,79585,5
35260,79582,5
35270,79577,4
35261,79581,5
35259,79579,5
35267,79586,5
35277,79586,5
35270,79592,4
35270,79603,5
35275,79609,5
35279,79620,5
35285,79640,5
35300,79658,4
35293,79670,4
35306,79690,5
35311,79700,5
35324,79721,5
35322,79729,3
35340,79744,5
35343,79759,5
35341,79768,5
35340,79768,5
35359,79778,4
35352,79790,5
35357,79790,5
35359,79799,5
35356,79804,4
35364,79803,5
35357,79803,5
35359,79799,5
35358,79799,5
35358,79795,4
35353,79784,5
35350,79775,5
35356,79782,5
35347,79771,5
35345,79770,4
35344,79768,6
35338,79760,4
35344,79755,5
35343,79755,5
35336,79753,6
35339,79750,3
35340,79747,5
35333,79744,5
35341,79752,5
35331,79738,6
35334,79740,3
35340,79729,5
35330,79727,5
35322,79702,4
35318,79668,5
35285,79614,5
35245,79525,5
35215,79436,5
35183,79356,4
35145,79300,5
35138,79266,5
35134,79251,5
35131,79261,5
35131,79264,4
35140,79287,5
35143,79306,6
35165,79346,4
35183,79383,5
35201,79424,4
35223,79478,5
35233,79523,5
35259,79580,5
35280,79622,5
35292,79647,4
35313,79677,5
35321,79693,5
35319,79700,5
35297,79650,4
35254,79500,5
35184,79357,5
35136,79285,5
35104,79249,5
35126,79228,4
35110,79209,5
35102,79204,5
35084,79205,5
35099,79197,5
35101,79190,4
35090,79182,5
35082,79172,5
35095,79183,6
35096,79193,4
35102,79199,4
35131,79216,5
35114,79228,5
35116,79234,5
35109,79239,5
35151,79255,4
35123,79250,5
35122,79249,5
35127,79250,5
35129,79252,4
35118,79258,5
35121,79244,5
35116,79258,5
35126,79241,5
35118,79252,8
35109,79220,8
35109,79220,5
35112,79237,5
35104,79198,7
35109,79202,8
35095,79174,5
35097,79184,7
35111,79152,8
35074,79176,7
35080,79136,8
