RED,IR,EKG,TIME
53411,113371,183295
53411,113371,1
54047,114330,6
54036,114300,4
54044,114306,5
54037,114294,4
54035,114298,7
54032,114279,3
54035,114289,5
54033,114281,5
54029,114281,4
54024,114274,5
54014,114272,5
54016,114274,5
54017,114262,5
54013,114265,4
54022,114268,5
54020,114272,5
54018,114260,5
54013,114275,4
54017,114267,4
54008,114267,5
54009,114262,5
54015,114271,5
54017,114273,4
54019,114265,5
54025,114280,5
54011,114270,6
54018,114276,4
54012,114288,4
54008,114286,5
54023,114288,5
54019,114300,5
54031,114317,5
54033,114329,4
54052,114349,5
54052,114362,5
54061,114382,5
54071,114393,5
54078,114409,4
54079,114429,5
54091,114460,5
54100,114473,5
54121,114498,5
54139,114518,4
54138,114545,5
54146,114569,5
54155,114591,5
54174,114619,5
54177,114637,4
54192,114649,5
54192,114659,5
54203,114667,6
54208,114671,3
54203,114687,5
54207,114686,5
54210,114714,5
54219,114722,5
54224,114728,4
54229,114761,5
54245,114770,5
54255,114792,5
54262,114801,5
54268,114815,4
54272,114820,5
54262,114816,5
54261,114791,5
54251,114778,5
54245,114747,4
54218,114729,5
54213,114706,5
54216,114696,5
54200,114681,5
54200,114668,5
54187,114659,4
54200,114666,5
54187,114675,5
54192,114666,6
54193,114676,3
54196,114676,5
54188,114674,5
54193,114666,5
54180,114660,4
54183,114664,5
54183,114656,5
54178,114653,5
54158,114647,5
54174,114630,4
54166,114624,5
54163,114615,5
54148,114599,5
54152,114582,5
54137,114557,4
54128,114553,5
54129,114545,5
54122,114518,5
54111,114509,5
54116,114517,4
54135,114501,6
54112,114500,4
54095,114486,5
54104,114496,4
54115,114489,4
54095,114500,5
54104,114492,5
54091,114479,5
54098,114493,4
54097,114486,5
54088,114472,5
54081,114465,5
54085,114448,5
54082,114449,4
54074,114455,5
54081,114446,5
54083,114416,5
54069,114439,5
54076,114444,4
54065,114436,5
54064,114409,5
54070,114432,5
54065,114431,5
54063,114433,5
54057,114436,4
54066,114421,6
54073,114433,4
54059,114426,5
54059,114448,4
54077,114437,5
54071,114438,5
54070,114438,5
54075,114460,4
54066,114439,4
54058,114435,5
54075,114432,5
54058,114441,5
54068,114426,4
54061,114428,5
54063,114443,5
54070,114424,5
54062,114428,5
54059,114435,4
54062,114422,5
54059,114420,5
54056,114415,5
54056,114413,5
54053,114407,4
54049,114417,5
54050,114409,5
54054,114405,6
54047,114412,4
54053,114395,4
54043,114402,5
54046,114406,5
54050,114395,5
54053,114400,4
54040,114397,4
54044,114387,5
54050,114399,5
54047,114390,5
54047,114396,4
54035,114380,5
54035,114388,5
54038,114378,5
54038,114387,5
54038,114380,4
54034,114385,5
54040,114391,5
54044,114380,5
54036,114374,5
54045,114375,5
54032,114374,4
54028,114365,5
54028,114360,5
54020,114355,5
54023,114343,4
54018,114350,5
54021,114330,5
54014,114332,5
54008,114341,5
54008,114324,4
54009,114321,5
54007,114331,5
54007,114336,5
54007,114330,4
54015,114332,4
54016,114333,5
54004,114321,5
54015,114340,5
54008,114332,4
54016,114336,5
54018,114348,5
54009,114346,5
54013,114340,5
54019,114343,4
54009,114317,6
53997,114315,4
53990,114295,5
53994,114284,5
53975,114261,4
53951,114219,5
53939,114205,5
53945,114192,5
53934,114182,5
53931,114172,4
53921,114155,5
53926,114159,5
53916,114150,5
53926,114159,5
53928,114165,4
53922,114156,5
53929,114172,5
53922,114174,5
53925,114170,4
53928,114154,5
53924,114162,5
53914,114161,5
53922,114154,5
53921,114156,4
53922,114159,5
53914,114152,6
53916,114145,4
53909,114140,5
53906,114129,4
53886,114118,5
53890,114091,5
53887,114082,5
53882,114078,5
53851,114063,4
53873,114063,5
53870,114056,5
53866,114056,5
53872,114059,5
53872,114057,4
53862,114050,5
53855,114043,5
53883,114038,5
53857,114036,5
53851,114024,4
53857,114009,5
53868,114016,5
53840,114015,5
53832,114015,4
53840,114006,5
53850,114011,5
53833,114011,6
53838,114013,4
53845,114006,4
53838,114000,5
53842,114015,5
53844,114028,5
53840,114029,5
53857,114010,4
53849,114020,5
53850,114030,5
53839,114026,5
53844,114003,5
53850,114036,4
53841,114031,5
53843,114029,5
53853,114026,5
53845,114037,5
53855,114032,4
53842,114020,5
53845,114041,5
53841,114020,5
53846,114018,5
53844,114028,4
53852,114042,5
53844,114016,5
53847,114013,5
53847,114015,4
53837,114022,5
53836,113996,5
53825,113996,5
53839,113986,5
53831,113990,4
53831,113981,5
53810,113979,5
53821,113968,5
53820,113963,5
53823,113955,4
53814,113958,5
53806,113940,5
53801,113937,5
53814,113939,5
53804,113938,4
53799,113939,5
53805,113943,5
53806,113945,5
53807,113946,5
53811,113943,5
53817,113947,4
53815,113948,5
53818,113953,5
53811,113976,4
53831,113990,4
53826,114003,5
53839,114007,5
53848,114018,5
53847,114032,4
53840,114018,5
53849,114022,5
53843,114024,5
53842,114014,5
53832,113988,4
53824,113973,5
53814,113974,5
53816,113970,5
53811,113963,5
53808,113952,4
53815,113945,5
53810,113960,5
53814,113955,5
53805,113960,5
53811,113968,4
53825,113978,6
53823,113983,4
53820,113981,5
53829,113985,5
53836,113987,4
53834,113999,5
53831,113997,5
53838,114000,5
53838,114007,4
53836,114005,4
53842,114006,5
53847,114010,5
53846,114013,9
53845,114007,5
53841,113988,5
53832,113998,5
53829,114004,5
53847,114007,4
53841,114010,5
53841,114020,5
53840,114028,5
53853,114035,5
53847,114031,4
53842,114038,5
53847,114027,5
53849,114026,5
53843,114015,5
53844,114017,4
53843,114016,5
53848,114018,5
53842,114020,5
53848,114021,5
53844,114025,4
53852,114024,5
53854,114037,5
53855,114038,5
53856,114050,4
53854,114050,4
53850,114053,5
53866,114067,5
53867,114074,5
53870,114081,4
53865,114092,5
53875,114090,5
53872,114091,5
53863,114101,5
53882,114118,4
53892,114126,5
53893,114123,5
53881,114136,5
53904,114129,5
53903,114133,4
53906,114145,5
53906,114144,5
53910,114151,5
53905,114153,5
53912,114169,4
53934,114175,5
53913,114179,5
53919,114173,5
53924,114177,5
53949,114190,4
53928,114192,5
53924,114202,5
53931,114209,5
53947,114211,4
53943,114211,5
53938,114215,4
53940,114214,5
53948,114211,5
53939,114208,6
53929,114199,3
53927,114199,5
53938,114182,5
53927,114194,5
53928,114202,4
53936,114204,5
53939,114195,5
53942,114229,5
53950,114243,5
53957,114249,4
53953,114229,5
53952,114246,5
53955,114246,5
53950,114228,5
53953,114236,4
53935,114211,5
53928,114195,5
53924,114194,5
53923,114211,5
53914,114169,4
53922,114170,6
53920,114172,4
53914,114202,5
53918,114181,4
53926,114179,6
53930,114186,3
53921,114198,5
53926,114193,5
53923,114182,4
53927,114195,5
53923,114207,5
53929,114200,5
53926,114201,5
53928,114197,4
53921,114194,5
53929,114199,5
53924,114185,5
53928,114176,5
53911,114172,4
53918,114175,5
53914,114171,5
53919,114163,5
53911,114162,5
53903,114160,4
53910,114172,5
53924,114183,6
53918,114181,4
53926,114189,5
53928,114188,4
53926,114182,5
53926,114189,5
53927,114182,5
53925,114183,4
53912,114175,4
53918,114172,5
53913,114171,5
53918,114175,5
53914,114173,4
53919,114167,5
53915,114175,5
53913,114186,5
53927,114191,5
53924,114192,4
53934,114205,5
53937,114206,5
53941,114217,5
53941,114218,5
53941,114222,4
53944,114229,5
53945,114227,5
53950,114233,6
53952,114254,4
53955,114254,4
53958,114256,5
53959,114268,5
53970,114269,5
53964,114286,5
53959,114290,4
53968,114280,5
53963,114274,5
53974,114281,5
53964,114288,4
53976,114288,4
53969,114280,5
53969,114271,5
53968,114269,5
53966,114281,4
53965,114270,5
53966,114275,5
53966,114281,5
53969,114276,5
53967,114278,5
53965,114278,4
53976,114294,5
53972,114289,5
53982,114290,6
53983,114305,3
53988,114328,5
53993,114346,5
53999,114368,5
54011,114364,5
54013,114377,4
54015,114372,5
54005,114379,5
54013,114364,5
54012,114375,5
54010,114359,4
53993,114337,5
54005,114339,5
54002,114339,5
53998,114326,4
53972,114318,4
53985,114323,5
53996,114330,5
53995,114347,5
53984,114356,4
54006,114377,6
54022,114380,4
54036,114398,5
54005,114400,5
54031,114397,6
54034,114402,3
54037,114407,5
54033,114401,5
54042,114415,5
54029,114421,4
54033,114419,5
54057,114410,5
54038,114417,5
54024,114405,5
54023,114410,4
54050,114419,5
54031,114414,5
54037,114416,5
54034,114414,5
54028,114410,4
54036,114408,5
54037,114424,5
54036,114429,5
54047,114423,4
54046,114430,4
54042,114434,6
54041,114418,4
54037,114405,5
54036,114426,4
54030,114416,5
54037,114414,5
54028,114391,5
54034,114413,5
54025,114418,5
54031,114424,4
54034,114409,5
54032,114413,5
54037,114420,5
54033,114432,4
54046,114434,5
54040,114441,5
54041,114445,5
54049,114444,5
54042,114472,4
54057,114446,5
54046,114450,5
54050,114461,5
54061,114482,5
54064,114478,4
54061,114474,5
54068,114492,6
54070,114506,4
54071,114505,5
54074,114506,4
54073,114508,5
54075,114513,5
54071,114508,5
54081,114505,4
54077,114505,5
54083,114519,5
54090,114521,5
54084,114511,5
54080,114515,4
54078,114511,5
54083,114524,5
54081,114517,5
54089,114517,5
54090,114526,4
54084,114524,5
54083,114525,5
54085,114522,5
54086,114525,5
54089,114529,4
54100,114532,5
54090,114536,5
54090,114541,7
54103,114552,3
54096,114555,4
54100,114559,5
54099,114561,5
54100,114557,5
54104,114555,5
54093,114549,4
54099,114541,5
54094,114536,5
54086,114520,5
54079,114506,4
54080,114489,4
54065,114489,5
54066,114479,5
54069,114486,5
54069,114488,4
54069,114495,5
54077,114497,5
54076,114510,5
54075,114502,5
54074,114502,5
54081,114509,4
54077,114506,5
54084,114509,5
54072,114503,5
54068,114503,4
54074,114500,5
54071,114495,5
54085,114495,5
54077,114501,5
54073,114497,4
54078,114502,5
54073,114488,5
54066,114486,5
54067,114492,5
54070,114483,4
54070,114476,5
54065,114475,5
54074,114474,5
54068,114478,4
54072,114480,4
54075,114490,5
54065,114478,5
54065,114482,5
54066,114473,4
54058,114469,6
54054,114464,4
54065,114469,5
54063,114466,5
54052,114461,4
54055,114460,5
54060,114466,5
54063,114467,5
54047,114459,5
54052,114460,4
54051,114460,5
54052,114444,5
54050,114447,5
54044,114441,5
54044,114446,4
54026,114457,5
54059,114461,5
54052,114464,5
54050,114461,5
54025,114455,4
54049,114441,5
54041,114440,5
54043,114438,5
54025,114430,5
54041,114431,4
54041,114423,6
54039,114411,4
54046,114424,5
54030,114406,4
54034,114405,5
54023,114411,5
54054,114415,5
54025,114422,5
54028,114420,4
54036,114421,5
54056,114427,5
54038,114421,5
54028,114431,5
54033,114430,4
54038,114412,5
54025,114410,5
54029,114419,5
54031,114410,5
54028,114396,4
54018,114408,5
54018,114403,5
54027,114397,5
54017,114383,5
54026,114392,4
54022,114388,5
54016,114387,6
54014,114365,4
54020,114390,5
54011,114370,5
54007,114372,4
54006,114364,5
54006,114378,5
54011,114374,4
53999,114376,4
54006,114387,5
54011,114370,5
54015,114368,5
54002,114379,4
54011,114397,5
54011,114368,5
54011,114370,5
54009,114372,5
54017,114375,4
54005,114374,5
54002,114372,5
54002,114369,5
53999,114370,5
54008,114369,4
54002,114359,5
53999,114360,5
53999,114351,5
53999,114348,5
53997,114349,4
54002,114353,5
53997,114338,5
53993,114331,5
53996,114336,5
53991,114338,4
54001,114348,5
54000,114369,5
53998,114362,5
54018,114386,4
54020,114398,4
54021,114417,5
54018,114412,5
54031,114416,5
54021,114401,4
54021,114404,5
54020,114384,5
54007,114376,5
53998,114353,5
53999,114339,5
54003,114332,4
53993,114320,5
53987,114330,5
53988,114330,5
53990,114334,4
53992,114350,5
54000,114353,5
54013,114371,5
54011,114380,5
54024,114384,4
54017,114386,5
54012,114384,5
54009,114377,5
54018,114378,5
54017,114381,4
54021,114381,5
54014,114370,5
54007,114364,5
54009,114369,5
54003,114368,4
54000,114357,5
54001,114348,5
53995,114359,5
53991,114344,4
53995,114346,6
53993,114354,3
53999,114337,5
53992,114342,5
53989,114334,4
53989,114333,5
53998,114337,5
53986,114331,5
53984,114330,5
53992,114331,4
53986,114324,5
53987,114310,5
53970,114300,5
53971,114290,5
53959,114273,4
53968,114265,5
53964,114279,5
53959,114273,5
53963,114268,5
53964,114270,4
53970,114266,5
53956,114266,6
53962,114277,4
53966,114280,5
53950,114275,4
53951,114270,7
53969,114276,3
53960,114278,5
53961,114292,4
53967,114284,4
53965,114293,5
53964,114282,5
53969,114284,5
53964,114279,4
53968,114290,5
53951,114295,5
53975,114293,5
53970,114293,5
53974,114296,4
53960,114290,5
53970,114280,5
53961,114280,5
53964,114279,5
53945,114279,4
53962,114285,5
53963,114281,5
53959,114286,6
53967,114287,4
53965,114282,4
53962,114282,5
53964,114289,5
53983,114275,5
53966,114275,5
53955,114271,4
53959,114266,5
53977,114274,5
53956,114262,5
53946,114250,4
53946,114251,4
53945,114235,5
53938,114240,5
53950,114224,5
53941,114233,4
53940,114224,5
53931,114222,5
53933,114214,5
53938,114223,5
53928,114207,5
53935,114234,4
53935,114220,5
53935,114224,5
53939,114201,6
53933,114220,3
53934,114225,5
53930,114221,5
53935,114207,5
53923,114217,5
53934,114213,4
53925,114208,5
53927,114221,5
53924,114208,5
53929,114204,5
53916,114199,4
53917,114217,5
53918,114190,5
53912,114188,5
53918,114182,4
53913,114196,4
53900,114181,5
53910,114173,5
53905,114174,5
53913,114181,4
53906,114167,6
53911,114180,4
53910,114177,5
53911,114180,5
53906,114169,6
53912,114179,3
53896,114180,5
53920,114185,5
53917,114197,5
53919,114197,4
53927,114210,5
53930,114222,5
53927,114204,5
53924,114206,5
53926,114199,4
53918,114188,5
53920,114192,5
53914,114175,5
53903,114149,5
53897,114150,4
53895,114142,5
53888,114123,5
53883,114107,5
53871,114097,5
53872,114095,4
53862,114095,6
53870,114085,4
53871,114091,5
53863,114093,4
53864,114093,5
53867,114102,5
53868,114089,5
53853,114097,5
53864,114090,4
53856,114092,5
53868,114078,5
53860,114098,5
53869,114088,5
53862,114087,4
53865,114095,5
53869,114094,5
53857,114083,5
53866,114076,5
53858,114073,4
53846,114065,5
53848,114049,5
53852,114046,5
53835,114043,5
53837,114035,4
53834,114015,5
53829,114008,6
53823,114005,4
53827,114008,5
53829,113995,4
53818,113980,5
53803,113964,5
53798,113950,5
53792,113934,4
53787,113916,5
53774,113907,5
53769,113904,5
53776,113893,5
53773,113888,4
53764,113886,5
53766,113891,5
53762,113886,5
53766,113869,5
53760,113870,4
53754,113861,5
53753,113856,5
53754,113855,5
53748,113856,5
53745,113850,4
53750,113850,5
53744,113845,5
53752,113851,6
53748,113854,4
53748,113848,4
53743,113855,5
53751,113860,5
53748,113859,5
53745,113849,5
53749,113849,4
53750,113858,5
53743,113849,5
53745,113855,5
53746,113844,4
53752,113852,5
53725,113844,5
53751,113853,5
53742,113858,5
53745,113846,4
53739,113850,5
53746,113855,5
53755,113856,5
53740,113853,5
53756,113847,5
53756,113850,4
53752,113857,5
53751,113863,5
53772,113857,6
53757,113862,3
53747,113868,5
53756,113870,5
53773,113877,5
53758,113881,5
53770,113886,4
53761,113896,5
53772,113896,5
53770,113911,5
53774,113913,5
53786,113916,4
53789,113928,5
53801,113957,5
53802,113967,5
53808,113984,4
53806,113968,5
53814,113989,5
53807,113986,5
53816,113993,5
53810,113962,4
53808,113971,6
53801,113964,4
53794,113958,5
53799,113956,5
53799,113949,4
53803,113951,5
53792,113947,5
53808,113978,5
53805,113965,5
53799,113977,4
53813,113982,5
53806,114012,5
53824,114000,5
53819,113992,5
53813,114000,4
53818,114020,5
53818,114012,5
53823,114015,5
53826,114016,5
53830,114017,4
53829,114014,5
53831,114017,5
53829,114027,5
53822,114024,4
53824,114010,5
53829,114024,6
53830,114021,4
53831,114016,5
53832,114018,4
53831,114021,5
53829,114027,5
53834,114032,5
53843,114033,5
53833,114028,4
53836,114030,5
53833,114029,5
53831,114020,5
53828,114016,5
53830,114010,4
53817,114002,5
53819,114009,5
53817,114007,5
53821,114002,5
53819,113998,4
53824,114005,5
53819,114008,5
53829,114005,5
53825,114006,4
53826,114007,4
53823,114006,5
53825,114009,6
53822,114007,4
53829,114017,4
53824,114004,5
53826,114008,5
53825,114025,5
53830,114019,5
53832,114021,4
53832,114025,5
53838,114035,5
53838,114030,5
53829,114036,5
53839,114035,4
53836,114039,5
53835,114040,5
53838,114040,5
53840,114039,5
53837,114041,4
53831,114041,5
53836,114038,5
53842,114034,5
53831,114036,5
53819,114035,4
53837,114026,5
53840,114026,5
53830,114021,5
53832,114014,5
53822,114020,4
53830,114020,5
53834,114007,5
53824,114022,5
53835,114014,4
53828,114010,5
53832,114017,5
53825,114013,5
53835,114005,5
53826,114014,4
53819,114012,5
53823,114009,5
53815,114007,5
53825,114004,5
53814,114008,4
53817,113999,5
53823,114006,5
53820,114018,5
53825,114016,5
53817,114009,5
53820,114008,4
53826,114005,5
53819,114003,5
53811,114001,5
53822,113993,4
53811,113983,5
53815,113989,5
53791,113983,5
53814,113976,4
53808,113975,4
53811,113981,5
53791,113973,5
53804,113982,5
53811,113989,4
53812,114000,5
53820,114016,5
53827,114033,5
53838,114046,5
53835,114057,4
53860,114058,5
53839,114049,5
53831,114043,5
53839,114045,5
53855,114013,4
53819,113997,6
53806,113964,4
53805,113971,5
53812,113966,5
53802,113954,4
53797,113954,5
53791,113941,5
53794,113952,5
53798,113958,5
53797,113955,4
53793,113972,5
53805,113957,5
53812,113978,5
53803,113980,5
53799,113985,4
53805,113958,5
53800,113977,5
53804,113978,5
53814,113986,4
53814,113966,5
53802,113975,5
53804,113970,6
53806,113963,4
53807,113978,4
53810,113968,5
53802,113965,7
53804,113960,3
53801,113986,5
53793,113949,4
53809,113957,5
53794,113961,5
53799,113976,5
53791,113966,5
53800,113955,4
53789,113948,5
53795,113955,5
53791,113936,5
53784,113936,5
53786,113919,4
53780,113915,5
53774,113915,5
53781,113897,5
53764,113906,4
53774,113903,4
53769,113909,5
53772,113908,5
53768,113896,5
53771,113903,4
53770,113899,5
53774,113909,5
53766,113915,5
53770,113909,5
53773,113904,4
53765,113905,5
53768,113905,5
53777,113907,5
53776,113914,5
53772,113909,4
53775,113911,5
53776,113911,5
53770,113914,5
53769,113912,5
53770,113921,4
53770,113917,5
53777,113914,5
53778,113925,5
53778,113922,5
53780,113912,4
53777,113915,5
53777,113913,5
53770,113912,5
53765,113909,5
53765,113911,4
53770,113902,5
53767,113896,5
53765,113895,5
53760,113892,4
53773,113886,5
53768,113879,5
53757,113882,5
53762,113877,5
53755,113881,4
53749,113872,5
53742,113861,9
53746,113849,2
53745,113847,4
53741,113817,4
53729,113823,5
53736,113839,5
53732,113821,5
53723,113823,5
53727,113810,4
53714,113799,6
53715,113803,4
53718,113800,5
53715,113799,5
53705,113799,6
53709,113786,3
53708,113781,5
53715,113791,5
53707,113793,4
53712,113784,5
53714,113787,5
53714,113800,5
53717,113812,5
53736,113818,4
53732,113825,5
53734,113826,5
53728,113825,5
53730,113829,5
53728,113819,4
53717,113801,5
53708,113786,5
53699,113761,5
53699,113748,5
53688,113738,4
53681,113733,5
53686,113735,6
53676,113717,4
53680,113723,5
53664,113726,4
53685,113732,5
53687,113740,5
53691,113743,5
53670,113743,5
53693,113750,4
53693,113748,5
53682,113734,5
53684,113745,5
53690,113738,4
53690,113751,5
53687,113744,5
53711,113737,5
53689,113746,5
53687,113735,4
53682,113729,5
53700,113741,5
53683,113730,5
53685,113719,5
53682,113728,4
53695,113717,5
53673,113722,5
53674,113726,6
53687,113728,4
53684,113729,4
53677,113726,5
53684,113732,5
53673,113729,5
53668,113707,5
53671,113715,4
53671,113712,5
53673,113702,5
53660,113667,5
53656,113683,4
53651,113668,4
53645,113663,5
53652,113637,5
53635,113663,5
53640,113659,5
53639,113653,4
53638,113653,5
53634,113647,5
53640,113642,5
53636,113640,5
53626,113652,4
53632,113633,5
53622,113620,5
53620,113611,6
53619,113610,3
53606,113577,5
53603,113555,5
53595,113548,5
53578,113534,5
53575,113505,4
53556,113477,5
53549,113456,5
53537,113444,5
53537,113436,5
53529,113422,4
53532,113426,5
53530,113444,5
53548,113449,5
53555,113483,4
53550,113493,4
53558,113503,5
53565,113503,5
53560,113540,5
53581,113563,4
53591,113570,6
53594,113576,4
53588,113569,5
53582,113574,5
53577,113556,6
53575,113555,3
53577,113556,5
53565,113556,5
53569,113548,5
53563,113539,4
53565,113531,5
53570,113546,5
53568,113543,5
53568,113569,5
53573,113573,4
53582,113574,5
53598,113586,5
53595,113602,5
53598,113610,5
53596,113619,4
53613,113628,5
53616,113635,5
53615,113645,5
53622,113659,4
53631,113678,4
53638,113697,6
53655,113699,4
53650,113712,5
53667,113761,4
53678,113781,5
53698,113783,5
53702,113799,5
53703,113797,5
53700,113794,4
53694,113781,5
53688,113767,5
53690,113752,5
53674,113723,5
53666,113714,4
53655,113708,5
53660,113711,5
53657,113702,5
53655,113686,5
53651,113694,4
53654,113692,5
53659,113709,5
53659,113712,5
53666,113714,5
53664,113708,4
53673,113726,5
53667,113719,6
53670,113725,4
53664,113715,5
53665,113708,4
53668,113717,5
53668,113712,5
53667,113716,5
53659,113707,4
53672,113706,5
53666,113699,5
53669,113708,5
53666,113716,5
53670,113714,4
53663,113706,5
53667,113707,5
53670,113709,5
53670,113720,5
53671,113712,4
53664,113717,5
53652,113705,5
53671,113712,5
53667,113705,5
53666,113708,4
53650,113700,5
53660,113693,5
53652,113692,6
53650,113690,4
53633,113674,4
53652,113677,5
53648,113665,5
53651,113672,5
53652,113660,5
53643,113656,4
53652,113658,5
53644,113642,5
53659,113648,5
53636,113633,4
53632,113623,5
53623,113633,5
53653,113623,5
53627,113628,5
53620,113620,4
53620,113600,5
53620,113605,5
53613,113595,5
53616,113589,5
53608,113593,5
53608,113582,4
53608,113577,5
53592,113566,5
53592,113559,6
53582,113516,3
53584,113529,5
53566,113504,5
53577,113505,5
53565,113483,5
53562,113490,4
53556,113486,5
53560,113479,5
53546,113459,5
53549,113468,5
53542,113460,4
53538,113440,5
53533,113468,5
53539,113450,5
53538,113448,4
53528,113441,4
53534,113455,5
53537,113441,5
53549,113441,5
53536,113432,4
53538,113457,6
53540,113446,4
53532,113446,5
53542,113455,5
53547,113472,4
53547,113467,5
53564,113483,5
53560,113496,5
53569,113492,5
53563,113505,4
53557,113499,5
53552,113477,5
53551,113464,5
53542,113458,5
53546,113439,4
53535,113421,5
53525,113420,5
53529,113423,5
53520,113416,5
53521,113406,4
53517,113406,5
53522,113414,5
53527,113417,5
53524,113420,4
53530,113433,4
53535,113434,6
53539,113423,4
53527,113418,5
53533,113409,4
53522,113414,5
53515,113414,5
53518,113413,5
53518,113405,5
53516,113405,4
53510,113393,5
53504,113390,5
53505,113376,5
53495,113364,5
53489,113356,4
53487,113341,5
53487,113340,5
53496,113343,5
53486,113343,5
53488,113340,4
53489,113341,5
53477,113338,5
53495,113341,5
53481,113345,5
53480,113327,4
53483,113340,5
53476,113332,6
53480,113317,4
53476,113308,4
53467,113307,4
53469,113316,5
53475,113316,5
53470,113316,5
53479,113319,4
53480,113326,5
53482,113337,5
53494,113358,5
53487,113364,5
53498,113383,4
53505,113394,5
53510,113393,5
53509,113395,5
53521,113409,5
53514,113408,4
53524,113434,5
53521,113423,5
53532,113439,5
53547,113459,5
53553,113462,4
53551,113473,5
53549,113474,5
53551,113473,5
53555,113491,5
53558,113496,4
53558,113509,5
53564,113510,5
53572,113526,5
53564,113523,4
53582,113535,4
53585,113544,5
53597,113563,5
53600,113585,5
53601,113578,4
53594,113586,5
53609,113598,5
53595,113604,5
53610,113616,5
53609,113606,4
53619,113626,5
53606,113642,5
53626,113658,5
53642,113676,5
53656,113681,5
53648,113717,4
53679,113734,5
53695,113765,5
53707,113790,5
53725,113802,4
53712,113798,5
53709,113800,5
53710,113792,5
53722,113780,5
53706,113773,4
53686,113765,5
53695,113760,5
53710,113753,5
53688,113754,4
53697,113760,4
53695,113774,5
53710,113787,5
53714,113804,5
53722,113825,4
53726,113841,5
53735,113838,5
53738,113858,5
53752,113870,5
53744,113886,4
53760,113873,6
53751,113899,4
53757,113904,5
53764,113911,5
53766,113898,4
53758,113920,5
53777,113928,5
53772,113923,5
53777,113931,5
53778,113936,4
53779,113935,5
53775,113942,5
53785,113957,5
53787,113950,5
53793,113956,4
53798,113970,5
53791,113992,5
53802,113980,5
53809,113995,4
53806,113991,4
53809,114019,5
53804,114005,5
53813,114002,5
53800,113998,4
53814,113994,5
53806,113993,6
53804,113989,4
53814,114004,5
53817,114004,4
53816,114000,5
53818,114005,5
53815,114014,5
53825,114028,5
53816,114026,4
53831,114018,5
53820,114027,5
53826,114036,5
53829,114048,5
53829,114035,4
53822,114030,5
53826,114041,5
53834,114036,5
53838,114058,5
53842,114069,4
53856,114078,5
53854,114103,5
53861,114102,5
53869,114117,4
53872,114127,4
53876,114119,5
53883,114139,5
53878,114130,5
53883,114139,4
53882,114147,5
53881,114139,5
53879,114146,5
53892,114154,5
53888,114158,4
53890,114146,5
53891,114159,5
53894,114158,5
53886,114172,5
53892,114172,4
53894,114172,5
53900,114183,5
53897,114184,5
53910,114188,5
53907,114185,5
53913,114198,4
53907,114202,5
53903,114204,5
53912,114199,6
53916,114207,3
53918,114201,5
53916,114217,5
53916,114218,5
53922,114233,4
53925,114236,4
53918,114253,5
53942,114256,5
53948,114271,5
53956,114288,4
53955,114291,5
53952,114298,5
53948,114294,5
53963,114297,5
53953,114296,4
53945,114276,5
53940,114267,5
53944,114262,5
53934,114257,5
53930,114250,4
53925,114239,6
53934,114246,4
53941,114261,5
53946,114278,5
53945,114277,6
53950,114295,3
53954,114305,5
53971,114305,5
53960,114300,5
53968,114312,4
53971,114311,5
53966,114324,5
53973,114330,5
53975,114346,5
53977,114339,4
53982,114352,5
53985,114340,5
53967,114345,5
53985,114353,4
53986,114348,5
53981,114353,5
53963,114346,5
53986,114345,5
53988,114356,4
53985,114360,5
53985,114368,6
53994,114377,4
54005,114392,5
54013,114388,4
54022,114411,5
54015,114400,5
54008,114406,5
54010,114411,5
54036,114405,4
54001,114389,5
54015,114385,5
54012,114400,5
54028,114407,5
53999,114402,4
54010,114402,5
54015,114408,5
54021,114406,5
54017,114410,5
54017,114408,4
54016,114405,5
54009,114387,5
54009,114408,5
54013,114407,4
54012,114408,4
54011,114391,5
54017,114416,6
54019,114407,4
54019,114421,4
54014,114398,5
54011,114419,5
54020,114428,5
54029,114419,5
54028,114435,4
54024,114426,5
54030,114416,5
54020,114431,5
54015,114445,5
54025,114423,4
54018,114420,5
54027,114423,5
54021,114447,5
54024,114416,5
54018,114411,4
54018,114416,5
54014,114420,5
54011,114416,5
54021,114410,5
54008,114410,4
54011,114407,5
54012,114401,5
54012,114404,6
54013,114400,3
54010,114398,4
54008,114390,5
54007,114390,5
54001,114398,5
54006,114384,4
53999,114397,5
53998,114382,5
54010,114391,5
54014,114404,5
54007,114392,4
54004,114398,5
54001,114390,5
54004,114378,5
54003,114375,5
53986,114355,4
53981,114322,5
53968,114304,5
53965,114301,5
53952,114278,5
53950,114276,5
53945,114276,4
53949,114280,5
53959,114293,5
53960,114306,6
53968,114319,3
53987,114316,5
53970,114321,5
53972,114309,5
53967,114305,4
53969,114307,4
53961,114299,5
53962,114296,5
53954,114293,5
53960,114286,4
53944,114273,5
53941,114276,5
53953,114265,5
53945,114255,5
53934,114246,4
53931,114240,5
53932,114244,5
53932,114245,5
53938,114247,5
53938,114248,4
53940,114250,6
53942,114256,4
53939,114263,5
53942,114255,5
53937,114253,4
53940,114247,5
53939,114249,5
53926,114233,5
53924,114229,5
53918,114216,4
53921,114219,5
53919,114216,5
53913,114221,5
53908,114210,4
53919,114213,4
53922,114213,5
53918,114207,5
53911,114202,5
53910,114207,4
53914,114208,5
53923,114195,5
53917,114206,5
53913,114209,5
53912,114214,4
53918,114207,5
53912,114215,6
53920,114213,4
53920,114213,5
53918,114213,4
53919,114206,5
53921,114222,5
53917,114226,5
53924,114213,5
53911,114217,4
53917,114218,5
53914,114208,5
53920,114214,5
53901,114218,5
53910,114210,4
53921,114201,5
53905,114197,5
53894,114206,5
53913,114195,4
53909,114188,4
53901,114196,5
53907,114182,5
53904,114187,5
53912,114185,4
53909,114186,5
53927,114194,5
53907,114190,6
53906,114188,4
53895,114191,4
53922,114188,5
53908,114184,5
53890,114173,5
53895,114174,5
53909,114182,4
53903,114173,5
53896,114172,5
53897,114169,5
53904,114161,5
53903,114170,4
53889,114168,5
53896,114162,5
53895,114145,5
53892,114154,5
53889,114154,4
53894,114165,5
53891,114139,5
53890,114166,5
53899,114167,5
53894,114164,4
53898,114154,5
53898,114188,5
53906,114193,5
53912,114184,4
53909,114203,5
53909,114186,5
53899,114179,5
53890,114164,5
53883,114155,4
53878,114124,5
53864,114116,5
53868,114104,5
53852,114108,5
53865,114096,4
53856,114098,5
53867,114109,5
53872,114120,5
53875,114122,5
53881,114134,4
53883,114139,5
53880,114147,5
53884,114134,5
53885,114139,5
53878,114126,5
53876,114131,4
53873,114130,5
53886,114128,5
53886,114137,4
53889,114130,5
53882,114137,5
53878,114138,5
53891,114140,5
53885,114137,4
53869,114131,5
53875,114131,5
53877,114123,5
53877,114123,5
53870,114122,4
53869,114122,5
53859,114117,5
53870,114125,5
53873,114121,5
53873,114118,4
53874,114113,5
53863,114115,5
53861,114111,5
53869,114102,5
53860,114098,4
53859,114089,6
53863,114098,4
53858,114105,5
53861,114108,4
53876,114100,4
53866,114104,5
53862,114105,5
53866,114106,5
53862,114099,4
53856,114094,5
53856,114100,5
53860,114101,5
53855,114096,5
53858,114089,4
53851,114099,5
53855,114102,5
53869,114090,5
53853,114096,5
53853,114090,4
53862,114097,5
53863,114104,5
53862,114110,5
53862,114092,5
53861,114099,4
53863,114091,5
53866,114102,6
53857,114102,4
53863,114105,5
53859,114093,4
53859,114098,5
53865,114099,5
53863,114101,5
53856,114089,4
53852,114089,4
53858,114088,5
53858,114080,5
53852,114075,5
53854,114080,4
53857,114075,5
53855,114075,5
53850,114067,5
53846,114063,5
53842,114061,4
53844,114063,5
53852,114056,5
53840,114056,5
53847,114060,5
53842,114048,4
53831,114049,5
53835,114049,5
53836,114040,5
53841,114044,5
53836,114046,4
53821,114047,5
53825,114041,5
53841,114045,5
53828,114035,5
53817,114029,4
53831,114043,5
53824,114031,5
53833,114032,5
53829,114032,4
53836,114038,4
53825,114034,5
53833,114032,5
53845,114028,5
53815,114023,4
53820,114012,6
53807,113989,4
53832,113971,5
53793,113948,5
53788,113956,5
53775,113938,4
53793,113921,5
53771,113910,5
53775,113912,5
53765,113918,4
53769,113918,5
53775,113932,5
53781,113940,5
53790,113935,5
53791,113936,4
53788,113951,5
53796,113957,5
53783,113939,5
53786,113927,5
53790,113944,4
53783,113945,5
53781,113936,5
53787,113917,5
53785,113929,4
53778,113936,5
53786,113925,4
53770,113913,5
53775,113920,5
53770,113898,4
53769,113904,6
53764,113925,4
53766,113910,5
53766,113897,5
53767,113902,4
53767,113927,5
53765,113899,5
53762,113904,5
53769,113906,5
53762,113901,4
53760,113880,5
53750,113874,5
53747,113863,5
53741,113863,5
53742,113840,4
53736,113847,5
53737,113840,5
53732,113839,5
53730,113832,5
53729,113843,4
53737,113850,5
53738,113844,5
53738,113840,5
53736,113837,4
53736,113833,4
53737,113840,6
53735,113835,3
53733,113836,5
53728,113829,4
53732,113833,5
53727,113819,5
53729,113825,5
53733,113828,5
53727,113831,4
53727,113826,5
53732,113831,5
53730,113837,5
53727,113827,5
53728,113834,4
53728,113826,5
53729,113832,5
53724,113844,5
53730,113830,5
53734,113839,4
53729,113838,5
53729,113835,5
53736,113839,6
53736,113831,4
53733,113839,4
53732,113841,5
53732,113840,5
53729,113844,5
53738,113832,4
53721,113827,4
53729,113824,5
53725,113834,5
53732,113833,5
53726,113822,4
53722,113810,9
53714,113812,2
53717,113808,4
53713,113818,5
53716,113791,4
53715,113787,5
53718,113784,5
53696,113770,5
53701,113772,5
53700,113767,5
53695,113759,4
53694,113757,5
53689,113762,5
53690,113765,6
53696,113759,3
53699,113765,5
53695,113774,5
53699,113761,5
53704,113768,5
53703,113771,4
53707,113785,5
53707,113798,5
53713,113807,5
53720,113815,4
53710,113801,4
53706,113790,5
53701,113774,5
53692,113751,5
53677,113723,4
53663,113719,5
53669,113708,5
53655,113694,5
53660,113692,5
53662,113689,4
53667,113695,6
53662,113694,4
53668,113705,5
53676,113709,5
53675,113723,6
53670,113727,3
53651,113736,5
53682,113733,5
53682,113732,5
53678,113741,4
53663,113742,5
53679,113744,5
53686,113753,5
53682,113755,5
53684,113753,4
53691,113750,5
53686,113749,5
53686,113741,5
53699,113738,4
53679,113733,4
53680,113744,5
53690,113732,5
53700,113735,5
53688,113742,4
53681,113756,5
53681,113745,6
53697,113747,4
53689,113750,5
53688,113749,4
53682,113739,5
53684,113737,5
53678,113726,5
53679,113734,5
53667,113720,4
53663,113709,5
53673,113721,5
53674,113720,5
53679,113728,5
53670,113711,4
53676,113727,5
53679,113736,5
53688,113743,5
53686,113729,5
53685,113745,4
53684,113756,5
53682,113744,5
53687,113765,5
53689,113752,5
53686,113748,4
53690,113753,5
53684,113764,6
53686,113741,4
53678,113752,4
53680,113747,5
53688,113766,5
53685,113743,5
53679,113754,5
53683,113744,4
53686,113757,5
53688,113754,5
53682,113753,5
53687,113758,5
53689,113756,4
53693,113753,5
53692,113752,5
53686,113753,5
53685,113752,5
53677,113743,4
53680,113745,5
53681,113739,5
53684,113747,5
53678,113739,5
53683,113741,4
53682,113722,5
53680,113732,5
53673,113731,6
53681,113729,4
53674,113734,4
53668,113721,5
53675,113723,5
53671,113720,5
53670,113708,4
53659,113709,4
53661,113699,5
53666,113699,5
53659,113697,5
53660,113711,4
53660,113700,5
53666,113721,5
53670,113708,5
53669,113709,5
53668,113713,4
53674,113741,5
53683,113746,5
53681,113762,5
53679,113748,5
53684,113754,5
53682,113744,4
53673,113735,5
53666,113708,5
53650,113678,6
53644,113656,3
53632,113634,5
53636,113633,5
53624,113612,5
53615,113609,5
53612,113607,4
53613,113599,5
53610,113611,5
53608,113606,5
53624,113619,4
53622,113625,4
53625,113627,5
53620,113631,5
53622,113633,5
53630,113632,4
53624,113625,5
53627,113624,5
53615,113620,5
53623,113614,5
53614,113606,4
53613,113600,6
53611,113583,4
53601,113585,5
53600,113583,5
53604,113565,4
53594,113563,5
53589,113565,5
53587,113561,5
53582,113558,5
53589,113554,4
53585,113553,5
53581,113564,5
53590,113549,5
53587,113552,5
53594,113530,4
53581,113541,5
53568,113522,5
53568,113495,5
53556,113496,4
53554,113482,4
53549,113468,5
53556,113473,5
53539,113481,5
53547,113479,4
53545,113482,5
53555,113478,6
53527,113478,4
53551,113468,5
53543,113480,4
53551,113470,5
53525,113475,5
53540,113477,5
53549,113477,5
53547,113464,4
53554,113465,5
53542,113461,5
53541,113461,5
53536,113455,5
53556,113447,4
53534,113449,5
53526,113435,5
53521,113442,5
53555,113443,5
53524,113437,4
53524,113427,5
53526,113425,5
53531,113418,5
53520,113425,4
53513,113414,4
53524,113414,5
53512,113406,6
53515,113403,4
53519,113409,4
53512,113388,5
53511,113383,5
53510,113382,5
53506,113382,5
53496,113382,4
53507,113360,5
53503,113377,5
53489,113370,5
53497,113367,5
53492,113364,4
53488,113354,5
53490,113351,5
53479,113348,5
53489,113362,5
53487,113348,4
53483,113344,5
53484,113348,5
53485,113379,5
53491,113367,5
53494,113375,4
53502,113376,5
53501,113411,5
53510,113398,5
53508,113384,5
53500,113374,4
53502,113376,5
53488,113351,5
53477,113326,5
53481,113333,4
53469,113333,5
53477,113327,5
53476,113328,5
53482,113330,5
53473,113336,4
53483,113336,5
53477,113340,5
53490,113340,5
53489,113343,5
53487,113344,4
53482,113346,5
53483,113351,5
53489,113345,5
53481,113346,5
53486,113349,5
53488,113352,4
53489,113351,5
53486,113350,5
53486,113361,5
53491,113364,4
53494,113362,5
53498,113363,5
53490,113365,5
53504,113376,5
53496,113370,4
53498,113373,5
53495,113388,5
53499,113370,5
53507,113386,4
53496,113381,5
53498,113372,5
53499,113371,5
53490,113356,5
53486,113357,4
53490,113351,5
53490,113349,5
53490,113351,5
53489,113354,5
53486,113369,4
53494,113367,6
53496,113372,4
53505,113382,5
53508,113393,5
53509,113392,4
53508,113403,5
53514,113402,5
53508,113415,5
53520,113404,5
53520,113418,4
53513,113423,5
53516,113420,5
53519,113431,5
53522,113444,5
53533,113437,4
53533,113472,5
53541,113475,5
53548,113479,5
53547,113487,4
53557,113505,4
53566,113502,5
53563,113522,5
53565,113530,5
53570,113528,4
53584,113521,5
53570,113535,6
53569,113545,4
53585,113546,5
53583,113554,4
53597,113558,5
53584,113564,5
53583,113572,5
53595,113564,5
53594,113582,4
53599,113584,5
53599,113590,5
53602,113583,5
53601,113586,5
53597,113598,4
53599,113589,5
53598,113594,5
53607,113602,5
53604,113634,5
53623,113650,4
53625,113655,5
53639,113667,5
53606,113657,5
53641,113651,4
53633,113645,4
53626,113626,5
53599,113599,5
53597,113596,5
53601,113589,4
53611,113596,5
53621,113594,5
53604,113587,5
53605,113594,5
53605,113600,4
53626,113617,5
53612,113626,5
53620,113632,5
53631,113637,5
53650,113648,4
53627,113654,5
53640,113652,5
53636,113664,5
53657,113664,5
53647,113668,4
53641,113679,5
53644,113678,5
53648,113678,5
53650,113681,5
53647,113688,4
53651,113695,5
53649,113666,5
53649,113692,5
53654,113693,5
53647,113694,4
53660,113672,5
53651,113710,5
53667,113708,5
53663,113720,4
53666,113723,5
53670,113731,5
53676,113734,5
53678,113734,5
53676,113755,4
53673,113727,5
53670,113730,5
53671,113728,5
53670,113752,5
53669,113730,4
53668,113750,5
53684,113747,4
53682,113764,5
53685,113754,5
53683,113760,4
53688,113765,5
53686,113768,5
53687,113759,5
53689,113775,5
53684,113761,4
53680,113753,5
53683,113748,5
53684,113751,5
53675,113736,4
53671,113745,4
53675,113740,5
53672,113740,5
53675,113736,5
53675,113730,4
53677,113734,5
53676,113741,5
53663,113732,5
53671,113729,5
53676,113723,4
53671,113742,5
53677,113738,6
53677,113748,4
53678,113745,5
53681,113746,4
53688,113753,7
53678,113750,3
53686,113754,5
53682,113753,5
53680,113748,4
53679,113750,5
53690,113760,5
53686,113759,5
53691,113772,5
53696,113782,4
53714,113800,5
53709,113800,5
53707,113791,5
53700,113792,4
53690,113775,4
53684,113763,5
53673,113732,5
53670,113723,5
53669,113732,4
53672,113720,5
53673,113724,5
53660,113712,6
53675,113735,4
53677,113730,4
53666,113729,5
53675,113742,5
53678,113745,5
53688,113753,5
53695,113758,4
53695,113748,5
53686,113762,5
53681,113750,5
53695,113765,5
53695,113765,4
53691,113765,5
53692,113755,5
53697,113776,5
53691,113760,5
53689,113762,4
53685,113758,5
53686,113757,5
53690,113752,5
53691,113761,5
53682,113761,4
53686,113764,5
53693,113766,5
53685,113774,6
53688,113757,3
53697,113782,5
53699,113772,5
53712,113786,5
53704,113786,5
53703,113775,4
53699,113772,5
53698,113774,5
53700,113774,5
53694,113780,5
53698,113782,4
53697,113793,5
53704,113793,5
53702,113794,5
53712,113797,5
53692,113805,4
53714,113809,5
53715,113820,5
53715,113817,5
53702,113825,5
53720,113824,5
53723,113831,4
53723,113835,5
53723,113839,5
53734,113853,6
53736,113868,3
53739,113868,5
53763,113872,5
53747,113877,5
53749,113889,4
53756,113886,5
53776,113903,5
53756,113903,5
53758,113910,5
53765,113910,4
53776,113913,5
53770,113924,5
53766,113928,5
53772,113940,5
53779,113937,4
53775,113944,5
53786,113946,5
53777,113946,5
53780,113934,5
53788,113953,4
53798,113956,6
53784,113964,4
53797,113955,5
53800,114001,5
53813,114014,4
53818,114044,5
53823,114028,5
53841,114053,5
53837,114057,5
53832,114049,4
53831,114055,5
53826,114036,5
53820,114028,5
53818,114019,4
53805,114038,5
53809,113998,5
53806,114000,5
53807,114000,5
53814,114035,4
53820,114021,5
53818,114011,5
53824,114030,5
53828,114044,5
53829,114044,4
53831,114057,5
53831,114065,6
53837,114052,4
53838,114073,5
53844,114066,4
53843,114084,5
53848,114079,5
53848,114086,5
53852,114089,5
53853,114094,4
53855,114092,5
53857,114087,5
53853,114091,5
53845,114086,5
53852,114093,4
53854,114098,5
53851,114097,5
53853,114088,5
53861,114105,4
53859,114115,5
53870,114125,5
53869,114125,5
53871,114130,5
53865,114121,4
53869,114125,5
53856,114122,5
53855,114114,6
53857,114106,4
53859,114103,4
53866,114122,5
53863,114117,5
53866,114120,5
53869,114127,5
53861,114121,4
53870,114127,5
53869,114132,5
53879,114130,5
53866,114124,5
53876,114125,4
53875,114124,5
53868,114135,5
53873,114130,5
53869,114133,5
53869,114128,4
53871,114123,5
53872,114140,5
53875,114148,5
53880,114144,5
53883,114161,4
53883,114159,5
53889,114168,5
53887,114174,6
53892,114178,3
53889,114178,5
53902,114178,5
53904,114185,5
53896,114192,5
53900,114189,4
53903,114185,5
53900,114198,5
53904,114193,5
53903,114202,5
53903,114194,4
53907,114194,5
53907,114202,5
53910,114209,5
53910,114202,5
53903,114216,4
53911,114215,5
53908,114213,5
53910,114212,5
53915,114207,5
53912,114216,5
53918,114233,4
53924,114241,5
53925,114249,5
53935,114258,4
53938,114262,4
53936,114267,5
53943,114284,5
53951,114299,5
53956,114308,4
53967,114314,5
53953,114305,5
53957,114297,5
53955,114303,5
53954,114283,4
53929,114262,5
53935,114244,5
53933,114242,5
53926,114223,5
53895,114218,4
53910,114219,5
53927,114233,5
53931,114246,5
53933,114247,5
53930,114264,4
53943,114271,6
53941,114262,4
53956,114259,5
53930,114252,5
53930,114258,4
53930,114242,5
53956,114252,5
53935,114245,5
53934,114257,4
53931,114250,4
53944,114239,5
53934,114251,5
53936,114233,5
53926,114239,4
53917,114241,5
53922,114233,5
53912,114226,5
53923,114215,5
53918,114198,4
53918,114222,5
53920,114219,5
53924,114226,5
53924,114209,5
53917,114230,4
53922,114225,5
53918,114220,6
53919,114197,4
53911,114199,5
53902,114198,4
53907,114183,5
53900,114193,5
53898,114187,5
53898,114191,5
53895,114179,4
53900,114208,5
53902,114180,5
53896,114176,5
53898,114174,4
53894,114196,4
53891,114173,5
53891,114162,5
53892,114166,5
53891,114164,4
53891,114149,5
53880,114150,5
53882,114138,5
53875,114139,5
53866,114129,4
53881,114131,5
53878,114134,5
53873,114128,6
53869,114121,4
53874,114121,4
53866,114127,5
53866,114121,5
53860,114116,5
53866,114109,5
53864,114100,4
53854,114115,5
53856,114106,5
53856,114098,5
53853,114096,5
53851,114087,4
53848,114084,5
53856,114088,5
53851,114078,5
53851,114085,4
53855,114087,4
53851,114080,5
53849,114069,5
53851,114070,5
53850,114060,5
53832,114058,4
53832,114063,5
53841,114054,5
53833,114049,5
53835,114052,4
53828,114050,5
53823,114047,5
53837,114043,5
53836,114039,5
53824,114044,4
53836,114053,5
53840,114063,5
53847,114065,5
53845,114061,5
53840,114060,4
53837,114063,5
53835,114046,5
53827,114022,5
53813,113998,5
53806,113995,4
53808,113983,5
53800,113965,5
53796,113970,5
53798,113970,4
53797,113972,5
53793,113970,4
53801,113982,5
53802,113986,5
53815,113993,4
53809,113985,5
53810,113987,5
53800,113995,5
53797,113983,5
53795,113979,4
53798,113977,5
53799,113974,5
53794,113958,5
53793,113961,5
53785,113969,4
53786,113943,5
53788,113948,5
53780,113932,5
53777,113936,5
53774,113924,4
53773,113934,5
53773,113930,5
53771,113927,5
53763,113929,5
53785,113934,4
53778,113945,6
53780,113941,4
53778,113936,5
53788,113945,4
53768,113933,4
53773,113920,5
53762,113924,5
53769,113925,5
53775,113921,4
53770,113920,5
53748,113919,5
53773,113914,5
53769,113919,5
53763,113912,4
53744,113905,5
53756,113907,5
53758,113905,5
53760,113903,5
53767,113904,4
53761,113905,5
53754,113904,5
53753,113899,5
53777,113902,5
53756,113904,4
53766,113898,5
53754,113904,5
53772,113906,5
53756,113898,5
53754,113896,4
53753,113896,5
53763,113904,5
53760,113891,5
53760,113895,4
53749,113902,5
53748,113888,5
53747,113894,5
53761,113886,5
53750,113883,4
53750,113865,5
53748,113876,5
53740,113873,5
53742,113864,5
53742,113853,4
53738,113867,4
53738,113869,5
53746,113862,5
53742,113873,6
53737,113852,3
53730,113846,5
53736,113849,5
53729,113863,5
53724,113826,5
53731,113826,4
53718,113816,5
53710,113843,5
53713,113821,5
53715,113809,5
53712,113822,4
53717,113814,5
53711,113820,5
53713,113814,5
53717,113808,4
53716,113808,5
53710,113810,5
53708,113811,5
53708,113802,5
53708,113811,4
53706,113798,6
53710,113806,4
53706,113810,5
53711,113796,5
53701,113798,6
53715,113793,3
53708,113803,5
53708,113797,5
53705,113790,5
53699,113774,4
53699,113779,5
53699,113771,5
53692,113788,5
53706,113791,5
53707,113789,4
53696,113795,5
53710,113801,5
53711,113824,5
53728,113832,4
53735,113838,4
53730,113841,5
53723,113818,5
53713,113820,5
53711,113792,4
53699,113770,5
53689,113752,6
53676,113731,4
53666,113704,5
53652,113690,4
53656,113678,7
53651,113680,3
53653,113679,5
53651,113688,5
53663,113697,4
53660,113703,5
53665,113703,5
53672,113711,5
53665,113715,8
53657,113708,2
53674,113713,4
53666,113728,5
53660,113719,5
53672,113711,5
53667,113707,4
53665,113710,5
53665,113709,5
53668,113710,5
53666,113707,4
53660,113706,4
53661,113708,5
53655,113700,6
53659,113696,4
53648,113696,4
53651,113710,5
53666,113710,5
53666,113705,5
53665,113729,5
53667,113718,4
53668,113714,5
53665,113722,5
53667,113713,5
53663,113712,5
53659,113720,4
53655,113708,5
53660,113708,5
53662,113706,5
53664,113719,5
53664,113715,4
53662,113716,5
53669,113716,5
53663,113721,5
53664,113705,5
53662,113716,4
53665,113711,5
53661,113708,5
53660,113696,6
53641,113706,3
53657,113695,4
53651,113693,5
53664,113696,5
53640,113702,5
53659,113698,4
53661,113696,5
53656,113691,5
53629,113684,5
53654,113699,5
53653,113683,4
53653,113685,5
53661,113686,5
53655,113688,5
53652,113688,5
53654,113684,4
53678,113702,5
53650,113681,5
53651,113683,5
53647,113694,5
53678,113681,5
53644,113686,4
53643,113682,5
53658,113681,5
53654,113686,6
53657,113693,3
53654,113689,5
53655,113696,5
53655,113687,5
53659,113690,4
53651,113688,4
53645,113679,5
53651,113667,5
53642,113676,5
53644,113677,5
53656,113673,4
53641,113652,5
53640,113668,5
53649,113678,5
53642,113675,4
53645,113660,5
53643,113685,5
53648,113694,5
53651,113681,5
53653,113705,4
53651,113688,6
53650,113704,4
53654,113696,5
53654,113726,5
53660,113703,4
53652,113706,5
53652,113697,5
53660,113722,5
53651,113699,5
53658,113691,4
53658,113696,5
53658,113702,5
53651,113686,5
53655,113692,5
53649,113692,4
53650,113684,5
53655,113693,5
53647,113692,5
53664,113699,4
53649,113690,5
53649,113687,5
53655,113693,5
53655,113700,5
53652,113695,4
53647,113703,5
53666,113721,6
53666,113727,4
53672,113741,5
53677,113756,4
53682,113744,5
53675,113739,5
53670,113736,5
53667,113713,5
53657,113690,4
53647,113669,5
53637,113663,5
53637,113660,5
53645,113652,5
53625,113639,4
53629,113637,5
53628,113638,5
53635,113642,5
53636,113658,5
53635,113667,4
53642,113657,5
53645,113669,5
53643,113678,5
53638,113675,4
53645,113678,4
53646,113668,5
53636,113670,6
53638,113669,4
53640,113674,4
53644,113672,5
53639,113677,5
53645,113666,5
53639,113671,5
53644,113661,4
53640,113664,5
53635,113659,5
53633,113664,5
53642,113668,5
53647,113676,4
53647,113675,5
53650,113675,5
53650,113688,5
53641,113677,5
53637,113683,4
53637,113678,5
53647,113681,5
53649,113686,5
53633,113667,5
53631,113657,4
53633,113652,5
53638,113647,5
53635,113651,6
53636,113651,3
53638,113659,4
53634,113652,5
53632,113649,5
53630,113661,5
53648,113649,4
53634,113661,5
53638,113666,5
53635,113663,5
53644,113664,5
53639,113661,4
53632,113670,5
53632,113670,5
53636,113670,5
53638,113672,5
53635,113675,4
53643,113678,5
53644,113678,5
53645,113674,5
53643,113690,5
53629,113688,5
53642,113687,4
53653,113689,5
53645,113686,5
53635,113700,5
53651,113685,4
53654,113694,5
53651,113693,5
53637,113687,5
53652,113683,4
53645,113681,4
53639,113683,5
53661,113671,5
53641,113683,5
53639,113678,4
53641,113677,5
53665,113673,5
53645,113674,5
53636,113670,5
53645,113655,4
53654,113667,5
53636,113672,5
53640,113668,5
53632,113665,5
53634,113656,4
53634,113669,6
53631,113654,4
53632,113661,5
53629,113646,5
53636,113656,4
53627,113657,5
53630,113652,5
53636,113633,5
53628,113650,5
53628,113657,4
53627,113654,5
53630,113640,5
53622,113653,5
53625,113648,5
53630,113650,4
53626,113661,5
53629,113661,5
53642,113661,5
53640,113681,4
53645,113718,5
53650,113697,5
53648,113694,6
53649,113683,4
53645,113698,4
53633,113672,5
53641,113656,7
53630,113644,3
53615,113632,5
53608,113612,4
53605,113611,5
53612,113591,5
53604,113598,5
53603,113592,5
53600,113596,4
53599,113585,5
53609,113596,5
53609,113607,5
53602,113609,5
53610,113607,4
53602,113618,5
53615,113611,5
53622,113616,5
53610,113613,4
53616,113610,4
53609,113606,5
53605,113606,5
53610,113591,5
53605,113596,4
53604,113584,5
53597,113574,5
53595,113584,5
53587,113574,5
53590,113569,4
53590,113555,5
53587,113564,5
53586,113569,5
53590,113568,5
53590,113567,4
53581,113548,5
53583,113552,5
53570,113546,5
53563,113520,5
53563,113501,4
53549,113478,5
53532,113467,5
53526,113446,5
53536,113437,5
53526,113437,4
53523,113432,5
53519,113434,5
53526,113439,5
53521,113441,5
53525,113444,4
53527,113448,5
53524,113454,5
53537,113461,5
53528,113454,4
53529,113461,5
53531,113451,5
53522,113450,5
53527,113446,5
53527,113443,4
53531,113437,5
53522,113434,5
53520,113434,5
53521,113447,5
53525,113428,4
53528,113437,5
53522,113441,5
53525,113432,5
53519,113440,5
53517,113445,4
53529,113436,5
53527,113438,5
53526,113440,5
53522,113424,5
53514,113425,5
53517,113413,4
53512,113411,5
53511,113416,5
53510,113412,5
53513,113410,4
53512,113403,5
53515,113394,5
53506,113389,5
53509,113397,4
53509,113400,5
53506,113401,5
53502,113392,5
53508,113399,5
53503,113395,4
53502,113398,5
53501,113403,5
53501,113396,5
53502,113398,5
53513,113405,4
53488,113399,5
53514,113408,5
53513,113413,5
53522,113416,5
53495,113424,4
53523,113428,6
53524,113445,4
53523,113449,5
53524,113453,5
53538,113475,4
53547,113486,5
53543,113498,5
53574,113522,5
53554,113509,5
53551,113519,4
53557,113507,5
53568,113506,5
53555,113491,5
53549,113472,4
53533,113457,5
53549,113460,5
53537,113457,5
53529,113452,5
53535,113452,4
53537,113465,5
53538,113469,5
53542,113484,6
53542,113492,4
53554,113492,4
53556,113518,5
53569,113521,5
53573,113522,5
53556,113512,5
53573,113525,4
53568,113531,5
53573,113529,5
53571,113514,5
53576,113535,5
53566,113527,5
53571,113538,4
53570,113538,5
53572,113531,5
53570,113530,5
53569,113533,4
53571,113546,5
53570,113535,5
53572,113538,5
53565,113533,5
53570,113562,4
53577,113545,5
53574,113541,5
53575,113539,6
53567,113547,3
53575,113527,5
53575,113539,5
53568,113532,5
53568,113533,5
53559,113525,4
53565,113527,5
53564,113526,5
53573,113547,5
53575,113541,5
53581,113547,4
53585,113551,5
53575,113555,5
53582,113559,5
53593,113586,5
53590,113580,4
53592,113584,5
53590,113584,5
53600,113598,5
53596,113597,5
53595,113581,5
53595,113582,4
53602,113593,5
53591,113598,5
53602,113592,6
53599,113597,3
53599,113588,5
53604,113591,5
53595,113595,5
53605,113596,4
53600,113601,5
53604,113592,5
53604,113600,5
53601,113602,5
53601,113599,4
53610,113599,5
53604,113597,5
53610,113608,5
53603,113605,5
53600,113595,4
53600,113600,5
53600,113602,5
53602,113602,5
53595,113595,5
53590,113592,4
53597,113592,6
53601,113585,4
53593,113589,5
53594,113589,5
53596,113592,6
53594,113591,3
53591,113586,5
53607,113602,5
53609,113619,4
53619,113625,4
53626,113636,5
53626,113640,5
53625,113642,5
53621,113636,4
53627,113630,5
53613,113614,5
53609,113607,5
53593,113591,5
53599,113584,4
53594,113580,5
53592,113570,5
53586,113568,5
53591,113573,5
53590,113570,4
53589,113584,5
53599,113598,6
53601,113601,4
53600,113603,5
53602,113607,4
53607,113593,5
53607,113604,5
53605,113605,5
53606,113605,5
53600,113613,4
53614,113604,5
53609,113612,5
53600,113613,5
53607,113612,4
53610,113616,4
53611,113617,5
53598,113608,5
53612,113614,5
53613,113612,4
53608,113614,5
53585,113622,5
53604,113626,5
53612,113628,5
53617,113635,4
53598,113638,5
53629,113635,5
53616,113634,6
53620,113637,4
53624,113628,4
53612,113616,5
53617,113612,5
53616,113605,5
53634,113620,5
53617,113628,4
53626,113636,5
53634,113647,5
53652,113651,5
53632,113661,5
53639,113671,4
53634,113671,5
53660,113686,5
53650,113686,5
53642,113673,4
53647,113689,4
53650,113684,5
53644,113684,5
53649,113690,5
53651,113704,5
53656,113683,4
53649,113703,5
53653,113708,5
53662,113724,6
53673,113707,3
53667,113732,5
53668,113750,5
53677,113759,5
53686,113758,5
53685,113780,4
53702,113789,5
53708,113797,5
53704,113813,5
53705,113809,5
53712,113813,4
53712,113816,5
53705,113840,5
53701,113812,5
53716,113822,5
53706,113823,4
53704,113841,5
53707,113822,5
53706,113823,5
53711,113822,5
53702,113830,5
53715,113811,4
53717,113819,5
53707,113822,5
53714,113825,4
53716,113822,5
53723,113841,5
53724,113847,5
53741,113869,5
53739,113875,4
53744,113896,5
53743,113901,5
53742,113886,5
53750,113895,5
53739,113886,4
53736,113881,5
53739,113869,5
53734,113851,5
53739,113852,5
53725,113853,4
53728,113851,5
53735,113857,5
53737,113875,5
53740,113876,5
53747,113889,4
53750,113893,6
53748,113899,4
53752,113905,5
53759,113913,5
53764,113922,4
53766,113921,5
53762,113924,5
53768,113932,5
53768,113939,4
53777,113940,5
53760,113938,5
53771,113938,5
53767,113924,5
53762,113924,4
53760,113925,5
53763,113922,5
53769,113922,5
53764,113919,5
53767,113921,4
53759,113924,5
53757,113928,5
53774,113934,5
53783,113933,5
53781,113956,4
53787,113961,5
53785,113961,6
53783,113968,4
53793,113974,5
53791,113982,4
53794,113987,5
53796,113990,5
53800,113987,5
53795,113999,5
53797,113999,4
53809,114009,5
53804,114014,5
53814,114030,5
53813,114023,4
53814,114025,4
53811,114026,5
53817,114033,5
53814,114024,5
53819,114034,4
53823,114036,5
53816,114046,5
53828,114038,5
53817,114046,5
53816,114047,4
53829,114062,5
53828,114068,5
53839,114073,6
53834,114065,4
53831,114079,4
53840,114080,5
53833,114086,5
53845,114088,5
53834,114084,5
53843,114099,4
53842,114079,5
53847,114098,5
53830,114102,5
53848,114103,5
53851,114101,4
53852,114104,5
53823,114098,5
53854,114109,5
53865,114121,4
53865,114126,4
53849,114129,5
53863,114142,5
53875,114137,5
53884,114155,5
53890,114165,4
53885,114164,5
53893,114178,5
53889,114191,5
53918,114200,4
53895,114193,5
53902,114204,5
53894,114194,5
53918,114186,5
53897,114192,4
53898,114178,5
53887,114171,5
53891,114155,5
53887,114149,5
53876,114151,4
53871,114144,5
53880,114153,5
53879,114160,5
53888,114178,5
53897,114188,4
53902,114191,5
53904,114210,5
53907,114208,5
53905,114217,4
53910,114198,5
53913,114232,4
53917,114228,5
53918,114235,5
53921,114235,4
53928,114247,5
53927,114260,5
53933,114267,5
53929,114287,5
53933,114272,4
53927,114275,5
53933,114272,5
53942,114307,5
53941,114277,5
53943,114278,4
53946,114280,5
53945,114311,5
53956,114302,5
53960,114326,5
53966,114335,4
53965,114337,5
53961,114333,5
53971,114334,5
53955,114334,5
53971,114324,4
53970,114333,6
53964,114347,4
53985,114351,5
53983,114362,5
53986,114369,4
53973,114370,5
53991,114372,5
53986,114366,5
53974,114375,4
53991,114365,5
53976,114368,5
53984,114369,5
53984,114371,5
53992,114386,4
53991,114381,5
53994,114393,5
54003,114399,5
54006,114406,5
54001,114414,4
54005,114424,5
54012,114417,5
54009,114419,5
54015,114432,5
54017,114430,4
54010,114432,5
54010,114429,6
54003,114427,4
54008,114420,5
54007,114407,4
54008,114410,5
54011,114412,5
54007,114416,5
54004,114409,5
53999,114406,4
54006,114401,5
54007,114416,5
54008,114414,5
54006,114406,4
53999,114404,4
54003,114401,5
53998,114386,5
53995,114387,5
53987,114383,4
53987,114374,5
53976,114366,5
53976,114359,5
53980,114358,5
53968,114353,4
53971,114337,5
53971,114351,5
53973,114341,5
53977,114338,5
53969,114339,4
53970,114351,5
53976,114346,5
53974,114342,5
53969,114347,5
53967,114343,4
53971,114346,5
53974,114342,5
53968,114324,5
53963,114332,5
53968,114318,4
53956,114314,5
53954,114308,5
53950,114306,5
53956,114301,4
53949,114305,4
53957,114306,5
53958,114298,5
53938,114290,5
53946,114281,5
53939,114269,3
53937,114244,5
53909,114218,5
53902,114192,5
53882,114165,4
53874,114144,5
53874,114132,5
53866,114126,5
53849,114137,5
53861,114128,4
53867,114127,5
53867,114142,5
53849,114143,5
53873,114127,5
53869,114120,4
53866,114116,5
53839,114110,5
53850,114100,5
53859,114111,5
53849,114103,4
53861,114093,6
53852,114094,4
53843,114092,5
53841,114089,4
53864,114062,6
53844,114074,3
53841,114066,5
53829,114064,5
53863,114058,4
53823,114054,5
53830,114054,5
53823,114045,5
53835,114042,5
53825,114045,4
53811,114045,5
53828,114043,5
53827,114028,5
53822,114032,5
53817,114018,4
53811,114010,5
53803,113991,5
53813,114003,5
53807,114014,5
53803,114006,4
53809,113991,5
53808,114006,6
53811,114017,4
53807,114015,5
53810,114001,4
53816,114022,5
53816,114024,5
53811,114009,5
53813,114022,4
53808,114007,4
53807,114012,5
53809,114007,5
53801,114032,5
53800,114010,4
53806,114001,5
53799,114005,5
53803,114018,5
53801,114002,5
53804,114013,4
53799,114015,5
53800,114013,5
53807,114008,5
53810,114020,5
53801,114003,4
53800,114009,5
53799,114005,5
53804,113999,6
53809,114000,4
53811,114005,4
53799,113992,5
53808,113999,5
53798,113993,5
53796,113983,5
53794,113982,4
53787,113981,5
53789,113984,5
53789,113977,5
53788,113978,4
53790,113965,4
53795,113963,5
53780,113957,5
53783,113963,5
53786,113965,4
53778,113961,5
53774,113959,5
53779,113946,5
53771,113957,5
53778,113951,5
53772,113939,4
53778,113941,5
53766,113925,5
53764,113924,6
53769,113936,3
53763,113938,5
53771,113932,5
53765,113943,5
53775,113940,5
53771,113942,4
53775,113949,5
53785,113969,8
53782,113975,2
53783,113972,5
53770,113963,4
53784,113956,5
53781,113958,5
53771,113940,5
53770,113933,5
53758,113918,4
53757,113896,5
53751,113886,5
53734,113870,5
53732,113866,4
53723,113861,6
53742,113860,4
53739,113869,5
53738,113870,5
53737,113872,6
53742,113880,3
53740,113866,5
53737,113870,5
53740,113866,5
53734,113873,4
53731,113873,5
53738,113869,5
53737,113858,5
53731,113866,5
53737,113868,4
53732,113866,5
53738,113865,5
53729,113854,5
53730,113851,5
53724,113848,4
53720,113856,5
53730,113853,5
53724,113852,5
53728,113852,5
53734,113847,4
53729,113850,6
53724,113870,4
53731,113863,5
53734,113856,4
53738,113861,4
53728,113847,5
53731,113851,5
53721,113838,5
53708,113842,4
53721,113840,5
53727,113843,5
53723,113843,5
53698,113837,5
53731,113846,4
53725,113839,5
53724,113846,5
53726,113848,5
53722,113849,5
53716,113845,4
53717,113843,5
53741,113850,5
53727,113860,5
53721,113846,5
53726,113841,4
53748,113833,5
53721,113837,6
53713,113831,4
53719,113841,5
53731,113832,4
53718,113824,5
53714,113832,5
53715,113835,5
53727,113828,4
53718,113844,4
53725,113843,5
53720,113842,5
53727,113833,5
53727,113857,4
53733,113848,5
53727,113852,5
53733,113825,5
53719,113850,5
53732,113848,5
53726,113852,4
53727,113831,5
53727,113845,5
53731,113846,5
53731,113843,4
53730,113853,5
53718,113839,5
53723,113837,6
53722,113840,4
53720,113861,4
53721,113829,5
53714,113824,5
53706,113823,5
53720,113843,5
53711,113807,4
53706,113796,5
53711,113802,5
53694,113807,5
53699,113797,4
53706,113794,4
53704,113795,5
53696,113795,5
53692,113791,5
53696,113791,4
53710,113795,5
53704,113796,5
53694,113782,5
53697,113792,5
53689,113788,5
53695,113787,4
53688,113784,5
53696,113766,5
53678,113765,5
53685,113765,4
53682,113741,5
53669,113737,5
53672,113743,5
53675,113744,5
53678,113735,4
53668,113734,5
53668,113734,5
53682,113730,5
53675,113733,5
53665,113735,4
53656,113722,5
53665,113713,5
53659,113719,5
53656,113717,5
53660,113705,4
53664,113712,5
53662,113711,5
53659,113712,5
53662,113722,4
53671,113732,6
53655,113719,4
53657,113706,5
53651,113704,5
53653,113685,4
53646,113669,5
53632,113644,5
53611,113614,5
53607,113585,5
53588,113573,4
53579,113561,5
53582,113548,5
53573,113551,5
53570,113547,5
53583,113545,4
53572,113544,5
53575,113547,5
53584,113560,5
53576,113549,5
53580,113558,4
53581,113552,5
53578,113548,5
53581,113542,5
53583,113550,5
53584,113560,4
53584,113545,6
53581,113548,4
53579,113557,5
53575,113548,4
53574,113541,4
53581,113543,5
53577,113540,5
53567,113549,5
53571,113542,4
53572,113536,5
53576,113545,5
53571,113543,5
53580,113540,5
53573,113532,4
53577,113541,5
53570,113534,5
53568,113535,5
53570,113526,5
53561,113517,4
53552,113515,5
53555,113498,5
53555,113499,5
53553,113489,5
53552,113485,4
53539,113479,5
53541,113485,6
53541,113483,4
53545,113474,5
53514,113466,4
53530,113465,5
53528,113466,5
53522,113444,5
53506,113433,4
53530,113448,4
53531,113445,5
53527,113440,5
53517,113435,5
53522,113438,4
53519,113431,5
53524,113440,5
53550,113438,5
53532,113454,5
53530,113454,5
53533,113460,4
53562,113470,5
53536,113469,5
53543,113486,6
53541,113491,3
53558,113495,5
53559,113498,5
53556,113497,5
53555,113502,5
53565,113508,4
53554,113507,5
53555,113496,5
53561,113503,5
53549,113486,5
53547,113490,4
53557,113493,5
53549,113494,5
53551,113467,5
53554,113496,4
53541,113491,4
53545,113486,5
53544,113470,5
53552,113483,5
53546,113480,5
53537,113481,4
53543,113485,5
53543,113483,5
53545,113481,5
53538,113480,5
53537,113500,4
53539,113467,5
53530,113463,5
53533,113463,5
53532,113484,4
53532,113448,5
53529,113459,5
53534,113456,5
53523,113460,5
53528,113462,4
53540,113463,5
53540,113473,5
53536,113473,5
53548,113472,5
53543,113484,4
53542,113485,5
53543,113487,5
53551,113475,5
53547,113492,5
53552,113498,4
53556,113509,5
53566,113511,5
53554,113520,5
53561,113523,4
53560,113505,5
53560,113514,4
53565,113512,5
53557,113509,5
53552,113491,4
53550,113477,5
53540,113484,5
53534,113473,5
53539,113469,5
53539,113479,4
53541,113477,5
53543,113480,5
53541,113487,5
53548,113494,5
53542,113509,4
53548,113518,5
53563,113505,5
53562,113520,5
53560,113522,5
53559,113527,4
53567,113524,5
53564,113527,5
53559,113528,5
53566,113535,5
53563,113529,4
53559,113522,6
53564,113520,4
53561,113527,5
53561,113536,4
53561,113517,4
53566,113523,5
53565,113520,5
53553,113519,5
53562,113525,4
53570,113521,5
53562,113529,5
53569,113538,5
53561,113525,5
53563,113530,4
53557,113520,5
53559,113517,5
53559,113502,5
53554,113504,5
53545,113504,4
53543,113502,5
53543,113500,5
53544,113503,6
53548,113491,4
53548,113489,4
53541,113491,5
53554,113505,5
53545,113506,5
53549,113503,5
53556,113516,4
53553,113504,5
53562,113512,5
53555,113503,5
53554,113522,4
53557,113522,4
53565,113524,5
53562,113524,5
53563,113528,5
53558,113516,4
53567,113525,5
53565,113528,5
53569,113530,5
53567,113542,5
53562,113537,5
53573,113541,4
53563,113536,5
53561,113527,5
53570,113531,6
53557,113523,3
53549,113524,5
53557,113537,5
53561,113530,5
53560,113526,5
53543,113538,4
53555,113529,5
53557,113531,5
53566,113532,5
53563,113523,5
53558,113522,4
53557,113521,5
53556,113517,5
53584,113509,5
53559,113517,5
53552,113516,4
53555,113513,5
53575,113502,5
53545,113492,5
53553,113502,4
53552,113502,5
53561,113502,4
53554,113495,5
53553,113486,5
53548,113502,6
53552,113494,3
53552,113490,5
53547,113486,5
53543,113492,5
53541,113475,4
53544,113494,5
53540,113488,5
53533,113486,5
53539,113458,5
53536,113478,4
53536,113476,5
53542,113476,5
53549,113476,5
53556,113498,5
53552,113508,5
53554,113505,4
53552,113522,5
53553,113518,5
53550,113509,5
53547,113492,4
53536,113498,6
53526,113471,4
53522,113436,5
53514,113439,4
53513,113444,6
53510,113404,3
53493,113403,5
53501,113387,5
53489,113398,4
53494,113396,5
53490,113394,5
53498,113393,5
53495,113399,5
53501,113398,4
53492,113399,5
53491,113401,5
53500,113394,5
53497,113394,5
53496,113388,4
53487,113387,5
53493,113377,5
53491,113381,5
53492,113384,5
53486,113369,4
53482,113367,5
53474,113366,6
53483,113355,4
53478,113353,5
53474,113350,4
53463,113348,5
53472,113359,5
53479,113359,5
53477,113367,5
53477,113358,4
53471,113344,5
53477,113338,5
53467,113330,5
53463,113328,4
53457,113315,5
53453,113298,5
53443,113292,5
53437,113281,5
53448,113288,4
53445,113282,5
53439,113277,5
53440,113278,5
53444,113279,5
53443,113287,4
53442,113284,5
53442,113282,5
53445,113280,6
53434,113284,4
53443,113286,4
53453,113286,5
53438,113281,5
53441,113287,5
53441,113273,5
53439,113268,4
53436,113274,5
53428,113264,5
53440,113278,5
53445,113277,5
53433,113285,4
53450,113294,5
53445,113295,5
53454,113293,5
53450,113299,4
53446,113299,4
53443,113288,5
53444,113295,5
53440,113294,5
53443,113289,5
53446,113278,4
53447,113288,5
53444,113281,5
53441,113273,6
53431,113278,3
53435,113274,5
53444,113273,5
53444,113288,5
53448,113282,5
53439,113286,4
53445,113292,5
53445,113302,5
53451,113292,5
53453,113303,5
53459,113300,4
53446,113313,5
53456,113312,5
53455,113308,5
53459,113304,5
53458,113302,4
53457,113301,5
53437,113316,5
53460,113316,5
53454,113317,4
53459,113328,5
53442,113330,4
53462,113326,5
53471,113337,5
53470,113335,4
53443,113352,5
53477,113358,5
53483,113370,5
53489,113387,5
53498,113392,4
53497,113401,5
53498,113396,5
53503,113392,5
53509,113394,5
53490,113380,4
53487,113391,5
53477,113361,5
53497,113342,5
53473,113345,5
53476,113343,4
53454,113332,5
53469,113326,5
53464,113334,5
53476,113338,5
53467,113340,4
53473,113350,6
53468,113350,4
53478,113353,5
53477,113368,5
53485,113354,4
53483,113373,5
53483,113379,5
53493,113385,5
53489,113369,4
53497,113396,4
53498,113394,5
53496,113398,5
53497,113396,5
53502,113396,4
53502,113397,6
53493,113396,4
53493,113413,5
53495,113390,5
53502,113411,4
53506,113415,5
53493,113446,5
53503,113423,5
53509,113431,5
53516,113436,4
53518,113448,5
53509,113432,6
53509,113434,4
53510,113428,5
53518,113428,4
53511,113416,5
53513,113412,5
53514,113428,5
53514,113422,5
53522,113442,4
53514,113443,5
53518,113436,5
53515,113459,5
53530,113453,4
53523,113453,4
53531,113465,5
53526,113471,5
53534,113471,5
53531,113483,4
53534,113461,5
53529,113474,5
53538,113481,5
53539,113494,5
53545,113498,4
53549,113493,5
53552,113495,5
53552,113516,6
53560,113519,4
53556,113530,4
53567,113531,5
53558,113534,5
53562,113541,5
53569,113545,5
53568,113541,4
53565,113556,5
53575,113556,5
53569,113552,5
53577,113552,5
53575,113556,4
53569,113552,5
53570,113553,5
53567,113560,5
53574,113556,4
53581,113563,4
53573,113567,5
53577,113561,5
53575,113557,5
53576,113568,5
53586,113573,4
53584,113575,5
53577,113578,5
53588,113573,5
53589,113587,4
53586,113592,5
53587,113580,5
53597,113594,5
53601,113601,5
53612,113609,4
53609,113621,5
53612,113641,5
53624,113673,5
53639,113697,5
53636,113709,4
53650,113716,5
53645,113713,5
53654,113710,5
53654,113703,5
53649,113706,4
53643,113685,5
53638,113670,5
53631,113673,5
53630,113656,5
53625,113656,5
53623,113650,4
53612,113632,5
53624,113647,5
53616,113643,4
53628,113657,5
53630,113657,5
53621,113664,5
53631,113665,5
53629,113675,4
53634,113663,5
53631,113663,5
53630,113660,5
53619,113673,5
53625,113666,4
53620,113661,5
53626,113651,5
53615,113665,5
53630,113661,5
53625,113662,4
53624,113651,5
53598,113648,5
53617,113652,5
53621,113638,5
53612,113635,4
53598,113638,6
53621,113635,4
53613,113636,5
53616,113642,5
53629,113654,4
53620,113642,5
53617,113645,5
53614,113646,5
53635,113652,4
53620,113645,4
53614,113644,5
53612,113635,5
53639,113644,5
53614,113631,4
53618,113629,5
53612,113649,5
53631,113641,5
53617,113649,5
53619,113657,4
53621,113656,5
53626,113641,5
53623,113656,5
53621,113651,5
53624,113664,4
53630,113648,5
53630,113665,6
53631,113670,4
53644,113675,5
53634,113667,4
53646,113698,5
53641,113708,5
53646,113710,5
53651,113719,5
53650,113721,4
53662,113718,5
53658,113732,5
53659,113747,5
53658,113731,4
53659,113730,4
53665,113735,5
53659,113762,5
53664,113726,5
53669,113747,4
53659,113730,5
53661,113745,5
53665,113737,5
53671,113746,6
53680,113751,3
53667,113749,5
53660,113755,5
53679,113756,5
53673,113760,5
53675,113774,4
53679,113769,5
53682,113780,5
53685,113781,5
53686,113788,5
53696,113792,4
53696,113821,5
53716,113836,5
53712,113845,5
53724,113852,5
53720,113878,4
53732,113876,5
53727,113870,5
53724,113868,5
53717,113867,5
53722,113861,4
53721,113842,5
53710,113832,5
53709,113825,5
53707,113821,5
53711,113820,4
53705,113820,5
53710,113820,5
53712,113840,5
53714,113848,4
53722,113857,5
53728,113866,5
53735,113874,5
53724,113873,5
53720,113865,4
53730,113866,5
53726,113859,5
53726,113861,5
53726,113867,5
53733,113873,4
53726,113862,5
53730,113869,5
53729,113871,5
53733,113862,5
53732,113871,4
53723,113862,6
53725,113884,4
53729,113878,5
53736,113877,5
53737,113886,6
53733,113887,3
53742,113897,5
53746,113900,5
53752,113901,4
53753,113923,4
53756,113924,5
53757,113913,5
53754,113932,5
53759,113925,4
53751,113923,5
53752,113908,5
53753,113908,5
53747,113917,5
53744,113922,4
53756,113920,5
53753,113939,5
53763,113930,5
53765,113946,5
53763,113947,4
53772,113942,5
53766,113954,6
53785,113965,4
53774,113964,5
53773,113974,4
53788,113973,5
53776,113981,5
53785,113985,5
53797,113998,5
53801,113997,4
53801,114010,5
53804,114015,5
53807,114017,5
53807,114022,4
53800,114011,4
53803,114015,5
53804,114030,5
53791,114025,5
53804,114025,4
53817,114033,5
53811,114045,5
53798,114043,5
53816,114052,5
53818,114047,4
53820,114056,5
53810,114047,5
53828,114053,6
53818,114051,4
53828,114048,4
53842,114053,5
53817,114052,5
53816,114048,5
53824,114059,5
53851,114050,4
53824,114063,5
53827,114061,5
53825,114056,5
53845,114048,5
53828,114054,4
53815,114057,5
53826,114064,5
53834,114079,5
53833,114075,5
53830,114082,4
53841,114089,5
53839,114082,5
53844,114099,5
53845,114109,5
53862,114126,4
53858,114107,5
53866,114135,5
53872,114144,6
53871,114141,3
53868,114123,5
53869,114136,5
53870,114147,5
53863,114125,5
53846,114106,4
53845,114094,5
53834,114078,5
53832,114067,5
53822,114085,5
53824,114066,4
53839,114077,5
53846,114088,5
53845,114113,5
53843,114092,5
53845,114093,4
53837,114085,5
53846,114088,5
53840,114075,5
53834,114079,5
53837,114073,5
53827,114077,4
53838,114073,5
53840,114084,5
53829,114074,6
53838,114078,3
53834,114070,5
53830,114051,5
53833,114069,5
53828,114058,4
53818,114067,5
53820,114047,5
53820,114037,5
53817,114048,5
53820,114048,4
53808,114043,5
53811,114045,5
53809,114032,5
53809,114039,5
53809,114030,4
53814,114021,5
53812,114017,5
53803,113997,5
53800,113999,5
53804,113997,4
53787,113997,6
53795,113992,4
53787,113989,5
53796,113993,5
53789,113986,4
53803,113991,5
53786,113985,5
53795,113985,5
53784,113981,7
53786,113964,2
53787,113959,5
53806,113963,5
53774,113961,5
53766,113956,4
53772,113947,5
53771,113948,5
53763,113937,5
53761,113942,5
53756,113930,4
53766,113936,5
53770,113947,5
53767,113945,5
53775,113951,5
53773,113955,4
53769,113961,5
53771,113949,6
53773,113949,4
53764,113936,5
53766,113941,4
53768,113939,5
53757,113937,5
53755,113920,5
53752,113909,5
53742,113904,4
53738,113906,5
53746,113898,5
53743,113902,5
53743,113887,4
53736,113880,4
53730,113860,5
53715,113844,5
53715,113824,5
53711,113825,4
53695,113791,5
53682,113763,5
53670,113726,5
53646,113697,5
53622,113659,4
53609,113622,5
53591,113574,5
53569,113536,6
53544,113480,4
53516,113423,4
53483,113381,5
53465,113342,5
53446,113289,5
53420,113247,5
53397,113223,4
53393,113185,5
53379,113160,5
53368,113133,5
53333,113118,5
53339,113078,4
53325,113052,5
53289,112996,5
53248,112935,5
53236,112889,4
53217,112823,4
53181,112761,5
53138,112694,5
53101,112606,5
53066,112549,5
53046,112479,4
53038,112426,5
52989,112381,5
52974,112336,6
52946,112309,3
52962,112272,5
52913,112235,5
52898,112203,5
52874,112149,5
52859,112084,4
52827,112031,5
52793,111984,5
52773,111924,5
52747,111880,5
52719,111820,4
52706,111759,5
52665,111706,5
52628,111618,5
52588,111564,5
52569,111502,4
52539,111447,5
52515,111371,5
52482,111333,5
52457,111281,5
52432,111232,5
52398,111164,4
52374,111115,5
52352,111079,5
52328,111024,4
52288,110958,5
52262,110887,5
52224,110813,5
52192,110740,5
52149,110675,4
52105,110582,5
52070,110509,5
52049,110453,5
52034,110435,5
52001,110351,4
51965,110287,5
51934,110222,5
51906,110165,5
51870,110095,5
51849,110040,4
51816,109981,5
51790,109946,5
51770,109882,5
51739,109831,5
51714,109771,4
51679,109716,6
51666,109664,4
51630,109605,5
51613,109562,4
51587,109516,4
51573,109482,5
51554,109436,5
51535,109386,5
51506,109351,4
51483,109317,5
51465,109269,5
51449,109244,5
51433,109210,5
51417,109194,4
51412,109175,5
51401,109154,5
51396,109123,5
51385,109130,5
51396,109135,4
51390,109141,5
51411,109162,5
51417,109184,5
51426,109201,5
51453,109243,4
51462,109278,5
51479,109308,6
51517,109387,4
51533,109431,5
51563,109484,4
51610,109555,5
51637,109625,5
51669,109695,5
51709,109765,4
51741,109841,4
51788,109930,5
51832,110020,5
51866,110082,5
51894,110137,4
51921,110186,5
51940,110217,5
51951,110223,5
51949,110233,5
51934,110209,4
51929,110184,5
51930,110178,5
51933,110179,5
51929,110164,5
51908,110157,4
51927,110171,5
51921,110156,5
51919,110153,5
51916,110148,5
51915,110127,4
51901,110112,5
51902,110121,5
51915,110116,5
51907,110108,5
51899,110084,4
51909,110097,5
51909,110116,5
51913,110109,5
51916,110118,4
51916,110127,4
51930,110141,5
51943,110178,5
51948,110190,5
51958,110179,4
51933,110132,5
51910,110071,5
51895,110025,5
51855,109949,5
51806,109841,5
51741,109692,4
51662,109569,5
51623,109492,5
51590,109419,5
51565,109359,4
51534,109320,5
51527,109308,5
51530,109279,5
51496,109206,5
51454,109192,4
51472,109192,5
51470,109157,5
51421,109057,5
51366,108978,5
51349,108920,4
51306,108802,5
51226,108661,5
51156,108465,5
51062,108301,4
50995,108177,5
50972,108162,5
50990,108134,5
50915,108015,5
50861,107901,4
50817,107800,6
50730,107569,4
50622,107383,5
50565,107277,5
50504,107132,4
50412,106923,5
50320,106753,5
50249,106578,5
50185,106446,5
50103,106270,4
50038,106153,5
49993,106072,5
49948,105938,5
49885,105780,5
49794,105613,4
49754,105540,5
49731,105503,5
49709,105455,5
49690,105417,5
49645,105326,5
49640,105314,4
49631,105320,5
49629,105309,5
49645,105328,4
49629,105298,5
49622,105311,6
49623,105300,4
49624,105273,5
49613,105237,4
49594,105236,5
49596,105233,5
49598,105227,5
49600,105242,5
49609,105259,4
49619,105265,5
49606,105237,5
49596,105200,5
49566,105140,5
49553,105123,4
49548,105106,5
49519,105084,5
49517,105062,5
49530,105079,5
49526,105075,4
49529,105064,5
49529,105085,5
49532,105080,5
49535,105078,5
49529,105071,4
49538,105099,5
49542,105118,5
49539,105100,5
49551,105126,4
49574,105163,5
49587,105194,5
49589,105187,5
49586,105191,5
49607,105239,4
49624,105262,5
49624,105257,5
49633,105269,5
49625,105279,5
49638,105288,4
49641,105279,5
49628,105265,5
49623,105262,5
49625,105266,5
49640,105291,5
49661,105323,4
49656,105325,5
49662,105342,5
49675,105336,6
49649,105299,3
49626,105244,5
49606,105223,5
49612,105235,5
49621,105242,5
49635,105267,4
49647,105296,5
49674,105351,5
49691,105411,5
49732,105472,4
49752,105498,5
49746,105496,5
49756,105517,5
49757,105521,5
49759,105526,4
49770,105544,5
49801,105571,5
49813,105621,5
49837,105677,5
49843,105714,4
49883,105766,6
49899,105789,4
49895,105805,5
49916,105840,5
49943,105889,6
49983,105964,3
50006,106023,5
50034,106061,5
50042,106062,5
50037,106082,4
50065,106131,5
50090,106189,5
50112,106215,5
50120,106220,4
50130,106254,4
50119,106236,5
50120,106204,5
50097,106178,5
50081,106158,4
50080,106119,5
50029,105991,5
49965,105921,5
49945,105854,5
49916,105792,4
49871,105704,5
49872,105746,6
49915,105874,4
50034,106081,5
50122,106224,4
50151,106269,5
50141,106304,5
50160,106272,5
50140,106232,5
50103,106162,4
50069,106110,5
50065,106099,5
50060,106068,5
50027,106000,5
50014,105967,4
50002,105945,5
49975,105904,5
49996,105966,5
50030,105977,9
49987,105940,5
50016,106028,7
50075,106122,5
50091,106109,8
49906,105778,7
49906,105778,5
49929,105765,8
49939,105842,7
49933,105813,5
49912,105811,8
49938,105896,7
50006,106040,5
50105,106136,10
50105,106136,9
50046,106048,8
50045,106098,7
50096,106166,5
50081,106131,8
50081,106131,7
50030,106060,10
50019,106002,7
49985,105979,5
50047,106075,8
50047,106075,7
50034,106033,5
50012,105995,8
49984,105900,7
49975,105924,5
49980,106001,8
50038,106037,7
50237,106478,7
50237,106478,8
50321,106698,7
50422,106810,5
50408,106822,10
50483,106948,5
50585,107192,5
51066,108171,10
51066,108171,5
51172,108361,5
51242,108515,10
51319,108689,5
51422,108884,5
51759,109534,10
51759,109534,5
51813,109642,5
51877,109723,10
51896,109807,5
51905,109833,5
51921,109867,10
51948,109924,5
52209,110470,10
52209,110470,10
52296,110650,10
52661,111371,7
52661,111371,5
52665,111459,7
52732,111537,8
52790,111618,5
52824,111700,7
52862,111801,8
53041,112118,9
53041,112118,8
53052,112129,5
53083,112197,7
53099,112227,8
53109,112231,5
53108,112256,7
53213,112508,8
53213,112508,5
53259,112554,7
53304,112671,8
53347,112769,9
53473,113022,8
53473,113022,5
53508,113049,7
53497,113084,8
53508,113107,5
53522,113135,7
53530,113184,8
53547,113203,5
53561,113208,7
53561,113208,8
53564,113219,5
53567,113230,7
53564,113251,8
53592,113277,5
53601,113318,7
53682,113456,8
53682,113456,5
53679,113440,7
53675,113450,8
53677,113436,7
53672,113431,5
53643,113414,8
53648,113405,7
53655,113406,7
53655,113406,8
53653,113403,7
53665,113410,5
53664,113411,8
53666,113406,7
53650,113387,5
53660,113397,8
53660,113397,7
53664,113408,10
53669,113424,2
53672,113435,1
53656,113423,5
53678,113439,5
53687,113473,5
53694,113492,4
53698,113483,5
53702,113509,5
53718,113521,5
53710,113525,5
53727,113544,4
53724,113548,5
53739,113554,5
53731,113563,5
53737,113588,5
53727,113560,4
53738,113566,5
53738,113562,5
53747,113589,5
53739,113564,5
53745,113572,5
53741,113574,4
53735,113581,5
53747,113578,5
53742,113581,5
53753,113575,4
53744,113591,5
53746,113600,5
53750,113603,5
53766,113619,4
53769,113630,4
53761,113637,5
53775,113658,5
53797,113675,5
53799,113686,4
53807,113705,5
53816,113713,5
53816,113733,5
53822,113730,5
53832,113748,4
53834,113756,5
53842,113784,5
53847,113783,5
53851,113782,5
53850,113779,4
53849,113785,6
53851,113787,4
53851,113792,5
53854,113804,5
53859,113804,4
53851,113792,5
53846,113789,5
53846,113772,5
53840,113761,5
53823,113723,4
53813,113701,5
53809,113700,5
53804,113709,5
53810,113708,5
53812,113717,4
53818,113731,5
53835,113748,5
53827,113761,5
53848,113777,4
53861,113799,5
53868,113829,5
53872,113834,5
53881,113848,5
53895,113866,4
53905,113889,5
53909,113911,6
53918,113923,4
53924,113938,5
53930,113941,4
53934,113947,5
53932,113955,5
53927,113951,5
53941,113960,5
53926,113959,4
53938,113960,5
53934,113958,5
53935,113964,5
53941,113972,5
53943,113972,4
53952,113985,5
53948,113994,5
53950,114005,5
53960,114020,5
53952,113999,4
53961,114018,5
53958,114000,5
53955,113992,5
53940,113982,4
53932,113962,4
53940,113968,5
53939,113973,5
53937,113976,5
53941,113988,4
53951,113992,5
53950,114003,5
53952,114008,5
53958,114002,5
53961,114003,4
53958,114017,5
53954,114015,5
53958,114002,5
53952,113996,5
53940,114000,4
53950,113985,5
53941,113974,5
53942,113972,5
53920,113970,5
53930,113966,4
53934,113968,5
53931,113972,5
53910,113969,5
53941,113977,5
53938,113959,4
53935,113984,5
53934,113981,5
53940,113979,5
53943,113980,5
53947,113976,4
53957,113967,5
53934,113964,5
53933,113957,5
53943,113954,4
53940,113949,5
53915,113947,5
53915,113931,5
53908,113931,5
53931,113927,4
53914,113935,5
53912,113938,5
53921,113934,5
53925,113932,5
53920,113933,4
53919,113934,6
53919,113937,4
53919,113930,5
53919,113920,5
53920,113925,6
53916,113927,3
53919,113924,5
53929,113957,5
53934,113952,5
53932,113971,4
53932,113955,5
53934,113983,5
53942,113979,5
53949,113988,5
53951,114004,4
53947,114000,5
53951,114000,5
53945,114006,5
53948,114025,4
53950,114004,4
53951,114021,5
53964,114027,5
53975,114070,5
53986,114060,4
53985,114076,5
53994,114082,5
53997,114101,5
54003,114114,5
54007,114126,4
54023,114137,6
54023,114151,4
54032,114153,5
54033,114175,5
54044,114191,4
54051,114208,5
54058,114218,5
54068,114229,5
54062,114225,5
54061,114205,4
54046,114203,5
54048,114193,5
54040,114176,5
54024,114152,5
54028,114139,4
54028,114146,5
54027,114162,5
54022,114152,5
54031,114170,4
54037,114184,4
54047,114193,5
54055,114211,6
54054,114218,4
54067,114234,4
54072,114232,5
54077,114251,5
54080,114255,5
54079,114272,5
54083,114286,4
54094,114314,5
54106,114310,5
54107,114334,5
54115,114335,5
54126,114366,4
54123,114372,5
54132,114375,5
54138,114379,5
54143,114385,5
54140,114392,4
54148,114391,5
54141,114397,5
54150,114408,5
54149,114423,5
54156,114431,4
54172,114438,5
54174,114459,5
54177,114458,6
54175,114461,4
54180,114462,4
54169,114448,5
54188,114456,5
54171,114457,5
54168,114454,4
54175,114449,4
54178,114466,5
54186,114458,5
54181,114475,5
54182,114493,4
54194,114499,5
54195,114499,5
54205,114518,5
54205,114516,5
54214,114529,4
54216,114541,5
54224,114555,5
54215,114562,5
54225,114570,5
54228,114571,5
54235,114581,4
54243,114587,5
54240,114594,5
54246,114610,6
54258,114616,3
54254,114624,5
54263,114620,5
54256,114622,5
54271,114642,5
54269,114650,4
54271,114643,5
54275,114660,5
54272,114665,5
54281,114662,4
54265,114687,4
54282,114680,5
54279,114690,5
54288,114691,5
54266,114691,4
54299,114692,5
54292,114707,5
54294,114710,5
54286,114719,5
54300,114714,4
54297,114718,6
54317,114727,4
54317,114739,5
54322,114734,5
54323,114749,6
54309,114750,3
54333,114749,5
54316,114759,5
54316,114756,5
54316,114745,4
54346,114758,5
54313,114759,5
54328,114763,5
54328,114758,5
54342,114776,4
54331,114775,5
54328,114770,5
54332,114781,5
54338,114785,5
54337,114787,4
54342,114803,5
54343,114794,5
54343,114786,5
54341,114789,4
54343,114803,4
54340,114794,6
54341,114768,4
54342,114785,5
54340,114785,5
54340,114784,4
54330,114776,5
54334,114784,5
54338,114792,5
54345,114788,4
54351,114809,5
54352,114803,5
54348,114814,5
54349,114806,5
54344,114837,4
54348,114816,5
54343,114815,5
54354,114814,5
54357,114838,5
54365,114826,4
54367,114848,5
54368,114853,5
54372,114858,5
54357,114846,5
54362,114829,4
54353,114814,5
54348,114796,6
54338,114772,4
54316,114746,5
54305,114710,4
54305,114707,5
54297,114714,5
54291,114709,5
54297,114703,4
54304,114709,5
54302,114718,5
54299,114724,5
54308,114728,5
54304,114738,4
54319,114735,5
54318,114753,5
54324,114766,5
54329,114760,5
54323,114779,4
54321,114779,5
54331,114782,5
54333,114775,5
54330,114769,5
54320,114767,4
54323,114756,5
54311,114750,5
54303,114741,6
54305,114726,4
54304,114727,4
54299,114712,5
54298,114711,7
54300,114707,3
54297,114725,5
54289,114713,4
54307,114734,5
54296,114739,5
54313,114739,5
54309,114746,4
54311,114746,4
54312,114757,5
54311,114749,5
54310,114755,5
54300,114741,4
54311,114747,5
54311,114750,5
54312,114743,5
54309,114747,5
54302,114739,5
54305,114751,4
54313,114750,5
54307,114755,5
54316,114767,6
54315,114766,3
54314,114779,5
54321,114785,5
54322,114779,5
54325,114787,5
54328,114801,4
54323,114801,5
54326,114806,5
54332,114805,5
54336,114802,5
54334,114814,4
54329,114803,5
54322,114801,5
54324,114790,5
54319,114779,5
54320,114777,4
54304,114747,5
54299,114736,5
54294,114727,5
54292,114721,4
54279,114710,6
54283,114709,4
54274,114697,5
54269,114690,5
54261,114675,4
54261,114663,5
54247,114652,5
54248,114644,5
54249,114634,5
54238,114617,4
54217,114607,5
54217,114582,5
54204,114570,5
54195,114547,5
54172,114517,4
54171,114493,5
54164,114471,5
54149,114460,5
54131,114437,5
54134,114422,4
54134,114418,5
54131,114399,5
54118,114388,5
54114,114363,5
54102,114344,4
54085,114332,6
54104,114320,4
54085,114320,5
54078,114313,4
54076,114296,4
54102,114299,5
54079,114291,5
54062,114275,5
54056,114244,4
54055,114219,5
54031,114191,5
54019,114172,5
53996,114133,5
53972,114092,4
53968,114076,5
53953,114073,5
53956,114060,5
53946,114058,5
53954,114073,4
53961,114071,5
53964,114086,5
53965,114065,5
53952,114077,5
53961,114081,4
53974,114078,4
53965,114075,6
53964,114083,4
53954,114073,5
53955,114063,4
53951,114068,5
53952,114064,5
53951,114058,5
53954,114062,5
53956,114077,4
53960,114056,5
53953,114053,5
53949,114055,5
53949,114082,4
53954,114056,4
53948,114065,5
53959,114081,5
53961,114099,5
53962,114094,4
53963,114094,5
53961,114085,5
53963,114096,5
53962,114097,5
53957,114076,4
53951,114064,5
53947,114052,5
53936,114045,6
53940,114055,4
53942,114050,4
53947,114071,5
53943,114068,5
53958,114080,5
53959,114084,5
53961,114083,4
53969,114092,5
53964,114103,5
53968,114087,5
53969,114099,5
53957,114093,4
53961,114100,5
53958,114100,5
53971,114112,5
53968,114104,4
53979,114114,4
53970,114123,5
53981,114133,5
53992,114153,5
53984,114162,5
53997,114170,4
54007,114175,5
54003,114186,5
54005,114187,5
54006,114187,4
54010,114193,5
54012,114193,5
54016,114190,5
54005,114186,5
54005,114189,4
53994,114182,5
53996,114178,5
53992,114168,5
53989,114155,5
53983,114140,4
53979,114143,5
53987,114150,5
53983,114143,5
53985,114148,5
53983,114142,4
53986,114153,5
53993,114166,5
53994,114170,5
53995,114175,5
54005,114172,5
53995,114170,4
54002,114182,5
53994,114176,5
54005,114176,4
54009,114181,4
54010,114185,5
53999,114181,5
54005,114203,5
54017,114212,4
54023,114223,5
54027,114225,5
54024,114224,5
54018,114212,5
54014,114200,4
54009,114172,5
53997,114170,5
53978,114140,5
53969,114108,5
53960,114088,4
53964,114089,5
53956,114078,5
53955,114081,5
53947,114073,5
53948,114071,4
53957,114081,6
53956,114079,4
53963,114089,5
53963,114098,5
53968,114103,4
53962,114109,5
53972,114113,5
53971,114122,5
53975,114124,4
53962,114135,4
53987,114143,5
53984,114142,5
53986,114153,5
53969,114154,4
53986,114149,5
53994,114159,5
54004,114158,5
53991,114173,5
53999,114177,4
54008,114203,5
54016,114207,5
54037,114227,5
54037,114232,5
54033,114249,4
54043,114251,5
54063,114244,5
54041,114239,5
54041,114246,5
54035,114242,4
54042,114229,5
54033,114231,5
54032,114239,5
54040,114235,5
54041,114243,4
54048,114251,5
54049,114267,5
54052,114290,5
54062,114280,5
54059,114304,4
54074,114302,5
54071,114311,5
54073,114307,5
54087,114342,4
54086,114340,4
54089,114361,5
54109,114359,5
54101,114387,5
54110,114389,4
54120,114421,4
54126,114440,5
54141,114457,5
54150,114467,5
54158,114479,4
54154,114513,5
54162,114498,5
54168,114497,5
54171,114502,5
54168,114540,4
54178,114520,5
54183,114529,5
54184,114538,5
54175,114545,5
54181,114551,4
54192,114553,5
54191,114559,5
54187,114559,5
54194,114562,5
54198,114555,5
54194,114556,4
54192,114553,5
54193,114556,5
54196,114558,6
54190,114557,3
54200,114567,5
54199,114573,5
54207,114566,5
54213,114584,4
54221,114613,5
54236,114636,5
54241,114651,5
54245,114662,5
54256,114674,4
54249,114669,5
54248,114653,5
54233,114650,5
54236,114639,5
54229,114611,4
54219,114609,5
54217,114613,5
54217,114604,5
54212,114606,5
54219,114615,4
54237,114629,6
54240,114630,4
54231,114640,5
54235,114658,5
54249,114668,6
54256,114689,3
54262,114685,5
54260,114702,5
54266,114708,5
54262,114711,4
54270,114707,5
54268,114708,5
54277,114722,5
54276,114731,4
54283,114736,5
54288,114733,5
54280,114735,5
54278,114736,5
54285,114736,4
54286,114748,5
54288,114752,5
54282,114739,5
54291,114750,5
54290,114749,4
54299,114743,5
54297,114766,6
54296,114755,4
54290,114748,5
54292,114749,4
54287,114746,5
54295,114747,5
54293,114741,5
54286,114738,5
54285,114755,4
54288,114744,5
54288,114756,5
54292,114760,5
54292,114764,5
54292,114767,4
54305,114774,5
54300,114790,5
54313,114794,5
54317,114801,4
54322,114815,4
54323,114807,5
54328,114819,5
54320,114808,5
54331,114824,4
54326,114834,5
54328,114824,5
54334,114833,6
54335,114848,4
54342,114863,4
54340,114868,5
54342,114874,5
54349,114859,5
54348,114860,5
54350,114853,4
54331,114865,5
54343,114863,5
54345,114859,5
54344,114860,5
54314,114856,4
54334,114853,5
54339,114843,5
54337,114836,5
54329,114818,5
54319,114823,4
54318,114812,5
54323,114822,5
54338,114808,5
54318,114812,5
54325,114816,4
54331,114811,5
54342,114816,5
54324,114816,6
54321,114820,3
54326,114821,5
54327,114826,5
54325,114825,5
54342,114831,5
54329,114841,4
54347,114846,5
54342,114844,5
54344,114836,5
54321,114827,5
54321,114804,4
54324,114801,5
54319,114788,5
54301,114772,5
54290,114733,5
54286,114756,4
54290,114759,5
54298,114753,5
54293,114734,5
54291,114748,5
54297,114760,5
54304,114756,4
54297,114771,5
54303,114774,5
54297,114777,6
54307,114791,3
54311,114812,5
54315,114788,5
54308,114787,5
54306,114798,4
54311,114821,4
54322,114808,5
54315,114808,5
54317,114807,5
54324,114822,4
54322,114819,5
54325,114811,5
54330,114814,5
54326,114817,5
54318,114806,4
54320,114815,5
54330,114822,5
54335,114824,5
54327,114820,5
54328,114832,4
54344,114840,6
54350,114849,4
54345,114847,5
54346,114846,5
54336,114852,4
54341,114848,5
54338,114847,5
54333,114825,5
54329,114836,5
54331,114824,4
54326,114841,5
54334,114842,5
54344,114849,5
54337,114861,4
54343,114861,4
54351,114875,5
54355,114883,9
54354,114880,2
54363,114908,3
54372,114881,5
54381,114924,5
54374,114918,5
54383,114920,5
54383,114927,4
54379,114933,5
54390,114945,6
54390,114962,4
54402,114963,5
54395,114971,4
54395,114976,5
54405,114979,5
54404,114982,5
54403,114978,5
54402,114969,4
54398,114973,5
54414,114983,5
54407,114982,5
54415,114997,5
54411,114999,4
54409,115008,5
54424,115009,5
54421,115013,5
54416,115012,5
54422,115025,4
54433,115019,5
54432,115030,5
54438,115032,5
54437,115039,4
54436,115051,4
54440,115059,5
54448,115057,6
54457,115068,4
54463,115083,4
54457,115090,5
54464,115100,5
54465,115114,5
54472,115107,5
54465,115107,4
54473,115101,5
54468,115092,5
54462,115084,5
54460,115076,5
54455,115060,4
54444,115042,5
54438,115054,5
54436,115044,5
54433,115044,5
54449,115047,4
54453,115057,5
54449,115072,5
54449,115081,5
54466,115087,5
54466,115095,4
54467,115097,5
54458,115101,5
54478,115117,6
54468,115114,3
54469,115124,4
54458,115132,5
54490,115148,5
54491,115156,5
54502,115171,4
54484,115178,5
54503,115194,5
54516,115187,5
54512,115192,5
54513,115185,4
54510,115191,5
54513,115199,5
54515,115198,5
54535,115197,5
54510,115198,4
54517,115199,5
54523,115213,5
54555,115219,5
54532,115218,5
54536,115239,5
54531,115236,4
54544,115235,5
54528,115230,5
54526,115221,5
54532,115225,4
54528,115226,5
54529,115230,5
54531,115239,5
54532,115243,5
54539,115232,4
54541,115240,5
54543,115253,5
54541,115256,5
54545,115243,4
54546,115271,5
54539,115264,5
54558,115261,5
54555,115265,5
54555,115269,4
54557,115274,5
54553,115283,5
54560,115299,5
54575,115294,5
54567,115295,4
54568,115301,6
54562,115324,4
54572,115305,5
54567,115305,5
54579,115301,4
54570,115319,5
54566,115301,5
54564,115307,5
54568,115315,5
54576,115314,4
54572,115312,5
54579,115317,5
54583,115329,5
54576,115322,5
54588,115342,4
54581,115334,5
54585,115340,5
54588,115340,5
54590,115349,4
54597,115355,4
54597,115364,5
54595,115353,5
54593,115352,5
54595,115362,4
54596,115353,5
54585,115361,6
54603,115360,4
54592,115368,5
54608,115360,4
54595,115356,5
54597,115358,5
54596,115370,5
54603,115364,5
54600,115357,4
54591,115346,5
54593,115350,5
54589,115343,5
54586,115325,5
54578,115317,4
54573,115293,5
54565,115283,5
54562,115280,5
54558,115287,5
54567,115294,4
54566,115308,5
54579,115314,5
54581,115327,5
54577,115325,5
54577,115325,4
54576,115311,5
54578,115309,5
54585,115307,5
54578,115321,4
54584,115310,5
54578,115311,5
54578,115317,5
54572,115313,5
54578,115318,4
54572,115307,5
54582,115309,5
54574,115304,5
54576,115290,5
54557,115279,4
54557,115262,5
54546,115259,5
54547,115253,5
54546,115243,5
54543,115245,4
54538,115245,5
54538,115254,5
54547,115257,5
54554,115253,5
54549,115250,4
54536,115247,5
54544,115248,5
54535,115241,5
54540,115230,5
54537,115229,4
54530,115225,5
54531,115226,5
54531,115219,5
54536,115215,4
54520,115220,4
54528,115216,5
54518,115216,5
54529,115217,5
54522,115201,4
54519,115206,5
54517,115212,5
54523,115204,5
54519,115203,5
54523,115214,4
54521,115212,5
54525,115216,4
54504,115214,5
54518,115202,5
54516,115199,5
54519,115188,4
54497,115204,5
54502,115188,5
54504,115178,5
54514,115174,4
54493,115170,5
54502,115165,5
54495,115165,5
54501,115151,5
54514,115157,4
54501,115156,5
54502,115152,5
54504,115154,5
54519,115159,4
54496,115146,4
54500,115148,5
54496,115150,5
54506,115140,5
54489,115126,4
54486,115136,5
54484,115129,6
54483,115126,4
54484,115118,5
54487,115123,4
54479,115125,7
54484,115114,3
54479,115114,5
54479,115119,5
54480,115112,4
54478,115090,5
54467,115105,5
54464,115099,5
54463,115097,5
54466,115066,4
54455,115078,5
54457,115073,5
54460,115081,5
54454,115073,5
54457,115081,4
54464,115089,5
54468,115091,5
54473,115122,5
54473,115094,5
54461,115090,4
54475,115110,5
54472,115139,6
54481,115129,4
54489,115122,4
54477,115124,4
54483,115123,5
54482,115110,5
54474,115096,5
54471,115093,4
54444,115056,5
54438,115044,5
54429,115030,5
54430,115007,5
54430,115016,4
54429,115010,5
54428,115009,5
54434,115023,5
54426,115030,5
54443,115046,4
54443,115056,5
54441,115051,5
54441,115051,5
54453,115048,5
54446,115049,4
54447,115057,5
54444,115049,5
54445,115049,6
54452,115065,4
54445,115065,4
54439,115051,5
54445,115052,5
54440,115032,5
54440,115048,4
54437,115038,4
54436,115032,5
54443,115039,5
54439,115038,5
54443,115043,4
54447,115049,5
54446,115045,5
54450,115059,5
54443,115074,5
54470,115084,4
54458,115081,5
54459,115068,10
54447,115067,9
54441,115051,8
54441,115051,7
54470,115064,9
