RED,IR,EKG,TIME
39096,88159,183415
39096,88159,1
36089,81920,5
36084,81889,5
36079,81870,4
36070,81867,5
36072,81868,5
36068,81855,5
36060,81827,5
36049,81822,4
36034,81799,6
36030,81779,4
36021,81756,5
36009,81737,5
36003,81711,4
35992,81687,5
35977,81658,5
35961,81647,5
35950,81610,5
35934,81582,4
35934,81558,5
35922,81535,5
35915,81519,5
35908,81503,4
35897,81489,4
35896,81492,5
35900,81491,5
35892,81483,5
35888,81500,4
35903,81496,5
35902,81500,5
35907,81513,5
35913,81530,5
35908,81533,4
35926,81545,5
35927,81550,6
35926,81565,4
35930,81572,5
35930,81580,4
35927,81580,5
35934,81577,5
35935,81573,5
35929,81568,5
35925,81557,4
35915,81562,5
35915,81545,5
35912,81541,5
35906,81529,4
35898,81507,5
35897,81504,5
35893,81483,5
35876,81471,5
35880,81452,4
35860,81436,5
35852,81417,5
35847,81395,5
35838,81376,5
35833,81348,4
35814,81322,5
35805,81320,5
35807,81301,6
35789,81264,4
35760,81255,4
35774,81237,5
35767,81218,5
35757,81214,5
35725,81196,5
35753,81182,4
35745,81163,5
35735,81157,5
35720,81146,5
35734,81135,4
35728,81127,5
35717,81117,5
35740,81107,5
35707,81105,5
35704,81109,4
35714,81098,5
35744,81094,5
35700,81076,5
35707,81063,5
35689,81042,5
35692,80989,4
35648,80928,5
35600,80844,5
35568,80739,5
35529,80634,4
35475,80529,5
35440,80459,5
35410,80404,5
35394,80348,4
35386,80358,4
35389,80350,5
35389,80371,5
35406,80367,5
35409,80430,4
35437,80473,5
35464,80534,5
35490,80549,5
35508,80653,5
35548,80725,4
35579,80801,5
35598,80864,5
35630,80912,5
35637,80944,5
35647,80956,4
35643,80976,6
35634,80922,4
35611,80854,5
35556,80743,5
35524,80699,4
35501,80613,5
35477,80562,5
35451,80527,5
35452,80520,4
35453,80507,4
35449,80504,5
35453,80513,5
35456,80532,5
35455,80534,4
35473,80550,5
35477,80584,5
35502,80622,5
35509,80650,5
35531,80689,4
35545,80739,5
35561,80771,5
35562,80797,5
35585,80830,5
35598,80835,4
35596,80855,5
35605,80856,6
35602,80866,4
35607,80866,5
35604,80875,4
35613,80871,5
35603,80871,5
35606,80868,5
35601,80863,4
35596,80860,5
35602,80855,5
35593,80851,5
35596,80848,5
35592,80854,4
35601,80854,5
35598,80860,5
35597,80844,5
35586,80845,5
35582,80834,4
35596,80832,5
35587,80819,5
35578,80816,5
35573,80802,5
35576,80802,4
35565,80794,5
35567,80785,5
35562,80778,5
35569,80786,5
35571,80786,4
35568,80780,5
35573,80781,5
35572,80786,5
35562,80792,4
35564,80793,5
35569,80788,5
35564,80810,5
35572,80816,5
35586,80821,4
35591,80848,5
35599,80853,5
35592,80876,5
35614,80895,5
35622,80910,4
35634,80928,5
35634,80941,5
35637,80967,5
35646,80967,5
35652,80974,5
35652,80978,4
35651,80983,5
35640,80980,5
35656,80968,4
35648,80967,4
35658,80964,5
35645,80960,5
35641,80954,5
35640,80952,4
35638,80935,5
35638,80928,5
35633,80923,5
35625,80916,5
35627,80906,4
35619,80905,9
35614,80895,1
35616,80863,5
35598,80876,5
35603,80873,4
35596,80858,5
35602,80842,5
35586,80838,4
35584,80823,5
35587,80819,4
35583,80802,7
35548,80785,3
35564,80784,5
35555,80765,4
35553,80748,4
35527,80751,5
35551,80728,5
35538,80717,5
35524,80704,4
35514,80681,5
35520,80667,5
35514,80659,5
35506,80650,5
35529,80632,4
35487,80614,5
35492,80603,5
35486,80588,5
35519,80563,5
35461,80538,4
35439,80502,5
35428,80451,5
35420,80380,6
35363,80311,4
35335,80241,4
35297,80178,5
35288,80123,5
35257,80088,5
35250,80062,4
35242,80055,5
35247,80049,5
35244,80068,5
35258,80085,5
35273,80118,4
35283,80126,5
35300,80184,5
35323,80230,5
35345,80285,5
35370,80296,4
35381,80365,5
35386,80396,5
35398,80392,5
35397,80397,5
35389,80385,5
35388,80369,4
35370,80340,5
35368,80330,5
35330,80217,6
35289,80122,3
35252,80077,5
35251,80092,5
35227,80028,5
35226,80030,4
35230,80034,5
35227,80043,5
35239,80043,5
35243,80066,5
35257,80093,4
35267,80107,5
35280,80149,5
35284,80179,5
35305,80217,5
35334,80265,4
35353,80307,5
35365,80348,5
35376,80387,5
35381,80392,5
35392,80412,4
35400,80425,6
35406,80428,4
35399,80430,5
35397,80423,4
35404,80424,6
35398,80433,3
35396,80427,5
35407,80425,5
35405,80432,4
35399,80424,5
35402,80425,5
35405,80423,5
35400,80424,5
35404,80419,4
35394,80437,5
35412,80438,5
35408,80447,5
35410,80439,5
35406,80437,4
35403,80426,5
35395,80411,5
35392,80411,5
35392,80400,5
35385,80385,4
35385,80380,5
35381,80367,6
35373,80360,4
35371,80354,4
35374,80341,4
35368,80344,5
35370,80348,5
35364,80344,5
35361,80349,4
35368,80339,5
35360,80349,5
35377,80359,5
35380,80374,5
35386,80395,4
35387,80405,5
35390,80416,5
35409,80444,5
35409,80466,5
35423,80477,4
35428,80508,5
35445,80517,5
35444,80535,5
35459,80543,5
35453,80538,4
35452,80554,5
35457,80536,5
35461,80537,6
35451,80526,3
35441,80515,4
35439,80513,5
35449,80510,5
35441,80504,5
35435,80494,4
35429,80484,5
35422,80477,5
35425,80464,5
35415,80452,5
35412,80439,4
35420,80436,5
35406,80425,5
35390,80404,5
35395,80397,5
35386,80394,4
35378,80372,5
35366,80348,5
35364,80329,5
35360,80302,5
35337,80291,5
35327,80260,4
35330,80242,5
35311,80226,5
35285,80200,6
35304,80195,3
35291,80172,5
35292,80162,5
35252,80153,5
35276,80137,4
35272,80122,5
35268,80108,5
35247,80103,5
35250,80095,5
35259,80065,4
35242,80063,5
35262,80053,5
35234,80044,5
35232,80033,5
35225,80022,4
35255,80008,5
35210,79991,5
35199,79966,5
35193,79937,5
35192,79892,4
35152,79831,6
35123,79778,4
35103,79720,5
35086,79652,4
35056,79598,5
35020,79558,5
35013,79527,5
35003,79494,5
34996,79498,4
35004,79504,5
35006,79519,5
35015,79532,5
35022,79583,5
35049,79617,4
35067,79663,5
35075,79669,5
35092,79736,5
35100,79751,5
35112,79767,5
35118,79761,4
35105,79754,5
35105,79742,5
35102,79723,5
35092,79747,4
35086,79696,5
35059,79646,6
35033,79561,4
34997,79523,4
34986,79477,5
34972,79461,5
34973,79438,5
34972,79468,5
34974,79455,4
34975,79470,5
34991,79486,5
34991,79512,5
35004,79533,5
35010,79564,4
35032,79591,5
35036,79635,5
35055,79674,5
35073,79703,5
35086,79745,4
35099,79766,5
35108,79790,5
35117,79806,5
35114,79821,5
35128,79835,4
35136,79839,5
35145,79853,5
35141,79862,6
35144,79873,3
35143,79881,5
35143,79883,5
35147,79890,5
35154,79894,5
35150,79892,4
35146,79882,5
35150,79891,5
35158,79895,5
35156,79910,5
35180,79920,4
35176,79932,5
35168,79915,5
35173,79912,5
35165,79904,5
35164,79904,4
35155,79902,5
35155,79889,5
35164,79884,5
35152,79878,4
35162,79887,5
35154,79884,4
35153,79889,5
35156,79883,5
35160,79901,4
35167,79887,5
35167,79908,5
35176,79928,5
35185,79944,5
35191,79976,4
35208,79997,5
35216,80025,5
35238,80072,5
35260,80104,5
35278,80159,4
35292,80214,5
35322,80253,5
35343,80313,5
35363,80341,5
35369,80371,4
35386,80400,5
35393,80416,5
35398,80440,5
35412,80442,4
35405,80449,4
35409,80456,6
35415,80465,4
35421,80473,5
35426,80469,4
35414,80456,5
35416,80454,5
35427,80468,5
35412,80448,5
35407,80445,4
35407,80436,5
35399,80412,5
35390,80400,5
35371,80363,5
35368,80328,4
35345,80286,5
35333,80244,5
35308,80198,5
35289,80143,5
35261,80108,4
35256,80076,5
35235,80052,5
35245,80041,5
35231,80056,4
35247,80069,4
35230,80087,5
35254,80115,6
35275,80145,4
35289,80168,4
35275,80192,5
35306,80208,5
35313,80209,5
35313,80221,5
35282,80217,4
35310,80212,5
35307,80212,5
35312,80207,5
35312,80197,5
35307,80189,4
35293,80160,5
35270,80113,5
35288,80071,5
35250,80076,5
35244,80054,4
35248,80062,5
35277,80079,5
35243,80087,5
35254,80113,5
35265,80135,4
35300,80165,5
35298,80214,5
35317,80240,5
35340,80283,4
35362,80328,5
35377,80389,5
35400,80430,5
35418,80472,5
35427,80491,4
35453,80547,5
35461,80575,5
35463,80590,5
35484,80589,5
35478,80628,4
35491,80645,5
35499,80653,5
35509,80658,5
35508,80676,5
35513,80690,4
35515,80688,6
35508,80709,4
35517,80690,5
35511,80692,4
35522,80696,7
35534,80750,3
35535,80716,5
35529,80705,5
35511,80684,4
35507,80701,5
35505,80665,5
35497,80650,5
35489,80639,5
35481,80622,4
35466,80591,5
35475,80580,5
35457,80551,5
35451,80546,5
35454,80531,4
35449,80529,5
35446,80524,5
35445,80540,5
35460,80548,5
35462,80570,4
35474,80592,5
35492,80617,5
35498,80648,5
35508,80688,4
35534,80732,5
35549,80775,6
35575,80822,4
35596,80856,5
35611,80901,4
35629,80934,5
35641,80956,5
35649,80985,5
35654,81003,5
35655,81004,4
35655,81009,5
35664,81015,5
35668,81006,5
35655,81002,5
35652,80994,4
35657,80994,5
35644,80988,5
35644,80962,5
35641,80942,5
35611,80916,4
35615,80877,5
35587,80834,5
35570,80786,6
35550,80749,3
35525,80689,5
35500,80638,5
35479,80599,5
35464,80560,5
35458,80554,4
35456,80546,5
35448,80549,5
35468,80564,5
35469,80588,5
35481,80612,4
35495,80634,5
35495,80657,5
35517,80676,5
35517,80686,5
35520,80694,4
35517,80692,5
35516,80687,5
35519,80690,5
35515,80679,4
35511,80665,5
35503,80645,4
35486,80603,5
35464,80552,5
35434,80506,6
35432,80493,3
35426,80485,5
35431,80484,5
35435,80505,5
35449,80516,4
35457,80560,5
35479,80603,7
35490,80640,3
35503,80689,5
35530,80742,4
35559,80800,5
35582,80854,5
35607,80912,5
35622,80944,5
35649,81004,4
35656,81043,5
35685,81070,5
35692,81086,5
35688,81102,4
35702,81114,4
35698,81124,6
35711,81125,4
35686,81120,5
35707,81114,4
35702,81113,7
35704,81114,3
35676,81097,5
35696,81092,5
35697,81091,4
35693,81095,5
35680,81107,5
35696,81114,5
35695,81100,5
35689,81083,4
35703,81075,5
35681,81069,5
35678,81066,5
35671,81058,5
35701,81036,4
35660,81026,5
35658,81015,5
35651,80996,5
35691,80988,4
35648,80974,4
35632,80973,5
35631,80962,6
35641,80976,4
35638,80966,4
35640,80977,5
35649,80986,5
35652,81011,5
35660,81018,5
35683,81057,4
35682,81083,5
35699,81099,5
35719,81160,5
35737,81194,5
35756,81229,4
35770,81236,5
35780,81287,5
35788,81317,5
35813,81339,5
35805,81336,4
35806,81356,5
35815,81352,5
35815,81363,5
35817,81374,5
35808,81358,4
35808,81357,5
35806,81349,5
35810,81381,6
35813,81340,3
35809,81334,5
35787,81330,5
35794,81347,5
35796,81319,5
35801,81298,4
35792,81293,5
35774,81287,5
35781,81271,5
35776,81260,5
35760,81243,4
35754,81237,5
35754,81218,5
35738,81206,5
35737,81178,5
35729,81159,4
35725,81136,5
35698,81111,5
35688,81084,5
35680,81077,4
35667,81063,6
35677,81047,4
35657,81034,5
35662,81021,5
35663,81010,6
35659,81012,3
35658,80996,5
35641,80984,5
35634,80965,5
35621,80931,4
35607,80877,5
35585,80824,5
35554,80754,5
35528,80693,5
35500,80640,4
35476,80584,5
35463,80544,5
35448,80525,5
35445,80520,5
35446,80524,4
35444,80545,5
35459,80569,5
35471,80593,5
35488,80637,4
35507,80678,5
35522,80740,6
35550,80783,4
35577,80848,5
35607,80889,4
35613,80927,5
35631,80950,5
35634,80964,5
35631,80959,5
35630,80935,4
35612,80906,5
35596,80826,5
35552,80747,5
35517,80696,5
35510,80678,4
35504,80669,5
35506,80670,5
35503,80677,5
35517,80711,5
35530,80729,4
35545,80766,5
35559,80809,5
35586,80856,5
35597,80904,4
35631,80958,5
35649,81023,5
35691,81085,6
35712,81138,4
35735,81184,4
35754,81237,5
35767,81253,5
35776,81279,5
35782,81300,5
35785,81304,4
35777,81305,5
35781,81305,5
35779,81304,5
35786,81317,5
35786,81305,4
35791,81307,5
35777,81297,5
35783,81291,5
35784,81285,4
35773,81276,4
35764,81262,5
35762,81257,5
35770,81258,5
35759,81259,5
35737,81244,4
35756,81236,5
35750,81229,5
35744,81213,5
35719,81192,4
35741,81182,5
35718,81172,5
35715,81150,5
35680,81139,5
35705,81123,4
35706,81112,5
35699,81098,5
35697,81081,5
35679,81078,5
35688,81059,4
35669,81057,5
35700,81049,5
35664,81040,5
35662,81046,4
35666,81052,4
35709,81061,5
35685,81073,5
35685,81072,5
35686,81088,4
35704,81098,6
35699,81121,4
35713,81124,5
35719,81139,5
35720,81159,4
35714,81149,5
35725,81148,5
35715,81152,5
35727,81124,5
35715,81135,4
35710,81133,5
35715,81133,5
35703,81083,5
35693,81101,5
35685,81094,4
35690,81083,5
35679,81048,5
35667,81050,5
35665,81029,4
35654,81016,5
35645,81013,4
35640,80982,5
35631,80950,5
35617,80929,4
35610,80934,5
35603,80878,5
35581,80836,5
35561,80776,5
35537,80743,4
35507,80637,5
35467,80562,5
35429,80474,5
35392,80417,5
35358,80340,4
35342,80289,5
35323,80256,5
35311,80240,5
35318,80231,5
35314,80247,4
35328,80262,5
35332,80278,5
35358,80323,5
35365,80354,4
35385,80403,4
35400,80429,5
35407,80460,5
35428,80489,5
35435,80519,4
35441,80530,5
35444,80546,5
35452,80549,5
35451,80536,5
35444,80516,4
35424,80488,5
35404,80410,5
35354,80321,5
35333,80277,5
35318,80251,4
35306,80214,5
35296,80199,5
35297,80204,5
35303,80198,5
35304,80218,4
35305,80233,5
35310,80245,5
35326,80278,5
35341,80299,4
35348,80332,4
35365,80368,5
35385,80416,5
35407,80456,5
35418,80490,5
35433,80525,4
35453,80555,5
35457,80568,5
35461,80591,5
35470,80594,4
35469,80604,5
35478,80604,5
35474,80609,5
35476,80616,5
35471,80613,4
35479,80606,5
35474,80608,5
35473,80608,5
35478,80609,5
35470,80607,4
35473,80603,5
35472,80603,5
35477,80605,5
35477,80612,4
35474,80604,4
35471,80602,5
35466,80581,5
35461,80576,5
35456,80573,4
35460,80548,6
35447,80547,4
35444,80521,5
35437,80514,5
35433,80504,4
35432,80497,5
35422,80487,5
35427,80482,5
35416,80479,5
35421,80484,4
35421,80481,5
35424,80483,5
35418,80486,5
35432,80486,5
35426,80500,4
35449,80514,5
35438,80528,5
35451,80542,5
35445,80552,4
35455,80576,4
35472,80585,5
35463,80608,5
35484,80623,5
35490,80633,4
35498,80635,5
35465,80637,6
35492,80636,4
35490,80635,5
35490,80626,4
35463,80624,5
35478,80626,5
35476,80621,5
35472,80607,5
35479,80594,4
35475,80591,5
35469,80578,5
35460,80579,5
35482,80563,5
35460,80549,4
35446,80552,5
35445,80533,5
35475,80529,5
35436,80519,5
35428,80507,4
35423,80500,5
35441,80471,5
35412,80457,6
35409,80437,3
35396,80418,5
35398,80404,5
35386,80390,5
35376,80373,5
35370,80355,4
35360,80317,5
35356,80333,5
35347,80308,5
35341,80289,5
35331,80243,4
35322,80270,5
35321,80260,5
35321,80243,5
35308,80191,5
35306,80214,4
35297,80178,5
35266,80147,5
35253,80090,5
35227,80013,4
35188,79956,5
35169,79884,4
35143,79860,5
35119,79780,5
35099,79742,6
35082,79721,3
35091,79737,5
35083,79707,5
35095,79721,5
35102,79747,4
35120,79803,5
35133,79833,5
35161,79888,5
35184,79944,5
35206,79996,4
35225,80045,5
35249,80090,5
35264,80119,5
35268,80137,5
35273,80142,4
35273,80140,5
35271,80125,5
35268,80111,5
35251,80086,4
35227,80026,4
35184,79929,6
35157,79869,4
35138,79840,5
35133,79816,4
35116,79811,7
35127,79807,3
35125,79818,5
35129,79830,5
35136,79855,4
35152,79873,5
35161,79893,5
35173,79922,5
35190,79954,5
35209,80009,4
35220,80050,5
35250,80101,5
35263,80136,5
35269,80170,5
35290,80203,4
35301,80227,5
35318,80248,5
35317,80256,5
35320,80272,4
35321,80276,4
35323,80282,5
35329,80290,6
35329,80297,4
35340,80299,4
35336,80305,5
35331,80297,5
35327,80300,5
35332,80296,5
35331,80293,4
35337,80290,5
35328,80290,5
35342,80308,5
35332,80305,5
35335,80305,4
35338,80299,5
35330,80294,5
35323,80274,5
35319,80274,5
35320,80261,4
35314,80244,5
35305,80234,5
35306,80221,5
35296,80204,5
35296,80195,4
35289,80178,5
35288,80179,5
35279,80167,6
35272,80149,3
35276,80146,5
35272,80149,5
35264,80148,5
35277,80157,5
35275,80172,4
35282,80182,5
35292,80200,5
35293,80216,5
35303,80237,5
35313,80253,4
35329,80268,5
35323,80289,5
35335,80301,5
35343,80315,5
35347,80316,4
35345,80323,5
35349,80321,5
35347,80323,5
35339,80317,4
35337,80320,5
35343,80314,4
35335,80305,5
35315,80308,5
35341,80306,4
35337,80292,5
35335,80294,5
35302,80279,5
35325,80266,5
35321,80249,4
35321,80244,5
35293,80239,5
35306,80218,5
35303,80207,5
35296,80206,4
35307,80188,5
35281,80169,5
35276,80142,5
35266,80123,5
35285,80095,4
35251,80085,5
35237,80067,5
35232,80046,5
35244,80018,4
35202,80004,4
35201,79992,6
35194,79982,4
35204,79956,5
35184,79951,4
35186,79940,5
35172,79932,5
35173,79912,5
35168,79913,5
35162,79900,4
35153,79884,5
35158,79852,5
35145,79868,5
35134,79853,5
35133,79831,4
35125,79790,5
35122,79798,5
35111,79788,5
35105,79750,5
35073,79707,4
35063,79662,5
35046,79600,5
35017,79546,5
34994,79509,4
34969,79434,4
34933,79388,5
34929,79354,6
34910,79371,4
34904,79316,4
34903,79327,5
34919,79341,5
34931,79391,5
34943,79390,5
34957,79443,4
34974,79482,5
34995,79537,5
35010,79571,5
35027,79605,5
35041,79627,4
35058,79642,5
35051,79647,5
35055,79630,5
35037,79628,5
35032,79618,4
35024,79603,5
35020,79569,5
34998,79520,5
34968,79438,5
34932,79393,4
34933,79385,5
34923,79371,5
34925,79369,5
34928,79377,4
34933,79389,5
34941,79414,5
34956,79448,5
34969,79475,5
34982,79514,4
34995,79547,5
35018,79592,5
35041,79658,5
35062,79695,5
35084,79748,4
35096,79776,5
35110,79817,5
35135,79862,5
35138,79895,5
35152,79910,4
35164,79944,5
35175,79969,5
35184,79978,5
35196,80002,4
35203,80020,6
35207,80029,4
35210,80038,5
35223,80055,5
35222,80065,4
35232,80051,5
35223,80062,5
35224,80063,5
35224,80082,5
35239,80091,4
35251,80117,5
35255,80120,5
35258,80112,5
35249,80105,5
35243,80090,4
35251,80094,5
35233,80081,5
35233,80072,5
35232,80054,5
35226,80054,4
35223,80045,5
35222,80042,5
35218,80037,5
35223,80037,4
35217,80039,5
35226,80034,6
35233,80060,4
35230,80061,5
35232,80079,4
35252,80093,5
35259,80112,5
35269,80150,5
35288,80187,5
35297,80228,4
35319,80258,5
35337,80304,5
35346,80350,5
35368,80386,5
35388,80416,4
35396,80451,5
35404,80461,5
35410,80476,5
35419,80485,4
35419,80484,4
35417,80487,5
35421,80489,5
35414,80484,5
35427,80484,4
35387,80480,5
35412,80471,5
35415,80463,6
35406,80465,4
35382,80462,4
35395,80441,5
35398,80424,5
35388,80420,5
35359,80393,5
35381,80384,4
35374,80371,5
35362,80347,5
35359,80320,5
35348,80290,5
35318,80248,4
35293,80180,5
35298,80137,5
35249,80081,5
35224,80032,4
35202,79988,5
35215,79968,4
35182,79945,5
35187,79937,5
35181,79941,6
35197,79953,3
35198,79973,5
35205,79990,5
35213,80033,5
35236,80054,4
35252,80098,5
35260,80131,5
35264,80159,5
35287,80146,5
35291,80174,4
35284,80177,5
35281,80161,5
35273,80119,5
35268,80140,5
35268,80131,4
35268,80113,5
35254,80091,5
35227,80034,5
35208,79984,4
35184,79948,4
35175,79959,5
35178,79938,5
35181,79937,5
35184,79957,4
35189,80008,6
35209,80011,4
35220,80043,5
35244,80097,5
35261,80161,4
35291,80200,5
35316,80253,5
35335,80307,5
35360,80370,5
35382,80431,4
35413,80467,5
35427,80507,5
35453,80551,5
35464,80585,5
35469,80611,4
35474,80634,5
35484,80647,5
35506,80665,5
35500,80674,4
35506,80682,4
35513,80691,5
35509,80695,5
35510,80691,5
35523,80698,4
35510,80684,5
35516,80694,6
35514,80705,4
35514,80714,5
35519,80701,4
35514,80682,5
35505,80678,5
35492,80657,5
35485,80642,5
35494,80632,4
35468,80617,5
35464,80608,5
35461,80576,5
35462,80575,5
35457,80558,4
35450,80554,5
35453,80550,5
35457,80550,5
35451,80555,4
35447,80576,4
35469,80590,5
35476,80607,5
35482,80640,5
35499,80663,3
35516,80701,5
35518,80737,5
35548,80780,5
35574,80833,5
35593,80871,4
35609,80913,5
35619,80944,5
35641,80973,5
35643,81005,5
35654,81013,4
35654,81027,5
35670,81027,5
35660,81030,5
35668,81029,5
35658,81038,4
35657,81025,5
35660,81017,5
35659,81024,5
35650,81005,4
35641,80984,5
35625,80956,4
35626,80924,5
35601,80890,5
35578,80840,6
35555,80796,3
35548,80749,5
35519,80700,5
35503,80644,5
35477,80611,4
35477,80595,5
35459,80589,5
35463,80591,5
35468,80600,5
35488,80628,4
35495,80655,5
35508,80685,5
35516,80713,5
35527,80727,5
35526,80749,4
35544,80759,5
35539,80760,5
35542,80756,5
35539,80742,4
35534,80733,4
35520,80718,6
35495,80712,4
35515,80688,5
35488,80641,4
35464,80580,7
35424,80533,3
35441,80525,5
35437,80526,5
35441,80527,4
35417,80547,5
35456,80578,5
35463,80606,5
35497,80655,5
35519,80695,4
35527,80745,5
35558,80798,5
35582,80859,5
35637,80922,5
35627,80969,4
35660,81019,5
35665,81069,5
35719,81093,5
35699,81120,5
35702,81142,4
35711,81147,5
35734,81165,6
35718,81169,4
35734,81179,4
35728,81178,5
35731,81178,5
35725,81188,5
35728,81188,5
35720,81182,4
35719,81149,5
35717,81175,5
35718,81182,5
35726,81183,5
35732,81172,4
35737,81199,5
35733,81198,5
35731,81178,5
35723,81151,5
35721,81161,4
35708,81161,5
35717,81143,5
35708,81143,5
35702,81115,5
35707,81123,4
35690,81102,5
35686,81127,5
35681,81091,6
35687,81074,3
35685,81089,5
35685,81113,5
35687,81103,5
35698,81124,5
35706,81140,4
35721,81177,5
35742,81205,5
35756,81248,5
35775,81297,5
35798,81341,4
35816,81383,5
35834,81425,5
35853,81444,5
35857,81497,5
35868,81509,4
35879,81530,5
35894,81538,5
35889,81559,5
35901,81558,5
35900,81570,5
35910,81571,4
35904,81572,5
35901,81567,5
35901,81564,6
35897,81564,3
35896,81544,5
35894,81548,5
35890,81531,5
35892,81512,4
35873,81477,5
35853,81442,5
35824,81402,5
35808,81346,5
35779,81282,4
35765,81225,5
35719,81166,5
35692,81113,5
35672,81059,5
35655,81032,4
35652,81020,5
35660,81019,5
35654,81033,5
35675,81055,5
35688,81095,4
35695,81132,6
35717,81190,4
35748,81240,5
35771,81283,4
35783,81325,5
35807,81370,5
35821,81403,5
35834,81429,5
35839,81443,4
35836,81425,5
35831,81414,5
35813,81383,5
35794,81322,5
35750,81236,4
35724,81175,5
35707,81157,8
35705,81132,2
35687,81132,5
35719,81152,4
35719,81172,5
35724,81193,5
35738,81225,5
35757,81270,5
35776,81306,4
35799,81351,5
35828,81420,6
35843,81473,4
35874,81534,4
35900,81592,5
35927,81651,5
35954,81699,5
35975,81745,5
35981,81770,4
35996,81801,5
36004,81822,5
36014,81829,5
36027,81848,5
36024,81851,4
36020,81845,5
36014,81843,5
36015,81849,5
36016,81835,5
36014,81833,4
36018,81840,5
36021,81819,5
36011,81822,5
35994,81835,5
36021,81838,4
36019,81839,5
36008,81831,5
35981,81836,6
36006,81828,3
36016,81825,5
36003,81806,5
35974,81812,5
35998,81811,5
36006,81800,4
36004,81795,5
35999,81796,5
35992,81790,5
35990,81785,5
35990,81777,4
36016,81780,5
35988,81780,5
35995,81787,5
36000,81802,5
36042,81818,4
36010,81851,5
36039,81877,5
36049,81929,5
36079,81968,4
36089,82009,5
36106,82046,4
36127,82095,5
36154,82132,5
36164,82174,4
36185,82215,5
36195,82242,5
36211,82252,5
36215,82283,5
36221,82292,4
36220,82289,5
36220,82254,5
36212,82263,5
36195,82235,5
36181,82194,5
36161,82110,4
36140,82092,5
36111,82042,5
36092,82005,5
36078,81987,4
36070,81944,5
36060,81933,5
36053,81937,5
36065,81989,4
36072,81962,4
36082,81993,6
36100,82024,4
36106,82088,5
36124,82091,4
36142,82122,5
36157,82167,5
36173,82215,5
36189,82231,5
36216,82271,4
36214,82301,5
36224,82308,5
36223,82298,5
36203,82250,5
36175,82170,4
36145,82104,5
36134,82074,5
36102,82039,5
36094,82009,5
36081,81991,4
36075,81982,5
36073,81978,5
36081,81983,5
36077,81992,4
36087,82007,4
36095,82015,5
36091,82030,7
36107,82052,3
36120,82089,4
36125,82106,5
36138,82138,5
36151,82154,5
36162,82173,5
36172,82197,4
36175,82204,5
36188,82223,5
36182,82229,5
36192,82230,5
36185,82232,4
36190,82234,5
36194,82231,5
36197,82229,5
36189,82239,5
36187,82232,4
36186,82226,5
36190,82232,5
36176,82232,5
36192,82240,5
36193,82251,4
36186,82237,5
36186,82241,5
36187,82221,5
36181,82225,4
36178,82217,5
36183,82214,5
36170,82196,5
36166,82197,5
36162,82179,4
36159,82170,5
36150,82160,5
36151,82147,5
36143,82137,5
36141,82123,4
36137,82108,5
36134,82115,5
36132,82097,5
36122,82109,5
36137,82117,4
36135,82126,5
36145,82138,5
36155,82147,5
36158,82161,4
36158,82183,5
36174,82193,4
36179,82215,5
36185,82235,5
36195,82250,4
36208,82267,5
36209,82284,5
36210,82282,5
36215,82286,5
36206,82281,4
36209,82290,5
36208,82283,5
36200,82269,5
36202,82263,5
36195,82253,4
36190,82233,5
36188,82213,5
36170,82190,5
36158,82153,5
36126,82108,4
36099,82047,5
36082,81961,5
36029,81860,5
35984,81766,4
35926,81673,4
35905,81594,6
35877,81528,4
35858,81487,5
35812,81452,4
35839,81451,5
35839,81448,5
35853,81475,5
35849,81508,5
35876,81530,4
35886,81564,5
35901,81603,5
35946,81649,5
35941,81687,5
35955,81717,4
35967,81753,5
36017,81766,5
35992,81792,5
35995,81804,5
36000,81812,4
36010,81786,5
35971,81739,5
35935,81641,5
35881,81534,4
35854,81459,4
35819,81392,5
35783,81337,5
35764,81291,5
35741,81242,4
35737,81239,5
35731,81219,5
35732,81220,5
35732,81186,5
35737,81207,4
35735,81215,5
35734,81205,5
35738,81195,5
35741,81237,5
35749,81241,4
35745,81250,5
35747,81278,5
35764,81285,5
35768,81290,5
35769,81296,5
35765,81325,4
35774,81300,5
35764,81303,5
35765,81297,6
35765,81345,3
35768,81300,5
35769,81312,5
35772,81299,5
35759,81310,4
35768,81296,5
35763,81284,5
35759,81285,5
35759,81292,5
35767,81297,4
35763,81287,5
35759,81286,5
35758,81266,5
35752,81266,5
35748,81257,4
35746,81255,5
35749,81236,5
35743,81218,5
35726,81208,5
35729,81201,4
35722,81197,6
35713,81171,4
35711,81169,5
35706,81155,4
35703,81141,6
35703,81147,3
35698,81130,5
35701,81137,5
35697,81143,4
35697,81138,5
35704,81149,5
35705,81166,5
35717,81177,5
35721,81198,4
35729,81217,5
35741,81237,5
35752,81256,5
35756,81270,5
35775,81291,4
35779,81296,5
35779,81314,5
35781,81325,5
35789,81335,5
35799,81344,4
35787,81341,5
35788,81357,6
35799,81357,4
35797,81346,4
35793,81350,4
35798,81339,5
35790,81337,5
35789,81333,5
35785,81314,4
35779,81315,5
35772,81303,5
35770,81292,5
35760,81271,5
35758,81276,4
35757,81256,5
35759,81252,5
35747,81235,5
35746,81219,5
35743,81214,4
35730,81205,5
35734,81199,5
35729,81204,5
35726,81201,5
35722,81186,4
35722,81177,5
35718,81170,5
35716,81170,6
35716,81171,3
35714,81155,4
35708,81149,5
35702,81140,5
35700,81134,5
35710,81138,4
35702,81125,5
35689,81113,5
35695,81099,5
35686,81099,5
35697,81101,4
35679,81088,5
35680,81083,5
35676,81075,5
35667,81060,5
35665,81052,4
35657,81044,5
35663,81031,5
35652,81020,5
35649,81019,5
35648,81018,5
35649,80995,4
35613,80986,5
35631,80971,5
35630,80961,6
35614,80950,3
35589,80932,5
35611,80923,5
35606,80916,5
35600,80902,4
35583,80894,5
35599,80887,5
35580,80870,5
35580,80858,5
35595,80848,4
35574,80836,5
35561,80835,5
35555,80803,5
35583,80784,5
35539,80769,4
35533,80744,5
35522,80720,5
35541,80705,5
35495,80682,5
35487,80626,4
35471,80590,6
35439,80506,4
35393,80420,5
35352,80325,5
35313,80223,4
35275,80136,5
35244,80066,5
35220,80012,5
35194,79976,4
35185,79919,5
35183,79938,5
35183,79956,5
35198,79981,5
35208,79974,4
35223,80053,5
35245,80112,5
35274,80170,5
35293,80227,5
35324,80294,4
35355,80354,5
35383,80412,5
35403,80481,5
35416,80481,5
35410,80484,4
35410,80476,5
35393,80478,6
35372,80382,4
35340,80284,5
35303,80206,4
35284,80192,5
35265,80143,5
35261,80133,5
35257,80118,4
35257,80142,4
35261,80137,5
35271,80152,5
35279,80173,5
35284,80193,4
35291,80224,5
35306,80265,5
35330,80307,5
35355,80354,5
35363,80391,4
35388,80442,5
35411,80465,5
35420,80505,5
35425,80524,5
35438,80543,4
35446,80553,5
35449,80568,5
35460,80584,6
35464,80591,4
35450,80594,4
35455,80598,5
35463,80594,5
35461,80596,5
35462,80592,4
35457,80590,4
35455,80588,5
35463,80586,5
35453,80592,5
35453,80579,4
35460,80593,5
35464,80592,5
35456,80590,5
35457,80587,5
35459,80588,4
35457,80575,5
35460,80582,5
35452,80587,5
35454,80576,5
35447,80564,5
35450,80563,4
35452,80557,5
35437,80549,5
35442,80539,5
35436,80529,4
35437,80538,5
35433,80525,6
35428,80522,4
35443,80518,4
35432,80519,4
35435,80529,5
35438,80528,5
35437,80537,5
35447,80543,4
35443,80566,5
35454,80573,5
35465,80591,5
35473,80605,5
35478,80620,4
35481,80630,5
35493,80658,5
35494,80667,5
35501,80676,5
35505,80674,4
35496,80691,6
35503,80682,4
35507,80684,5
35497,80682,5
35502,80679,4
35488,80669,5
35500,80670,5
35493,80643,5
35489,80645,4
35479,80626,4
35483,80626,5
35469,80626,5
35471,80616,5
35474,80596,4
35466,80589,5
35460,80587,5
35454,80581,5
35446,80565,5
35453,80558,4
35445,80539,5
35448,80538,5
35428,80516,5
35403,80501,5
35407,80489,4
35414,80466,5
35397,80443,6
35371,80427,4
35383,80417,5
35375,80403,4
35365,80386,5
35337,80365,5
35360,80357,5
35353,80335,4
35341,80320,4
35355,80308,5
35326,80303,5
35325,80281,5
35326,80268,4
35342,80254,5
35308,80239,5
35306,80238,5
35298,80219,5
35328,80210,4
35284,80197,5
35282,80196,5
35286,80188,5
35291,80174,5
35278,80165,4
35276,80158,5
35275,80144,5
35271,80129,5
35254,80121,5
35250,80109,4
35248,80105,5
35241,80055,5
35230,80051,5
35223,80017,4
35195,79981,4
35175,79911,5
35151,79873,5
35123,79810,5
35099,79745,5
35075,79673,4
35047,79655,5
35041,79621,5
35025,79602,5
35023,79614,4
35031,79596,5
35031,79619,5
35044,79645,5
35057,79701,5
35070,79712,5
35097,79760,4
35110,79804,5
35131,79872,5
35142,79875,5
35154,79896,4
35165,79919,5
35168,79926,5
35167,79901,5
35153,79888,4
35152,79873,4
35145,79860,5
35133,79822,5
35107,79750,5
35069,79671,4
35044,79626,5
35037,79612,5
35030,79607,5
35027,79601,5
35034,79615,4
35029,79627,5
35045,79638,5
35066,79670,5
35071,79707,5
35076,79750,4
35097,79779,6
35117,79814,4
35130,79865,5
35159,79911,5
35174,79953,4
35185,79985,5
35200,80019,5
35211,80035,5
35221,80064,4
35227,80068,4
35234,80091,5
35239,80086,5
35238,80101,5
35249,80118,4
35248,80122,5
35252,80127,5
35249,80127,5
35243,80119,5
35245,80120,4
35244,80111,5
35237,80102,5
35242,80110,5
35241,80100,5
35234,80101,4
35246,80104,5
35245,80108,5
35239,80092,5
35232,80077,5
35220,80061,4
35214,80051,5
35210,80037,5
35207,80014,5
35190,79991,4
35188,79973,4
35177,79949,5
35167,79932,5
35166,79896,5
35147,79884,4
35147,79864,5
35135,79858,5
35135,79859,5
35136,79863,5
35140,79856,5
35133,79880,4
35140,79879,5
35154,79906,5
35159,79921,6
35161,79940,3
35181,79961,5
35186,79988,5
35196,80010,5
35201,80026,5
35215,80049,4
35219,80054,5
35221,80056,5
35221,80073,5
35224,80074,4
35223,80061,4
35211,80062,5
35220,80059,5
35214,80053,5
35209,80048,4
35207,80037,5
35198,80022,5
35203,80014,5
35193,79992,5
35180,79979,4
35175,79960,6
35174,79953,4
35163,79930,5
35162,79918,5
35123,79899,6
35143,79873,3
35138,79853,5
35118,79815,5
35078,79799,5
35101,79775,4
35087,79736,5
35060,79709,5
35052,79670,5
35036,79631,4
35015,79569,4
34991,79523,5
34993,79475,5
34958,79442,5
34935,79409,4
34917,79380,5
34944,79363,5
34908,79347,5
34908,79342,5
34900,79346,4
34925,79349,5
34911,79376,6
34930,79397,4
34939,79424,5
34961,79449,4
34965,79487,5
34978,79523,5
34998,79544,5
34992,79537,5
35006,79570,4
35006,79572,5
35006,79574,5
35003,79544,5
35010,79567,4
35015,79567,4
34998,79564,5
34993,79521,5
34985,79502,5
34963,79467,4
34961,79463,5
34958,79484,4
34969,79477,5
34973,79497,5
34980,79519,4
35002,79594,5
35017,79602,5
35046,79656,6
35064,79704,4
35086,79794,4
35115,79831,5
35147,79891,5
35168,79963,5
35193,80027,5
35229,80068,4
35250,80124,5
35259,80158,5
35278,80201,5
35308,80220,4
35300,80261,5
35318,80277,5
35331,80303,5
35344,80323,5
35342,80355,4
35356,80360,5
35361,80368,5
35360,80372,5
35364,80382,5
35373,80385,5
35368,80383,4
35367,80387,5
35377,80404,5
35382,80420,6
35393,80414,3
35390,80399,5
35375,80398,5
35367,80376,5
35366,80375,5
35371,80352,4
35359,80350,5
35353,80328,5
35340,80318,5
35344,80299,4
35335,80294,5
35324,80288,5
35328,80285,5
35324,80270,5
35316,80269,4
35319,80268,5
35325,80285,5
35328,80294,5
35344,80315,5
35349,80341,4
35361,80373,6
35380,80406,4
35390,80440,5
35415,80484,5
35421,80527,4
35454,80560,5
35470,80607,5
35489,80636,5
35490,80655,4
35509,80682,4
35509,80698,5
35514,80707,5
35515,80704,5
35515,80705,4
35515,80706,5
35511,80711,5
35511,80693,5
35507,80685,5
35494,80672,4
35488,80646,5
35479,80615,5
35465,80579,5
35446,80536,5
35431,80502,4
35403,80457,5
35392,80405,6
35369,80355,4
35350,80327,5
35335,80309,4
35336,80298,5
35335,80308,5
35343,80309,5
35352,80329,4
35362,80354,4
35368,80372,5
35383,80394,5
35383,80405,5
35379,80403,4
35376,80409,5
35391,80406,5
35375,80395,5
35370,80389,5
35377,80390,4
35376,80376,5
35375,80369,5
35354,80357,5
35352,80316,5
35326,80254,4
35306,80224,5
35280,80217,5
35285,80212,6
35290,80216,4
35311,80245,4
35285,80264,5
35323,80305,5
35351,80334,5
35360,80373,4
35385,80440,4
35410,80488,5
35438,80544,5
35460,80606,5
35515,80663,4
35512,80723,5
35526,80760,5
35556,80800,5
35595,80831,5
35577,80855,4
35588,80869,5
35594,80899,5
35611,80908,5
35607,80902,5
35609,80915,5
35612,80919,4
35610,80926,5
35609,80920,5
35611,80926,5
35605,80923,4
35606,80905,5
35623,80942,5
35632,80957,5
35634,80962,4
35625,80922,4
35616,80939,5
35620,80936,5
35617,80927,5
35609,80882,4
35592,80897,5
35598,80880,5
35586,80863,5
35589,80858,5
35570,80845,4
35564,80827,5
35571,80819,5
35566,80845,5
35560,80811,5
35564,80815,4
35567,80826,6
35572,80869,4
35582,80863,5
35587,80885,5
35603,80918,4
35620,80967,5
35636,80997,5
35662,81045,5
35689,81099,4
35705,81142,5
35725,81180,5
35731,81211,5
35742,81231,5
35755,81253,4
35760,81263,5
35765,81268,5
35772,81285,5
35770,81277,5
35771,81275,4
35758,81253,5
35752,81230,5
35743,81204,5
35731,81171,5
35708,81130,4
35684,81094,5
35673,81055,6
35657,81015,4
35638,80974,4
35618,80945,4
35608,80932,5
35607,80916,5
35610,80905,5
35614,80927,4
35619,80947,5
35631,80976,5
35637,81001,5
35648,81023,5
35665,81036,4
35663,81060,5
35672,81078,5
35676,81081,5
35681,81096,5
35685,81089,4
35685,81084,5
35687,81078,9
35678,81060,1
35653,80985,5
35620,80941,4
35598,80895,5
35594,80878,5
35592,80864,5
35588,80874,4
35595,80885,4
35588,80899,5
35609,80931,5
35626,80966,5
35630,81003,4
35655,81048,5
35686,81098,5
35708,81177,5
35747,81240,5
35771,81308,4
35788,81369,5
35839,81430,5
35857,81482,5
35866,81527,5
35891,81566,4
35905,81591,5
35909,81600,5
35917,81616,5
35925,81624,4
35927,81630,5
35926,81629,4
35922,81625,5
35911,81624,5
35916,81619,4
35914,81617,5
35918,81614,5
35915,81604,5
35918,81607,5
35925,81605,4
35912,81609,5
35904,81593,5
35897,81579,5
35904,81583,5
35902,81573,4
35897,81566,5
35894,81555,5
35886,81547,5
35887,81545,5
35870,81535,4
35876,81536,5
35870,81523,5
35877,81510,5
35838,81516,4
35869,81515,4
35873,81516,6
35881,81531,4
35859,81556,5
35889,81583,4
35911,81607,5
35920,81643,5
35952,81681,5
35961,81725,5
35981,81781,4
36000,81826,5
36054,81860,5
36037,81918,5
36060,81941,5
36074,81975,4
36128,82005,5
36106,82024,5
36098,82030,5
36097,82015,5
36099,81988,4
36074,81960,5
36063,81924,5
36034,81874,6
36012,81818,3
35991,81778,4
35976,81731,5
35958,81698,5
35955,81667,5
35948,81687,4
35948,81686,5
35955,81700,5
35957,81685,5
35976,81749,5
35992,81792,4
36013,81825,5
36029,81851,5
36049,81893,5
36062,81946,5
36086,81990,4
36100,82057,5
36110,82055,5
36122,82087,5
36124,82067,5
36100,82049,4
36069,81940,4
36040,81870,5
36016,81840,5
36005,81835,5
35994,81796,3
35990,81781,5
35990,81784,5
35988,81797,5
35999,81812,4
36003,81833,5
36012,81853,5
36023,81882,5
36045,81919,5
36060,81947,4
36076,81989,5
36099,82043,5
36122,82084,5
36137,82137,5
36154,82171,4
36163,82197,5
36180,82235,5
36207,82244,5
36201,82261,4
36212,82277,4
36220,82295,6
36225,82298,4
36230,82318,5
36230,82318,4
36229,82322,7
36229,82327,3
36232,82323,5
36227,82322,5
36235,82319,4
36231,82332,5
36239,82333,5
36232,82335,5
36237,82326,5
36231,82311,4
36218,82303,5
36214,82299,5
36211,82294,5
36211,82280,5
36217,82282,4
36217,82280,5
36204,82274,5
36207,82263,5
36201,82259,4
36196,82248,4
36193,82242,5
36185,82231,6
36185,82233,4
36182,82239,4
36183,82242,5
36188,82243,5
36195,82261,5
36204,82274,5
36230,82288,4
36220,82320,5
36237,82345,5
36244,82375,5
36263,82405,5
36276,82438,4
36283,82468,5
36314,82504,5
36317,82526,5
36326,82545,5
36333,82553,4
36335,82560,5
36326,82546,5
36324,82521,5
36303,82473,5
36277,82426,4
36263,82381,5
36242,82329,5
36213,82297,6
36200,82245,3
36175,82201,5
36160,82182,5
36149,82170,5
36153,82163,5
36161,82180,4
36158,82179,5
36169,82189,5
36178,82219,5
36183,82246,5
36201,82263,4
36214,82296,5
36223,82336,5
36238,82358,5
36257,82392,5
36269,82415,4
36275,82417,5
36235,82380,5
36237,82322,5
36195,82232,4
36165,82174,6
36119,82119,4
36122,82068,5
36089,82026,5
36077,81981,6
36042,81952,3
36045,81927,5
36042,81910,5
36029,81880,5
36042,81859,4
36022,81856,5
36016,81850,5
36015,81859,5
36049,81859,5
36021,81872,4
36030,81868,5
36023,81866,5
36046,81872,5
36024,81877,4
36023,81884,4
36031,81870,5
36029,81881,5
36025,81867,5
36013,81857,4
36008,81856,5
36013,81838,6
36002,81836,4
36008,81829,5
35997,81827,4
35990,81784,5
35983,81809,5
35986,81802,5
35992,81810,5
35996,81775,4
35983,81779,5
35986,81784,5
35980,81769,5
35981,81757,5
35959,81736,4
35957,81710,5
35942,81685,5
35935,81695,5
35923,81640,4
35916,81603,4
35896,81573,5
35875,81585,5
35872,81526,5
35859,81494,4
35843,81472,5
35837,81480,5
35838,81453,6
35826,81440,4
35828,81431,4
35832,81442,5
35826,81439,5
35833,81448,5
35832,81454,5
35836,81456,4
35838,81476,5
35843,81477,5
35861,81502,5
35868,81523,5
35881,81525,4
35878,81556,5
35882,81560,5
35885,81574,5
35901,81584,4
35896,81592,4
35900,81586,5
35904,81585,5
35896,81595,5
35906,81591,5
35905,81597,4
35899,81586,5
35897,81578,5
35898,81574,6
35886,81561,3
35886,81559,5
35873,81548,5
35874,81535,5
35870,81526,5
35870,81512,4
35860,81493,5
35861,81475,5
35844,81460,5
35837,81421,5
35806,81386,4
35787,81323,5
35753,81242,5
35715,81150,5
35662,81050,4
35617,80948,5
35582,80851,5
35548,80789,5
35522,80736,5
35512,80709,4
35509,80713,6
35511,80721,4
35521,80748,5
35528,80779,5
35555,80818,4
35569,80866,5
35591,80915,5
35613,80969,5
35641,81025,5
35679,81097,4
35702,81150,5
35714,81202,5
35741,81227,5
35758,81275,4
35770,81300,4
35786,81321,5
35774,81317,5
35772,81299,5
35745,81212,4
35701,81108,5
35648,81019,5
35622,80961,5
35597,80913,5
35586,80870,4
35574,80855,5
35559,80847,6
35565,80846,4
35566,80850,5
35573,80856,4
35569,80861,5
35582,80875,5
35587,80900,5
35602,80918,5
35606,80935,4
35621,80967,5
35630,80992,5
35639,81017,5
35655,81042,4
35649,81059,4
35668,81082,5
35670,81087,5
35678,81097,5
35659,81101,4
35679,81110,5
35683,81122,5
35677,81116,5
35651,81114,5
35685,81109,4
35681,81112,5
35682,81098,5
35678,81100,6
35681,81095,4
35670,81089,4
35677,81101,5
35701,81086,5
35673,81093,5
35672,81072,5
35657,81070,4
35693,81051,5
35656,81051,5
35647,81041,5
35645,81023,4
35656,81010,4
35636,81006,5
35628,80982,5
35623,80981,5
35626,80975,4
35620,80966,5
35621,80958,5
35611,80957,5
35620,80941,5
35621,80965,5
35627,80962,4
35627,80976,5
35628,80949,5
35626,80991,5
35631,81011,4
35635,81017,5
35642,81008,5
35647,81050,5
35667,81064,5
35664,81084,5
35679,81120,4
35686,81123,5
35701,81144,5
35708,81149,4
35708,81194,5
35714,81172,5
35727,81175,5
35719,81174,5
35721,81207,4
35716,81185,5
35715,81174,5
35713,81166,5
35706,81186,5
35706,81165,4
35700,81150,6
35706,81137,4
35695,81123,5
35687,81111,5
35688,81105,4
35681,81092,5
35662,81084,5
35670,81065,5
35658,81055,4
35665,81051,4
35663,81033,5
35645,81025,5
35642,81012,5
35639,81002,4
35636,80987,5
35633,80985,5
35634,80987,5
35633,80980,5
35630,80963,4
35623,80964,5
35628,80966,5
35624,80954,5
35620,80949,5
35610,80949,4
35612,80939,5
35606,80924,7
35605,80937,3
35602,80920,5
35608,80923,4
35599,80926,5
35597,80911,5
35602,80898,5
35592,80883,4
35591,80887,4
35587,80879,5
35588,80869,5
35576,80869,7
35583,80859,2
35589,80847,5
35571,80847,5
35566,80836,5
35567,80841,5
35568,80826,4
35555,80809,5
35550,80806,5
35547,80797,5
35543,80785,5
35544,80786,4
35541,80777,5
35541,80772,5
35537,80758,5
35530,80743,5
35530,80748,4
35517,80728,5
35511,80698,5
35503,80664,5
35470,80605,4
35434,80514,5
35399,80436,5
35358,80348,5
35324,80276,5
35294,80201,4
35275,80153,5
35255,80114,5
35248,80113,5
35248,80100,5
35255,80120,4
35262,80136,5
35269,80159,5
35281,80204,5
35315,80243,5
35324,80291,5
35343,80345,4
35372,80398,5
35396,80447,5
35419,80488,4
35421,80510,4
35428,80516,5
35425,80516,5
35417,80506,5
35418,80475,4
35394,80419,5
35358,80323,5
35289,80237,5
35284,80196,5
35273,80179,4
35270,80164,5
35237,80157,5
35275,80168,5
35280,80186,5
35279,80186,4
35261,80211,5
35296,80230,6
35306,80257,4
35326,80287,5
35342,80324,4
35357,80379,5
35372,80414,5
35397,80462,5
35446,80494,4
35431,80532,4
35430,80553,5
35443,80578,5
35482,80579,5
35461,80593,4
35459,80591,5
35456,80605,5
35478,80604,5
35459,80594,5
35466,80605,4
35464,80585,5
35457,80587,5
35456,80591,5
35448,80587,5
35450,80575,4
35447,80550,5
35453,80575,5
35461,80584,6
35449,80592,4
35458,80563,4
35444,80577,5
35450,80578,5
35451,80561,5
35447,80540,4
35440,80553,5
35433,80538,5
35430,80528,5
35431,80544,5
35422,80514,4
35426,80506,5
35407,80507,5
35408,80547,5
35412,80492,5
35405,80495,4
35410,80487,5
35414,80515,5
35415,80507,5
35414,80500,5
35425,80506,5
35426,80520,4
35423,80526,5
35445,80543,5
35446,80561,6
35451,80583,3
35460,80602,5
35467,80614,5
35480,80631,5
35483,80651,4
35486,80664,5
35499,80668,5
35500,80676,5
35497,80676,5
35498,80671,4
35494,80664,5
35495,80668,5
35494,80662,5
35491,80665,5
35482,80653,4
35477,80653,5
35481,80643,5
35481,80637,5
35480,80630,5
35474,80634,4
35473,80624,6
35471,80613,4
35472,80592,5
35475,80610,4
35458,80590,4
35450,80587,5
35446,80573,5
35452,80565,5
35446,80555,4
35448,80545,5
35439,80538,5
35428,80518,5
35432,80516,5
35416,80517,4
35429,80504,5
35412,80495,5
35411,80475,5
35406,80453,5
35398,80433,4
35377,80396,5
35367,80355,5
35349,80318,5
35322,80260,5
35309,80231,4
35288,80193,5
35274,80173,6
35274,80157,4
35269,80144,4
35264,80144,5
35272,80150,5
35279,80176,5
35289,80198,5
35302,80233,4
35315,80270,5
35330,80305,5
35352,80350,5
35366,80354,5
35366,80372,4
35375,80388,5
35379,80386,5
35382,80396,5
35376,80397,5
35371,80385,4
35367,80367,5
35366,80354,5
35335,80292,5
35308,80227,5
35287,80206,4
35292,80196,5
35286,80197,5
35287,80199,6
35288,80210,3
35297,80219,5
35303,80240,5
35313,80256,5
35324,80281,5
35341,80300,4
35337,80318,5
35355,80344,5
35366,80383,5
35392,80423,5
35385,80452,4
35412,80491,5
35437,80514,5
35430,80538,5
35408,80554,5
35447,80571,4
35456,80577,5
35458,80581,5
35439,80577,5
35458,80592,4
35457,80576,5
35463,80586,4
35466,80579,5
35453,80565,5
35453,80561,4
35456,80573,5
35484,80575,5
35452,80582,5
35461,80591,5
35455,80580,4
35486,80576,5
35453,80572,5
35448,80566,5
35454,80545,5
35448,80547,4
35439,80527,5
35429,80502,5
35421,80471,5
35409,80449,5
35396,80433,4
35381,80425,5
35374,80399,5
35377,80355,5
35369,80363,4
35359,80363,4
35352,80366,6
35357,80340,4
35366,80378,5
35369,80389,4
35373,80395,5
35382,80411,5
35394,80423,5
35401,80432,5
35404,80462,4
35410,80490,5
35413,80478,5
35419,80491,5
35418,80500,5
35429,80537,4
35430,80514,5
35427,80512,5
35424,80512,5
35430,80525,5
35422,80489,4
35420,80502,5
35413,80483,5
35415,80485,5
35401,80467,4
35411,80451,4
35404,80459,5
35396,80441,6
35385,80432,4
35379,80408,4
35377,80400,5
35369,80383,5
35366,80377,5
35362,80357,5
35354,80344,4
35338,80318,5
35342,80311,5
35335,80295,5
35320,80273,5
35308,80248,4
35295,80214,5
35285,80177,5
35274,80154,5
35245,80097,5
35219,80054,4
35202,80002,5
35180,79948,5
35156,79889,5
35132,79839,5
35108,79796,4
35089,79762,5
35086,79740,5
35081,79727,5
35083,79722,4
35073,79722,5
35073,79733,5
35091,79758,5
35095,79783,5
35113,79801,4
35121,79827,5
35128,79857,5
35133,79868,5
35148,79883,5
35146,79887,4
35142,79886,5
35145,79875,5
35140,79859,5
35128,79849,5
35127,79840,4
35119,79824,5
35116,79808,5
35093,79756,5
35066,79674,4
35037,79629,5
35023,79617,4
35018,79601,5
35016,79604,5
35028,79609,4
35022,79627,5
35034,79642,5
35039,79670,5
35057,79692,5
35070,79725,4
35085,79756,5
35091,79790,5
35106,79820,5
35127,79856,5
35136,79903,4
35159,79930,5
35168,79958,5
35178,79980,5
35192,80004,5
35195,80018,4
35197,80031,5
35206,80035,5
35219,80048,5
35219,80054,4
35210,80046,5
35217,80063,6
35221,80059,4
35218,80069,5
35224,80065,4
35224,80069,5
35227,80086,5
35230,80093,5
35237,80105,5
35235,80108,4
35235,80091,5
35211,80089,5
35233,80084,5
35225,80083,5
35217,80069,4
35190,80053,5
35217,80039,5
35213,80029,5
35195,80016,5
35175,80014,4
35198,80010,5
35188,80001,5
35203,79982,5
35205,79986,4
35194,79991,5
35188,80008,5
35205,80018,5
35242,80035,5
35223,80055,4
35230,80076,5
35248,80112,5
35281,80144,5
35274,80185,5
35281,80216,4
35302,80251,5
35331,80280,5
35332,80314,5
35349,80330,5
35355,80348,4
35352,80347,5
35357,80365,5
35361,80362,5
35365,80373,4
35359,80352,4
35364,80385,5
35364,80380,5
35364,80373,5
35364,80334,5
35361,80358,4
35356,80367,5
35357,80356,5
35343,80327,5
35355,80329,4
35335,80311,5
35327,80292,5
35319,80310,5
35317,80263,5
35294,80220,4
35284,80177,5
35261,80153,5
35239,80061,5
35219,80007,5
35193,79978,4
35170,79954,5
35162,79915,5
35161,79905,5
35159,79903,4
35160,79924,5
35168,79923,5
35170,79953,5
35183,79953,5
35180,79958,4
35179,79964,6
35191,79969,4
35190,79963,5
35170,79954,5
35171,79945,4
35170,79920,5
35165,79912,5
35154,79882,5
35142,79839,5
35107,79779,4
35085,79732,5
35068,79707,5
35057,79688,5
35058,79669,5
35048,79671,4
35043,79654,5
35056,79663,5
35050,79665,5
35050,79669,4
35053,79675,5
35055,79695,5
35069,79706,6
35069,79714,4
35074,79753,4
35092,79769,5
35090,79786,5
35107,79806,5
35112,79811,5
35119,79824,5
35114,79825,4
35117,79835,5
35123,79842,5
35118,79825,5
35111,79809,4
35099,79764,5
35077,79719,5
35060,79684,5
35055,79672,4
35044,79658,4
35031,79638,5
35037,79632,5
35028,79622,5
35035,79621,5
35014,79588,4
35010,79570,5
35002,79549,5
34989,79524,6
34976,79511,3
34975,79494,5
34972,79480,5
34950,79459,5
34951,79435,5
34937,79432,4
34945,79422,5
34941,79419,5
34944,79426,5
34942,79428,5
34950,79448,4
34958,79464,5
34968,79487,5
34981,79529,5
34993,79560,4
35011,79618,4
35036,79663,5
35066,79711,5
35078,79761,5
35106,79815,4
35134,79873,6
35150,79910,4
35163,79947,5
35178,79996,5
35202,80047,6
35230,80086,3
35245,80130,5
35254,80156,5
35279,80187,5
35290,80213,4
35294,80229,5
35303,80229,5
35295,80236,5
35282,80227,5
35289,80206,4
35282,80188,5
35271,80175,5
35241,80163,5
35260,80152,4
35252,80141,5
35252,80134,5
35221,80119,5
35245,80117,5
35257,80135,4
35256,80141,5
35276,80172,6
35286,80202,4
35299,80246,5
35322,80302,4
35372,80340,5
35364,80391,5
35377,80421,5
35398,80458,5
35446,80495,4
35433,80530,5
35436,80546,5
35453,80568,5
35470,80577,5
35452,80580,4
35442,80550,5
35434,80526,5
35434,80520,5
35434,80536,4
35442,80567,5
35465,80598,5
35476,80621,5
35503,80716,5
35544,80781,4
35576,80861,5
35605,80911,5
35641,81029,6
35682,81114,4
35726,81200,5
35767,81278,4
35806,81378,5
35847,81457,5
35879,81537,5
35913,81617,4
35934,81664,5
35965,81705,5
35982,81752,5
36003,81824,4
36017,81825,4
36033,81862,5
36036,81877,5
36053,81930,5
36050,81926,4
36067,81953,5
36079,81974,5
36094,82014,5
36097,82035,5
36123,82089,5
36140,82125,4
36154,82137,5
36162,82152,5
36158,82149,6
36150,82158,3
36158,82154,5
36165,82158,5
36171,82173,5
36161,82153,5
36166,82175,4
36171,82177,5
36174,82182,5
36174,82197,5
36181,82210,5
36191,82235,4
36213,82274,5
36235,82336,5
36265,82392,5
36289,82478,4
36329,82563,5
36377,82658,5
36425,82746,5
36465,82856,5
36522,82956,4
36561,83032,6
36588,83110,4
36620,83175,5
36649,83236,5
36673,83264,4
36685,83312,5
36702,83339,5
36710,83343,5
36714,83338,5
36704,83343,4
36690,83309,5
36678,83280,5
36658,83246,5
36636,83203,4
36623,83158,4
36606,83114,5
36589,83093,5
36575,83077,5
36585,83081,4
36586,83083,5
36592,83108,5
36604,83137,5
36619,83184,5
36645,83238,4
36678,83316,5
36706,83376,6
36732,83428,4
36769,83494,5
36782,83554,4
36816,83614,5
36841,83644,5
36842,83659,5
36848,83655,5
36832,83627,4
36805,83557,5
36771,83485,5
36744,83437,5
36729,83411,5
36719,83383,4
36706,83388,5
36719,83400,5
36726,83416,5
36733,83446,4
36751,83487,5
36783,83547,5
36818,83616,5
36837,83685,5
36868,83760,4
36907,83836,5
36947,83925,5
36990,84009,6
37022,84093,4
37067,84160,4
37103,84262,5
37139,84339,5
37171,84396,5
37199,84427,5
37198,84448,4
37184,84457,5
37204,84465,5
37206,84464,5
37207,84467,5
37178,84472,4
37209,84464,5
37202,84465,5
37195,84460,5
37167,84465,4
37202,84478,5
37210,84492,5
37204,84488,5
37192,84478,5
37190,84456,5
37189,84460,4
37186,84469,5
37215,84474,5
37195,84471,5
37198,84469,4
37193,84475,5
37228,84464,5
37188,84454,5
37173,84411,5
37146,84368,4
37146,84326,5
37095,84288,5
37094,84280,5
37100,84303,5
37122,84319,4
37124,84372,5
37150,84429,5
37186,84480,5
37216,84544,4
37242,84629,5
37275,84676,5
37304,84730,5
37309,84734,5
37319,84789,4
37326,84797,6
37328,84798,4
37322,84745,5
37301,84728,5
37269,84657,4
37237,84579,5
37190,84506,5
37161,84415,5
37121,84340,5
37088,84279,4
37068,84262,5
37044,84190,5
37043,84179,5
37040,84187,5
37039,84219,4
37056,84208,5
37063,84221,5
37060,84240,5
37080,84258,4
37083,84271,5
37099,84313,5
37116,84352,5
37133,84384,5
37135,84387,4
37127,84359,5
37107,84294,7
37062,84184,3
36999,84065,5
36951,83953,4
36909,83851,5
36867,83782,5
36832,83741,5
36817,83721,5
36813,83682,4
36801,83671,5
36787,83638,5
36785,83609,5
36767,83592,4
36766,83575,4
36755,83567,5
36757,83565,5
36759,83568,5
36753,83558,4
36752,83551,5
36748,83541,5
36743,83534,5
36746,83522,5
36739,83500,4
36724,83475,5
36712,83459,5
36703,83436,5
36701,83423,5
36695,83414,4
36692,83405,5
36689,83404,5
36695,83413,5
36709,83432,5
36710,83445,4
36718,83472,5
36723,83490,5
36741,83509,5
36743,83516,4
36743,83530,4
36751,83561,5
36759,83571,5
36780,83603,5
36792,83639,4
36808,83686,5
36840,83738,5
36855,83773,5
36874,83793,5
36887,83829,5
36895,83860,4
36917,83892,5
36932,83913,5
36931,83938,5
36938,83954,4
36943,83965,5
36955,83992,5
36966,84017,5
36979,84059,5
37002,84101,4
37013,84149,5
37038,84205,5
37073,84247,5
37091,84314,4
37140,84400,4
37179,84484,5
37204,84516,5
37225,84580,5
37237,84623,4
37259,84669,5
37284,84704,5
37303,84745,5
37294,84741,5
37293,84713,4
37272,84664,6
37249,84613,4
37232,84590,5
37224,84566,5
37201,84521,4
37193,84507,5
37190,84507,5
37190,84544,5
37224,84593,5
37245,84649,4
37277,84725,5
37282,84800,5
37356,84859,5
37370,84924,5
37412,85001,4
37419,85096,5
37498,85192,5
37540,85280,5
37582,85376,4
37608,85431,5
37621,85440,5
37606,85394,6
37588,85381,4
37616,85369,4
37586,85370,5
37593,85385,5
37589,85385,5
37622,85397,5
37595,85400,4
37598,85406,5
37603,85418,5
37621,85427,5
37605,85439,5
37610,85451,4
37620,85477,5
37637,85497,5
37646,85506,5
37653,85534,5
37658,85562,4
37668,85555,5
37661,85543,5
37639,85500,5
37608,85446,5
37595,85377,4
37577,85380,5
37576,85376,5
37570,85365,6
37560,85317,3
37551,85327,5
37553,85323,5
37531,85304,5
37529,85298,5
37520,85278,4
37518,85250,5
37504,85229,5
37502,85246,5
37482,85182,5
37477,85159,4
37464,85148,5
37459,85172,5
37455,85120,5
37449,85108,5
37432,85088,4
37432,85087,5
37426,85053,5
37414,85033,5
37404,85000,4
37399,84977,6
37384,84955,4
37372,84929,5
37363,84908,5
37355,84895,6
37346,84870,3
37348,84860,5
37340,84850,5
37328,84830,5
37333,84828,4
37319,84812,5
37316,84803,5
37316,84813,5
37328,84811,5
37320,84809,4
37318,84793,5
37312,84785,5
37311,84755,5
37280,84713,5
37263,84654,4
37227,84590,5
37201,84531,5
37173,84481,5
37149,84420,8
37120,84361,1
37103,84341,6
37090,84289,4
37084,84280,5
37084,84272,4
37079,84269,5
37084,84270,5
37082,84276,5
37090,84295,5
37097,84293,4
37097,84307,5
37104,84307,5
37103,84325,5
37116,84353,5
37125,84371,4
37127,84382,5
37127,84356,5
37103,84282,5
37046,84177,5
37001,84073,4
36968,83985,5
36937,83926,5
36906,83879,5
36889,83846,4
36880,83825,5
36880,83808,5
36864,83801,6
36865,83795,4
36860,83791,4
36858,83795,5
36864,83783,5
36863,83776,5
36859,83783,5
36866,83783,4
36856,83786,5
36862,83782,5
36860,83791,5
36867,83788,5
36872,83792,4
36876,83792,5
36871,83785,5
36871,83790,5
36867,83769,5
36865,83769,4
36864,83760,5
36857,83747,5
36848,83738,5
36838,83725,5
36839,83717,4
36837,83716,5
36841,83716,5
36838,83725,6
36829,83716,3
36831,83713,5
36825,83704,5
36830,83693,5
36824,83685,5
36818,83668,4
36820,83668,5
36820,83658,5
36804,83631,5
36781,83632,5
36795,83624,4
36795,83607,5
36787,83598,5
36753,83585,5
36769,83568,5
36753,83546,4
36751,83513,5
36723,83513,5
36741,83492,5
36731,83486,4
36733,83490,6
36754,83495,4
36739,83503,5
36759,83522,5
36759,83535,4
36798,83544,5
36780,83565,5
36781,83589,5
36793,83610,5
36825,83630,4
36804,83644,5
36821,83671,5
36832,83676,5
36838,83691,5
36833,83705,4
36851,83735,5
36858,83725,5
36859,83724,5
36853,83736,5
36863,83737,4
36859,83743,5
36858,83709,5
36855,83729,5
36850,83729,4
36847,83707,5
36843,83659,6
36837,83678,4
36828,83664,5
36832,83651,5
36804,83627,4
36801,83612,5
36801,83599,5
36785,83582,5
36796,83597,4
36780,83547,5
36774,83547,5
36765,83534,5
36763,83558,5
36750,83509,4
36753,83504,5
36751,83499,5
36748,83511,5
36746,83484,5
36737,83476,4
36731,83444,5
36725,83427,5
36694,83363,5
36664,83284,4
36614,83169,5
36559,83060,5
36504,82946,6
36449,82837,4
36413,82754,4
36384,82681,5
36358,82636,5
36353,82624,5
36347,82631,5
36368,82679,4
36393,82706,5
36412,82766,5
36440,82813,5
36457,82882,5
36492,82949,4
36529,83022,5
36566,83101,5
36597,83169,5
36620,83226,5
36644,83265,4
36665,83314,5
36682,83339,5
36692,83362,5
36683,83356,5
36665,83295,4
36618,83177,5
36569,83073,5
36532,83009,5
36511,82959,4
36489,82912,5
36475,82905,5
36475,82895,5
36479,82900,5
36469,82903,4
36480,82913,5
36483,82925,5
36487,82936,5
36502,82953,5
36508,82986,4
36520,83001,5
36523,83028,5
36537,83048,5
36548,83074,5
36562,83096,4
36569,83117,5
36581,83120,5
36592,83135,5
36590,83133,4
36592,83145,5
36593,83155,4
36592,83164,5
36598,83163,5
36596,83166,4
36592,83154,5
36594,83151,5
36597,83156,5
36588,83150,5
36587,83140,4
36581,83147,5
36592,83138,5
36595,83151,5
36592,83143,5
36585,83147,4
36579,83130,5
36576,83131,5
36578,83115,5
36574,83102,5
36568,83090,4
36565,83088,5
36558,83065,5
36555,83064,5
36544,83052,4
36547,83055,4
36544,83046,6
36549,83035,4
36547,83046,5
36548,83042,4
36549,83042,5
36541,83049,5
36546,83059,5
36549,83062,5
36559,83071,4
36551,83090,5
36571,83110,5
36582,83122,5
36584,83150,5
36574,83171,4
36619,83185,5
36622,83215,5
36630,83239,5
36611,83261,5
36654,83273,4
36662,83292,5
36668,83309,5
36680,83316,5
36668,83326,4
36676,83324,4
36674,83316,5
36697,83325,6
36674,83325,4
36674,83314,4
36683,83322,5
36706,83313,5
36667,83298,5
36664,83294,5
36663,83269,4
36665,83265,5
36643,83251,5
36641,83232,5
36629,83234,5
36635,83221,4
36621,83198,5
36616,83187,5
36607,83171,5
36607,83140,5
36602,83158,4
36589,83145,5
36590,83143,5
36587,83103,5
36580,83120,5
36586,83125,4
36593,83126,5
36590,83100,5
36584,83133,5
36583,83122,4
36588,83120,6
36583,83138,4
36583,83112,5
36579,83105,5
36573,83086,4
36559,83074,5
36532,83000,5
36498,82930,5
36477,82869,5
36439,82819,4
36413,82739,5
36392,82685,5
36372,82632,5
36363,82627,5
36339,82608,4
36342,82600,5
36358,82626,5
36367,82647,5
36384,82697,4
36408,82737,5
36431,82781,4
36445,82834,5
36472,82883,5
36499,82938,4
36519,82995,5
36539,83017,5
36546,83043,5
36560,83051,5
36557,83060,4
36562,83074,5
36559,83052,5
36547,83036,5
36518,82952,5
36481,82857,4
36434,82782,5
36404,82732,5
36388,82703,5
36387,82673,5
36370,82671,4
36372,82672,5
36385,82671,5
36392,82688,5
36393,82711,4
36405,82707,4
36407,82723,5
36419,82758,5
36427,82785,5
36440,82815,4
36454,82851,5
36480,82880,5
36488,82911,5
36492,82931,5
36505,82946,4
36509,82953,5
36511,82962,5
36507,82956,5
36513,82952,5
36504,82958,4
36497,82940,5
36504,82934,5
36494,82928,5
36500,82907,5
36495,82911,4
36482,82899,5
36484,82888,5
36473,82885,6
36480,82891,3
36477,82897,4
36478,82888,5
36477,82878,5
36470,82861,5
36464,82851,4
36453,82831,5
36453,82827,5
36440,82809,5
36441,82805,5
36436,82776,4
36434,82774,5
36429,82768,5
36432,82771,5
36435,82773,5
36425,82781,4
36429,82787,5
36438,82802,5
36447,82819,5
36449,82835,5
36450,82844,5
36462,82861,4
36479,82894,5
36485,82922,5
36510,82950,6
36524,82966,3
36518,82995,5
36537,83027,5
36551,83046,5
36569,83075,4
36576,83097,5
36584,83118,5
36587,83122,5
36599,83149,5
36607,83155,4
36611,83156,5
36575,83159,5
36600,83155,5
36597,83154,5
36602,83142,4
36570,83145,5
36601,83130,5
36591,83115,5
36584,83111,5
36570,83091,4
36570,83095,6
36565,83080,4
36561,83061,5
36575,83049,4
36553,83027,6
36547,83019,3
36543,83008,5
36567,83003,5
36528,82995,4
36525,82992,5
36533,82973,5
36550,82972,5
36521,82966,5
36519,82965,4
36531,82964,5
36522,82953,5
36519,82949,5
36512,82947,5
36511,82953,4
36514,82934,5
36512,82944,5
36512,82939,5
36514,82947,5
36514,82918,4
36512,82945,5
36508,82937,6
36499,82928,4
36493,82884,4
36496,82899,4
36468,82863,5
36463,82817,5
36442,82771,5
36421,82725,4
36400,82676,5
36369,82627,5
36354,82611,5
36327,82553,5
36330,82526,4
36316,82525,5
36317,82564,5
36330,82549,5
36343,82564,5
36356,82601,4
36374,82668,5
36396,82681,5
36404,82725,5
36426,82751,5
36428,82781,4
36440,82793,5
36448,82806,5
36453,82798,6
36452,82784,3
36440,82785,4
36437,82775,5
36428,82741,5
36411,82697,5
36378,82615,4
36325,82535,5
36307,82481,5
36299,82457,5
36286,82426,5
36282,82424,6
36277,82422,3
36281,82440,5
36278,82453,5
36293,82474,5
36316,82498,4
36319,82526,5
36323,82552,5
36348,82586,5
36366,82632,5
36375,82666,5
36404,82696,4
36415,82741,5
36429,82771,5
36439,82782,6
36441,82796,3
36442,82800,5
36449,82800,5
36453,82797,5
36458,82797,4
36447,82789,5
36446,82776,5
36434,82771,5
36435,82761,5
36433,82752,4
36432,82747,5
36432,82737,5
36422,82739,5
36425,82746,5
36433,82747,4
36417,82734,5
36416,82716,5
36398,82692,5
36394,82677,5
36386,82656,4
36377,82641,6
36364,82628,4
36358,82602,5
36355,82592,4
36353,82586,4
36350,82570,5
36346,82572,5
36339,82580,5
36350,82586,4
36355,82591,5
36366,82607,5
36358,82613,5
36376,82637,5
36379,82652,4
36387,82666,5
36396,82687,5
36407,82720,5
36418,82737,5
36435,82768,4
36454,82801,5
36467,82840,5
36470,82859,5
36490,82883,5
36497,82893,4
36498,82916,5
36509,82925,6
36505,82932,4
36510,82929,5
36514,82931,4
36509,82927,5
36508,82916,5
36504,82916,5
36494,82899,4
36495,82898,5
36489,82880,5
36487,82873,5
36455,82850,5
36469,82831,4
36467,82831,5
36465,82812,5
36424,82812,5
36449,82789,5
36443,82768,4
36429,82749,5
36393,82712,5
36402,82680,5
36384,82649,5
36367,82609,4
36359,82567,5
36329,82522,5
36320,82503,6
36311,82474,4
36326,82447,4
36292,82453,5
36295,82441,5
36298,82456,5
36339,82469,4
36316,82496,5
36322,82527,5
36335,82555,5
36365,82580,5
36359,82593,4
36366,82606,5
36372,82621,5
36376,82613,5
36369,82608,5
36360,82599,4
36358,82587,5
36364,82552,5
36350,82556,5
36338,82525,5
36315,82477,5
36273,82358,4
36239,82317,5
36220,82289,5
36206,82268,5
36205,82238,4
36194,82242,5
36204,82260,5
36208,82272,5
36215,82302,4
36225,82312,5
36243,82341,5
36250,82370,5
36254,82428,5
36279,82428,4
36292,82460,5
36305,82487,5
36320,82541,5
36326,82536,5
36337,82550,4
36333,82556,5
36345,82567,5
36342,82560,5
36338,82552,5
36325,82543,4
36327,82538,6
36319,82516,4
36323,82509,5
36316,82499,4
36307,82482,4
36292,82475,5
36299,82482,5
36302,82476,5
36291,82472,4
36292,82452,5
36286,82425,5
36269,82399,5
36254,82381,5
36247,82366,4
36248,82343,5
36236,82325,5
36226,82310,5
36214,82291,5
36205,82274,4
36199,82260,5
36201,82239,5
36185,82229,5
36194,82228,5
36193,82231,4
36191,82234,5
36201,82241,6
36203,82264,4
36206,82270,4
36215,82293,4
36222,82318,5
36235,82350,5
36248,82372,5
36270,82410,4
36283,82436,5
36282,82456,5
36298,82469,5
36302,82482,5
36312,82493,4
36312,82514,5
36313,82521,5
36325,82522,5
36326,82524,5
36322,82523,4
36323,82525,5
36320,82527,5
36321,82520,5
36326,82511,5
36311,82517,4
36309,82499,5
36306,82490,5
36309,82477,5
36296,82469,4
36288,82452,4
36288,82449,5
36276,82434,5
36281,82420,5
36280,82422,4
36277,82403,5
36261,82403,5
36264,82383,5
36257,82381,5
36255,82370,4
36255,82350,5
36223,82325,5
36224,82289,5
36189,82240,5
36178,82182,4
36151,82123,5
36123,82070,5
36103,82021,5
36081,81966,5
36060,81933,5
36052,81917,4
36048,81903,5
36049,81906,5
36051,81928,4
36061,81951,4
36076,81981,5
36080,82007,5
36101,82038,5
36111,82077,4
36113,82097,5
36139,82111,5
36144,82126,5
36148,82135,5
36121,82128,4
36144,82124,5
36139,82115,5
36129,82097,5
36091,82072,5
36092,81998,4
36065,81933,5
36047,81909,6
36042,81894,4
36037,81889,5
36030,81902,4
36054,81918,6
36090,81936,4
36069,81962,5
36083,82000,4
36096,82026,4
36151,82066,5
36132,82121,5
36159,82167,5
36177,82220,4
36217,82258,5
36213,82301,5
36238,82340,5
36248,82360,5
36254,82379,4
36256,82390,5
36265,82390,5
36266,82392,5
36264,82369,5
36266,82390,4
36258,82385,5
36257,82377,5
36253,82343,6
36251,82372,4
36251,82357,4
36254,82351,5
36249,82336,5
36247,82369,5
36249,82365,4
36241,82356,5
36250,82349,4
36243,82331,5
36225,82312,5
36238,82302,4
36215,82332,5
36222,82286,5
36203,82262,5
36207,82251,5
36203,82280,4
36191,82240,5
36185,82228,5
36191,82218,5
36190,82226,5
36182,82214,5
36184,82218,4
36187,82233,5
36198,82246,5
36203,82266,6
36221,82293,3
36228,82316,5
36240,82343,5
36256,82387,5
36261,82416,4
36283,82444,4
36308,82476,5
36313,82509,5
36326,82526,5
36331,82542,4
36355,82569,5
36351,82579,5
36363,82581,5
36360,82592,5
36359,82598,4
36368,82603,5
36370,82600,5
36369,82598,5
36365,82599,5
36364,82595,4
36354,82586,6
36354,82590,4
36347,82580,5
36341,82574,5
36337,82568,6
36347,82549,3
36335,82550,5
36333,82543,5
36334,82521,4
36326,82511,4
36319,82478,5
36299,82456,5
36275,82410,5
36266,82382,4
36239,82322,5
36222,82271,5
36193,82222,5
36172,82174,5
36154,82142,4
36145,82113,5
36144,82104,5
36140,82103,5
36146,82114,5
36149,82131,4
36162,82168,5
36181,82192,6
36185,82226,4
36205,82257,5
36224,82290,4
36225,82308,5
36236,82325,5
36245,82333,5
36252,82338,5
36242,82330,4
36239,82328,5
36233,82302,5
36218,82256,5
36182,82181,4
36163,82151,5
36153,82132,5
36144,82126,5
36144,82123,5
36146,82151,4
36162,82157,5
36179,82179,5
36192,82214,5
36200,82245,5
36215,82280,4
36233,82337,5
36252,82394,5
36286,82445,6
36321,82510,4
36335,82557,4
36361,82598,5
36377,82636,5
36387,82659,5
36393,82681,5
36396,82691,4
36407,82703,5
36399,82700,5
36399,82696,5
36402,82683,4
36402,82689,5
36375,82684,5
36387,82674,5
36395,82660,5
36385,82661,4
36365,82655,5
36394,82660,5
36393,82668,5
36395,82657,5
36371,82644,5
36372,82630,4
36374,82620,5
36370,82610,5
36375,82594,6
36354,82586,3
36347,82575,5
36347,82561,5
36370,82556,5
36342,82544,4
36334,82527,4
36328,82528,5
36342,82517,5
36328,82523,5
36323,82516,4
36330,82518,5
36335,82530,5
36331,82540,5
36347,82567,5
36355,82580,4
36366,82611,5
36382,82643,5
36395,82684,5
36409,82711,5
36421,82726,4
36444,82769,6
36448,82795,4
36465,82824,5
36466,82808,5
36483,82871,4
36492,82877,5
36498,82893,5
36500,82893,5
36503,82908,5
36502,82910,4
36503,82899,5
36494,82909,5
36489,82864,5
36475,82835,4
36457,82798,5
36437,82803,5
36422,82710,5
36405,82669,5
36369,82628,4
36369,82611,5
36347,82560,5
36337,82533,5
36334,82530,5
36336,82550,4
36330,82548,5
36343,82569,6
36356,82594,4
36363,82619,9
36382,82634,5
36384,82651,5
36400,82687,5
36405,82702,4
36411,82713,4
36418,82723,5
36419,82727,5
36420,82715,5
36409,82694,4
36393,82652,5
36365,82572,5
36334,82538,5
36324,82499,5
36318,82490,4
36304,82493,5
36313,82489,5
36314,82504,5
36318,82530,5
36333,82546,4
36342,82581,5
36367,82619,5
36376,82656,6
36402,82700,4
36423,82751,4
36444,82789,5
36463,82848,5
36490,82885,5
36497,82921,5
36512,82955,4
36529,82973,5
36540,82991,5
36542,83002,5
36544,83003,4
36546,83005,5
36546,83008,5
36557,83009,5
36544,83010,5
36548,82998,4
36536,82994,5
36538,82994,5
36537,82985,5
36537,82989,5
36534,82986,5
36529,82980,4
36533,82965,5
36520,82958,5
36518,82944,5
36510,82927,4
36510,82916,5
36502,82901,5
36493,82894,5
36500,82885,5
36484,82881,4
36477,82862,5
36484,82861,5
36483,82855,5
36476,82858,4
36473,82864,5
36482,82868,5
36487,82881,5
36491,82881,5
36501,82916,4
36514,82938,5
36531,82977,5
36544,83016,5
36564,83051,5
36582,83085,4
36595,83133,6
36618,83181,4
36639,83205,5
36648,83240,5
36660,83264,4
36675,83280,5
36675,83309,5
36687,83318,5
36691,83329,5
36701,83340,4
36696,83340,5
36701,83341,5
36698,83331,5
36673,83313,4
36682,83283,5
36661,83245,5
36642,83202,5
36580,83139,5
36586,83082,4
36556,83024,5
36540,82971,5
36482,82932,5
36504,82901,5
36498,82878,4
36480,82871,5
36502,82885,6
36485,82899,4
36508,82928,5
36518,82977,4
36571,83020,5
36567,83054,5
36582,83096,5
36604,83147,5
36656,83198,4
36641,83225,5
36661,83256,5
36655,83266,5
36673,83253,4
36648,83216,5
36613,83143,5
36587,83079,5
36566,83045,5
36548,83019,4
36538,83008,5
36546,82992,5
36536,82978,5
36532,83013,5
36546,83014,4
36556,83034,5
36563,83030,5
36569,83084,5
36586,83104,5
36598,83141,4
36622,83166,5
36627,83220,5
36661,83252,5
36671,83294,5
36688,83343,4
36693,83342,5
36705,83378,5
36719,83386,5
36720,83427,4
36721,83400,5
36723,83405,5
36724,83400,5
36720,83417,5
36720,83395,4
36712,83394,5
36710,83374,5
36711,83383,5
36718,83376,5
36714,83387,6
36706,83388,3
36719,83390,5
36708,83368,5
36706,83360,5
36700,83352,4
36697,83345,5
36689,83334,5
36691,83321,5
36685,83317,4
36679,83307,4
36681,83306,5
36679,83298,5
36675,83293,5
36668,83288,4
36672,83286,5
36675,83280,5
36666,83277,5
36675,83288,5
36675,83306,4
36679,83325,5
36692,83336,5
36694,83356,5
36712,83384,5
36715,83410,4
36741,83446,6
36755,83476,4
36765,83509,5
36797,83541,5
36809,83583,4
36821,83605,5
36825,83640,5
36841,83671,5
36856,83680,4
36861,83699,4
36871,83711,5
36868,83721,5
36874,83723,5
36880,83721,4
36867,83717,5
36856,83697,5
36853,83666,5
36835,83635,5
36805,83584,4
36774,83510,5
36742,83433,5
36700,83352,5
36665,83270,4
36640,83206,4
36620,83157,5
36590,83129,5
36586,83104,5
36581,83099,5
36586,83124,4
36601,83150,5
36617,83185,5
36641,83245,5
36673,83296,4
36701,83365,4
36725,83418,5
36758,83483,5
36778,83535,5
36802,83573,4
36810,83616,5
36829,83636,5
36829,83630,5
36831,83600,5
36782,83531,5
36746,83430,4
36709,83353,5
36677,83304,5
36661,83265,6
36634,83223,3
36632,83205,5
36622,83191,5
36617,83181,5
36622,83179,5
36615,83170,4
36615,83181,5
36616,83184,5
36622,83195,5
36635,83197,4
36628,83223,4
36622,83226,5
36632,83234,5
36646,83239,5
36639,83239,4
36620,83243,5
36645,83234,5
36648,83240,5
36637,83227,5
36621,83226,4
36632,83212,6
36623,83200,4
36616,83192,5
36629,83175,5
36608,83167,6
36605,83155,3
36602,83133,5
36622,83127,5
36583,83111,5
36588,83107,4
36591,83106,5
36612,83094,5
36563,83070,5
36565,83049,4
36551,83030,4
36547,83015,5
36543,82998,5
36524,82986,5
36521,82975,4
36512,82950,5
36503,82949,5
36507,82942,5
36498,82905,5
36497,82868,4
36483,82893,5
36488,82882,6
36480,82881,4
36474,82844,5
36482,82887,4
36485,82881,5
36483,82888,5
36493,82897,5
36490,82919,5
36497,82938,4
36510,82947,5
36518,82981,5
36524,82971,5
36534,82996,4
36545,83005,4
36548,83068,5
36550,83046,5
36560,83060,5
36563,83061,4
36560,83086,5
36568,83065,5
36569,83071,5
36571,83073,5
36564,83075,4
36566,83070,5
36568,83064,5
36556,83058,6
36554,83043,4
36551,83040,4
36554,83029,5
36548,83018,5
36546,83013,5
36533,82997,5
36530,82984,4
36526,82975,5
36509,82944,5
36498,82919,5
36482,82879,4
36459,82808,4
36415,82735,5
36375,82630,5
36330,82545,5
36288,82451,4
36260,82363,5
36228,82309,5
36203,82261,5
36183,82231,5
36186,82244,5
36189,82256,4
36211,82274,5
36218,82319,5
36241,82375,6
36269,82421,3
36300,82482,5
36328,82537,5
36359,82604,5
36384,82676,5
36396,82728,4
36428,82772,5
36434,82807,5
36460,82826,5
36473,82839,4
36464,82829,4
36448,82794,5
36409,82703,5
36360,82590,5
36320,82529,4
36296,82474,5
36283,82430,5
36270,82412,5
36266,82408,5
36268,82392,4
36261,82403,6
36268,82403,4
36260,82414,5
36278,82428,5
36276,82436,4
36280,82450,5
36288,82478,5
36308,82499,5
36319,82532,5
36330,82553,4
36335,82574,5
36346,82578,5
36353,82601,5
36349,82604,4
36358,82594,4
36351,82590,5
36354,82601,5
36352,82599,5
36357,82600,4
36349,82597,5
36349,82595,5
36346,82598,5
36348,82578,5
36337,82571,4
36351,82577,5
36339,82572,6
36348,82573,4
36341,82578,5
36340,82576,4
36334,82570,5
36335,82551,5
36327,82538,5
36313,82539,5
36311,82516,4
36308,82501,5
36296,82489,5
36279,82465,5
36293,82461,4
36291,82456,4
36288,82433,5
36261,82434,5
36288,82440,5
36281,82432,4
36269,82434,5
36252,82439,5
36286,82447,5
36285,82462,5
36298,82471,4
36313,82490,5
36308,82492,5
36310,82508,6
36324,82530,4
36359,82551,4
36339,82576,5
36351,82593,5
36363,82624,5
36392,82640,5
36379,82661,4
36394,82683,5
36397,82692,5
36411,82702,5
36405,82707,4
36406,82710,4
36410,82714,5
36412,82714,5
36408,82712,5
36405,82711,4
36402,82697,5
36404,82682,5
36402,82696,5
36395,82678,5
36394,82686,5
36393,82636,4
36381,82656,5
36379,82647,5
36377,82649,5
36379,82620,4
36375,82621,5
36365,82625,5
36362,82628,5
36357,82633,5
36361,82606,4
36359,82599,5
36352,82586,5
36348,82614,5
36348,82582,4
36351,82593,4
36346,82582,5
36343,82613,5
36347,82583,5
36343,82583,7
36344,82582,2
36341,82579,5
36368,82591,5
36344,82568,5
36346,82570,4
36342,82567,6
36345,82564,4
36332,82538,5
36321,82505,5
36286,82451,4
36267,82398,5
36243,82327,5
36206,82253,5
36165,82163,5
36131,82099,4
36112,82041,5
36088,82010,5
36082,81982,5
36081,81980,4
36086,82000,4
36100,82025,5
36103,82060,5
36133,82105,5
36160,82154,4
36168,82206,5
36207,82269,5
36226,82331,5
36261,82391,5
36284,82438,4
36301,82482,5
36313,82501,6
36317,82516,4
36317,82516,5
36307,82482,4
36297,82437,5
36252,82333,5
36203,82248,5
36172,82186,5
36157,82158,4
36134,82124,5
36136,82100,5
36133,82095,5
36128,82102,4
36135,82112,4
36138,82128,5
36148,82147,5
36152,82169,5
36165,82191,4
36174,82217,5
36203,82266,5
36218,82300,5
36227,82347,5
36255,82376,4
36265,82413,5
36278,82425,5
36290,82452,5
36284,82462,5
36290,82467,4
36298,82476,5
36295,82482,5
36297,82472,5
36290,82481,5
36294,82465,4
36289,82456,5
36279,82440,5
36278,82425,5
36278,82425,4
36265,82406,4
36264,82410,5
36263,82407,5
36271,82417,5
36268,82405,4
36267,82390,5
36258,82392,5
36251,82379,5
36242,82368,5
36244,82342,5
36239,82349,4
36233,82338,5
36229,82326,5
36224,82318,5
36219,82310,4
36219,82315,5
36234,82312,5
36221,82312,5
36230,82317,5
36207,82323,4
36224,82326,5
36240,82341,5
36242,82352,5
36220,82371,4
36255,82383,4
36269,82408,5
36286,82431,5
36259,82463,5
36293,82474,4
36309,82492,5
36314,82520,5
36346,82547,5
36334,82562,5
36335,82579,4
36346,82591,6
36390,82598,4
36356,82602,5
36367,82607,5
36360,82603,4
36380,82609,5
36357,82605,5
36359,82604,5
36356,82587,5
36367,82600,4
36357,82580,5
36339,82565,5
36345,82562,5
36345,82537,4
36326,82537,4
36321,82522,5
36320,82516,5
36306,82481,5
36311,82494,4
36303,82487,5
36299,82483,5
36292,82438,5
36307,82472,5
36297,82462,5
36284,82448,4
36286,82437,5
36291,82444,5
36291,82438,5
36275,82432,4
36279,82455,5
36269,82424,5
36282,82424,5
36273,82423,5
36277,82453,4
36269,82417,5
36272,82419,5
36265,82411,5
36269,82432,5
36264,82395,4
36260,82389,5
36259,82376,5
36251,82372,5
36247,82342,5
36220,82313,4
36205,82261,5
36175,82197,5
36157,82133,6
36122,82068,3
36087,82014,5
36065,81960,5
36046,81914,5
36023,81880,5
36022,81857,4
36019,81865,5
36015,81861,5
36031,81874,5
36037,81905,5
36045,81931,4
36073,81974,5
36086,82013,5
36102,82045,5
36117,82084,5
36125,82113,4
36142,82127,5
36155,82145,5
36147,82134,5
36135,82123,4
36133,82112,6
36122,82094,4
36109,82054,5
36071,81970,5
36024,81868,6
36006,81824,3
35995,81796,5
35971,81770,5
35969,81762,5
35966,81764,4
35970,81765,5
35981,81786,5
35979,81800,5
35987,81814,5
36002,81842,4
36015,81869,5
36028,81902,5
36044,81936,5
36066,81990,5
36079,82029,4
36093,82053,5
36113,82082,5
36121,82096,5
36120,82125,4
36135,82124,5
36129,82128,6
36134,82123,4
36135,82114,5
36124,82116,4
36122,82096,5
36112,82103,5
36104,82081,5
36109,82068,5
36097,82052,4
36105,82039,5
36086,82031,5
36087,82038,5
36085,82036,5
36093,82034,4
36085,82021,5
36081,81998,5
36064,81980,5
36052,81957,5
36044,81943,4
36050,81931,5
36030,81903,5
36024,81872,8
36006,81865,5
36011,81846,5
35972,81827,7
35985,81813,8
35986,81808,5
35987,81814,7
35987,81814,8
35991,81827,5
35989,81847,7
35986,81861,8
36013,81887,5
36058,81900,7
36060,81985,8
36060,81985,5
36030,81986,7
36062,81993,8
36069,81980,7
36062,82004,5
36092,81990,8
36062,81997,7
36042,81932,10
36042,81932,5
36028,81914,7
36063,81912,5
36026,81900,8
36020,81899,7
36014,81861,5
35983,81831,8
35983,81831,7
35972,81818,8
35974,81812,7
35977,81800,7
35956,81743,8
35956,81743,7
35954,81749,5
35949,81702,8
36060,81985,7
35932,81670,5
35947,81668,8
35899,81629,7
35824,81439,7
35824,81439,10
35800,81449,5
35802,81405,5
35808,81432,10
35811,81436,5
35814,81448,5
35903,81619,10
35903,81619,5
35908,81662,5
35936,81691,10
35947,81731,5
35944,81733,5
35944,81709,10
35944,81709,5
35934,81661,5
35899,81598,10
35873,81536,5
35864,81514,5
35807,81504,10
35833,81500,5
35847,81500,5
35899,81636,10
35899,81636,5
35935,81683,7
35952,81725,8
35979,81770,5
36002,81839,7
36021,81902,8
36113,82075,5
36113,82075,7
36111,82083,8
36108,82086,5
36113,82084,7
36125,82098,8
36123,82104,5
36123,82107,7
36125,82106,8
36125,82106,5
36127,82058,7
36130,82103,8
36143,82128,9
36134,82110,8
36134,82110,5
36153,82093,7
36118,82093,8
36110,82078,5
36113,82077,7
36108,82091,8
36103,82083,5
36101,82075,7
36101,82075,8
36111,82073,5
36104,82094,7
36125,82120,8
36139,82136,5
36153,82178,7
36252,82397,8
36252,82397,7
36270,82425,5
36282,82433,8
36293,82486,7
36307,82497,10
36319,82529,7
36319,82529,2
36291,82534,4
36322,82524,5
36316,82520,5
36310,82523,5
36315,82509,5
36315,82506,4
36303,82502,5
36279,82492,5
36302,82481,5
36302,82471,5
36291,82454,4
36249,82452,5
36276,82426,5
36273,82411,5
36254,82385,5
36238,82348,4
36220,82298,5
36198,82243,5
36172,82197,5
36174,82135,4
36119,82071,4
36089,82017,6
36072,81968,4
36093,81951,5
36048,81937,4
36055,81930,5
36055,81940,5
36073,81964,5
36079,81985,5
36082,82019,4
36096,82046,5
36121,82084,5
36128,82100,5
36140,82127,5
36143,82131,4
36141,82113,5
36143,82133,5
36144,82120,5
36134,82111,5
36123,82079,4
36118,82070,5
36089,82016,5
36061,81947,6
36042,81866,3
36047,81884,4
36025,81877,5
36027,81891,5
36040,81920,5
36050,81940,4
36055,81961,5
36077,82001,5
36088,82067,5
36111,82087,5
36135,82137,5
36155,82193,4
36186,82276,5
36210,82299,5
36231,82344,5
36252,82389,4
36265,82435,5
36280,82437,5
36280,82453,5
36293,82459,5
36292,82475,4
36295,82472,5
36294,82467,5
36291,82465,5
36291,82463,5
36285,82462,4
36289,82451,5
36284,82442,5
36279,82437,5
36279,82433,4
36283,82440,5
36275,82457,5
36274,82442,5
36270,82430,5
36267,82408,4
36257,82391,5
36255,82380,5
36254,82375,5
36244,82363,5
36241,82342,4
36223,82318,5
36224,82304,5
36220,82289,5
36205,82282,5
36214,82271,4
36199,82269,5
36195,82262,5
36202,82252,5
36203,82269,4
36204,82274,5
36217,82297,4
36224,82319,5
36242,82348,5
36254,82393,4
36273,82435,5
36300,82475,5
36314,82519,5
36332,82554,5
36346,82599,4
36358,82646,5
36380,82675,5
36386,82694,5
36401,82713,5
36414,82739,4
36425,82736,5
36420,82745,5
36424,82743,5
36427,82750,5
36425,82748,4
36422,82733,5
36417,82728,5
36415,82722,5
36396,82696,4
36394,82669,4
36370,82636,6
36362,82581,4
36327,82545,5
36305,82492,4
36290,82443,5
36263,82391,5
36251,82360,5
36239,82330,5
36224,82310,4
36220,82306,5
36228,82316,5
36232,82348,5
36239,82362,5
36250,82394,4
36282,82426,5
36284,82465,5
36299,82500,5
36310,82512,5
36326,82534,4
36328,82565,5
36339,82569,5
36344,82567,6
36339,82563,3
36340,82555,4
36324,82526,5
36290,82451,5
36260,82388,5
36240,82360,4
36231,82348,5
36241,82341,5
36233,82355,5
36219,82376,5
36251,82394,4
36266,82432,5
36291,82477,5
36287,82526,5
36342,82586,5
36367,82646,4
36397,82725,5
36424,82781,5
36452,82842,5
36487,82905,5
36514,82949,5
36542,82990,4
36547,83028,5
36558,83036,5
36561,83059,6
36602,83070,3
36570,83069,5
36574,83059,5
36570,83070,5
36579,83051,4
36563,83056,5
36555,83045,5
36556,83035,5
36557,83031,5
36554,83036,4
36547,83047,5
36548,83038,5
36548,83013,5
36542,83015,5
36539,83014,4
36532,82992,5
36522,82956,5
36519,82980,5
36514,82957,5
36514,82959,4
36509,82922,6
36511,82952,4
36502,82947,5
36506,82931,5
36503,82940,6
36500,82934,3
36504,82940,5
36517,82954,5
36517,82992,4
36523,82991,5
36536,83011,5
36543,83037,5
36566,83120,5
36592,83121,4
36614,83181,5
36632,83235,5
36654,83300,5
36684,83328,5
36701,83380,4
36726,83415,5
36750,83461,5
36760,83486,5
36760,83508,5
36770,83519,4
36777,83539,5
36786,83549,6
36789,83542,4
36786,83540,4
36788,83548,4
36786,83525,5
36776,83508,5
36758,83461,5
36731,83422,4
36716,83366,5
36678,83314,5
36657,83252,5
36632,83202,5
36606,83175,4
36596,83143,5
36589,83127,5
36597,83133,5
36598,83144,5
36615,83172,4
36633,83211,5
36647,83255,5
36672,83316,5
36698,83366,5
36723,83425,4
36739,83473,5
36774,83525,5
36801,83583,6
36817,83615,3
36827,83636,4
36827,83629,5
36822,83616,5
36800,83554,5
36766,83469,4
36737,83432,5
36727,83397,5
36703,83375,5
36697,83360,5
36700,83363,4
36699,83359,5
36701,83380,5
36719,83398,5
36727,83423,5
36734,83443,4
36748,83487,5
36770,83525,5
36783,83572,5
36802,83608,5
36822,83656,5
36848,83692,4
36859,83722,5
36883,83744,5
36888,83776,6
36894,83789,3
36907,83798,5
36903,83804,5
36899,83801,5
36904,83809,4
36908,83803,5
36901,83801,5
36904,83794,5
36899,83786,5
36893,83791,4
36896,83783,5
36879,83776,5
36893,83786,5
36898,83793,5
36901,83797,4
36898,83788,5
36895,83767,5
36891,83774,5
36888,83763,5
36886,83768,4
36887,83767,6
36881,83767,4
36882,83774,5
36891,83772,4
36882,83763,4
36874,83756,5
36871,83756,5
36872,83753,5
36882,83753,4
36859,83758,5
36877,83772,5
36889,83770,5
36899,83792,5
36876,83817,4
36915,83839,5
36937,83872,5
36946,83910,5
36954,83947,5
36987,83991,4
37009,84038,5
37034,84084,5
37067,84114,5
37063,84150,5
37078,84190,4
37105,84248,5
37161,84269,6
37133,84283,4
37138,84289,5
37136,84284,4
37152,84273,5
37122,84246,5
37104,84206,5
37082,84160,4
37056,84112,5
37034,84057,5
37002,84015,5
36984,83973,5
36955,83913,4
36945,83900,5
36939,83886,5
36933,83889,5
36939,83867,5
36953,83912,4
36960,83924,5
36961,83943,5
36984,83945,5
36985,84002,5
37011,84051,4
37032,84094,5
37047,84128,5
37065,84145,6
37056,84138,4
37051,84118,4
37024,84068,5
36985,83955,5
36948,83888,5
36924,83839,4
36899,83825,4
36869,83747,5
36862,83714,5
36849,83690,5
36836,83688,4
36823,83646,5
36808,83635,5
36799,83622,5
36800,83606,5
36799,83605,4
36796,83595,5
36791,83602,5
36795,83611,5
36807,83609,5
36799,83600,5
36795,83607,4
36797,83611,5
36793,83607,5
36798,83599,5
36794,83597,4
36783,83582,5
36785,83582,5
36784,83566,5
36779,83559,4
36778,83547,4
36773,83539,5
36767,83527,5
36756,83522,5
36759,83506,4
36762,83519,5
36761,83519,5
36760,83502,5
36744,83491,5
36738,83480,4
36740,83464,5
36727,83440,5
36722,83418,5
36708,83399,5
36689,83373,4
36683,83347,6
36674,83319,4
36659,83291,5
36650,83248,5
36614,83218,4
36611,83182,5
36596,83150,5
36589,83134,5
36573,83117,4
36552,83084,4
36557,83070,5
36554,83053,5
36548,83060,5
36545,83064,4
36554,83070,5
36550,83070,5
36554,83065,5
36555,83082,5
36562,83087,4
36565,83093,5
36560,83110,5
36578,83125,5
36580,83140,5
36587,83143,4
36591,83146,5
36600,83145,6
36593,83156,4
36596,83148,5
36591,83146,4
36592,83143,5
36583,83137,5
36577,83134,5
36584,83132,4
36582,83130,4
36581,83119,5
36571,83108,5
36568,83086,5
36558,83061,4
36541,83023,5
36513,82973,5
36491,82889,5
36446,82803,5
36391,82704,4
36345,82590,5
36295,82498,5
36275,82423,5
36239,82350,5
36215,82294,4
36199,82263,5
36191,82261,5
36183,82279,5
36210,82306,5
36220,82344,4
36234,82380,5
36244,82416,5
36269,82464,5
36312,82546,4
36328,82594,4
36323,82631,5
36366,82674,5
36391,82713,5
36417,82750,4
36403,82792,5
36436,82798,5
36438,82805,5
36416,82762,5
36403,82665,4
36341,82584,5
36319,82520,5
36299,82494,5
36312,82453,5
36265,82426,5
36260,82414,4
36250,82402,5
36277,82409,5
36251,82422,5
36248,82418,4
36258,82425,5
36274,82431,5
36267,82440,5
36280,82448,4
36291,82473,4
36279,82479,5
36288,82494,5
36298,82508,5
36298,82529,4
36302,82502,5
36305,82527,5
36299,82529,5
36304,82528,5
36303,82493,4
36302,82519,5
36300,82509,5
36295,82508,5
36287,82485,8
36297,82490,1
36289,82516,6
36298,82482,4
36289,82505,5
36292,82479,5
36297,82493,4
36290,82494,5
36287,82524,5
36289,82478,5
36281,82471,5
36277,82465,4
36275,82474,5
36275,82439,5
36265,82438,5
36260,82424,4
36252,82423,5
36259,82404,5
36252,82408,5
36254,82391,5
36249,82396,4
36249,82395,5
36244,82379,5
36241,82382,5
36249,82387,4
36244,82380,4
36245,82381,5
36252,82387,5
36255,82406,5
36250,82406,5
36263,82421,4
36262,82441,5
36270,82447,5
36286,82469,5
36286,82473,5
36297,82495,4
36304,82511,5
36310,82526,5
36324,82549,5
36326,82545,4
36321,82564,5
36333,82567,5
36331,82583,5
36335,82586,5
36333,82592,5
36343,82600,4
36335,82589,5
36340,82592,5
36342,82582,6
36337,82586,3
36337,82581,5
36334,82572,5
36330,82568,5
36324,82551,5
36319,82546,4
36318,82529,5
36320,82515,5
36294,82504,5
36303,82496,5
36300,82499,4
36295,82484,5
36286,82485,5
36289,82473,5
36286,82466,4
36276,82468,5
36278,82458,5
36281,82453,5
36280,82447,5
36272,82429,4
36264,82415,6
36244,82365,4
36228,82315,5
36195,82248,5
36152,82165,6
36121,82081,3
36075,81994,5
36052,81925,5
36024,81875,5
36008,81850,4
36005,81839,5
36007,81844,5
36004,81860,5
36017,81871,5
36033,81913,4
36045,81960,5
36068,81996,5
36093,82046,5
36116,82101,4
36146,82173,5
36179,82235,5
36195,82269,5
36206,82299,5
36222,82349,4
36231,82359,5
36233,82362,6
36235,82349,4
36214,82292,5
36170,82212,4
36128,82109,5
36102,82070,5
36089,82035,5
36056,81999,5
36060,81986,4
36067,81977,5
36061,81972,5
36031,81979,5
36061,81986,5
36063,82001,4
36066,82007,5
36068,82030,5
36091,82046,5
36093,82066,4
36115,82097,4
36144,82129,5
36138,82147,5
36146,82168,5
36150,82200,4
36196,82207,5
36166,82208,5
36171,82223,6
36171,82221,4
36195,82210,4
36172,82220,5
36169,82213,5
36174,82211,5
36171,82206,5
36161,82204,4
36159,82194,5
36156,82192,5
36162,82179,5
36152,82193,5
36160,82188,4
36163,82195,5
36150,82161,5
36155,82176,5
36145,82167,4
36137,82150,4
36136,82117,5
36127,82134,5
36132,82121,5
36123,82119,5
36111,82101,4
36104,82093,5
36099,82087,5
36109,82079,6
36109,82109,3
36110,82078,5
36104,82088,5
36113,82087,5
36112,82128,5
36114,82090,4
36122,82108,5
36121,82122,5
36131,82155,5
36136,82142,5
36149,82166,4
36167,82192,5
36170,82217,5
36181,82239,5
36192,82261,4
36186,82272,4
36206,82299,5
36210,82315,5
36206,82329,5
36226,82331,4
36222,82355,6
36224,82345,4
36226,82347,5
36224,82344,5
36230,82335,4
36227,82328,5
36223,82320,5
36213,82320,5
36217,82310,5
36215,82300,4
36205,82292,5
36207,82289,5
36198,82270,5
36193,82257,5
36193,82252,4
36190,82246,5
36184,82234,5
36170,82229,5
36169,82222,4
36168,82214,4
36162,82207,5
36171,82216,5
36166,82215,5
36170,82206,4
36159,82202,5
36158,82206,6
36157,82193,4
36155,82196,5
36160,82189,4
36154,82182,5
36156,82189,5
36157,82188,5
36157,82172,5
36156,82173,4
36145,82163,5
36151,82168,5
36142,82153,5
36144,82143,5
36129,82144,4
36130,82134,5
36130,82125,5
36129,82118,5
36130,82111,4
36115,82105,4
36127,82098,5
36119,82101,5
36117,82095,5
36110,82082,4
36100,82079,5
36112,82072,5
36092,82063,6
36097,82048,4
36095,82031,4
36087,82010,5
36061,81993,5
36050,81941,5
36026,81879,5
35985,81798,4
35967,81727,5
35926,81657,5
35887,81578,5
35868,81531,5
35846,81487,4
35828,81461,5
35826,81458,5
35829,81450,5
35832,81467,4
35833,81487,4
35851,81521,5
35874,81562,5
35888,81595,5
35904,81636,5
35926,81664,4
35934,81716,5
35953,81740,5
35964,81749,5
35964,81750,4
35937,81754,5
35954,81743,5
35950,81719,5
35927,81664,5
35861,81586,4
35862,81524,5
35850,81499,5
35831,81476,5
35814,81459,5
35828,81469,4
35831,81476,5
35833,81483,5
35864,81498,5
35840,81510,4
35858,81529,4
35867,81567,5
35915,81589,5
35900,81618,5
35916,81670,4
35932,81716,6
35966,81736,4
35962,81772,5
35971,81794,5
35972,81800,4
35988,81806,5
35985,81814,5
35976,81801,5
35981,81817,5
35976,81791,4
35974,81785,5
35962,81781,5
35963,81768,5
35956,81734,5
35952,81744,4
35945,81731,5
35933,81728,5
35934,81677,5
35924,81699,4
35929,81697,4
35926,81699,5
35921,81674,5
35911,81666,5
35909,81645,4
35898,81631,5
35886,81641,6
35888,81594,4
35867,81572,5
35858,81547,4
35852,81580,5
35854,81530,5
35843,81522,5
35842,81504,5
35839,81519,4
35837,81491,5
35825,81484,5
35819,81481,5
35827,81494,5
35829,81487,4
35822,81504,5
35836,81508,5
35834,81515,5
35847,81533,4
35854,81547,4
35851,81557,5
35859,81569,5
35869,81584,5
35868,81597,4
35871,81602,5
35872,81606,5
35870,81608,5
35881,81615,5
35886,81604,4
35882,81611,5
35882,81618,5
35880,81615,5
35872,81625,5
35884,81615,4
35884,81616,5
35879,81616,5
35880,81619,5
35878,81616,5
35881,81606,4
35878,81609,5
35877,81596,5
35865,81603,5
35867,81603,5
35865,81585,4
35874,81593,5
35864,81593,5
35868,81589,5
35878,81595,5
35868,81596,4
35873,81587,5
35871,81598,5
35885,81600,5
35870,81596,4
35872,81610,5
35883,81606,5
35883,81594,5
35884,81608,5
35881,81614,4
35889,81608,5
35890,81611,5
35887,81615,5
35887,81613,5
35893,81614,4
35890,81611,5
35885,81633,5
35887,81626,5
35898,81641,5
35888,81625,4
35894,81628,5
35886,81617,5
35886,81603,5
35883,81565,4
35857,81549,6
35845,81507,4
35839,81490,5
35827,81462,5
35813,81439,4
35804,81427,5
35812,81408,5
35804,81415,5
35807,81431,5
35810,81453,4
35825,81474,5
35849,81508,5
35861,81539,5
35871,81573,5
35887,81608,4
35897,81628,5
35914,81652,5
35916,81665,5
35908,81664,5
35915,81667,4
35910,81663,5
35910,81654,5
35900,81643,4
35891,81606,4
35873,81554,4
35853,81490,6
35814,81488,3
35836,81497,5
35838,81488,4
35840,81491,5
35814,81508,5
35853,81529,5
35864,81552,5
35876,81592,4
35894,81624,5
35923,81688,5
35939,81732,5
35978,81790,5
36012,81846,4
36021,81911,5
36052,81964,5
36071,82012,5
36125,82047,5
36107,82089,4
36118,82102,5
36123,82122,5
36148,82130,6
36133,82146,3
36144,82154,4
36135,82154,5
36145,82160,5
36145,82156,5
36140,82147,4
36134,82152,5
36128,82140,5
36141,82140,5
36132,82144,5
36130,82141,4
36142,82117,5
36132,82141,5
36132,82128,5
36129,82117,6
36125,82082,3
36110,82094,5
36106,82084,5
36093,82068,8
36086,82065,5
