RED,IR,EKG,TIME
26930,49992,183358
26930,49992,1
29975,55365,5
29976,55356,4
29963,55368,5
29963,55359,5
29960,55356,6
29965,55357,4
29961,55345,4
29953,55347,5
29961,55354,5
29960,55356,5
29962,55365,4
29966,55376,4
29965,55375,5
29968,55367,5
29964,55368,5
29967,55373,4
29963,55373,5
29965,55363,5
29961,55353,5
29963,55353,5
29918,55353,4
29957,55339,5
29952,55347,5
29951,55353,5
29909,55348,5
29951,55357,5
29951,55354,4
29946,55352,5
29901,55344,5
29953,55344,6
29941,55339,3
29937,55347,5
29964,55350,5
29949,55348,5
29952,55345,4
29949,55342,4
29995,55340,5
29935,55331,5
29946,55331,5
29932,55329,4
29991,55331,5
29940,55341,5
29939,55335,5
29941,55341,5
29961,55327,4
29936,55345,5
29941,55337,5
29942,55339,5
29944,55329,5
29940,55332,4
29944,55339,6
29946,55347,4
29949,55308,5
29939,55335,5
29933,55345,4
29939,55344,5
29945,55279,5
29939,55342,5
29943,55332,4
29945,55341,4
29939,55327,4
29933,55337,5
29940,55343,5
29935,55341,4
29937,55388,5
29933,55344,5
29936,55347,5
29942,55354,5
29941,55417,4
29949,55351,5
29951,55359,5
29949,55359,5
29957,55394,5
29957,55358,4
29939,55359,5
29956,55356,6
29948,55373,4
29953,55365,5
29955,55370,4
29954,55387,5
29955,55388,5
29965,55397,5
29968,55400,4
29965,55398,4
29958,55399,5
29958,55393,5
29964,55390,5
29957,55395,4
29961,55391,5
29961,55390,5
29953,55386,5
29965,55386,5
29970,55392,4
29957,55385,5
29967,55382,5
29953,55386,5
29957,55386,5
29960,55380,4
29959,55381,5
29953,55391,5
29956,55390,6
29951,55384,4
29960,55389,4
29943,55377,5
29947,55378,5
29953,55379,5
29947,55374,4
29951,55375,4
29946,55366,5
29944,55368,5
29943,55371,5
29944,55359,4
29934,55361,5
29947,55357,5
29943,55358,5
29930,55353,5
29939,55351,4
29937,55352,5
29938,55361,5
29932,55351,5
29933,55345,5
29940,55345,5
29935,55346,4
29926,55343,5
29919,55343,5
29922,55343,5
29928,55344,4
29925,55339,5
29937,55338,5
29926,55339,5
29924,55338,4
29927,55343,4
29926,55341,5
29924,55343,5
29936,55344,5
29915,55330,4
29922,55336,5
29923,55334,5
29914,55328,5
29919,55322,5
29915,55321,4
29920,55332,5
29919,55340,5
29920,55333,5
29927,55342,5
29923,55335,4
29926,55341,6
29930,55344,4
29926,55333,5
29928,55344,5
29928,55343,4
29930,55343,5
29928,55349,5
29925,55343,5
29923,55342,5
29923,55339,4
29929,55345,5
29898,55337,5
29917,55343,5
29927,55346,4
29925,55332,4
29875,55347,5
29922,55336,5
29927,55345,5
29921,55337,4
29874,55336,5
29920,55344,5
29920,55339,5
29926,55342,5
29930,55343,4
29926,55333,5
29916,55331,6
29930,55337,4
29970,55329,5
29919,55333,4
29926,55338,5
29935,55335,5
29986,55344,5
29923,55337,5
29925,55336,4
29924,55336,5
29940,55337,5
29924,55330,5
29924,55331,4
29921,55328,4
29930,55325,5
29920,55335,5
29924,55330,5
29917,55329,4
29915,55293,4
29916,55329,5
29914,55328,5
29920,55319,6
29913,55269,3
29919,55330,5
29914,55325,5
29918,55324,5
29922,55293,5
29914,55312,4
29907,55319,5
29909,55307,5
29905,55337,5
29895,55308,5
29900,55305,4
29907,55302,5
29901,55371,5
29907,55301,5
29902,55312,4
29908,55306,4
29893,55354,5
29904,55308,5
29902,55306,5
29908,55312,4
29911,55321,5
29905,55316,5
29916,55316,5
29917,55332,5
29918,55325,5
29916,55329,4
29912,55329,5
29910,55328,5
29914,55329,5
29911,55325,4
29914,55326,5
29912,55339,5
29914,55336,5
29919,55333,5
29918,55343,4
29912,55328,5
29913,55319,5
29906,55322,5
29911,55312,4
29897,55297,4
29888,55292,5
29896,55288,5
29887,55286,5
29891,55274,4
29887,55290,5
29900,55282,5
29885,55288,5
29896,55288,5
29886,55285,4
29888,55288,6
29891,55272,4
29882,55276,5
29889,55277,5
29886,55288,4
29892,55295,5
29887,55287,5
29895,55291,7
29900,55310,3
29898,55312,4
29902,55297,5
29898,55306,5
29902,55311,5
29904,55305,5
29903,55310,4
29904,55314,5
29901,55317,5
29910,55316,5
29911,55313,4
29910,55316,4
29904,55315,5
29899,55313,5
29906,55315,5
29916,55317,4
29908,55306,5
29902,55307,5
29894,55311,5
29908,55327,5
29918,55335,4
29919,55347,5
29921,55358,5
29924,55343,5
29923,55337,5
29915,55336,4
29914,55331,5
29912,55313,5
29902,55310,5
29904,55320,5
29899,55308,4
29903,55305,5
29898,55307,5
29901,55316,5
29911,55312,4
29909,55330,4
29917,55334,5
29918,55347,5
29917,55343,5
29916,55345,4
29913,55343,5
29924,55343,5
29923,55352,5
29919,55349,5
29910,55339,4
29917,55336,5
29919,55338,5
29915,55320,5
29868,55317,5
29906,55311,4
29906,55316,5
29900,55314,5
29860,55325,5
29910,55317,5
29919,55323,4
29902,55320,5
29884,55322,5
29909,55320,5
29909,55320,4
29915,55327,5
29946,55335,4
29909,55343,5
29922,55352,5
29918,55360,6
29984,55352,3
29914,55350,5
29917,55343,5
29922,55353,5
29958,55347,4
29918,55337,5
29913,55353,5
29921,55334,5
29919,55348,5
29918,55342,4
29910,55337,5
29905,55328,5
29913,55311,5
29913,55327,5
29911,55322,4
29908,55329,5
29907,55278,5
29910,55325,5
29911,55316,5
29900,55312,4
29905,55264,6
29898,55309,4
29905,55323,5
29906,55315,5
29909,55320,6
29905,55327,3
29902,55325,5
29914,55335,5
29901,55388,4
29914,55337,5
29909,55336,5
29914,55346,5
29928,55412,5
29925,55349,4
29926,55361,5
29926,55364,5
29927,55388,5
29932,55358,5
29937,55365,4
29932,55374,5
29930,55369,5
29933,55373,5
29940,55373,5
29936,55374,4
29941,55376,5
29941,55373,6
29943,55374,4
29937,55377,4
29944,55378,4
29937,55389,5
29952,55374,5
29938,55375,5
29948,55384,4
29945,55381,5
29948,55374,5
29944,55379,5
29948,55376,5
29941,55386,4
29951,55394,5
29948,55395,5
29951,55390,5
29956,55393,5
29952,55412,4
29947,55403,5
29953,55402,5
29954,55394,5
29954,55404,5
29956,55405,4
29947,55405,5
29951,55391,5
29945,55401,6
29950,55403,3
29955,55410,4
29956,55408,5
29955,55414,5
29957,55400,5
29954,55403,4
29945,55405,5
29960,55410,5
29960,55412,5
29960,55405,5
29951,55413,4
29951,55410,5
29961,55415,5
29950,55405,5
29958,55414,5
29961,55412,4
29961,55417,5
29960,55412,5
29965,55419,5
29963,55415,5
29965,55406,5
29957,55414,4
29951,55401,5
29947,55403,5
29952,55390,6
29942,55396,3
29949,55399,5
29945,55384,5
29948,55392,5
29943,55387,4
29946,55393,4
29952,55391,5
29948,55399,5
29953,55395,5
29945,55398,4
29953,55413,5
29959,55407,5
29962,55416,5
29954,55407,5
29961,55425,4
29965,55426,5
29959,55418,5
29959,55417,5
29958,55413,5
29958,55413,4
29956,55401,6
29953,55400,4
29946,55398,5
29947,55397,5
29949,55395,4
29928,55403,5
29954,55402,5
29946,55402,5
29955,55394,4
29913,55401,4
29957,55405,5
29949,55402,5
29956,55399,5
29896,55408,4
29948,55396,5
29953,55398,5
29959,55403,5
29954,55408,5
29953,55407,4
29949,55406,5
29955,55400,5
29993,55402,5
29945,55404,5
29945,55395,4
29952,55396,5
30007,55393,6
29951,55393,4
29953,55389,5
29946,55395,4
29973,55395,5
29952,55398,5
29945,55398,5
29951,55396,5
29953,55400,4
29951,55387,5
29949,55394,5
29938,55390,5
29942,55359,4
29939,55394,4
29945,55385,5
29938,55393,5
29938,55338,5
29945,55391,4
29944,55392,5
29948,55392,5
29943,55348,5
29945,55394,5
29949,55391,4
29937,55386,5
29949,55413,5
29954,55390,6
29947,55396,4
29942,55400,4
29960,55467,5
29953,55416,5
29964,55419,5
29959,55420,5
29962,55467,4
29961,55420,5
29962,55418,5
29963,55423,5
29965,55447,4
29955,55421,4
29964,55422,5
29959,55426,5
29964,55426,5
29962,55422,4
29957,55421,5
29961,55411,5
29962,55417,5
29958,55415,5
29954,55413,5
29958,55416,4
29949,55423,5
29955,55418,5
29957,55417,5
29962,55414,4
29952,55414,5
29960,55418,5
29953,55424,5
29966,55432,5
29957,55425,4
29959,55430,5
29958,55434,5
29970,55428,5
29972,55434,5
29971,55436,4
29967,55422,5
29970,55432,5
29972,55437,5
29962,55424,4
29969,55426,5
29961,55424,5
29966,55430,5
29961,55440,5
29964,55436,4
29969,55431,6
29970,55430,4
29973,55438,5
29964,55425,5
29961,55434,4
29968,55434,5
29970,55434,5
29960,55431,5
29969,55441,5
29967,55429,4
29968,55438,5
29969,55427,5
29959,55428,5
29966,55436,5
29968,55428,4
29962,55425,5
29964,55423,5
29960,55427,5
29966,55431,4
29957,55427,4
29957,55428,5
29955,55417,5
29960,55426,5
29966,55423,4
29960,55427,5
29958,55427,6
29962,55422,4
29960,55434,5
29966,55429,4
29967,55429,5
29966,55425,5
29955,55426,5
29967,55422,5
29961,55418,4
29950,55420,5
29955,55412,5
29949,55405,5
29953,55406,5
29952,55400,4
29946,55397,5
29952,55403,5
29956,55408,5
29952,55410,4
29948,55407,4
29948,55410,5
29949,55411,5
29946,55404,5
29952,55401,4
29949,55400,5
29946,55399,5
29913,55396,5
29947,55390,5
29943,55388,4
29947,55402,5
29897,55392,5
29944,55387,5
29948,55389,5
29936,55394,4
29890,55384,5
29937,55390,5
29930,55380,5
29938,55379,5
29954,55375,4
29936,55379,5
29946,55381,5
29940,55384,5
29988,55390,5
29941,55383,4
29933,55378,5
29938,55374,5
29978,55366,5
29937,55362,5
29925,55360,4
29924,55363,5
29942,55352,5
29924,55356,5
29922,55352,4
29919,55359,5
29925,55347,5
29921,55355,5
29922,55350,5
29920,55346,4
29911,55303,5
29915,55339,5
29913,55339,5
29921,55333,5
29921,55286,4
29908,55335,5
29913,55348,5
29919,55345,5
29913,55333,5
29919,55346,4
29917,55354,5
29918,55354,5
29925,55395,5
29929,55360,4
29921,55356,6
29933,55364,3
29933,55364,5
29928,55426,5
29925,55360,4
29924,55361,5
29925,55361,5
29924,55405,5
29932,55363,5
29927,55366,4
29928,55364,5
29933,55367,5
29923,55369,5
29938,55362,5
29934,55372,4
29928,55370,5
29936,55369,5
29930,55362,5
29924,55370,5
29934,55379,4
29936,55374,5
29938,55381,5
29942,55384,4
29945,55399,5
29947,55392,4
29948,55393,7
29942,55387,3
29941,55388,5
29942,55387,4
29943,55389,4
29941,55381,5
29943,55373,5
29935,55373,5
29937,55373,4
29935,55371,5
29939,55368,5
29928,55357,5
29927,55354,5
29925,55355,4
29933,55362,5
29926,55354,5
29928,55359,5
29934,55362,5
29930,55359,4
29930,55364,5
29922,55354,6
29922,55355,5
29929,55358,4
29928,55369,4
29932,55362,5
29930,55361,5
29928,55367,5
29934,55368,4
29942,55372,4
29933,55371,5
29929,55372,5
29938,55372,5
29934,55372,4
29934,55363,5
29925,55363,5
29925,55355,5
29928,55340,5
29925,55337,4
29919,55337,5
29920,55337,5
29923,55338,5
29919,55337,5
29912,55336,5
29912,55341,4
29913,55338,5
29922,55327,5
29915,55334,6
29908,55337,3
29905,55341,5
29908,55343,5
29909,55337,5
29917,55343,4
29920,55337,4
29909,55335,5
29912,55342,5
29912,55343,5
29911,55333,4
29907,55327,5
29909,55321,5
29911,55325,5
29904,55332,5
29908,55319,4
29906,55323,5
29902,55323,5
29902,55320,5
29904,55323,5
29903,55321,4
29892,55319,6
29908,55312,4
29909,55329,5
29896,55321,5
29868,55316,6
29898,55306,3
29902,55303,5
29900,55302,5
29845,55303,5
29892,55301,4
29884,55298,5
29902,55302,5
29869,55286,5
29890,55294,4
29892,55278,4
29881,55284,5
29926,55295,5
29887,55288,5
29886,55287,4
29888,55287,5
29941,55286,5
29895,55292,5
29893,55291,5
29894,55293,4
29934,55296,5
29887,55300,6
29894,55297,4
29902,55302,5
29911,55311,4
29900,55313,5
29905,55317,5
29907,55309,5
29893,55286,5
29905,55309,4
29909,55320,5
29905,55312,5
29908,55276,5
29904,55322,4
29901,55319,4
29910,55322,5
29911,55267,5
29904,55326,5
29899,55320,5
29909,55318,4
29913,55332,5
29907,55315,5
29901,55311,5
29904,55318,4
29895,55381,5
29905,55315,5
29908,55323,6
29902,55321,4
29899,55377,4
29904,55311,5
29903,55322,5
29896,55314,5
29900,55327,5
29905,55315,4
29907,55307,5
29905,55314,5
29903,55313,5
29899,55309,5
29897,55317,4
29894,55310,5
29898,55308,5
29897,55312,5
29889,55304,4
29903,55302,4
29891,55299,5
29902,55301,5
29902,55301,5
29904,55311,5
29895,55310,4
29899,55309,5
29913,55318,5
29899,55321,6
29902,55327,3
29907,55329,5
29911,55331,5
29900,55327,5
29912,55327,5
29907,55310,4
29906,55314,5
29895,55315,5
29893,55307,5
29894,55298,5
29896,55306,4
29891,55300,5
29895,55321,5
29905,55306,5
29897,55307,4
29894,55313,4
29899,55311,5
29910,55310,5
29895,55323,5
29903,55308,4
29902,55310,6
29900,55313,4
29910,55321,5
29899,55318,5
29900,55317,4
29900,55315,5
29902,55315,5
29901,55308,5
29899,55309,5
29898,55307,4
29895,55308,5
29901,55313,5
29897,55307,5
29890,55307,5
29896,55301,4
29897,55305,5
29888,55297,5
29896,55310,5
29896,55310,5
29899,55306,4
29894,55302,5
29891,55296,5
29892,55303,5
29893,55297,4
29891,55295,4
29899,55293,6
29890,55290,4
29887,55293,5
29888,55294,4
29889,55290,5
29886,55285,5
29892,55286,5
29877,55291,5
29887,55289,4
29881,55286,5
29874,55291,5
29877,55282,5
29892,55286,5
29889,55283,4
29891,55289,5
29885,55285,5
29892,55286,5
29888,55281,5
29877,55284,4
29887,55301,5
29866,55294,5
29892,55298,5
29886,55291,4
29889,55299,4
29842,55297,5
29885,55291,6
29892,55291,4
29889,55294,4
29829,55280,5
29888,55281,5
29882,55284,5
29884,55276,5
29883,55285,4
29881,55289,5
29881,55275,5
29884,55288,5
29926,55290,5
29877,55279,4
29885,55273,5
29880,55277,5
29934,55267,5
29870,55280,5
29872,55269,4
29875,55273,5
29899,55279,5
29873,55262,5
29873,55268,5
29877,55266,4
29873,55271,5
29881,55262,5
29877,55273,5
29870,55260,4
29869,55229,4
29871,55259,5
29871,55263,5
29865,55257,5
29863,55201,4
29860,55243,5
29855,55240,5
29860,55233,5
29849,55189,5
29858,55215,4
29843,55217,5
29847,55213,4
29839,55228,5
29841,55217,5
29843,55213,4
29842,55213,5
29846,55277,5
29845,55214,5
29838,55207,5
29839,55221,5
29851,55262,4
29852,55213,5
29849,55224,5
29849,55218,4
29842,55236,4
29843,55205,5
29844,55207,5
29833,55208,5
29829,55208,4
29844,55208,5
29836,55202,5
29835,55211,5
29838,55202,5
29839,55202,4
29839,55220,5
29831,55213,5
29839,55210,5
29839,55203,5
29837,55207,4
29840,55211,5
29839,55201,5
29840,55212,5
29840,55203,5
29841,55207,4
29829,55202,6
29841,55208,4
29845,55203,5
29842,55209,5
29843,55208,4
29838,55210,5
29845,55210,5
29838,55202,5
29829,55204,4
29836,55199,4
29840,55201,5
29837,55201,5
29840,55199,5
29839,55208,4
29842,55210,5
29840,55215,5
29851,55230,5
29857,55244,5
29858,55252,4
29866,55254,5
29862,55255,5
29865,55257,5
29869,55268,5
29875,55275,4
29877,55272,5
29875,55277,5
29881,55270,5
29872,55264,5
29874,55265,4
29871,55261,5
29871,55249,5
29871,55254,5
29866,55252,4
29869,55247,4
29860,55252,5
29861,55254,5
29867,55247,5
29860,55247,4
29867,55246,5
29860,55251,5
29867,55246,5
29868,55251,5
29865,55257,4
29865,55243,5
29864,55252,5
29859,55237,5
29865,55236,5
29855,55242,4
29862,55235,5
29864,55238,5
29860,55240,5
29857,55236,5
29861,55218,4
29845,55219,5
29842,55208,5
29833,55199,5
29835,55191,4
29828,55195,4
29824,55181,5
29829,55174,5
29829,55182,5
29832,55176,4
29820,55178,5
29816,55172,5
29822,55168,5
29766,55160,5
29806,55151,4
29804,55149,6
29808,55144,4
29759,55154,5
29805,55142,5
29801,55138,5
29805,55145,3
29763,55140,5
29799,55141,5
29793,55139,5
29797,55129,4
29818,55122,5
29796,55112,5
29784,55115,5
29780,55104,5
29844,55103,4
29784,55110,5
29779,55100,5
29783,55090,5
29820,55097,4
29786,55094,4
29782,55092,5
29777,55099,5
29789,55102,5
29779,55101,4
29793,55116,5
29785,55121,6
29798,55096,4
29793,55118,5
29797,55123,4
29796,55129,7
29792,55090,3
29789,55130,5
29794,55130,5
29792,55131,4
29793,55068,5
29793,55122,5
29800,55125,5
29789,55120,5
29795,55118,4
29795,55119,5
29794,55118,5
29798,55133,5
29800,55173,4
29803,55140,4
29813,55135,5
29811,55144,5
29812,55205,5
29800,55135,4
29801,55143,5
29812,55148,5
29805,55169,6
29806,55138,4
29800,55139,4
29805,55133,5
29800,55137,5
29803,55129,5
29801,55133,5
29795,55130,4
29805,55124,5
29795,55120,5
29795,55127,5
29792,55126,5
29797,55138,4
29801,55129,5
29800,55139,5
29805,55151,5
29805,55158,5
29807,55154,4
29811,55157,5
29815,55157,5
29816,55162,5
29812,55166,5
29815,55165,4
29825,55164,5
29813,55176,5
29817,55174,6
29822,55178,3
29822,55178,5
29833,55185,5
29822,55170,5
29820,55170,5
29822,55168,4
29810,55160,5
29813,55148,5
29816,55150,5
29812,55152,5
29809,55146,7
29814,55160,2
29817,55156,5
29833,55158,5
29810,55152,5
29809,55161,4
29810,55157,5
29814,55162,5
29819,55168,5
29818,55176,4
29816,55163,5
29814,55176,4
29822,55170,5
29814,55175,5
29823,55174,6
29825,55177,3
29820,55170,5
29822,55182,5
29822,55178,5
29816,55170,4
29809,55164,5
29811,55170,5
29818,55164,5
29806,55166,5
29819,55166,4
29813,55160,5
29812,55164,5
29818,55175,5
29811,55157,5
29823,55161,4
29819,55161,5
29812,55166,5
29817,55170,5
29822,55167,4
29822,55163,4
29827,55172,6
29821,55178,4
29824,55172,5
29827,55168,4
29819,55176,5
29825,55172,5
29821,55180,5
29825,55174,5
29820,55178,4
29823,55175,5
29822,55178,5
29817,55170,5
29819,55175,5
29811,55173,4
29794,55173,5
29817,55169,5
29818,55165,5
29820,55170,5
29780,55169,4
29823,55174,5
29817,55171,5
29821,55165,5
29765,55170,5
29820,55176,4
29813,55173,5
29819,55160,6
29824,55168,4
29817,55177,4
29833,55178,4
29816,55173,5
29872,55167,5
29821,55175,5
29813,55170,4
29823,55182,5
29884,55176,5
29819,55175,5
29817,55175,5
29822,55179,4
29843,55176,5
29822,55179,5
29820,55178,5
29820,55173,5
29837,55174,4
29826,55170,5
29814,55173,5
29816,55169,5
29820,55132,5
29821,55172,4
29820,55164,5
29821,55162,5
29809,55112,6
29818,55162,3
29818,55169,4
29822,55170,5
29819,55135,5
29822,55168,5
29818,55164,5
29820,55168,4
29822,55191,5
29813,55168,5
29822,55173,5
29813,55170,4
29817,55227,5
29827,55173,5
29821,55182,5
29826,55187,5
29825,55237,4
29833,55198,5
29838,55200,5
29842,55194,5
29839,55216,5
29836,55196,5
29835,55204,4
29835,55203,5
29830,55198,5
29829,55187,5
29824,55185,4
29818,55178,5
29825,55174,5
29811,55168,5
29819,55172,4
29812,55171,5
29812,55163,5
29810,55170,5
29814,55161,5
29819,55166,4
29819,55161,5
29812,55171,5
29817,55164,5
29819,55167,5
29821,55165,4
29812,55170,5
29821,55169,5
29812,55168,5
29819,55162,5
29814,55159,4
29809,55154,6
29813,55156,4
29807,55143,5
29804,55151,5
29804,55154,4
29804,55145,5
29802,55148,5
29809,55137,5
29804,55139,4
29808,55146,4
29802,55144,5
29801,55141,5
29808,55144,5
29806,55153,4
29803,55152,5
29806,55146,5
29803,55146,5
29808,55151,5
29804,55150,4
29809,55151,5
29811,55151,5
29802,55148,5
29813,55158,5
29810,55163,4
29808,55172,5
29817,55154,6
29811,55156,4
29803,55161,5
29815,55163,4
29823,55174,5
29817,55175,5
29823,55174,5
29828,55177,4
29823,55176,4
29832,55189,5
29828,55193,5
29832,55197,5
29833,55191,4
29836,55204,5
29835,55198,5
29827,55194,5
29836,55199,5
29846,55205,4
29839,55198,5
29835,55206,5
29842,55203,5
29835,55208,5
29838,55208,4
29834,55208,5
29841,55214,5
29842,55211,5
29841,55214,5
29846,55209,4
29840,55199,5
29844,55219,5
29825,55211,5
29837,55211,5
29838,55216,4
29848,55211,5
29812,55215,5
29841,55196,5
29838,55206,4
29836,55209,4
29787,55201,5
29830,55200,5
29841,55201,5
29838,55216,4
29819,55198,5
29830,55205,5
29841,55199,5
29842,55203,5
29863,55197,5
29825,55197,4
29832,55196,5
29829,55188,5
29885,55184,5
29828,55191,4
29819,55184,5
29815,55170,5
29861,55175,5
29817,55172,5
29812,55168,4
29819,55167,5
29822,55162,5
29818,55173,5
29808,55162,4
29810,55157,4
29817,55140,5
29807,55163,5
29812,55161,5
29816,55168,4
29809,55123,5
29818,55174,5
29813,55182,5
29823,55179,5
29826,55129,4
29832,55197,6
29834,55197,4
29834,55202,5
29836,55218,5
29839,55199,4
29829,55198,5
29831,55198,5
29827,55251,5
29830,55194,5
29834,55191,4
29827,55190,5
29833,55251,5
29834,55193,5
29830,55195,5
29834,55194,4
29832,55221,5
29833,55189,5
29827,55198,5
29835,55203,4
29827,55196,4
29825,55196,5
29834,55207,5
29831,55196,5
29837,55203,4
29835,55209,5
29833,55201,5
29839,55206,5
29837,55207,5
29830,55211,4
29844,55211,5
29844,55215,5
29843,55216,5
29838,55216,5
29841,55216,4
29842,55202,5
29834,55212,5
29836,55218,5
29826,55209,5
29837,55209,4
29829,55210,5
29841,55216,5
29840,55206,5
29836,55216,4
29831,55210,4
29838,55207,5
29840,55217,5
29839,55210,6
29841,55217,3
29848,55227,5
29850,55226,5
29847,55227,5
29845,55228,5
29840,55234,4
29847,55230,5
29845,55229,5
29843,55224,5
29848,55225,5
29844,55229,4
29853,55231,5
29846,55235,5
29846,55237,5
29851,55237,5
29847,55235,4
29846,55244,5
29854,55245,5
29854,55256,5
29865,55259,5
29874,55270,5
29871,55269,4
29872,55276,5
29875,55279,5
29880,55295,6
29884,55292,3
29876,55289,5
29879,55295,5
29885,55291,5
29879,55293,4
29882,55299,5
29893,55312,5
29886,55301,5
29882,55307,5
29890,55305,4
29899,55315,5
29890,55307,5
29893,55319,5
29898,55317,5
29893,55326,4
29891,55316,5
29893,55322,5
29895,55320,5
29893,55326,5
29903,55322,4
29893,55323,6
29900,55322,4
29901,55328,5
29890,55317,4
29888,55317,6
29893,55312,3
29895,55325,5
29896,55313,5
29858,55318,4
29892,55312,5
29889,55303,5
29886,55309,5
29834,55305,5
29882,55305,4
29882,55307,5
29883,55300,5
29830,55296,5
29882,55292,5
29886,55300,4
29881,55300,5
29902,55299,5
29874,55294,5
29887,55298,5
29879,55290,4
29928,55288,5
29878,55290,6
29874,55297,4
29877,55284,5
29921,55291,4
29876,55284,5
29878,55290,5
29874,55285,5
29886,55274,4
29860,55268,5
29870,55275,5
29869,55276,5
29855,55244,5
29866,55257,4
29864,55253,5
29857,55260,5
29860,55222,5
29859,55269,5
29875,55269,4
29873,55269,5
29872,55227,5
29880,55279,5
29874,55283,5
29877,55289,4
29869,55273,5
29865,55274,5
29862,55282,6
29863,55265,4
29865,55305,4
29856,55272,5
29860,55279,5
29872,55280,5
29872,55346,4
29878,55280,4
29872,55292,5
29874,55292,5
29886,55321,5
29887,55302,4
29878,55298,5
29886,55311,5
29887,55320,5
29889,55312,5
29901,55326,4
29900,55329,5
29899,55342,5
29897,55335,5
29904,55337,5
29907,55338,5
29905,55340,4
29904,55334,5
29894,55325,5
29893,55311,6
29875,55297,3
29879,55297,5
29882,55291,5
29874,55285,5
29875,55286,4
29879,55292,4
29880,55294,5
29890,55298,5
29885,55298,5
29885,55296,4
29879,55303,4
29885,55302,5
29881,55306,5
29888,55299,5
29881,55309,4
29879,55304,5
29880,55304,5
29879,55301,5
29885,55312,5
29888,55308,4
29885,55307,6
29878,55306,4
29880,55308,5
29884,55312,5
29885,55306,4
29892,55312,5
29892,55310,5
29886,55317,5
29891,55324,5
29893,55323,4
29890,55319,5
29909,55332,5
29902,55333,5
29899,55340,4
29916,55349,4
29919,55345,5
29912,55357,5
29917,55373,5
29916,55368,4
29916,55373,5
29913,55381,5
29926,55379,5
29932,55380,5
29926,55383,4
29933,55385,5
29935,55387,6
29939,55393,4
29933,55407,5
29945,55408,4
29946,55409,5
29949,55416,5
29945,55417,5
29954,55416,5
29947,55417,4
29948,55415,5
29948,55410,5
29949,55415,5
29956,55422,5
29944,55419,4
29950,55412,5
29941,55413,5
29939,55415,5
29941,55417,4
29943,55419,4
29946,55412,5
29948,55411,5
29941,55399,5
29936,55395,4
29929,55400,5
29917,55397,5
29944,55402,6
29931,55391,4
29939,55405,4
29888,55393,5
29926,55387,5
29929,55401,5
29937,55386,5
29877,55390,4
29930,55393,5
29935,55389,5
29932,55396,5
29922,55390,5
29927,55393,4
29931,55394,5
29929,55393,5
29978,55396,5
29938,55399,4
29937,55400,4
29940,55394,5
30001,55401,5
29940,55397,5
29931,55395,5
29942,55400,4
29966,55389,5
29924,55384,5
29919,55375,5
29923,55372,4
29932,55373,5
29929,55372,5
29926,55381,5
29931,55379,5
29927,55337,4
29928,55380,5
29926,55381,5
29925,55383,5
29933,55331,5
29925,55384,4
29938,55377,5
29943,55387,5
29932,55354,5
29931,55379,4
29934,55388,5
29933,55383,4
29927,55415,5
29930,55377,5
29926,55381,4
29932,55377,6
29930,55437,4
29927,55370,5
29924,55373,5
29920,55370,4
29923,55413,5
29920,55365,5
29919,55367,5
29923,55361,5
29916,55369,4
29916,55363,5
29917,55363,5
29919,55356,5
29917,55349,5
29909,55353,4
29904,55346,5
29904,55334,5
29908,55338,5
29907,55339,4
29897,55337,4
29909,55332,5
29903,55336,5
29903,55328,5
29893,55326,4
29892,55329,5
29899,55334,6
29893,55322,4
29897,55326,5
29905,55327,4
29898,55322,5
29895,55333,5
29906,55332,5
29899,55333,5
29905,55331,4
29907,55336,5
29891,55331,5
29901,55331,5
29894,55331,5
29910,55337,4
29905,55339,5
29899,55331,5
29913,55336,5
29909,55347,4
29906,55339,4
29909,55337,5
29909,55342,5
29907,55345,5
29907,55342,4
29904,55338,5
29909,55338,5
29913,55339,5
29914,55336,5
29899,55351,4
29913,55345,5
29905,55345,5
29905,55338,5
29903,55330,5
29907,55333,4
29907,55329,5
29907,55332,5
29908,55323,5
29908,55321,5
29892,55320,4
29902,55324,5
29898,55316,5
29894,55304,5
29888,55303,5
29882,55302,4
29874,55296,5
29888,55296,5
29877,55297,5
29878,55293,5
29880,55288,4
29876,55290,5
29880,55288,5
29877,55290,5
29878,55288,4
29882,55294,5
29882,55297,5
29887,55310,5
29890,55286,5
29882,55292,4
29890,55297,5
29885,55305,5
29882,55298,5
29888,55302,5
29884,55304,4
29885,55292,5
29881,55295,5
29881,55289,5
29855,55285,5
29878,55287,4
29880,55290,5
29872,55291,5
29844,55291,5
29885,55289,4
29885,55288,5
29884,55297,4
29838,55291,5
29880,55297,5
29883,55299,4
29878,55296,5
29884,55293,5
29880,55294,5
29880,55296,5
29883,55296,4
29934,55300,5
29884,55294,5
29874,55291,5
29882,55286,5
29936,55286,4
29875,55284,5
29872,55280,5
29875,55287,5
29905,55282,5
29876,55281,4
29881,55287,5
29872,55294,5
29882,55280,4
29882,55293,4
29882,55287,4
29881,55287,5
29882,55252,5
29879,55299,5
29886,55285,4
29880,55289,4
29882,55231,5
29883,55282,5
29877,55281,5
29873,55289,4
29872,55263,5
29878,55283,5
29873,55277,5
29873,55280,5
29881,55323,4
29873,55284,5
29877,55290,5
29880,55286,5
29874,55346,5
29879,55288,4
29872,55282,5
29875,55283,5
29880,55318,6
29875,55283,4
29878,55287,4
29875,55289,5
29878,55302,5
29876,55291,5
29878,55290,4
29881,55285,5
29884,55287,5
29883,55294,5
29880,55284,5
29875,55289,4
29878,55289,5
29883,55284,5
29888,55288,5
29883,55289,5
29888,55290,4
29875,55292,5
29874,55300,5
29877,55283,5
29882,55295,5
29882,55285,5
29880,55284,4
29877,55281,5
29868,55276,5
29867,55274,6
29879,55274,3
29875,55276,5
29872,55265,5
29860,55273,5
29869,55280,4
29865,55268,4
29865,55268,5
29877,55279,5
29873,55279,5
29871,55267,4
29867,55266,5
29864,55257,5
29867,55258,5
29865,55249,5
29857,55233,4
29849,55236,5
29846,55232,5
29846,55224,5
29841,55225,5
29842,55217,4
29838,55217,6
29833,55217,4
29843,55218,5
29846,55221,5
29843,55224,6
29840,55216,3
29841,55218,5
29840,55207,5
29841,55213,4
29838,55212,4
29834,55220,5
29836,55213,5
29839,55211,5
29834,55209,4
29835,55210,5
29825,55210,5
29833,55208,5
29822,55198,5
29824,55192,4
29819,55181,5
29818,55188,5
29808,55173,5
29808,55167,5
29818,55173,4
29819,55175,5
29815,55168,6
29817,55170,4
29825,55177,5
29809,55173,4
29818,55182,5
29816,55173,5
29815,55164,5
29807,55165,4
29813,55168,4
29813,55173,5
29813,55162,5
29809,55166,5
29812,55154,4
29807,55156,5
29775,55159,5
29803,55152,5
29795,55142,5
29789,55135,4
29744,55127,5
29786,55132,5
29787,55129,5
29797,55133,5
29746,55130,4
29787,55136,5
29790,55135,5
29789,55140,6
29788,55129,4
29793,55132,4
29793,55129,5
29790,55121,5
29833,55129,5
29788,55130,4
29790,55128,4
29788,55130,5
29846,55141,5
29796,55140,5
29796,55127,4
29785,55134,5
29816,55135,5
29797,55127,5
29792,55134,5
29790,55124,4
29782,55119,5
29792,55118,5
29786,55121,5
29785,55119,5
29777,55080,5
29779,55116,4
29785,55116,5
29784,55124,5
29781,55068,6
29785,55115,3
29786,55115,5
29775,55102,5
29775,55080,5
29781,55109,5
29780,55112,4
29778,55095,5
29774,55150,5
29775,55106,5
29778,55100,4
29777,55103,4
29764,55150,5
29757,55076,5
29752,55066,5
29760,55068,4
29755,55103,5
29764,55072,5
29753,55076,5
29747,55074,5
29752,55070,4
29746,55051,6
29749,55050,4
29744,55039,5
29750,55049,5
29733,55044,4
29733,55041,5
29738,55039,5
29741,55042,5
29744,55048,5
29742,55034,4
29745,55030,5
29732,55032,5
29730,55036,5
29735,55030,4
29733,55035,4
29741,55033,5
29736,55031,5
29731,55030,5
29735,55028,4
29733,55030,5
29738,55034,5
29725,55027,5
29734,55036,5
29720,55024,4
29734,55021,5
29723,55009,6
29715,55001,4
29716,55001,5
29719,54996,4
29716,54994,5
29716,54985,5
29704,54985,5
29710,54989,5
29711,54983,4
29710,54989,5
29718,54988,5
29715,54998,5
29710,54993,4
29718,54990,4
29700,54983,5
29707,54984,8
29704,54998,2
29712,54983,4
29691,54991,5
29712,54992,5
29719,55004,5
29712,54996,5
29716,54998,4
29720,55009,5
29723,54997,5
29730,54999,6
29717,54999,4
29716,55003,4
29712,54995,5
29710,54998,5
29706,54991,5
29709,54991,5
29710,54995,4
29708,54997,5
29712,54991,5
29713,54990,5
29716,54988,4
29713,54992,4
29714,54986,5
29717,54995,5
29722,54990,5
29726,54998,4
29719,55001,5
29715,55009,5
29721,55018,5
29723,55005,5
29719,55006,5
29720,55006,4
29727,55019,5
29731,55021,5
29735,55019,5
29735,55036,4
29737,55040,5
29745,55049,5
29740,55044,5
29719,55045,5
29745,55040,4
29740,55046,5
29738,55034,5
29688,55020,5
29723,55016,5
29724,55022,4
29724,55007,5
29679,55018,5
29729,55018,5
29726,55017,4
29726,55024,4
29737,55022,5
29730,55020,5
29727,55021,5
29722,55016,4
29779,55023,6
29730,55023,4
29727,55026,5
29725,55027,5
29797,55030,4
29740,55027,5
29738,55023,5
29738,55026,5
29754,55028,5
29726,55018,4
29727,55016,5
29737,55027,5
29739,55023,5
29728,55032,5
29728,55012,4
29726,55023,5
29727,54974,5
29731,55015,5
29723,55017,5
29729,55011,4
29732,54963,5
29725,55016,5
29735,55012,5
29731,55021,4
29727,54984,5
29732,55024,6
29725,55025,4
29734,55022,5
29727,55046,4
29722,55011,5
29725,55011,5
29733,55017,5
29735,55077,5
29731,55016,4
29726,55013,5
29733,55016,5
29722,55062,5
29722,55013,5
29725,55020,4
29728,55016,5
29730,55027,5
29734,55028,5
29734,55025,4
29740,55023,4
29728,55027,5
29725,55031,5
29734,55028,6
29733,55033,3
29737,55029,5
29732,55037,5
29737,55028,5
29737,55030,5
29742,55039,4
29731,55030,5
29739,55035,5
29748,55036,5
29748,55046,5
29744,55044,4
29745,55044,5
29742,55037,5
29749,55044,5
29751,55045,5
29751,55047,4
29735,55047,5
29744,55053,5
29747,55059,5
29756,55065,4
29748,55068,4
29752,55065,5
29764,55065,5
29755,55053,5
29751,55067,5
29759,55064,4
29748,55054,5
29750,55067,5
29751,55055,5
29753,55056,4
29754,55054,5
29751,55057,5
29748,55049,5
29750,55048,5
29758,55054,4
29757,55060,5
29748,55054,5
29744,55041,5
29744,55048,5
29741,55037,4
29740,55034,5
29737,55034,5
29725,55030,5
29734,55011,5
29721,55012,4
29725,55012,6
29729,55011,4
29728,55020,5
29727,55027,4
29729,55023,7
29728,55025,3
29731,55027,5
29740,55032,5
29739,55034,4
29731,55041,5
29741,55042,5
29739,55034,5
29740,55042,5
29753,55044,4
29750,55047,5
29750,55056,5
29749,55052,5
29751,55042,5
29744,55041,4
29740,55038,5
29743,55031,5
29747,55032,5
29736,55037,5
29738,55027,4
29740,55025,5
29735,55033,6
29732,55024,4
29729,55027,4
29737,55024,4
29716,55028,5
29730,55028,5
29728,55033,5
29728,55025,4
29690,55037,5
29734,55034,5
29739,55031,5
29743,55044,5
29689,55044,4
29747,55045,5
29745,55043,5
29741,55054,5
29741,55039,5
29739,55047,4
29741,55047,5
29745,55043,5
29784,55043,5
29745,55042,5
29739,55039,4
29737,55045,5
29803,55049,5
29747,55045,6
29757,55046,3
29754,55055,4
29769,55047,5
29747,55053,5
29747,55047,5
29748,55049,4
29750,55037,5
29741,55052,5
29740,55051,5
29746,55048,5
29741,55006,4
29736,55042,5
29738,55040,5
29744,55042,5
29748,54987,5
29734,55035,4
29738,55039,5
29741,55042,5
29740,55010,5
29745,55043,5
29743,55047,5
29738,55041,4
29740,55080,5
29748,55052,5
29737,55053,6
29756,55054,3
29749,55115,5
29753,55052,5
29746,55046,5
29750,55055,4
29746,55095,4
29748,55052,5
29748,55051,5
29737,55051,5
29744,55063,4
29752,55055,5
29740,55043,5
29747,55050,5
29749,55051,5
29742,55047,4
29747,55045,5
29745,55053,5
29747,55052,5
29742,55063,5
29748,55058,4
29753,55054,6
29753,55056,4
29755,55067,5
29743,55056,5
29745,55060,4
29750,55053,5
29747,55052,5
29754,55063,5
29754,55068,4
29761,55079,4
29759,55082,5
29759,55066,5
29759,55073,5
29764,55079,4
29759,55077,5
29756,55064,5
29753,55075,5
29758,55067,5
29754,55065,4
29757,55071,5
29760,55067,5
29752,55078,5
29761,55080,5
29759,55080,4
29761,55082,5
29758,55075,6
29764,55071,4
29760,55071,5
29755,55067,4
29754,55069,5
29747,55062,5
29749,55059,5
29758,55069,5
29757,55067,4
29748,55061,5
29752,55060,5
29760,55066,5
29753,55066,4
29759,55073,4
29765,55072,5
29765,55082,5
29760,55084,5
29760,55087,4
29778,55094,5
29763,55109,5
29776,55110,5
29774,55109,5
29778,55112,4
29782,55120,5
29788,55116,5
29789,55125,6
29788,55119,4
29780,55111,4
29783,55109,5
29771,55101,5
29774,55107,5
29769,55098,5
29774,55103,4
29769,55109,5
29778,55107,5
29779,55113,5
29778,55106,4
29787,55116,4
29778,55116,5
29782,55122,5
29787,55125,5
29787,55123,4
29786,55127,5
29796,55135,5
29784,55136,5
29786,55130,5
29799,55132,5
29791,55141,4
29789,55136,5
29760,55137,5
29795,55135,6
29796,55135,3
29790,55136,5
29729,55126,5
29795,55130,5
29784,55124,5
29786,55134,4
29759,55127,5
29794,55124,5
29788,55130,5
29798,55145,5
29831,55132,4
29788,55126,5
29797,55134,5
29791,55142,5
29855,55144,4
29791,55136,4
29792,55140,5
29794,55141,5
29832,55139,5
29788,55140,4
29789,55141,6
29792,55137,4
29814,55139,5
29805,55136,5
29796,55138,4
29798,55140,5
29807,55120,5
29801,55146,5
29803,55157,5
29803,55147,4
29804,55107,5
29804,55157,5
29805,55162,5
29807,55160,5
29804,55111,4
29808,55165,5
29811,55169,5
29810,55171,5
29816,55177,4
29813,55174,4
29813,55173,5
29817,55184,5
29818,55231,5
29820,55189,4
29818,55196,5
29818,55187,6
29825,55253,4
29824,55185,5
29824,55194,4
29822,55191,5
29823,55205,5
29813,55190,5
29817,55183,5
29817,55188,4
29815,55191,5
29816,55184,5
29822,55189,5
29821,55181,5
29824,55184,4
29819,55182,5
29823,55171,5
29810,55186,5
29817,55182,5
29820,55179,4
29815,55187,5
29822,55180,5
29823,55175,5
29821,55184,4
29820,55178,4
29824,55188,5
29819,55189,6
29817,55188,4
29820,55184,4
29815,55177,5
29825,55182,5
29818,55185,5
29823,55192,5
29809,55186,4
29827,55188,5
29826,55195,5
29826,55189,5
29824,55182,5
29822,55178,4
29815,55178,5
29823,55186,5
29821,55173,5
29814,55177,5
29815,55161,4
29808,55164,5
29803,55160,5
29811,55162,5
29802,55170,5
29795,55159,4
29817,55154,5
29799,55151,5
29794,55153,5
29794,55149,4
29799,55148,5
29800,55155,6
29804,55143,4
29798,55148,5
29813,55154,4
29813,55153,5
29808,55158,5
29813,55159,5
29813,55167,5
29812,55167,4
29814,55174,5
29817,55169,5
29814,55173,5
29814,55179,5
29812,55172,4
29811,55165,5
29814,55161,5
29805,55160,5
29801,55152,5
29815,55157,5
29811,55163,4
29804,55164,5
29806,55170,5
29810,55170,4
29804,55177,4
29821,55171,5
29809,55172,5
29819,55183,5
29814,55187,4
29813,55186,5
29818,55192,5
29822,55190,5
29831,55200,5
29824,55204,4
29828,55198,5
29821,55203,5
29830,55201,5
29836,55212,5
29810,55202,4
29838,55215,5
29829,55204,5
29842,55211,5
29787,55211,5
29834,55201,4
29832,55199,6
29833,55214,4
29777,55218,5
29831,55221,4
29839,55223,4
29844,55226,5
29853,55218,5
29838,55223,5
29841,55231,4
29830,55224,5
29890,55223,5
29841,55221,5
29827,55217,5
29842,55219,4
29899,55224,5
29833,55219,5
29846,55223,5
29842,55212,5
29858,55212,4
29834,55207,5
29838,55214,5
29840,55221,5
29842,55213,5
29838,55217,4
29843,55229,5
29846,55233,5
29852,55199,5
29848,55236,5
29842,55236,4
29850,55246,5
29856,55201,5
29849,55258,5
29861,55259,5
29855,55256,4
29871,55228,5
29858,55268,5
29868,55266,5
29867,55268,4
29866,55298,5
29864,55275,5
29866,55270,5
29864,55276,5
29871,55332,4
29871,55275,4
29869,55276,5
29870,55271,5
29867,55315,6
29868,55275,3
29869,55264,5
29873,55278,5
29877,55291,5
29873,55273,5
29875,55284,4
29866,55282,5
29863,55284,5
29865,55277,5
29867,55285,4
29873,55270,4
29869,55274,5
29875,55274,5
29875,55280,5
29868,55279,4
29875,55277,5
29866,55276,5
29865,55269,5
29864,55270,5
29872,55263,4
29864,55272,6
29871,55271,4
29857,55261,5
29868,55266,5
29856,55258,6
29852,55247,3
29863,55253,5
29855,55252,5
29855,55244,5
29857,55244,4
29859,55242,5
29855,55241,5
29856,55250,5
29855,55240,5
29851,55241,4
29853,55237,5
29862,55246,5
29859,55254,5
29859,55251,4
29860,55264,4
29862,55260,5
29856,55253,5
29863,55259,5
29865,55249,4
29856,55257,5
29858,55249,6
29858,55245,4
29861,55248,5
29845,55242,4
29851,55237,5
29854,55231,5
29845,55239,5
29852,55241,5
29851,55239,4
29845,55237,5
29842,55233,5
29848,55243,5
29847,55245,5
29850,55246,4
29849,55249,5
29856,55247,5
29853,55242,5
29856,55257,5
29857,55253,4
29860,55267,5
29856,55263,5
29859,55263,5
29861,55258,4
29855,55263,4
29859,55266,5
29866,55267,6
29864,55260,4
29865,55262,4
29864,55260,5
29865,55260,5
29863,55259,5
29862,55257,5
29860,55258,4
29861,55258,5
29861,55258,5
29865,55254,5
29852,55252,5
29852,55250,4
29854,55253,5
29853,55247,5
29852,55243,5
29846,55241,5
29854,55240,4
29808,55240,5
29851,55246,5
29843,55239,5
29851,55240,5
29791,55229,4
29842,55232,5
29841,55233,5
29846,55237,6
29821,55241,3
29847,55238,5
29854,55239,5
29849,55235,5
29889,55244,5
29868,55246,4
29857,55248,5
29857,55257,5
29914,55250,5
29867,55260,5
29856,55263,4
29863,55258,5
29897,55261,5
29864,55259,5
29860,55262,5
29863,55267,4
29872,55265,5
29864,55265,5
29864,55269,5
29869,55272,5
29866,55247,5
29857,55258,4
29865,55269,5
29862,55268,5
29869,55218,6
29871,55273,3
29863,55259,5
29864,55274,5
29867,55220,5
29868,55260,4
29863,55268,5
29869,55263,4
29871,55279,5
29861,55268,5
29863,55264,4
29862,55269,5
29861,55321,5
29857,55257,5
29864,55252,5
29863,55254,4
29860,55318,5
29858,55250,5
29853,55248,5
29852,55238,5
29853,55256,4
29840,55235,6
29846,55226,4
29847,55233,5
29840,55236,5
29843,55235,4
29843,55235,5
29850,55235,5
29855,55227,5
29846,55243,4
29852,55232,4
29854,55244,5
29843,55234,5
29851,55245,5
29850,55235,4
29842,55231,5
29847,55241,5
29847,55226,5
29840,55227,5
29843,55234,4
29836,55239,5
29849,55239,5
29838,55238,5
29847,55244,5
29855,55243,4
29842,55240,5
29856,55244,6
29851,55244,4
29853,55243,5
29849,55250,4
29862,55245,5
29846,55249,5
29858,55253,5
29858,55245,4
29859,55238,4
29848,55247,5
29858,55246,5
29849,55242,5
29856,55236,4
29848,55244,5
29849,55244,5
29851,55235,5
29846,55236,5
29848,55248,4
29849,55240,5
29843,55234,5
29854,55241,5
29838,55239,5
29843,55232,4
29851,55239,5
29843,55231,5
29850,55239,6
29840,55228,4
29844,55236,4
29848,55234,5
29854,55237,5
29844,55224,5
29843,55229,5
29840,55224,4
29849,55227,5
29844,55225,5
29847,55229,5
29849,55232,4
29845,55223,4
29842,55229,5
29836,55225,5
29845,55222,5
29839,55226,4
29839,55224,5
29838,55221,5
29845,55228,5
29846,55233,5
29840,55228,5
29847,55232,4
29853,55239,5
29844,55243,5
29852,55234,5
29846,55236,4
29854,55242,5
29845,55235,5
29854,55234,5
29846,55237,5
29855,55237,4
29853,55247,5
29851,55248,5
29832,55236,5
29855,55240,4
29850,55248,4
29858,55248,5
29808,55244,5
29854,55241,5
29848,55243,4
29851,55243,5
29796,55247,5
29845,55238,5
29847,55242,5
29847,55239,4
29851,55231,6
29849,55237,4
29846,55229,5
29848,55224,5
29887,55223,4
29839,55220,5
29845,55215,5
29839,55219,5
29901,55218,5
29841,55227,4
29836,55227,5
29841,55229,5
29877,55239,5
29849,55240,5
29844,55244,4
29850,55243,5
29861,55237,5
29847,55245,5
29852,55243,4
29853,55239,4
29851,55198,5
29853,55226,5
29842,55225,5
29834,55222,4
29839,55165,5
29842,55217,6
29828,55202,4
29844,55213,5
29838,55169,4
29831,55211,5
29844,55216,5
29836,55209,5
29834,55228,5
29836,55215,4
29836,55210,5
29836,55207,5
29836,55266,5
29840,55217,5
29835,55211,4
29830,55213,5
29837,55266,5
29832,55211,5
29830,55203,4
29832,55207,4
29833,55217,5
29827,55209,5
29834,55204,6
29821,55200,3
29824,55201,5
29832,55192,5
29824,55182,5
29823,55184,5
29820,55186,4
29829,55191,5
29822,55185,5
29813,55192,5
29814,55189,5
29825,55173,4
29817,55180,5
29827,55174,5
29816,55175,5
29823,55174,5
29815,55174,4
29813,55172,5
29818,55176,5
29807,55172,5
29817,55174,5
29813,55175,4
29819,55177,5
29813,55175,5
29818,55173,5
29813,55190,5
29816,55182,4
29819,55175,5
29814,55189,5
29827,55176,5
29815,55173,4
29817,55172,5
29816,55188,5
29808,55178,5
29808,55167,5
29814,55171,4
29808,55172,5
29815,55179,5
29818,55168,5
29824,55177,5
29812,55176,4
29808,55181,5
29820,55187,5
29820,55176,5
29819,55177,8
29822,55182,1
29809,55165,5
29806,55174,5
29818,55177,5
29817,55177,4
29812,55167,5
29820,55174,4
29804,55167,5
29806,55170,5
29808,55160,4
29806,55162,5
29809,55166,5
29807,55166,5
29815,55157,5
29806,55171,4
29810,55174,5
29814,55168,5
29811,55173,5
29819,55167,5
29816,55172,4
29815,55173,5
29800,55167,5
29811,55165,5
29799,55162,5
29800,55148,4
29800,55151,5
29791,55147,6
29792,55140,4
29799,55142,5
29791,55143,4
29796,55142,7
29800,55143,3
29799,55149,5
29792,55142,4
29799,55138,4
29787,55139,5
29792,55137,5
29794,55128,5
29761,55139,4
29796,55134,5
29793,55134,5
29803,55140,5
29737,55132,5
29798,55137,4
29788,55132,5
29786,55136,5
29762,55132,5
29797,55131,5
29791,55135,4
29795,55137,5
29829,55149,5
29792,55139,6
29792,55135,4
29798,55137,4
29850,55144,5
29799,55148,5
29798,55146,5
29801,55156,4
29843,55147,4
29795,55146,5
29800,55146,5
29797,55140,5
29804,55146,4
29792,55144,5
29798,55147,5
29799,55152,5
29808,55116,5
29796,55147,4
29793,55149,5
29803,55138,5
29804,55107,5
29804,55151,5
29802,55141,5
29804,55154,4
29796,55090,5
29794,55141,5
29802,55149,6
29804,55158,3
29806,55167,5
29801,55158,5
29800,55161,5
29805,55162,5
29808,55211,4
29812,55163,5
29802,55159,5
29801,55157,5
29809,55214,4
29805,55159,4
29810,55157,5
29803,55165,5
29808,55186,5
29802,55161,4
29808,55157,5
29805,55166,5
29814,55163,5
29808,55156,5
29807,55156,4
29807,55154,6
29810,55169,4
29801,55155,5
29814,55164,5
29811,55161,6
29813,55164,3
29807,55157,5
29805,55159,5
29802,55153,5
29805,55156,4
29809,55157,5
29808,55159,5
29807,55155,5
29819,55167,4
29807,55170,4
29811,55170,5
29813,55159,5
29811,55163,5
29809,55173,4
29804,55167,5
29815,55160,5
29810,55154,5
29806,55160,5
29803,55149,4
29799,55153,5
29793,55149,6
29807,55145,4
29794,55153,5
29803,55139,4
29803,55148,5
29799,55144,5
29798,55153,5
29802,55152,5
29801,55154,4
29798,55153,5
29793,55150,5
29806,55144,5
29799,55155,5
29797,55147,4
29796,55141,5
29792,55143,5
29790,55144,5
29802,55145,4
29801,55133,4
29795,55135,5
29796,55140,5
29799,55133,5
29797,55146,4
29806,55144,5
29800,55150,5
29806,55142,6
29803,55156,4
29809,55150,4
29798,55157,5
29806,55153,5
29808,55159,5
29809,55156,5
29797,55154,4
29799,55151,5
29810,55147,5
29800,55155,5
29804,55146,5
29805,55152,4
29796,55153,5
29798,55153,5
29800,55153,5
29800,55148,4
29801,55164,4
29798,55145,5
29804,55153,5
29802,55153,5
29809,55162,5
29805,55155,4
29808,55160,5
29807,55160,5
29806,55167,6
29816,55171,3
29807,55165,5
29778,55171,5
29811,55173,5
29811,55171,5
29817,55171,4
29763,55170,5
29813,55188,5
29812,55186,5
29820,55181,5
29770,55191,4
29821,55188,5
29823,55179,5
29820,55181,5
29839,55187,5
29821,55181,4
29820,55186,5
29828,55192,5
29863,55183,5
29818,55185,4
29825,55178,5
29823,55190,4
29873,55185,5
29812,55182,5
29826,55182,4
29815,55180,5
29836,55176,5
29818,55168,5
29819,55188,5
29818,55176,4
29817,55169,5
29816,55178,5
29815,55181,5
29819,55187,5
29825,55146,4
29823,55184,5
29823,55188,5
29821,55188,5
29820,55135,5
29821,55182,4
29824,55177,5
29821,55187,5
29814,55169,5
29821,55194,4
29827,55188,4
29825,55183,6
29824,55222,4
29824,55185,5
29819,55178,4
29817,55191,5
29825,55254,5
29826,55185,5
29817,55189,5
29823,55198,4
29819,55232,5
29831,55190,5
29822,55189,5
29820,55193,5
29821,55192,4
29819,55186,5
29818,55170,5
29810,55170,5
29812,55167,5
29805,55172,4
29810,55168,5
29808,55170,5
29811,55170,5
29818,55183,5
29819,55188,4
29823,55190,5
29822,55194,6
29824,55201,4
29826,55203,4
29836,55210,4
29836,55210,5
29823,55206,5
29825,55207,5
29836,55210,4
29834,55214,5
29834,55210,5
29841,55216,5
29836,55229,5
29835,55223,4
29836,55231,5
29839,55218,5
29835,55226,5
29835,55224,5
29833,55228,4
29841,55227,5
29840,55225,5
29845,55229,5
29839,55226,5
29842,55225,4
29838,55233,5
29843,55230,5
29838,55228,5
29845,55230,4
29848,55239,4
29845,55245,5
29845,55236,5
29850,55239,5
29841,55248,4
29845,55245,5
29857,55255,5
29860,55248,5
29859,55251,5
29864,55254,4
29850,55257,5
29853,55256,5
29858,55253,5
29860,55254,5
29862,55262,4
29857,55254,5
29849,55247,5
29853,55255,5
29856,55248,5
29854,55246,5
29848,55251,4
29855,55255,5
29853,55255,5
29855,55247,5
29853,55249,4
29859,55254,5
29849,55259,5
29851,55260,5
29847,55258,4
29853,55262,5
29867,55265,5
29865,55285,5
29864,55261,5
29859,55262,4
29855,55265,5
29871,55265,5
29866,55268,5
29865,55278,5
29864,55269,4
29863,55265,5
29868,55259,5
29855,55265,5
29845,55273,5
29866,55277,4
29860,55269,6
29855,55275,4
29821,55269,5
29864,55264,5
29861,55270,4
29861,55263,5
29818,55272,5
29863,55277,5
29867,55269,4
29862,55275,4
29861,55280,5
29863,55281,5
29864,55280,5
29873,55293,4
29918,55296,5
29876,55306,5
29883,55309,5
29882,55299,5
29950,55316,4
29886,55318,5
29887,55329,5
29890,55314,5
29920,55329,5
29890,55319,4
29884,55321,5
29886,55317,5
29886,55314,5
29882,55313,5
29888,55320,4
29887,55306,5
29889,55274,5
29878,55307,5
29885,55298,5
29881,55301,4
29872,55254,5
29881,55307,5
29890,55307,5
29879,55302,4
29882,55255,5
29889,55314,5
29883,55314,5
29899,55324,5
29894,55346,4
29897,55333,5
29895,55332,5
29895,55329,5
29898,55392,5
29889,55338,4
29898,55334,5
29892,55340,5
29898,55381,5
29893,55327,5
29886,55314,4
29894,55320,5
29894,55340,5
29893,55318,5
29882,55322,5
29894,55318,4
29895,55323,5
29891,55315,5
29890,55323,5
29896,55322,4
29887,55323,4
29891,55329,5
29889,55332,5
29895,55337,5
29901,55344,4
29900,55349,6
29901,55344,4
29904,55341,5
29903,55341,5
29899,55338,6
29897,55341,3
29901,55335,5
29906,55337,5
29899,55341,5
29896,55336,4
29894,55332,5
29895,55333,5
29899,55332,5
29895,55335,5
29897,55338,4
29892,55332,5
29896,55330,5
29897,55328,5
29906,55326,4
29901,55323,4
29894,55331,5
29896,55325,5
29888,55331,5
29881,55327,4
29889,55323,5
29890,55325,6
29892,55327,4
29891,55324,5
29890,55326,4
29892,55338,7
29886,55329,3
29886,55333,5
29896,55327,5
29897,55326,4
29893,55327,5
29895,55325,5
29899,55337,6
29893,55323,4
29891,55329,4
29898,55330,5
29888,55333,5
29892,55334,5
29897,55341,5
29902,55339,4
29902,55333,5
29902,55345,5
29900,55341,5
29899,55356,4
29909,55347,4
29910,55357,5
29909,55360,6
29915,55363,4
29912,55354,4
29911,55359,5
29910,55363,5
29904,55361,5
29904,55355,5
29905,55363,4
29910,55361,5
29910,55359,5
29911,55360,5
29905,55358,5
29910,55359,4
29907,55360,5
29902,55368,5
29907,55360,5
29911,55371,5
29906,55362,4
29909,55364,5
29924,55370,5
29902,55361,5
29902,55362,5
29879,55362,4
29906,55356,5
29910,55364,5
29901,55368,6
29858,55364,3
29918,55367,5
29907,55359,5
29904,55354,5
29867,55363,5
29907,55357,4
29905,55354,5
29900,55357,5
29938,55356,5
29912,55363,5
29896,55353,4
29900,55362,5
29963,55359,5
29900,55360,5
29900,55350,5
29902,55356,4
29953,55350,5
29901,55349,5
29907,55357,5
29908,55350,5
29926,55357,5
29915,55360,4
29910,55369,5
29908,55365,5
29909,55350,6
29911,55367,3
29920,55374,5
29921,55382,5
29930,55340,5
29920,55380,4
29926,55398,5
29930,55395,5
29929,55334,5
29922,55395,5
29926,55389,5
29930,55391,4
29925,55373,5
29923,55393,5
29920,55382,5
29921,55400,4
29924,55437,5
29931,55393,5
29937,55405,5
29923,55400,5
29933,55465,4
29938,55406,6
29930,55401,4
29940,55414,5
29937,55454,5
29942,55429,4
29951,55435,5
29946,55426,5
29952,55439,5
29938,55423,4
29951,55434,4
29950,55437,5
29951,55441,5
29955,55449,5
29953,55449,4
29951,55453,5
29956,55451,5
29954,55455,5
29954,55461,5
29960,55462,4
29953,55461,5
29965,55452,5
29960,55455,5
29957,55460,5
29962,55472,4
29967,55468,5
29961,55472,6
29967,55461,4
29959,55459,5
29968,55460,4
29963,55465,5
29965,55466,5
29967,55462,5
29963,55467,4
29961,55463,4
29968,55477,5
29958,55469,5
29971,55470,5
29965,55467,4
29966,55469,5
29963,55469,5
29968,55457,5
29963,55466,5
29961,55475,4
29968,55467,5
29966,55471,5
29972,55485,5
29969,55473,5
29975,55481,4
29964,55475,5
29962,55475,5
29966,55474,6
29974,55489,4
29989,55494,4
29967,55494,5
29968,55500,5
29984,55498,5
29975,55496,5
29981,55499,4
29977,55496,5
29980,55497,5
29980,55506,5
29982,55498,4
29994,55511,4
29985,55520,5
29986,55511,5
29994,55517,5
29987,55512,4
29990,55513,5
29990,55522,5
29992,55514,5
29989,55503,5
29988,55513,5
29985,55506,4
29981,55501,5
29985,55498,5
29983,55498,5
29981,55488,4
29979,55490,5
29975,55480,5
29975,55490,5
29974,55473,5
29968,55476,4
29974,55462,5
29970,55465,5
29959,55458,5
29971,55461,4
29965,55449,4
29960,55449,5
29945,55442,5
29945,55447,5
29954,55437,4
29942,55428,5
29911,55430,5
29944,55429,5
29945,55415,5
29947,55423,4
29890,55425,6
29943,55425,4
29953,55428,5
29952,55433,5
29939,55439,4
29947,55423,5
29950,55431,5
29951,55430,5
29986,55423,5
29943,55423,4
29933,55412,5
29940,55413,5
29995,55402,5
29933,55393,5
29924,55401,4
29926,55407,5
29956,55388,5
29925,55395,5
29931,55395,4
29931,55392,4
29937,55391,5
29934,55401,5
29925,55393,5
29923,55398,4
29934,55364,5
29929,55392,6
29936,55400,4
29931,55399,5
29934,55346,4
29932,55398,5
29930,55391,5
29927,55395,5
29928,55338,5
29926,55393,4
29924,55389,5
29925,55384,5
29929,55398,5
29918,55384,5
29923,55377,4
29932,55385,5
29930,55433,5
29924,55382,5
29927,55387,5
29926,55387,4
29931,55444,5
29926,55385,5
29917,55382,6
29922,55391,3
29926,55410,5
29928,55384,5
29918,55385,5
29927,55379,5
29929,55386,4
29924,55384,5
29932,55383,5
29924,55384,5
29921,55372,5
29926,55376,4
29918,55375,5
29913,55377,5
29911,55384,5
29917,55387,5
29921,55374,4
29913,55380,5
29925,55383,5
29923,55379,5
29918,55384,5
29922,55383,4
29924,55393,5
29925,55389,5
29927,55397,5
29930,55398,5
29933,55382,4
29929,55389,5
29933,55389,5
29931,55396,5
29930,55402,4
29931,55402,5
29939,55398,5
29933,55406,5
29942,55399,5
29930,55397,4
29933,55406,5
29925,55395,5
29924,55399,5
29919,55388,5
29930,55387,4
29925,55384,5
29923,55386,5
29935,55384,5
29918,55380,5
29923,55379,4
29918,55383,5
29923,55390,5
29924,55394,5
29924,55390,5
29927,55398,5
29923,55392,4
29915,55384,5
29923,55380,5
29920,55379,4
29913,55388,4
29915,55378,5
29928,55375,5
29913,55373,5
29916,55372,4
29915,55378,5
29924,55376,5
29916,55391,5
29926,55381,5
29925,55387,4
29921,55388,5
29915,55383,5
29912,55374,5
29911,55375,5
29910,55373,4
29918,55379,5
29913,55371,5
29920,55380,5
29914,55376,5
29914,55367,4
29916,55375,6
29913,55377,4
29918,55374,5
29915,55376,5
29918,55385,4
29915,55386,5
29918,55378,5
29914,55386,5
29918,55386,4
29924,55384,5
29914,55386,5
29917,55392,5
29892,55387,5
29918,55380,4
29918,55383,5
29911,55374,5
29865,55367,5
29910,55376,5
29912,55384,4
29922,55388,5
29860,55393,5
29917,55386,6
29916,55384,4
29919,55388,4
29924,55388,5
29914,55380,5
29918,55385,5
29924,55374,5
29964,55391,4
29913,55390,5
29912,55388,5
29918,55384,5
29981,55385,4
29918,55395,4
29922,55386,5
29914,55376,5
29930,55363,5
29901,55361,4
29905,55361,5
29905,55369,5
29906,55353,5
29902,55362,5
29895,55345,5
29891,55333,4
29884,55301,5
29892,55340,5
29899,55346,6
29904,55351,3
29897,55289,5
29900,55345,5
29904,55349,5
29897,55359,5
29916,55331,4
29901,55358,5
29900,55360,5
29898,55371,5
29902,55393,5
29908,55373,4
29912,55366,5
29904,55369,5
29910,55429,5
29906,55368,4
29904,55376,4
29905,55363,5
29909,55403,5
29902,55360,5
29904,55360,4
29905,55359,6
29902,55372,4
29911,55367,5
29903,55371,5
29903,55367,6
29907,55371,3
29904,55376,5
29923,55384,5
29923,55384,5
29921,55389,4
29914,55392,5
29927,55389,5
29924,55390,5
29926,55394,5
29916,55386,4
29924,55377,5
29916,55374,5
29910,55368,5
29911,55366,5
29911,55373,4
29906,55371,5
29909,55362,5
29913,55358,5
29912,55360,4
29913,55366,5
29902,55367,6
29906,55363,4
29912,55366,5
29907,55367,4
29904,55362,5
29904,55350,5
29895,55342,5
29896,55343,5
29909,55348,4
29904,55351,5
29895,55347,5
29897,55347,5
29902,55348,5
29895,55342,4
29910,55339,5
29899,55345,5
29896,55337,5
29894,55341,5
29891,55329,4
29893,55320,5
29885,55315,5
29882,55303,5
29880,55316,4
29882,55304,8
29881,55310,1
29880,55314,6
29873,55332,4
29878,55307,4
29872,55290,5
29873,55300,5
29863,55288,5
29877,55290,5
29870,55297,4
29872,55301,5
29873,55293,5
29869,55303,5
29878,55287,5
29868,55285,4
29866,55288,5
29872,55284,5
29865,55291,5
29859,55290,5
29866,55287,4
29874,55296,5
29871,55292,5
29869,55295,5
29868,55292,5
29875,55288,4
29861,55295,5
29868,55280,5
29871,55285,6
29872,55287,3
29860,55284,4
29868,55274,5
29855,55271,5
29848,55256,5
29845,55260,4
29844,55250,5
29852,55246,5
29852,55246,5
29851,55242,5
29815,55245,4
29852,55244,5
29850,55253,5
29850,55251,5
29789,55243,5
29842,55250,4
29847,55241,5
29849,55250,5
29816,55242,5
29854,55243,5
29848,55237,5
29847,55247,4
29877,55244,5
29841,55240,5
29847,55243,5
29852,55240,4
29895,55237,5
29841,55229,5
29829,55222,5
29832,55229,4
29874,55216,5
29829,55199,5
29815,55196,5
29818,55191,5
29828,55185,4
29806,55186,5
29804,55180,5
29811,55175,5
29807,55157,5
29809,55172,4
29808,55177,5
29805,55165,5
29797,55110,5
29796,55158,5
29796,55160,4
29786,55153,6
29792,55099,4
29793,55150,5
29797,55148,5
29791,55163,4
29792,55152,5
29794,55153,5
29789,55154,5
29787,55154,4
29805,55205,4
29793,55153,5
29790,55156,5
29784,55151,5
29794,55207,4
29786,55138,5
29790,55151,5
29787,55150,5
29790,55186,5
29797,55160,4
29799,55155,5
29789,55159,5
29789,55161,5
29788,55155,5
29791,55156,4
29788,55151,5
29789,55154,6
29797,55156,4
29795,55156,5
29792,55160,4
29789,55157,5
29801,55154,5
29791,55154,5
29798,55161,4
29793,55160,4
29800,55161,5
29804,55168,5
29799,55158,5
29796,55164,4
29799,55161,5
29798,55169,5
29801,55162,5
29793,55165,5
29798,55161,4
29790,55160,5
29798,55161,5
29795,55152,5
29806,55161,5
29793,55157,4
29789,55162,5
29797,55165,5
29793,55163,6
29800,55158,4
29794,55154,4
29800,55158,5
29793,55155,5
29789,55151,5
29789,55157,5
29795,55153,4
29792,55161,5
29801,55159,5
29794,55159,5
29791,55158,4
29795,55153,4
29796,55158,5
29792,55152,5
29799,55147,5
29800,55158,4
29798,55163,5
29799,55163,5
29798,55164,5
29804,55165,5
29805,55169,5
29802,55165,4
29802,55166,5
29799,55169,5
29794,55165,5
29798,55165,4
29807,55175,5
29808,55173,5
29799,55157,5
29800,55156,5
29795,55146,4
29783,55152,5
29797,55153,5
29790,55151,5
29789,55153,5
29792,55159,4
29795,55170,5
29794,55168,5
29800,55164,5
29798,55163,4
29801,55162,4
29790,55162,5
29804,55172,5
29799,55173,5
29796,55164,4
29801,55158,6
29806,55175,4
29802,55174,5
29801,55170,5
29794,55172,4
29803,55165,5
29772,55174,5
29806,55173,5
29809,55168,5
29796,55170,4
29759,55169,5
29813,55178,5
29810,55181,5
29809,55185,5
29765,55195,4
29818,55193,5
29816,55194,5
29812,55192,5
29817,55191,4
29818,55193,4
29807,55189,5
29817,55197,5
29873,55208,5
29816,55207,4
29825,55204,5
29825,55206,6
29880,55206,4
29821,55210,5
29820,55217,4
29827,55223,5
29850,55220,5
29825,55216,5
29824,55221,5
29829,55218,4
29821,55208,5
29831,55219,5
29831,55226,5
29829,55238,5
29834,55192,4
29829,55224,5
29830,55218,5
29833,55231,5
29827,55186,5
29834,55227,4
29833,55235,5
29831,55229,5
29838,55200,5
29838,55239,4
29846,55236,5
29836,55243,4
29841,55280,5
29844,55252,5
29845,55256,4
29839,55252,5
29838,55308,5
29838,55246,5
29834,55242,5
29837,55242,4
29843,55286,5
29846,55235,5
29837,55232,5
29833,55228,5
29831,55229,4
29829,55217,5
29828,55207,5
29811,55193,5
29799,55171,5
29802,55181,4
29801,55170,5
29809,55180,5
29802,55180,5
29803,55182,5
29796,55178,4
29795,55173,5
29804,55192,5
29809,55179,5
29799,55175,4
29810,55189,4
29814,55205,5
29807,55205,5
29819,55216,5
29829,55217,4
29835,55229,5
29837,55231,5
29828,55240,5
29838,55251,5
29842,55256,4
29845,55269,5
29858,55273,5
29856,55274,5
29858,55283,5
29858,55273,4
29855,55271,6
29853,55270,4
29862,55270,5
29856,55267,5
29849,55270,6
29854,55260,3
29859,55263,5
29849,55258,5
29847,55264,4
29847,55263,4
29850,55264,5
29846,55260,5
29853,55265,5
29853,55263,4
29841,55266,5
29851,55264,5
29850,55264,5
29848,55267,5
29858,55269,4
29849,55270,5
29859,55265,5
29845,55265,5
29849,55259,5
29849,55253,4
29836,55254,5
29848,55242,6
29847,55251,4
29843,55253,5
29841,55246,4
29849,55246,5
29845,55248,5
29849,55251,5
29842,55255,5
29846,55264,4
29856,55251,5
29854,55256,5
29846,55252,5
29857,55267,4
29856,55260,4
29851,55262,5
29846,55264,5
29859,55257,5
29848,55263,4
29861,55268,5
29849,55264,5
29858,55271,5
29853,55280,5
29861,55277,4
29857,55272,5
29870,55276,5
29864,55284,6
29865,55293,4
29871,55293,4
29870,55302,5
29879,55308,5
29841,55312,5
29883,55308,5
29887,55320,4
29886,55333,5
29842,55342,5
29893,55345,5
29901,55354,5
29901,55358,4
29875,55360,5
29908,55351,5
29911,55355,5
29911,55353,4
29934,55364,4
29906,55366,5
29905,55371,5
29911,55359,5
29968,55371,5
29913,55371,4
29912,55372,5
29908,55373,5
29951,55372,6
29906,55374,3
29906,55368,5
29908,55355,5
29925,55367,5
29916,55372,5
29910,55369,4
29909,55360,5
29912,55343,5
29908,55363,5
29910,55367,5
29915,55369,4
29910,55328,5
29905,55372,5
29909,55366,5
29912,55361,4
29905,55307,4
29913,55374,5
29915,55376,5
29921,55371,5
29905,55361,4
29905,55367,6
29911,55375,4
29910,55370,5
29908,55415,5
29918,55368,6
29906,55378,3
29913,55372,5
29908,55435,5
29914,55360,5
29913,55371,4
29911,55369,5
29911,55382,5
29912,55355,5
29896,55351,5
29900,55349,4
29901,55360,5
29905,55351,5
29906,55351,5
29897,55348,5
29906,55354,4
29904,55353,5
29906,55352,5
29899,55356,5
29896,55365,4
29912,55363,4
29911,55378,6
29912,55381,4
29918,55375,5
29915,55370,4
29914,55373,5
29918,55382,5
29912,55364,5
29909,55366,5
29901,55356,4
29901,55351,5
29907,55355,5
29907,55354,5
29905,55352,5
29893,55340,4
29896,55352,5
29906,55349,5
29910,55354,5
29898,55354,5
29900,55340,4
29890,55334,5
29889,55346,5
29887,55334,5
29888,55336,4
29891,55337,4
29885,55327,5
29891,55333,6
29884,55330,4
29887,55327,4
29890,55325,5
29885,55333,5
29888,55333,5
29896,55332,5
29890,55340,4
29891,55338,5
29896,55341,5
29895,55344,5
29888,55340,6
29887,55337,3
29896,55342,5
29895,55341,5
29908,55350,5
29906,55355,5
29903,55368,4
29903,55362,5
29906,55361,5
29901,55368,5
29910,55361,5
29907,55358,4
29905,55358,5
29908,55361,5
29902,55368,6
29910,55360,3
29909,55358,4
29911,55369,5
29898,55361,5
29901,55351,5
29893,55357,4
29900,55358,5
29906,55367,5
29903,55359,5
29904,55357,5
29911,55373,4
29907,55372,5
29904,55374,5
29911,55375,5
29916,55379,5
29916,55377,4
29909,55389,5
29925,55400,5
29915,55393,5
29919,55397,5
29905,55393,5
29928,55395,4
29922,55398,5
29917,55407,5
29885,55411,5
29930,55413,4
29936,55427,5
29937,55430,5
29891,55444,5
29950,55452,4
29951,55453,4
29962,55464,5
29949,55472,5
29960,55470,5
29963,55466,4
29955,55467,5
29997,55473,5
29964,55473,5
29963,55473,5
29956,55482,4
30031,55482,5
29970,55489,5
29978,55493,5
29973,55490,5
29998,55497,4
29971,55492,6
29975,55485,4
29973,55496,5
29984,55488,5
29983,55505,4
29971,55502,5
29980,55505,5
29982,55479,5
29975,55512,4
29982,55500,4
29976,55503,5
29974,55455,5
29977,55503,5
29978,55502,5
29974,55498,4
29976,55442,5
29971,55482,5
29961,55489,5
29969,55474,4
29959,55493,5
29971,55474,5
29960,55483,5
29963,55479,4
29964,55535,4
29969,55471,5
29968,55477,7
29965,55483,3
29969,55531,5
29966,55477,4
29965,55488,5
29974,55488,5
29978,55507,5
29971,55493,5
29973,55487,4
29961,55490,5
29962,55487,5
29955,55470,5
29960,55466,4
29958,55469,4
29946,55468,5
29953,55465,5
29959,55478,5
29958,55471,4
29960,55469,5
29963,55479,5
29959,55473,5
29956,55469,5
29954,55470,4
29954,55473,5
29957,55469,5
29970,55481,5
29961,55468,5
29951,55478,4
29967,55485,5
29967,55473,5
29957,55481,5
29969,55467,5
29955,55466,4
29964,55478,5
29960,55478,5
29959,55467,5
29955,55476,5
29961,55470,4
29956,55469,5
29951,55464,5
29957,55480,5
29959,55471,4
29954,55464,4
29966,55473,5
29957,55468,5
29951,55469,5
29958,55468,5
29946,55457,4
29959,55464,5
29956,55451,5
29953,55458,5
29954,55456,4
29947,55453,5
29954,55455,5
29954,55456,5
29959,55468,5
29956,55459,4
29948,55465,5
29958,55465,5
29957,55463,5
29955,55460,5
29960,55456,4
29960,55455,5
29957,55459,5
29946,55447,5
29954,55460,4
29948,55461,4
29951,55464,5
29954,55455,5
29958,55465,5
29959,55465,4
29959,55475,6
29964,55471,4
29958,55477,5
29961,55473,5
29958,55483,4
29954,55479,5
29968,55474,5
29968,55477,5
29953,55481,5
29962,55480,4
29964,55481,5
29964,55480,5
29959,55470,5
29961,55469,5
29967,55477,4
29961,55480,5
29959,55474,5
29966,55473,5
29971,55484,5
29973,55480,4
29938,55477,5
29967,55477,5
29971,55480,4
29965,55484,4
29924,55475,4
29967,55476,6
29963,55483,3
29968,55481,5
29909,55471,4
29959,55473,5
29961,55481,5
29958,55479,5
29973,55479,5
29961,55469,4
29964,55464,5
29961,55463,5
30005,55464,5
29958,55469,5
29954,55463,4
29959,55464,5
30013,55459,5
29961,55464,5
29948,55462,5
29952,55462,4
29974,55468,5
29965,55475,5
29963,55471,6
29965,55474,4
29973,55474,4
29960,55477,5
29967,55488,5
29975,55492,5
29973,55451,4
29980,55481,4
29971,55483,5
29973,55498,5
29967,55432,5
29970,55477,4
29968,55470,5
29960,55477,5
29958,55455,5
29968,55470,5
29965,55482,4
29960,55475,5
29964,55511,5
29955,55475,5
29964,55468,5
29965,55480,5
29965,55530,4
29966,55472,5
29963,55486,5
29964,55471,6
29962,55511,3
29953,55465,5
29971,55473,5
29966,55465,5
29962,55480,4
29961,55475,4
29960,55471,5
29964,55473,5
29955,55467,5
29955,55460,4
29951,55459,5
29959,55462,5
29961,55453,5
29957,55466,5
29971,55466,4
29964,55466,5
29960,55464,5
29963,55461,5
29959,55464,5
29965,55458,4
29963,55459,6
29966,55453,4
29958,55456,5
29956,55451,5
29955,55453,6
29960,55450,3
29956,55449,5
29947,55447,5
29951,55449,5
29951,55444,4
29950,55441,5
29948,55442,5
29948,55447,5
29946,55443,4
29950,55447,4
29951,55442,5
29947,55438,5
29944,55444,5
29947,55445,4
29942,55453,5
29965,55450,5
29954,55465,5
29961,55460,5
29955,55455,4
29963,55462,5
29963,55463,6
29966,55462,4
29954,55459,5
29949,55453,4
29958,55467,5
29961,55460,5
29958,55458,5
29969,55468,5
29966,55461,4
29959,55456,5
29946,55458,5
29952,55454,5
29952,55451,5
29963,55459,4
29956,55447,5
29957,55453,5
29954,55448,5
29949,55457,4
29957,55453,4
29959,55446,5
29958,55449,5
29959,55453,5
29956,55456,4
29958,55443,5
29954,55440,5
29946,55448,6
29958,55449,4
29948,55442,4
29945,55446,5
29952,55442,5
29949,55441,5
29959,55449,5
29951,55437,4
29947,55444,5
29945,55446,5
29951,55442,5
29939,55432,5
29947,55438,4
29942,55440,5
29945,55435,5
29935,55420,5
29938,55420,4
29936,55423,4
29952,55427,5
29908,55422,5
29933,55418,5
29937,55427,5
29936,55418,4
29878,55409,5
29940,55418,5
29939,55427,6
29940,55434,3
29919,55425,5
29939,55423,5
29946,55429,5
29937,55439,5
29982,55430,4
29946,55440,5
29942,55430,5
29949,55431,5
30000,55433,5
29941,55434,4
29936,55426,5
29940,55418,5
29978,55420,5
29932,55418,5
29930,55407,4
29933,55413,5
29948,55418,5
29938,55426,5
29928,55407,4
29934,55416,5
29930,55387,4
29937,55414,5
29936,55404,5
29934,55417,4
29931,55370,5
29940,55424,5
29936,55422,5
29932,55424,5
29932,55365,4
29932,55419,5
29934,55417,5
29932,55422,5
29936,55429,5
29934,55419,4
29933,55423,5
29938,55410,5
29938,55464,5
29933,55416,5
29941,55412,4
29935,55408,5
29933,55478,5
29946,55427,5
29941,55421,5
29936,55420,4
29942,55443,6
29937,55427,4
29941,55410,5
29931,55405,4
29926,55417,4
29936,55415,5
29930,55415,5
29934,55405,5
29933,55406,4
29933,55414,5
29921,55401,5
29925,55412,5
29927,55405,5
29925,55401,4
29924,55403,5
29929,55409,5
29922,55392,5
29929,55399,5
29919,55404,4
29930,55399,5
29926,55404,5
29917,55399,5
29934,55403,5
29927,55395,4
29920,55411,5
29929,55404,6
29932,55399,4
29930,55399,4
29926,55407,4
29923,55402,5
29929,55400,5
29927,55401,5
29931,55414,4
29924,55403,5
29933,55405,5
29930,55414,5
29929,55405,5
29935,55409,4
29923,55400,5
29926,55412,5
29925,55402,5
29921,55402,5
29929,55400,4
29931,55394,5
29921,55396,5
29929,55393,5
29922,55405,5
29926,55388,4
29933,55386,9
29922,55391,1
29922,55390,5
29929,55411,5
29920,55384,4
29913,55390,5
29917,55395,5
29924,55392,5
29919,55386,4
29921,55391,4
29922,55396,5
29921,55396,5
29925,55394,5
29927,55399,4
29923,55401,5
29920,55392,5
29925,55405,5
29928,55401,5
29931,55404,4
29925,55397,5
29932,55399,5
29924,55392,5
29925,55394,5
29919,55382,5
29921,55389,4
29911,55379,5
29921,55382,5
29914,55384,5
29922,55385,4
29922,55385,5
29913,55387,5
29921,55386,5
29920,55386,5
29924,55376,4
29914,55384,5
29924,55384,5
29920,55383,5
29886,55380,4
29911,55381,5
29914,55385,5
29911,55378,5
29869,55377,5
29903,55368,4
29903,55371,5
29907,55373,5
29864,55364,5
29901,55366,5
29905,55366,4
29906,55357,6
29919,55362,4
29899,55358,5
29893,55355,5
29902,55354,4
29958,55365,5
29906,55360,5
29896,55351,5
29906,55348,5
29953,55355,4
29894,55347,5
29903,55348,5
29904,55355,5
29922,55348,4
29910,55345,4
29901,55357,5
29901,55358,5
29906,55343,5
29893,55348,4
29906,55358,5
29904,55349,5
29897,55314,5
29903,55358,5
29901,55359,4
29904,55361,5
29903,55305,6
29900,55366,4
29904,55369,5
29901,55352,4
29905,55331,5
29905,55357,5
29901,55355,5
29912,55366,5
29906,55407,4
29903,55358,5
29903,55360,5
29907,55368,5
29910,55425,5
29903,55361,4
29904,55359,5
29915,55352,5
29906,55395,5
29898,55352,4
29905,55349,4
29900,55348,5
29907,55358,5
29900,55340,5
29892,55336,4
29892,55336,5
29892,55342,5
29899,55347,5
29902,55346,5
29891,55342,4
29893,55342,5
29894,55335,5
29887,55343,5
29900,55334,5
29893,55346,4
29903,55347,5
29895,55346,5
29899,55349,5
29902,55352,5
29901,55344,4
29899,55342,5
29897,55348,5
29897,55345,5
29892,55335,4
29885,55332,4
29882,55331,4
29889,55314,5
29874,55317,5
29882,55313,5
29875,55303,3
29877,55315,5
29880,55299,5
29872,55306,5
29871,55308,4
29871,55298,5
29877,55303,5
29873,55307,5
29879,55299,5
29865,55302,4
29868,55306,5
29871,55303,5
29872,55305,5
29875,55297,5
29867,55306,4
29871,55300,5
29875,55304,5
29876,55302,5
29876,55308,5
29880,55309,4
29873,55317,6
29880,55311,4
29884,55317,5
29884,55312,4
29883,55316,6
29878,55311,3
29873,55305,5
29878,55311,5
29884,55313,4
29880,55299,5
29871,55311,5
29875,55307,5
29881,55304,5
29876,55310,4
29874,55304,5
29882,55308,5
29881,55295,5
29875,55308,5
29868,55310,4
29876,55306,5
29870,55301,5
29879,55301,5
29872,55304,5
29879,55310,4
29886,55303,5
29889,55301,6
29887,55314,4
29871,55302,4
29875,55302,4
29871,55309,5
29869,55308,5
29878,55311,5
29879,55313,4
29879,55306,5
29857,55311,5
29871,55308,5
29872,55301,5
29879,55317,4
29834,55308,5
29875,55306,5
29872,55301,5
29886,55303,5
29822,55298,4
29875,55297,5
29876,55293,5
29876,55299,5
29874,55295,5
29879,55302,4
29877,55305,5
29870,55307,5
29917,55303,6
29870,55303,4
29873,55307,4
29879,55307,5
29934,55311,5
29879,55308,5
29880,55306,4
29884,55306,4
29905,55307,5
29882,55307,5
29880,55307,5
29873,55302,4
29873,55297,5
29868,55299,5
29871,55291,5
29870,55295,5
29871,55260,4
29868,55297,5
29868,55294,5
29864,55286,5
29872,55230,5
29866,55281,5
29864,55280,4
29862,55296,5
29862,55245,5
29867,55294,6
29869,55300,4
29869,55294,4
29859,55316,5
29859,55288,5
29868,55287,4
29869,55289,4
29870,55346,5
29858,55291,5
29867,55284,5
29868,55287,4
29863,55332,5
29866,55296,5
29868,55288,5
29870,55294,5
29867,55302,4
29870,55292,5
29870,55295,5
29870,55299,5
29880,55307,5
29873,55304,4
29871,55304,6
29875,55303,4
29868,55302,5
29877,55311,5
29876,55295,4
29867,55306,5
29871,55299,5
29879,55299,5
29872,55304,5
29877,55299,4
29873,55307,5
29867,55297,5
29877,55294,5
29876,55296,4
29869,55311,4
29879,55292,5
29885,55303,5
29879,55299,5
29868,55311,4
29881,55310,5
29875,55305,5
29875,55312,5
29875,55319,5
29875,55320,4
29884,55315,5
29875,55319,6
29875,55311,4
29887,55321,5
29885,55316,4
29890,55320,5
29876,55318,5
29878,55317,5
29875,55311,5
29882,55323,4
29883,55320,5
29877,55328,5
29882,55325,5
29885,55325,4
29885,55323,4
29891,55328,5
29886,55321,5
29884,55324,5
29883,55329,4
29894,55329,5
29889,55326,5
29886,55332,5
29893,55331,5
29882,55324,4
29896,55330,5
29889,55337,5
29894,55332,6
29895,55328,4
29892,55328,4
29886,55331,5
29884,55324,5
29888,55319,5
29884,55318,5
29881,55325,4
29886,55319,5
29888,55324,5
29881,55317,5
29883,55321,5
29885,55325,4
29880,55319,5
29888,55320,5
29877,55316,5
29888,55329,4
29883,55325,4
29897,55336,5
29893,55331,5
29893,55336,5
29896,55340,5
29901,55347,4
29899,55347,5
29903,55348,5
29892,55348,6
29893,55341,3
29900,55338,5
29893,55337,5
29860,55341,5
29895,55339,5
29893,55336,4
29894,55335,5
29830,55335,5
29900,55338,5
29893,55337,5
29887,55334,4
29872,55324,5
29889,55331,5
29894,55332,5
29891,55333,5
29913,55327,4
29884,55326,5
29890,55327,5
29885,55334,5
29952,55327,4
29894,55325,6
29892,55335,4
29881,55330,5
29931,55321,5
29887,55337,4
29889,55338,5
29891,55333,5
29906,55332,5
29898,55352,5
29896,55340,4
29893,55337,5
29885,55315,5
29888,55342,5
29892,55350,5
29898,55346,4
29896,55300,5
29895,55336,5
29897,55337,5
29895,55333,5
29894,55284,4
29894,55334,5
29892,55337,5
29894,55345,5
29895,55348,4
29890,55335,4
29885,55337,6
29887,55340,4
29888,55389,5
29898,55336,4
29901,55335,5
29886,55346,5
29892,55397,5
29896,55332,5
29896,55338,4
29895,55338,5
29894,55365,5
29893,55345,5
29902,55347,5
29893,55353,4
29895,55355,5
29897,55352,5
29900,55344,5
29898,55355,5
29894,55345,4
29909,55354,5
29905,55354,5
29906,55358,5
29913,55362,5
29899,55364,4
29905,55366,5
29906,55368,6
29902,55366,4
29914,55358,4
29909,55367,4
29910,55366,5
29905,55362,5
29909,55364,5
29913,55371,4
29908,55360,5
29910,55374,5
29911,55362,5
29910,55372,5
29920,55378,4
29911,55378,5
29913,55381,5
29914,55370,5
29915,55378,5
29908,55370,4
29908,55372,5
29911,55382,5
29905,55378,5
29914,55375,5
29907,55371,4
29909,55371,5
29925,55374,5
29914,55373,5
29915,55377,5
29908,55369,4
29924,55380,5
29913,55372,5
29911,55369,5
29912,55370,4
29916,55383,5
29915,55381,5
29919,55376,5
29918,55384,5
29912,55385,6
29915,55369,3
29910,55362,5
29907,55367,5
29917,55371,5
29905,55364,4
29903,55356,5
29902,55353,5
29898,55351,5
29897,55343,5
29894,55346,5
29900,55340,4
29900,55348,5
29892,55344,5
29897,55348,5
29892,55347,4
29902,55348,5
29901,55350,5
29894,55361,5
29908,55359,4
29906,55364,4
29913,55376,5
29918,55377,5
29910,55374,5
29919,55383,4
29916,55370,5
29907,55374,5
29915,55378,5
29916,55361,5
29906,55361,4
29910,55365,5
29907,55365,5
29905,55365,5
29906,55365,5
29882,55360,4
29908,55379,6
29923,55374,4
29905,55369,5
29860,55366,5
29907,55377,4
29914,55378,5
29915,55378,5
29855,55369,5
29912,55372,5
29909,55377,4
29913,55383,5
29922,55384,5
29908,55382,5
29912,55385,4
29920,55383,4
29962,55374,5
29916,55388,5
29930,55383,5
29914,55378,4
29968,55373,5
29914,55372,5
29921,55380,6
29918,55380,4
29950,55380,4
29919,55395,5
29929,55382,5
29918,55394,5
29928,55380,5
29928,55394,4
29923,55392,5
29925,55402,5
29918,55353,5
29923,55394,5
29917,55388,4
29923,55390,5
29922,55339,5
29929,55395,5
29924,55398,5
29911,55394,4
29916,55358,5
29928,55385,5
29928,55388,5
29928,55392,5
29919,55430,4
29919,55395,5
29920,55394,5
29925,55402,6
29922,55456,3
29922,55398,5
29923,55398,5
29929,55402,5
29926,55435,5
29927,55397,4
29927,55412,5
29928,55400,5
29933,55411,5
29926,55411,5
29933,55408,4
29931,55399,5
29925,55405,5
29936,55411,5
29936,55406,5
29940,55412,4
29939,55419,5
29939,55414,5
29937,55419,5
29935,55415,4
29942,55408,5
29936,55419,4
29936,55422,5
29939,55412,5
29941,55412,6
29941,55420,3
29941,55424,5
29933,55423,5
29940,55421,5
29938,55413,4
29937,55416,5
29931,55406,5
29935,55404,5
29946,55416,5
29930,55412,4
29938,55402,5
29934,55415,5
29932,55405,5
29927,55413,5
29932,55403,4
29932,55413,5
29935,55412,5
29933,55399,5
29930,55412,5
29929,55408,4
29932,55407,6
29937,55408,4
29925,55409,5
29931,55400,4
29939,55416,4
29941,55424,5
29932,55413,5
29938,55421,5
29943,55427,4
29934,55424,5
29939,55420,5
29926,55415,5
29940,55409,5
29932,55399,4
29932,55409,5
29932,55399,5
29927,55402,5
29928,55394,5
29927,55394,4
29921,55395,5
29920,55394,5
29920,55392,5
29919,55393,5
29920,55396,4
29923,55394,5
29921,55394,6
29924,55395,4
29927,55398,4
29925,55406,4
29932,55415,5
29928,55407,5
29929,55412,5
29938,55415,4
29928,55419,5
29928,55416,5
29937,55418,5
29940,55425,5
29934,55416,4
29933,55417,5
29931,55416,5
29930,55421,5
29927,55419,5
29930,55424,4
29940,55432,5
29934,55430,5
29937,55420,5
29935,55424,5
29936,55439,4
29905,55431,5
29937,55442,5
29945,55441,6
29944,55441,4
29897,55461,4
29945,55456,5
29951,55453,5
29951,55461,5
29918,55459,4
29949,55458,4
29953,55461,5
29951,55464,5
29973,55461,5
29952,55452,4
29955,55455,5
29958,55439,5
30002,55433,5
29937,55429,5
29945,55429,4
29940,55432,5
29970,55427,5
29936,55427,5
29935,55429,5
29944,55431,5
29958,55430,4
29931,55428,5
29941,55437,5
29946,55442,6
29936,55414,3
29945,55441,5
29944,55435,5
29947,55441,5
29945,55390,5
29945,55441,4
29941,55447,5
29937,55438,5
29956,55401,5
29943,55448,4
29942,55446,4
29947,55443,4
29947,55442,5
29946,55453,5
29955,55453,4
29954,55466,5
29959,55512,5
29962,55472,5
29964,55484,5
29973,55487,4
29964,55552,6
29968,55502,4
29973,55503,5
29989,55511,5
29991,55540,4
29982,55514,5
29987,55523,5
29993,55522,5
29989,55537,5
29986,55534,4
29992,55540,5
29993,55535,5
29998,55544,5
30001,55549,4
30002,55542,4
30000,55553,5
29994,55537,5
29993,55544,5
29996,55548,4
30002,55552,5
30004,55555,5
29998,55540,5
29994,55535,5
29994,55542,4
30003,55533,5
30000,55545,6
29995,55539,4
29994,55537,5
29996,55535,4
29993,55532,5
29986,55529,5
29988,55526,5
29990,55521,5
29981,55516,4
29992,55513,5
29985,55512,5
29979,55515,5
29983,55518,5
29975,55496,4
29966,55487,5
29978,55492,5
29969,55492,5
29975,55495,4
29971,55497,4
29975,55483,5
29976,55493,5
29970,55492,5
29970,55486,4
29971,55488,5
29965,55487,5
29972,55491,6
29978,55506,4
29980,55512,4
29973,55508,5
29985,55512,5
29983,55509,5
29985,55512,5
29988,55510,4
29990,55518,5
29982,55509,5
29973,55498,5
29977,55495,5
29964,55478,4
29958,55488,5
29969,55488,5
29968,55483,5
29964,55477,4
29964,55486,4
29969,55490,5
29973,55498,5
29967,55498,5
29978,55504,5
29981,55509,4
29976,55507,5
29983,55514,5
29975,55514,5
29966,55501,4
29975,55503,5
29971,55498,5
29978,55499,5
29969,55500,5
29976,55499,4
29973,55494,5
29974,55495,5
29971,55475,5
29959,55481,5
29970,55485,4
29971,55492,5
29973,55489,5
29949,55490,5
29967,55488,5
29969,55492,4
29973,55500,5
29928,55486,5
29977,55475,5
29954,55465,4
29958,55455,5
29890,55449,4
29929,55415,5
29923,55415,5
29923,55394,4
29922,55398,5
29913,55391,5
29910,55379,5
29908,55378,5
29950,55379,4
29901,55373,5
29912,55368,5
29900,55363,5
29964,55362,5
29897,55359,4
29894,55365,5
29900,55356,5
29935,55359,5
29897,55363,5
29905,55359,4
29905,55373,5
29915,55374,5
29915,55378,5
29921,55379,5
29914,55377,4
29919,55351,6
29922,55395,4
29921,55408,5
29930,55405,4
29924,55356,4
29927,55412,5
29925,55406,5
29927,55404,5
29927,55364,4
29927,55395,5
29923,55399,5
29919,55391,5
29919,55417,5
29920,55385,4
29913,55380,5
29909,55379,5
29914,55435,5
29909,55383,5
29909,55366,4
29912,55370,5
29908,55410,5
29906,55364,5
29906,55355,5
29903,55348,4
29894,55368,5
29897,55352,5
29897,55351,5
29897,55349,4
29903,55357,4
29902,55358,5
29906,55356,5
29907,55362,5
29903,55358,4
29904,55364,5
29899,55355,5
29909,55352,5
29907,55365,5
29907,55364,4
29899,55355,5
29900,55355,5
29903,55358,5
29904,55343,5
29894,55333,4
29898,55349,5
29892,55345,5
29900,55350,5
29897,55351,5
29903,55356,4
29896,55357,5
29909,55362,5
29913,55369,5
29912,55369,5
29908,55372,4
29920,55382,5
29915,55379,5
29910,55382,5
29921,55382,4
29918,55378,4
29920,55388,5
29915,55388,5
29915,55382,5
29918,55391,4
29915,55380,5
29918,55386,5
29914,55381,5
29920,55377,5
29904,55378,4
29914,55375,5
29904,55377,4
29908,55373,5
29905,55377,5
29908,55366,5
29908,55373,3
29913,55371,9
29915,55361,1
29909,55364,5
29910,55340,4
29903,55357,5
29909,55350,5
29906,55363,5
29902,55361,4
29899,55363,4
29905,55365,5
29898,55361,5
29903,55354,5
29902,55357,4
29898,55347,5
29903,55353,5
29900,55343,5
29901,55347,5
29898,55353,4
29894,55348,5
29899,55348,6
29908,55345,4
29900,55344,5
29897,55357,4
29898,55346,7
29904,55352,3
29893,55369,5
29900,55355,5
29903,55355,4
29908,55365,5
29907,55360,5
29908,55368,5
29908,55357,5
29894,55354,4
29898,55356,5
29906,55352,5
29903,55357,5
29859,55346,4
29900,55346,4
29892,55347,5
29898,55350,5
29840,55343,5
29893,55346,4
29890,55340,5
29887,55342,5
29854,55333,6
29886,55326,4
29887,55326,4
29883,55322,5
29909,55326,5
29878,55323,5
29883,55324,5
29876,55316,4
29936,55313,5
29874,55311,5
29883,55317,5
29878,55318,5
29929,55327,4
29882,55315,5
29889,55326,5
29880,55320,5
29901,55324,5
29886,55327,4
29892,55321,5
29880,55317,5
29883,55298,5
29879,55312,5
29874,55291,4
29867,55304,5
29870,55261,5
29870,55305,6
29869,55295,4
29868,55299,4
29864,55236,5
29867,55310,5
29872,55298,5
29866,55296,4
29868,55286,5
29871,55296,5
29865,55293,5
29871,55293,5
29868,55340,4
29859,55285,5
29861,55284,5
29866,55287,5
29860,55356,5
29858,55296,4
29861,55277,5
29861,55281,5
29848,55307,5
29863,55278,4
29855,55274,5
29870,55270,4
29859,55282,5
29850,55276,5
29848,55274,6
29852,55279,3
29855,55276,5
29857,55275,5
29857,55272,5
29856,55265,4
29853,55269,5
29851,55258,5
29849,55252,5
29845,55248,5
29846,55248,4
29844,55254,5
29842,55241,5
29839,55237,5
29839,55240,5
29827,55235,4
29836,55233,5
29837,55231,5
29831,55240,5
29835,55233,5
29837,55230,4
29835,55237,6
29831,55236,4
29836,55244,5
29837,55246,4
29838,55240,4
29844,55248,5
29844,55245,5
29847,55254,5
29839,55241,4
29840,55239,5
29835,55237,5
29846,55246,5
29840,55241,5
29832,55229,4
29841,55239,5
29832,55234,5
29835,55238,5
29832,55226,8
29830,55236,5
29835,55229,5
29814,55223,7
29815,55220,8
29833,55220,5
29823,55213,7
29823,55213,8
29831,55219,9
29824,55216,8
29827,55214,5
29823,55206,7
29821,55203,8
29821,55203,5
29820,55232,7
29818,55225,8
29818,55205,5
29821,55195,7
29816,55191,8
29821,55193,5
29793,55173,7
29793,55173,8
29802,55169,5
29799,55166,7
29801,55170,8
29804,55183,7
29800,55216,5
29804,55193,8
29804,55193,7
29764,55183,9
29810,55177,10
29810,55197,9
29810,55197,8
29817,55189,7
29758,55199,10
29805,55195,7
29805,55195,5
29824,55185,8
29790,55196,7
29848,55189,5
29818,55192,8
29812,55216,7
29817,55206,5
29835,55192,8
29835,55192,7
29780,55197,9
29809,55188,10
29809,55171,9
29809,55171,10
29801,55137,9
29802,55187,10
29802,55187,5
29813,55188,5
29806,55196,10
29802,55138,5
29815,55178,5
29812,55182,10
29812,55182,5
29809,55188,5
29805,55242,10
29812,55189,5
29812,55186,5
29826,55192,10
29841,55242,5
29819,55194,5
29822,55208,10
29822,55208,5
29816,55171,7
29819,55190,8
29828,55209,5
29827,55212,7
29823,55214,8
29824,55198,5
29823,55212,7
29823,55212,8
29821,55213,5
29821,55222,7
29824,55226,8
29834,55224,5
29824,55206,7
29843,55247,8
29843,55247,5
29850,55266,7
29861,55276,8
29854,55260,5
29849,55258,7
29849,55242,8
29840,55237,7
29840,55237,5
29864,55243,8
29860,55233,6
29826,55247,0
29844,55234,2
29862,55236,5
29847,55233,5
29833,55241,4
29833,55240,5
29839,55227,5
29836,55235,5
29843,55233,5
29835,55237,4
29835,55235,5
29830,55245,5
29839,55238,5
29840,55231,4
29838,55233,4
29835,55238,5
29834,55236,5
29835,55234,5
29839,55236,5
29839,55240,4
29838,55234,5
29841,55240,5
29835,55233,5
29838,55229,4
29838,55244,5
29830,55235,5
29838,55244,5
29833,55252,5
29838,55247,4
29846,55241,5
29840,55238,5
29840,55241,5
29840,55241,5
29844,55243,4
29846,55244,5
29846,55241,5
29839,55251,5
29842,55254,5
29840,55259,4
29840,55252,5
29851,55266,5
29853,55262,5
29852,55257,4
29855,55259,5
29849,55259,4
29846,55261,5
29855,55272,5
29850,55272,4
29855,55273,5
29821,55270,5
29854,55267,5
29853,55267,5
29854,55270,4
29809,55280,5
29854,55271,5
29866,55276,5
29861,55281,5
29823,55279,4
29863,55278,5
29864,55280,5
29857,55278,5
29887,55282,5
29860,55272,4
29863,55283,5
29869,55285,6
29915,55291,4
29865,55284,5
29869,55289,4
29868,55299,6
29910,55297,4
29870,55295,5
29869,55302,4
29868,55303,4
29894,55297,5
29876,55296,5
29871,55303,5
29874,55304,4
29876,55286,5
29870,55302,5
29873,55303,5
29868,55300,5
29869,55259,4
29880,55304,5
29873,55305,5
29864,55296,5
29879,55243,5
29871,55288,4
29876,55298,5
29870,55288,5
29871,55288,5
29858,55291,4
29874,55282,4
29868,55285,5
29867,55318,5
29858,55284,5
29866,55286,4
29865,55280,4
29867,55339,5
29860,55275,5
29856,55281,5
29862,55274,4
29869,55307,5
29862,55273,5
29862,55276,5
29852,55273,5
29860,55277,4
29857,55281,5
29860,55288,5
29869,55285,5
29867,55297,5
29865,55298,5
29878,55307,4
29874,55313,5
29883,55321,5
29882,55325,6
29890,55322,3
29893,55324,5
29880,55320,5
29884,55320,5
29883,55318,5
29881,55317,4
29887,55310,5
29878,55313,5
29872,55316,5
29883,55321,4
29887,55324,4
29877,55323,5
29882,55318,5
29881,55329,5
29884,55322,4
29881,55319,5
29892,55323,5
29881,55331,5
29887,55333,5
29890,55329,4
29884,55332,6
29877,55328,4
29882,55334,5
29889,55322,5
29893,55324,6
29885,55330,3
29894,55331,5
29889,55322,5
29899,55328,5
29886,55332,4
29885,55332,5
29888,55326,5
29892,55330,5
29892,55333,5
29883,55326,4
29887,55335,5
29894,55341,5
29895,55341,5
29886,55334,4
29893,55336,6
29887,55327,3
29892,55316,5
29881,55316,5
29879,55328,4
29884,55329,5
29882,55327,6
29882,55326,4
29875,55315,5
29881,55320,4
29892,55322,5
29890,55329,5
29880,55331,5
29886,55330,5
29883,55330,4
29891,55321,5
29888,55333,5
29885,55338,5
29888,55338,5
29893,55337,4
29893,55334,5
29901,55333,5
29897,55345,5
29894,55344,4
29895,55350,4
29896,55351,5
29894,55343,5
29901,55353,5
29898,55355,4
29901,55358,5
29909,55355,5
29896,55354,6
29879,55364,4
29906,55350,4
29911,55354,5
29904,55358,5
29851,55357,5
29906,55355,5
29900,55369,4
29907,55369,5
29846,55365,5
29901,55369,5
29908,55374,5
29912,55372,4
29912,55376,5
29912,55373,5
29904,55373,5
29919,55370,5
29962,55377,4
29907,55373,5
29913,55380,5
29911,55386,5
29975,55374,5
29904,55383,4
29904,55368,5
29913,55374,5
29931,55375,6
29908,55371,3
29910,55372,5
29905,55360,5
29903,55360,5
29900,55363,5
29903,55355,4
29903,55355,5
29904,55315,5
29904,55359,5
29900,55353,5
29901,55348,4
29903,55298,5
29894,55354,5
29904,55357,5
29909,55353,5
29900,55330,4
29905,55356,5
29910,55373,5
29908,55371,5
29916,55402,4
29919,55382,5
29922,55375,4
29913,55380,5
29919,55445,5
29918,55372,4
29917,55374,5
29908,55363,5
29909,55416,5
29911,55369,5
29913,55373,4
29904,55372,5
29913,55383,5
29911,55370,5
29909,55359,5
29909,55376,4
29906,55376,5
29900,55368,5
29902,55362,5
29898,55370,5
29908,55373,4
29906,55376,5
29914,55377,5
29909,55376,5
29902,55375,5
29913,55379,4
29913,55372,6
29913,55369,4
29908,55380,5
29903,55374,4
29915,55371,4
29911,55379,5
29911,55378,5
29909,55370,5
29911,55359,4
29908,55370,5
29912,55367,5
29908,55368,5
29907,55361,5
29906,55378,4
29911,55365,5
29902,55366,5
29904,55362,5
29910,55365,5
29909,55371,4
29910,55358,5
29903,55364,5
29906,55372,5
29908,55370,5
29905,55360,4
29911,55367,5
29903,55362,6
29905,55360,4
29897,55368,4
29901,55365,4
29911,55366,5
29906,55371,5
29908,55376,5
29914,55366,4
29902,55378,5
29910,55371,5
29901,55373,5
29915,55371,5
29912,55379,4
29916,55386,5
29924,55386,5
29920,55392,5
29925,55403,5
29921,55406,4
29924,55407,5
29926,55408,5
29934,55411,5
29929,55425,5
29927,55412,4
29929,55422,5
29932,55424,5
29924,55420,6
29921,55414,4
29925,55416,4
29937,55419,5
29934,55418,5
29927,55417,5
29921,55417,4
29925,55409,4
29927,55412,5
29928,55413,5
29923,55403,5
29921,55406,4
29920,55405,5
29912,55398,5
29912,55388,5
29911,55388,5
29909,55377,4
29899,55375,5
29901,55369,5
29901,55376,5
29900,55381,5
29867,55381,5
29906,55373,4
29903,55392,5
29916,55394,5
29866,55394,5
29909,55390,4
29914,55380,5
29910,55392,5
29883,55376,5
29898,55374,5
29906,55374,4
29904,55364,5
29935,55358,5
29891,55346,5
29896,55351,4
29884,55340,4
29939,55339,5
29879,55350,5
29888,55346,5
29880,55340,4
29917,55341,5
29888,55348,5
29889,55348,5
29894,55350,5
29906,55354,4
29901,55362,6
29889,55358,4
29892,55361,5
29894,55333,5
29895,55360,4
29893,55360,5
29894,55362,5
29896,55304,5
29884,55342,5
29892,55337,4
29879,55337,5
29883,55285,5
29887,55345,5
29895,55339,4
29887,55340,5
29883,55363,4
29888,55338,5
29885,55338,5
29881,55341,4
29886,55395,4
29881,55351,5
29882,55337,5
29877,55337,5
29879,55407,4
29884,55339,5
29890,55339,6
29891,55346,4
29883,55373,5
29882,55349,4
29885,55355,5
29889,55349,5
29893,55347,5
29888,55350,5
29890,55349,4
29886,55340,5
29889,55339,5
29888,55349,5
29887,55341,5
29878,55342,4
29881,55341,5
29882,55339,5
29878,55342,5
29889,55347,4
29892,55340,4
29876,55343,5
29887,55341,5
29878,55343,5
29881,55337,4
29890,55340,5
29880,55345,5
29877,55340,5
29881,55325,5
29883,55329,4
29883,55333,5
29874,55325,5
29874,55329,5
29879,55333,5
29878,55337,4
29879,55330,5
29880,55335,5
29875,55331,5
29881,55330,5
29876,55337,4
29882,55335,5
29878,55338,5
29882,55341,5
29885,55341,5
29894,55350,4
29906,55358,5
29899,55350,5
29903,55362,5
29896,55368,5
29900,55378,4
29899,55372,5
29905,55380,5
29911,55382,5
29905,55380,4
29907,55382,5
29906,55383,5
29900,55379,5
29906,55396,5
29916,55388,4
29915,55392,5
29916,55385,5
29905,55388,5
29913,55382,5
29903,55387,4
29912,55383,5
29907,55375,5
29904,55370,5
29895,55364,5
29899,55354,4
29896,55354,6
29889,55346,4
29886,55346,5
29883,55336,4
29884,55335,6
29878,55334,3
29879,55333,5
29872,55320,5
29871,55324,4
29871,55315,4
29880,55313,5
29864,55313,5
29878,55311,5
29874,55311,4
29869,55313,5
29867,55304,5
29876,55305,5
29878,55308,5
29881,55315,4
29871,55320,5
29849,55311,5
29872,55318,5
29876,55321,5
29879,55313,4
29828,55322,5
29880,55312,6
29876,55305,4
29870,55309,5
29809,55291,4
29864,55294,5
29865,55294,5
29864,55294,5
29875,55294,4
29865,55286,4
29858,55289,5
29860,55297,5
29912,55292,5
29861,55287,4
29869,55286,5
29859,55289,5
29915,55286,5
29858,55279,5
29853,55279,4
29853,55286,5
29877,55283,5
29855,55290,5
29857,55278,5
29857,55279,4
29845,55255,5
29851,55269,5
29844,55255,6
29845,55254,4
29841,55219,4
29847,55255,5
29844,55263,5
29837,55263,5
29840,55212,5
29854,55265,4
29842,55270,5
29849,55272,5
29853,55246,5
29843,55266,4
29850,55263,4
29845,55262,5
29851,55291,5
29846,55257,5
29840,55257,4
29836,55260,5
29837,55310,5
29842,55253,5
29846,55259,5
29847,55261,5
