RED,IR,EKG,TIME
26911,49921,9
26906,49923,7
26903,49919,8
26910,49900,5
26893,49916,7
26893,49916,5
26895,49916,8
26895,49906,7
26892,49856,5
26889,49888,8
26926,49901,7
26897,49892,5
26883,49933,8
26883,49933,7
26877,49878,5
26910,49922,8
26880,49877,7
26887,49936,8
26849,49876,5
26865,49871,7
26877,49884,8
26877,49884,7
26881,49873,5
26870,49873,5
26864,49867,8
26877,49854,7
26875,49864,5
26861,49850,8
26847,49839,7
26847,49839,5
26853,49860,8
26840,49834,7
26839,49806,8
26831,49820,7
26830,49814,9
26830,49814,10
26837,49818,9
26854,49855,8
26854,49855,7
26862,49855,12
26847,49853,5
26859,49863,5
26860,49853,5
26863,49864,10
26863,49864,5
26865,49908,5
26866,49883,10
26859,49837,5
26863,49873,5
26866,49878,10
26871,49879,5
26861,49888,7
26861,49888,8
26846,49890,5
26864,49882,7
26870,49876,8
26870,49883,5
26870,49921,7
26868,49887,8
26868,49887,5
26832,49892,7
26861,49887,8
26871,49891,5
26876,49891,7
26873,49894,8
26865,49885,9
26865,49885,8
26856,49822,5
26857,49861,7
26888,49850,8
26873,49863,5
26862,49860,7
26866,49868,8
26866,49868,5
26858,49884,7
26864,49877,6
26870,49872,0
26860,49879,1
26860,49888,5
26831,49880,5
26872,49857,4
26853,49843,5
26844,49834,5
26798,49836,5
26848,49828,5
26843,49825,4
26837,49823,5
26797,49813,5
26824,49809,5
26821,49794,5
26814,49783,4
26835,49774,5
26794,49755,5
26791,49735,5
26779,49743,5
26835,49736,4
26782,49731,6
26786,49740,4
26782,49739,5
26832,49748,5
26791,49744,4
26783,49747,5
26798,49761,5
26812,49753,5
26787,49754,4
26790,49748,4
26786,49753,5
26788,49725,5
26792,49746,5
26786,49739,4
26780,49742,5
26779,49679,5
26781,49715,5
26778,49718,5
26766,49713,4
26771,49652,5
26770,49704,5
26766,49706,5
26770,49707,5
26771,49706,4
26770,49713,5
26775,49715,6
26777,49716,4
26783,49767,5
26779,49734,4
26786,49734,5
26792,49734,5
26794,49808,5
26788,49751,4
26799,49757,4
26794,49757,5
26798,49782,5
26805,49759,5
26809,49758,4
26813,49774,5
26814,49766,5
26813,49770,5
26810,49766,5
26810,49770,4
26814,49768,5
26804,49773,5
26816,49775,5
26817,49781,5
26818,49785,4
26822,49787,5
26817,49787,5
26824,49786,6
26818,49797,4
26833,49802,4
26826,49795,5
26826,49797,5
26836,49799,5
26827,49808,5
26836,49805,4
26833,49800,5
26830,49801,5
26839,49800,5
26834,49801,4
26838,49798,5
26825,49799,5
26837,49796,5
26833,49798,5
26830,49801,4
26837,49798,5
26834,49801,5
26835,49794,5
26833,49807,5
26826,49797,5
26830,49798,4
26844,49810,5
26845,49807,5
26834,49812,5
26835,49808,4
26837,49810,5
26838,49814,6
26841,49808,4
26840,49818,5
26837,49812,4
26843,49820,5
26843,49820,5
26843,49823,5
26849,49818,4
26848,49824,4
26846,49824,5
26847,49821,5
26844,49826,5
26846,49834,4
26848,49837,5
26852,49826,5
26850,49832,5
26852,49835,5
26855,49824,4
26849,49843,6
26857,49833,4
26851,49837,5
26855,49832,5
26846,49833,4
26852,49828,5
26848,49836,5
26853,49823,5
26854,49838,5
26847,49834,4
26847,49833,5
26851,49836,5
26851,49834,5
26854,49838,4
26856,49834,4
26854,49829,5
26845,49831,5
26852,49825,5
26850,49825,4
26851,49827,5
26848,49829,5
26850,49826,5
26852,49841,5
26854,49823,4
26839,49830,5
26854,49829,6
26844,49835,4
26852,49820,5
26800,49827,4
26850,49826,5
26845,49831,5
26850,49827,5
26802,49831,5
26855,49836,4
26857,49830,5
26853,49834,5
26852,49832,5
26850,49825,5
26857,49833,4
26848,49821,5
26900,49818,5
26843,49814,5
26847,49826,4
26839,49822,5
26908,49820,5
26841,49824,5
26845,49822,5
26848,49819,4
26878,49822,5
26850,49822,5
26840,49820,5
26850,49816,5
26847,49824,4
26846,49822,5
26839,49819,5
26848,49815,5
26843,49781,5
26850,49822,4
26848,49817,5
26846,49822,5
26838,49764,5
26847,49819,5
26839,49818,4
26840,49805,5
26840,49772,5
26846,49811,5
26843,49815,4
26838,49812,5
26834,49831,4
26839,49797,5
26838,49800,5
26840,49804,6
26835,49860,3
26833,49805,5
26832,49815,5
26833,49808,5
26834,49858,4
26838,49799,5
26829,49799,5
26836,49812,5
26829,49820,5
26839,49807,4
26835,49797,5
26837,49809,5
26830,49806,5
26843,49808,5
26835,49806,4
26838,49813,5
26837,49807,5
26838,49804,5
26836,49800,4
26834,49799,4
26839,49797,5
26831,49801,5
26828,49803,5
26835,49797,4
26826,49805,6
26823,49790,4
26834,49799,5
26833,49802,5
26832,49795,4
26829,49799,5
26826,49798,5
26838,49790,5
26828,49792,5
26833,49796,4
26830,49792,5
26827,49800,5
26831,49789,5
26823,49789,5
26831,49791,4
26827,49797,5
26834,49791,5
26823,49787,5
26824,49786,5
26831,49783,4
26828,49791,5
26821,49788,5
26815,49787,5
26825,49785,4
26828,49791,4
26824,49783,6
26822,49791,4
26830,49788,5
26830,49788,4
26829,49799,5
26831,49798,5
26829,49794,5
26827,49796,5
26828,49795,4
26828,49787,5
26822,49783,5
26825,49780,5
26821,49776,5
26816,49781,4
26815,49782,5
26821,49784,5
26820,49774,5
26815,49775,5
26821,49782,4
26820,49770,5
26822,49772,5
26818,49784,6
26818,49776,3
26819,49767,4
26819,49772,5
26818,49774,5
26810,49779,5
26815,49778,4
26823,49778,5
26813,49780,5
26817,49767,5
26820,49768,5
26818,49765,4
26814,49772,5
26817,49761,5
26810,49770,5
26811,49764,5
26806,49763,4
26812,49762,5
26814,49757,5
26806,49768,5
26806,49759,5
26811,49757,5
26805,49758,4
26774,49759,5
26812,49747,5
26806,49761,6
26799,49754,3
26752,49750,5
26808,49753,5
26809,49752,5
26800,49744,4
26778,49744,5
26799,49753,5
26798,49744,5
26800,49746,5
26829,49754,4
26795,49747,5
26798,49758,5
26803,49747,5
26857,49741,5
26801,49742,4
26803,49750,5
26798,49752,5
26839,49751,5
26801,49745,5
26803,49747,4
26803,49747,6
26806,49740,4
26802,49745,5
26789,49751,5
26801,49752,6
26792,49714,3
26799,49746,5
26797,49750,5
26794,49740,4
26797,49700,4
26798,49737,5
26797,49745,5
26790,49735,5
26798,49683,4
26795,49735,5
26789,49734,5
26795,49732,5
26800,49735,5
26796,49726,4
26795,49737,5
26792,49737,5
26800,49794,5
26797,49735,5
26794,49739,4
26799,49742,5
26798,49805,6
26792,49739,4
26803,49743,5
26803,49753,4
26801,49773,5
26793,49751,5
26808,49746,5
26792,49749,4
26809,49742,4
26795,49740,5
26794,49744,5
26802,49741,5
26788,49746,4
26793,49731,5
26797,49727,5
26785,49733,5
26787,49731,5
26786,49736,4
26786,49733,5
26783,49730,5
26790,49737,5
26787,49733,5
26794,49731,4
26797,49733,5
26790,49732,5
26787,49735,6
26790,49734,4
26796,49737,4
26792,49738,5
26788,49731,5
26789,49730,5
26784,49734,5
26781,49727,4
26795,49728,5
26793,49729,5
26781,49729,5
26785,49729,4
26784,49720,5
26783,49724,5
26785,49720,5
26782,49714,5
26778,49726,4
26787,49730,5
26787,49730,5
26786,49729,5
26794,49727,5
26789,49728,5
26790,49727,4
26788,49726,5
26784,49724,5
26791,49721,6
26785,49731,3
26785,49731,5
26787,49738,5
26785,49737,5
26792,49723,5
26796,49737,4
26786,49727,5
26790,49736,5
26794,49732,5
26791,49734,4
26794,49739,4
26787,49735,5
26795,49735,5
26794,49730,5
26797,49729,4
26799,49737,5
26802,49735,5
26797,49737,5
26793,49742,5
26798,49738,4
26806,49751,6
26801,49751,4
26795,49754,5
26815,49751,5
26802,49751,4
26807,49759,5
26807,49763,5
26804,49762,5
26816,49759,5
26813,49767,4
26810,49755,5
26814,49774,5
26810,49760,5
26812,49763,4
26808,49756,4
26808,49762,5
26811,49765,5
26810,49772,5
26792,49758,4
26808,49766,5
26819,49756,5
26821,49765,5
26771,49764,5
26813,49758,4
26814,49761,5
26808,49758,6
26758,49767,4
26811,49762,5
26819,49767,4
26813,49766,5
26827,49769,5
26814,49766,5
26814,49763,5
26805,49765,4
26860,49773,5
26807,49765,5
26819,49763,5
26817,49755,5
26866,49761,4
26817,49766,5
26810,49765,5
26821,49780,5
26841,49776,4
26825,49794,5
26828,49782,5
26829,49792,5
26830,49783,5
26822,49789,4
26832,49795,5
26826,49793,5
26835,49748,6
26829,49789,4
26832,49782,4
26834,49782,5
26824,49731,5
26824,49787,5
26837,49784,5
26823,49780,5
26826,49768,4
26825,49784,5
26826,49780,5
26821,49784,5
26828,49826,4
26829,49787,5
26815,49779,5
26816,49785,5
26818,49848,4
26822,49783,4
26819,49776,5
26816,49778,5
26832,49809,5
26823,49779,5
26818,49769,4
26819,49782,5
26818,49784,5
26810,49780,5
26817,49773,4
26818,49788,5
26824,49781,5
26832,49772,5
26818,49782,5
26824,49776,4
26821,49776,5
26821,49786,5
26823,49785,5
26824,49779,5
26831,49782,4
26814,49788,5
26822,49778,5
26822,49789,5
26827,49780,4
26818,49787,4
26824,49778,5
26825,49791,5
26823,49775,5
26821,49781,4
26824,49779,6
26823,49786,4
26830,49780,5
26826,49789,5
26823,49788,4
26826,49785,5
26831,49778,5
26831,49779,5
26833,49791,5
26833,49788,4
26827,49787,5
26827,49794,5
26829,49793,5
26834,49793,5
26833,49795,4
26832,49794,5
26833,49789,5
26829,49796,5
26833,49802,5
26832,49804,8
26828,49791,1
26815,49787,5
26831,49797,5
26821,49799,4
26832,49788,4
26834,49801,6
26831,49803,4
26835,49807,5
26841,49802,4
26842,49816,5
26846,49818,5
26845,49814,5
26836,49813,5
26852,49830,4
26845,49824,5
26844,49828,5
26845,49820,5
26852,49834,5
26846,49839,4
26852,49834,5
26857,49836,5
26857,49836,5
26851,49828,5
26860,49830,4
26850,49836,5
26847,49830,5
26853,49831,5
26863,49826,4
26861,49835,4
26858,49835,5
26855,49836,5
26857,49837,5
26862,49832,4
26856,49846,5
26855,49845,5
26860,49842,5
26863,49848,5
26866,49844,4
26871,49847,5
26850,49856,5
26875,49858,5
26867,49854,5
26868,49857,4
26829,49857,5
26873,49855,5
26875,49858,5
26867,49858,5
26812,49862,4
26874,49855,5
26873,49854,5
26864,49850,5
26858,49852,5
26867,49850,4
26861,49855,5
26858,49843,5
26900,49857,5
26871,49847,4
26864,49837,4
26853,49841,5
26916,49841,5
26867,49843,5
26859,49841,4
26858,49847,5
26899,49849,5
26870,49853,5
26869,49859,5
26874,49860,4
26879,49871,5
26877,49875,5
26887,49879,5
26885,49878,5
26885,49846,4
26881,49874,5
26878,49875,5
26882,49872,5
26879,49815,5
26884,49866,5
26872,49872,4
26880,49869,5
26884,49812,5
26881,49863,4
26878,49869,4
26874,49869,5
26872,49884,5
26877,49871,5
26879,49862,4
26871,49859,5
26870,49916,5
26878,49860,5
26876,49856,5
26871,49850,4
26872,49906,5
26872,49859,5
26868,49857,5
26874,49864,5
26872,49881,4
26876,49862,5
26870,49861,6
26868,49861,4
26873,49863,5
26873,49852,4
26872,49868,7
26880,49860,3
26870,49863,5
26875,49868,5
26863,49863,4
26874,49866,5
26871,49860,5
26879,49863,5
26880,49867,4
26879,49856,5
26869,49865,5
26871,49862,5
26865,49855,5
26874,49857,4
26864,49861,5
26872,49868,5
26873,49868,5
26876,49854,5
26870,49863,4
26870,49864,5
26869,49858,5
26870,49867,6
26870,49864,4
26876,49869,4
26876,49865,5
26883,49874,5
26882,49867,5
26882,49870,5
26877,49877,4
26883,49875,5
26882,49874,5
26885,49879,5
26878,49883,4
26882,49886,4
26887,49881,5
26888,49883,5
26888,49880,5
26877,49888,4
26886,49885,5
26891,49889,5
26891,49882,5
26893,49885,5
26882,49887,5
26890,49887,4
26889,49886,5
26894,49889,5
26893,49885,6
26886,49889,3
26889,49881,5
26890,49879,5
26897,49882,5
26891,49886,5
26891,49883,4
26880,49883,5
26893,49882,5
26888,49888,5
26885,49872,4
26885,49891,4
26881,49882,5
26884,49877,5
26884,49892,5
26889,49887,4
26885,49892,5
26883,49887,5
26888,49887,5
26891,49880,5
26882,49889,4
26880,49873,6
26884,49885,4
26886,49889,5
26889,49886,5
26887,49878,6
26881,49881,3
26890,49885,5
26891,49880,5
26889,49881,5
26886,49878,4
26888,49895,5
26891,49887,5
26850,49883,5
26890,49884,5
26884,49888,4
26890,49882,5
26835,49876,5
26878,49876,5
26885,49884,4
26880,49881,5
26850,49873,5
26876,49875,5
26873,49867,5
26882,49869,4
26902,49873,5
26866,49869,6
26874,49864,4
26873,49861,5
26921,49857,4
26865,49861,5
26874,49860,5
26873,49868,5
26914,49866,5
26878,49866,4
26877,49876,5
26887,49883,5
26896,49883,5
26887,49879,5
26885,49894,4
26892,49885,5
26890,49859,5
26890,49885,5
26882,49882,4
26882,49874,4
26882,49829,5
26877,49868,5
26885,49873,5
26881,49870,5
26880,49813,4
26880,49880,5
26881,49884,6
26877,49882,4
26876,49891,4
26886,49887,5
26886,49889,5
26885,49880,5
26882,49930,5
26890,49894,4
26887,49891,5
26894,49885,5
26892,49959,5
26887,49883,5
26892,49892,4
26889,49886,5
26884,49924,5
26885,49891,5
26878,49886,4
26890,49882,4
26877,49882,5
26883,49883,5
26893,49886,5
26883,49883,5
26877,49883,4
26878,49882,5
26875,49881,5
26890,49878,6
26889,49888,3
26885,49885,5
26888,49880,5
26877,49879,5
26880,49879,5
26884,49881,4
26876,49873,5
26879,49874,5
26885,49876,5
26868,49867,5
26869,49867,4
26878,49870,5
26872,49863,5
26870,49872,5
26870,49871,5
26865,49863,4
26871,49865,5
26869,49857,5
26877,49865,5
26862,49866,4
26876,49865,5
26875,49862,4
26876,49866,5
26867,49868,5
26869,49869,4
26872,49875,5
26873,49865,5
26877,49869,5
26883,49872,5
26874,49875,4
26878,49880,5
26865,49876,5
26890,49873,5
26879,49886,5
26886,49875,4
26886,49874,5
26878,49873,5
26884,49886,5
26883,49881,5
26877,49886,4
26885,49880,5
26880,49878,5
26887,49874,5
26883,49877,4
26883,49888,4
26880,49877,6
26884,49883,4
26889,49880,5
26877,49871,4
26881,49876,5
26880,49871,5
26880,49878,5
26881,49877,5
26882,49872,4
26882,49870,5
26881,49878,5
26883,49882,5
26880,49878,5
26872,49880,4
26880,49879,5
26879,49877,5
26885,49868,5
26876,49875,5
26881,49878,4
26882,49872,5
26881,49878,5
26878,49864,5
26866,49856,5
26867,49866,4
26869,49863,5
26865,49846,6
26862,49847,4
26857,49853,4
26839,49852,5
26863,49845,5
26869,49845,5
26863,49850,5
26812,49852,4
26868,49853,5
26867,49853,5
26872,49861,5
26810,49850,5
26867,49854,4
26867,49857,5
26868,49861,5
26881,49861,5
26879,49851,5
26865,49863,4
26869,49861,5
26920,49857,5
26865,49851,5
26868,49842,5
26862,49841,4
26920,49850,5
26851,49843,5
26866,49843,5
26865,49853,4
26885,49849,4
26871,49849,5
26871,49853,5
26858,49859,5
26862,49843,4
26867,49862,5
26868,49860,5
26872,49864,5
26870,49824,5
26869,49862,4
26869,49861,5
26874,49863,5
26869,49795,5
26869,49858,5
26866,49845,4
26858,49853,6
26866,49833,4
26867,49853,5
26859,49849,5
26865,49843,6
26861,49883,3
26870,49852,5
26863,49842,5
26864,49846,4
26861,49909,4
26858,49840,5
26860,49846,5
26870,49835,5
26862,49867,4
26854,49839,5
26856,49842,5
26853,49834,5
26855,49845,5
26850,49828,4
26857,49836,5
26853,49833,5
26853,49830,5
26855,49832,5
26849,49836,4
26853,49833,5
26862,49844,5
26856,49836,5
26859,49842,5
26859,49841,4
26859,49837,6
26856,49842,4
26860,49842,5
26862,49837,4
26859,49836,4
26856,49848,5
26853,49843,5
26856,49842,5
26859,49844,4
26858,49839,5
26862,49842,5
26866,49842,5
26847,49848,5
26859,49840,4
26867,49847,5
26861,49838,5
26859,49847,5
26856,49850,5
26860,49847,4
26858,49840,5
26864,49848,5
26853,49851,5
26861,49839,5
26857,49842,4
26857,49847,5
26864,49838,5
26854,49837,5
26852,49837,4
26853,49836,4
26860,49831,5
26849,49830,5
26851,49818,5
26848,49820,6
26853,49827,3
26843,49825,5
26847,49819,5
26849,49823,5
26846,49817,4
26838,49814,5
26837,49817,5
26841,49808,5
26833,49814,5
26847,49817,4
26834,49823,5
26848,49813,5
26838,49812,5
26843,49822,5
26847,49828,3
26860,49822,5
26856,49825,5
26842,49824,5
26841,49823,4
26844,49816,4
26838,49813,5
26839,49810,5
26838,49807,5
26839,49809,4
26843,49827,5
26838,49813,5
26848,49815,5
26845,49813,5
26846,49813,4
26844,49825,5
26845,49824,5
26845,49822,5
26840,49827,5
26852,49823,4
26845,49832,6
26847,49827,4
26822,49831,5
26853,49835,5
26850,49837,6
26852,49830,3
26810,49840,5
26859,49841,5
26859,49835,4
26855,49843,4
26805,49845,5
26862,49841,5
26860,49833,5
26855,49835,4
26866,49853,5
26862,49835,5
26856,49844,5
26864,49857,5
26909,49852,4
26865,49847,5
26865,49856,5
26863,49857,5
26917,49861,5
26861,49850,4
26864,49846,5
26868,49857,6
26890,49856,4
26863,49859,5
26870,49852,4
26873,49856,5
26869,49847,5
26865,49858,5
26870,49858,4
26862,49859,4
26878,49817,5
26872,49860,5
26875,49871,5
26878,49861,5
26878,49812,4
26879,49869,5
26884,49862,5
26876,49868,5
26877,49855,4
26872,49867,5
26879,49865,5
26875,49873,5
26878,49906,5
26890,49872,4
26875,49880,5
26879,49875,5
26877,49933,6
26883,49869,4
26874,49863,4
26879,49870,5
26878,49901,5
26881,49863,5
26870,49870,5
26881,49874,4
26868,49878,5
26878,49870,5
26875,49859,5
26877,49871,4
26875,49867,5
26879,49869,5
26871,49869,5
26871,49860,5
26870,49873,4
26871,49861,5
26875,49862,5
26878,49866,5
26870,49860,5
26882,49869,5
26878,49881,4
26882,49870,5
26876,49871,5
26874,49868,6
26872,49860,3
26877,49860,5
26873,49856,5
26873,49848,5
26870,49848,5
26861,49843,4
26864,49839,5
26861,49835,5
26863,49836,5
26847,49827,4
26858,49835,5
26850,49830,5
26859,49829,5
26855,49827,5
26851,49827,4
26843,49816,5
26840,49811,5
26834,49807,5
26837,49799,5
26838,49807,4
26835,49791,6
26837,49787,4
26837,49795,5
26825,49782,5
26827,49787,4
26827,49793,5
26828,49782,5
26824,49768,5
26810,49772,5
26813,49761,4
26803,49758,5
26798,49737,5
26792,49728,5
26792,49721,4
26781,49717,5
26779,49715,5
26782,49706,5
26772,49694,5
26766,49682,4
26766,49671,5
26753,49663,5
26750,49668,5
26753,49671,5
26752,49662,4
26750,49661,5
26748,49668,6
26745,49660,4
26758,49664,5
26764,49662,4
26759,49668,5
26758,49675,5
26752,49678,5
26761,49683,4
26769,49680,4
26767,49693,5
26769,49702,5
26769,49696,5
26768,49704,4
26773,49701,5
26776,49705,5
26782,49707,5
26780,49717,5
26779,49711,4
26754,49716,5
26786,49726,5
26788,49725,5
26793,49728,5
26743,49732,4
26797,49739,5
26797,49737,5
26798,49736,6
26743,49734,4
26811,49749,4
26797,49742,5
26805,49744,5
26819,49754,5
26803,49756,4
26809,49765,4
26821,49765,5
26872,49770,5
26811,49774,5
26816,49774,4
26814,49783,5
26873,49782,5
26825,49792,5
26827,49791,5
26823,49788,4
26853,49792,5
26830,49788,5
26829,49794,5
26826,49793,5
26827,49775,5
26824,49779,4
26821,49782,5
26828,49778,5
26818,49731,5
26819,49780,4
26826,49779,5
26822,49778,5
26823,49720,5
26814,49779,5
26824,49783,4
26815,49782,5
26818,49774,5
26818,49777,5
26823,49774,4
26818,49777,5
26814,49825,5
26815,49776,5
26816,49771,5
26814,49775,4
26815,49834,5
26814,49769,5
26816,49771,5
26810,49776,5
26821,49794,4
26817,49773,6
26815,49765,4
26817,49777,5
26816,49772,5
26818,49771,4
26819,49774,5
26812,49767,5
26822,49776,5
26818,49778,5
26810,49774,4
26819,49771,5
26815,49774,5
26816,49765,5
26811,49761,4
26810,49756,4
26810,49758,5
26809,49763,5
26811,49756,5
26808,49752,4
26813,49747,5
26798,49752,5
26806,49753,5
26811,49751,5
26803,49759,4
26804,49759,5
26814,49754,6
26803,49755,4
26805,49761,5
26813,49769,4
26814,49759,5
26816,49771,5
26812,49773,5
26816,49783,5
26817,49777,4
26817,49773,5
26816,49769,5
26820,49778,5
26819,49774,4
26823,49779,4
26817,49775,5
26823,49772,5
26823,49776,5
26821,49778,4
26818,49773,5
26821,49775,5
26816,49768,5
26811,49768,5
26816,49767,4
26811,49773,5
26820,49775,5
26811,49774,5
26815,49772,5
26810,49770,4
26822,49776,5
26817,49774,5
26814,49775,5
26821,49783,5
26823,49805,4
26825,49793,5
26833,49792,5
26838,49807,5
26829,49800,4
26835,49791,4
26833,49795,5
26826,49795,5
26828,49788,5
26821,49787,4
26825,49780,5
26823,49776,5
26817,49782,5
26819,49776,5
26820,49785,5
26820,49777,4
26817,49768,5
26828,49777,5
26824,49774,5
26825,49783,4
26815,49778,5
26821,49781,5
26809,49781,5
26822,49773,5
26821,49776,4
26823,49774,5
26826,49773,5
26794,49776,5
26823,49775,4
26821,49775,4
26813,49776,5
26767,49774,5
26819,49768,5
26816,49765,4
26811,49776,5
26761,49773,5
26807,49770,5
26815,49767,5
26815,49764,4
26835,49774,6
26809,49770,4
26812,49774,5
26821,49772,5
26870,49767,4
26814,49768,5
26812,49767,5
26817,49770,5
26876,49773,5
26817,49766,4
26820,49766,5
26815,49774,5
26838,49772,5
26816,49770,4
26813,49782,4
26825,49775,5
26822,49764,5
26819,49774,5
26817,49768,4
26816,49777,5
26825,49739,5
26821,49776,5
26816,49781,5
26823,49776,4
26815,49728,5
26818,49783,6
26827,49780,4
26823,49791,5
26826,49763,4
26826,49791,5
26827,49775,5
26821,49788,5
26824,49822,5
26828,49783,4
26823,49782,5
26830,49789,5
26828,49850,5
26827,49779,5
26825,49789,4
26830,49791,5
26831,49823,5
26825,49792,5
26834,49796,4
26821,49787,5
26828,49807,5
26831,49797,5
26820,49791,5
26830,49792,4
26831,49791,5
26828,49792,5
26831,49791,5
26837,49793,5
26833,49784,4
26823,49786,5
26832,49792,5
26835,49782,5
26823,49781,5
26831,49786,4
26821,49779,5
26825,49781,5
26832,49785,5
26825,49777,5
26819,49784,4
26823,49792,5
26833,49781,5
26821,49784,5
26831,49782,4
26816,49783,5
26827,49779,4
26828,49780,5
26828,49788,5
26828,49792,6
26830,49794,3
26838,49797,5
26824,49794,5
26831,49805,5
26837,49802,4
26833,49800,5
26841,49799,5
26835,49793,5
26834,49798,5
26835,49789,4
26824,49786,5
26819,49779,5
26825,49776,5
26822,49788,5
26828,49785,4
26817,49788,5
26825,49779,5
26825,49788,5
26828,49785,4
26812,49789,4
26823,49789,6
26833,49781,4
26829,49787,9
26820,49788,0
26828,49767,7
26824,49798,3
26834,49793,5
26830,49790,5
26832,49801,4
26824,49796,5
26830,49793,5
26825,49786,5
26829,49790,5
26825,49787,4
26831,49793,5
26831,49791,5
26832,49799,5
26833,49800,5
26834,49794,4
26831,49790,5
26830,49795,5
26845,49799,5
26833,49799,5
26845,49798,4
26843,49817,5
26838,49803,6
26843,49804,4
26839,49812,4
26841,49803,5
26839,49816,5
26840,49811,5
26850,49816,5
26841,49815,4
26822,49813,5
26840,49810,5
26843,49815,5
26842,49815,5
26802,49812,4
26848,49824,5
26848,49814,5
26850,49827,5
26799,49822,5
26846,49829,4
26846,49828,5
26843,49832,5
26848,49837,5
26859,49832,5
26851,49841,4
26856,49838,5
26912,49844,5
26869,49841,6
26854,49851,3
26866,49853,4
26918,49845,5
26857,49855,5
26860,49856,5
26872,49846,4
26884,49847,5
26859,49841,5
26867,49845,5
26867,49845,5
26870,49839,4
26862,49843,5
26857,49851,5
26864,49841,5
26862,49807,5
26865,49848,4
26865,49849,5
26868,49848,5
26867,49797,5
26864,49854,5
26867,49847,5
26863,49858,4
26868,49822,5
26864,49857,5
26865,49844,6
26863,49856,4
26862,49888,4
26859,49854,5
26863,49841,5
26871,49849,4
26863,49918,5
26870,49849,5
26866,49851,5
26870,49849,5
26866,49897,4
26871,49849,5
26862,49848,5
26863,49855,5
26874,49869,5
26868,49868,4
26876,49862,5
26876,49855,5
26877,49863,5
26874,49863,5
26876,49859,4
26877,49872,6
26884,49867,4
26876,49877,5
26878,49874,5
26881,49871,4
26873,49864,5
26868,49860,5
26869,49866,5
26865,49858,4
26864,49859,4
26870,49853,5
26868,49854,5
26874,49862,5
26879,49863,4
26871,49863,5
26873,49860,5
26874,49863,5
26870,49859,5
26869,49865,4
26875,49860,5
26878,49855,5
26873,49861,5
26869,49855,5
26876,49854,4
26864,49854,5
26873,49860,6
26875,49865,4
26871,49844,5
26871,49856,4
26873,49859,5
26880,49858,5
26867,49858,5
26870,49855,4
26874,49860,4
26869,49852,5
26874,49858,5
26872,49859,5
26874,49861,4
26875,49861,5
26874,49860,5
26873,49866,5
26874,49854,5
26871,49859,4
26868,49859,5
26874,49860,5
26878,49857,5
26876,49875,5
26864,49861,4
26880,49868,5
26877,49862,5
26884,49871,6
26882,49865,4
26870,49866,4
26874,49860,5
26879,49866,5
26880,49871,5
26875,49875,5
26875,49872,4
26881,49872,5
26880,49869,5
26878,49872,5
26885,49874,4
26883,49871,5
26882,49874,5
26879,49874,5
26876,49892,5
26888,49888,4
26886,49876,5
26877,49879,5
26881,49877,5
26878,49882,5
26892,49886,5
26893,49884,4
26892,49888,5
26880,49885,5
26888,49896,5
26886,49888,4
26888,49890,5
26851,49890,5
26890,49881,5
26878,49883,5
26890,49890,4
26837,49883,5
26888,49890,5
26888,49892,5
26893,49896,4
26880,49877,4
26890,49886,5
26886,49885,5
26891,49873,5
26924,49882,4
26885,49893,5
26883,49884,5
26879,49873,5
26948,49879,5
26885,49876,4
26882,49877,6
26886,49877,4
26918,49879,5
26884,49880,5
26885,49870,4
26886,49873,5
26889,49875,5
26880,49872,5
26882,49868,5
26886,49875,4
26888,49838,5
26882,49878,5
26878,49888,5
26885,49886,4
26886,49837,4
26885,49892,5
26889,49887,5
26884,49893,5
26890,49842,4
26887,49893,5
26884,49887,5
26891,49899,6
26893,49914,4
26882,49902,4
26887,49894,5
26884,49887,7
26891,49938,3
26885,49889,5
26884,49885,4
26889,49891,5
26889,49938,5
26888,49891,5
26887,49884,5
26885,49890,4
26876,49899,5
26875,49875,5
26869,49871,5
26873,49869,5
26864,49864,4
26867,49854,5
26851,49852,5
26854,49851,5
26858,49847,4
26851,49849,4
26845,49842,5
26857,49846,5
26851,49849,5
26853,49865,4
26857,49857,5
26857,49866,5
26859,49873,5
26859,49870,5
26862,49868,4
26875,49864,5
26870,49882,5
26864,49879,5
26876,49877,5
26874,49879,4
26869,49891,5
26878,49884,5
26881,49883,5
26877,49889,5
26889,49894,4
26888,49912,5
26884,49907,5
26895,49920,5
26895,49924,4
26893,49927,4
26903,49941,5
26905,49936,5
26907,49948,5
26900,49939,5
26908,49952,4
26916,49956,5
26912,49964,5
26917,49965,5
26923,49973,4
26927,49971,5
26917,49969,5
26922,49979,5
26929,49979,5
26923,49973,4
26930,49972,5
26930,49971,5
26931,49968,5
26930,49987,5
26929,49978,4
26937,49980,5
26933,49983,5
26929,49987,5
26932,49987,5
26935,49988,4
26932,49988,5
26944,49994,5
26940,49997,5
26947,50006,4
26941,50011,6
26943,50009,4
26951,50018,5
26953,50016,5
26951,50019,4
26943,50015,5
26946,50014,5
26950,50018,5
26941,50013,5
26944,50013,4
26958,50015,5
26956,50018,5
26952,50018,5
26954,50025,5
26952,50019,4
26953,50029,5
26957,50025,5
26962,50032,5
26963,50040,5
26956,50040,4
26966,50041,5
26964,50035,5
26960,50038,5
26924,50036,4
26959,50036,4
26966,50034,5
26974,50031,5
26912,50034,5
26959,50032,4
26962,50033,5
26967,50036,5
26926,50036,5
26963,50031,5
26960,50036,4
26959,50038,5
26994,50033,5
26959,50033,5
26968,50037,5
26958,50029,4
27013,50034,5
26950,50030,5
26951,50030,5
26963,50023,5
27006,50033,4
26963,50021,5
26963,50018,5
26955,50020,6
26967,50026,4
26963,50017,4
26963,50015,5
26950,50019,5
26956,49997,5
26962,50020,4
26957,50019,5
26961,50024,5
26947,49975,5
26955,50024,5
26959,50011,4
26948,50007,5
26954,49951,5
26947,50007,5
26951,50001,5
26944,49996,5
26935,49984,4
26940,49980,5
26932,49976,5
26935,49986,5
26927,50022,5
26933,49974,4
26929,49967,5
26934,49968,5
26931,50025,6
26919,49963,3
26933,49962,5
26926,49969,5
26936,49996,5
26943,49972,4
26940,49977,4
26934,49978,5
26935,49979,5
26940,49969,5
26935,49971,4
26929,49972,5
26922,49970,5
26933,49965,5
26918,49950,5
26925,49959,4
26923,49951,5
26914,49945,5
26916,49947,5
26913,49942,5
26913,49934,4
26915,49941,6
26916,49939,4
26905,49944,5
26918,49942,5
26912,49949,6
26913,49943,3
26911,49936,5
26916,49938,5
26912,49932,4
26904,49941,4
26903,49932,5
26911,49932,5
26912,49930,5
26891,49925,4
26902,49912,5
26887,49909,5
26893,49900,5
26882,49895,5
26882,49882,4
26879,49884,5
26869,49877,5
26879,49873,5
26873,49865,5
26868,49871,4
26866,49865,5
26871,49863,6
26862,49869,4
26872,49867,5
26870,49855,4
26864,49856,5
26856,49855,5
26851,49855,5
26855,49837,5
26853,49834,4
26842,49835,5
26833,49821,5
26840,49834,5
26841,49833,4
26850,49833,5
26856,49839,5
26853,49847,7
26860,49852,3
26865,49862,4
26860,49865,5
26865,49870,5
26865,49869,5
26872,49873,5
26872,49870,4
26865,49874,5
26870,49875,5
26866,49877,6
26865,49876,4
26865,49857,4
26861,49862,5
26853,49843,5
26848,49851,5
26857,49839,5
26850,49847,4
26852,49840,5
26844,49838,5
26851,49839,5
26843,49838,4
26845,49840,4
26850,49837,5
26843,49842,5
26844,49831,5
26852,49844,4
26851,49844,5
26830,49842,5
26848,49848,5
26842,49830,5
26841,49824,5
26789,49824,4
26833,49817,5
26826,49811,5
26828,49806,6
26780,49815,3
26832,49817,5
26833,49814,5
26829,49812,5
26841,49815,5
26829,49816,4
26824,49802,5
26836,49817,5
26875,49805,5
26834,49814,5
26839,49827,4
26840,49827,5
26901,49823,5
26842,49828,5
26844,49825,4
26842,49824,5
26865,49828,5
26842,49819,5
26836,49834,5
26847,49833,4
26852,49834,6
26844,49831,4
26840,49828,5
26840,49839,5
26836,49791,4
26832,49826,5
26830,49814,5
26829,49816,5
26834,49762,5
26827,49810,4
26832,49813,5
26836,49813,5
26838,49782,5
26836,49816,5
26839,49809,4
26834,49818,5
26819,49832,5
26831,49812,5
26826,49804,4
26829,49807,4
26829,49861,5
26827,49808,5
26816,49804,5
26820,49802,4
26825,49837,5
26817,49791,6
26817,49789,4
26810,49789,5
26813,49798,4
26807,49781,5
26821,49783,5
26820,49792,5
26824,49788,5
26813,49776,4
26803,49775,5
26802,49757,5
26805,49768,5
26805,49763,5
26802,49761,4
26793,49767,5
26791,49751,5
26802,49761,5
26799,49757,4
26791,49759,4
26795,49750,5
26797,49757,5
26790,49750,5
26798,49746,4
26796,49749,5
26784,49738,5
26789,49740,6
26787,49737,4
26795,49739,4
26791,49744,5
26794,49745,5
26787,49747,5
26793,49743,5
26793,49742,4
26793,49751,5
26797,49752,5
26794,49742,5
26794,49755,5
26789,49747,4
26797,49746,5
26797,49751,5
26797,49749,5
26800,49749,4
26793,49748,4
26789,49738,5
26790,49744,5
26791,49732,5
26787,49729,5
26785,49722,4
26777,49723,5
26770,49706,5
26763,49700,5
26768,49686,4
26765,49700,5
26757,49688,5
26751,49696,5
26764,49693,5
26760,49698,4
26770,49688,5
26757,49681,5
26759,49681,5
26753,49681,5
26755,49674,4
26751,49671,5
26752,49666,5
26741,49670,5
26755,49669,5
26745,49662,4
26740,49653,5
26745,49656,5
26755,49663,5
26744,49669,4
26734,49658,6
26745,49666,4
26749,49661,5
26747,49669,5
26742,49662,4
26743,49666,5
26753,49666,5
26742,49656,5
26744,49650,5
26743,49652,4
26743,49653,5
26734,49661,5
26749,49651,5
26723,49652,5
26738,49658,4
26738,49664,5
26741,49661,5
26688,49653,5
26742,49649,5
26734,49652,4
26737,49648,5
26685,49650,5
26728,49657,5
26737,49644,4
26739,49647,5
26733,49653,6
26743,49655,4
26739,49660,5
26745,49663,4
26781,49654,5
26742,49654,5
26742,49655,5
26742,49654,5
26801,49656,4
26736,49657,5
26745,49656,5
26733,49651,5
26768,49654,5
26731,49649,4
26734,49634,5
26731,49645,5
26737,49640,5
26731,49634,5
26733,49640,4
26733,49639,5
26731,49598,5
26726,49642,5
26720,49630,4
26727,49629,5
26735,49583,5
26730,49636,5
26727,49633,5
26724,49633,5
26731,49593,4
26724,49633,5
26727,49626,5
26722,49624,5
26717,49653,4
26729,49623,5
26723,49618,5
26723,49621,5
26718,49674,5
26716,49613,4
26713,49621,5
26721,49616,5
26719,49659,5
26713,49606,5
26709,49613,4
26711,49611,5
26709,49629,5
26713,49600,5
26709,49604,5
26712,49611,4
26707,49615,5
26715,49608,5
26706,49610,5
26722,49596,4
26710,49597,5
26707,49595,5
26704,49589,5
26704,49592,5
26703,49583,4
26702,49571,5
26696,49570,5
26688,49557,5
26686,49563,5
26678,49554,4
26685,49551,5
26682,49550,5
26683,49542,5
26676,49545,5
26666,49551,4
26673,49539,5
26671,49546,4
26674,49533,5
26669,49547,4
26669,49540,5
26661,49535,3
26679,49538,5
26661,49531,5
26663,49535,4
26661,49524,5
26665,49533,5
26669,49535,5
26659,49532,5
26663,49522,4
26661,49517,5
26656,49520,5
26657,49513,5
26666,49513,5
26655,49514,4
26647,49516,5
26645,49514,5
26654,49510,5
26654,49529,5
26654,49518,4
26655,49527,5
26665,49530,6
26660,49517,4
26653,49520,4
26656,49518,4
26655,49517,5
26654,49509,5
26663,49527,5
26661,49531,4
26659,49526,5
26656,49509,5
26652,49513,5
26647,49511,5
26653,49513,4
26653,49515,5
26658,49517,5
26654,49508,5
26658,49517,5
26654,49516,4
26657,49520,5
26650,49517,5
26643,49521,5
26652,49517,5
26660,49521,4
26655,49528,5
26662,49531,5
26666,49541,6
26669,49546,3
26676,49543,4
26686,49552,5
26672,49557,5
26671,49560,5
26684,49575,4
26676,49563,5
26679,49569,5
26685,49578,5
26697,49582,5
26686,49578,4
26651,49585,5
26697,49589,5
26702,49602,5
26708,49602,5
26658,49607,4
26710,49618,5
26717,49624,5
26720,49618,5
26692,49616,5
26720,49621,5
26714,49621,4
26718,49628,5
26749,49623,5
26717,49624,6
26717,49613,3
26715,49614,5
26773,49608,5
26710,49617,5
26707,49616,4
26711,49622,5
26752,49623,5
26721,49620,5
26718,49629,5
26720,49641,4
26740,49638,5
26731,49639,5
26725,49646,5
26736,49643,5
26738,49628,4
26747,49652,5
26734,49664,5
26742,49668,5
26741,49618,5
26744,49664,4
26760,49665,6
26756,49672,4
26754,49622,5
26752,49677,5
26757,49689,4
26766,49701,5
26770,49712,5
26775,49709,5
26773,49713,4
26775,49716,5
26783,49771,5
26782,49726,5
26778,49731,5
26794,49738,4
26803,49814,5
26797,49741,5
26799,49746,5
26796,49760,5
26799,49779,4
26805,49759,5
26813,49764,5
26806,49760,5
26810,49768,5
26816,49769,4
26814,49766,5
26819,49771,6
26823,49772,4
26813,49764,5
26818,49781,4
26821,49785,5
26814,49786,5
26829,49781,5
26830,49794,4
26830,49798,5
26831,49798,5
26834,49809,5
26842,49813,5
26847,49821,4
26845,49825,5
26846,49825,5
26854,49838,5
26853,49832,5
26856,49837,4
26859,49839,5
26857,49850,5
26861,49850,5
26869,49860,5
26869,49871,4
26885,49880,5
26885,49899,5
26899,49899,6
26889,49905,4
26895,49911,4
26896,49906,5
26901,49907,5
26896,49915,5
26900,49908,4
26890,49907,4
26906,49910,5
26900,49900,5
26909,49906,5
26906,49911,4
26901,49916,5
26900,49918,5
26907,49913,5
26906,49917,5
26911,49909,4
26894,49908,5
26903,49910,5
26908,49903,5
26898,49907,5
26907,49908,5
26898,49899,4
26893,49899,5
26892,49889,5
26893,49891,5
26888,49899,4
26885,49888,5
26889,49894,6
26889,49896,4
26892,49895,4
26892,49895,4
26889,49910,5
26897,49904,5
26899,49902,5
26896,49912,4
26908,49910,5
26902,49909,5
26898,49912,5
26903,49918,5
26905,49917,4
26905,49923,5
26911,49916,5
26904,49903,5
26901,49902,5
26893,49894,4
26896,49895,6
26898,49894,4
26892,49896,5
26894,49889,5
26885,49892,4
26899,49891,5
26889,49897,5
26863,49902,5
26900,49896,4
26899,49904,4
26903,49906,5
26850,49911,5
26908,49910,5
26906,49915,4
26916,49925,5
26857,49917,5
26911,49925,5
26910,49919,5
26902,49935,4
26932,49917,5
26915,49920,5
26911,49924,5
26905,49931,5
26964,49928,4
26916,49931,5
26917,49926,6
26911,49933,4
26973,49944,5
26921,49933,4
26925,49938,5
26924,49953,5
26942,49945,5
26931,49958,4
26927,49951,4
26929,49955,5
26936,49953,5
26943,49977,5
26943,49978,4
26941,49983,5
26940,49948,5
26943,49988,5
26946,49994,5
26951,50003,4
26945,49938,4
26944,49997,5
26955,49991,5
26958,49990,5
26963,49995,3
26960,49996,5
26965,50004,5
26962,50005,5
26954,50054,5
26956,50007,4
26964,50010,5
26965,50015,5
26959,50074,5
26963,50009,4
26967,50007,4
26966,50016,5
26965,50050,5
26966,50018,5
26971,50017,4
26972,50021,5
26971,50045,5
26968,50032,5
26975,50031,5
26975,50023,4
26968,50033,5
26978,50033,5
26979,50044,5
26975,50044,5
26980,50042,5
26986,50041,4
26985,50043,5
26980,50052,5
26990,50050,5
26980,50053,4
26980,50052,5
26985,50055,5
26981,50050,5
26993,50053,4
26987,50043,4
26985,50045,5
26987,50043,5
26981,50049,5
26988,50048,4
26983,50049,5
26974,50047,5
26983,50047,5
26981,50044,5
26984,50036,4
26987,50042,5
26979,50052,5
26981,50047,5
26998,50045,5
26978,50036,4
26982,50044,6
26986,50041,4
26980,50032,5
26975,50034,5
26973,50025,4
26974,50027,5
26965,50025,5
26962,50027,5
26972,50023,5
26970,50026,4
26967,50017,5
26966,50018,5
26968,50023,5
26979,50032,4
26980,50032,5
26981,50051,5
26982,50054,5
26988,50056,5
26985,50064,4
26992,50072,5
26990,50063,5
26994,50070,5
26996,50063,5
26999,50066,4
26993,50058,5
26995,50064,6
26989,50063,4
26991,50067,5
26989,50061,4
26992,50064,5
26996,50077,5
26995,50074,5
26993,50082,5
26995,50069,4
27005,50082,5
26999,50076,5
26993,50081,5
26994,50086,4
27007,50086,5
26999,50091,5
26993,50086,5
27006,50085,5
27001,50084,4
26997,50081,5
26996,50084,5
26990,50076,5
26999,50076,5
27001,50083,4
26970,50081,5
26996,50078,5
27001,50087,5
27000,50084,5
26949,50079,4
27004,50089,5
27002,50085,5
27000,50098,5
26954,50093,5
27003,50099,4
27002,50097,5
27007,50096,5
27016,50097,5
26999,50086,4
27004,50085,4
27005,50091,5
27060,50095,5
27004,50096,5
27004,50096,4
27004,50098,6
27055,50096,4
27008,50094,5
27004,50097,5
27012,50097,5
27028,50106,3
27014,50103,5
27011,50116,5
27007,50106,5
27013,50091,4
27021,50106,5
27016,50118,5
27015,50119,5
27017,50079,5
27019,50135,4
27024,50134,5
27026,50144,5
27024,50091,5
27026,50145,4
27031,50150,4
27031,50148,5
27032,50134,5
27035,50150,5
27033,50147,4
27038,50152,5
27032,50180,6
27040,50151,4
27033,50157,5
27035,50145,4
27038,50209,7
27026,50153,3
27039,50147,5
27038,50151,5
27037,50186,4
27038,50142,5
27038,50152,5
27039,50157,5
27036,50171,5
27035,50162,4
27037,50171,5
27048,50169,5
27043,50172,5
27049,50181,4
27049,50176,4
27043,50175,5
27048,50179,5
27050,50179,5
27044,50191,4
27058,50195,5
27056,50189,5
27048,50187,6
27053,50179,4
27050,50187,4
27045,50179,5
27039,50173,5
27042,50173,5
27031,50170,5
27033,50166,4
27040,50159,5
27040,50164,5
27043,50171,5
27032,50173,5
27044,50173,4
27042,50172,5
27035,50170,5
27037,50181,5
27036,50179,4
27042,50166,4
27041,50168,5
27044,50169,5
27043,50181,5
27044,50173,5
27046,50181,4
27045,50177,5
27052,50178,5
27041,50182,6
27053,50195,3
27044,50188,5
27058,50197,5
27057,50212,5
27062,50210,5
27066,50219,4
27069,50226,5
27069,50221,5
27063,50214,5
27068,50224,5
27073,50225,4
27061,50211,5
27064,50214,5
27062,50210,5
27059,50208,5
27056,50203,4
27055,50207,5
27057,50207,5
27061,50206,5
27054,50220,4
27062,50214,6
27067,50220,4
27061,50216,5
27056,50219,5
27063,50218,6
27065,50220,3
27067,50228,5
27059,50227,5
27068,50219,5
27066,50222,4
27069,50221,5
27062,50219,5
27066,50222,5
27069,50226,5
27062,50222,4
27057,50214,5
27072,50218,5
27059,50214,5
27051,50214,5
27062,50215,4
27058,50206,5
27047,50202,5
27036,50208,5
27049,50215,4
27069,50217,5
27064,50221,6
27019,50224,4
27062,50227,5
27061,50225,4
27066,50223,5
27009,50224,5
27055,50222,5
27059,50224,5
27063,50221,4
27064,50218,5
27058,50215,5
27051,50217,5
27058,50221,5
27095,50210,4
27041,50201,5
27049,50208,5
27053,50209,5
27118,50217,5
27054,50214,4
27060,50212,5
27055,50216,5
27085,50219,5
27062,50224,4
27063,50230,4
27061,50236,5
27063,50234,6
27066,50236,4
27057,50242,4
27058,50237,5
27068,50202,5
27075,50240,5
27070,50243,5
27077,50244,4
27072,50198,5
27081,50248,5
27073,50248,5
27073,50250,5
27073,50209,4
27075,50240,5
27074,50230,5
27076,50233,5
27085,50270,5
27077,50240,4
27070,50242,5
27075,50237,5
27069,50296,5
27071,50232,5
27072,50224,4
27075,50229,5
27066,50263,5
27073,50219,6
27063,50222,3
27068,50223,5
27068,50227,5
27070,50213,5
27064,50212,5
27061,50210,4
27061,50204,5
27062,50205,5
27057,50197,5
27062,50197,5
27057,50193,4
27053,50190,5
27051,50189,5
27041,50183,5
27045,50173,5
27038,50182,4
27041,50174,5
27043,50179,5
27042,50188,5
27050,50183,5
27047,50191,5
27043,50189,4
27050,50196,5
27062,50195,5
27056,50192,4
27057,50200,5
27063,50206,5
27062,50207,5
27057,50194,5
27060,50200,4
27057,50210,5
27055,50202,5
27061,50198,5
27054,50195,5
27055,50200,4
27057,50197,5
27053,50198,5
27054,50200,5
27055,50190,5
27054,50195,4
27048,50201,5
27052,50198,5
27052,50201,5
27056,50193,5
27053,50201,4
27059,50202,6
27060,50197,4
27059,50192,5
27062,50201,4
27053,50198,4
27057,50198,5
27058,50196,5
27051,50203,5
27057,50195,4
27057,50187,5
27049,50194,5
27047,50189,5
27060,50196,5
27049,50190,4
27058,50188,5
27044,50190,5
27051,50183,5
27052,50189,5
27050,50190,4
27052,50187,8
27061,50178,2
27073,50193,5
27048,50183,5
27050,50175,4
27045,50176,5
27044,50172,6
27048,50174,4
27045,50177,4
27040,50173,4
27046,50166,5
27040,50164,5
27046,50174,5
27044,50171,4
27040,50169,5
27043,50172,5
27041,50176,5
27043,50163,5
27043,50173,4
27040,50172,5
27049,50177,5
27050,50175,5
27052,50172,5
27016,50175,4
27043,50188,5
27046,50182,5
27047,50179,5
26983,50178,5
27042,50180,4
27042,50171,5
27043,50172,5
27015,50174,5
27038,50164,5
27047,50169,4
27046,50170,5
27064,50179,5
27038,50171,5
27044,50174,4
27045,50180,4
27095,50174,5
27053,50179,5
27039,50176,5
27046,50181,4
27087,50173,5
27043,50165,5
27038,50175,5
27053,50162,5
27053,50163,4
27041,50173,5
27037,50170,5
27047,50176,5
27041,50150,5
27045,50166,5
27042,50167,4
27038,50159,5
27041,50120,5
27028,50161,5
27036,50163,4
27036,50154,5
27030,50098,5
27036,50155,5
27028,50161,4
27035,50157,5
27035,50159,4
27039,50154,5
27037,50159,5
27043,50161,4
27032,50217,5
27046,50166,5
27046,50170,5
27045,50175,5
27045,50237,4
27038,50169,5
27037,50168,5
27032,50156,5
27035,50186,5
27029,50160,4
27037,50152,6
27030,50153,4
27031,50153,5
27039,50148,5
27037,50150,4
27038,50153,5
27037,50155,5
27025,50153,5
27039,50150,5
27027,50161,4
27038,50158,5
27032,50157,5
27040,50156,5
27041,50156,4
27034,50165,5
27032,50159,5
27045,50152,5
27036,50154,5
27036,50150,4
27032,50155,5
27032,50158,5
27031,50143,5
27026,50157,5
27035,50155,4
27028,50158,5
27034,50152,5
27023,50148,5
27033,50146,5
27038,50145,4
27031,50155,5
27032,50147,5
27037,50155,5
27028,50141,5
27029,50147,4
27029,50143,5
27030,50143,5
27030,50143,5
27032,50153,4
27030,50151,4
27024,50146,5
27024,50141,5
27025,50139,5
27024,50146,4
27031,50137,4
27018,50128,5
27021,50132,5
27016,50133,5
27026,50131,3
27027,50134,5
27028,50126,5
27028,50137,5
27016,50146,5
27028,50148,4
27019,50147,5
27033,50153,5
27034,50143,5
27027,50150,5
27034,50151,4
27027,50148,5
27032,50156,5
27024,50149,5
27030,50151,4
27037,50159,4
27029,50148,5
27033,50148,5
27032,50144,5
27032,50140,4
27032,50153,6
27029,50143,4
27028,50144,5
27026,50140,5
27020,50140,6
27027,50133,3
27024,50134,5
27018,50128,5
27014,50124,5
27018,50117,4
27013,50117,5
27023,50127,5
27016,50128,5
27014,50120,5
27025,50122,4
27028,50128,5
26997,50125,5
27014,50123,5
27022,50124,5
27024,50127,4
26976,50132,5
27018,50120,5
27026,50121,5
27023,50112,4
26963,50116,4
27017,50114,6
27013,50100,4
27007,50098,5
26994,50094,4
26998,50087,7
27006,50096,3
27005,50092,5
27044,50092,5
26998,50098,4
27001,50095,5
27006,50091,5
27066,50086,5
26997,50079,5
26991,50079,4
27002,50081,5
27020,50082,5
26994,50077,5
26992,50070,5
26985,50068,4
26990,50064,5
26985,50063,5
26989,50060,5
26984,50066,4
26974,50024,4
26990,50058,5
26982,50053,6
26984,50049,4
26978,50008,4
26981,50048,5
26984,50056,5
26974,50054,5
26982,50006,5
26978,50051,4
26977,50054,5
26973,50052,5
26973,50072,5
26974,50050,5
26974,50054,4
26977,50045,5
26970,50102,5
26970,50046,5
26973,50045,5
26974,50042,4
26966,50097,5
26971,50042,5
26976,50050,5
26979,50046,5
26976,50075,4
26977,50045,5
26970,50044,5
26973,50033,6
26957,50034,3
26961,50017,4
26942,50008,5
26944,49993,5
26936,49980,5
26934,49981,4
26925,49977,5
26926,49965,5
26927,49966,5
26924,49973,5
26925,49974,4
26939,49993,5
26943,49998,5
26950,50020,5
26961,50023,5
26959,50036,4
26972,50046,5
26968,50035,5
26972,50032,5
26967,50024,5
26958,50028,5
26954,50017,4
26953,50022,5
26949,49997,5
26934,49986,6
26929,49969,3
26930,49968,5
26926,49957,5
26913,49959,5
26917,49952,4
26928,49960,5
26924,49967,5
26928,49975,5
26938,49982,5
26937,49976,4
26934,49986,5
26930,49988,5
26938,49986,5
26944,49989,5
26930,49977,4
26934,49983,5
26934,49985,5
26938,49976,5
26940,49976,5
26929,49983,4
26929,49980,6
26932,49968,4
26924,49959,5
26909,49949,5
26912,49945,4
26901,49929,5
26898,49928,5
26905,49924,5
26896,49928,4
26894,49924,5
26903,49922,5
26896,49925,5
26900,49919,5
26888,49924,4
26906,49918,5
26900,49919,5
26899,49914,5
26896,49903,5
26891,49904,4
26895,49896,5
26890,49898,5
26893,49902,5
26892,49912,5
26897,49898,4
26895,49910,5
26896,49899,6
26893,49913,4
26894,49904,5
26894,49915,4
26893,49915,5
26891,49910,5
26888,49913,5
26894,49918,4
26901,49918,4
26904,49910,5
26903,49914,5
26877,49917,5
26903,49914,4
26897,49918,5
26898,49915,5
26843,49913,5
26900,49918,5
26898,49925,4
26897,49929,5
26846,49923,5
26910,49928,5
26903,49923,5
26902,49924,4
26912,49934,5
26910,49938,5
26906,49929,6
26907,49932,4
26961,49921,4
26904,49927,5
26909,49931,5
26904,49927,5
26960,49943,4
26913,49943,4
26907,49936,5
26910,49944,5
26938,49933,5
26908,49927,4
26908,49930,5
26904,49928,5
26904,49922,5
26903,49926,5
26901,49919,4
26902,49936,5
26905,49888,5
26909,49929,5
26900,49926,5
26910,49933,5
26914,49864,4
26904,49925,5
26901,49925,5
26892,49919,5
26899,49892,4
26894,49920,5
26893,49921,5
26895,49926,5
26900,49946,5
26895,49922,4
26905,49920,5
26913,49923,5
26907,49978,5
26901,49933,4
26898,49943,4
26908,49946,5
26910,49982,5
26910,49932,5
26907,49934,4
26911,49937,5
26912,49956,5
26906,49938,5
26917,49943,5
26910,49947,4
26915,49950,6
26917,49956,4
26918,49957,5
26924,49961,5
26931,49959,4
26928,49963,5
26929,49967,5
26931,49965,5
26924,49965,5
26928,49969,4
26928,49974,5
26924,49966,5
26925,49974,5
26932,49975,4
26927,49974,4
26932,49969,5
26932,49979,5
26935,49973,5
26936,49976,4
26934,49973,5
26928,49988,5
26936,49993,5
26946,49993,5
26941,49991,4
26946,50001,5
26951,50010,6
26953,50005,4
26951,49997,5
26946,50001,4
26957,50008,5
26958,50003,5
26955,50016,5
26958,50022,5
26967,50010,4
26964,50013,5
26959,50020,5
26970,50020,5
26962,50024,5
26965,50022,4
26973,50028,5
26959,50023,5
26959,50027,5
26964,50025,4
26971,50029,5
26970,50026,5
26969,50035,5
26963,50026,5
26970,50032,4
26962,50029,5
26973,50037,5
26970,50027,5
26967,50037,5
26967,50044,4
26976,50046,5
26977,50042,5
26974,50049,5
26974,50051,5
26976,50050,5
26979,50059,4
26984,50055,5
26982,50050,5
26979,50053,5
26983,50051,4
26987,50047,5
26989,50042,5
26984,50047,5
26984,50044,4
26976,50051,4
26992,50058,5
26980,50053,5
26987,50054,5
26988,50057,5
26987,50054,4
26983,50054,5
26982,50054,5
26984,50046,5
26982,50052,4
26975,50047,5
26985,50049,5
26988,50043,5
26982,50044,5
26955,50051,4
26980,50054,5
26987,50048,5
26979,50050,5
26929,50039,5
26985,50039,4
26982,50038,5
26979,50036,5
26953,50041,5
26981,50046,5
26979,50044,4
26984,50048,6
27010,50041,4
26983,50049,5
26986,50063,4
26980,50054,6
27044,50057,4
26985,50067,5
26996,50068,5
26993,50069,4
27043,50074,5
26996,50065,5
27003,50079,5
26989,50070,5
27006,50065,4
26991,50068,5
26987,50061,5
26982,50059,5
26991,50051,5
26993,50063,4
26990,50061,5
26988,50067,5
26992,50020,5
26987,50066,5
26985,50070,4
26986,50063,5
26989,50001,5
26980,50053,4
26983,50062,4
26990,50073,5
26985,50057,4
26982,50057,5
26994,50062,5
26986,50054,4
26993,50108,5
26991,50061,5
26985,50058,5
26992,50060,5
26993,50121,4
26988,50065,5
26983,50056,5
26986,50059,5
26988,50090,5
26989,50055,4
26988,50058,5
26989,50059,5
26985,50064,5
26985,50067,5
26991,50068,4
26991,50066,5
26996,50063,5
26989,50073,6
26995,50068,4
26989,50071,4
26989,50070,5
26999,50069,5
26998,50072,5
26999,50070,4
27008,50071,5
26994,50078,5
26993,50079,5
27008,50070,5
27002,50070,4
26997,50071,5
27002,50079,5
27002,50079,5
27002,50083,5
27006,50080,4
27005,50088,5
27005,50087,5
27009,50084,5
27003,50082,5
27008,50083,5
27008,50087,4
27009,50078,5
27008,50088,5
27006,50089,6
27006,50090,3
27006,50084,5
27010,50095,5
27013,50091,5
27009,50092,4
27017,50089,4
27010,50104,5
27014,50096,5
27015,50094,5
27021,50103,4
27022,50105,5
27018,50108,5
27013,50115,5
27017,50124,5
27023,50106,4
27014,50108,5
27016,50113,5
27021,50113,5
27020,50110,5
27023,50106,4
27015,50111,6
27020,50116,4
27021,50115,5
27032,50111,5
27019,50104,6
27017,50114,3
27023,50108,5
27017,50112,5
27017,50109,4
27019,50104,4
27012,50109,5
27021,50114,5
27020,50106,5
27015,50105,4
27011,50112,5
27024,50112,5
27014,50111,5
27021,50121,5
27026,50104,4
27022,50111,5
27012,50109,5
27025,50107,5
27011,50109,5
27018,50106,4
27011,50099,5
27002,50094,6
27008,50097,4
27009,50093,5
27000,50089,4
27004,50087,5
26973,50091,5
26999,50085,5
26998,50084,5
27001,50079,4
26949,50079,5
26994,50088,5
27003,50086,5
27013,50101,4
26952,50095,4
27007,50099,5
27015,50111,5
27020,50104,5
27025,50108,4
27028,50112,5
27022,50112,5
27026,50111,5
27067,50109,5
27016,50113,4
27017,50097,5
27023,50102,5
27072,50101,6
27017,50107,4
27014,50110,4
27012,50110,5
27038,50110,5
27017,50102,5
27013,50105,5
27017,50111,4
27015,50114,5
27024,50113,5
27013,50117,5
27009,50120,4
27022,50080,4
27020,50124,5
27021,50126,5
27028,50118,5
27018,50062,4
27018,50110,5
27015,50112,5
27017,50107,5
27021,50072,5
27010,50122,5
27019,50117,4
27017,50112,5
27018,50137,5
27023,50121,6
27023,50122,3
27020,50116,5
27019,50181,5
27019,50124,5
27015,50120,5
27026,50129,4
27018,50175,5
27020,50123,5
27016,50132,5
27022,50126,5
27020,50142,4
27014,50121,5
27019,50115,5
27022,50125,5
27023,50129,4
27022,50117,4
27027,50123,5
27021,50118,5
27022,50118,5
27018,50119,4
27018,50120,6
27019,50122,4
27015,50117,5
27021,50126,5
27021,50120,4
27031,50126,5
27015,50120,5
27022,50123,5
27025,50133,5
27021,50128,4
27026,50132,5
27027,50135,5
27030,50125,5
27026,50132,5
27031,50130,4
27035,50130,5
27032,50139,5
27034,50133,5
27038,50136,4
27033,50130,4
27036,50141,5
27029,50148,5
27036,50135,5
27030,50138,4
27028,50142,5
27030,50128,6
27025,50132,4
27028,50135,5
27031,50135,4
27032,50132,5
27025,50128,5
27024,50144,5
27031,50141,5
27028,50140,4
27023,50137,5
27028,50127,5
27029,50131,5
27025,50133,5
27028,50132,4
27033,50132,5
27031,50128,5
27018,50135,5
27030,50139,5
27024,50131,4
27025,50144,5
27031,50146,5
27030,50152,5
27045,50153,4
27029,50155,4
27035,50142,5
27033,50149,6
27023,50147,4
27025,50144,4
27029,50145,5
27024,50141,5
27031,50148,5
27022,50149,5
27028,50142,4
27026,50142,5
27024,50148,5
27027,50150,5
27036,50150,5
27036,50159,4
27042,50170,5
27041,50169,5
27051,50182,5
27051,50188,5
27041,50186,4
27046,50186,5
27059,50196,5
27055,50188,5
27040,50192,5
27043,50184,4
27031,50168,5
27031,50167,5
26978,50150,5
27017,50135,4
27025,50137,5
27006,50140,5
26961,50126,5
27003,50128,5
27005,50127,4
27003,50122,5
26980,50129,5
27012,50127,5
27010,50137,5
27005,50138,4
27046,50142,5
27023,50146,5
27024,50150,5
27024,50154,5
27086,50154,4
27023,50165,5
27034,50175,5
27038,50179,5
27086,50177,5
27042,50180,5
27039,50188,4
27046,50190,5
27058,50200,5
27047,50188,4
27049,50196,5
27050,50186,5
27051,50170,5
27046,50184,5
27048,50196,4
27050,50204,5
27042,50154,5
27044,50188,5
27050,50193,5
27042,50196,4
27040,50139,4
27044,50193,5
27043,50195,5
27050,50185,5
27043,50194,4
27040,50194,5
27044,50191,5
27044,50190,5
27041,50243,5
27038,50193,4
27047,50187,6
27041,50189,4
27045,50256,5
27048,50198,4
27045,50190,4
27048,50207,5
27046,50223,5
27049,50199,5
27053,50204,4
27053,50201,5
27048,50202,5
27053,50207,5
27051,50209,5
27053,50210,4
27061,50219,5
27063,50217,5
27064,50217,5
27055,50217,5
27063,50220,4
27068,50215,5
27062,50216,5
27058,50217,5
27062,50221,5
27055,50210,4
27058,50222,5
27055,50220,5
27061,50219,5
27058,50217,4
27057,50221,4
27060,50210,5
27057,50217,5
27051,50215,5
27058,50209,4
27056,50199,5
27059,50207,5
27061,50214,5
27053,50212,5
27048,50200,4
27058,50209,5
27054,50201,5
27051,50201,5
27058,50204,5
27051,50195,4
27043,50184,5
27035,50186,5
27037,50185,5
27029,50175,5
27042,50179,4
27034,50171,5
27032,50169,5
27029,50163,5
27034,50170,5
27033,50170,4
27033,50170,5
27036,50181,5
27033,50190,5
27039,50183,4
27034,50191,5
27046,50190,5
27037,50194,5
27052,50201,5
27054,50197,4
27056,50190,5
27049,50202,5
27050,50203,5
27050,50201,5
27051,50198,4
27049,50198,6
27042,50187,4
27044,50192,8
27044,50194,2
27031,50189,6
27050,50200,3
27054,50191,5
27046,50195,5
27052,50198,5
27054,50188,4
27058,50192,5
27051,50196,5
27056,50199,5
27057,50194,4
27051,50196,4
27055,50200,5
27056,50199,5
27049,50201,5
27056,50201,4
27054,50201,5
27051,50190,5
27057,50190,5
27051,50190,5
27043,50187,4
27015,50185,5
27038,50173,6
27041,50183,4
27044,50174,5
26987,50158,4
27035,50167,5
27027,50163,5
27042,50159,5
26977,50156,5
27024,50153,4
27028,50151,5
27022,50148,5
27046,50142,5
27022,50135,4
27025,50134,4
27017,50134,5
27073,50134,5
27023,50141,5
27013,50126,4
27020,50126,5
27060,50116,5
27008,50120,5
27011,50113,5
27010,50114,4
27023,50118,5
27010,50116,5
27017,50118,6
27008,50118,4
27007,50093,4
27020,50120,5
27021,50120,5
27016,50115,5
27017,50072,5
27017,50119,4
27015,50119,5
27019,50116,5
27021,50060,5
27014,50118,4
27020,50115,4
27017,50116,5
27019,50117,5
27016,50115,5
27020,50114,4
27003,50105,5
27004,50162,5
27010,50114,5
27016,50116,5
27011,50119,5
27009,50183,4
27006,50114,5
27010,50107,5
27015,50115,6
27008,50142,3
27003,50114,5
27006,50109,5
27007,50107,5
27001,50108,5
27011,50105,4
27006,50095,5
27009,50103,5
27004,50107,5
27000,50088,4
27010,50100,4
27010,50096,5
27012,50099,5
27009,50095,5
27013,50110,4
27012,50110,5
27010,50110,5
27010,50113,5
27009,50108,5
27017,50120,4
27007,50112,6
27017,50114,4
27020,50112,5
27018,50110,5
27004,50107,4
27013,50103,5
27012,50101,5
27012,50095,5
27002,50108,5
27012,50102,4
27000,50093,5
27006,50103,5
27003,50104,5
27004,50102,4
27000,50103,4
27007,50097,5
27004,50100,5
27003,50093,5
27006,50099,4
27005,50101,5
26999,50094,5
27001,50094,5
26996,50095,5
27004,50092,4
26997,50087,5
26993,50091,6
27000,50090,4
26993,50093,5
26993,50083,4
27000,50080,5
26997,50083,5
26996,50084,5
26992,50088,5
27000,50081,4
26993,50076,5
26994,50077,5
26994,50076,5
26990,50077,4
26993,50079,4
26992,50074,5
26991,50068,5
26988,50082,5
26992,50072,4
26994,50088,5
26997,50090,5
26996,50077,5
26993,50074,5
26999,50075,4
26993,50071,5
26994,50066,5
26983,50076,6
26987,50071,4
26990,50074,4
26990,50064,5
27001,50076,5
26988,50081,5
27005,50086,5
26995,50084,4
26996,50081,5
26998,50083,5
26998,50080,5
27004,50082,4
27000,50087,4
27004,50085,5
26993,50088,5
26958,50088,5
27000,50091,4
27005,50086,5
27004,50085,5
26952,50082,5
26998,50094,5
27013,50089,5
27008,50092,4
26966,50088,5
27006,50088,5
27001,50091,6
26999,50082,3
27026,50077,5
26992,50080,5
26995,50087,5
26990,50069,5
27043,50082,4
26990,50078,5
26997,50075,5
26992,50066,5
27031,50059,4
26992,50065,4
26989,50064,5
26986,50057,5
26989,50054,5
26981,50055,4
26974,50039,5
26977,50047,5
26971,50015,5
26974,50042,5
26960,50032,4
26965,50033,6
26974,49988,4
26970,50041,5
26977,50047,5
26979,50048,4
26982,50000,4
26975,50045,5
26985,50054,5
26980,50054,5
26984,50061,4
26980,50055,5
26972,50059,5
26971,50043,5
26974,50101,4
26976,50044,4
26976,50051,5
26974,50047,5
26982,50122,5
26978,50049,4
26975,50054,5
26982,50053,5
26979,50077,5
26973,50052,5
26986,50048,4
26973,50047,5
26974,50051,6
26977,50047,4
26969,50036,5
26975,50048,4
26972,50047,5
26972,50044,5
26967,50049,5
26979,50052,5
26974,50048,4
26975,50052,5
26971,50043,5
26972,50039,5
26970,50037,4
26978,50052,4
26975,50050,5
26981,50054,5
26975,50049,5
26972,50044,4
26972,50035,5
26976,50042,5
26974,50045,5
26978,50033,5
26975,50034,4
26969,50045,5
26969,50040,5
26969,50043,5
26963,50040,5
26974,50051,4
26970,50033,5
26969,50037,5
26970,50037,5
26972,50033,5
26972,50043,4
26966,50033,5
26967,50036,5
26969,50034,5
26969,50036,4
26979,50038,4
26967,50036,5
26972,50039,5
26962,50038,5
26971,50044,4
26978,50043,5
26972,50036,5
26961,50036,5
26967,50042,5
26972,50035,5
26965,50038,4
26965,50025,5
26963,50036,5
26955,50031,5
26951,50024,4
26960,50023,5
26956,50026,5
26951,50013,5
26949,50006,5
26955,50006,4
26952,49992,5
26950,49992,5
26939,49991,5
26935,49987,4
26935,49980,4
26932,49988,5
26940,49978,5
26944,49993,5
26946,49993,4
26950,50003,5
26951,50009,5
26946,50011,5
26952,50014,5
26950,50012,4
26965,50013,6
26949,50019,4
26957,50014,5
26947,50006,5
26943,50006,4
26941,49996,5
26925,49990,5
26935,49970,5
26927,49959,5
26920,49964,4
26872,49948,5
26906,49944,5
26910,49942,5
26910,49927,4
26849,49939,4
26907,49939,5
26906,49925,5
26901,49933,5
26899,49932,4
26913,49945,5
26914,49938,5
26904,49933,6
26940,49936,4
26911,49934,4
26908,49937,5
26908,49936,6
26963,49939,4
26903,49933,5
26902,49934,4
26899,49935,5
26938,49928,5
26901,49920,5
26894,49918,5
26893,49916,4
26899,49907,5
26884,49915,5
26890,49910,5
26896,49912,4
26894,49878,4
26891,49908,5
26889,49900,5
26885,49905,5
26891,49858,4
26885,49905,5
26879,49906,5
26886,49889,5
26875,49836,5
26883,49890,4
26877,49895,5
26885,49896,5
26875,49912,5
26879,49891,5
26891,49894,4
26876,49876,5
26873,49930,5
26867,49878,5
26860,49873,5
26873,49875,4
26866,49929,5
26866,49877,5
26869,49880,5
26869,49878,5
26865,49903,4
26866,49883,5
26871,49878,5
26870,49878,5
26863,49874,4
26860,49869,6
26868,49865,4
26864,49863,5
26867,49861,5
26869,49858,6
26861,49861,3
26859,49854,5
26865,49845,5
26860,49848,5
26858,49859,4
26860,49860,5
26858,49848,5
26860,49857,5
26857,49854,5
26858,49846,4
26852,49852,5
26858,49847,5
26850,49853,5
26859,49857,5
26863,49854,4
26864,49866,5
26867,49863,5
26868,49860,5
26863,49862,4
26866,49861,5
26867,49870,6
26871,49870,4
26868,49869,5
26872,49868,4
26865,49865,7
26867,49866,3
26877,49864,5
26861,49869,5
26865,49861,4
26865,49862,5
26871,49864,5
26863,49868,5
26862,49854,5
26863,49865,4
26860,49852,5
26854,49851,5
26852,49851,5
26863,49854,5
26852,49853,4
26859,49852,5
26855,49849,5
26857,49853,5
26855,49852,4
26845,49847,5
26847,49842,5
26838,49837,6
26839,49832,4
26846,49831,4
26837,49826,5
26833,49826,5
26831,49830,5
26841,49817,5
26823,49802,4
26825,49802,5
26814,49792,5
26818,49793,5
26827,49790,5
26816,49794,4
26821,49801,5
26827,49789,5
26811,49798,6
26829,49807,4
26816,49800,4
26824,49802,5
26823,49808,5
26824,49804,5
26825,49813,5
26827,49818,4
26837,49840,5
26857,49869,5
26864,49888,6
26857,49887,3
26880,49905,5
26889,49920,5
26884,49923,5
26839,49924,5
26888,49924,4
26885,49924,5
26889,49924,5
26845,49939,5
26906,49955,5
26910,49957,4
26906,49952,5
26893,49963,5
26915,49972,5
26923,49967,5
26917,49968,4
26966,49979,5
26928,49981,5
26924,49975,5
26925,49974,4
26976,49962,5
26916,49963,4
26905,49961,5
26919,49976,5
26967,49996,6
26931,50005,3
26939,50000,5
26935,50003,5
26946,50003,5
26929,50006,4
26942,50013,5
26939,50026,5
26957,50003,5
26958,50039,5
26971,50050,4
26969,50068,5
26989,50032,5
26988,50083,5
26995,50093,5
27003,50098,4
27005,50043,5
27000,50095,5
27007,50097,5
27001,50109,5
26997,50125,4
27003,50101,6
27004,50102,4
27002,50093,5
26998,50150,4
27005,50095,5
27003,50097,5
27007,50099,5
26999,50156,5
27007,50105,4
27005,50109,5
27005,50109,5
27019,50140,5
27015,50134,5
27022,50132,4
27029,50134,5
27027,50140,5
27029,50144,5
27040,50147,5
27043,50154,4
27028,50153,5
27038,50154,5
27039,50151,5
27036,50155,4
27032,50144,4
27029,50156,5
27030,50161,6
27040,50146,4
27050,50160,4
27042,50159,5
27037,50177,5
27053,50178,5
27050,50178,5
27046,50182,4
27049,50182,5
27048,50179,5
27048,50189,5
27055,50186,5
27044,50179,4
27052,50170,5
27048,50188,5
27043,50169,5
27043,50182,5
27054,50169,4
27043,50171,5
27044,50165,5
27037,50160,5
27038,50158,5
27033,50162,4
27041,50153,5
27031,50146,5
27030,50155,6
27034,50150,3
27033,50148,5
27036,50159,5
27041,50161,5
27039,50162,5
27036,50152,4
27037,50156,5
27046,50162,5
27036,50146,5
27030,50151,5
27033,50148,4
27034,50135,5
27025,50142,5
27034,50148,5
27029,50143,5
27026,50141,4
27027,50144,5
27029,50137,5
27029,50133,5
27031,50138,4
27023,50132,5
27021,50138,4
27028,50138,5
27033,50136,5
27030,50135,4
27029,50145,5
27033,50139,5
27025,50143,5
27036,50143,5
27038,50145,4
27032,50155,5
27041,50151,5
27039,50149,5
27031,50157,5
27037,50155,4
27032,50157,5
27047,50153,5
27041,50166,5
27035,50164,5
27044,50168,4
27041,50160,5
27038,50171,5
27040,50155,5
27044,50164,4
27044,50158,4
26993,50159,6
27042,50161,4
27040,50159,5
27041,50152,4
26984,50150,5
27037,50158,5
27036,50152,5
27044,50160,5
27013,50151,4
27027,50147,5
27036,50153,5
27036,50153,5
27071,50151,5
27034,50145,4
27040,50153,5
27030,50152,5
27096,50142,5
27034,50145,5
27028,50148,4
27024,50144,5
27072,50145,5
27033,50144,5
27034,50146,5
27027,50147,4
27047,50147,5
27037,50136,6
27031,50145,4
27033,50138,4
27038,50105,5
27029,50141,5
27032,50152,5
27031,50150,5
27023,50092,4
27038,50143,5
27027,50142,5
27027,50136,5
27023,50082,5
27038,50146,4
27029,50140,5
27022,50135,5
27029,50156,5
27029,50133,5
27031,50141,4
27025,50128,5
27022,50185,5
27016,50122,5
27021,50119,5
27019,50124,4
27011,50169,5
27013,50113,5
27009,50101,5
27008,50096,4
27007,50106,5
27000,50095,5
27006,50096,5
27004,50098,5
26995,50100,4
27005,50095,5
27004,50110,5
27011,50104,5
27016,50113,5
27011,50113,4
27015,50114,5
27024,50123,5
27022,50126,5
27032,50130,5
27020,50119,4
27022,50125,5
27023,50122,5
27017,50124,5
27017,50127,5
27033,50127,5
27015,50126,4
27018,50130,5
27015,50128,5
27018,50125,4
27020,50124,4
27021,50118,5
27018,50122,5
27018,50126,5
27013,50125,4
27018,50120,5
27015,50111,5
27021,50117,5
27017,50118,5
27015,50115,4
27013,50121,5
27015,50122,5
27019,50126,5
27024,50123,5
27019,50116,4
27020,50119,5
27020,50127,5
27015,50125,5
27022,50132,5
27024,50124,4
27021,50125,6
27021,50120,4
27017,50128,5
27024,50137,4
27024,50133,4
27023,50131,5
27035,50136,5
27021,50130,5
27014,50128,4
27020,50125,5
27018,50128,5
27019,50123,5
27014,50122,5
27012,50122,4
27014,50120,5
27017,50113,5
27014,50113,5
27006,50112,5
27016,50118,4
27012,50110,5
27008,50105,5
27010,50099,5
27010,50112,5
27010,50095,4
27021,50103,5
27003,50103,5
27006,50105,5
27009,50104,4
27003,50099,4
27007,50095,5
27006,50108,5
27010,50107,5
27011,50112,4
27012,50109,5
27002,50115,5
27005,50110,5
27016,50107,5
27002,50111,4
27014,50113,5
27013,50112,5
27012,50122,5
26968,50116,5
27003,50109,5
27010,50113,4
27014,50116,5
26964,50126,5
27019,50127,6
27018,50123,3
27016,50122,5
26992,50124,5
27017,50128,5
27011,50124,5
27008,50124,4
27052,50116,5
27015,50123,5
27010,50116,5
27013,50113,4
27067,50110,5
27002,50103,5
27007,50107,5
27004,50112,5
27039,50096,4
27002,50105,5
27005,50113,5
27009,50115,5
27011,50106,5
27009,50123,4
27009,50112,6
27009,50110,4
27005,50094,5
26998,50108,5
27000,50113,6
27003,50114,3
26994,50053,5
26996,50103,5
26992,50097,5
26994,50098,4
26992,50044,5
26992,50084,5
26978,50068,5
26966,50047,5
26970,50069,4
26955,50037,5
26957,50035,5
26953,50021,5
26948,50073,4
26938,50008,5
26944,50004,5
26936,50001,5
26940,50052,5
26937,50009,4
26940,50011,5
26945,50016,6
26941,50036,4
26942,50015,5
26943,50001,4
26938,50005,5
26936,50011,5
26936,49998,5
26940,50000,5
26936,50000,4
26943,50010,5
26934,50013,5
26943,50016,5
26949,50025,4
26950,50031,4
26950,50034,5
26950,50039,5
26960,50036,5
26953,50047,4
26971,50046,5
26959,50048,5
26960,50057,5
26970,50060,5
26970,50060,4
26971,50066,5
26971,50066,5
26973,50070,6
26973,50067,4
26976,50077,4
26972,50064,5
26977,50077,5
26974,50078,5
26980,50072,5
26975,50068,4
26973,50073,5
26978,50073,5
26980,50082,5
26973,50089,4
26977,50091,4
26984,50099,5
26985,50101,5
26990,50107,5
26994,50118,4
26997,50120,5
27003,50139,5
27002,50128,5
27000,50129,5
27017,50125,5
27004,50134,4
27002,50135,5
27009,50138,5
27011,50132,6
27008,50140,3
27010,50144,5
27010,50137,5
27014,50147,5
27013,50146,5
27014,50148,4
27013,50140,5
27009,50148,5
27009,50148,5
27017,50132,4
27015,50145,4
27020,50149,5
27015,50146,5
27018,50148,5
27016,50149,4
27023,50146,5
27013,50152,5
27017,50167,5
27024,50155,5
27018,50162,4
27020,50155,6
27027,50166,4
27030,50171,5
27030,50170,5
27032,50162,4
27031,50171,5
27027,50181,9
27028,50179,1
27033,50195,5
27040,50184,4
27040,50181,5
27028,50179,5
27038,50183,5
27042,50182,5
27041,50179,4
26996,50186,5
27036,50180,5
27038,50186,5
27035,50191,4
26984,50190,5
27045,50181,5
27044,50195,5
27043,50178,5
27030,50181,4
27038,50179,5
27036,50182,6
27039,50180,4
27069,50172,5
27028,50186,4
27037,50170,5
27032,50157,5
27085,50159,5
27023,50145,5
27013,50148,4
27011,50135,5
27055,50134,5
27012,50125,5
26999,50119,5
27008,50116,4
27020,50117,5
27005,50116,5
27008,50118,5
27001,50127,4
27010,50101,4
27012,50135,5
27010,50141,5
27020,50144,5
27017,50087,4
27019,50134,5
27018,50143,5
27019,50139,6
27015,50094,4
27025,50142,4
27014,50139,5
27021,50139,5
27015,50148,5
27000,50126,5
27009,50122,4
27003,50111,5
27008,50166,5
27004,50110,5
27002,50110,5
27007,50111,4
27004,50169,5
27002,50112,5
27010,50118,5
27000,50111,5
26999,50119,4
27005,50100,5
26993,50095,5
26999,50101,5
26994,50107,5
27000,50097,4
27001,50101,5
27002,50104,5
27001,50094,5
27001,50102,4
26997,50097,5
26985,50093,5
26987,50088,5
26988,50079,5
26986,50084,4
26988,50095,5
26994,50078,5
26981,50075,5
26980,50085,5
26986,50073,4
26993,50072,5
26982,50079,5
26979,50066,5
26987,50069,5
26980,50051,4
26977,50054,5
26979,50057,5
26977,50061,5
26970,50051,4
26974,50046,5
26971,50044,4
26966,50034,5
26967,50041,5
26960,50030,4
26966,50040,5
26965,50038,5
26965,50037,5
26974,50041,5
26970,50041,4
26968,50046,5
26978,50046,5
26973,50052,5
26977,50045,5
26982,50066,4
26981,50060,5
26976,50062,5
26978,50062,5
26978,50058,5
26975,50059,4
26986,50063,5
26978,50059,5
26986,50065,5
26989,50064,5
26986,50069,4
26987,50067,6
26988,50068,4
26985,50062,5
26979,50069,4
26988,50079,4
26990,50067,5
26986,50074,5
26993,50066,5
26987,50069,4
26990,50071,5
26986,50066,5
26982,50066,5
26982,50063,5
26989,50064,4
26978,50062,5
26982,50057,5
26979,50058,5
26974,50051,5
26977,50051,4
26976,50043,5
26971,50048,5
26974,50049,5
26985,50054,5
26973,50059,4
26978,50060,5
26985,50064,6
26984,50064,4
26986,50069,5
26982,50067,4
26992,50067,5
26988,50074,5
26954,50064,5
26995,50068,4
26982,50061,5
26976,50058,5
26933,50051,5
26982,50059,5
26979,50056,4
26983,50050,5
26924,50051,5
26974,50055,5
26971,50046,5
26968,50052,5
26988,50045,4
26977,50046,5
26975,50047,5
26971,50047,5
27024,50050,4
26969,50058,5
26973,50046,5
26980,50054,5
27019,50054,5
26979,50042,4
26974,50051,5
26973,50039,5
26990,50047,5
26964,50051,4
26966,50051,4
26964,50042,5
26974,50033,5
26964,50047,5
26970,50035,4
26964,50043,5
26973,50000,5
26966,50049,5
26971,50043,5
26971,50042,4
26967,49995,5
26968,50044,5
26967,50040,5
26967,50034,5
26962,50024,5
26969,50045,4
26968,50034,5
26966,50041,5
26961,50071,5
26959,50031,4
26965,50039,5
26969,50030,5
26965,50096,5
26962,50030,5
26968,50031,4
26964,50039,5
26971,50066,5
26958,50035,5
26965,50031,4
26960,50038,5
26968,50052,5
26967,50041,5
26969,50040,5
26974,50042,4
26974,50045,5
26970,50044,5
26977,50045,5
26974,50043,5
26979,50052,4
26975,50040,6
26973,50048,4
26968,50049,5
26966,50057,5
26975,50058,4
26973,50050,5
26984,50053,5
26973,50045,5
26969,50049,5
26972,50044,4
26978,50039,5
26973,50045,5
26972,50047,5
26978,50048,4
26966,50049,4
26969,50042,5
26968,50034,5
26961,50026,5
26962,50037,4
26958,50029,5
26960,50022,5
26960,50018,6
26951,50012,4
26961,50020,4
26963,50017,5
26961,50024,5
26968,50033,5
26977,50044,5
26969,50030,4
26975,50033,5
26971,50036,5
26966,50037,5
26965,50036,5
26968,50036,4
26967,50038,5
26967,50036,5
26963,50025,5
26964,50029,5
26961,50022,4
26958,50016,5
26955,50006,5
26958,50018,5
26947,50013,5
26945,50014,4
26951,50014,5
26943,50007,5
26947,50004,6
26948,50000,3
26939,50004,5
26944,50000,5
26940,49992,5
26941,49995,5
26937,50000,4
26939,49993,5
26939,49993,5
26949,49996,5
26927,49993,5
26936,49989,4
26938,49980,5
26938,49980,5
26930,49978,5
26938,49971,5
26926,49978,4
26935,49970,5
26926,49967,5
26937,49983,5
26934,49981,4
26934,49988,5
26939,49984,4
26945,49994,5
26940,49990,5
26937,49995,6
26935,49992,3
26940,49997,5
26941,49985,5
26938,49993,5
26902,49982,4
26939,49980,5
26935,49986,5
26933,49968,5
26878,49983,5
26926,49983,4
26927,49969,5
26926,49977,5
26900,49978,5
26931,49975,5
26933,49969,4
26938,49968,5
26951,49971,5
26924,49974,5
26925,49950,5
26919,49956,4
26971,49949,6
26917,49959,4
26923,49954,5
26924,49958,4
26958,49965,4
26924,49958,5
26915,49961,5
26925,49953,5
26935,49957,4
26916,49944,5
26909,49944,5
26905,49929,5
26888,49884,5
26887,49913,4
26891,49904,5
26888,49901,5
26887,49858,5
26885,49903,5
26885,49902,4
26889,49897,5
26884,49844,5
26891,49902,5
26890,49899,5
26892,49898,5
26892,49905,4
26899,49912,6
26892,49918,4
26905,49930,4
26908,49967,4
26901,49921,5
26909,49930,5
26904,49919,5
26901,49985,4
26902,49908,5
26891,49920,5
26894,49901,5
26890,49931,5
26881,49888,4
26878,49880,5
26881,49893,5
26882,49893,5
26884,49889,5
26876,49891,4
26883,49884,5
26877,49898,5
26887,49896,5
26893,49903,5
26895,49912,4
26890,49908,5
26890,49917,5
26911,49919,6
26892,49910,4
26893,49916,4
26908,49919,5
26900,49916,5
26894,49927,5
26899,49922,4
26897,49914,4
26895,49920,5
26902,49912,5
26899,49924,5
26887,49915,4
26899,49918,5
26891,49916,5
26896,49918,5
26899,49918,5
26894,49920,4
26894,49914,5
26898,49920,5
26903,49912,5
26904,49918,5
26901,49929,5
26894,49918,4
26899,49921,5
26906,49913,5
26891,49920,6
26895,49917,3
26895,49917,5
26888,49911,5
26900,49909,5
26895,49914,4
26890,49912,4
26891,49909,5
26892,49915,5
26897,49913,5
26895,49910,4
26887,49903,5
26900,49896,5
26891,49892,5
26892,49912,5
26890,49901,4
26890,49900,5
26893,49905,5
26883,49901,5
26885,49908,5
26893,49913,4
26885,49908,6
26889,49897,4
26893,49904,5
26892,49906,5
26889,49906,4
26888,49901,5
26886,49906,5
26891,49911,5
26897,49906,5
26893,49898,4
26895,49901,5
26899,49906,5
26895,49906,5
26889,49902,4
26888,49909,4
26893,49894,5
26892,49910,5
26893,49916,5
26887,49910,4
26888,49906,7
26897,49912,3
26894,49908,5
26898,49918,5
26902,49919,4
26895,49938,5
26887,49928,6
26908,49932,4
26912,49942,5
26911,49948,4
26876,49937,5
26917,49945,5
26914,49944,5
26918,49947,5
26853,49938,4
26913,49954,5
26912,49935,5
26922,49944,5
26905,49942,4
26914,49939,4
26905,49934,5
26915,49938,5
26961,49941,5
26916,49939,4
26909,49943,5
26917,49938,5
26977,49948,5
26917,49947,5
26918,49936,4
26922,49943,5
26941,49947,5
26912,49948,6
26921,49953,4
26916,49950,4
26920,49946,5
26913,49945,5
26908,49945,5
26918,49939,5
26916,49904,4
26911,49949,5
26916,49944,5
26913,49936,5
26916,49894,5
26911,49947,4
26912,49939,5
26912,49948,5
26919,49900,5
26914,49948,4
26926,49935,4
26915,49957,5
26917,49969,5
26913,49954,5
26914,49956,5
26919,49952,4
26920,49998,5
26919,49952,5
26919,49951,5
26918,49947,4
26919,49993,5
26913,49955,5
26917,49946,5
26917,49961,5
26921,49973,4
26923,49959,5
26925,49960,5
26933,49962,5
26926,49969,5
26926,49954,4
26921,49962,5
26928,49961,5
26934,49969,5
26923,49972,4
26926,49965,4
26934,49971,5
26924,49971,5
26923,49965,5
26934,49974,4
26930,49974,7
26940,49973,3
26941,49977,5
26931,49977,5
26945,49966,4
26938,49968,5
26940,49979,5
26938,49976,5
26938,49979,5
26936,49972,4
26940,49978,5
26935,49983,5
26940,49972,5
26933,49981,5
26930,49980,4
26937,49983,5
26936,49975,5
26931,49977,5
26942,49984,5
26936,49975,4
26937,49979,5
26937,49983,5
26939,49986,5
26928,49980,4
26938,49973,4
26929,49975,6
26939,49969,4
26928,49975,5
26930,49980,4
26939,49974,5
26937,49975,5
26932,49977,5
26931,49979,5
26928,49971,4
26933,49974,5
26935,49973,5
26933,49975,5
26928,49975,5
26938,49975,4
26930,49980,5
26935,49984,5
26943,49983,5
26934,49988,5
26938,49989,4
26941,49991,5
26945,50001,5
26950,50007,5
26957,50002,5
26950,50008,4
26952,50017,5
26963,50018,5
26965,50024,5
26962,50025,4
26952,50018,5
26958,50013,5
26951,50011,5
26954,50007,5
26954,50014,4
26965,50004,5
26954,50013,5
26953,50010,5
26956,50014,5
26955,50013,4
26957,50015,5
26960,50012,5
26951,50012,5
26957,50010,5
26947,50011,4
26957,50013,5
26956,50016,5
26922,50003,5
26955,50003,5
26960,50001,4
26947,50003,5
26910,50011,5
26953,50007,5
26949,50003,4
26953,50008,4
26905,49998,5
26945,49998,5
26953,50008,5
26954,50008,4
26969,49998,5
26949,49987,5
26945,50001,5
26946,50003,5
26998,49999,4
26945,49997,5
26948,50005,5
26946,49996,5
27001,50001,5
26952,50006,4
26947,50002,6
26958,50001,4
26972,50013,5
26951,50004,5
26948,50001,6
26951,50016,3
26948,49992,5
26954,50004,5
26952,50012,5
26948,50009,4
26947,49971,5
26954,50005,5
26950,50003,5
26952,50014,5
26958,49953,4
26961,50017,5
26955,50020,5
26956,50025,5
26963,50003,4
26967,50021,5
26954,50015,5
26953,50021,5
26961,50057,5
26953,50016,4
26951,50011,5
26948,49998,6
26945,50056,4
26951,49997,5
26941,49993,4
26942,49999,5
26939,50038,5
26941,49999,5
26948,49997,5
26947,50007,4
26956,50017,5
26952,50009,5
26953,50012,5
26957,50014,4
26949,50014,4
26956,50007,5
26946,50003,5
26944,49999,5
26942,49993,4
26950,49997,5
26947,49990,5
26937,49990,5
26934,49990,5
26939,49989,4
26943,49986,5
26934,49987,5
26941,49996,6
26935,49986,4
26937,49988,4
26939,49982,5
26932,49984,5
26930,49976,5
26929,49978,5
26934,49975,4
26932,49972,5
26933,49978,5
26942,49989,5
26930,49983,5
26933,49995,4
26941,49993,5
26944,49996,5
26949,49995,5
26945,49987,4
26944,49995,4
26949,49995,5
26937,49989,5
26944,50000,5
26945,50004,5
26945,50010,4
26955,50013,5
26956,50009,5
26960,50023,6
26964,50027,3
26966,50035,5
26982,50043,5
26976,50045,5
26971,50047,5
26967,50049,4
26980,50056,5
26973,50058,5
26978,50051,5
26974,50047,5
26981,50058,4
26983,50046,5
26978,50041,5
26980,50039,5
26970,50038,4
26965,50029,4
26967,50035,5
26967,50030,5
26969,50036,5
26957,50034,4
26962,50024,6
26957,50032,4
26961,50021,5
26955,50016,5
26957,50018,4
26950,50025,5
26964,50022,5
26957,50010,5
26950,50017,5
26943,50023,4
26951,50015,5
26948,50011,5
26953,50007,5
26947,50003,5
26945,50011,4
26950,50000,5
26940,50002,5
26947,50009,5
26946,50005,5
26940,50004,4
26943,50001,5
26943,49994,5
26948,50002,5
26908,50002,4
26946,50009,4
26953,50007,6
26947,50004,4
26886,50000,5
26946,50000,4
26947,50004,5
26947,50011,5
26921,49999,5
26948,50011,5
26944,50001,4
26937,49993,5
26963,49978,5
26931,49974,5
26919,49967,5
26918,49964,4
26984,49978,5
26931,49980,5
26923,49983,5
26938,49990,5
26982,49994,4
26938,50000,5
26936,49987,5
26940,50000,5
26952,49995,5
26934,50007,4
26946,50012,5
26952,50011,6
26948,49998,4
26957,50028,4
26954,50032,5
26951,50034,5
26958,49992,5
26953,50024,5
26953,50024,4
26957,50029,5
26949,49971,5
26961,50025,5
26956,50027,5
26950,50030,5
26955,50028,4
26958,50035,5
26955,50034,5
26955,50038,5
26967,50085,4
26972,50040,5
26970,50052,5
26970,50049,5
26963,50110,5
26964,50044,4
26956,50046,5
26963,50045,5
26964,50073,6
26970,50048,3
26975,50053,4
26967,50050,5
26972,50064,5
26978,50061,5
26980,50071,4
26982,50074,5
26983,50078,5
26983,50076,5
26986,50080,5
26984,50076,4
26989,50080,5
26988,50085,5
26991,50084,5
26992,50084,5
26990,50087,4
26994,50082,5
26987,50078,5
26983,50074,5
26982,50078,5
26980,50078,5
26979,50080,4
26989,50073,5
26980,50080,5
26976,50078,5
26980,50063,4
26978,50079,5
26982,50076,5
26995,50083,5
26991,50090,4
26998,50092,5
26996,50094,5
26991,50098,5
27000,50095,5
26998,50096,4
26988,50104,5
27004,50094,5
26990,50094,5
26987,50094,5
26991,50085,4
26984,50084,5
26990,50086,5
26994,50080,5
26985,50087,5
26990,50083,4
26991,50084,6
26989,50086,4
26993,50081,5
26993,50090,5
26983,50090,4
26993,50095,5
26993,50083,5
26989,50086,5
26989,50088,4
26984,50095,4
26995,50092,5
26999,50102,5
26991,50097,5
26983,50085,4
26994,50092,5
26988,50089,5
26989,50081,5
26991,50081,5
26989,50081,4
26982,50085,5
26979,50082,5
26979,50084,5
26979,50082,5
26982,50084,4
26990,50085,5
26980,50070,6
26982,50073,4
26981,50076,5
26979,50063,4
26971,50064,5
26971,50067,5
26965,50053,9
26961,50056,1
26971,50034,4
26967,50051,5
26958,50042,5
26962,50042,5
26960,50052,4
26965,50054,5
26944,50050,5
26963,50056,5
26968,50055,5
26967,50058,5
26921,50053,4
26965,50058,5
26967,50064,5
26968,50052,5
26909,50065,4
26970,50067,5
26974,50057,5
26980,50063,5
26979,50069,5
26969,50058,4
26970,50059,5
26977,50061,5
27017,50056,5
26975,50068,5
26971,50064,4
26964,50066,5
27029,50060,5
26976,50051,5
26963,50065,4
26977,50060,4
26995,50065,5
26971,50047,5
26957,50055,5
26971,50041,4
26970,50039,5
26956,50044,5
26959,50036,5
26956,50048,5
26957,50003,5
26949,50040,4
26957,50034,5
26952,50041,5
26948,49986,5
26950,50031,4
26952,50036,5
26954,50047,5
26958,50016,5
26951,50038,5
26956,50027,4
26959,50039,5
26952,50063,5
26951,50032,5
26954,50018,5
26940,50022,4
26947,50084,5
26940,50011,5
26946,50010,5
26934,50006,4
26933,50044,4
26925,49998,5
26918,49980,5
26915,49975,5
26908,49979,4
26908,49969,6
26912,49960,4
26901,49948,5
26897,49954,5
26899,49943,4
26898,49951,5
26894,49941,5
26895,49950,5
26895,49949,5
26899,49953,4
26902,49955,5
26907,49964,5
26913,49968,5
26916,49968,5
26923,49988,4
26915,49991,5
26924,49980,5
26912,49987,5
26914,49971,4
26919,49977,4
26908,49971,5
26913,49973,5
26915,49980,4
26920,49994,4
26923,49986,5
26926,49991,5
26927,49995,5
26925,50002,5
26924,49998,4
26935,49995,5
26925,49993,5
26929,49991,5
26926,50000,5
26935,49998,4
26933,50003,5
26936,50000,5
26934,50008,5
26933,50006,5
26933,50014,4
26938,50029,5
26941,50036,5
26957,50041,5
26962,50052,5
26966,50046,4
26956,50052,5
26955,50045,5
26955,50037,6
26961,50043,3
26955,50043,4
26958,50051,5
26952,50048,5
26961,50043,5
26955,50040,4
26963,50044,5
26951,50040,5
26954,50038,5
26963,50032,5
26950,50025,4
26939,50024,5
26950,50024,5
26950,50029,5
26946,50034,5
26948,50029,4
26941,50021,5
26947,50017,5
26946,50017,5
26944,50001,5
26933,50006,5
26941,49996,4
26933,49992,5
26932,49996,5
26939,49989,6
26937,49994,3
26935,49993,5
26931,49988,5
26936,49988,5
26934,49996,4
26930,49977,5
26921,49984,5
26937,49994,5
26921,49991,5
26925,49989,4
26931,49990,5
26926,49975,5
26879,49980,5
26920,49985,5
26932,49970,4
26929,49980,5
26874,49978,5
26925,49969,5
26927,49985,5
26924,49973,4
26907,49971,6
26924,49972,4
26933,49978,5
26923,49974,5
26958,49977,6
26915,49976,3
26919,49958,5
26912,49952,5
26976,49954,4
26912,49939,4
26908,49950,5
26913,49950,5
26945,49943,5
26900,49938,4
26900,49936,5
26894,49926,5
26909,49919,5
26888,49914,5
26888,49906,4
26890,49907,5
26882,49877,5
26885,49902,5
26891,49908,5
26890,49916,4
26889,49869,5
26900,49928,6
26889,49913,4
26889,49904,5
26887,49856,4
26883,49911,5
26883,49912,5
26885,49902,5
26885,49909,5
26887,49902,4
26890,49907,5
26880,49903,5
26877,49960,5
26879,49902,4
26879,49899,4
26887,49907,5
26888,49955,5
26885,49903,5
26877,49910,4
26885,49899,5
26880,49920,5
26886,49906,5
26883,49909,5
26883,49909,4
26885,49910,5
26883,49912,5
26891,49925,6
26893,49924,4
26892,49916,4
26896,49921,5
26894,49922,5
26899,49914,5
26899,49921,5
26901,49926,4
26896,49916,5
26887,49926,5
26899,49919,5
26889,49927,4
26897,49924,4
26894,49919,5
26906,49932,5
26898,49924,5
26907,49927,4
26903,49928,5
26904,49920,5
26898,49929,5
26897,49925,5
26900,49922,5
26891,49916,4
26891,49915,5
26890,49915,5
26892,49907,6
26891,49902,3
26897,49908,5
26892,49903,5
26883,49897,5
26889,49898,5
26887,49886,4
26882,49893,5
26891,49897,5
26881,49889,5
26878,49895,5
26888,49897,4
26886,49893,5
26882,49887,5
26890,49899,5
26889,49896,4
26887,49900,4
26883,49898,5
26884,49898,5
26887,49893,5
26891,49900,4
26888,49910,6
26894,49915,4
26895,49910,5
26893,49900,5
26899,49909,4
26893,49900,5
26896,49896,5
26892,49904,5
26887,49895,5
26885,49908,4
26888,49894,5
26883,49903,5
26881,49901,5
26883,49905,5
26884,49907,4
26883,49909,5
26890,49903,5
26890,49894,5
26891,49905,5
26882,49908,4
26896,49900,5
26889,49897,5
26881,49900,5
26883,49899,4
26880,49889,5
26885,49891,6
26877,49879,4
26869,49880,5
26871,49882,4
26876,49874,5
26869,49874,5
26874,49865,5
26874,49869,5
26847,49870,4
26867,49872,5
26870,49878,5
26870,49870,5
26820,49866,5
26860,49852,4
26853,49857,5
26862,49850,5
26811,49847,5
26852,49838,5
26855,49836,4
26846,49824,5
26845,49810,5
26834,49811,5
26826,49802,4
26831,49801,4
26875,49798,5
26830,49799,6
26818,49790,4
26823,49796,4
26882,49796,5
26830,49798,5
26823,49794,5
26820,49782,5
26846,49796,4
26827,49792,5
26829,49805,5
26826,49802,5
26822,49782,5
26811,49768,4
26803,49777,5
26802,49756,5
26793,49713,5
26801,49750,5
26788,49741,4
26797,49752,5
26799,49689,5
26791,49754,5
26798,49754,5
26806,49771,4
26801,49745,4
26807,49778,5
26812,49782,5
26806,49780,4
26826,49824,5
26817,49799,5
26822,49805,5
26834,49823,5
26840,49873,4
26831,49824,5
26835,49815,5
26832,49809,5
26823,49849,5
26818,49806,4
26824,49804,5
26819,49791,5
26815,49803,5
26822,49792,5
26817,49797,4
26820,49799,5
26811,49795,5
26820,49797,5
26820,49798,5
26819,49801,6
26817,49810,3
26814,49799,5
26818,49794,5
26812,49797,4
26820,49797,4
26818,49799,5
26816,49792,5
26814,49789,5
26818,49813,4
26826,49810,5
26827,49805,5
26824,49801,5
26821,49798,5
26807,49796,4
26817,49794,5
26826,49802,5
26818,49805,5
26821,49811,5
26829,49807,4
26835,49811,5
26818,49810,5
26822,49808,5
26824,49804,5
26824,49805,4
26816,49804,6
26824,49802,4
26818,49803,5
26811,49789,5
26812,49788,4
26817,49789,5
26807,49788,5
26809,49797,5
26813,49799,4
26823,49796,4
26811,49790,5
26801,49789,5
26806,49781,5
26806,49778,4
26806,49784,5
26813,49784,5
26810,49784,5
26813,49783,5
26805,49788,4
26808,49778,5
26803,49768,5
26797,49760,5
26801,49770,5
26813,49778,4
26800,49773,5
26804,49787,5
26807,49776,5
26798,49773,5
26807,49775,4
26805,49776,5
26802,49779,5
26804,49766,5
26794,49755,4
26793,49763,4
26792,49760,5
26795,49766,5
26791,49760,5
26793,49758,4
26800,49769,5
26800,49761,5
26790,49758,5
26788,49755,5
26784,49741,4
26786,49738,5
26788,49741,7
26787,49759,3
26792,49753,5
26795,49761,4
26796,49759,5
26782,49742,5
26788,49753,5
26802,49756,5
26798,49767,4
26761,49772,5
26798,49758,5
26789,49756,5
26786,49753,5
26743,49757,4
26797,49765,5
26795,49755,5
26787,49744,5
26780,49753,4
26794,49753,4
26795,49753,5
26790,49757,5
26816,49742,5
26785,49734,4
26778,49731,5
26771,49727,4
26837,49723,5
26779,49731,5
26785,49742,6
26785,49747,3
26820,49733,5
26787,49736,5
26783,49735,5
26779,49729,4
26785,49715,5
26766,49706,5
26769,49708,5
26757,49702,5
26762,49676,4
26765,49698,5
26754,49697,5
26759,49705,5
26761,49646,4
26754,49680,4
26751,49672,5
26750,49675,5
26750,49624,5
26746,49677,4
26748,49668,5
26746,49663,6
26742,49678,4
26738,49662,5
26735,49657,4
26738,49662,7
26733,49710,3
26729,49647,5
26731,49656,5
26718,49645,4
26739,49716,5
26725,49651,5
26727,49643,5
26723,49638,5
26714,49646,4
26701,49605,5
26694,49592,5
26690,49581,5
26675,49560,5
26669,49563,4
26668,49555,5
26670,49541,5
26661,49536,5
26661,49533,4
26653,49528,4
26653,49545,5
26653,49537,6
26656,49541,4
26664,49546,4
26661,49554,5
26677,49563,5
26678,49569,5
26687,49587,5
26685,49584,4
26688,49596,5
26696,49602,5
26696,49601,5
26714,49623,5
26711,49630,4
26719,49644,5
26724,49640,5
26727,49644,5
26732,49650,5
26730,49667,4
26736,49671,5
26740,49666,5
26744,49677,5
26741,49675,5
26740,49682,4
26752,49691,5
26747,49688,5
26761,49699,6
26761,49697,3
26771,49705,5
26774,49712,5
26769,49713,5
26783,49717,5
26781,49727,4
26787,49733,5
26785,49746,5
26783,49750,5
26788,49741,5
26788,49745,4
26785,49746,5
26796,49748,5
26786,49746,5
26788,49751,5
26798,49750,4
26807,49759,5
26800,49763,5
26800,49758,5
26803,49759,5
26797,49761,5
26796,49764,4
26799,49763,5
26805,49762,5
26811,49766,6
26807,49767,3
26806,49767,5
26811,49768,5
26810,49775,5
26809,49768,4
26811,49775,5
26820,49780,5
26817,49782,5
26811,49774,5
26810,49776,4
26812,49761,5
26799,49751,5
26792,49755,5
26790,49754,5
26785,49742,4
26794,49746,5
26789,49739,5
26784,49731,5
26777,49734,5
26790,49729,4
26784,49734,6
26783,49726,4
26751,49726,5
26778,49732,5
26780,49731,4
26779,49732,5
26733,49726,5
26783,49732,5
26783,49730,4
26780,49733,5
26732,49722,5
26772,49722,5
26783,49724,5
26775,49722,4
26801,49726,5
26787,49731,5
26779,49726,5
26788,49731,5
26838,49731,4
26785,49736,5
26793,49743,5
26778,49741,5
26838,49748,5
26789,49742,4
26790,49749,5
26788,49734,6
26813,49745,4
26795,49743,5
26791,49743,4
26794,49738,5
26788,49722,5
26797,49747,5
26793,49744,4
26796,49743,4
26792,49704,5
26790,49747,5
26795,49742,5
26793,49743,5
26791,49690,4
26793,49745,5
26788,49744,5
26794,49746,5
26796,49737,4
26797,49765,5
26803,49757,5
26801,49754,5
26800,49807,9
26810,49766,5
26800,49792,5
26809,49787,7
26809,49801,8
26807,49771,9
26817,49786,10
26817,49786,9
26825,49792,7
26817,49800,8
26826,49806,9
26826,49806,8
26829,49762,5
26831,49804,7
26841,49806,8
26860,49815,5
26833,49815,7
26845,49844,8
26845,49844,5
26849,49790,7
26797,49765,8
26859,49852,9
26856,49856,8
26856,49856,5
26877,49853,7
26847,49863,8
26859,49856,5
26861,49863,7
26861,49884,8
26863,49879,5
26868,49869,7
26868,49869,5
26870,49868,8
26871,49870,7
26871,49872,5
26874,49878,8
26864,49875,7
26848,49869,5
26869,49870,8
26869,49870,7
26875,49876,8
26869,49870,7
26865,49861,9
26871,49862,10
26871,49862,9
26857,49863,8
26857,49864,7
26877,49879,10
26877,49879,7
26878,49881,5
26875,49892,10
26877,49893,5
26858,49897,5
26888,49903,5
26880,49894,10
26880,49894,5
26883,49892,5
26883,49895,10
26886,49885,5
26874,49892,5
26879,49883,10
26877,49889,5
26863,49888,5
26863,49888,10
26888,49899,5
26883,49895,7
26891,49898,8
26839,49908,5
26897,49907,7
26891,49904,8
26891,49904,5
26895,49897,7
26892,49860,8
26884,49893,9
26880,49894,8
26880,49894,5
26922,49899,7
26967,49900,8
26897,49901,5
26884,49899,7
26885,49899,8
26913,49901,5
26895,49914,7
26895,49914,8
26890,49912,5
26886,49916,7
26893,49874,8
26896,49907,5
26935,49905,7
26888,49919,8
26888,49919,3
26896,49866,0
26896,49866,4
26896,49907,5
26900,49909,5
26900,49908,5
26897,49946,4
26899,49911,5
26899,49919,5
26895,49918,5
26884,49976,4
26902,49920,5
26901,49915,5
26903,49926,5
26908,49973,5
26902,49919,5
26898,49926,4
26901,49915,5
26897,49934,5
26902,49926,4
26910,49928,4
26906,49934,5
26906,49923,5
26911,49924,5
26911,49918,4
26915,49932,5
26900,49933,5
26910,49929,5
26901,49936,5
26905,49930,4
26907,49930,5
26912,49935,5
26914,49942,5
26905,49934,5
26901,49927,4
26910,49936,5
26914,49924,5
26915,49933,5
26903,49932,5
26904,49937,4
26907,49928,6
26901,49932,4
26913,49929,5
26911,49937,4
26909,49932,4
26920,49930,5
26910,49929,10
26906,49937,5
26907,49935,5
26911,49934,8
26913,49934,7
26915,49932,8
26907,49936,7
26911,49943,7
26911,49943,8
26917,49960,7
26921,49950,5
26909,49944,8
26915,49899,7
26907,49938,9
26907,49938,10
26916,49930,5
26912,49935,8
26919,49933,7
26900,49922,7
26900,49922,3
26859,49919,3
26902,49924,5
26901,49922,4
26897,49920,5
26901,49926,5
26907,49929,5
26906,49918,5
26914,49937,5
26910,49943,4
26912,49941,5
26923,49946,5
26925,49943,6
26920,49944,3
26919,49952,5
26925,49955,5
26915,49942,5
26921,49942,5
26915,49944,4
26909,49931,5
26907,49934,5
26910,49925,5
26913,49926,9
26906,49932,0
26909,49911,5
26902,49934,5
26908,49935,5
26915,49933,4
26910,49938,4
26880,49939,5
26908,49933,5
26913,49929,5
26915,49925,4
26858,49934,6
26918,49939,4
26918,49942,5
26907,49938,5
26887,49938,6
26917,49932,3
26918,49941,5
26916,49934,5
26945,49937,5
26910,49932,4
26918,49936,5
26923,49943,5
26971,49934,5
26914,49939,5
26915,49930,4
26912,49935,5
26946,49933,5
26910,49939,5
26902,49942,4
26910,49940,4
