RED,IR,EKG,TIME
44785,99634,10
44785,99634,5
44769,99601,5
44754,99575,10
44737,99607,5
44725,99519,5
44657,99389,10
44657,99389,5
44598,99329,5
44581,99258,10
44546,99177,5
44504,99089,7
44457,98937,8
44312,98731,9
44312,98731,10
44312,98712,5
44313,98744,6
44330,98762,8
44358,98815,5
44305,98694,7
44305,98694,8
44260,98605,5
44217,98503,7
44159,98415,8
44124,98333,5
44043,98284,7
44058,98227,8
44058,98227,5
44063,98230,7
44068,98251,8
44084,98268,5
44093,98293,7
44064,98314,8
44091,98333,5
44124,98350,7
44164,98444,8
44164,98444,9
44170,98448,5
44175,98454,8
44173,98399,7
44330,98762,5
44220,98544,8
44220,98544,7
44222,98567,10
44228,98560,7
44221,98558,5
44216,98531,8
44216,98531,7
44210,98524,5
44201,98510,8
44202,98492,7
44175,98458,5
44112,98413,8
44136,98382,7
44050,98224,7
44050,98224,8
44035,98207,7
44028,98174,5
44020,98153,8
44012,98109,7
44014,98144,11
44014,98144,7
44004,98149,5
44011,98159,8
44017,98177,7
43947,97985,9
43947,97985,10
43848,97850,5
43853,97805,5
43808,97705,10
43772,97634,5
43675,97580,5
43747,97638,10
43747,97638,5
43755,97655,5
43788,97714,10
43858,97776,5
43847,97834,5
43701,97520,10
43701,97520,5
43632,97432,7
43627,97339,8
43574,97273,5
43548,97233,7
43548,97230,8
43539,97202,9
43539,97202,10
43547,97188,9
43584,97330,10
43584,97330,5
43603,97344,7
43604,97307,8
43624,97397,5
43618,97402,7
43628,97417,8
43644,97446,5
43707,97560,7
43707,97560,3
43736,97631,1
43733,97640,5
43747,97713,5
43761,97660,5
43775,97683,5
43771,97687,4
43772,97716,5
43788,97688,5
43784,97705,5
43783,97699,5
43770,97694,4
43777,97683,5
43773,97674,5
43753,97654,5
43745,97620,4
43730,97598,5
43718,97561,4
43693,97529,5
43683,97497,5
43668,97465,4
43655,97442,5
43640,97409,5
43626,97393,5
43629,97385,5
43613,97385,4
43617,97380,5
43621,97377,5
43615,97374,5
43617,97381,5
43628,97388,4
43632,97400,5
43629,97414,5
43638,97416,5
43635,97418,5
43649,97422,4
43642,97426,5
43640,97425,5
43639,97432,5
43640,97411,4
43632,97395,4
43610,97355,6
43580,97291,4
43536,97188,5
43474,97065,4
43409,96926,5
43343,96792,5
43268,96659,5
43212,96560,5
43167,96504,4
43155,96469,5
43157,96471,5
43161,96494,5
43180,96538,5
43201,96575,4
43228,96633,5
43248,96688,5
43275,96724,5
43300,96779,5
43331,96832,4
43352,96896,5
43365,96906,5
43341,96828,5
43273,96678,5
43216,96571,4
43175,96490,5
43134,96420,5
43105,96361,5
43091,96350,4
43081,96331,5
43082,96342,5
43086,96349,5
43098,96368,5
43100,96369,4
43110,96392,5
43124,96428,5
43146,96461,5
43156,96488,5
43164,96530,4
43190,96552,5
43197,96577,5
43207,96598,5
43224,96619,5
43234,96634,4
43242,96656,5
43250,96666,5
43256,96684,5
43260,96699,5
43269,96711,4
43275,96717,5
43282,96736,5
43303,96749,5
43296,96788,4
43328,96828,4
43338,96837,5
43334,96829,5
43289,96850,5
43342,96856,4
43332,96848,5
43342,96848,5
43281,96846,5
43345,96850,5
43341,96850,4
43340,96853,5
43302,96841,5
43338,96830,5
43320,96812,5
43318,96791,4
43324,96765,6
43293,96736,4
43276,96719,5
43263,96675,5
43297,96642,6
43227,96611,3
43220,96588,5
43209,96582,5
43243,96566,4
43188,96565,4
43199,96561,5
43203,96569,5
43221,96572,5
43214,96579,4
43203,96580,5
43217,96606,5
43221,96606,5
43229,96634,5
43241,96661,4
43255,96678,5
43260,96651,5
43269,96718,5
43271,96739,5
43291,96764,4
43301,96716,5
43317,96797,6
43321,96816,4
43324,96821,5
43326,96803,4
43319,96820,5
43314,96804,5
43303,96763,5
43271,96758,5
43247,96633,4
43192,96536,5
43128,96395,5
43054,96317,5
42972,96093,4
42898,95933,5
42834,95800,5
42763,95730,5
42731,95620,5
42706,95586,4
42715,95596,5
42727,95633,5
42731,95649,5
42751,95692,5
42785,95741,4
42807,95793,5
42829,95835,5
42851,95904,6
42878,95949,4
42889,95977,4
42887,95945,5
42833,95831,5
42760,95683,5
42717,95586,5
42680,95530,4
42648,95457,5
42624,95426,5
42623,95424,5
42616,95416,4
42619,95440,4
42623,95449,5
42639,95463,5
42655,95487,5
42667,95523,4
42682,95537,5
42699,95583,9
42714,95625,1
42726,95667,5
42750,95681,5
42765,95727,4
42772,95739,5
42784,95757,5
42795,95765,6
42798,95788,3
42804,95782,5
42803,95785,5
42806,95778,5
42807,95793,5
42805,95780,4
42810,95795,5
42808,95797,5
42813,95810,5
42830,95816,4
42827,95824,4
42829,95829,5
42812,95814,5
42811,95800,5
42810,95785,4
42806,95772,5
42791,95762,5
42797,95753,5
42784,95747,5
42777,95727,4
42761,95694,6
42748,95667,4
42729,95625,5
42712,95586,5
42691,95552,6
42671,95524,3
42657,95481,5
42648,95451,5
42620,95426,5
42624,95413,4
42612,95398,5
42604,95402,5
42611,95410,5
42627,95419,5
42630,95444,4
42652,95468,5
42648,95499,5
42675,95533,5
42689,95569,4
42706,95625,5
42737,95678,5
42766,95734,5
42805,95793,5
42829,95862,4
42866,95935,5
42901,96003,6
42948,96087,4
42981,96154,5
43022,96222,4
43056,96307,5
43085,96375,5
43114,96428,5
43153,96488,5
43144,96539,4
43203,96585,5
43224,96630,5
43242,96671,5
43201,96709,5
43285,96740,4
43289,96762,5
43298,96774,5
43258,96773,5
43301,96760,4
43284,96746,4
43261,96699,5
43261,96643,5
43212,96579,5
43183,96511,4
43158,96448,5
43171,96400,5
43103,96361,6
43089,96341,4
43085,96341,4
43151,96367,5
43126,96412,5
43137,96459,5
43176,96533,5
43235,96601,4
43252,96686,5
43285,96772,5
43341,96853,5
43378,96920,5
43418,97020,4
43449,97071,5
43445,97037,5
43404,96903,5
43349,96850,4
43323,96803,4
43312,96785,5
43313,96713,5
43318,96778,5
43312,96797,5
43336,96829,4
43340,96824,5
43356,96878,5
43377,96916,6
43383,96947,3
43412,97026,5
43440,97043,5
43468,97098,5
43493,97164,5
43534,97298,4
43575,97297,5
43596,97363,5
43636,97400,5
43646,97508,5
43669,97503,4
43710,97539,5
43711,97582,5
43732,97632,5
43757,97639,5
43765,97674,4
43791,97716,5
43802,97736,5
43820,97778,5
43838,97825,4
43867,97869,6
43885,97896,4
43877,97898,5
43874,97883,5
43877,97871,4
43869,97861,5
43863,97838,5
43852,97823,5
43844,97810,5
43836,97785,4
43821,97763,5
43801,97720,5
43794,97690,5
43775,97670,5
43758,97631,4
43749,97614,5
43751,97617,5
43743,97609,5
43742,97615,5
43753,97623,4
43761,97644,5
43777,97664,5
43780,97701,5
43803,97729,4
43825,97794,4
43858,97833,6
43883,97905,4
43918,97953,5
43950,98040,4
43994,98113,5
44034,98208,5
44083,98277,5
44116,98353,5
44156,98428,4
44189,98495,5
44227,98559,5
44249,98605,5
44277,98651,5
44298,98673,4
44293,98685,5
44294,98685,5
44285,98659,5
44265,98613,5
44243,98553,4
44217,98499,5
44189,98438,5
44165,98405,5
44141,98366,4
44134,98352,4
44127,98346,5
44132,98358,6
44138,98373,4
44152,98402,4
44167,98440,5
44193,98476,5
44206,98518,5
44231,98575,5
44260,98620,4
44292,98683,5
44312,98719,5
44317,98716,5
44282,98639,5
44237,98520,4
44164,98409,5
44133,98350,5
44118,98314,5
44111,98299,5
44111,98312,4
44119,98332,5
44124,98350,5
44143,98375,5
44150,98395,5
44164,98406,4
44174,98449,5
44193,98471,5
44213,98508,5
44231,98545,4
44253,98597,5
44245,98645,5
44299,98681,5
44313,98733,5
44327,98761,4
44297,98795,5
44360,98810,5
44380,98828,5
44382,98838,5
44330,98845,4
44396,98864,5
44399,98861,5
44401,98879,5
44444,98915,5
44426,98942,4
44440,98946,5
44433,98940,5
44486,98925,5
44433,98924,5
44418,98917,5
44416,98899,4
44475,98892,5
44403,98875,5
44397,98862,4
44387,98848,5
44414,98823,5
44368,98797,5
44363,98778,5
44341,98750,4
44329,98730,5
44326,98729,5
44324,98733,5
44335,98746,5
44340,98730,4
44359,98806,5
44378,98841,5
44401,98884,5
44419,98878,5
44463,98995,4
44494,99076,5
44538,99161,6
44572,99194,4
44621,99319,5
44657,99401,4
44708,99481,7
44749,99598,3
44790,99635,5
44828,99723,4
44855,99790,4
44886,99901,5
44908,99874,5
44923,99909,5
44940,99930,4
44946,99973,5
44936,99910,5
44925,99899,5
44911,99855,5
44885,99815,4
44858,99757,5
44839,99703,5
44810,99644,5
44798,99626,5
44777,99614,4
44776,99602,5
44790,99628,5
44789,99641,5
44808,99671,5
44830,99708,4
44847,99753,5
44869,99822,5
44921,99898,5
44940,99950,4
44963,99980,4
44955,99949,5
44912,99860,5
44869,99775,5
44839,99705,4
44808,99654,5
44797,99625,5
44787,99613,5
44795,99614,5
44803,99630,4
44806,99649,5
44818,99671,5
44818,99683,5
44837,99709,5
44843,99744,4
44873,99788,4
44892,99823,5
44914,99862,5
44925,99916,6
44966,99958,3
44977,100000,5
45007,100057,5
45033,100103,5
45062,100145,5
45081,100185,4
45092,100219,5
45122,100243,5
45126,100273,5
45141,100301,4
45152,100318,5
45170,100369,5
45208,100429,5
45227,100477,5
45240,100488,4
45235,100490,5
45240,100495,5
45245,100505,5
45251,100511,5
45251,100519,4
45250,100512,6
45246,100511,4
45241,100496,5
45238,100480,5
45228,100462,6
45204,100432,3
45194,100392,5
45166,100356,5
45148,100318,5
45131,100277,4
45114,100251,5
45104,100210,5
45095,100205,5
45079,100188,4
45085,100179,5
45081,100178,5
45070,100173,5
45075,100191,5
45084,100181,4
45083,100201,5
45089,100215,5
45103,100229,5
45106,100244,5
45112,100251,4
45114,100266,5
45115,100272,6
45125,100270,4
45111,100260,5
45116,100259,4
45107,100242,5
45101,100239,5
45059,100198,5
45063,100159,5
45041,100097,4
45001,100015,5
44903,99942,5
44920,99857,5
44878,99792,4
44855,99751,4
44778,99699,5
44824,99679,5
44812,99676,5
44797,99661,4
44815,99649,5
44795,99653,5
44796,99672,5
44813,99680,5
44867,99677,4
44806,99650,5
44752,99525,5
44655,99330,6
44635,99195,4
44517,99085,4
44456,98981,5
44419,98903,5
44421,98866,5
44378,98826,5
44380,98806,4
44365,98803,5
44370,98788,5
44371,98803,5
44366,98813,4
44359,98821,4
44379,98783,5
44372,98835,5
44384,98836,5
44377,98846,4
44379,98790,4
44393,98866,5
44398,98872,5
44407,98872,5
44407,98850,5
44397,98897,4
44409,98888,5
44407,98891,5
44407,98925,6
44400,98891,3
44407,98890,5
44406,98903,5
44420,98993,5
44421,98933,5
44423,98911,4
44406,98892,5
44401,98934,5
44400,98888,5
44401,98878,5
44394,98860,4
44386,98863,5
44377,98824,5
44359,98785,5
44340,98761,4
44328,98716,5
44291,98654,5
44258,98596,5
44208,98515,5
44177,98428,4
44133,98358,6
44111,98303,4
44085,98269,5
44068,98239,5
44062,98214,4
44049,98203,5
44049,98196,5
44046,98200,5
44046,98198,5
44055,98204,4
44061,98222,7
44063,98233,3
44065,98263,5
44079,98271,5
44092,98282,4
44101,98311,5
44112,98329,5
44113,98357,5
44126,98380,4
44151,98402,5
44146,98418,5
44164,98437,5
44172,98471,5
44186,98494,4
44196,98504,5
44198,98506,6
44203,98511,4
44202,98505,5
44191,98490,4
44183,98464,5
44146,98400,5
44098,98287,5
44030,98113,5
43916,97895,4
43789,97656,5
43676,97420,5
43568,97216,5
43477,97060,5
43425,96964,4
43407,96931,5
43402,96939,5
43416,96974,5
43436,97022,4
43468,97097,4
43513,97184,5
43559,97285,5
43619,97398,5
43677,97514,4
43735,97638,5
43790,97727,5
43810,97780,6
43805,97710,4
43747,97595,4
43688,97491,5
43637,97399,5
43592,97314,5
43562,97243,5
43542,97222,4
43538,97217,5
43532,97200,5
43538,97201,5
43538,97203,5
43544,97213,4
43543,97233,5
43548,97252,5
43562,97280,5
43582,97287,4
43592,97327,4
43609,97357,5
43623,97381,5
43638,97423,5
43656,97441,5
43661,97467,4
43679,97487,5
43678,97509,5
43685,97520,5
43655,97527,4
43704,97521,5
43691,97538,5
43701,97531,5
43641,97525,5
43695,97528,4
43692,97527,5
43700,97542,5
43649,97540,5
43698,97521,5
43688,97518,4
43687,97510,5
43694,97488,5
43661,97463,5
43652,97435,5
43642,97415,4
43680,97383,5
43608,97339,5
43584,97291,5
43564,97245,4
43584,97183,6
43497,97119,4
43472,97065,5
43444,97021,5
43431,96959,4
43395,96923,5
43383,96886,5
43363,96871,5
43361,96852,5
43357,96866,4
43358,96867,5
43357,96887,5
43381,96852,5
43386,96924,5
43392,96958,4
43416,96990,5
43431,96963,5
43447,97045,5
43464,97084,5
43488,97131,4
43502,97155,4
43533,97211,5
43545,97247,5
43565,97276,4
43585,97359,5
43586,97330,6
43605,97357,4
43605,97371,5
43612,97441,4
43616,97394,5
43617,97386,5
43620,97368,5
43609,97406,5
43597,97340,4
43592,97331,5
43562,97285,5
43546,97247,5
43518,97153,5
43447,97040,4
43384,96875,5
43285,96698,5
43183,96488,5
43091,96293,5
42984,96095,4
42908,95937,5
42840,95810,5
42812,95759,5
42784,95725,4
42780,95724,4
42798,95766,5
42830,95820,6
42855,95892,4
42887,95971,4
42931,96052,5
42958,96124,5
42999,96190,5
43030,96268,5
43071,96354,4
43103,96406,5
43116,96428,5
43095,96371,5
43032,96232,5
42970,96087,4
42922,96009,5
42885,95938,5
42850,95877,5
42841,95860,5
42846,95869,4
42844,95868,5
42847,95877,5
42854,95885,5
42852,95901,5
42859,95915,4
42867,95934,5
42890,95967,5
42910,95996,5
42914,96033,4
42935,96073,5
42956,96110,5
42971,96127,5
42985,96150,5
42996,96192,4
43007,96206,5
43024,96247,5
43030,96261,5
43042,96283,5
43060,96293,4
43058,96311,5
43060,96312,5
43073,96330,5
43083,96334,5
43087,96357,4
43095,96390,5
43115,96407,5
43114,96410,5
43103,96399,5
43105,96399,5
43098,96390,4
43097,96372,5
43093,96353,5
43084,96351,4
43074,96320,4
43062,96313,5
43056,96298,5
43044,96273,5
43040,96245,4
43013,96196,5
42993,96153,5
42985,96122,5
42964,96088,5
42949,96078,4
42944,96050,5
42926,96028,5
42934,96021,5
42922,96026,5
42921,96026,4
42922,96044,5
42933,96055,5
42948,96063,5
42956,96096,5
42964,96115,4
42941,96141,6
42991,96175,4
43002,96201,5
43016,96234,4
42981,96262,4
43049,96290,5
43063,96319,5
43073,96344,5
43034,96373,4
43098,96395,5
43107,96410,5
43121,96438,5
43143,96453,5
43135,96465,4
43140,96465,5
43125,96457,5
43183,96449,5
43124,96442,5
43133,96422,4
43120,96419,5
43174,96403,5
43107,96381,6
43092,96366,4
43078,96338,4
43082,96301,5
43041,96251,5
43015,96185,5
42966,96093,4
42923,95966,4
42844,95839,5
42775,95686,5
42702,95549,5
42634,95373,4
42574,95308,5
42537,95214,5
42504,95166,5
42497,95108,5
42497,95182,4
42514,95209,5
42535,95256,5
42569,95291,5
42591,95383,5
42622,95456,5
42659,95512,4
42688,95601,4
42706,95631,5
42749,95692,6
42771,95737,3
42760,95807,5
42742,95648,5
42682,95517,5
42614,95400,5
42583,95392,4
42560,95294,5
42550,95284,5
42551,95295,5
42564,95320,4
42563,95312,5
42572,95337,5
42578,95352,5
42589,95359,5
42603,95382,4
42615,95410,5
42619,95447,5
42645,95483,5
42651,95523,5
42673,95548,4
42693,95580,6
42705,95602,4
42711,95631,5
42724,95649,5
42735,95656,6
42741,95679,3
42744,95668,5
42746,95685,5
42753,95687,5
42756,95681,4
42747,95677,5
42743,95681,5
42742,95680,5
42750,95684,4
42744,95680,4
42742,95683,5
42742,95656,5
42721,95630,5
42718,95611,4
42702,95585,5
42684,95561,5
42675,95532,5
42668,95515,5
42644,95481,4
42633,95448,5
42608,95396,6
42587,95356,4
42568,95314,5
42545,95272,4
42520,95229,5
42513,95197,5
42485,95171,5
42483,95145,5
42477,95132,4
42468,95117,5
42471,95115,5
42473,95122,5
42474,95136,4
42490,95160,4
42490,95178,5
42496,95202,5
42510,95223,5
42508,95242,4
42531,95265,5
42543,95288,5
42554,95297,5
42561,95325,5
42573,95351,4
42592,95378,5
42598,95395,5
42600,95414,6
42607,95428,4
42621,95441,4
42624,95445,5
42632,95477,5
42644,95469,5
42636,95471,5
42636,95467,4
42634,95468,5
42632,95458,5
42620,95441,5
42619,95440,5
42620,95427,4
42605,95409,5
42605,95405,5
42598,95390,5
42593,95386,4
42589,95374,5
42589,95356,5
42588,95354,5
42575,95351,5
42579,95347,5
42583,95346,4
42575,95355,5
42552,95356,5
42581,95357,6
42581,95346,3
42576,95352,5
42522,95331,5
42566,95298,5
42530,95234,5
42500,95161,4
42410,95094,5
42430,95008,5
42390,94945,5
42359,94886,5
42356,94853,4
42347,94858,5
42352,94888,5
42362,94926,5
42458,95002,4
42449,95090,4
42499,95201,5
42566,95335,5
42689,95478,5
42692,95585,4
42738,95698,6
42784,95792,4
42859,95866,5
42862,95942,5
42890,95986,4
42899,95992,5
42879,95918,5
42819,95793,5
42753,95671,5
42713,95616,4
42705,95560,5
42709,95605,5
42728,95619,5
42726,95650,5
42738,95617,4
42752,95699,5
42778,95748,5
42806,95796,5
42827,95804,4
42859,95919,4
42885,95983,5
42944,96076,5
42981,96186,5
43033,96263,4
43070,96343,5
43107,96420,6
43154,96556,4
43175,96552,5
43215,96614,4
43234,96653,5
43263,96757,5
43287,96740,5
43301,96774,5
43317,96798,4
43313,96831,5
43336,96833,5
43340,96840,5
43337,96858,5
43363,96883,4
43375,96901,5
43379,96920,5
43373,96904,5
43367,96876,5
43353,96851,4
43345,96846,5
43342,96820,5
43322,96810,5
43325,96789,9
43317,96775,0
43298,96737,5
43288,96737,6
43276,96717,4
43275,96695,4
43257,96684,5
43270,96681,5
43273,96685,5
43271,96703,5
43284,96727,4
43297,96752,5
43305,96783,5
43329,96825,5
43362,96874,5
43380,96932,4
43408,97010,5
43453,97082,5
43488,97172,5
43534,97248,5
43577,97321,4
43610,97400,5
43660,97468,5
43693,97558,5
43734,97633,5
43773,97699,4
43813,97764,5
43834,97829,5
43861,97882,5
43893,97911,4
43905,97949,5
43921,97972,5
43921,97988,5
43924,97989,5
43914,97962,4
43893,97923,5
43869,97852,5
43836,97762,5
43775,97665,5
43728,97573,4
43691,97495,5
43664,97433,5
43639,97389,5
43624,97369,5
43625,97383,4
43639,97405,5
43648,97445,5
43668,97490,5
43697,97555,5
43735,97627,5
43768,97690,4
43795,97738,5
43821,97793,5
43849,97843,4
43867,97871,5
43871,97880,5
43875,97864,5
43842,97789,5
43770,97657,4
43713,97540,5
43679,97494,5
43676,97474,5
43680,97466,5
43675,97481,4
43685,97502,5
43697,97526,5
43710,97545,5
43720,97570,5
43745,97622,4
43764,97666,5
43794,97727,5
43825,97789,5
43832,97849,5
43888,97905,4
43918,97970,5
43949,98030,5
43935,98075,5
43997,98123,4
44014,98153,4
44036,98177,5
43990,98209,5
44057,98227,5
44063,98231,4
44068,98239,5
44061,98249,5
44072,98247,5
44081,98261,5
44086,98287,4
44154,98316,5
44114,98318,5
44109,98299,5
44086,98280,5
44149,98258,4
44072,98239,5
44065,98218,5
44058,98212,6
44076,98196,4
44047,98182,4
44041,98161,5
44027,98137,6
44013,98118,4
44006,98094,4
43993,98074,4
43989,98086,5
43992,98071,5
43997,98110,5
44014,98137,4
44032,98165,5
44049,98156,5
44081,98262,5
44106,98322,5
44143,98390,5
44178,98422,4
44229,98568,5
44275,98655,5
44332,98755,5
44386,98873,4
44427,98955,5
44483,99046,5
44528,99145,5
44572,99272,5
44609,99279,4
44637,99340,5
44660,99383,5
44664,99456,5
44665,99388,5
44654,99369,4
44650,99349,5
44635,99339,5
44618,99275,5
44595,99246,4
44571,99198,5
44560,99185,5
44558,99170,5
44563,99182,5
44573,99193,4
44580,99216,5
44595,99258,5
44609,99300,5
44643,99341,5
44657,99379,4
44676,99430,5
44719,99517,5
44755,99576,5
44764,99608,5
44779,99613,5
44763,99553,4
44704,99446,5
44662,99343,5
44624,99291,5
44612,99276,4
44602,99260,5
44607,99262,5
44620,99276,5
44620,99298,4
44630,99320,4
44636,99331,5
44649,99348,5
44664,99387,5
44684,99420,4
44704,99458,5
44719,99500,5
44737,99538,5
44752,99567,5
44781,99611,4
44806,99640,5
44833,99703,5
44844,99744,4
44869,99767,5
44876,99802,4
44894,99834,7
44910,99845,3
44921,99866,5
44922,99881,5
44936,99901,4
44946,99936,5
44976,99989,5
44995,100043,5
45002,100033,5
44998,100018,4
44985,100011,5
44984,99982,5
44971,99969,5
44962,99941,4
44945,99906,5
44929,99896,5
44914,99844,5
44897,99810,5
44867,99760,4
44834,99687,5
44792,99599,5
44744,99519,6
44698,99452,4
44666,99394,4
44648,99346,5
44635,99325,5
44615,99301,5
44616,99295,5
44615,99292,4
44607,99288,5
44615,99287,5
44622,99298,5
44623,99313,5
44631,99333,4
44642,99350,5
44652,99376,5
44665,99395,5
44674,99406,4
44682,99437,5
44688,99433,5
44694,99433,5
44687,99421,5
44668,99401,5
44631,99359,4
44622,99309,5
44590,99230,5
44543,99145,6
44453,99041,3
44449,98947,5
44404,98872,5
44360,98788,5
44279,98747,5
44318,98713,4
44309,98712,5
44305,98717,5
44289,98710,5
44302,98708,5
44308,98719,4
44314,98744,5
44363,98763,5
44335,98769,5
44326,98747,4
44293,98664,4
44282,98498,5
44138,98337,5
44076,98233,5
44032,98151,4
44047,98092,6
43991,98070,4
43974,98042,5
43967,98035,5
43976,98026,6
43957,98010,3
43958,98021,5
43960,98027,5
43966,98007,5
43974,98046,4
43986,98068,5
43991,98086,5
43997,98058,5
44012,98127,5
44025,98150,4
44028,98180,5
44043,98136,5
44051,98197,5
44052,98209,4
44057,98234,5
44054,98226,4
44058,98222,5
44054,98224,5
44058,98214,4
44059,98269,5
44064,98234,6
44064,98244,4
44066,98246,5
44059,98289,4
44046,98195,5
44045,98185,5
44031,98161,5
44015,98169,5
43997,98104,4
43984,98081,5
43972,98051,5
43941,98007,5
43933,97952,5
43899,97892,4
43863,97818,5
43818,97724,5
43765,97634,5
43731,97567,5
43708,97502,4
43675,97462,5
43665,97435,5
43658,97417,5
43645,97411,4
43647,97426,5
43654,97414,5
43658,97438,6
43652,97453,4
43675,97473,4
43677,97479,5
43691,97518,5
43703,97548,5
43720,97577,5
43739,97596,4
43748,97634,5
43755,97651,5
43778,97675,5
43791,97695,5
43797,97725,4
43799,97727,5
43816,97751,5
43818,97751,5
43815,97754,5
43805,97740,4
43804,97737,5
43787,97684,5
43756,97612,5
43709,97499,5
43611,97297,4
43492,97057,5
43362,96810,5
43248,96575,6
43142,96385,3
43066,96243,5
43014,96167,5
42999,96138,5
42995,96147,5
43007,96176,4
43042,96252,5
43091,96335,5
43139,96449,5
43197,96562,5
43256,96693,4
43322,96829,5
43385,96939,5
43445,97069,5
43501,97173,5
43541,97242,4
43547,97232,5
43493,97104,5
43408,96948,5
43346,96805,4
43290,96703,5
43240,96616,4
43215,96560,5
43203,96542,5
43191,96531,4
43190,96525,5
43189,96532,5
43194,96535,5
43189,96546,5
43212,96565,4
43218,96591,5
43241,96630,5
43256,96679,5
43278,96703,5
43295,96743,4
43311,96760,5
43322,96799,5
43328,96821,5
43342,96847,5
43357,96864,4
43356,96877,5
43354,96884,5
43369,96894,5
43362,96897,5
43374,96895,4
43325,96892,6
43361,96894,4
43371,96889,5
43372,96885,4
43317,96906,5
43375,96912,5
43378,96922,5
43372,96903,5
43345,96900,4
43364,96881,5
43360,96855,5
43347,96844,5
43378,96828,5
43334,96808,4
43319,96787,5
43305,96760,5
43354,96733,5
43277,96693,5
43240,96631,4
43220,96586,5
43241,96544,5
43192,96509,5
43166,96493,5
43164,96464,4
43152,96447,5
43144,96431,6
43132,96414,4
43128,96406,4
43135,96396,5
43128,96422,5
43135,96432,5
43141,96439,5
43146,96399,4
43159,96471,5
43163,96488,5
43182,96517,5
43192,96490,5
43202,96578,4
43220,96605,5
43233,96632,5
43244,96645,5
43246,96669,5
43257,96673,4
43267,96686,5
43270,96753,5
43270,96711,5
43276,96720,5
43280,96712,4
43279,96781,5
43278,96695,5
43263,96685,5
43266,96677,4
43244,96680,4
43229,96611,5
43210,96561,5
43179,96496,5
43124,96376,4
43039,96205,5
42935,96006,5
42845,95794,5
42724,95566,7
42622,95353,2
42540,95172,5
42455,95042,5
42407,94953,5
42381,94912,5
42374,94916,4
42388,94952,5
42412,94988,5
42441,95068,5
42481,95149,5
42521,95249,5
42574,95357,4
42618,95462,5
42665,95536,5
42707,95616,4
42745,95677,4
42780,95768,5
42820,95824,5
42818,95842,5
42797,95781,4
42743,95624,5
42662,95474,5
42607,95364,5
42558,95289,5
42542,95240,4
42524,95225,5
42529,95226,5
42524,95222,5
42523,95237,5
42529,95252,4
42538,95255,5
42545,95272,5
42558,95299,5
42567,95329,5
42588,95369,4
42606,95416,6
42636,95464,4
42643,95496,5
42668,95538,5
42698,95577,4
42704,95604,5
42715,95624,5
42727,95650,5
42736,95666,4
42739,95679,5
42750,95681,5
42758,95706,5
42760,95709,5
42760,95722,4
42769,95725,5
42768,95713,5
42765,95720,5
42765,95732,5
42780,95749,4
42770,95747,5
42770,95741,5
42762,95713,5
42763,95709,5
42749,95698,4
42754,95670,5
42742,95662,5
42731,95655,5
42733,95640,5
42725,95619,4
42719,95597,5
42698,95583,5
42693,95569,5
42682,95552,4
42675,95531,4
42664,95509,5
42658,95494,5
42650,95477,5
42636,95453,4
42636,95447,5
42628,95440,5
42632,95450,5
42642,95457,5
42642,95471,4
42642,95488,5
42658,95506,5
42628,95534,5
42686,95554,5
42696,95600,4
42716,95626,5
42673,95660,5
42737,95680,5
42770,95709,5
42778,95734,4
42740,95762,5
42790,95769,5
42793,95793,5
42800,95801,5
42833,95813,4
42810,95804,5
42816,95814,5
42812,95811,5
42873,95802,4
42798,95794,5
42805,95777,5
42790,95768,5
42822,95754,5
42770,95732,4
42764,95704,5
42749,95692,5
42764,95656,5
42726,95654,5
42723,95627,6
42719,95608,3
42705,95574,5
42695,95582,5
42694,95546,5
42678,95530,4
42655,95457,5
42650,95464,5
42618,95403,5
42580,95319,5
42520,95143,4
42456,95052,5
42370,94881,5
42287,94711,5
42201,94508,4
42134,94393,4
42068,94291,5
42041,94210,5
42014,94213,5
42009,94173,4
42024,94202,5
42045,94245,6
42071,94395,4
42115,94413,5
42164,94514,4
42201,94619,7
42249,94747,3
42293,94783,5
42317,94826,5
42349,94884,4
42372,94936,5
42380,94947,5
42372,94914,5
42316,94798,5
42230,94630,4
42169,94475,5
42124,94395,5
42098,94360,5
42087,94330,4
42077,94326,4
42074,94327,5
42083,94336,5
42088,94355,5
42101,94364,4
42102,94390,5
42114,94420,5
42138,94463,6
42151,94503,4
42183,94555,4
42199,94588,5
42220,94640,5
42245,94688,5
42272,94723,5
42279,94750,4
42293,94774,5
42303,94811,5
42312,94819,5
42330,94839,5
42327,94848,4
42341,94869,5
42345,94878,5
42349,94884,5
42344,94872,5
42335,94876,4
42337,94871,5
42339,94868,5
42339,94874,5
42341,94875,5
42327,94844,4
42315,94815,5
42302,94779,5
42286,94743,6
42255,94698,3
42245,94667,5
42228,94638,5
42217,94608,5
42187,94554,5
42170,94492,4
42133,94446,5
42114,94412,5
42109,94369,5
42088,94346,5
42083,94329,4
42072,94304,5
42061,94296,5
42066,94290,5
42066,94297,5
42062,94303,4
42080,94316,5
42081,94347,5
42092,94367,5
42108,94387,4
42118,94426,6
42137,94448,4
42153,94487,5
42161,94519,5
42185,94558,6
42199,94590,3
42211,94617,5
42234,94654,5
42242,94684,5
42247,94703,4
42271,94732,5
42282,94760,5
42287,94765,5
42298,94784,5
42310,94814,4
42319,94820,5
42322,94840,5
42332,94864,5
42335,94873,5
42335,94880,4
42352,94888,5
42341,94891,5
42356,94892,5
42316,94893,4
42359,94906,5
42361,94895,6
42348,94913,4
42308,94916,5
42357,94925,4
42376,94943,5
42379,94950,5
42353,94976,5
42403,95005,5
42411,95008,4
42415,95015,5
42448,95028,5
42415,95008,5
42403,94988,5
42387,94953,4
42424,94913,5
42341,94854,5
42326,94809,5
42294,94766,5
42325,94734,4
42270,94710,5
42271,94713,5
42273,94727,5
42298,94765,4
42311,94816,4
42344,94882,5
42388,94988,6
42448,95090,4
42509,95224,4
42572,95345,5
42620,95451,5
42674,95502,5
42700,95607,5
42720,95653,4
42741,95667,5
42739,95608,5
42724,95612,5
42669,95491,5
42596,95354,5
42548,95272,4
42533,95249,5
42535,95242,5
42536,95257,5
42544,95316,4
42570,95298,5
42575,95338,5
42594,95371,5
42618,95483,5
42636,95480,4
42672,95550,5
42714,95632,5
42747,95742,6
42799,95798,3
42851,95902,5
42892,95976,5
42929,96065,5
42968,96132,5
43016,96214,4
43041,96266,5
43063,96325,5
43087,96371,5
43118,96394,5
43131,96426,4
43142,96462,5
43154,96469,5
43153,96478,5
43153,96479,5
43159,96483,4
43159,96480,5
43164,96495,5
43167,96508,5
43161,96492,5
43149,96474,5
43138,96434,4
43120,96401,5
43106,96385,5
43095,96355,4
43077,96328,5
43071,96304,5
43059,96276,5
43045,96252,5
43032,96227,4
43019,96211,5
43018,96207,5
43021,96206,5
43020,96214,5
43033,96220,4
43038,96252,5
43057,96274,5
43074,96306,5
43090,96361,5
43117,96409,4
43147,96486,5
43186,96549,5
43221,96636,5
43268,96729,5
43317,96823,4
43359,96906,6
43410,96988,4
43443,97066,5
43491,97149,4
43522,97210,4
43554,97262,5
43573,97308,5
43599,97341,5
43618,97385,4
43625,97398,5
43631,97413,5
43641,97428,5
43646,97424,5
43636,97405,4
43626,97382,5
43595,97318,5
43557,97234,5
43520,97159,5
43471,97064,4
43438,96987,5
43394,96919,5
43372,96884,5
43361,96864,5
43359,96868,4
43367,96877,5
43384,96909,6
43402,96951,4
43424,97025,4
43461,97095,4
43505,97171,5
43541,97237,5
43557,97262,5
43567,97302,4
43590,97323,5
43596,97333,5
43589,97324,5
43585,97296,5
43568,97254,4
43526,97160,5
43448,97005,5
43369,96849,5
43334,96780,5
43311,96740,5
43267,96733,4
43298,96739,5
43300,96750,5
43317,96780,5
43271,96815,4
43353,96850,5
43380,96910,5
43409,96961,5
43383,97039,5
43478,97112,4
43524,97195,5
43559,97275,5
43622,97344,5
43640,97413,4
43668,97479,5
43697,97524,5
43774,97569,5
43736,97600,5
43739,97635,4
43759,97645,5
43822,97658,5
43774,97671,5
43775,97680,5
43777,97685,4
43812,97697,5
43790,97700,5
43813,97742,5
43820,97773,5
43833,97775,5
43830,97765,4
43818,97754,5
43816,97751,5
43813,97699,5
43814,97723,4
43803,97709,5
43787,97701,5
43777,97613,5
43772,97655,4
43754,97620,4
43739,97604,5
43740,97545,5
43739,97580,5
43738,97582,4
43744,97603,6
43752,97657,4
43761,97644,5
43785,97699,5
43807,97729,4
43832,97873,5
43876,97889,5
43927,97990,5
43980,98087,5
44029,98255,4
44089,98310,6
44142,98432,4
44205,98538,6
44265,98647,4
44316,98734,4
44366,98816,5
44399,98897,5
44440,98958,5
44456,99004,5
44490,99053,4
44506,99079,5
44515,99101,5
44516,99103,5
44504,99076,4
44488,99031,5
44466,98980,5
44427,98901,5
44387,98819,5
44342,98745,4
44306,98675,5
44279,98609,5
44246,98568,5
44237,98545,5
44231,98550,4
44242,98553,5
44248,98583,5
44270,98629,5
44305,98684,5
44324,98737,4
44355,98795,5
44382,98839,5
44409,98898,5
44434,98953,5
44453,98978,4
44466,98995,5
44458,98981,5
44427,98899,5
44359,98757,4
44292,98633,5
44257,98584,5
44231,98531,5
44220,98517,5
44220,98497,4
44218,98517,5
44224,98519,5
44223,98539,5
44237,98553,5
44241,98575,4
44262,98620,5
44280,98656,5
44307,98696,5
44320,98731,5
44351,98773,4
44370,98810,5
44381,98832,5
44394,98864,5
44406,98896,5
44421,98919,4
44431,98927,5
44432,98939,5
44437,98940,5
44439,98928,4
44438,98924,4
44426,98920,5
44421,98902,5
44413,98908,5
44420,98896,4
44422,98906,6
44420,98917,4
44424,98902,5
44404,98869,5
44390,98834,6
44370,98809,3
44348,98774,5
44336,98748,5
44311,98698,5
44293,98656,4
44268,98616,5
44243,98555,5
44211,98483,5
44167,98411,5
44123,98310,4
44077,98222,5
44042,98152,5
44010,98109,5
43996,98074,5
43980,98048,4
43972,98039,5
43951,98034,5
43971,98040,5
43977,98041,4
43975,98060,5
43946,98073,6
43986,98089,4
44005,98116,5
44021,98129,4
43970,98152,6
44037,98200,3
44054,98231,5
44068,98256,5
44071,98279,4
44097,98302,5
44102,98303,5
44104,98317,5
44159,98323,5
44110,98331,4
44108,98316,5
44108,98311,5
44163,98284,5
44075,98252,5
44048,98192,4
44007,98086,5
43962,97923,5
43826,97708,5
43694,97449,4
43565,97197,5
43446,96943,5
43318,96724,6
43232,96554,4
43167,96457,4
43133,96348,5
43113,96354,5
43117,96370,5
43138,96414,5
43156,96428,4
43204,96552,5
43231,96640,5
43277,96730,5
43326,96778,5
43374,96928,4
43422,97016,5
43466,97087,5
43476,97128,5
43478,97118,5
43456,97035,4
43372,96853,5
43269,96727,5
43213,96550,5
43171,96462,5
43126,96398,4
43115,96424,5
43097,96354,5
43099,96355,6
43110,96373,3
43115,96402,5
43129,96410,5
43136,96442,5
43153,96463,5
43178,96518,4
43195,96559,5
43225,96598,5
43237,96652,5
43260,96688,5
43282,96733,4
43298,96765,5
43320,96789,5
43328,96817,5
43336,96835,5
43343,96843,4
43357,96863,5
43348,96864,5
43357,96877,5
43356,96865,4
43356,96870,6
43360,96874,4
43352,96863,5
43359,96869,5
43362,96880,6
43361,96878,3
43360,96863,5
43348,96847,5
43335,96819,5
43323,96798,4
43309,96780,5
43289,96736,5
43282,96695,5
43259,96668,5
43239,96633,4
43224,96589,5
43194,96531,5
43173,96467,5
43141,96415,5
43105,96364,4
43092,96322,5
43074,96309,5
43071,96308,5
43072,96303,4
43074,96309,5
43072,96310,6
43091,96327,4
43093,96342,5
43104,96376,4
43111,96390,5
43128,96427,5
43146,96463,5
43160,96499,5
43172,96545,4
43206,96586,5
43212,96614,5
43246,96650,5
43256,96682,5
43267,96712,4
43280,96732,5
43290,96754,5
43302,96771,5
43304,96791,5
43326,96796,4
43317,96804,5
43323,96805,5
43320,96799,5
43314,96792,4
43310,96785,5
43299,96773,5
43295,96754,6
43286,96719,4
43272,96703,4
43258,96671,5
43243,96647,5
43221,96607,5
43200,96545,5
43163,96476,4
43116,96374,5
43056,96243,5
42975,96058,5
42879,95861,5
42758,95634,4
42644,95407,5
42535,95188,5
42449,95026,5
42355,94890,5
42345,94812,4
42314,94770,5
42314,94789,5
42277,94831,5
42347,94886,5
42393,94959,4
42448,95067,5
42435,95182,5
42555,95306,6
42602,95425,3
42671,95533,5
42714,95626,5
42750,95701,5
42786,95763,5
42796,95789,4
42841,95753,5
42747,95648,5
42652,95442,5
42551,95240,5
42529,95102,4
42415,95004,5
42383,94916,5
42359,94863,5
42369,94859,5
42340,94846,4
42343,94860,5
42344,94868,5
42358,94889,5
42374,94928,4
42393,94965,6
42403,95014,4
42426,95024,5
42457,95117,5
42484,95155,4
42507,95213,5
42519,95197,5
42539,95286,5
42562,95318,5
42561,95341,5
42573,95319,4
42577,95368,5
42591,95378,5
42600,95401,5
42606,95440,4
42599,95417,5
42606,95400,5
42601,95408,5
42607,95456,5
42598,95399,4
42606,95398,5
42601,95419,5
42617,95475,5
42616,95429,4
42609,95401,5
42601,95390,6
42593,95407,4
42594,95379,5
42581,95355,4
42574,95343,5
42569,95331,5
42559,95321,5
42565,95293,5
42539,95271,4
42543,95243,5
42521,95225,5
42511,95204,5
42503,95193,5
42501,95178,4
42499,95169,5
42487,95167,5
42494,95166,5
42492,95160,5
42486,95170,4
42494,95163,5
42490,95178,5
42510,95192,5
42513,95200,4
42518,95227,5
42534,95256,5
42539,95278,6
42541,95289,4
42553,95308,4
42571,95341,5
42583,95352,5
42581,95367,5
42597,95375,5
42602,95389,4
42608,95405,5
42611,95405,5
42608,95429,5
42612,95412,5
42617,95415,4
42614,95410,5
42601,95412,5
42610,95401,5
42596,95385,4
42598,95382,4
42594,95371,5
42583,95358,5
42578,95346,5
42580,95332,5
42561,95304,4
42560,95289,5
42543,95257,5
42533,95260,5
42524,95240,4
42515,95215,5
42510,95187,5
42489,95163,5
42480,95124,5
42443,95053,4
42413,94985,5
42359,94868,5
42294,94730,5
42222,94559,5
42128,94385,4
42057,94231,5
41988,94092,5
41936,93996,5
41892,93921,4
41879,93887,4
41877,93885,5
41890,93926,5
41918,93975,5
41945,94047,4
41987,94146,6
42033,94247,4
42088,94355,5
42138,94477,5
42195,94580,4
42234,94654,5
42262,94717,5
42278,94753,5
42285,94771,5
42289,94753,4
42272,94703,5
42218,94616,5
42150,94447,5
42063,94272,5
42014,94188,4
41957,94146,5
41990,94118,5
41984,94114,5
41979,94113,4
41936,94141,4
41997,94155,5
42010,94187,5
42028,94220,5
42010,94258,4
42061,94314,5
42094,94369,6
42124,94430,4
42183,94498,5
42173,94545,4
42200,94599,5
42219,94646,5
42304,94685,5
42270,94720,5
42281,94760,4
42291,94783,5
42347,94804,5
42316,94825,5
42322,94833,5
42332,94841,4
42347,94854,5
42343,94863,5
42332,94870,5
42330,94843,5
42326,94830,4
42327,94854,5
42344,94874,5
42338,94862,6
42331,94800,3
42316,94827,5
42310,94792,5
42295,94767,5
42283,94691,5
42271,94723,4
42261,94697,5
42248,94665,5
42230,94653,5
42213,94599,5
42183,94561,4
42179,94518,5
42164,94550,5
42156,94473,5
42147,94459,5
42141,94447,4
42134,94499,5
42128,94438,8
42130,94437,2
42120,94446,4
42139,94481,5
42139,94471,4
42155,94483,5
42160,94512,5
42173,94540,6
42180,94553,3
42195,94564,5
42208,94588,5
42207,94615,5
42223,94632,4
42237,94652,5
42241,94669,5
42251,94686,5
42252,94687,5
42255,94700,4
42260,94703,5
42260,94700,5
42251,94693,5
42251,94688,5
42245,94685,4
42241,94677,5
42240,94657,5
42230,94629,5
42209,94612,4
42202,94581,4
42187,94558,6
42177,94532,4
42168,94501,5
42156,94462,4
42133,94431,7
42116,94403,3
42110,94377,5
42084,94339,5
42069,94326,4
42057,94281,5
42053,94260,5
42028,94231,5
42023,94209,5
42007,94173,4
41989,94139,5
41981,94124,5
41965,94084,5
41941,94034,5
41919,93984,4
41881,93902,5
41833,93791,5
41766,93657,5
41695,93502,4
41620,93325,4
41532,93145,5
41447,92985,6
41383,92852,4
41327,92754,4
41290,92678,5
41273,92654,5
41273,92650,5
41288,92673,5
41303,92711,4
41328,92777,5
41366,92855,5
41392,92928,5
41423,92998,5
41462,93055,4
41474,93098,5
41492,93118,5
41489,93120,5
41485,93104,5
41476,93093,4
41467,93071,5
41436,92998,5
41404,92890,5
41325,92733,5
41253,92612,4
41217,92539,5
41205,92511,5
41198,92507,6
41192,92511,3
41198,92526,5
41203,92555,5
41233,92581,5
41253,92641,5
41273,92691,4
41295,92759,5
41330,92836,5
41378,92907,5
41383,93003,5
41451,93094,4
41501,93174,5
41532,93249,5
41507,93299,5
41589,93364,5
41619,93410,4
41638,93466,5
41610,93505,5
41687,93560,5
41708,93608,4
41730,93657,6
41762,93704,4
41771,93744,5
41791,93774,5
41806,93817,6
41880,93842,3
41844,93886,5
41870,93940,5
41894,94002,5
41975,94039,4
41931,94039,5
41917,94046,5
41925,94043,5
41948,94055,5
41927,94051,4
41931,94043,5
41931,94050,5
41935,94034,5
41925,94039,5
41924,94028,4
41933,94034,5
41928,94004,5
41937,94061,5
41941,94080,4
41959,94108,4
41973,94090,6
41990,94182,4
42012,94228,5
42042,94290,5
42075,94328,4
42107,94421,5
42149,94501,5
42176,94579,5
42218,94703,4
42256,94739,5
42299,94812,5
42335,94896,5
42361,95023,5
42397,95032,4
42439,95079,5
42463,95136,5
42483,95224,5
42504,95233,5
42535,95272,4
42549,95302,5
42560,95340,5
42573,95368,5
42581,95374,4
42584,95387,5
42594,95402,5
42600,95406,6
42600,95405,4
42600,95397,4
42588,95369,5
42569,95342,5
42549,95303,5
42522,95240,5
42495,95174,4
42458,95110,5
42435,95042,5
42407,94978,5
42373,94935,5
42369,94909,4
42353,94894,5
42352,94898,5
42361,94912,5
42375,94929,5
42388,94974,4
42411,95028,5
42441,95092,5
42460,95146,5
42495,95187,5
42505,95210,4
42510,95222,5
42511,95222,5
42502,95210,6
42506,95199,3
42488,95162,5
42475,95117,5
42438,95041,5
42373,94902,5
42303,94788,4
42267,94715,5
42268,94712,5
42259,94709,5
42261,94723,5
42282,94756,4
42303,94794,5
42324,94838,5
42354,94918,5
42390,94998,5
42444,95082,4
42488,95192,5
42537,95290,5
42587,95398,5
42636,95492,4
42680,95583,6
42720,95677,4
42778,95759,5
42812,95832,5
42845,95885,4
42875,95935,5
42885,95973,5
42906,95996,5
42920,96031,5
42939,96043,4
42947,96069,5
42948,96085,5
42959,96102,5
42965,96101,5
42968,96123,4
42981,96143,5
42995,96168,5
42998,96168,5
42988,96143,5
42979,96108,4
42962,96071,5
42939,96060,5
42922,96008,5
42908,95978,4
42893,95943,5
42873,95902,6
42845,95867,4
42836,95838,5
42819,95797,4
42806,95781,5
42783,95768,5
42790,95770,5
42800,95777,5
42801,95785,4
42780,95818,5
42838,95848,5
42860,95904,5
42884,95967,5
42868,96028,4
42958,96103,5
42987,96187,5
43039,96276,5
43068,96356,5
43129,96455,4
43182,96552,5
43221,96642,5
43310,96728,5
43324,96806,4
43359,96871,5
43385,96933,5
43470,96973,6
43427,97024,4
43446,97048,4
43453,97060,5
43497,97055,5
43448,97039,5
43421,96993,5
43412,96959,4
43386,96872,5
43332,96793,5
43286,96694,5
43231,96594,5
43194,96481,4
43160,96445,5
43131,96399,5
43113,96374,5
43109,96315,5
43106,96369,4
43118,96401,5
43146,96445,5
43165,96435,5
43190,96548,5
43217,96612,4
43245,96630,5
43252,96664,5
43253,96665,5
43259,96668,4
43255,96655,5
43243,96701,5
43237,96620,5
43206,96549,5
43156,96424,4
43082,96346,5
43036,96196,5
43022,96170,5
43009,96159,5
43004,96190,4
43020,96202,5
43045,96230,5
43057,96278,5
43089,96356,5
43133,96442,4
43182,96536,5
43240,96651,5
43299,96752,5
43352,96875,4
43411,96983,6
43464,97086,4
43511,97178,5
43569,97282,5
43621,97367,4
43652,97441,5
43680,97498,5
43701,97537,5
43721,97565,5
43729,97595,4
43745,97613,5
43764,97630,5
43772,97657,5
43778,97672,5
43782,97692,4
43794,97713,5
43811,97745,5
43846,97802,5
43855,97817,4
43854,97801,4
43840,97800,5
43842,97787,5
43836,97768,5
43831,97765,4
43828,97755,5
43823,97738,6
43814,97730,4
43804,97696,5
43790,97680,4
43773,97653,5
43759,97629,5
43748,97601,5
43739,97595,5
43736,97582,4
43748,97599,5
43750,97622,5
43763,97639,5
43776,97675,5
43794,97725,4
43827,97781,5
43861,97846,5
43896,97921,5
43942,98017,4
43983,98103,4
44043,98214,5
44095,98314,5
44149,98404,5
44192,98495,4
44230,98573,5
44267,98637,5
44288,98680,5
44303,98710,5
44320,98726,4
44315,98716,5
44296,98693,5
44275,98642,5
44250,98571,5
44209,98505,4
44176,98425,5
44136,98343,5
44097,98275,5
44064,98232,5
44047,98190,4
44035,98166,5
44034,98169,5
44047,98181,5
44058,98205,4
44066,98226,5
44077,98250,4
44079,98261,5
44092,98298,5
44108,98320,6
44125,98342,3
44128,98356,5
44123,98354,5
44080,98316,5
44080,98219,4
44000,98046,5
43905,97872,5
43781,97767,5
43797,97682,5
43762,97612,4
43735,97572,5
43675,97558,5
43725,97544,5
43714,97552,5
43726,97556,4
43740,97571,5
43735,97599,5
43751,97622,5
43767,97648,4
43832,97683,4
43797,97708,6
43812,97735,4
43816,97767,5
43891,97793,4
43851,97813,7
43850,97829,3
43864,97842,5
43893,97850,5
43873,97858,4
43872,97869,5
43870,97865,5
43883,97861,5
43868,97854,5
43862,97843,4
43862,97834,5
43862,97790,5
43855,97828,5
43869,97846,5
43866,97835,4
43855,97744,5
43832,97779,5
43827,97743,5
43803,97704,5
43779,97643,4
43762,97631,5
43739,97570,6
43714,97529,4
43678,97481,4
43638,97381,5
43591,97289,5
43542,97188,5
43492,97158,5
43446,97000,4
43415,96945,5
43380,96889,5
43361,96900,6
43356,96846,4
43356,96834,4
43352,96832,5
43347,96847,5
43358,96846,5
43365,96868,5
43364,96889,4
43378,96902,5
43387,96930,5
43414,96973,5
43431,97014,5
43448,97035,4
43460,97071,5
43468,97091,5
43487,97115,6
43489,97134,3
43511,97149,5
43515,97165,5
43515,97168,5
43526,97177,5
43521,97173,4
43515,97161,5
43491,97125,5
43463,97046,5
43412,96927,5
43326,96743,4
43218,96522,5
43092,96288,5
42984,96061,5
42878,95869,5
42803,95718,4
42737,95618,5
42713,95555,5
42703,95551,5
42711,95571,5
42725,95625,5
42760,95697,4
42811,95789,5
42854,95887,5
42894,95991,6
42956,96103,3
43011,96198,5
43046,96281,5
43089,96373,5
43119,96431,4
43138,96450,5
43124,96426,5
43094,96333,5
42997,96136,5
42913,95938,4
42836,95813,5
42791,95728,5
42758,95662,5
42732,95637,5
42730,95617,4
42726,95618,5
42740,95626,5
42743,95646,5
42755,95673,5
42766,95701,4
42786,95737,6
42805,95780,4
42820,95828,5
42843,95877,4
42868,95928,5
42901,95973,5
42914,96010,5
42935,96048,5
42947,96079,4
42964,96112,5
42982,96135,5
42993,96158,5
42998,96176,5
43019,96202,4
43020,96203,5
43023,96207,5
43027,96206,5
43021,96208,5
43025,96200,4
43015,96211,5
43019,96202,5
43029,96206,5
43022,96227,5
43028,96224,4
43019,96208,5
43012,96195,6
43011,96185,4
42995,96169,4
42953,96160,5
42990,96144,5
42978,96117,5
42963,96096,5
42899,96065,4
42938,96042,5
42933,96007,5
42910,95977,5
42840,95947,5
42877,95920,4
42873,95908,5
42860,95891,5
42878,95880,5
42853,95874,5
42851,95873,4
42858,95878,5
42920,95889,5
42865,95894,5
42869,95909,5
42878,95928,4
42940,95956,5
42910,95980,5
42914,96017,6
42927,96041,3
42957,96069,5
42953,96089,5
42962,96118,5
42981,96127,5
42990,96141,4
42986,96172,5
42996,96177,5
42997,96174,5
43007,96130,5
42990,96168,4
42995,96164,5
42992,96161,5
42994,96089,5
42992,96142,5
42980,96126,4
42972,96109,5
42966,96071,5
42959,96077,5
42951,96061,5
42934,96025,5
42919,96041,4
42892,95968,5
42892,95933,5
42868,95896,4
42859,95935,5
42844,95845,5
42829,95815,5
42807,95792,5
42800,95800,4
42777,95728,5
42760,95674,5
42717,95602,5
42667,95495,5
42593,95305,4
42475,95065,5
42342,94784,5
42205,94512,5
42066,94243,5
41965,94046,4
41892,93901,5
41833,93803,5
41817,93754,5
41807,93752,5
41818,93776,4
41838,93843,6
41878,93919,4
41924,94027,5
41989,94156,4
42059,94315,5
42137,94482,5
42215,94637,5
42284,94766,5
42321,94874,4
42370,94945,5
42397,94974,5
42386,94975,5
42371,94922,5
42330,94812,4
42226,94582,5
42105,94337,5
42009,94151,5
41960,94036,5
41910,93956,4
41879,93898,5
41864,93886,5
41867,93886,5
41861,93910,5
41874,93936,4
41891,93976,5
41917,94021,6
41930,94063,4
41966,94116,4
41996,94186,5
42026,94252,5
42059,94330,5
42087,94367,5
42112,94431,4
42139,94478,5
42158,94515,5
42171,94543,5
42187,94576,5
42194,94595,4
42210,94621,5
42216,94638,5
42224,94644,5
42224,94662,5
42226,94663,4
42229,94661,5
42239,94665,5
42233,94679,5
42236,94687,5
42233,94683,4
42241,94700,5
42259,94738,5
42261,94736,5
42262,94725,4
42250,94707,5
42252,94690,5
42241,94699,5
42242,94679,5
42234,94671,4
42222,94648,5
42222,94639,5
42216,94617,5
42200,94597,5
42197,94587,4
42193,94576,5
42179,94551,5
42173,94540,5
42170,94529,5
42157,94530,4
42170,94519,5
42158,94517,5
42151,94516,5
42162,94508,5
42159,94514,5
42164,94525,4
42127,94533,5
42180,94549,5
42181,94563,4
42184,94579,4
42137,94596,5
42207,94615,5
42221,94636,5
42235,94653,4
42206,94675,5
42247,94695,5
42253,94693,5
42248,94704,5
42292,94718,4
42254,94704,5
42255,94709,5
42254,94703,5
42306,94703,5
42255,94693,4
42249,94693,5
42238,94668,6
42285,94663,4
42228,94645,5
42229,94638,4
42212,94621,6
42221,94601,4
42194,94575,5
42180,94567,4
42175,94544,5
42169,94496,5
42160,94501,5
42152,94491,5
42142,94464,4
42128,94408,5
42122,94443,5
42119,94416,5
42111,94389,5
42098,94317,4
42084,94347,5
42080,94330,5
42057,94309,5
42057,94276,5
42036,94249,4
42018,94204,5
41981,94124,5
41932,94073,5
41875,93885,5
41801,93732,4
41726,93565,5
41643,93458,5
41569,93255,5
41508,93133,4
41462,93035,5
41437,93017,5
41420,92962,5
41407,92952,5
41426,92988,4
41443,93050,5
41477,93115,5
41526,93202,5
41564,93297,5
41606,93388,4
41660,93488,5
41694,93578,5
41720,93619,5
41739,93648,5
41740,93648,5
41730,93640,4
41719,93604,5
41692,93566,5
41664,93479,6
41606,93325,3
41532,93189,5
41492,93132,5
41487,93101,5
41482,93087,4
41475,93098,5
41480,93118,5
41502,93138,5
41500,93167,5
41524,93210,4
41547,93271,5
41571,93327,5
41604,93412,5
41642,93482,5
41676,93557,4
41732,93636,5
41756,93720,5
41792,93786,5
41815,93836,5
41842,93900,4
41862,93926,6
41884,93970,4
41894,93982,5
41900,94010,5
41907,94019,6
41916,94044,3
41922,94052,5
41926,94068,5
41927,94067,4
41935,94062,5
41931,94069,5
41934,94069,5
41931,94064,5
41939,94070,4
41943,94083,5
41942,94084,5
41924,94057,5
41914,94021,5
41900,93983,4
41884,93967,5
41872,93950,5
41867,93922,5
41852,93890,5
41837,93856,4
41821,93807,5
41802,93776,6
41785,93746,4
41782,93742,5
41771,93724,4
41775,93720,5
41771,93714,5
41772,93714,5
41770,93714,4
41768,93723,5
41777,93717,5
41781,93733,5
41779,93736,5
41790,93758,4
41797,93781,5
41798,93795,5
41812,93811,5
41831,93836,5
41835,93851,4
41845,93873,5
41848,93897,5
41864,93916,5
41865,93931,5
41853,93932,4
41877,93939,5
41864,93938,5
41876,93935,6
41832,93930,4
41870,93934,4
41854,93924,5
41862,93918,5
41804,93895,5
41845,93890,4
41839,93872,5
41833,93849,5
41819,93838,5
41820,93815,5
41802,93790,4
41784,93762,5
41820,93746,5
41775,93727,5
41766,93708,5
41763,93684,4
41804,93671,5
41730,93644,5
41729,93615,5
41707,93578,5
41719,93546,5
41664,93497,4
41656,93460,5
41628,93426,5
41626,93388,6
41596,93345,3
41576,93308,5
41565,93272,5
41546,93196,5
41524,93174,4
41504,93146,5
41490,93105,5
41461,93008,5
41435,93004,5
41411,92953,4
41378,92883,5
41341,92734,5
41283,92667,5
41223,92539,5
41155,92382,5
41082,92230,4
41006,92080,5
40939,91940,5
40883,91838,5
40839,91813,4
40818,91714,6
40801,91702,8
40809,91701,1
40819,91808,5
40841,91773,4
40870,91855,5
40916,91946,5
40963,92073,5
41006,92128,4
41046,92207,5
41074,92274,5
41087,92303,5
41090,92303,5
41096,92309,4
41092,92298,5
41092,92286,5
41084,92269,5
41063,92221,5
41020,92123,4
40972,92038,5
40954,92007,5
40960,92022,5
40975,92038,5
40981,92078,4
41001,92131,5
41045,92212,6
41081,92295,4
41131,92387,5
41178,92517,4
41241,92648,5
41318,92797,5
41383,92942,5
41453,93080,4
41509,93211,5
41568,93327,5
41627,93428,5
41678,93549,5
41719,93625,4
41745,93690,5
41782,93759,5
41811,93816,5
41836,93862,5
41852,93919,4
41883,93964,5
41906,94012,5
41931,94064,5
41943,94093,5
41967,94121,4
41971,94142,5
41982,94168,5
41997,94204,6
42027,94258,4
42049,94294,4
42061,94307,5
42054,94297,5
42033,94274,5
42033,94257,4
42023,94254,4
42030,94242,5
42024,94227,5
42011,94207,5
42000,94183,4
41985,94165,5
41983,94141,5
41964,94119,5
41958,94109,5
41958,94107,4
41966,94114,5
41972,94126,5
41984,94139,5
41982,94160,5
41995,94195,5
42023,94238,4
42037,94287,5
42073,94350,5
42102,94409,5
42127,94480,4
42176,94557,5
42202,94634,5
42247,94708,5
42280,94770,4
42314,94844,4
42343,94905,5
42364,94955,5
42395,95006,5
42426,95044,4
42445,95087,5
42454,95116,5
42465,95148,5
42475,95161,5
42477,95176,4
42494,95177,5
42483,95183,5
42492,95168,5
42483,95145,5
42449,95100,4
42394,95045,6
42405,94986,4
42354,94899,5
42331,94822,5
42233,94733,4
42248,94668,5
42215,94600,5
42183,94551,5
42165,94526,4
42159,94507,4
42164,94513,5
42173,94521,5
42222,94558,5
42194,94581,4
42216,94634,5
42237,94667,5
42319,94699,5
42266,94710,5
42265,94705,4
42254,94701,5
42280,94682,5
42244,94666,5
42229,94636,5
42215,94616,4
42215,94593,5
42181,94521,6
42134,94405,4
42072,94301,5
42045,94248,4
42053,94266,5
42059,94294,5
42073,94340,5
42101,94342,4
42140,94496,4
42200,94605,5
42247,94734,5
42328,94808,5
42393,95008,4
42471,95156,5
42533,95296,5
42603,95429,5
42664,95540,5
42721,95652,4
42775,95760,5
42826,95920,5
42885,95967,5
42930,96068,5
42975,96153,4
43017,96275,5
43044,96272,5
43076,96335,5
43096,96401,5
43130,96467,4
43147,96486,5
43168,96521,5
43188,96553,5
43198,96590,4
43223,96638,4
43257,96673,5
43259,96699,5
43259,96683,5
43247,96664,4
43243,96637,5
43228,96626,5
43218,96613,5
43217,96579,5
43188,96555,4
43176,96496,5
43140,96447,5
43116,96398,5
43094,96355,5
43091,96328,5
43079,96313,4
43071,96314,5
43080,96316,5
43085,96319,5
43087,96339,4
43096,96375,5
43116,96420,5
43150,96464,5
43173,96521,4
43213,96598,4
43242,96667,5
43274,96748,5
43318,96820,5
43368,96913,4
43417,97006,5
43462,97101,5
43507,97178,5
43554,97276,5
43584,97337,4
43613,97365,5
43619,97384,5
43620,97377,5
43617,97376,5
43604,97335,4
43581,97289,6
43561,97230,4
43535,97194,5
43516,97153,5
43486,97110,4
43477,97078,5
43463,97065,5
43467,97060,5
43461,97058,4
43465,97073,4
43481,97103,5
43492,97138,5
43512,97166,5
43521,97206,4
43539,97211,5
43540,97206,5
43527,97203,5
43526,97186,5
43518,97158,4
43498,97122,5
43476,97079,5
43451,97032,5
43411,96919,5
43335,96764,4
43260,96645,5
43239,96599,5
43233,96590,5
43222,96586,5
43245,96623,4
43260,96666,5
43294,96718,5
43329,96798,5
43372,96903,5
43427,96994,4
43485,97115,5
43546,97239,5
43601,97361,5
43660,97457,4
43714,97573,5
43774,97677,5
43830,97785,5
43861,97872,5
43912,97955,4
43948,98016,4
43988,98083,5
43965,98130,5
44032,98169,5
44051,98213,3
44066,98246,5
44032,98283,5
44102,98302,5
44122,98321,5
44133,98362,4
44129,98412,5
44183,98467,5
44204,98489,5
44201,98492,5
44233,98480,4
44193,98468,5
44177,98454,5
44178,98426,5
44220,98399,4
44151,98374,5
44136,98354,5
44117,98317,5
44134,98264,5
44073,98221,4
44044,98178,6
44020,98133,4
44023,98094,5
43989,98069,5
43982,98051,6
43981,98060,3
43984,98049,5
43994,98086,5
44001,98100,5
44010,98126,4
44028,98097,5
44034,98184,5
44058,98218,5
44068,98254,5
44092,98239,4
44111,98336,5
44126,98368,5
44150,98407,5
44154,98428,4
44157,98415,5
44148,98398,5
44129,98361,5
44109,98362,5
44071,98235,4
44023,98142,5
43978,98038,6
43925,98010,4
43874,97852,5
43839,97771,4
43799,97723,5
43782,97699,5
43769,97651,5
43762,97640,5
43760,97649,4
43760,97666,5
43768,97668,5
43776,97677,5
43782,97677,5
43781,97690,4
43789,97695,5
43783,97701,5
43774,97678,5
43770,97649,4
43734,97565,5
43637,97355,5
43517,97116,5
43420,96955,5
43362,96847,4
43330,96759,5
43283,96694,5
43261,96658,6
43249,96654,4
43249,96644,4
43249,96649,5
43263,96678,5
43277,96706,5
43294,96746,5
43313,96779,4
43326,96823,5
43345,96853,5
43367,96882,5
43388,96932,5
43411,96963,4
43426,96993,5
43440,97034,5
43444,97055,5
43466,97076,4
43462,97085,5
43468,97082,5
43466,97085,5
43455,97071,5
43458,97072,5
43459,97055,4
43451,97041,5
43439,97018,5
43439,97021,6
43449,97009,3
43436,97012,5
43423,96979,5
43394,96930,5
43375,96895,5
43357,96857,4
43339,96806,5
43309,96760,5
43280,96695,5
43256,96638,5
43217,96571,4
43182,96487,5
43135,96407,5
43098,96311,5
43046,96231,4
43010,96156,5
42981,96102,5
42952,96051,5
42938,96021,5
42931,96004,4
42922,95996,6
42919,95999,4
42925,95998,5
42923,96005,5
42938,96018,4
42942,96034,5
42941,96052,5
42960,96067,5
42967,96091,5
42972,96116,4
42984,96136,5
42995,96160,5
43000,96174,5
43015,96183,5
43010,96196,4
43025,96206,5
43021,96220,5
43040,96230,5
43034,96226,4
43018,96233,5
43025,96214,5
43009,96179,5
42978,96107,5
42872,95995,4
42840,95813,5
42728,95583,6
42602,95310,4
42405,95059,5
42348,94826,4
42255,94642,5
42187,94517,5
42142,94441,5
42115,94400,5
42126,94420,4
42149,94480,5
42235,94567,5
42232,94669,5
42287,94796,5
42355,94922,4
42485,95056,5
42488,95193,5
42543,95303,5
42589,95398,4
42667,95492,5
42667,95542,5
42688,95559,5
42665,95530,5
42644,95428,4
42536,95218,5
42429,95006,5
42349,94849,6
42299,94720,4
42260,94685,4
42239,94649,5
42219,94631,5
42233,94586,5
42236,94651,5
42239,94687,4
42256,94708,5
42287,94700,5
42314,94810,5
42335,94869,5
42364,94932,5
42385,95005,4
42422,95050,7
42450,95099,3
42485,95176,4
42503,95272,5
42530,95281,5
42565,95331,5
42583,95364,5
42595,95457,5
42602,95426,4
42624,95447,5
42635,95462,5
42640,95496,5
42635,95487,4
42643,95485,5
42647,95483,5
42656,95480,5
42636,95482,5
42650,95489,4
42654,95510,5
42657,95513,5
42653,95500,5
42644,95478,5
42645,95472,4
42638,95461,5
42628,95446,5
42618,95437,5
42616,95425,4
42617,95409,5
42605,95394,5
42593,95375,5
42588,95345,5
42560,95305,4
42551,95287,6
42537,95258,4
42528,95232,5
42509,95207,5
42515,95195,4
42498,95184,5
42494,95173,5
42491,95171,5
42487,95162,5
42487,95172,4
42492,95180,5
42498,95190,5
42504,95202,5
42514,95224,5
42523,95237,4
42528,95247,5
42539,95255,5
42538,95284,5
42548,95289,4
42558,95299,5
42555,95303,5
42544,95307,5
42552,95312,5
42556,95299,4
42553,95312,5
42561,95303,6
42543,95305,4
42550,95296,5
42538,95279,4
42542,95274,5
42529,95256,5
42521,95244,5
42515,95226,5
42501,95207,4
42488,95185,5
42479,95155,5
42455,95107,5
42445,95073,5
42415,95010,4
42376,94926,5
42319,94814,5
42251,94668,5
42165,94476,4
42061,94267,5
41947,94015,5
41826,93793,5
41743,93596,5
41657,93449,4
41594,93335,5
41572,93271,5
41539,93243,5
41557,93255,5
41569,93292,4
41603,93359,5
41637,93445,5
41673,93539,5
41724,93640,5
41776,93760,4
41835,93885,5
41891,93998,5
41935,94091,5
41960,94147,4
41978,94189,4
41997,94228,5
41984,94233,5
41996,94201,5
41976,94135,4
41924,94015,6
41785,93814,4
41743,93629,5
41677,93520,5
41647,93449,5
41565,93419,4
41616,93395,5
41613,93411,5
41628,93432,5
41648,93452,4
41641,93479,5
41654,93522,5
41678,93573,5
41769,93632,5
41728,93688,4
41774,93753,5
41807,93832,5
41897,93896,5
41866,93953,5
41899,94017,4
41933,94076,5
41978,94127,5
41967,94168,5
41994,94199,4
42009,94229,5
42023,94258,5
42029,94292,5
42048,94318,5
42050,94330,4
42056,94302,6
42061,94342,4
42057,94338,5
42060,94348,5
42063,94296,4
42061,94342,5
42072,94360,5
42077,94382,5
42095,94351,5
42078,94369,4
42070,94350,5
42056,94337,5
42060,94357,5
42056,94315,4
42053,94316,4
42050,94299,5
42049,94359,5
42042,94283,5
42035,94270,4
42024,94260,5
42020,94290,5
42022,94245,5
42011,94235,5
41996,94208,4
42003,94224,5
42000,94204,5
42002,94204,5
41999,94192,5
41990,94193,4
41996,94213,5
42001,94218,5
42007,94225,5
42011,94246,5
42018,94254,4
42031,94277,5
42035,94303,5
42058,94320,5
42067,94348,5
42071,94373,4
42075,94382,5
42091,94404,5
42104,94414,5
42099,94433,4
42107,94438,4
42115,94435,5
42127,94435,5
42116,94424,5
42108,94428,3
42111,94416,5
42107,94413,5
42102,94403,5
42101,94401,5
42078,94387,4
42089,94359,5
42066,94344,5
42057,94318,5
42057,94309,5
42039,94284,4
42027,94263,5
42025,94244,5
42014,94229,5
41998,94212,5
41998,94192,4
41986,94175,5
41981,94158,5
41972,94134,5
41967,94124,4
41961,94111,6
41946,94087,4
41940,94066,5
41925,94048,5
41922,94032,6
41910,94008,3
41910,94008,5
41893,93988,5
41881,93941,5
41855,93880,4
41810,93792,5
41751,93668,5
41688,93516,5
41607,93357,5
41534,93192,4
41467,93057,5
41402,92934,5
41352,92839,5
41325,92780,5
41312,92756,4
41323,92776,5
41320,92798,5
41355,92858,5
41384,92927,4
41418,93015,5
41464,93122,6
41509,93219,4
41560,93316,5
41619,93407,4
41643,93473,7
41655,93505,3
41654,93509,5
41652,93495,5
41648,93479,4
41627,93423,5
41595,93361,5
41544,93214,5
41456,93039,5
41383,92913,4
41361,92858,5
41338,92830,5
41346,92824,5
41333,92833,5
41308,92852,4
41362,92873,5
41376,92916,5
41399,92961,5
41364,93014,4
41448,93080,5
41484,93146,5
41511,93218,6
41503,93285,4
41583,93355,4
41608,93418,5
41642,93463,5
41676,93508,5
41677,93539,5
41689,93565,4
41703,93592,5
41754,93611,5
41706,93618,5
41724,93623,5
41706,93635,4
41770,93624,5
41711,93622,5
41712,93620,5
41704,93609,5
41730,93610,4
41700,93597,5
41695,93597,5
41696,93595,5
41707,93592,5
41692,93581,4
41688,93561,5
41668,93521,5
41659,93456,6
41639,93464,3
41634,93450,5
41627,93423,5
41606,93321,5
41581,93339,5
41568,93307,5
41558,93299,4
41559,93260,5
41548,93262,5
41536,93258,5
41537,93254,4
41531,93270,5
41528,93246,5
41534,93246,5
41532,93253,5
41531,93316,4
41534,93254,5
41539,93264,5
41553,93294,5
41565,93344,4
41568,93326,6
41580,93338,4
41578,93347,5
41591,93380,5
41600,93362,6
41600,93382,3
41605,93382,5
41607,93396,5
41607,93407,5
41609,93394,4
41614,93404,5
41606,93411,5
41603,93406,5
41611,93394,5
41607,93385,4
41598,93379,5
41594,93376,5
41588,93360,5
41587,93356,5
41582,93344,4
41576,93321,5
41569,93298,5
41559,93288,5
41556,93270,4
41538,93256,5
41536,93232,6
41528,93223,4
41518,93210,5
41510,93195,4
41509,93187,5
41505,93183,5
41499,93164,5
41495,93159,5
41483,93137,4
41484,93130,5
41469,93106,5
41459,93066,5
41438,93005,5
41389,92930,4
41354,92840,5
41311,92738,5
41260,92642,5
41209,92544,5
41183,92476,4
41156,92421,5
41138,92381,5
41119,92388,5
41135,92406,4
41151,92443,5
41170,92501,5
41217,92585,6
41259,92694,4
41305,92793,4
41359,92895,5
41400,92990,5
41441,93054,5
41459,93084,5
41471,93109,4
41471,93105,5
41470,93104,5
41462,93086,5
41448,93074,5
41449,93054,4
41435,93013,5
41411,92953,5
41354,92863,5
41328,92803,5
41325,92814,4
41343,92825,5
41344,92854,5
41355,92884,5
41381,92931,5
41406,92988,4
41434,93074,5
41476,93145,5
41526,93258,6
41581,93369,3
41636,93482,5
41695,93599,5
41752,93729,5
41802,93823,5
41856,93932,4
41897,94020,5
41938,94093,5
41973,94163,5
41998,94218,5
42017,94260,4
42038,94294,5
42020,94311,5
42060,94342,5
42062,94350,5
42072,94372,4
42036,94387,5
42088,94390,5
42087,94399,5
42098,94402,4
42041,94424,5
42116,94438,4
42122,94455,5
42120,94448,5
42120,94419,4
42102,94400,5
42096,94387,5
42088,94378,5
42135,94371,5
42062,94339,4
42056,94309,5
42041,94283,5
42084,94255,5
42016,94238,5
42009,94223,4
42019,94229,5
42031,94239,5
42022,94256,5
42041,94280,5
42044,94310,4
42059,94315,5
42090,94376,5
42109,94428,5
42123,94489,4
42170,94513,4
42197,94613,6
42228,94689,4
42267,94754,5
42292,94768,4
42338,94884,5
42369,94962,10
42404,95022,5
42431,95060,4
42461,95139,5
42482,95176,5
42502,95229,5
42516,95289,5
42534,95276,4
42535,95298,5
42546,95310,5
42558,95375,5
42556,95311,5
42552,95310,4
42553,95293,5
42545,95333,5
42545,95289,6
42540,95281,3
42523,95262,4
42522,95246,5
42498,95203,7
42491,95165,3
42466,95100,4
42434,95047,5
42399,94981,5
42357,94900,5
42332,94841,5
42304,94782,4
42272,94728,5
42250,94682,5
42231,94663,5
42232,94646,5
42226,94652,4
42232,94671,5
42248,94692,5
42273,94739,5
42282,94785,5
42307,94817,4
42323,94859,5
42334,94874,5
42334,94885,5
42341,94874,5
42325,94862,4
42317,94826,5
42301,94786,5
42288,94756,5
42254,94714,4
42239,94629,5
42168,94501,5
42090,94344,5
42055,94273,5
42038,94255,4
42044,94251,5
42038,94283,5
42061,94317,5
42083,94370,5
42116,94439,4
42160,94536,5
42204,94629,5
42253,94735,5
42305,94831,5
42357,94933,4
42402,95032,5
42446,95116,5
42492,95206,5
42539,95284,4
42573,95352,5
42595,95404,4
42626,95461,5
42649,95490,5
42667,95521,4
42684,95558,5
42703,95591,5
42711,95621,5
42729,95660,5
42748,95680,4
42757,95701,5
42772,95716,5
42780,95732,5
42789,95766,5
42804,95810,4
42827,95828,5
42825,95833,5
42821,95802,5
42800,95787,5
42798,95762,4
42789,95742,5
42776,95729,5
42758,95704,5
42754,95676,5
42741,95636,4
42719,95614,6
42704,95580,4
42690,95542,5
42682,95530,4
42672,95523,5
42673,95533,5
42672,95530,5
42694,95557,5
42703,95584,4
42721,95626,5
42743,95677,5
42773,95734,5
42801,95809,5
42814,95882,4
42888,95974,5
42928,96066,5
42993,96168,5
42983,96252,5
43086,96341,4
43133,96439,5
43165,96511,5
43154,96589,5
43249,96669,4
43276,96712,4
43303,96764,5
43335,96815,5
43350,96846,5
43360,96882,4
43374,96891,5
43440,96903,5
43367,96876,5
43354,96854,5
43341,96792,4
43351,96732,5
43256,96629,5
43213,96545,5
43164,96454,5
43154,96382,4
43100,96345,5
43095,96319,5
43089,96313,5
43085,96305,5
43089,96337,5
43108,96370,4
43143,96420,5
43161,96449,5
43203,96561,6
43234,96624,3
43256,96656,5
43276,96634,5
43277,96715,5
43282,96726,4
43290,96720,5
43290,96680,5
43278,96683,5
43265,96653,5
43232,96573,4
43161,96481,5
43117,96374,5
43106,96349,5
43104,96349,5
43110,96428,4
43127,96385,5
43145,96433,5
43166,96488,5
43206,96600,5
43245,96641,4
43282,96735,6
43345,96834,4
43387,96950,5
43442,97041,5
43497,97134,6
43552,97226,3
43596,97323,5
43644,97420,5
43679,97500,4
43717,97554,5
43750,97608,5
43758,97646,5
43780,97675,5
43781,97699,4
43804,97715,5
43819,97731,5
43820,97748,5
43820,97755,5
43834,97763,4
43817,97766,5
43836,97773,5
43848,97810,5
43852,97821,5
43856,97821,4
43840,97787,5
43819,97756,6
43814,97730,4
43789,97684,5
43777,97646,4
43752,97609,5
43732,97566,5
43704,97516,5
43670,97451,4
43629,97370,5
43599,97285,5
43559,97211,5
43529,97154,5
43505,97110,4
43484,97077,5
43472,97073,5
43475,97068,5
43471,97061,5
43478,97070,4
43481,97084,5
43492,97100,5
43500,97129,5
43514,97151,5
43528,97177,4
43541,97219,5
43562,97247,5
43563,97274,6
43589,97298,4
43593,97314,4
43606,97337,5
43608,97335,5
43601,97326,5
43585,97296,4
43575,97269,5
43550,97214,5
43512,97126,5
43461,97042,5
43410,96918,4
43351,96809,5
43303,96687,5
43248,96589,5
43190,96517,5
43168,96453,4
43148,96417,5
43133,96395,5
43125,96397,5
43134,96408,5
43141,96418,5
43151,96443,4
43158,96445,5
43157,96464,5
43163,96471,6
43164,96479,3
43168,96482,5
43161,96462,5
43136,96417,5
43109,96340,4
43018,96125,4
42901,95902,5
42808,95727,5
42744,95616,5
42703,95547,4
42672,95496,5
42630,95461,5
42635,95445,5
42647,95456,5
42653,95466,4
42610,95491,5
42678,95540,5
42706,95569,5
42720,95617,5
42689,95670,4
42766,95715,6
42797,95762,4
42812,95805,5
42841,95839,5
42856,95879,4
42872,95910,5
42887,95943,5
42952,95966,5
42909,95985,4
42909,95994,4
42916,95994,5
42975,95994,5
42913,95987,5
42911,95991,4
42909,95997,5
42934,95982,5
42910,95980,5
42917,95982,5
42905,95979,4
42905,95971,5
42889,95941,5
42877,95911,5
42857,95887,5
42850,95805,4
42826,95820,5
42807,95785,6
42792,95746,4
42775,95660,5
42765,95666,4
42723,95606,5
42703,95553,5
42676,95465,5
42649,95454,5
42628,95410,4
42616,95386,5
42606,95408,5
42603,95360,5
42597,95368,4
42598,95376,5
42597,95437,5
42603,95388,5
42616,95398,5
42625,95413,4
42624,95497,5
42639,95463,5
42652,95492,5
42660,95507,5
42679,95562,4
42687,95569,5
42705,95597,5
42715,95613,6
42722,95621,4
42729,95633,4
42728,95641,5
42725,95656,5
42732,95661,5
42743,95671,4
42737,95674,4
42741,95667,5
42738,95666,5
42735,95655,5
42731,95625,4
42710,95577,5
42662,95494,5
42613,95363,5
42525,95178,5
42417,94943,4
42291,94721,5
42183,94492,5
42085,94293,5
42005,94145,5
41943,94042,5
41915,93984,4
41904,93972,5
41907,93997,5
41937,94050,5
41974,94130,4
42012,94220,5
42065,94338,5
42116,94444,5
42163,94561,4
42231,94670,4
42276,94761,5
42318,94835,5
42339,94903,5
42358,94918,4
42364,94900,5
42336,94846,5
42279,94710,5
42175,94497,5
42072,94310,4
42025,94183,5
41974,94115,5
41947,94070,5
41931,94043,5
41923,94036,4
41922,94047,6
41938,94065,4
41947,94099,5
41971,94139,5
41990,94183,4
42016,94238,5
42047,94301,5
42071,94352,5
42099,94412,4
42127,94466,4
42150,94513,5
42168,94559,5
42196,94594,5
42210,94630,4
42221,94649,5
42232,94670,5
42244,94691,5
42240,94697,5
42252,94706,4
42247,94712,5
42249,94715,5
42243,94700,5
42250,94699,5
42230,94681,4
42231,94665,5
42221,94655,6
42228,94647,4
42228,94644,5
42221,94643,4
42211,94609,5
42197,94580,5
42179,94554,5
42181,94535,4
42158,94515,4
42149,94487,5
42140,94482,5
42092,94461,5
42122,94428,4
42115,94408,5
42096,94368,5
42025,94345,5
42069,94322,5
42059,94301,4
42052,94286,5
41990,94270,5
42043,94267,5
42035,94258,5
42031,94247,4
42040,94265,5
42032,94260,5
42032,94268,5
42040,94289,5
42094,94294,4
42050,94309,5
42069,94332,5
42071,94345,5
42145,94375,4
42091,94390,4
42096,94406,5
42114,94432,5
42144,94445,5
42125,94457,4
42134,94461,5
42133,94479,5
42146,94477,5
42137,94480,5
42143,94489,4
42139,94490,5
42139,94445,8
42129,94486,2
42132,94469,5
42130,94467,5
42141,94397,4
42121,94441,5
42113,94431,5
42108,94406,5
42096,94352,4
42092,94370,5
42084,94357,5
42060,94313,5
42050,94302,4
42004,94201,4
41973,94102,5
41901,93972,5
41829,93861,5
41736,93618,4
41654,93441,5
41580,93294,5
41514,93226,5
41469,93069,5
41430,93003,4
41424,92980,5
41424,93011,5
41435,93030,5
41461,93081,5
41495,93166,4
41534,93253,6
41586,93342,4
41632,93452,5
41681,93564,5
41728,93663,4
41770,93743,5
41793,93791,5
41813,93841,5
41831,93864,4
41836,93873,4
41824,93844,5
41797,93781,5
41758,93664,5
41683,93516,4
41623,93390,5
41583,93337,5
41573,93308,5
41565,93293,5
41564,93284,4
41559,93308,5
41574,93326,5
41588,93356,5
41592,93388,5
41617,93432,4
41640,93485,5
41663,93532,5
41706,93597,5
41728,93673,5
41764,93729,4
41789,93804,5
41825,93855,5
41850,93918,5
41876,93976,4
41902,94015,4
41914,94058,5
41942,94087,5
41947,94124,5
41958,94138,4
41978,94174,5
41984,94182,5
41991,94209,5
41999,94210,5
41998,94221,5
42002,94218,4
42002,94219,5
42002,94217,5
42004,94222,6
42007,94229,3
42004,94222,5
41991,94199,5
41977,94177,5
41974,94160,5
41970,94136,4
41960,94111,5
41956,94106,5
41944,94092,5
41931,94076,4
41917,94050,4
41918,94021,5
41894,93996,5
41896,93979,5
41879,93963,4
41882,93953,5
41872,93936,5
41870,93933,5
41869,93926,5
41856,93921,4
41871,93935,6
41864,93937,4
41868,93942,5
41875,93943,5
41877,93954,6
41875,93976,3
41885,93978,5
41896,93990,5
41903,94003,5
41902,94022,4
41916,94028,5
41913,94044,5
41914,94049,5
41928,94044,4
41901,94048,4
41919,94057,5
41932,94051,5
41923,94061,5
41880,94063,4
41937,94056,5
41925,94051,5
41921,94046,5
41863,94040,5
41911,94023,4
41908,94013,5
41901,93994,6
41881,93974,4
41872,93956,5
41869,93947,4
41853,93916,5
41903,93903,5
41846,93892,5
41836,93868,5
41839,93859,4
41889,93841,5
41819,93820,5
41810,93820,5
41805,93798,4
41817,93783,4
41791,93754,5
41780,93737,5
41768,93719,5
41757,93696,4
41744,93666,5
41724,93629,5
41694,93563,5
41661,93427,5
41602,93347,4
41531,93206,5
41455,93041,5
41391,92842,6
41325,92761,4
41269,92651,4
41221,92566,5
41201,92471,5
41182,92486,5
41181,92495,5
41193,92520,4
41209,92594,5
41240,92636,5
41269,92715,5
41313,92801,5
41358,92953,4
41405,92971,5
41435,93052,5
41459,93098,5
41470,93169,4
41472,93122,5
41461,93120,5
41458,93095,5
41451,93064,5
41412,92971,5
41352,92833,4
41272,92672,5
41220,92581,5
41196,92545,6
41196,92526,3
41193,92517,5
41193,92539,5
41196,92552,5
41214,92572,5
41225,92603,4
41235,92650,5
41267,92699,5
41293,92750,5
41310,92823,5
41342,92887,4
41371,92938,5
41404,93009,5
41430,93052,5
41452,93099,4
41479,93146,5
41495,93171,5
41505,93199,5
41521,93228,5
41530,93241,4
41543,93263,6
41544,93273,4
41545,93278,5
41552,93285,5
41546,93279,4
41545,93285,5
41551,93283,5
41548,93276,5
41542,93274,5
41539,93272,4
41549,93286,5
41551,93298,5
41549,93285,5
41536,93255,5
41527,93238,4
41519,93218,5
41510,93206,5
41508,93180,5
41497,93160,4
41486,93141,5
41473,93112,5
41456,93094,5
41443,93077,5
41445,93061,4
41442,93053,5
41448,93059,6
41445,93062,4
41452,93075,5
41457,93092,4
41459,93119,5
41475,93119,5
41478,93147,5
41492,93180,5
41518,93234,4
41543,93275,5
41570,93327,5
41591,93385,5
41616,93439,5
41647,93492,4
41665,93559,5
41699,93602,5
41731,93666,5
41767,93726,4
41779,93777,5
41802,93829,5
41829,93867,5
41843,93905,5
41862,93940,4
41877,93969,5
41898,93998,5
41913,94031,6
41910,94063,4
41938,94092,4
41950,94116,5
41949,94129,5
41954,94140,5
41979,94149,5
41977,94158,4
41976,94170,5
41961,94181,5
41987,94198,5
41994,94193,5
41997,94217,4
41962,94221,5
42008,94225,5
42006,94235,5
42012,94221,4
41959,94222,5
41999,94211,5
41998,94180,5
41975,94135,5
41950,94081,5
41917,94003,4
41871,93930,5
41844,93859,5
41859,93802,5
41794,93756,4
41767,93731,5
41771,93726,5
41835,93734,5
41781,93754,5
41804,93810,4
41833,93881,5
41901,93964,5
41914,94065,5
41973,94154,5
42012,94244,4
42045,94306,5
42063,94354,5
42085,94384,5
42091,94381,4
42081,94346,5
42079,94366,5
42065,94333,5
42045,94278,5
41988,94101,4
41917,94016,6
41875,93922,4
41853,93890,5
41851,93842,5
41851,93887,5
41860,93911,4
41877,93954,5
41889,94026,5
41925,94059,5
41961,94142,4
42003,94229,5
42057,94396,5
42111,94443,5
42166,94554,5
42211,94668,4
42273,94831,5
42334,94888,5
42393,94973,5
42420,95070,4
42468,95151,4
42491,95197,5
42510,95249,5
42540,95299,5
42562,95330,4
42575,95359,5
42592,95384,6
42601,95410,4
42616,95425,5
42614,95431,4
42627,95439,5
42627,95450,5
42627,95455,5
42634,95476,5
42646,95482,4
42641,95489,5
42629,95461,5
42627,95433,5
42611,95410,5
42603,95395,4
42590,95370,5
42576,95344,5
42557,95306,5
42543,95274,4
42527,95244,4
42514,95212,5
42506,95190,5
42499,95179,5
42485,95179,4
42499,95181,5
42506,95198,5
42511,95216,5
42515,95245,5
42534,95277,4
42557,95301,5
42581,95357,5
42609,95435,5
42647,95515,5
42685,95582,4
42731,95668,5
42772,95759,5
42826,95849,5
42862,95942,5
42910,96019,4
42952,96087,5
42992,96155,5
43027,96235,5
43047,96274,4
43072,96314,4
43074,96353,5
43101,96380,5
43119,96393,5
43123,96417,5
43121,96411,4
43119,96413,5
43118,96393,5
43108,96364,5
43078,96324,4
43060,96256,5
43014,96168,5
42966,96070,5
42909,95972,5
42873,95886,4
42835,95821,5
42803,95766,5
42791,95748,5
42784,95742,5
42784,95748,4
42804,95778,5
42815,95809,5
42839,95871,5
42867,95923,5
42891,95982,4
42930,96034,5
42945,96071,5
42949,96097,5
42968,96109,4
42972,96103,6
42969,96095,4
42954,96073,5
42942,96045,5
42920,96009,4
42892,95932,5
42837,95805,5
42779,95689,5
42725,95641,5
42739,95630,4
42739,95635,5
42741,95656,5
42703,95678,5
42774,95725,5
42810,95786,4
42835,95851,5
42830,95947,5
42932,96047,5
42976,96146,5
43024,96238,4
43079,96325,5
43121,96420,6
43167,96512,4
43209,96594,4
43306,96664,5
43289,96732,6
43310,96796,4
43353,96832,5
43420,96868,4
43380,96899,5
43396,96932,5
43407,96949,5
43446,96974,5
43437,97007,4
43451,97039,5
43471,97063,6
43493,97099,4
43510,97140,5
43537,97205,4
43543,97213,5
43552,97173,5
43533,97185,5
43531,97181,5
43523,97166,4
43519,97103,5
43509,97138,5
43507,97137,6
43494,97120,3
43487,97038,4
43475,97058,5
43457,97035,5
43448,97010,5
43443,97018,4
43430,96989,5
43436,97006,5
43443,97010,5
43453,97091,5
43468,97068,4
43475,97119,5
43505,97148,5
43554,97286,5
43584,97303,5
43627,97410,4
43681,97514,5
43739,97644,5
43806,97740,5
43856,97854,5
43912,97975,5
43975,98088,4
44019,98169,5
44073,98247,5
44095,98308,6
44121,98364,3
44154,98395,5
44162,98421,5
44164,98427,5
44161,98428,4
44154,98399,5
44137,98361,5
44098,98292,5
44062,98194,5
44007,98092,4
43950,97972,5
43887,97846,5
43828,97739,5
43781,97650,5
43738,97591,4
43719,97534,5
43696,97514,5
43698,97503,5
43704,97520,5
43711,97530,4
43713,97556,6
43730,97576,4
43730,97576,5
43734,97586,5
43741,97599,6
43740,97606,3
43742,97603,5
43732,97568,5
43710,97536,4
43674,97432,5
43589,97231,5
43474,97051,5
43413,96923,5
43359,96839,4
43330,96779,5
43314,96749,5
43306,96723,5
43295,96716,5
43297,96728,4
43301,96746,5
43312,96751,5
43323,96775,5
43333,96807,5
43341,96835,4
43353,96863,5
43375,96898,6
43395,96921,4
43395,96951,5
43417,96971,4
43424,96993,5
43430,97011,5
43432,97011,5
43433,97012,4
43439,97017,4
43440,97012,5
43430,97007,5
43430,96988,5
43412,96972,4
43405,96953,5
43398,96932,5
43394,96919,5
43390,96915,5
43392,96918,4
43390,96904,5
43367,96873,5
43341,96829,5
43326,96789,5
43301,96738,4
43280,96685,5
43257,96641,5
43227,96583,6
43192,96522,4
43163,96461,4
43124,96380,5
43091,96308,5
43040,96216,5
42998,96137,4
42949,96067,4
42934,96012,5
42920,95981,5
42908,95970,5
42851,95962,4
42895,95961,5
42901,95969,5
42912,95982,5
42858,95997,5
42920,96023,4
42937,96044,5
42947,96064,5
42958,96105,5
42982,96132,5
43000,96179,5
43015,96202,4
43075,96240,5
43043,96271,5
43067,96298,6
43068,96321,3
43147,96344,5
43084,96355,5
43097,96371,5
43099,96375,5
43141,96382,4
43100,96377,5
43100,96374,5
43095,96361,5
43096,96331,4
43068,96290,5
43033,96202,5
42969,96082,5
42897,95883,5
42782,95705,4
42670,95475,5
42562,95256,5
42459,95015,5
42390,94896,5
42307,94772,4
42262,94709,6
42251,94618,4
42252,94691,5
42262,94721,5
42294,94774,4
42323,94873,5
42375,94956,5
42414,95057,5
42471,95143,5
42514,95306,4
42562,95325,5
42597,95395,5
42625,95453,5
42645,95539,4
42639,95484,5
42626,95436,5
42580,95312,5
42476,95140,5
42388,94942,4
42326,94834,5
42287,94756,5
42263,94704,5
42243,94673,5
42235,94663,4
42234,94663,5
42236,94671,6
42248,94703,4
42270,94745,5
42288,94785,4
42318,94833,5
42339,94876,5
42361,94937,5
42392,94997,5
42417,95053,4
42449,95118,5
42482,95167,5
42505,95220,5
42539,95265,4
42551,95307,4
42571,95344,5
42580,95364,5
42595,95393,5
42593,95404,4
42605,95400,5
42604,95407,5
42602,95394,5
42600,95399,5
42602,95393,4
42592,95386,5
42587,95369,5
42590,95383,6
42600,95385,4
42593,95369,4
42583,95354,5
42571,95327,5
42568,95317,5
42550,95287,5
42542,95278,4
42541,95265,5
42529,95245,5
42520,95219,5
42508,95195,4
42483,95161,4
42473,95115,5
42452,95085,5
42435,95035,5
42411,95020,4
42414,95000,5
42396,94980,5
42389,94962,5
42389,94965,5
42385,94963,5
42381,94959,4
42384,94958,5
42396,94974,5
42398,94976,5
42402,94991,4
42410,94999,5
42414,95027,5
42420,95060,5
42440,95074,5
42445,95087,4
42454,95106,5
42464,95120,5
42465,95136,5
42471,95140,5
42472,95143,4
42484,95159,5
42484,95158,5
42482,95156,5
42479,95153,4
42482,95157,5
42482,95158,5
42480,95163,5
42470,95158,5
42469,95133,4
42469,95123,6
42453,95106,4
42453,95102,5
42441,95069,5
42430,95053,4
42422,95049,5
42398,95028,5
42405,95003,5
42394,94980,5
42387,94948,4
42320,94910,5
42333,94830,5
42290,94741,5
42229,94603,5
42079,94427,4
42036,94235,5
41935,94023,5
41847,93821,5
41735,93659,4
41690,93526,5
41637,93428,5
41611,93364,5
41630,93345,5
41604,93362,4
41618,93406,5
41644,93460,6
41727,93534,4
41714,93625,5
41758,93710,4
41801,93812,5
41885,93907,5
41889,93992,5
41918,94053,5
41940,94108,4
41970,94150,5
41970,94144,5
41957,94113,5
41930,94061,5
41871,93910,4
41790,93728,5
41709,93568,5
41654,93479,5
41625,93389,4
41607,93406,4
41610,93374,5
41608,93392,5
41604,93350,5
41614,93419,5
41637,93466,4
41660,93508,5
41680,93549,5
41700,93605,5
41728,93668,4
41756,93732,5
41782,93836,5
41809,93849,5
41845,93916,5
41881,93975,4
41893,94083,5
41918,94047,5
41934,94087,5
41931,94108,5
41947,94152,4
41952,94140,5
41959,94144,5
41965,94157,5
41971,94173,5
41976,94180,4
41974,94173,5
41972,94165,5
41968,94161,5
41975,94163,6
41969,94166,3
41977,94182,5
41982,94177,5
41974,94158,5
41960,94153,4
41965,94134,5
41959,94117,5
41944,94108,5
41944,94095,5
41938,94082,4
41925,94064,5
41927,94056,5
41916,94032,5
41911,94008,5
41904,93997,4
41885,93987,5
41885,93969,5
41873,93953,5
41864,93940,5
41857,93939,4
41870,93929,5
41856,93928,5
41860,93914,5
41864,93919,4
41863,93918,5
41859,93928,4
41864,93937,5
41876,93956,5
41880,93966,4
41886,93985,5
41896,94005,5
41895,94023,5
41904,94042,5
41920,94059,4
41946,94083,5
41952,94098,5
41957,94122,5
41969,94132,5
41966,94154,4
41972,94166,5
41969,94164,5
41984,94169,5
41969,94166,5
41975,94171,4
41970,94151,5
41957,94141,6
41953,94126,4
41945,94101,4
41940,94087,4
41937,94074,5
41920,94041,5
41903,94020,5
41894,94001,4
41890,93976,5
41875,93959,5
41873,93942,5
41859,93912,5
41848,93891,4
41841,93872,5
41834,93859,5
41831,93842,5
41814,93823,5
41810,93815,4
41801,93788,5
41787,93780,5
41782,93753,5
41762,93716,5
41747,93663,4
41705,93604,5
41668,93503,5
41610,93386,6
41545,93240,4
41471,93093,4
41404,92935,5
41340,92807,5
41297,92705,5
41261,92648,4
41238,92616,5
41235,92600,5
41195,92606,10
41392,92967,9
41392,92967,5
41433,93029,8
41475,93127,7
41471,93232,10
41529,93249,9
41529,93249,10
41512,93205,9
41271,92680,9
41271,92680,15
41291,92712,10
41291,92712,9
41283,92742,5
41303,92780,10
41317,92816,5
41344,92877,5
41502,93218,10
41502,93218,5
41527,93274,5
41550,93324,10
41559,93296,5
41596,93392,5
41637,93477,10
41637,93477,5
41677,93491,5
41651,93538,10
41618,93489,5
41643,93486,7
41642,93498,8
41633,93575,5
41630,93462,7
41630,93462,8
41624,93429,5
41605,93404,7
41598,93400,8
41597,93376,5
41599,93357,7
41529,93249,8
41529,93249,5
41527,93223,7
41530,93221,8
41523,93213,5
41526,93216,7
41511,93224,8
41491,93224,5
41527,93228,7
41547,93281,8
41547,93281,9
41551,93303,8
41544,93327,5
41571,93299,7
41606,93403,8
41606,93403,5
41579,93404,7
41610,93409,8
41612,93421,5
41604,93412,7
41612,93368,8
41628,93437,9
41628,93437,8
41614,93420,5
41619,93438,7
41660,93426,8
41627,93428,5
41603,93430,7
41618,93429,8
41618,93429,5
41624,93441,7
41631,93453,8
41641,93475,5
41634,93476,7
41635,93480,8
41596,93362,7
41596,93362,5
41576,93326,8
41553,93281,7
41527,93235,5
41518,93189,8
41497,93137,7
41549,93288,9
41549,93288,10
41584,93379,9
41798,93830,8
41798,93830,7
41861,93873,10
41856,93908,8
41854,93924,5
41772,93720,8
41772,93720,7
41726,93619,9
41699,93573,10
41687,93581,5
41700,93732,8
41700,93732,7
41748,93819,9
41836,93890,10
42107,94454,9
42107,94454,8
42172,94562,1
42205,94650,5
42238,94730,5
42286,94800,5
42373,94856,4
42339,94908,5
42365,94934,6
42382,94977,4
42440,94988,5
42400,95018,4
42415,95041,5
42416,95045,5
42447,95057,5
42425,95071,5
42430,95073,4
42437,95074,5
42450,95086,5
42453,95124,5
42456,95134,5
42462,95127,4
42450,95055,5
42436,95072,5
42420,95054,5
42416,95026,4
42411,94952,5
42385,95005,5
42385,94968,5
42377,94942,5
42360,94904,4
42354,94910,5
42355,94887,5
42353,94892,6
42348,94924,4
42349,94899,4
42354,94908,5
42370,94934,5
42381,95024,5
42398,94996,5
42413,95032,4
42437,95096,5
42469,95188,5
42500,95201,5
42522,95292,5
42566,95356,4
42606,95446,5
42652,95515,5
42686,95593,5
42730,95677,4
42773,95736,5
42811,95818,5
42845,95873,5
42861,95926,5
42892,95973,5
42912,96006,4
42920,96046,5
42939,96077,5
42943,96066,5
42937,96056,4
42923,96033,5
42913,96007,5
42881,95941,5
42854,95877,5
42815,95800,4
42782,95735,5
42744,95674,5
42725,95627,5
42707,95603,5
42705,95581,4
42704,95598,5
42717,95612,5
42723,95658,5
42747,95697,4
42779,95759,4
42806,95817,5
42826,95863,5
42847,95909,5
42861,95921,4
42878,95926,6
42870,95928,4
42866,95916,5
42855,95904,5
42845,95872,4
42829,95824,5
42801,95766,5
42754,95639,5
42672,95497,5
42611,95390,4
42588,95345,5
42574,95327,5
42565,95327,5
42582,95352,5
42600,95380,4
42614,95429,5
42648,95492,5
42686,95568,5
42715,95645,5
42777,95746,4
42809,95839,5
42875,95943,5
42912,96043,5
42966,96135,4
43002,96216,5
43055,96287,6
43086,96351,4
43111,96406,5
43132,96448,4
43154,96483,5
43169,96501,5
43166,96525,5
43175,96535,5
43186,96534,4
43190,96543,5
43200,96556,5
43200,96560,5
43204,96570,5
43213,96602,4
43237,96649,5
43248,96662,5
43251,96660,5
43241,96646,5
43243,96629,4
43241,96612,5
43230,96601,5
43215,96590,5
43218,96577,4
43204,96555,5
43191,96548,5
43184,96519,5
43173,96497,5
43135,96484,4
43156,96469,5
43160,96482,5
43164,96494,5
43121,96506,5
43185,96536,4
43206,96570,5
43224,96626,5
43190,96676,5
43295,96747,5
43328,96844,4
43380,96942,5
43464,97050,5
43499,97159,5
43570,97293,5
43621,97412,4
43737,97523,5
43744,97629,5
43786,97718,5
43833,97802,5
43922,97865,4
43902,97932,5
43922,97984,5
43931,98018,5
43972,98010,4
43941,98010,5
43941,97981,5
43918,97948,5
43892,97874,5
43847,97805,4
43811,97726,5
43768,97647,5
43732,97532,5
43697,97523,5
43690,97494,4
43675,97470,5
43684,97419,5
43686,97495,5
43705,97520,5
43719,97566,4
43739,97576,6
43759,97650,4
43776,97684,5
43792,97715,5
43818,97796,6
43827,97790,3
43843,97816,5
43848,97813,5
43839,97860,4
43813,97724,5
43756,97602,5
43702,97523,5
43679,97516,5
43668,97446,4
43655,97438,5
43655,97441,5
43663,97459,5
43671,97456,5
43671,97484,4
43682,97508,5
43716,97547,5
43729,97585,5
43750,97618,5
43767,97670,4
43788,97728,5
43819,97780,6
43844,97815,4
43873,97869,5
43887,97899,4
43905,97935,5
43916,97969,5
43936,97982,5
43939,97987,4
43947,97991,5
43936,97994,5
43933,98001,5
43938,97997,5
43934,97972,4
43924,97961,5
43918,97959,5
43914,97948,5
43914,97948,5
43919,97954,4
43906,97928,5
43897,97897,5
43875,97869,5
43856,97841,5
43854,97811,4
43832,97770,5
43807,97736,5
43787,97706,6
43771,97663,4
43747,97598,4
43713,97536,5
43677,97454,5
43638,97365,5
43589,97287,4
43557,97225,4
43534,97186,5
43515,97137,5
43497,97120,5
43487,97105,4
43476,97107,5
43494,97105,5
43491,97106,5
43498,97122,5
43506,97136,4
43513,97142,5
43509,97170,5
43525,97192,5
43534,97211,5
43541,97243,5
43561,97259,4
43568,97278,5
43581,97301,5
43580,97310,6
43584,97319,3
43592,97324,5
43590,97316,5
43586,97308,5
43566,97273,5
43553,97231,4
43519,97151,5
43464,97027,5
43387,96865,5
43284,96686,4
43190,96495,5
43100,96318,5
43034,96158,5
42962,96043,5
42914,95960,4
42885,95920,5
42869,95912,5
42882,95922,5
42897,95950,5
42922,96000,4
42939,96056,6
42968,96117,4
43002,96188,5
43030,96246,5
43057,96298,6
43064,96378,3
43114,96414,5
43124,96430,5
43133,96407,5
43042,96310,4
43011,96135,5
42918,95972,5
42861,95869,5
42760,95786,4
42786,95715,5
42759,95676,5
42749,95655,5
42730,95635,5
42728,95642,4
42744,95654,6
42759,95669,4
42802,95700,5
42784,95731,5
42795,95779,4
42814,95812,5
42907,95866,6
42866,95916,4
42883,95962,5
42899,95999,4
42956,96030,5
42932,96053,5
42953,96088,5
42960,96107,5
42982,96126,4
42978,96132,5
42981,96126,5
42982,96138,5
42983,96110,4
42976,96125,4
42984,96125,5
42977,96120,5
42968,96061,5
42967,96121,4
42973,96125,5
42967,96114,5
42961,96032,5
42957,96076,5
42941,96052,5
42935,96034,4
42919,96007,5
42900,95961,6
42885,95952,4
42875,95912,4
42861,95948,5
42855,95858,5
42831,95824,5
42806,95781,5
42788,95801,4
42779,95700,5
42751,95670,5
42742,95652,5
42741,95670,5
42738,95643,4
42735,95638,5
42727,95647,5
42740,95660,5
42749,95670,4
42754,95672,5
42764,95692,5
42771,95722,5
42789,95743,5
42797,95775,5
42805,95802,4
42821,95838,5
42833,95864,5
42860,95884,6
42865,95904,3
42871,95914,5
42877,95933,5
42873,95942,5
42883,95944,5
42889,95953,4
42891,95971,5
42895,95970,5
42893,95961,5
42890,95962,5
42892,95960,4
42877,95954,5
42884,95942,5
42876,95917,5
42859,95895,4
42833,95843,4
42798,95748,5
42741,95599,5
42651,95438,5
42550,95224,4
42431,94992,6
42321,94779,4
42216,94571,5
42124,94412,5
42067,94296,4
42021,94223,5
42013,94196,5
42017,94211,5
42036,94256,5
42061,94322,4
42098,94405,5
42138,94494,5
42189,94601,5
42246,94724,5
42298,94824,4
42342,94911,5
42371,94973,5
42403,95037,5
42440,95111,4
42472,95140,4
42477,95143,5
42458,95099,5
42413,94980,5
42313,94781,4
42215,94590,5
42156,94496,6
42121,94419,4
42086,94371,5
42081,94346,4
42078,94342,5
42080,94342,5
42079,94366,5
42085,94383,5
42097,94412,4
42117,94436,5
42135,94463,5
42149,94508,5
42168,94548,5
42189,94590,4
42202,94620,5
42226,94654,5
42234,94685,5
42248,94703,5
42253,94725,4
42257,94732,5
42265,94735,5
42267,94749,5
42264,94748,4
42266,94750,5
42268,94738,5
42248,94740,6
42259,94734,4
42254,94719,4
42254,94714,5
42202,94706,5
42248,94700,5
42242,94704,5
42252,94717,4
42193,94708,5
42242,94688,5
42219,94660,5
42222,94648,5
42186,94635,4
42207,94603,5
42192,94588,5
42181,94570,5
42208,94542,5
42169,94526,4
42150,94506,5
42134,94471,5
42190,94446,5
42113,94419,5
42106,94403,4
42094,94384,5
42133,94380,5
42086,94379,5
42087,94362,4
42087,94365,5
42096,94366,5
42080,94364,5
42082,94370,5
42088,94383,4
42084,94369,5
42104,94423,5
42111,94437,5
42121,94462,5
42120,94423,4
42140,94499,5
42154,94522,5
42156,94545,5
42178,94511,5
42190,94589,4
42202,94604,6
42205,94621,4
42203,94636,5
42215,94648,4
42223,94662,6
42223,94658,3
42225,94726,5
42233,94677,5
42234,94676,4
42234,94661,5
42227,94730,5
42207,94666,5
42214,94643,5
42221,94637,4
42202,94662,5
42207,94610,5
42200,94591,5
42194,94579,5
42177,94569,4
42164,94546,5
42165,94534,5
42158,94505,5
42146,94496,5
42131,94470,4
42133,94464,5
42123,94436,5
42109,94415,5
42095,94373,5
42069,94321,4
42026,94234,6
41971,94107,4
41896,93958,5
41814,93790,4
41731,93612,5
41656,93463,5
41590,93338,5
41542,93247,5
41520,93204,4
41511,93181,5
41510,93208,5
41534,93246,5
41559,93299,5
41588,93383,4
41627,93476,5
41674,93566,5
41724,93677,5
41780,93771,5
41821,93873,4
41852,93934,5
41880,93991,5
41901,94017,5
41905,94038,5
41900,94032,4
41883,93990,5
41853,93885,5
41781,93717,5
41704,93573,4
41658,93501,4
41640,93474,5
41636,93455,5
41630,93447,5
41622,93453,4
41628,93464,5
41640,93477,5
41653,93506,5
41672,93529,5
41677,93575,4
41703,93618,5
41713,93668,5
41745,93706,5
41768,93754,5
41782,93816,4
41813,93859,4
41844,93916,5
41870,93965,5
41885,94001,5
41899,94038,3
41918,94062,5
41924,94095,5
41944,94112,5
41956,94137,5
41959,94158,4
41967,94174,5
41983,94176,5
41980,94184,5
41990,94184,4
41991,94179,5
41978,94176,5
41973,94169,5
41976,94184,5
41978,94183,4
41974,94168,5
41960,94139,5
41953,94125,5
41957,94109,5
41941,94098,4
41928,94083,6
41930,94070,4
41920,94053,5
41910,94032,5
41893,94014,6
41889,93978,3
41876,93965,5
41822,93946,5
41858,93933,5
41859,93915,4
41850,93906,5
41793,93908,5
41847,93893,5
41840,93896,4
41842,93891,4
41806,93895,5
41841,93908,5
41846,93918,10
41858,93930,9
41899,93964,5
41916,94067,10
41916,94067,5
41936,94085,5
41931,94096,10
41995,94105,5
41953,94130,5
41968,94142,10
41968,94142,5
41959,94163,5
41955,94126,10
41958,94129,5
41958,94122,5
41965,94105,10
41959,94047,5
41937,94074,7
41884,93962,8
41884,93962,5
41872,93913,7
41865,93917,8
41851,93913,5
41840,93881,7
41830,93871,8
41813,93887,5
41807,93823,2
41820,93788,1
41773,93724,5
41724,93716,5
41688,93542,4
41636,93446,5
41583,93343,5
41535,93252,5
41474,93111,5
41433,93031,4
41407,92967,5
41386,92951,5
41381,92923,5
41390,92932,4
41394,92955,5
41413,93009,5
41430,93070,5
41459,93131,5
41498,93196,5
41536,93268,4
41550,93328,5
41582,93362,5
41593,93392,6
41589,93394,3
41602,93389,5
41591,93371,5
41579,93353,5
41563,93300,5
41529,93226,4
41464,93099,5
41406,92958,5
41366,92893,5
41349,92871,5
41354,92873,4
41355,92885,5
41352,92896,5
41362,92918,5
41383,92941,4
41390,92992,4
41412,93029,5
41445,93074,5
41465,93154,5
41505,93222,4
