RED,IR,EKG,TIME
41538,93305,12
41741,93709,7
41741,93709,5
41775,93819,8
41812,93865,7
41841,93899,5
41859,93970,8
41893,94007,7
41914,94068,5
42005,94246,8
42005,94246,7
42019,94284,7
42017,94293,8
42055,94344,7
42059,94378,5
42053,94330,8
42053,94330,7
42081,94313,10
42047,94313,8
42039,94307,5
42025,94253,8
42025,94253,7
42028,94269,9
42042,94279,10
42027,94283,5
42041,94254,5
42128,94519,10
42128,94519,5
42158,94590,5
42202,94661,10
42253,94734,5
42285,94801,5
42420,95083,10
42420,95083,5
42440,95117,7
42433,95161,8
42480,95202,5
42496,95233,7
42571,95366,13
42571,95366,7
42522,95326,8
42585,95382,9
42571,95353,8
42571,95353,5
42568,95327,7
42617,95291,8
42525,95237,5
42488,95179,7
42458,95133,8
42495,95084,5
42407,95029,7
42407,95029,8
42409,95064,9
42443,95106,8
42465,95146,5
42500,95215,5
42532,95298,7
42648,95506,8
42648,95506,7
42652,95482,8
42648,95510,5
42650,95509,7
42641,95489,8
42612,95378,5
42434,95085,7
42434,95085,8
42419,95100,5
42447,95108,7
42462,95203,8
42482,95186,5
42510,95270,7
42693,95615,8
42693,95615,5
42700,95715,7
42765,95788,8
42829,95886,5
42887,95969,7
42915,96068,8
43022,96252,9
43022,96252,5
43034,96205,2
43045,96253,3
43045,96273,5
43051,96289,4
43050,96285,6
43041,96271,4
43035,96291,5
43053,96296,4
43057,96297,5
43056,96281,5
43036,96253,5
43027,96239,5
43020,96220,4
43010,96208,5
43007,96185,5
42997,96175,5
42988,96163,5
42975,96140,4
42976,96131,5
42966,96114,5
42957,96093,5
42960,96095,5
42962,96104,4
42954,96116,5
42976,96128,5
42982,96148,5
42992,96173,5
43009,96213,4
43028,96257,5
43056,96306,6
43085,96377,4
43110,96423,4
43152,96507,5
43187,96576,5
43231,96665,5
43274,96741,5
43316,96810,4
43351,96891,5
43393,96960,5
43423,97033,5
43446,97082,5
43472,97119,4
43491,97148,5
43498,97154,5
43490,97144,5
43482,97125,5
43466,97082,4
43451,97043,5
43422,96995,5
43403,96946,5
43373,96894,5
43353,96859,4
43342,96842,5
43335,96837,5
43332,96819,5
43340,96828,4
43353,96862,5
43358,96891,5
43382,96924,5
43395,96968,5
43415,96988,4
43422,97006,5
43441,97048,5
43446,97083,5
43478,97115,5
43484,97127,4
43490,97128,5
43473,97101,5
43449,97023,5
43402,96911,5
43343,96840,4
43331,96807,5
43323,96795,5
43324,96786,5
43320,96787,5
43287,96808,5
43335,96823,4
43349,96855,5
43371,96890,5
43328,96937,4
43421,96994,5
43448,97051,5
43479,97121,5
43479,97186,5
43553,97265,4
43593,97341,5
43630,97402,5
43696,97487,5
43707,97554,5
43737,97611,4
43768,97667,5
43850,97700,5
43800,97734,5
43818,97756,5
43835,97782,4
43879,97788,5
43842,97796,5
43844,97795,5
43846,97819,5
43869,97842,4
43875,97870,6
43873,97876,4
43870,97856,5
43868,97825,4
43869,97838,5
43857,97823,5
43848,97807,5
43830,97734,5
43829,97773,4
43826,97746,5
43809,97727,5
43797,97634,5
43763,97649,5
43754,97595,4
43724,97565,5
43705,97535,5
43695,97512,5
43697,97506,5
43685,97512,4
43695,97573,5
43705,97533,5
43719,97550,5
43720,97569,5
43726,97666,4
43744,97621,5
43763,97655,5
43777,97705,5
43800,97770,4
43813,97786,5
43842,97828,5
43875,97867,5
43882,97902,5
43892,97919,4
43896,97938,5
43904,97949,5
43912,97950,5
43909,97932,5
43890,97915,4
43868,97877,5
43851,97808,5
43815,97751,5
43763,97645,5
43716,97553,5
43676,97450,4
43619,97347,5
43570,97270,5
43543,97199,6
43513,97153,3
43486,97120,5
43483,97111,5
43488,97106,5
43484,97122,4
43482,97113,4
43495,97140,5
43499,97152,5
43522,97179,5
43528,97212,4
43531,97226,5
43536,97224,5
43540,97191,5
43494,97094,5
43413,96945,4
43345,96818,5
43300,96730,5
43263,96668,5
43247,96624,5
43225,96596,4
43200,96565,6
43200,96549,4
43195,96534,5
43184,96535,5
43189,96541,6
43202,96556,3
43204,96568,5
43213,96593,5
43234,96619,4
43234,96645,4
43249,96662,5
43260,96692,5
43268,96699,5
43283,96717,4
43288,96739,5
43306,96761,5
43311,96770,5
43304,96783,5
43315,96781,4
43313,96772,5
43306,96781,5
43308,96781,5
43307,96768,5
43298,96758,4
43300,96760,5
43302,96768,6
43312,96762,4
43295,96735,5
43277,96702,4
43260,96685,5
43256,96656,5
43235,96618,5
43215,96590,4
43196,96554,4
43185,96528,5
43173,96491,5
43155,96449,5
43119,96400,4
43094,96335,5
43057,96270,5
43024,96201,5
42988,96135,5
42962,96081,4
42943,96055,5
42928,96025,5
42902,96008,5
42912,95998,5
42904,95993,4
42909,95987,5
42865,96001,5
42918,96007,6
42924,96020,4
42925,96038,4
42882,96068,5
42953,96098,5
42961,96117,5
42971,96143,4
42972,96170,4
42993,96188,5
43018,96209,5
43029,96236,5
43079,96255,4
43040,96273,5
43042,96278,5
43051,96297,5
43121,96300,5
43058,96315,4
43059,96312,5
43054,96303,5
43082,96281,5
43029,96234,5
43002,96164,5
42946,96037,4
42869,95857,5
42760,95651,5
42644,95432,6
42542,95232,3
42466,95025,5
42387,94923,5
42330,94837,5
42310,94818,4
42308,94763,4
42325,94872,5
42351,94927,5
42401,95025,5
42446,95076,4
42503,95223,5
42556,95333,5
42609,95453,5
42656,95560,5
42705,95631,4
42745,95730,5
42795,95805,5
42805,95894,5
42815,95820,5
42772,95711,4
42687,95546,6
42617,95482,4
42579,95335,5
42541,95268,5
42515,95220,4
42503,95224,5
42503,95193,5
42489,95176,5
42494,95184,4
42502,95193,4
42507,95203,5
42502,95234,5
42519,95255,5
42528,95284,4
42553,95318,5
42564,95355,5
42595,95383,5
42607,95422,5
42626,95452,4
42636,95477,5
42642,95494,5
42661,95521,5
42660,95523,5
42670,95536,4
42674,95539,5
42678,95549,6
42666,95557,4
42671,95554,5
42671,95540,4
42668,95547,5
42668,95543,5
42664,95543,5
42660,95536,4
42666,95537,4
42661,95534,5
42656,95516,5
42644,95487,5
42632,95467,4
42631,95457,5
42614,95426,5
42609,95413,5
42603,95382,5
42584,95356,4
42573,95333,5
42552,95303,5
42528,95255,5
42511,95228,5
42491,95181,4
42486,95154,5
42457,95116,5
42448,95094,6
42437,95082,4
42437,95068,4
42427,95056,5
42416,95050,5
42414,95044,5
42422,95045,4
42420,95045,4
42419,95066,5
42424,95071,5
42442,95086,5
42451,95098,4
42454,95125,5
42468,95153,5
42474,95167,5
42483,95184,5
42488,95201,4
42498,95231,5
42515,95236,5
42516,95252,5
42524,95263,5
42529,95270,5
42544,95277,4
42531,95280,5
42537,95280,5
42532,95284,5
42535,95273,4
42523,95287,5
42533,95276,5
42521,95250,5
42520,95247,4
42511,95234,4
42496,95215,5
42493,95197,5
42476,95175,5
42477,95145,4
42460,95124,5
42441,95086,5
42422,95045,5
42391,94978,5
42318,94883,4
42282,94749,5
42200,94578,5
42108,94376,5
41955,94184,7
41899,93973,2
41817,93786,6
41751,93662,4
41636,93560,5
41663,93512,5
41654,93495,4
41655,93512,5
41689,93558,5
41711,93621,5
41745,93697,4
41783,93808,4
41883,93903,5
41887,94018,5
41936,94105,5
41976,94192,4
42069,94250,5
42045,94338,5
42086,94405,5
42113,94456,5
42138,94464,4
42110,94439,5
42057,94326,5
41992,94186,5
41949,94071,4
41914,94015,4
41891,94002,5
41885,93990,6
41882,93941,4
41892,93997,5
41882,94003,4
41897,94025,5
41907,93979,5
41916,94062,5
41932,94090,4
41951,94138,4
41968,94151,4
41995,94217,5
42015,94264,5
42040,94325,4
42062,94399,5
42085,94400,5
42097,94439,5
42117,94462,5
42137,94570,4
42143,94518,5
42153,94540,5
42159,94564,5
42175,94622,5
42185,94597,4
42193,94606,5
42192,94610,5
42193,94627,5
42201,94606,5
42191,94609,4
42197,94612,5
42201,94627,5
42206,94644,5
42201,94629,4
42197,94607,4
42187,94602,5
42184,94588,5
42176,94582,5
42169,94561,4
42174,94565,5
42169,94555,5
42156,94543,5
42160,94529,5
42153,94516,4
42135,94492,5
42125,94471,5
42117,94460,5
42108,94442,5
42098,94420,5
42106,94416,4
42099,94399,5
42088,94384,5
42086,94386,5
42078,94377,4
42072,94389,5
42082,94388,5
42082,94403,5
42090,94412,4
42100,94435,4
42114,94459,5
42122,94481,5
42134,94506,5
42151,94532,4
42156,94553,5
42174,94578,5
42181,94611,5
42197,94632,5
42220,94658,4
42218,94679,5
42228,94704,5
42253,94725,5
42257,94762,5
42271,94781,4
42284,94786,6
42282,94801,4
42291,94799,5
42280,94797,5
42284,94802,4
42280,94788,5
42274,94769,5
42268,94754,5
42259,94747,4
42248,94731,4
42242,94722,5
42241,94699,5
42232,94677,5
42212,94642,4
42194,94596,5
42159,94535,5
42120,94436,5
42066,94339,5
42014,94213,4
41958,94095,5
41895,93979,5
41838,93862,5
41791,93786,5
41770,93744,4
41754,93715,5
41751,93714,5
41760,93731,5
41775,93774,5
41803,93824,4
41821,93894,5
41859,93962,5
41888,94031,5
41921,94089,5
41956,94150,4
41972,94193,5
41987,94239,5
42023,94287,5
42040,94318,4
42038,94330,5
41998,94315,5
42003,94224,5
41936,94088,5
41873,93962,5
41793,93911,4
41826,93877,5
41819,93855,5
41817,93865,6
41795,93875,3
41826,93877,5
41831,93893,5
41839,93906,5
41886,93941,5
41867,93960,4
41878,94000,5
41894,94042,5
41977,94077,5
41946,94137,5
41967,94177,4
41985,94220,5
42047,94263,5
42018,94303,5
42037,94324,4
42063,94341,4
42065,94361,5
42058,94376,5
42078,94374,5
42075,94387,4
42070,94357,6
42074,94387,4
42063,94374,5
42066,94369,5
42068,94312,6
42074,94361,3
42065,94362,5
42059,94366,5
42064,94294,5
42051,94328,4
42037,94303,5
42023,94271,5
42011,94250,5
42010,94235,5
41990,94211,4
41980,94190,5
41973,94222,5
41948,94134,5
41944,94095,4
41921,94063,4
41906,94086,5
41894,94003,5
41890,93986,5
41882,93976,4
41876,94001,5
41880,93977,6
41876,93972,4
41886,93983,5
41880,93996,4
41895,94004,5
41894,94031,5
41911,94053,5
41932,94102,5
41948,94139,4
41979,94191,5
41997,94239,5
42024,94286,5
42047,94350,5
42074,94394,4
42101,94449,5
42123,94507,5
42149,94556,5
42169,94600,5
42198,94654,4
42217,94684,5
42246,94730,5
42273,94786,5
42293,94828,4
42299,94869,5
42327,94890,5
42322,94911,6
42343,94940,4
42354,94954,4
42358,94966,5
42370,94972,5
42365,94982,5
42367,94988,5
42369,94995,4
42376,95000,5
42384,94993,5
42373,94983,5
42362,94961,5
42349,94950,4
42336,94908,5
42321,94885,5
42303,94846,5
42283,94803,5
42281,94778,4
42264,94765,5
42268,94770,5
42271,94779,5
42274,94797,5
42289,94847,4
42320,94895,5
42363,94979,5
42408,95097,6
42471,95204,3
42530,95333,5
42585,95434,5
42624,95519,5
42672,95610,5
42727,95722,4
42790,95853,5
42830,95943,5
42868,95997,5
42882,95992,5
42844,95928,4
42808,95850,5
42783,95793,5
42779,95822,5
42800,95841,5
42804,95859,4
42821,95910,5
42857,95951,5
42890,96018,5
42924,96107,4
42969,96192,5
43023,96298,4
43074,96409,5
43134,96504,5
43200,96659,4
43309,96856,5
43391,97001,5
43444,97132,5
43524,97264,5
43569,97365,4
43628,97470,5
43698,97621,5
43759,97730,5
43790,97822,5
43830,97862,4
43869,97948,5
43912,98022,5
43900,98071,5
43969,98138,5
44003,98197,4
44009,98216,5
43981,98267,5
44059,98325,5
44081,98363,5
44093,98354,4
44058,98337,6
44077,98342,4
44082,98364,5
44099,98367,4
44134,98356,5
44080,98349,5
44080,98352,5
44082,98337,5
44135,98322,4
44045,98275,5
44041,98266,5
44042,98282,5
44090,98308,5
44063,98324,4
44071,98319,5
44078,98345,5
44116,98418,5
44148,98505,5
44169,98564,4
44199,98601,5
44242,98661,5
44302,98807,5
44342,98884,5
44376,98961,4
44416,98980,5
44488,99186,6
44568,99342,4
44630,99445,5
44677,99479,4
44712,99606,5
44755,99679,5
44790,99757,5
44827,99814,4
44847,99845,5
44859,99872,5
44880,99931,5
44907,100026,5
44906,99965,4
44900,99927,5
44857,99868,5
44856,99934,5
44849,99869,5
44857,99863,4
44841,99826,5
44809,99799,5
44786,99715,5
44767,99704,5
44772,99699,4
44770,99719,5
44786,99752,5
44815,99808,6
44847,99862,3
44864,99913,4
44905,100015,5
44981,100188,5
45077,100347,5
45150,100481,4
45202,100565,5
45237,100644,5
45245,100649,5
45263,100707,5
45296,100759,4
45302,100737,5
45254,100637,5
45197,100526,5
45157,100464,5
45150,100450,4
45166,100486,5
45168,100503,5
45174,100496,5
45167,100482,5
45168,100506,5
45213,100605,4
45255,100683,5
45280,100736,5
45316,100792,5
45339,100840,4
45379,100919,5
45424,101006,5
45490,101129,5
45538,101216,4
45548,101234,5
45552,101258,5
45586,101293,5
45603,101325,5
45628,101361,4
45637,101389,5
45678,101486,5
45715,101528,5
45738,101593,5
45754,101608,4
45754,101611,5
45759,101623,5
45773,101636,5
45772,101625,5
45758,101597,4
45742,101555,6
45733,101554,4
45717,101529,5
45720,101514,5
45703,101482,4
45691,101460,5
45686,101467,5
45690,101457,5
45685,101443,4
45663,101399,4
45636,101341,5
45652,101363,5
45626,101342,5
45607,101298,4
45595,101266,5
45577,101237,5
45572,101235,5
45579,101240,5
45581,101247,4
45581,101265,5
45603,101288,5
45609,101310,5
45619,101315,5
45628,101343,4
45637,101363,5
45644,101365,6
45646,101379,4
45642,101394,5
45660,101389,4
45663,101415,5
45669,101423,5
45666,101435,5
45677,101425,4
45669,101412,4
45662,101389,5
45641,101353,5
45617,101314,5
45554,101274,4
45576,101225,5
45567,101197,5
45543,101170,5
45479,101157,5
45528,101127,4
45513,101101,5
45494,101068,5
45424,101033,5
45460,100997,5
45432,100935,4
45405,100894,5
45410,100860,5
45375,100844,5
45372,100823,5
45349,100778,4
45387,100727,5
45273,100598,5
45167,100390,5
45057,100173,5
45029,100009,4
44906,99871,5
44843,99763,5
44801,99698,5
44790,99642,4
44742,99577,5
44719,99532,5
44687,99491,5
44686,99457,5
44673,99448,4
44663,99423,5
44657,99427,5
44654,99383,5
44659,99423,5
44659,99429,5
44671,99449,4
44686,99417,5
44683,99496,5
44695,99507,5
44703,99519,5
44705,99479,4
44704,99526,5
44709,99521,5
44706,99520,5
44703,99554,4
44701,99508,5
44696,99505,5
44695,99505,5
44695,99578,4
44695,99510,4
44700,99494,5
44677,99472,5
44665,99509,5
44661,99425,4
44644,99396,5
44629,99358,6
44607,99333,4
44579,99267,5
44538,99205,4
44511,99135,7
44472,99062,3
44425,98962,5
44375,98852,5
44299,98707,4
44245,98590,5
44175,98474,5
44122,98384,5
44073,98296,5
44039,98228,4
44021,98173,5
43992,98145,5
43987,98099,5
43971,98076,5
43957,98048,4
43948,98040,5
43938,98033,5
43937,98038,5
43947,98044,4
43948,98063,5
43949,98068,5
43950,98061,6
43954,98064,4
43944,98042,4
43944,98024,5
43923,97995,5
43898,97937,5
43875,97846,5
43802,97753,4
43747,97642,5
43701,97521,5
43632,97405,5
43586,97281,5
43534,97194,4
43501,97131,5
43467,97086,5
43457,97065,5
43447,97064,5
43459,97070,4
43452,97076,5
43464,97100,5
43472,97120,5
43494,97154,5
43523,97207,4
43549,97247,5
43558,97288,5
43569,97308,6
43560,97255,3
43506,97147,5
43450,97051,5
43415,96970,5
43380,96918,5
43351,96862,4
43349,96841,5
43337,96832,5
43326,96813,5
43320,96800,5
43305,96777,4
43306,96759,5
43304,96762,5
43299,96762,5
43302,96779,5
43310,96798,4
43323,96813,5
43341,96832,5
43344,96841,5
43354,96863,5
43360,96871,5
43358,96880,4
43373,96889,5
43376,96890,5
43377,96905,6
43378,96905,3
43381,96912,5
43379,96906,5
43376,96897,5
43374,96896,4
43379,96895,5
43368,96893,5
43366,96898,5
43371,96892,5
43373,96883,4
43343,96860,5
43345,96842,5
43346,96827,5
43329,96812,5
43276,96790,4
43320,96757,5
43308,96745,5
43288,96715,5
43211,96694,5
43253,96660,4
43238,96616,6
43205,96551,4
43169,96499,5
43147,96434,4
43118,96376,4
43097,96336,5
43115,96283,5
43047,96255,5
43038,96220,4
43027,96190,5
43076,96176,5
43009,96171,5
43009,96159,5
43000,96159,4
43041,96160,5
43008,96162,5
43010,96184,5
43014,96199,5
43041,96216,4
43042,96243,5
43043,96263,5
43053,96281,5
43078,96275,5
43081,96322,4
43081,96332,5
43087,96356,6
43102,96312,4
43107,96375,4
43109,96366,4
43094,96355,5
43082,96266,5
43061,96257,5
43011,96153,4
42934,96000,5
42843,95817,4
42751,95627,5
42660,95442,5
42573,95274,4
42498,95207,5
42457,95072,5
42423,95031,5
42423,95031,5
42436,95121,4
42460,95097,5
42476,95153,5
42514,95231,5
42547,95321,5
42585,95377,4
42620,95437,5
42649,95486,5
42663,95534,6
42693,95589,4
42717,95647,4
42740,95667,5
42733,95674,5
42714,95599,5
42652,95470,4
42588,95345,5
42543,95249,5
42512,95185,5
42481,95143,5
42476,95117,4
42462,95120,5
42467,95127,5
42465,95132,5
42478,95132,5
42471,95138,4
42479,95159,5
42492,95182,5
42507,95205,5
42508,95219,5
42526,95255,5
42536,95276,4
42547,95296,5
42557,95310,5
42555,95327,6
42567,95339,3
42584,95348,5
42585,95357,5
42592,95370,5
42581,95374,4
42599,95380,4
42591,95369,5
42590,95364,5
42582,95369,5
42586,95348,4
42581,95357,5
42579,95353,5
42592,95376,5
42589,95371,5
42584,95372,4
42576,95355,5
42575,95337,5
42565,95326,5
42558,95317,5
42567,95303,4
42551,95288,6
42536,95267,4
42535,95263,5
42543,95239,5
42526,95222,4
42506,95204,5
42498,95177,5
42484,95162,5
42471,95129,4
42458,95102,4
42453,95067,5
42436,95049,5
42422,95018,5
42415,95011,4
42404,94986,5
42398,94965,5
42382,94959,5
42384,94950,5
42377,94955,4
42382,94968,5
42395,94979,5
42394,95000,5
42403,94992,5
42411,95021,4
42420,95034,5
42431,95051,6
42439,95071,4
42444,95088,5
42450,95108,4
42472,95135,5
42474,95165,5
42485,95180,5
42495,95185,5
42500,95207,4
42503,95214,5
42507,95222,5
42527,95238,5
42525,95234,4
42525,95243,5
42479,95233,5
42513,95239,5
42520,95221,5
42522,95220,4
42449,95205,5
42495,95186,5
42496,95176,5
42492,95169,5
42439,95161,4
42469,95137,5
42462,95128,5
42464,95108,6
42472,95089,4
42437,95051,4
42423,95025,5
42387,94956,5
42412,94878,5
42293,94756,5
42222,94598,4
42140,94419,5
42090,94230,5
41955,94050,5
41873,93898,4
41800,93761,4
41779,93687,5
41740,93637,5
41729,93640,5
41746,93668,4
41766,93707,5
41795,93792,5
41837,93882,5
41876,93968,5
41941,94025,5
41974,94166,4
42019,94235,5
42046,94302,5
42076,94323,5
42116,94444,4
42142,94494,5
42153,94496,5
42137,94433,5
42079,94334,5
42016,94196,4
41963,94117,5
41938,94102,5
41929,94039,5
41918,94024,5
41916,94033,4
41919,94116,5
41932,94061,5
41934,94072,5
41943,94094,4
41950,94147,5
41966,94146,5
41983,94160,5
41996,94208,5
42015,94251,4
42030,94270,6
42050,94293,4
42056,94328,5
42089,94359,5
42093,94389,4
42103,94401,5
42104,94424,5
42112,94432,5
42122,94439,5
42120,94447,4
42121,94434,5
42118,94442,5
42119,94448,5
42125,94431,5
42112,94433,4
42116,94425,5
42109,94426,5
42122,94433,5
42118,94432,4
42106,94416,4
42097,94396,5
42100,94367,5
42081,94354,5
42078,94335,4
42067,94317,5
42049,94285,6
42048,94271,4
42036,94265,5
42024,94233,4
42015,94217,5
42005,94195,5
41986,94173,5
41978,94148,5
41972,94141,4
41974,94112,5
41962,94112,5
41952,94096,5
41951,94079,5
41946,94068,4
41936,94055,5
41937,94057,5
41935,94059,5
41934,94065,4
41943,94084,4
41953,94091,5
41958,94110,5
41963,94129,5
41973,94151,4
41990,94168,5
42005,94189,5
42005,94211,5
42021,94239,5
42032,94255,4
42034,94272,5
42048,94295,5
42060,94304,5
42061,94314,5
42066,94340,4
42070,94343,5
42073,94351,5
42070,94341,5
42076,94343,5
42066,94333,4
42067,94331,5
42062,94323,5
42062,94308,5
42050,94295,5
42041,94278,4
42039,94255,5
42033,94241,5
42019,94229,5
42021,94228,5
42020,94206,4
41998,94198,8
41998,94181,2
42016,94155,5
41984,94134,4
41969,94108,5
41955,94086,5
41926,94044,5
41905,93983,5
41875,93916,4
41833,93814,5
41792,93712,5
41704,93600,5
41668,93492,5
41619,93393,4
41578,93306,5
41505,93248,5
41528,93213,5
41522,93190,5
41516,93202,4
41484,93230,6
41546,93269,4
41567,93317,5
41592,93367,4
41636,93420,6
41651,93484,3
41670,93522,5
41683,93566,5
41751,93590,4
41709,93629,5
41730,93656,5
41738,93672,5
41791,93654,5
41714,93611,4
41670,93502,5
41613,93402,5
41611,93337,5
41581,93328,5
41577,93321,4
41580,93344,5
41595,93358,5
41604,93399,5
41619,93415,5
41623,93439,4
41641,93440,5
41668,93521,6
41684,93569,4
41714,93626,5
41740,93630,4
41777,93755,5
41814,93821,5
41834,93873,5
41864,93912,4
41889,93995,5
41910,94042,5
41941,94086,5
41956,94145,5
41969,94148,4
41986,94174,5
41993,94197,5
42014,94265,5
42011,94211,5
42016,94224,4
42018,94229,5
42027,94291,5
42033,94254,5
42047,94277,5
42051,94290,4
42058,94315,5
42045,94284,5
42041,94265,6
42035,94258,4
42025,94257,4
42026,94237,5
42024,94232,5
42024,94229,5
42016,94215,4
42016,94204,5
42004,94189,5
41997,94169,5
41982,94165,5
41982,94150,4
41992,94161,5
41985,94162,5
41994,94175,5
41999,94177,5
42004,94194,4
42007,94210,5
42023,94240,5
42042,94272,5
42055,94310,5
42068,94355,5
42101,94407,4
42125,94457,5
42163,94517,5
42191,94594,6
42227,94657,3
42253,94715,5
42282,94779,5
42315,94833,5
42351,94894,4
42371,94945,4
42397,94984,5
42425,95035,5
42430,95070,5
42449,95105,4
42471,95130,5
42476,95155,5
42490,95179,5
42504,95193,5
42502,95201,4
42515,95199,5
42503,95207,5
42506,95207,5
42505,95193,5
42496,95171,4
42476,95143,6
42466,95089,4
42431,95037,5
42411,94988,5
42384,94928,4
42361,94887,5
42343,94851,5
42320,94819,5
42309,94809,4
42306,94808,4
42306,94807,5
42315,94837,5
42333,94858,5
42351,94890,4
42366,94950,5
42396,94996,5
42419,95026,5
42439,95069,5
42458,95121,4
42478,95154,5
42498,95194,5
42512,95216,5
42525,95238,5
42530,95230,4
42508,95181,5
42466,95087,6
42419,94987,4
42384,94947,5
42375,94935,4
42381,94929,5
42376,94931,5
42392,94957,5
42384,94969,5
42405,94983,4
42412,95006,5
42427,95037,5
42446,95066,5
42449,95128,4
42485,95172,5
42522,95227,5
42556,95290,5
42531,95333,5
42594,95389,4
42630,95420,5
42649,95463,5
42604,95492,5
42677,95522,5
42679,95535,4
42686,95544,5
42692,95548,5
42694,95542,6
42700,95547,4
42693,95539,4
42741,95541,5
42692,95533,5
42692,95552,5
42698,95560,5
42763,95560,4
42695,95551,5
42696,95536,5
42694,95528,5
42712,95507,4
42677,95487,4
42664,95487,5
42652,95468,5
42651,95451,5
42636,95442,4
42627,95413,5
42619,95388,5
42615,95341,5
42597,95353,5
42597,95358,5
42599,95368,4
42613,95321,5
42606,95382,5
42622,95408,6
42636,95435,4
42657,95431,4
42683,95525,5
42709,95591,5
42739,95658,5
42785,95757,4
42820,95810,5
42866,95892,5
42898,95971,5
42946,96108,5
42971,96121,4
43021,96196,5
43054,96272,5
43086,96384,5
43115,96387,4
43141,96426,5
43163,96460,5
43176,96511,5
43190,96527,5
43208,96543,4
43201,96551,6
43209,96538,4
43204,96535,5
43192,96509,5
43165,96469,4
43152,96421,5
43121,96367,5
43083,96308,5
43061,96233,5
43023,96182,4
43004,96138,5
42986,96115,5
42977,96091,5
42983,96103,5
42981,96122,4
43000,96133,5
43007,96166,5
43029,96204,5
43050,96247,4
43059,96274,5
43082,96308,5
43111,96353,5
43121,96393,5
43134,96428,4
43153,96442,5
43145,96430,6
43127,96372,4
43077,96274,5
43027,96192,4
43007,96150,5
42998,96129,5
42994,96125,5
43006,96143,5
43010,96165,4
43022,96187,5
43039,96210,5
43046,96235,5
43069,96272,5
43085,96312,4
43115,96355,5
43140,96419,5
43166,96465,5
43191,96529,4
43227,96584,4
43262,96637,5
43272,96679,5
43302,96732,5
43326,96767,4
43338,96800,5
43351,96819,5
43374,96851,6
43383,96859,4
43380,96879,4
43392,96890,5
43397,96896,5
43390,96903,5
43402,96929,5
43418,96963,4
43424,96976,5
43424,96964,5
43426,96964,5
43423,96952,5
43425,96953,4
43413,96944,5
43420,96934,5
43404,96931,5
43407,96919,4
43404,96898,4
43392,96886,5
43389,96875,5
43362,96841,5
43353,96812,5
43341,96788,4
43336,96777,5
43326,96769,5
43335,96766,5
43327,96782,4
43332,96791,5
43338,96810,5
43352,96829,5
43370,96853,5
43380,96890,4
43378,96918,5
43418,96964,5
43437,97010,5
43463,97061,5
43449,97129,4
43528,97165,5
43555,97237,5
43595,97301,5
43560,97360,5
43639,97386,4
43656,97443,5
43679,97467,5
43690,97494,5
43697,97525,4
43711,97536,6
43712,97545,4
43762,97554,5
43714,97553,5
43705,97530,4
43690,97502,5
43731,97465,5
43649,97394,5
43608,97298,5
43552,97198,4
43518,97078,5
43434,96961,5
43369,96838,5
43328,96749,5
43289,96677,4
43263,96637,5
43246,96609,5
43238,96614,5
43247,96609,5
43260,96651,4
43267,96681,5
43282,96701,6
43298,96672,4
43319,96776,4
43338,96809,5
43341,96827,5
43349,96787,5
43336,96812,5
43298,96717,4
43235,96574,5
43174,96481,4
43131,96376,5
43093,96312,5
43066,96272,4
43068,96298,5
43050,96226,5
43048,96228,5
43041,96221,5
43037,96278,4
43051,96220,5
43044,96239,5
43046,96258,5
43066,96301,5
43072,96294,4
43084,96313,5
43094,96334,5
43100,96345,5
43107,96351,4
43122,96380,4
43125,96391,5
43145,96406,5
43139,96409,5
43136,96400,4
43141,96415,5
43130,96409,5
43129,96401,5
43128,96402,5
43130,96388,4
43129,96390,5
43129,96392,5
43132,96399,5
43120,96380,5
43106,96351,4
43090,96312,5
43074,96290,5
43056,96251,5
43039,96208,5
43009,96170,4
42991,96123,4
42977,96082,5
42945,96021,5
42911,95959,6
42878,95893,3
42827,95805,5
42786,95723,5
42749,95641,5
42714,95566,4
42683,95511,5
42658,95481,5
42652,95456,5
42644,95448,5
42637,95452,4
42642,95451,5
42650,95463,5
42652,95466,5
42661,95483,5
42664,95500,4
42674,95523,5
42684,95550,5
42701,95566,5
42709,95598,5
42727,95623,4
42732,95656,6
42746,95678,4
42762,95698,5
42777,95720,5
42783,95748,6
42787,95761,3
42791,95761,5
42805,95779,5
42810,95776,4
42799,95774,5
42790,95748,5
42768,95701,5
42739,95631,5
42694,95522,4
42618,95388,5
42549,95240,5
42472,95088,5
42396,94937,5
42328,94814,4
42289,94726,6
42255,94669,4
42250,94651,5
42255,94676,5
42265,94701,4
42281,94747,5
42301,94796,6
42325,94841,4
42353,94908,5
42382,94972,4
42421,95039,5
42443,95097,5
42475,95143,5
42482,95173,4
42489,95153,5
42450,95056,5
42373,94926,5
42324,94813,5
42282,94732,4
42254,94676,5
42190,94614,5
42218,94601,5
42212,94595,5
42212,94595,4
42153,94602,5
42215,94606,5
42212,94624,5
42221,94632,5
42221,94662,4
42252,94686,5
42264,94718,5
42279,94749,6
42331,94767,4
42318,94807,4
42315,94826,5
42331,94841,5
42406,94871,5
42346,94879,4
42360,94891,4
42353,94888,5
42394,94901,5
42354,94899,5
42352,94889,4
42347,94885,5
42367,94881,5
42352,94882,5
42347,94881,5
42356,94888,4
42356,94877,5
42357,94887,5
42347,94870,5
42346,94860,5
42320,94802,5
42322,94824,4
42323,94802,5
42304,94779,5
42293,94705,6
42280,94739,3
42259,94704,5
42249,94675,5
42224,94626,5
42212,94591,5
42180,94540,4
42155,94493,5
42134,94505,5
42126,94427,5
42108,94400,4
42099,94384,5
42103,94430,5
42095,94361,5
42085,94370,5
42091,94376,4
42100,94408,5
42107,94399,5
42107,94410,5
42117,94424,5
42126,94449,4
42140,94464,6
42143,94490,4
42160,94506,5
42167,94531,5
42171,94562,4
42193,94575,5
42199,94592,5
42200,94613,5
42215,94622,5
42229,94637,4
42236,94655,5
42232,94669,5
42251,94679,5
42241,94676,4
42253,94690,5
42250,94688,5
42242,94689,5
42255,94684,5
42243,94666,4
42229,94646,5
42224,94629,5
42207,94581,5
42166,94509,5
42121,94419,4
42065,94285,5
41989,94127,6
41912,93956,4
41833,93797,5
41750,93649,4
41690,93518,5
41652,93436,5
41618,93391,5
41600,93382,5
41616,93399,4
41632,93433,5
41654,93496,5
41691,93568,5
41721,93644,4
41747,93719,4
41794,93783,5
41819,93852,5
41856,93912,5
41879,93982,4
41919,94048,5
41943,94089,5
41941,94069,5
41900,93998,5
41854,93883,4
41801,93786,5
41781,93743,5
41766,93709,6
41748,93699,4
41753,93715,4
41759,93720,5
41772,93724,5
41776,93728,5
41779,93751,5
41783,93753,4
41796,93792,5
41803,93814,5
41822,93843,5
41829,93871,4
41861,93921,4
41880,93960,5
41897,94000,5
41930,94034,5
41946,94064,4
41951,94100,5
41957,94125,5
41974,94144,5
41981,94160,5
41984,94162,5
41996,94188,4
41995,94188,5
41993,94191,5
41999,94192,5
41999,94203,4
41992,94200,5
42007,94212,5
42015,94208,5
42003,94219,5
42002,94206,4
41997,94196,5
41986,94185,5
41944,94163,5
41977,94142,4
41976,94123,4
41962,94108,5
41897,94085,5
41948,94077,5
41940,94059,4
41920,94032,5
41887,94004,5
41897,93985,5
41885,93962,5
41876,93923,4
41897,93906,6
41851,93886,4
41850,93864,5
41832,93858,5
41881,93831,4
41819,93842,5
41826,93831,5
41823,93843,5
41874,93849,5
41845,93871,4
41848,93875,5
41852,93897,5
41879,93921,5
41871,93942,5
41878,93950,4
41890,93981,5
41905,93989,5
41914,94038,5
41930,94068,4
41937,94079,5
41945,94051,5
41952,94118,5
41968,94136,5
41973,94156,5
41980,94104,4
41987,94171,6
41988,94181,4
41986,94178,5
41984,94180,4
41987,94174,5
41983,94178,5
41986,94167,5
41984,94204,5
41969,94132,4
41965,94115,5
41938,94087,5
41931,94098,5
41899,93978,5
41861,93894,4
41821,93787,5
41756,93708,5
41707,93571,5
41651,93466,4
41612,93377,5
41575,93312,5
41552,93253,5
41533,93231,5
41534,93233,4
41545,93249,5
41549,93293,5
41574,93320,5
41592,93374,5
41623,93443,4
41647,93486,5
41676,93528,5
41697,93583,5
41713,93619,5
41730,93662,4
41753,93705,5
41767,93726,5
41763,93719,5
41734,93649,5
41693,93546,4
41634,93433,5
41610,93389,5
41592,93357,5
41584,93337,4
41589,93360,4
41592,93369,5
41598,93370,5
41600,93383,5
41606,93395,5
41608,93402,4
41615,93417,5
41631,93444,5
41646,93468,5
41652,93495,4
41669,93533,5
41691,93561,5
41702,93601,5
41714,93618,5
41724,93647,4
41738,93671,5
41748,93678,5
41747,93692,5
41757,93703,5
41762,93705,4
41761,93705,5
41764,93707,5
41759,93709,5
41758,93698,4
41752,93685,4
41751,93681,5
41739,93681,5
41744,93680,5
41743,93677,4
41742,93655,6
41718,93633,4
41713,93592,5
41700,93572,5
41679,93546,4
41678,93519,5
41659,93497,5
41653,93482,5
41641,93451,5
41617,93427,4
41607,93381,5
41597,93357,5
41588,93329,5
41573,93304,5
41560,93304,4
41559,93281,5
41550,93276,5
41552,93270,5
41546,93256,5
41548,93260,4
41560,93271,5
41567,93292,5
41565,93317,5
41579,93340,4
41592,93366,5
41599,93393,6
41622,93430,4
41636,93473,5
41658,93517,4
41671,93565,5
41714,93608,5
41728,93654,5
41754,93709,5
41738,93764,4
41803,93803,5
41827,93846,5
41845,93904,5
41815,93948,5
41893,93995,4
41918,94017,5
41930,94065,5
41906,94090,5
41958,94112,5
41966,94144,4
41983,94153,5
42026,94188,5
41992,94198,6
42000,94196,3
42012,94213,5
42073,94210,5
42007,94220,5
42004,94212,5
42008,94203,4
42036,94173,5
41977,94134,5
41957,94082,5
41929,94031,5
41921,93988,4
41876,93936,5
41862,93902,5
41846,93869,5
41850,93854,5
41850,93886,4
41855,93901,5
41873,93934,5
41890,93945,5
41928,94048,5
41963,94124,5
41997,94198,4
42030,94211,5
42064,94336,5
42094,94409,6
42126,94455,3
42163,94523,4
42193,94592,5
42209,94615,5
42205,94606,4
42178,94575,5
42137,94420,5
42105,94361,5
42081,94336,5
42067,94388,4
42079,94326,5
42083,94348,5
42081,94356,5
42099,94416,5
42103,94394,4
42118,94412,5
42131,94446,5
42143,94493,5
42164,94524,5
42195,94568,4
42222,94623,6
42251,94679,4
42279,94743,5
42295,94789,4
42332,94843,6
42363,94882,3
42366,94910,5
42388,94941,5
42398,94975,4
42412,94992,5
42420,95001,5
42426,95025,5
42423,95031,5
42431,95031,4
42436,95039,5
42436,95036,5
42439,95047,5
42445,95057,5
42448,95073,4
42453,95076,5
42446,95057,5
42433,95040,5
42428,95020,5
42410,95002,4
42417,95000,5
42407,94974,6
42401,94965,4
42385,94949,5
42377,94933,4
42376,94925,5
42365,94909,5
42363,94887,5
42351,94876,4
42355,94875,5
42359,94877,5
42359,94888,5
42360,94897,5
42369,94917,4
42380,94942,5
42386,94967,5
42424,95022,5
42443,95065,5
42471,95132,4
42501,95196,5
42534,95270,5
42578,95351,5
42622,95430,5
42664,95518,4
42709,95595,5
42741,95669,5
42779,95735,6
42812,95786,4
42823,95825,4
42850,95867,5
42858,95890,5
42873,95905,5
42879,95922,8
42893,95936,1
42864,95951,5
42893,95944,5
42897,95954,5
42896,95950,4
42907,95936,5
42896,95946,5
42884,95931,5
42880,95915,5
42866,95887,4
42854,95848,5
42834,95808,5
42805,95752,5
42769,95682,5
42736,95611,5
42697,95529,4
42655,95469,5
42633,95406,5
42615,95374,6
42604,95358,3
42602,95360,5
42604,95371,5
42623,95405,5
42640,95436,4
42665,95493,4
42660,95562,5
42730,95634,5
42757,95696,5
42799,95780,4
42781,95840,5
42872,95918,5
42904,95992,5
42935,96045,5
42906,96063,4
42949,96040,5
42911,95947,5
42860,95839,5
42840,95771,5
42805,95734,4
42779,95718,6
42785,95706,4
42845,95712,5
42787,95715,5
42787,95719,4
42789,95738,5
42856,95768,5
42824,95789,5
42831,95819,5
42857,95857,4
42896,95903,5
42894,95959,5
42934,96007,5
42959,96060,4
42977,96093,5
43012,96160,5
43024,96203,5
43055,96232,5
43060,96219,4
43077,96299,5
43094,96310,5
43097,96325,5
43102,96280,5
43106,96342,4
43098,96334,5
43114,96348,6
43116,96327,4
43115,96360,5
43132,96398,4
43133,96399,5
43137,96426,5
43134,96389,5
43134,96384,5
43137,96378,4
43121,96441,5
43125,96360,5
43116,96362,5
43114,96343,4
43112,96381,5
43104,96341,5
43098,96316,5
43091,96313,5
43089,96322,4
43090,96299,5
43089,96308,5
43087,96305,5
43107,96325,5
43106,96351,4
43119,96383,5
43135,96425,5
43164,96470,6
43200,96533,4
43234,96608,4
43273,96694,5
43319,96775,5
43362,96860,5
43397,96939,5
43432,97009,4
43481,97102,5
43518,97176,5
43546,97235,5
43575,97287,4
43617,97357,4
43646,97413,5
43675,97473,5
43694,97497,5
43708,97524,4
43715,97544,5
43725,97547,5
43726,97550,5
43718,97524,5
43704,97485,5
43670,97432,4
43646,97380,5
43614,97319,5
43583,97277,5
43561,97227,4
43556,97210,5
43564,97200,5
43556,97215,5
43555,97231,5
43572,97253,4
43580,97287,5
43605,97335,5
43634,97376,5
43664,97435,5
43689,97502,4
43732,97573,5
43765,97640,5
43793,97721,5
43822,97758,4
43832,97769,5
43809,97721,5
43775,97614,5
43721,97528,5
43688,97470,4
43672,97421,6
43660,97384,4
43645,97368,5
43630,97366,5
43629,97355,4
43628,97351,5
43629,97335,5
43627,97355,5
43627,97349,5
43634,97362,4
43629,97370,5
43648,97382,5
43643,97394,5
43651,97407,5
43659,97413,4
43668,97428,5
43671,97440,5
43680,97446,5
43681,97452,4
43676,97462,5
43675,97455,5
43686,97450,5
43678,97457,5
43673,97453,4
43666,97445,5
43677,97447,6
43673,97443,4
43668,97445,5
43678,97453,4
43679,97441,5
43660,97413,5
43620,97394,5
43638,97366,5
43620,97346,4
43600,97305,5
43535,97269,5
43560,97230,5
43546,97192,5
43526,97145,4
43433,97092,5
43466,97027,5
43432,96947,5
43387,96866,5
43353,96790,4
43307,96721,5
43279,96664,5
43253,96616,5
43290,96598,4
43229,96569,5
43219,96556,5
43216,96549,5
43276,96556,5
43216,96553,4
43230,96564,5
43227,96582,5
43258,96587,5
43241,96602,5
43250,96628,4
43259,96649,5
43280,96661,5
43274,96691,5
43294,96712,5
43304,96732,4
43293,96692,5
43299,96734,5
43297,96736,5
43296,96714,5
43284,96639,4
43260,96649,5
43238,96599,5
43202,96526,5
43152,96398,5
43113,96337,4
43065,96249,5
43024,96173,5
42988,96135,5
42961,96052,4
42945,96039,5
42943,96021,5
42930,96082,5
42941,96034,5
42942,96038,4
42959,96043,5
42969,96124,5
42978,96111,5
42991,96130,5
42995,96157,4
43004,96176,5
42990,96118,5
42947,96020,5
42887,95883,5
42831,95800,4
42793,95727,5
42758,95662,5
42742,95637,5
42737,95603,4
42724,95596,5
42721,95581,4
42713,95581,5
42719,95576,5
42722,95581,4
42714,95593,5
42732,95618,5
42735,95631,5
42742,95650,5
42750,95675,4
42775,95695,5
42783,95718,5
42796,95724,5
42792,95743,5
42797,95743,4
42803,95762,5
42809,95758,5
42811,95759,5
42803,95754,5
42800,95756,4
42814,95756,5
42801,95759,5
42805,95749,5
42802,95749,4
42812,95761,4
42802,95769,6
42804,95757,3
42794,95740,5
42779,95723,4
42778,95706,5
42769,95689,5
42757,95661,5
42744,95637,5
42737,95606,4
42723,95579,5
42695,95542,5
42680,95505,5
42654,95450,5
42616,95380,4
42580,95304,5
42539,95250,5
42518,95204,5
42505,95160,5
42485,95130,4
42477,95114,5
42469,95109,5
42468,95092,6
42460,95102,4
42467,95099,4
42471,95111,5
42478,95120,5
42479,95135,5
42493,95164,4
42508,95179,5
42508,95198,5
42531,95238,5
42536,95261,5
42553,95285,4
42566,95315,5
42586,95351,5
42603,95380,5
42612,95392,5
42623,95416,4
42634,95450,5
42639,95459,5
42639,95463,5
42660,95474,5
42657,95485,5
42651,95486,4
42654,95478,5
42652,95472,5
42647,95452,6
42633,95446,3
42628,95435,5
42619,95403,5
42602,95377,5
42564,95330,4
42559,95283,5
42522,95203,5
42461,95080,5
42346,94937,5
42307,94753,4
42199,94539,5
42092,94346,5
41947,94148,5
41925,93996,5
41862,93874,4
41825,93801,5
41799,93769,5
41808,93782,5
41818,93820,5
41852,93888,4
41939,93952,6
41920,94044,4
41976,94154,5
42024,94247,5
42131,94345,6
42114,94434,3
42161,94525,5
42197,94614,5
42265,94666,4
42243,94699,4
42232,94639,5
42175,94510,5
42120,94393,5
42071,94312,4
42036,94231,5
42001,94195,5
41999,94130,5
41985,94158,5
41982,94147,4
41982,94132,5
41974,94085,5
41991,94147,5
41983,94156,5
41990,94167,4
41995,94124,4
42008,94205,6
42018,94229,4
42028,94240,5
42045,94269,4
42044,94271,5
42047,94287,5
42055,94299,5
42063,94367,5
42067,94320,4
42064,94321,5
42075,94326,5
42076,94396,5
42071,94339,4
42078,94344,5
42075,94341,5
42077,94372,5
42080,94355,5
42086,94353,4
42089,94359,5
42083,94383,5
42094,94378,5
42096,94380,5
42090,94367,4
42080,94362,5
42080,94349,5
42067,94325,6
42056,94320,4
42061,94299,4
42058,94302,5
42062,94276,5
42048,94270,5
42031,94244,5
42021,94225,4
42014,94206,5
42003,94169,5
41998,94160,5
41987,94137,4
41974,94122,5
41972,94118,5
41955,94109,5
41958,94103,5
41955,94097,4
41960,94095,5
41964,94106,5
41967,94114,5
41965,94127,5
41980,94142,5
41991,94159,4
41993,94182,5
41997,94204,5
42011,94233,6
42032,94249,3
42043,94274,5
42041,94310,5
42070,94318,5
42067,94338,5
42081,94356,4
42099,94373,5
42100,94385,5
42104,94392,5
42111,94414,4
42116,94415,4
42122,94423,5
42117,94429,5
42117,94423,5
42107,94410,4
42101,94399,5
42094,94369,5
42078,94327,5
42037,94260,6
42005,94174,3
41948,94068,6
41906,93949,4
41842,93825,5
41784,93715,5
41734,93617,4
41689,93529,5
41659,93471,5
41634,93438,5
41647,93446,5
41651,93468,4
41666,93497,5
41681,93549,5
41709,93602,5
41732,93662,5
41762,93717,4
41786,93776,5
41815,93830,5
41843,93869,5
41854,93919,4
41885,93982,5
41897,94008,5
41905,93992,5
41880,93945,5
41819,93825,4
41764,93699,5
41727,93636,6
41715,93595,4
41694,93581,5
41698,93594,4
41692,93593,5
41704,93607,5
41711,93616,5
41712,93632,5
41694,93647,4
41741,93670,5
41745,93696,5
41768,93720,5
41729,93751,5
41798,93796,4
41818,93840,5
41839,93867,5
41826,93902,5
41872,93940,4
41887,93955,5
41892,93974,5
41928,93993,5
41903,94008,5
41911,94020,4
41912,94034,5
41984,94035,5
41929,94048,6
41924,94047,4
41928,94047,4
41960,94043,5
41927,94050,5
41921,94046,5
41923,94039,5
41929,94032,4
41900,94008,5
41902,93991,5
41895,93964,5
41876,93933,5
41872,93922,4
41862,93905,5
41844,93881,5
41837,93822,5
41829,93832,4
41812,93801,4
41797,93766,5
41774,93679,5
41768,93710,5
41749,93675,5
41747,93665,4
41745,93657,5
41735,93652,5
41732,93643,5
41734,93648,4
41741,93701,5
41738,93667,5
41742,93679,5
41753,93704,5
41770,93791,4
41783,93750,5
41784,93774,5
41802,93798,5
41819,93865,5
41840,93862,4
41852,93902,5
41873,93934,5
41884,93966,5
41896,93988,4
41916,94005,4
41919,94031,5
41927,94059,5
41937,94075,5
41942,94084,4
41954,94093,7
41956,94112,3
41960,94108,5
41959,94114,5
41960,94119,4
41951,94102,5
41954,94101,5
41946,94092,5
41946,94082,5
41935,94060,4
41931,94044,5
41915,94019,5
41896,93977,5
41877,93931,5
41855,93870,4
41805,93781,5
41773,93684,5
41726,93586,5
41670,93481,5
41618,93383,4
41576,93286,5
41529,93228,5
41503,93157,5
41494,93130,4
41480,93119,5
41483,93130,6
41496,93153,4
41507,93196,5
41535,93248,4
41562,93300,5
41592,93340,5
41609,93398,5
41623,93430,5
41634,93455,4
41648,93481,5
41661,93512,5
41675,93533,5
41680,93532,5
41649,93474,4
41616,93378,5
41546,93247,5
41513,93183,5
41493,93154,5
41484,93151,4
41497,93152,5
41504,93162,5
41506,93169,5
41509,93189,4
41512,93206,4
41529,93233,5
41543,93260,5
41563,93298,5
41577,93336,4
41591,93385,5
41632,93434,5
41639,93472,5
41673,93533,5
41681,93573,4
41705,93615,5
41732,93653,5
41750,93689,5
41767,93718,5
41768,93754,4
41785,93782,5
41795,93792,5
41804,93808,5
41821,93825,5
41820,93853,4
41831,93856,5
41833,93871,5
41840,93894,5
41856,93912,5
41875,93941,4
41882,93943,5
41864,93949,5
41874,93934,5
41875,93923,4
41861,93921,5
41831,93924,5
41859,93916,5
41871,93920,5
41868,93910,4
41808,93903,5
41857,93899,5
41842,93890,5
41848,93871,5
41817,93881,4
41855,93887,5
41857,93883,5
41849,93897,5
41886,93910,5
41869,93942,4
41879,93965,5
41902,93993,4
41972,94042,5
41941,94096,4
41966,94148,5
42006,94208,4
42089,94287,5
42068,94355,5
42113,94430,4
42142,94503,5
42189,94564,5
42211,94637,5
42247,94701,5
42281,94766,4
42318,94809,5
42340,94881,5
42365,94938,5
42395,94971,5
42400,94963,4
42426,95047,5
42442,95076,5
42449,95087,5
42450,95047,5
42454,95108,4
42460,95115,5
42465,95112,6
42454,95097,4
42451,95100,5
42453,95095,4
42445,95079,5
42440,95114,5
42437,95042,5
42422,95013,4
42404,94972,5
42380,94985,5
42346,94854,5
42311,94789,5
42270,94722,4
42232,94678,5
42212,94585,5
42184,94551,5
42182,94530,5
42171,94535,4
42187,94538,5
42188,94557,5
42200,94600,5
42221,94639,5
42266,94701,4
42288,94764,5
42307,94831,5
42338,94885,6
42372,94942,4
42404,95004,4
42422,95055,5
42446,95102,5
42467,95121,5
42463,95107,4
42436,95030,5
42374,94919,5
42339,94838,5
42314,94817,5
42304,94798,4
42310,94809,5
42313,94811,5
42321,94819,5
42329,94848,5
42336,94873,4
42357,94894,5
42370,94930,5
42396,94963,5
42415,95009,5
42439,95063,5
42471,95127,4
42499,95178,5
42524,95233,5
42554,95304,6
42573,95346,3
42608,95393,5
42634,95440,5
42639,95461,5
42656,95482,4
42673,95511,4
42679,95538,5
42698,95557,5
42692,95558,5
42700,95568,4
42709,95560,5
42699,95567,5
42700,95570,5
42711,95574,5
42713,95586,4
42705,95573,5
42702,95555,5
42693,95537,5
42686,95521,5
42677,95513,4
42671,95497,6
42661,95487,4
42658,95468,5
42658,95459,5
42645,95444,4
42640,95423,5
42633,95411,5
42623,95400,5
42607,95398,4
42617,95389,4
42611,95404,5
42622,95413,5
42632,95445,5
42635,95459,4
42662,95492,5
42681,95538,5
42706,95580,5
42740,95654,5
42769,95731,4
42820,95810,5
42869,95904,5
42913,95999,5
42960,96092,5
43001,96186,4
43046,96274,5
43103,96359,6
43136,96431,4
43158,96484,5
43184,96527,4
43203,96555,5
43213,96568,5
43183,96570,5
43218,96573,5
43197,96547,4
43184,96517,5
43114,96470,5
43143,96414,5
43126,96380,4
43100,96341,5
43049,96305,5
43065,96277,5
43061,96270,5
43060,96266,4
43089,96268,5
43066,96287,5
43078,96304,5
43084,96337,5
43173,96359,4
43134,96408,5
43142,96448,5
43166,96494,6
43235,96552,4
43222,96603,4
43242,96647,5
43260,96673,5
43270,96655,5
43226,96586,5
43197,96525,4
43186,96508,5
43179,96500,5
43193,96540,5
43205,96560,4
43222,96589,5
43229,96571,5
43250,96665,5
43280,96712,5
43312,96774,5
43336,96786,4
43381,96924,5
43428,97019,5
43493,97120,5
43536,97229,5
43598,97336,4
43656,97472,5
43710,97567,5
43769,97707,6
43793,97734,3
43840,97802,5
43873,97849,5
43897,97977,5
43927,97971,5
43953,98027,4
43979,98100,5
44017,98190,5
44046,98196,5
44081,98287,4
44131,98368,4
44172,98450,5
44180,98467,5
44188,98465,5
44180,98468,4
44170,98430,5
44156,98395,5
44127,98353,5
44114,98320,5
44091,98284,4
44076,98238,6
44034,98181,4
43996,98099,5
43969,98037,5
43937,97980,4
43906,97933,5
43886,97904,5
43871,97849,5
43839,97807,5
43818,97777,4
43813,97782,5
43819,97790,5
43813,97774,5
43803,97756,4
43798,97749,4
43798,97745,5
43789,97744,5
43805,97759,5
43808,97765,4
43806,97774,5
43820,97815,5
43837,97845,5
43851,97859,5
43836,97850,4
43836,97839,5
43829,97816,6
43821,97796,4
43798,97762,5
43766,97690,4
43733,97632,5
43694,97563,5
43671,97508,5
43648,97464,5
43611,97405,4
43581,97346,5
43567,97316,9
43544,97282,1
43520,97256,5
43514,97258,4
43534,97278,5
43550,97289,5
43536,97279,5
43535,97271,4
43539,97284,5
43550,97320,5
43565,97347,5
43579,97356,5
43557,97333,4
43505,97209,5
43416,96979,5
43299,96776,6
43210,96633,4
43173,96554,4
43135,96496,5
43125,96459,5
43103,96427,5
43092,96428,5
43094,96445,4
43112,96460,5
43114,96463,5
43117,96482,5
43129,96492,5
43129,96514,4
43167,96605,5
43208,96704,5
43255,96790,5
43295,96849,4
43331,96897,5
43321,96917,5
43346,96942,5
43359,96965,5
43365,96984,5
43361,96988,4
43371,96987,5
43366,96989,5
43356,96978,5
43315,96967,4
43348,96946,5
43337,96935,5
43345,96943,5
43292,96940,5
43338,96947,4
43346,96944,5
43352,96946,5
43306,96903,5
43299,96835,5
43268,96771,4
43229,96718,5
43243,96658,5
43173,96582,5
43139,96504,4
43093,96420,4
43104,96307,5
42987,96209,5
42951,96141,5
42902,96067,4
42920,95997,6
42840,95937,4
42808,95883,5
42792,95834,5
42779,95785,4
42767,95769,5
42758,95774,5
42755,95764,5
42753,95753,5
42754,95775,4
42752,95777,5
42760,95773,5
42754,95730,5
42753,95772,5
42756,95774,4
42743,95750,5
42734,95661,5
42707,95661,5
42671,95579,4
42614,95470,5
42559,95332,4
42482,95199,5
42428,95084,5
42374,94974,4
42311,94918,5
42274,94776,6
42226,94709,4
42214,94681,5
42216,94744,4
42212,94692,5
42222,94710,5
42216,94730,5
42236,94766,5
42244,94770,4
42262,94809,5
42288,94845,5
42301,94880,5
42309,94894,5
42315,94880,4
42282,94805,5
42225,94680,5
42164,94572,5
42125,94494,4
42102,94453,4
42084,94430,5
42093,94443,5
42091,94446,5
42090,94461,4
42106,94476,5
42117,94483,5
42112,94490,5
42131,94512,5
42134,94524,4
42149,94552,5
42162,94580,5
42178,94618,5
42185,94641,5
42203,94666,4
42215,94688,5
42232,94713,5
42232,94724,5
42238,94748,5
42248,94757,4
42245,94763,5
42251,94769,5
42258,94775,5
42260,94769,5
42261,94775,4
42255,94772,5
42260,94775,5
42252,94783,5
42258,94784,5
42265,94783,3
42259,94773,5
42248,94759,5
42238,94737,5
42238,94719,4
42216,94706,5
42209,94670,5
42191,94653,5
42197,94624,5
42168,94591,4
42156,94568,5
42137,94529,5
42119,94485,5
42106,94447,5
42074,94383,4
42057,94346,5
42037,94303,5
42014,94263,5
42000,94245,5
41987,94207,4
41984,94185,6
41958,94182,4
41957,94170,5
41964,94169,4
41970,94176,7
41971,94195,3
41982,94205,5
41990,94221,5
41989,94240,4
42003,94263,5
42020,94279,5
42025,94311,5
42042,94328,5
42051,94352,4
42058,94380,5
42063,94389,5
42076,94393,5
42074,94401,5
42062,94385,4
42055,94380,5
42046,94327,5
42020,94267,5
41962,94154,5
41907,94022,4
41831,93876,5
41752,93740,6
41697,93601,4
41634,93489,4
41608,93420,4
41536,93381,5
41580,93385,5
41603,93430,5
41618,93485,4
41600,93551,5
41695,93640,5
41723,93718,5
41758,93791,5
41781,93860,4
41829,93915,5
41853,93988,5
41891,94054,5
41957,94105,5
41936,94122,4
41916,94062,5
41858,93936,5
41864,93824,5
41761,93752,5
41745,93703,4
41731,93693,5
41764,93682,5
41722,93694,6
41730,93704,3
41731,93723,4
41749,93730,5
41744,93735,5
41756,93755,5
41769,93780,4
41773,93761,5
41786,93835,5
41807,93852,5
41814,93875,5
41827,93848,4
41841,93927,5
41852,93939,5
41857,93963,5
41857,93913,5
41864,93968,4
41868,93984,5
41865,93987,5
41871,94010,5
41875,93991,5
41879,93991,5
41883,94006,4
41880,94059,5
41887,94005,5
41879,94007,6
41889,94018,3
41892,94069,5
41885,94007,5
41879,94000,5
41866,93989,4
41864,94005,5
41865,93981,5
41868,93963,5
41857,93957,5
41850,93955,4
41846,93941,5
41844,93931,5
41831,93919,5
41827,93897,5
41815,93888,4
41812,93867,5
41811,93840,5
41793,93831,5
41787,93816,5
41784,93790,4
41776,93773,6
41761,93747,4
41757,93738,5
41746,93722,4
41735,93718,4
41746,93721,5
41746,93721,5
41744,93731,5
41764,93756,4
41763,93767,5
41776,93787,5
41789,93806,5
41791,93816,5
41794,93849,4
41818,93866,5
41827,93884,5
41834,93904,5
41837,93932,5
41861,93944,4
41853,93961,5
41868,93979,5
41873,93988,5
41884,93996,5
41890,94008,4
41885,94002,5
41888,94002,6
41882,93993,4
41876,93962,4
41854,93930,4
41819,93865,5
41788,93774,5
41732,93644,5
41661,93513,4
41599,93390,5
41539,93256,5
41478,93144,5
41425,93041,5
41394,92979,4
41381,92950,5
41379,92946,5
41377,92978,5
41405,93014,5
41434,93074,4
41458,93146,5
41492,93213,5
41528,93280,5
41555,93330,5
41567,93371,4
41576,93405,5
41617,93456,5
41641,93508,6
41660,93540,3
41663,93538,4
41637,93467,5
41569,93334,5
41512,93215,5
41480,93155,4
41456,93111,5
41449,93087,5
41453,93094,5
41446,93107,5
41453,93120,4
41464,93131,5
41467,93148,5
41475,93158,5
41482,93178,5
41489,93218,4
41505,93238,5
41522,93268,5
41544,93295,5
41532,93324,5
41574,93348,5
41578,93371,4
41581,93393,5
41549,93409,5
41606,93423,4
41615,93424,4
41611,93430,5
41556,93436,5
41610,93431,5
41609,93429,4
41604,93427,5
41616,93433,5
41603,93409,5
41604,93427,5
41605,93416,4
41664,93423,5
41605,93413,5
41601,93417,5
41592,93382,5
41641,93353,4
41571,93343,5
41565,93320,5
41557,93305,5
41567,93282,5
41523,93254,4
41522,93228,6
41515,93198,4
41500,93171,5
41482,93147,4
41465,93117,4
41454,93090,5
41447,93027,5
41436,93060,5
41420,93028,4
41412,92996,5
41391,92925,5
41387,92960,5
41384,92947,5
41382,92927,5
41383,92918,4
41375,92952,5
41391,92962,5
41396,92977,5
41401,93032,4
41404,93001,5
41413,93015,5
41418,93050,5
41430,93126,5
41437,93089,4
41452,93118,5
41475,93147,6
41478,93209,4
41494,93186,4
41503,93206,4
41507,93226,5
41514,93256,5
41530,93261,5
41531,93278,4
41537,93288,5
41543,93308,5
41553,93316,5
41550,93315,5
41556,93326,4
41562,93315,5
41561,93322,5
41558,93329,5
41562,93334,5
41562,93337,4
41570,93340,5
41561,93336,5
41571,93343,5
41570,93346,5
41577,93352,4
41584,93368,5
41573,93356,5
41581,93368,5
41579,93374,4
41581,93361,4
41572,93345,5
41563,93311,5
41534,93278,5
41508,93207,4
41489,93141,5
41446,93066,5
41421,92995,5
41394,92946,5
41377,92914,4
41373,92920,5
41375,92927,5
41384,92948,5
41404,93009,5
41430,93073,4
41476,93162,5
41512,93247,5
41558,93347,5
41611,93440,5
41659,93548,5
41697,93628,4
41735,93700,7
41770,93763,3
41796,93841,4
41828,93894,4
41843,93906,5
41814,93841,5
41773,93744,5
41722,93632,4
41703,93599,5
41692,93584,5
41685,93583,5
41698,93600,5
41713,93628,4
41715,93646,5
41732,93667,5
41738,93685,5
41751,93705,5
41764,93735,4
41784,93780,5
41799,93815,5
41821,93865,5
41848,93920,5
41879,93979,4
41894,94020,6
41922,94068,4
41951,94113,5
41968,94162,4
41980,94180,4
41994,94221,5
42022,94249,5
42024,94262,5
42039,94287,4
42049,94293,5
42053,94316,5
42061,94324,5
42058,94339,5
42071,94350,4
42087,94361,5
42072,94387,5
42100,94414,5
42110,94407,5
42104,94399,4
42054,94389,5
42079,94378,5
42089,94369,5
42071,94346,5
42020,94337,4
42058,94314,5
42049,94301,5
42041,94281,5
42026,94271,4
42030,94253,4
42020,94236,5
42012,94229,5
42061,94240,5
42017,94245,4
42025,94257,5
42027,94273,5
42105,94289,5
42050,94313,5
42058,94344,4
42080,94374,5
42137,94423,5
42131,94483,5
42157,94538,5
42188,94602,5
42231,94672,4
42253,94727,5
42288,94800,5
42330,94868,6
42362,94906,3
42391,95007,5
42429,95073,5
42456,95116,5
42482,95116,4
42511,95211,5
42523,95265,5
42559,95301,5
42554,95280,5
42577,95346,4
42580,95366,5
42597,95382,5
42603,95422,5
42601,95392,5
42599,95388,4
42597,95391,5
42592,95421,5
42582,95339,5
42553,95302,5
42533,95260,4
42503,95230,6
42467,95100,4
42425,95029,5
42382,94972,5
42370,94928,6
42353,94880,3
42335,94860,5
42333,94864,5
42338,94875,4
42354,94898,5
42362,94938,5
42384,94993,5
42421,95051,5
42451,95107,4
42479,95164,5
42507,95226,5
42541,95287,5
42566,95331,5
42591,95386,4
42621,95443,5
42629,95474,5
42643,95470,5
42629,95405,5
42566,95293,4
42511,95181,5
42466,95122,6
42459,95078,4
42438,95069,5
42436,95062,4
42443,95059,5
42446,95065,5
42448,95071,5
42453,95084,4
42464,95106,5
42467,95137,5
42491,95158,5
42499,95209,5
42519,95256,4
42546,95289,5
42579,95333,5
42592,95368,5
42611,95415,5
42632,95451,4
42650,95486,5
42670,95500,5
42676,95534,5
42685,95546,5
42681,95547,4
42687,95559,5
42694,95562,5
42700,95566,6
42704,95577,4
42699,95575,4
42705,95588,5
42723,95626,5
42731,95633,5
42733,95642,4
42730,95627,5
42727,95621,5
42722,95611,5
42712,95599,5
42708,95592,4
42704,95585,5
42691,95565,5
42705,95552,5
42694,95544,5
42680,95525,4
42664,95512,5
42664,95495,5
42657,95506,5
42664,95502,5
42664,95517,5
42683,95534,4
42694,95554,5
42708,95575,5
42720,95613,6
42746,95675,3
42776,95738,5
42806,95797,5
42844,95875,5
42881,95959,4
42930,96035,5
42968,96119,5
43011,96213,5
43060,96297,5
43113,96384,4
43152,96461,5
43186,96541,5
43216,96584,5
43203,96635,5
43266,96689,4
43297,96728,5
43307,96759,5
43275,96781,5
43332,96804,5
43330,96809,4
43330,96814,6
43297,96798,4
43318,96771,5
43303,96727,5
43273,96673,4
43273,96599,5
43195,96515,5
43159,96435,5
43122,96370,4
43147,96317,5
43069,96280,5
43057,96261,5
43055,96252,5
43106,96273,4
43069,96290,5
43081,96313,5
43101,96340,5
43125,96375,5
43123,96397,4
43139,96431,5
43150,96467,5
43171,96479,5
43175,96505,5
43179,96502,4
43159,96479,5
43140,96355,6
43058,96243,4
42978,96085,5
42924,95981,4
42882,95838,5
42848,95832,5
42834,95808,5
42811,95786,5
42812,95762,4
42802,95749,5
42792,95739,5
42790,95737,5
42782,95794,4
42801,95755,5
42799,95769,5
42816,95779,5
42819,95853,5
42826,95812,4
42839,95822,5
42842,95852,5
42853,95891,5
42861,95866,5
42868,95886,4
42873,95891,5
42867,95904,5
42866,95893,6
42861,95881,4
42860,95879,4
42843,95861,5
42846,95862,5
42852,95854,5
42852,95872,4
42848,95865,5
42842,95838,5
42829,95802,5
42801,95762,5
42782,95730,4
42757,95683,5
42741,95627,5
42700,95585,5
42677,95523,5
42648,95463,4
42609,95383,5
42571,95297,5
42512,95181,5
42463,95091,5
42408,94988,5
42372,94919,4
42342,94860,5
42321,94819,5
42310,94800,5
42294,94804,4
42294,94793,5
42312,94805,5
42319,94824,5
42327,94849,4
42331,94877,5
42356,94898,5
42362,94916,5
42379,94955,5
42391,94998,4
42414,95017,5
42420,95050,5
42438,95084,5
42457,95103,5
42465,95140,4
42472,95165,5
42482,95186,5
42499,95196,5
42506,95209,5
42510,95218,4
42513,95221,6
42514,95222,4
42508,95217,5
42513,95214,5
42508,95211,4
42498,95195,5
42489,95176,5
42475,95157,5
42476,95140,4
42455,95112,5
42447,95078,5
42424,95042,5
42417,95006,5
42393,94964,4
42362,94921,5
42339,94868,5
42315,94787,5
42254,94689,5
42195,94575,4
42134,94431,5
42053,94278,5
41976,94127,5
41909,93989,5
41851,93859,4
41810,93765,5
41760,93707,6
41735,93686,4
41745,93674,4
41756,93696,4
41760,93733,5
41788,93795,5
41825,93845,5
41850,93910,4
41872,93971,5
41873,94036,5
41942,94101,5
41968,94165,5
41986,94197,4
41952,94208,5
41977,94165,5
41932,94044,5
41869,93891,5
41751,93808,4
41772,93726,5
41747,93675,5
41734,93649,5
41727,93644,5
41720,93637,4
41731,93644,5
41734,93660,5
41788,93674,5
41742,93695,4
41751,93719,4
41770,93763,5
41858,93807,5
41818,93854,5
41839,93895,4
41871,93949,5
41911,93982,5
41898,94012,5
41913,94037,5
41929,94064,4
41924,94070,5
41930,94091,5
41945,94096,5
41944,94097,5
41941,94060,4
41942,94090,5
41935,94079,5
41933,94078,5
41921,94007,5
41924,94065,5
41921,94070,4
41927,94062,5
41916,94014,5
41898,94008,4
41892,93981,4
41870,93953,5
41855,93945,5
41844,93881,5
41821,93839,4
41794,93808,5
41778,93825,5
41752,93710,5
41735,93662,5
41706,93597,4
41671,93573,5
41640,93472,5
41611,93434,5
41602,93402,5
41588,93378,4
41584,93361,5
41584,93339,5
41576,93339,5
41578,93360,5
41583,93374,4
41591,93393,6
41604,93401,4
41609,93425,5
41619,93448,4
41634,93469,4
41652,93508,5
41657,93540,5
41676,93556,5
41680,93594,4
41702,93629,5
41711,93649,5
41723,93669,5
41741,93694,5
41750,93723,4
41763,93745,5
41765,93753,5
41761,93763,5
41771,93769,5
41769,93758,4
41762,93742,5
41747,93699,5
41712,93622,5
41674,93542,5
41625,93431,4
41572,93325,5
41510,93214,5
41474,93134,5
41438,93057,4
41415,93003,4
41397,92991,5
41396,92991,5
41411,93005,5
41421,93053,4
41450,93098,5
41465,93159,5
41501,93218,5
41522,93257,5
41533,93310,4
41551,93345,5
41587,93383,5
41599,93428,6
41610,93439,4
41611,93438,4
41591,93390,5
41545,93278,5
41486,93158,5
41443,93072,5
41423,93043,4
41414,93031,5
41419,93038,5
41419,93054,5
41439,93058,4
41435,93068,4
41440,93091,5
41449,93104,5
41453,93119,5
41463,93152,4
41481,93181,5
41505,93222,5
41517,93257,5
41527,93295,5
41551,93329,4
41575,93377,5
41599,93417,5
41623,93463,5
41636,93502,5
41654,93533,4
41665,93565,6
41671,93578,4
41685,93588,5
41688,93613,5
41702,93617,6
41694,93630,3
41697,93625,5
41705,93639,5
41705,93669,4
41727,93687,4
41717,93670,5
41709,93648,5
41661,93622,5
41685,93604,4
41680,93596,5
41685,93581,5
41620,93583,5
41670,93566,5
41663,93548,4
41650,93527,5
41629,93488,5
41626,93455,5
41597,93413,5
41583,93387,4
41606,93357,5
41566,93345,6
41558,93317,4
41542,93318,5
41609,93310,4
41563,93318,5
41552,93329,5
41557,93333,5
41591,93346,4
41569,93367,4
41578,93384,5
41589,93402,5
41604,93420,5
41610,93439,4
41624,93476,5
41631,93505,5
41651,93501,5
41658,93555,5
41672,93576,4
41686,93596,5
41696,93577,5
41709,93668,5
41728,93693,5
41737,93722,4
41761,93688,5
41752,93770,5
41760,93772,6
41761,93765,4
41760,93775,4
41762,93755,5
41756,93747,5
41749,93723,5
41726,93754,4
41725,93671,4
41695,93620,5
41675,93567,5
41634,93554,5
41604,93390,4
41545,93289,5
41493,93171,5
41441,93086,5
41398,92966,5
41354,92872,4
41316,92815,5
41296,92768,5
41291,92747,5
41281,92752,5
41292,92788,5
41307,92826,4
41324,92877,5
41358,92936,5
41388,92980,6
41403,93033,3
41432,93079,5
41441,93126,5
41468,93172,5
41489,93205,4
41505,93233,4
41496,93214,5
41474,93135,5
41413,93020,5
41381,92957,4
41363,92923,5
41359,92905,5
41364,92912,5
41353,92927,5
41369,92940,4
41377,92962,5
41388,92969,5
41390,92995,5
41395,93011,5
41416,93041,4
41429,93067,6
41446,93117,4
41465,93157,5
41492,93185,5
41496,93228,4
41510,93262,5
41534,93294,5
41556,93327,5
41549,93342,5
41562,93359,4
41571,93384,5
41578,93395,5
41586,93404,5
41591,93407,4
41593,93409,5
41598,93403,5
41584,93397,5
41581,93387,5
41578,93393,4
41578,93390,5
41588,93384,5
41575,93373,5
41568,93354,5
41552,93318,4
41542,93291,5
41521,93263,6
41508,93239,4
41498,93211,5
41486,93186,4
41479,93157,5
41459,93130,5
41450,93094,5
41430,93058,5
41411,93027,4
41404,92986,5
41387,92960,5
41370,92952,5
41374,92939,4
41360,92925,4
41356,92911,5
41363,92929,5
41353,92921,5
41364,92928,4
41366,92935,5
41367,92954,5
41384,92966,5
41382,92991,5
41401,93003,4
41413,93023,5
41406,93050,5
41433,93061,6
41439,93093,4
41452,93114,4
41444,93136,5
41472,93163,5
41485,93176,5
41495,93194,5
41452,93221,4
41510,93239,5
41524,93246,5
41526,93260,5
41476,93274,4
41535,93292,4
41533,93296,5
41541,93295,5
41539,93298,5
41547,93289,4
41540,93299,5
41533,93279,5
41565,93281,5
41526,93272,5
41528,93275,5
41526,93275,4
41586,93272,5
41521,93266,5
41514,93252,6
41508,93229,3
41533,93201,5
41476,93142,5
41446,93078,5
41405,93013,5
41390,92946,4
41347,92882,5
41320,92835,5
41303,92793,5
41292,92755,5
41298,92783,4
41295,92809,5
41310,92839,5
41348,92857,5
41374,92982,4
41423,93067,5
41462,93167,5
41506,93194,5
41544,93328,5
41581,93399,4
41614,93480,6
41655,93568,4
41683,93608,5
41705,93652,5
41704,93626,4
41673,93596,5
41622,93451,5
41594,93400,5
41588,93385,5
41584,93447,4
41590,93399,5
41603,93422,5
41612,93461,5
41633,93513,5
41638,93514,4
41666,93551,5
41680,93592,5
41707,93643,5
41740,93705,4
41765,93762,4
41801,93839,5
41831,93907,5
41874,93987,5
41898,94046,4
41935,94099,5
41948,94149,6
41980,94184,4
42006,94238,5
42015,94264,4
42035,94302,5
42056,94331,5
42057,94347,5
42079,94370,5
42082,94384,4
42083,94386,5
42085,94388,5
42090,94394,5
42092,94396,5
42096,94417,4
42111,94412,5
42093,94407,5
42090,94397,5
42071,94371,4
42071,94359,4
42074,94353,5
42061,94341,5
42070,94332,5
42050,94320,4
42054,94312,5
42042,94316,5
42044,94304,6
42028,94287,4
42031,94290,4
42033,94279,5
42033,94283,5
42032,94296,5
42042,94296,5
42042,94314,4
42054,94336,5
42060,94349,5
42074,94388,5
42097,94418,5
42122,94468,4
42147,94515,5
42171,94579,5
42196,94629,5
42227,94685,5
42272,94756,4
42284,94805,5
42327,94875,5
42352,94934,5
42384,94986,5
42405,95037,4
42426,95084,5
42457,95122,5
42465,95167,5
42488,95192,4
42491,95201,5
42488,95186,5
42487,95187,5
42478,95152,5
42448,95096,4
42429,95034,5
42390,94973,5
42356,94916,5
42334,94858,5
42315,94815,4
42301,94796,5
42294,94797,5
42290,94801,5
42309,94821,5
42317,94848,4
42344,94901,5
42371,94957,5
42390,95012,5
42426,95074,4
42449,95124,6
42478,95179,4
42484,95219,5
42528,95271,5
42552,95309,4
42550,95316,5
42500,95296,5
42506,95202,5
42441,95081,5
42404,94995,4
42333,94957,5
42374,94944,5
42379,94949,5
42378,94952,5
42382,94969,4
42388,94979,5
42401,94987,5
42410,95006,5
42465,95034,5
42430,95055,4
42452,95101,5
42471,95153,6
42553,95197,4
42527,95241,4
42544,95293,4
42574,95352,6
42627,95409,4
42632,95464,5
42653,95505,4
42666,95531,5
42691,95560,5
42702,95593,5
42708,95626,5
42727,95630,4
42742,95623,5
42742,95673,5
42753,95674,5
42759,95692,5
42774,95673,4
42794,95760,5
42796,95766,5
42795,95760,5
42789,95718,5
42785,95744,4
42770,95739,5
42779,95730,5
42763,95751,5
42768,95709,4
42766,95699,4
42763,95682,5
42746,95737,5
42736,95657,5
42731,95629,4
42713,95625,5
42721,95670,5
42723,95635,5
42729,95636,5
42742,95656,4
42757,95708,5
42778,95720,5
42789,95756,5
42817,95815,5
42849,95887,4
42884,95960,5
42935,96055,5
42977,96129,5
43022,96230,5
43063,96313,5
43112,96416,4
43157,96495,5
43201,96578,5
43245,96654,6
43270,96729,3
43315,96786,5
43342,96845,5
43364,96877,5
43373,96912,4
43395,96936,5
43400,96945,5
43390,96913,5
43380,96889,5
43354,96839,4
43333,96794,5
43307,96735,5
43278,96675,5
43254,96632,5
43232,96587,4
43218,96575,5
43216,96569,5
43212,96573,5
43227,96595,5
43238,96617,4
43256,96654,6
43275,96704,4
43298,96749,5
43315,96803,5
43358,96867,6
43395,96954,3
43437,97033,5
43479,97091,5
43497,97137,4
43497,97105,4
43456,97020,8
43415,96941,2
43405,96909,5
43375,96878,4
43363,96846,5
43357,96853,5
43362,96857,5
43371,96853,5
43363,96861,4
43366,96866,5
43374,96892,5
43383,96891,5
43398,96925,5
43407,96949,4
43420,96964,5
43431,96996,6
43442,97029,4
43468,97053,5
43483,97080,4
43491,97106,5
43500,97144,5
43510,97149,5
43522,97176,4
43535,97188,4
43541,97203,5
43548,97202,5
43549,97206,5
43545,97204,4
43546,97215,5
43543,97206,5
43547,97227,5
43567,97254,5
43564,97261,4
43572,97258,5
43560,97241,5
43549,97230,5
43552,97224,5
43539,97202,4
43525,97191,5
43523,97167,5
43511,97159,6
43479,97127,4
43490,97091,4
43465,97052,5
43450,97018,5
43365,96972,5
43385,96902,4
43366,96844,4
43339,96807,5
43266,96764,5
43307,96733,5
43287,96728,4
43285,96702,5
43288,96697,5
43273,96690,5
43267,96685,5
43275,96679,4
43327,96690,5
43277,96684,5
43272,96687,5
43282,96693,5
43348,96711,5
43285,96718,4
43288,96726,5
43293,96738,5
43327,96737,6
43298,96741,3
43298,96734,5
43296,96739,5
43300,96717,5
43286,96711,5
43270,96683,4
43250,96627,5
43222,96519,5
43156,96453,5
43108,96338,4
43048,96235,5
42990,96054,5
42920,95999,5
42875,95897,5
42837,95817,5
42795,95742,4
42786,95750,5
42780,95740,5
42779,95746,5
42788,95788,4
42788,95776,6
42799,95801,4
42816,95820,5
42827,95905,5
42835,95869,4
42857,95898,5
42867,95908,5
42848,95939,5
42812,95776,5
42743,95627,4
42657,95503,5
42618,95418,5
42574,95307,5
42528,95255,4
42518,95224,4
42502,95192,5
42489,95162,5
42473,95153,5
42478,95148,4
42477,95151,5
42481,95158,5
42482,95168,5
42491,95191,5
42499,95204,4
42511,95227,5
42526,95257,6
42532,95270,4
42551,95292,5
42555,95320,4
42563,95340,5
42574,95349,5
42581,95359,5
42590,95364,5
42590,95380,4
42592,95384,5
42596,95375,5
42588,95377,5
42588,95366,4
42588,95364,4
42593,95371,5
42598,95389,5
42598,95396,5
42588,95373,4
42578,95353,5
42570,95337,5
42571,95328,5
42559,95307,5
42540,95282,4
42532,95261,5
42522,95236,5
42503,95213,6
42486,95168,4
42471,95125,4
42438,95075,5
42405,95005,5
42374,94942,5
42339,94876,5
42316,94828,4
42295,94774,5
42266,94745,5
42263,94730,5
42257,94708,5
42246,94710,4
42248,94698,5
42258,94717,5
42247,94728,5
42259,94737,4
42269,94743,4
42276,94765,5
42280,94778,5
42296,94806,5
42306,94827,5
42324,94852,4
42338,94881,5
42344,94911,5
42358,94933,6
42364,94951,3
42374,94972,5
42382,94988,5
42391,95010,5
42399,95026,5
42406,95021,4
42409,95028,5
42406,95031,5
42398,95019,5
42397,95013,5
42396,94996,4
42384,94978,5
42379,94970,5
42366,94938,5
42339,94889,4
42309,94827,4
42269,94725,5
42206,94588,5
42126,94430,5
42033,94235,4
41913,94044,6
41847,93873,4
41768,93713,5
41707,93586,5
41619,93518,4
41647,93496,5
41644,93483,5
41654,93522,5
41621,93571,5
41713,93631,4
41745,93711,5
41778,93786,5
41830,93880,5
41852,93954,5
41898,94025,4
41936,94112,5
42019,94181,5
41997,94230,5
42006,94228,5
41974,94145,4
41969,94011,5
41846,93890,5
41813,93802,5
41778,93738,4
41782,93704,5
41746,93690,6
41744,93695,4
41743,93695,5
41740,93699,4
41748,93707,5
41756,93718,5
41759,93733,5
41765,93722,5
41776,93781,4
41798,93807,5
41816,93847,5
41826,93820,5
41838,93906,5
41847,93940,4
41857,93950,5
41870,93925,5
41881,93977,5
41882,93980,5
41883,93994,5
41886,94019,4
41877,93991,5
41884,93995,5
41881,94002,4
41873,94048,4
41874,93980,5
41874,93969,6
41870,93974,4
41864,94021,4
41880,93963,5
41872,93956,5
41858,93946,5
41857,93951,5
41848,93913,4
41840,93896,5
41833,93879,5
41832,93877,5
41815,93848,5
41807,93845,4
41805,93830,5
41800,93813,5
41779,93776,5
41776,93760,5
41766,93717,4
41748,93699,5
41734,93667,5
41724,93655,5
41714,93625,5
41702,93607,4
41693,93594,5
41678,93575,5
41677,93569,5
41680,93561,4
41687,93585,5
41690,93594,5
41684,93603,5
41697,93613,5
41710,93632,4
41717,93649,5
41730,93687,5
41746,93708,5
41761,93737,5
41768,93760,4
41776,93788,5
41784,93795,5
41800,93827,5
41807,93843,5
41819,93855,4
41829,93877,5
41828,93891,5
41841,93894,5
41843,93912,5
41839,93918,5
41844,93915,4
41840,93906,5
41842,93905,5
41831,93901,4
41838,93896,5
41831,93887,5
41818,93873,5
41824,93853,5
41802,93844,4
41798,93806,5
41781,93771,5
41754,93713,5
41718,93637,5
41681,93532,4
41618,93414,5
41560,93296,5
41500,93193,5
41450,93080,5
41411,93006,4
41392,92951,5
41365,92912,5
41369,92922,5
41369,92935,5
41384,92963,4
41403,93008,6
41421,93063,4
41461,93124,5
41481,93184,4
41512,93241,5
41528,93290,5
41551,93327,5
41568,93364,5
41594,93406,4
41604,93427,5
41613,93445,5
41590,93391,5
41534,93263,5
41468,93119,4
41422,93039,5
41403,92988,5
41387,92959,5
41394,92966,5
41390,92974,4
41391,92982,5
41371,92993,5
41403,93010,5
41414,93029,4
41419,93053,4
41377,93073,5
41442,93100,5
41461,93139,5
41482,93180,4
41444,93211,4
41507,93255,5
41526,93292,5
41542,93323,5
41574,93354,4
41573,93367,5
41581,93384,5
41593,93401,5
41640,93402,5
41596,93415,4
41599,93422,5
41591,93405,5
41647,93417,5
41588,93407,5
41596,93406,5
41585,93407,4
41617,93401,5
41600,93407,5
41585,93399,6
41578,93375,3
41570,93356,5
41556,93330,5
41548,93309,5
41539,93273,4
41524,93218,4
41516,93240,5
41506,93224,5
41494,93180,5
41477,93089,4
41460,93120,5
41435,93078,5
41431,93054,5
41426,93005,5
41404,93018,4
41402,92997,5
41401,92992,5
41397,93023,5
41388,92987,5
41399,92991,4
41394,92990,6
41400,93070,4
41402,93024,5
41418,93045,5
41426,93061,6
41440,93133,3
41456,93122,5
41466,93148,5
41479,93164,5
41496,93213,4
41505,93229,5
41518,93256,5
41525,93282,5
41544,93305,4
41554,93319,5
41549,93337,5
41565,93343,5
41575,93358,5
41579,93374,4
41574,93362,5
41581,93368,5
41579,93360,5
41562,93353,5
41563,93347,4
41556,93330,5
41546,93316,6
41540,93299,4
41535,93274,5
41526,93253,4
41507,93233,5
41502,93193,5
41482,93162,5
41452,93112,5
41428,93049,4
41392,92958,5
41354,92872,5
41299,92779,5
41272,92712,4
41226,92626,4
41200,92558,5
41177,92521,5
41158,92488,5
41143,92465,4
41148,92479,5
41152,92493,5
41171,92524,5
41183,92564,5
41197,92610,4
41224,92644,6
41247,92685,4
41258,92716,6
41275,92743,4
41279,92759,4
41281,92776,5
41282,92777,5
41294,92768,5
41282,92735,5
41231,92628,4
41179,92491,5
41119,92420,5
41101,92370,5
41085,92364,4
41090,92359,4
41093,92382,5
41104,92413,5
41121,92439,5
41121,92463,4
41152,92500,5
41169,92535,5
41190,92578,5
41214,92627,5
41247,92692,5
41285,92774,4
41316,92857,5
41352,92931,5
41391,93005,6
41422,93065,3
41457,93135,5
41488,93191,5
41511,93250,5
41531,93298,5
41555,93337,4
41573,93382,5
41600,93407,5
41605,93435,5
41616,93452,5
41625,93478,4
41639,93510,5
41645,93536,5
41663,93567,5
41676,93578,4
41672,93584,5
41670,93571,5
41671,93552,5
41635,93542,5
41660,93540,4
41660,93537,6
41657,93532,4
41601,93535,5
41654,93518,5
41652,93515,4
41645,93500,5
41585,93510,5
41647,93494,5
41644,93498,5
41638,93501,4
41668,93519,5
41658,93528,5
41659,93540,5
41667,93567,5
41734,93595,4
41703,93647,5
41731,93695,5
41761,93742,5
41837,93803,4
41817,93881,5
41854,93953,5
41885,94024,5
41945,94075,5
41948,94136,4
41982,94208,5
42012,94267,6
42056,94314,4
42071,94389,5
42101,94438,4
42125,94495,5
42146,94493,5
42177,94568,5
42189,94614,5
42206,94631,4
42219,94608,5
42228,94676,5
42230,94678,5
42230,94676,5
42223,94637,4
42213,94638,5
42199,94614,5
42182,94573,5
42146,94545,4
42130,94451,4
42097,94388,5
42060,94340,5
42036,94366,5
42031,94277,4
42035,94270,5
42029,94290,5
42043,94344,6
42053,94340,4
42073,94380,4
42103,94432,5
42127,94514,5
42158,94536,5
42184,94592,5
42208,94627,4
42219,94676,5
42250,94717,5
42267,94750,5
42274,94766,5
42267,94759,4
42236,94686,5
42182,94559,5
42137,94465,5
42108,94422,4
42095,94405,4
42093,94406,5
42095,94421,5
42105,94425,5
42114,94450,5
42123,94477,4
42145,94500,5
42163,94553,5
42181,94591,5
42218,94635,4
42238,94709,5
42264,94771,5
42305,94832,5
42330,94889,5
42362,94956,4
42403,95020,5
42429,95061,5
42452,95097,5
42477,95137,5
42480,95162,4
42493,95181,5
42499,95205,5
42513,95222,5
42514,95231,5
42518,95234,4
42521,95256,5
42534,95268,5
42544,95278,5
42553,95308,4
42552,95312,6
42549,95287,4
42538,95275,5
42541,95262,5
42536,95250,4
42526,95241,5
42515,95228,5
42513,95214,5
42501,95194,5
42493,95180,4
42482,95146,5
42468,95131,5
42452,95110,5
42455,95084,5
42442,95076,4
42441,95073,5
42444,95076,5
42441,95092,5
42455,95125,5
42460,95150,4
42484,95176,5
42516,95234,5
42542,95287,5
42572,95366,4
42615,95445,4
42659,95529,6
42696,95618,4
42752,95712,5
42801,95805,4
42848,95899,5
42884,95974,5
42919,96041,5
42958,96105,5
42984,96160,4
43001,96192,5
43025,96196,5
43022,96217,5
43020,96204,5
43008,96185,4
42995,96156,5
42972,96115,5
42954,96084,5
42946,96055,5
42899,96020,4
42919,96016,5
42917,96005,5
42920,96003,5
42867,96015,4
42923,96040,4
42939,96054,5
42954,96103,5
42905,96120,5
42982,96144,4
42995,96183,5
43029,96242,5
43064,96293,5
43072,96341,5
43088,96357,4
43073,96326,5
43091,96251,5
43017,96199,5
43000,96192,5
43000,96186,4
43068,96207,5
43024,96239,5
43053,96295,5
43075,96347,5
43130,96398,4
43129,96466,5
43167,96522,5
43198,96605,5
43244,96668,5
43284,96766,4
43331,96856,5
43385,96974,5
43434,97020,5
43474,97149,4
43516,97211,5
43546,97271,5
43575,97260,5
43587,97364,5
43616,97408,4
43637,97476,5
43671,97504,5
43698,97588,5
43717,97637,5
43734,97667,5
43746,97726,4
43771,97748,5
43808,97827,5
43858,97906,5
43880,98044,4
43907,98028,5
43935,98062,5
43945,98101,5
43967,98207,5
43996,98229,5
44015,98298,4
44063,98373,5
44089,98450,5
44104,98463,4
44103,98445,4
44093,98431,5
44094,98418,5
44081,98436,5
44077,98430,4
44083,98438,5
44082,98453,5
44106,98500,5
44127,98569,5
44161,98623,4
44191,98675,5
44208,98731,5
44245,98823,5
44315,98989,5
44397,99151,4
44461,99263,5
44507,99362,5
44554,99431,5
44574,99492,5
44607,99542,4
44643,99648,6
44679,99696,3
44683,99685,5
44665,99639,4
44628,99572,4
44605,99512,5
44559,99450,5
44542,99419,5
44515,99356,4
44483,99313,5
44468,99270,5
44450,99257,5
44455,99250,5
44448,99240,4
44450,99242,5
44453,99252,5
44460,99291,5
44473,99302,5
44492,99341,4
44516,99392,5
44533,99414,5
44539,99422,6
44521,99394,4
44482,99303,4
44410,99135,5
44344,99001,5
44287,98899,5
44235,98789,4
44198,98721,4
44162,98675,5
44159,98640,5
44134,98602,5
44116,98573,4
44106,98528,5
44080,98487,5
44081,98480,5
44086,98507,5
44086,98521,4
44102,98545,5
44103,98542,5
44098,98547,5
44108,98544,5
44110,98559,5
44127,98592,4
44126,98599,5
44137,98600,5
44133,98599,6
44118,98587,3
44118,98589,5
44120,98583,5
44107,98579,5
44112,98564,5
44105,98549,4
44097,98555,5
44102,98559,5
44111,98563,5
44089,98517,4
44067,98492,5
44065,98457,5
44039,98423,5
44030,98413,5
44025,98378,4
44009,98354,5
43953,98314,5
43950,98240,5
43914,98153,5
43873,98066,4
43766,97964,6
43778,97876,4
43725,97769,5
43668,97672,5
43564,97584,6
43579,97508,3
43542,97429,5
43517,97378,5
43511,97346,5
43491,97326,4
43484,97292,5
43465,97296,5
43518,97286,5
43462,97286,4
43468,97296,4
43472,97286,5
43531,97294,5
43464,97291,5
43465,97276,4
43442,97256,5
43450,97200,5
43392,97130,5
43349,97048,5
43308,96964,4
43286,96896,5
43240,96835,6
43227,96804,4
43213,96787,5
43210,96739,4
43214,96789,5
43223,96809,5
43230,96847,5
43248,96831,5
43264,96897,4
43265,96922,5
43288,96945,5
43304,96966,5
43315,97010,4
43322,97030,4
43312,96988,5
43269,96912,5
43196,96741,5
43156,96663,4
43127,96628,5
43118,96666,5
43118,96637,5
43130,96669,5
43151,96715,4
43169,96791,5
43163,96736,5
43159,96756,6
43177,96825,4
43222,96935,4
43259,97020,5
43297,97104,5
43323,97172,5
43343,97215,5
43350,97238,4
43357,97256,5
43359,97283,5
43381,97341,5
43402,97405,5
43424,97471,4
43447,97525,5
43463,97554,5
43478,97584,5
43492,97606,4
43504,97661,5
43531,97701,5
43549,97761,5
43586,97842,5
43628,97946,5
43658,98001,4
43682,98060,5
43688,98070,5
43696,98098,6
43729,98165,3
43731,98217,5
43725,98209,5
43696,98165,5
43666,98134,5
43670,98141,4
43656,98140,5
43654,98130,5
43638,98116,5
43629,98116,8
43613,98067,1
43581,98043,5
43569,97992,5
43505,97873,5
43458,97815,4
43440,97772,4
43434,97771,5
43439,97791,5
43460,97826,5
43476,97846,4
43453,97805,6
43417,97694,4
43321,97455,5
43152,97052,5
42909,96543,4
42636,95927,5
42296,95193,5
41927,94415,5
41600,93675,5
41208,92831,4
40755,91877,5
40326,90953,5
39897,90001,5
39433,88960,5
38980,87957,4
38572,87041,5
38213,86253,5
37899,85582,5
37607,84931,4
37324,84300,4
37064,83745,5
36831,83223,5
36615,82727,5
36388,82205,4
36175,81721,5
35985,81922,6
35830,81513,4
35656,81094,5
35532,80808,4
35438,80585,5
35319,80290,5
35196,79943,5
35043,79585,5
34899,79264,4
34784,79019,5
34675,78789,5
34597,78581,5
34499,78390,5
34433,78232,4
34402,78144,5
34371,78056,5
34300,77969,5
34306,77926,5
34281,77864,4
34255,77794,5
34184,77701,5
34192,77653,5
34174,77634,4
34170,77598,5
34110,77545,5
34125,77493,6
34094,77446,4
34076,77400,4
34084,77375,5
34065,77358,5
34062,77347,5
34054,77327,5
34066,77279,4
34004,77196,5
33962,77128,5
33936,77080,5
33977,77084,5
33951,77138,4
33978,77173,5
33986,77192,5
33998,77186,5
33981,77205,5
34004,77220,4
33995,77211,5
33985,77189,5
33993,77221,5
34003,77239,5
33991,77224,4
33967,77138,5
33940,77086,5
33903,77008,5
33880,76969,4
33881,76934,4
33881,76996,5
33912,77056,5
33947,77136,5
34002,77235,4
34028,77326,5
34045,77390,5
34070,77414,5
34062,77433,5
34052,77398,4
34042,77362,5
34024,77309,5
34004,77329,5
33992,77264,5
33994,77272,4
34013,77299,5
33989,77269,5
33968,77170,5
33919,77070,4
33862,76933,6
33808,76837,3
33771,76770,5
33758,76747,5
33666,76558,4
33609,76411,5
33552,76256,5
33480,76088,5
33416,75937,5
33353,75836,4
33304,75724,5
33250,75592,5
33185,75461,5
33136,75337,5
33095,75255,4
33044,75148,5
33002,75024,5
32952,74915,5
32921,74805,5
32837,74618,4
32738,74370,5
32631,74179,5
32572,74018,5
32512,73883,4
32468,73737,4
32395,73580,6
32329,73394,4
32258,73198,5
32177,72988,4
32088,72793,5
32039,72660,5
31973,72511,5
31910,72348,5
31842,72139,4
31778,72029,5
31744,71912,5
31695,71797,5
31655,71679,5
31624,71595,4
31607,71513,5
31554,71409,5
31538,71369,5
31514,71297,5
31449,71155,4
31410,71036,5
31363,70972,5
31349,70924,5
31336,70876,4
31289,70782,4
31263,70700,5
31221,70611,5
31207,70579,5
31184,70502,4
31121,70365,5
31081,70283,5
31061,70196,5
31011,70065,5
30950,69948,4
30890,69785,5
30809,69589,5
30752,69409,5
30688,69272,5
30632,69121,4
30538,68927,5
30475,68761,5
30412,68572,5
30344,68445,5
30279,68305,4
30235,68181,5
30187,68066,5
30142,67971,5
30113,67872,5
30044,67731,4
30023,67635,5
29956,67503,5
29888,67323,5
29797,67137,4
29743,66980,5
29677,66834,5
29607,66719,5
29567,66581,5
29495,66427,4
29435,66287,5
29381,66154,5
29307,65972,5
29256,65830,5
29188,65697,4
29135,65532,5
29076,66066,5
28982,65872,5
28837,65622,5
28766,65407,4
28682,65235,5
28627,65080,5
28546,64936,5
28538,64830,5
28489,64735,5
28464,64685,4
28440,64603,5
28404,64529,5
28383,64470,4
28350,64372,4
28332,64291,5
28288,64229,5
28253,64149,5
28219,64086,4
28223,64043,5
28171,63999,5
28165,63946,5
28135,63859,5
28120,63796,4
28091,63756,5
28069,63689,5
28046,63629,5
28031,63575,5
27999,63511,4
27986,63453,5
27946,63382,6
27920,63291,4
27908,63266,5
27890,63207,4
27866,63164,5
27851,63101,5
27852,63112,5
27839,63098,4
27827,63054,4
27806,63000,5
27783,62954,5
27759,62903,5
27753,62865,4
27738,62865,5
27740,62836,5
27737,62836,5
27745,62850,5
27753,62888,4
27749,62887,5
27760,62886,5
27761,62890,5
27767,62928,5
27769,62913,4
27776,62913,5
27779,62917,5
27777,62928,6
27777,62921,4
27781,62914,4
27773,62917,5
27782,62906,5
27780,62917,5
27788,62932,5
27794,62962,4
27803,62982,5
27807,63010,5
27821,63015,5
27817,63002,4
27811,63007,5
27809,63013,5
27814,63014,5
27824,63037,5
27833,63056,4
27848,63098,5
27852,63127,5
27867,63133,5
27879,63156,5
27877,63188,5
27885,63213,4
27893,63211,5
27900,63225,5
27901,63241,6
27904,63241,3
27900,63239,5
27903,63231,5
27898,63229,5
27906,63229,5
27905,63227,4
27902,63224,5
27896,63197,5
27889,63196,5
27887,63190,4
27884,63181,4
27884,63186,5
27882,63185,5
27884,63186,5
27883,63180,4
27893,63174,5
27892,63186,5
27888,63194,5
27889,63197,5
27889,63189,4
27891,63170,6
27877,63166,4
27877,63120,5
27854,63063,5
27829,63013,6
27820,62952,3
27791,62885,5
27779,62837,5
27752,62774,5
27744,62727,4
27723,62675,5
27706,62626,5
27694,62584,5
27683,62566,5
27681,62539,4
27667,62491,5
27642,62421,5
27625,62359,5
27613,62293,4
27586,62235,5
27563,62161,5
27543,62082,5
27516,62011,5
27511,61982,4
27520,61978,5
27526,61995,6
27535,62013,4
27549,62011,5
27550,62046,4
27578,62087,5
27597,62140,5
27619,62168,5
27625,62160,5
27622,62149,4
27617,62126,5
27604,62077,5
27605,62056,5
27599,62037,5
27608,62039,4
27596,62027,5
27598,62007,5
27599,61985,5
27601,61999,4
27589,62005,4
27601,61989,5
27575,61922,5
27546,61827,5
27483,61722,4
27476,61651,5
27445,61570,5
27428,61528,6
27387,61428,4
27357,61341,4
27321,61277,5
27309,61217,5
27317,61188,5
27292,61165,5
27287,61133,4
27268,61069,5
27269,61016,5
27209,60910,5
27172,60805,5
27144,60743,4
27131,60711,5
27089,60606,5
27053,60484,5
27007,60376,5
26962,60267,4
26923,60180,5
26908,60118,5
26845,59938,5
26760,59700,5
26692,59539,4
26650,59418,5
26618,59366,5
26593,59263,6
26533,59137,3
26497,59057,5
26465,58987,5
26441,58911,5
26424,58871,5
26366,58693,4
26289,58470,5
26197,58280,5
26146,58120,5
26098,57998,5
26060,57924,4
26032,57877,5
25996,57734,5
25929,57556,5
25868,57402,5
25824,57310,4
25795,57217,5
25770,57144,5
25750,57055,5
25707,56921,4
25673,56810,5
25638,56712,4
25617,56664,5
25608,56610,5
25588,56550,4
25552,56486,5
25535,56429,5
25509,56360,5
25495,56300,5
25466,56234,8
25433,56129,5
25375,55993,7
25302,55846,8
25276,55761,5
25269,55736,7
25264,55745,8
25222,55641,9
25222,55641,5
25233,55583,8
25236,55628,7
25234,55634,5
25277,55648,8
25253,55680,12
25253,55680,8
25281,55751,7
25306,55843,5
25340,55900,8
25541,56432,7
25541,56432,5
25619,56540,8
25640,56669,7
25664,56805,5
25736,56941,8
25780,57092,7
25847,57269,5
26240,58281,10
26240,58281,9
26303,58431,8
26377,58597,7
26627,59244,9
26627,59244,10
26662,59350,5
26697,59431,5
26724,59502,10
26757,59623,5
26816,59758,5
26874,59881,10
26899,59954,5
26917,59992,7
26932,60022,8
26942,60040,5
26966,60129,7
27014,60241,8
27079,60370,5
27115,60518,7
27233,60808,8
27233,60808,5
27248,60827,7
26240,58281,8
27279,60932,9
27244,60873,8
27244,60873,5
27284,60926,7
27256,60974,8
27294,61005,5
27338,61084,7
27385,61188,8
27404,61277,5
27547,61552,7
27547,61552,8
27548,61580,5
27556,61598,7
27575,61585,8
27551,61570,5
27532,61589,7
27651,61844,8
27651,61844,5
27681,61866,7
27686,61909,8
27693,61944,7
27699,61983,5
27691,62018,8
27736,62064,7
27826,62286,10
27847,62332,5
27860,62355,7
27864,62381,8
27874,62350,5
27863,62356,7
27860,62313,8
27861,62294,5
27833,62288,7
27854,62367,8
27854,62367,7
27863,62343,7
27862,62380,8
27868,62405,7
27866,62435,5
27828,62296,8
27828,62296,7
27787,62271,5
27815,62281,8
27823,62272,7
27825,62262,7
27792,62219,10
27792,62219,5
27801,62245,5
27806,62236,10
27811,62268,5
27821,62296,5
27830,62277,10
27801,62223,2
27774,62186,1
27759,62141,5
27748,62120,5
27757,62122,5
27748,62099,5
27742,62066,4
27730,62027,5
27714,61983,5
27702,61940,5
27690,61909,5
27666,61860,4
27657,61833,5
27641,61770,5
27618,61730,5
27607,61692,5
27597,61679,4
27592,61666,5
27585,61645,5
27575,61619,5
27566,61610,5
27565,61613,4
27568,61610,5
27571,61614,5
27570,61619,5
27579,61634,4
27591,61667,4
27605,61714,5
27628,61755,5
27643,61820,5
27658,61854,4
27668,61868,6
27663,61889,4
27677,61891,5
27681,61904,5
27699,61932,6
27703,61965,3
27716,61996,5
27733,62023,5
27738,62050,5
27755,62079,4
27752,62098,5
27768,62121,5
27776,62139,5
27778,62158,5
27778,62176,4
27804,62212,5
27807,62249,5
27818,62296,5
27849,62344,5
27865,62405,4
27886,62458,5
27908,62504,5
27922,62550,5
27946,62580,4
27936,62579,5
27935,62560,6
27937,62551,4
27925,62551,5
27927,62559,4
27934,62559,7
27933,62566,3
27943,62582,5
27938,62602,5
27946,62617,4
27948,62645,5
27967,62651,5
27967,62674,5
27973,62667,5
27975,62654,4
27969,62651,5
27963,62651,5
27960,62644,5
27974,62648,5
27962,62654,4
27984,62677,5
27987,62691,5
27993,62691,5
27976,62700,4
27994,62689,5
27998,62691,5
27997,62701,6
28002,62723,4
28007,62728,4
28015,62748,5
28024,62774,5
28042,62804,5
28038,62843,5
28052,62871,4
28079,62907,5
28110,62956,5
28110,63000,5
28126,63046,5
28143,63098,4
28169,63141,5
28176,63202,5
28202,63243,5
28213,63286,5
28232,63336,4
28257,63399,5
28280,63473,5
28304,63537,5
28318,63574,5
28337,63634,4
28363,63680,5
28372,63729,5
28388,63773,6
28413,63845,4
28431,63916,4
28466,63993,5
28488,64041,5
28518,64120,5
28532,64192,4
28560,64259,5
28588,64338,5
28617,64405,5
28637,64501,5
28677,64596,4
28708,64703,5
28754,64783,5
28782,64892,5
28826,64980,5
28867,65096,4
28900,65162,5
28921,65221,5
28937,65259,5
28953,65306,5
28963,65319,5
28967,65349,4
28973,65352,5
28973,65362,5
28972,65378,6
28974,65374,3
28971,65398,5
28983,65416,5
28992,65426,5
28996,65444,4
29000,65466,5
29008,65478,5
29017,65499,5
29017,65511,5
29021,65533,4
29034,65562,5
29032,65582,5
29051,65621,5
29065,65651,5
29070,65677,4
29083,65706,5
29090,65720,5
29093,65730,5
29097,65719,5
29091,65718,4
29078,65693,6
29070,65686,4
29073,65669,5
29064,65655,4
29071,65654,5
29063,65648,5
29066,65626,5
29050,65575,5
29022,65506,4
29000,65447,5
28994,65428,5
28998,65402,5
28981,65370,5
28968,65348,4
28962,65330,5
28956,65320,5
28948,65309,5
28950,65313,5
28954,65308,4
28953,65298,5
28951,65316,5
28961,65336,5
28963,65344,5
28981,65357,4
28981,65369,5
28982,65378,6
28992,65391,4
28991,65400,4
28997,65422,4
29013,65443,5
29023,65459,5
29025,65486,5
29039,65522,4
29050,65556,5
29073,65592,5
29097,65644,5
29111,65692,5
29127,65758,4
29159,65825,5
29184,65881,5
29192,65939,5
29215,65988,5
29235,66041,4
29268,66112,5
29297,66190,5
29323,66252,5
29344,66314,5
29364,66378,4
29392,66444,5
29421,66535,5
29445,66584,6
29470,66653,3
29490,66722,4
29517,66778,5
29546,66832,5
29561,66894,5
29579,66934,4
29589,66977,5
29623,67029,5
29628,67078,5
29658,67134,5
29679,67199,4
29700,67259,5
29716,67319,5
29758,67398,5
29783,67452,5
29798,67513,4
29810,67565,5
29849,67614,5
29869,67658,5
29876,67697,5
29882,67710,5
29898,67734,4
29901,67760,5
29908,67749,5
29917,67759,5
29905,67755,4
29902,67748,5
29911,67750,5
29917,67748,5
29902,67748,4
29906,67762,5
29904,67751,5
29904,67743,5
29895,67737,5
29896,67740,4
29892,67742,5
29895,67745,5
29901,67752,5
29889,67746,5
29885,67711,4
29857,67633,5
29837,67584,5
29823,67543,5
29813,67525,5
29789,67472,4
29781,67463,6
29777,67433,4
29765,67396,5
29759,67369,5
29740,67356,5
29734,67345,4
29730,67323,5
29729,67324,5
29723,67302,4
29725,67297,4
29723,67288,5
29723,67315,5
29724,67302,5
29723,67314,4
29731,67322,5
29727,67359,5
29748,67359,5
29742,67376,5
29767,67406,4
29773,67435,5
29780,67454,5
29788,67486,5
29800,67518,5
29818,67562,4
29838,67606,5
29865,67661,6
29878,67720,4
29900,67767,5
29920,67804,4
29943,67864,5
29957,67921,5
29991,67986,5
30015,68031,4
30025,68077,4
30045,68119,5
30061,68168,5
30076,68209,5
30097,68263,4
30124,68316,5
30141,68348,5
30159,68422,7
30190,68472,3
30195,68521,4
30226,68582,5
30251,68655,5
30277,68717,5
30311,68785,5
30333,68870,4
30379,68937,5
30399,69008,5
30420,69082,5
30453,69130,5
30475,69192,4
30496,69246,5
30508,69280,5
30527,69320,5
30536,69362,5
30545,69386,4
30557,69397,5
30554,69404,5
30561,69410,5
30557,69420,4
30561,69424,5
30559,69414,5
30544,69409,5
30555,69393,5
30543,69375,4
30533,69359,5
30527,69351,5
30513,69339,5
30511,69317,5
30505,69315,5
30500,69281,4
30491,69271,5
30484,69253,5
30484,69243,5
30467,69207,4
30443,69132,5
30409,69039,5
30365,68936,5
30321,68844,5
30295,68769,4
30259,68680,5
30216,68572,5
30179,68470,5
30135,68359,4
30108,68278,4
30070,68184,5
30026,68092,5
29998,68016,5
29966,67930,4
29944,67868,5
29920,67784,5
29893,67712,5
29856,67633,5
29826,67556,4
29797,67468,6
29767,67387,4
29742,67311,5
29708,67246,5
29690,67173,4
29655,67109,10
29634,67061,5
29622,67005,5
29586,66970,5
29566,66881,10
29566,66881,5
29565,66876,5
29564,66871,10
29554,66877,5
29564,66878,5
29586,66921,10
29586,66921,5
29582,66929,5
29609,66944,10
29605,66962,5
29611,66981,7
29577,67004,8
29629,67034,5
29646,67074,7
29710,67253,8
29710,67253,11
29732,67283,8
29823,67540,9
29823,67540,10
29845,67585,5
29869,67653,4
29884,67693,2
29907,67747,3
29926,67815,5
29944,67864,5
29969,67912,6
29982,67960,3
29999,68011,5
30021,68059,5
30054,68114,5
30065,68168,5
30087,68222,4
30107,68281,5
30134,68325,5
30151,68414,5
30187,68458,5
30196,68508,4
30222,68563,5
30236,68615,5
30262,68648,5
30280,68687,5
30299,68740,4
30307,68780,5
30318,68794,5
30313,68773,5
30298,68747,4
30289,68730,6
30298,68739,4
30298,68742,5
30300,68755,5
30306,68768,6
30317,68783,3
30319,68810,5
30338,68833,5
30343,68859,5
30361,68894,4
30365,68935,5
30388,68977,5
30405,69033,5
30421,69067,5
30439,69120,4
30461,69164,5
30481,69225,5
30489,69262,5
30519,69309,5
30529,69347,4
30554,69393,5
30556,69429,5
30574,69470,5
30591,69502,4
30611,69538,4
30625,69574,6
30639,69627,4
30647,69678,5
30672,69727,4
30688,69765,7
30693,69786,3
30715,69813,5
30724,69846,5
30740,69879,4
30740,69902,5
30744,69927,5
30758,69955,5
30777,69979,5
30787,69998,4
30790,70007,5
30800,70016,5
30803,70035,5
30800,70034,5
30808,70055,4
30815,70059,5
30811,70069,5
30817,70089,5
30819,70103,5
30829,70119,4
30840,70127,5
30839,70142,6
30848,70157,4
30861,70180,4
30856,70191,5
30866,70213,5
30879,70234,5
30884,70244,5
30892,70274,4
30904,70282,5
30902,70300,5
30907,70308,5
30913,70314,5
30915,70325,4
30928,70325,5
30922,70325,5
30921,70322,5
30919,70323,5
30915,70318,4
