RED,IR,EKG,TIME
36138,81606,8
36118,81561,5
36069,81423,7
35997,81244,8
35909,81137,5
35917,81134,7
35919,81125,8
35919,81125,9
35935,81138,5
35920,81154,8
35937,81136,7
35952,81179,5
36030,81399,8
36030,81399,7
36024,81432,5
36075,81457,8
36080,81487,7
36083,81498,5
36094,81493,8
36106,81521,7
36106,81521,5
36140,81518,8
36115,81520,7
36142,81538,5
36102,81519,8
36101,81545,7
36123,81557,5
36105,81525,8
36105,81525,7
36106,81527,5
36097,81518,8
36091,81514,7
36099,81505,8
36103,81511,7
36103,81511,5
36107,81531,5
36104,81535,8
36111,81515,7
36117,81575,5
36139,81597,8
36177,81638,7
36176,81700,5
36297,81962,10
36297,81962,5
36140,81518,5
36332,82050,10
36367,82139,5
36379,82160,5
36389,82207,10
36424,82230,5
36440,82277,5
36478,82360,10
36478,82377,5
36479,82365,5
36481,82349,10
36480,82368,5
36482,82363,5
36513,82350,10
36479,82348,5
36448,82347,5
36461,82317,10
36461,82317,5
36444,82297,7
36449,82272,8
36430,82233,5
36410,82200,7
36386,82161,8
36381,82131,5
36386,82129,7
36386,82129,8
36395,82204,5
36406,82215,7
36441,82244,8
36451,82306,5
36469,82353,7
36549,82509,8
36549,82509,5
36555,82556,7
36557,82513,8
36533,82454,9
36338,82034,8
36338,82034,5
36345,82044,7
36362,82054,5
36355,82066,0
36355,82081,4
36366,82088,5
36373,82126,5
36383,82145,5
36401,82188,4
36423,82223,5
36439,82287,6
36460,82332,4
36489,82392,5
36505,82436,4
36532,82476,5
36553,82519,5
36562,82558,5
36580,82580,5
36581,82596,4
36592,82611,5
36594,82611,5
36596,82616,5
36595,82618,5
36597,82611,4
36594,82607,5
36599,82598,5
36589,82609,5
36590,82631,5
36610,82652,4
36616,82652,5
36610,82629,5
36591,82611,5
36593,82602,4
36592,82611,4
36587,82596,5
36591,82601,6
36586,82601,4
36592,82597,4
36580,82593,5
36583,82584,5
36579,82579,5
36577,82563,5
36548,82557,4
36568,82552,5
36566,82563,5
36575,82583,5
36562,82606,5
36601,82639,4
36620,82674,5
36641,82724,5
36661,82787,5
36693,82851,5
36722,82919,4
36761,82993,5
36815,83053,5
36812,83122,5
36844,83175,5
36875,83237,4
36936,83302,5
36928,83359,5
36952,83413,5
36972,83450,4
37010,83494,5
37003,83513,5
37017,83534,5
37014,83547,5
37026,83534,4
37013,83515,5
36984,83483,5
36975,83436,5
36953,83384,5
36926,83345,4
36910,83301,5
36893,83274,5
36882,83224,5
36890,83248,5
36877,83257,4
36893,83274,6
36905,83273,4
36930,83339,5
36936,83398,5
36973,83458,6
37000,83512,3
37016,83549,5
37042,83610,5
37069,83674,4
37096,83741,5
37103,83731,5
37104,83709,5
37070,83638,5
37011,83521,4
36962,83388,5
36932,83349,5
36922,83311,5
36910,83335,5
36902,83307,4
36913,83311,5
36908,83319,5
36915,83334,5
36920,83331,5
36928,83350,4
36939,83372,5
36953,83410,5
36963,83441,5
36988,83490,5
37009,83534,4
37030,83573,6
37046,83631,4
37070,83670,5
37086,83709,4
37105,83753,4
37122,83790,5
37135,83818,5
37149,83841,5
37158,83862,4
37164,83875,5
37175,83899,5
37173,83897,5
37192,83910,5
37191,83932,4
37200,83965,5
37221,83987,5
37207,83967,5
37198,83953,5
37206,83950,4
37190,83927,5
37193,83912,5
37184,83901,5
37177,83896,5
37164,83887,4
37172,83878,5
37159,83867,5
37143,83834,5
37129,83791,5
37113,83757,4
37092,83723,5
37092,83699,5
37080,83709,5
37091,83719,4
37099,83734,5
37105,83760,5
37126,83791,7
37135,83821,3
37154,83865,4
37175,83909,5
37200,83964,5
37234,84038,5
37260,84098,5
37301,84179,4
37340,84252,5
37366,84323,5
37404,84384,5
37425,84444,5
37444,84502,4
37461,84539,5
37484,84573,5
37492,84589,5
37499,84588,5
37496,84584,4
37478,84550,5
37465,84489,5
37445,84436,5
37411,84382,4
37375,84314,4
37355,84263,5
37330,84216,5
37314,84194,5
37306,84183,4
37310,84181,5
37308,84196,5
37327,84208,5
37328,84235,5
37342,84260,4
37369,84316,6
37385,84374,4
37419,84435,5
37434,84476,5
37448,84480,6
37430,84445,3
37382,84305,5
37314,84170,5
37275,84123,5
37256,84079,4
37223,84032,5
37226,83999,5
37213,83985,5
37210,83957,4
37172,83946,4
37192,83925,5
37181,83914,5
37164,83898,5
37146,83881,4
37160,83878,5
37155,83875,5
37155,83879,5
37177,83894,5
37171,83902,4
37171,83901,5
37174,83911,6
37211,83915,4
37179,83913,5
37178,83920,4
37181,83931,5
37218,83914,5
37182,83923,5
37181,83911,5
37165,83901,4
37186,83910,5
37172,83898,5
37162,83892,5
37162,83894,4
37171,83900,4
37166,83878,5
37147,83842,5
37134,83804,5
37118,83760,4
37102,83749,5
37072,83692,5
37059,83635,5
37030,83555,5
37007,83545,4
36988,83490,5
36962,83428,5
36935,83346,6
36889,83284,4
36868,83203,4
36822,83131,5
36792,83091,4
36772,83023,5
36764,83002,5
36748,82976,4
36744,83003,5
36740,82964,5
36741,82965,5
36745,82983,5
36749,83011,4
36748,82994,5
36755,83004,5
36750,83019,5
36760,83040,4
36774,83041,5
36772,83059,5
36774,83073,5
36786,83067,5
36785,83082,5
36797,83075,4
36782,83070,5
36803,83071,5
36785,83067,6
36791,83061,3
36773,83033,5
36771,83005,5
36740,82950,5
36710,82872,5
36661,82776,4
36631,82677,5
36579,82581,5
36544,82512,5
36520,82454,5
36505,82435,4
36508,82458,5
36515,82459,5
36521,82478,5
36535,82502,4
36538,82536,4
36566,82582,5
36580,82617,5
36605,82670,5
36620,82708,4
36648,82757,6
36656,82776,4
36654,82765,5
36631,82691,5
36560,82518,6
36488,82392,3
36451,82317,5
36431,82259,5
36400,82198,5
36380,82167,4
36380,82148,5
36359,82130,5
36355,82103,5
36353,82085,5
36338,82061,4
36343,82054,5
36326,82054,5
36321,82047,5
36338,82058,4
36332,82065,4
36345,82071,5
36338,82082,5
36344,82085,5
36348,82095,4
36352,82098,5
36355,82101,6
36349,82109,4
36358,82110,5
36365,82117,4
36353,82122,5
36361,82124,5
36362,82116,5
36364,82123,5
36356,82116,4
36364,82126,5
36358,82131,5
36368,82154,5
36381,82160,5
36380,82155,4
36374,82142,5
36365,82137,5
36362,82127,5
36357,82119,5
36357,82110,4
36361,82107,5
36352,82097,5
36348,82083,5
36331,82078,4
36335,82055,5
36334,82045,5
36318,82016,6
36306,81994,4
36300,81970,4
36291,81968,5
36282,81959,5
36280,81954,5
36292,81968,5
36286,81974,4
36300,81985,5
36272,81990,5
36309,82009,5
36316,82020,5
36324,82041,4
36306,82076,5
36346,82097,5
36355,82115,5
36366,82134,5
36377,82165,4
36385,82187,5
36394,82201,5
36412,82219,5
36430,82237,5
36424,82248,4
36425,82260,5
36423,82272,5
36467,82282,6
36430,82287,3
36437,82292,5
36433,82295,5
36452,82277,5
36435,82274,5
36425,82272,4
36425,82271,5
36428,82248,5
36421,82252,5
36417,82237,5
36409,82222,4
36407,82201,5
36395,82206,5
36398,82198,5
36397,82191,5
36385,82151,4
36393,82166,5
36372,82154,5
36371,82141,5
36353,82077,4
36329,82039,5
36305,81953,4
36264,81841,5
36191,81725,5
36135,81585,4
36085,81487,5
36055,81410,5
36038,81393,5
36026,81353,5
36023,81334,4
36024,81371,5
36041,81434,5
36049,81442,5
36079,81486,5
36098,81529,4
36129,81602,5
36153,81669,5
36189,81755,5
36218,81807,5
36236,81859,4
36260,81902,5
36275,81949,5
36297,81984,5
36305,81965,5
36260,81876,4
36181,81676,6
36097,81498,4
36062,81429,5
36035,81376,4
36010,81340,5
36000,81310,5
35990,81285,5
35980,81265,5
35969,81236,4
35961,81219,5
35954,81206,5
35948,81203,5
35950,81207,5
35956,81228,4
35969,81241,5
35974,81253,5
35984,81278,5
35986,81295,5
35993,81306,4
35986,81302,5
36002,81311,5
35998,81313,5
36000,81323,5
36004,81325,4
35994,81332,5
36004,81333,6
36007,81322,4
36001,81324,4
36012,81318,4
35993,81310,5
35996,81302,5
35996,81310,5
35992,81312,4
35990,81317,5
36013,81332,5
35995,81328,5
35997,81315,5
35985,81309,4
35989,81295,5
35991,81289,5
35992,81292,5
35986,81285,5
35986,81294,4
35987,81276,5
35985,81281,5
35986,81279,5
35979,81267,5
35980,81266,4
35983,81265,5
35977,81264,5
35978,81263,5
35983,81267,4
35984,81281,4
35979,81280,5
35982,81290,5
35995,81299,5
36002,81310,4
35992,81325,5
36010,81341,5
36019,81357,5
36025,81385,5
36041,81410,4
36053,81428,5
36064,81448,5
36073,81472,5
36079,81478,5
36087,81498,4
36087,81515,5
36099,81531,5
36094,81534,5
36097,81546,5
36110,81550,5
36109,81550,4
36111,81553,5
36110,81563,5
36101,81566,5
36109,81551,4
36112,81554,5
36106,81558,5
36080,81547,5
36102,81541,4
36105,81534,5
36105,81520,5
36071,81528,5
36092,81518,5
36098,81512,4
36098,81514,5
36083,81517,5
36088,81505,5
36098,81503,5
36083,81507,4
36107,81494,5
36076,81490,5
36076,81490,5
36081,81485,5
36113,81490,4
36085,81498,6
36084,81491,4
36083,81490,5
36100,81488,5
36086,81487,4
36081,81489,5
36086,81492,5
36085,81490,5
36077,81488,4
36073,81481,4
36083,81468,5
36066,81442,5
36059,81435,5
36039,81394,4
36008,81319,5
35978,81199,5
35930,81133,5
35890,81029,5
35852,80949,5
35828,80875,4
35804,80859,5
35798,80849,5
35796,80846,5
35797,80880,4
35814,80896,5
35829,80933,5
35844,80982,5
35867,81045,5
35891,81069,4
35908,81124,5
35937,81183,5
35962,81288,5
35994,81302,4
36012,81326,4
36019,81342,5
36017,81363,5
36015,81312,5
35974,81225,4
35889,81042,5
35833,80912,5
35807,80870,5
35797,80858,5
35790,80845,5
35786,80830,4
35787,80820,5
35781,80823,5
35780,80808,6
35770,80811,3
35777,80803,5
35773,80815,5
35782,80824,5
35785,80846,5
35797,80858,4
35807,80885,5
35814,80901,5
35820,80917,5
35831,80931,5
35827,80939,4
35832,80949,5
35843,80959,5
35838,80967,5
35846,80964,4
35853,80974,5
35850,80975,5
35842,80967,5
35845,80956,5
35849,80965,4
35842,80958,6
35838,80950,4
35834,80951,5
35839,80952,5
35848,80952,6
35848,80974,8
35854,80986,5
35851,80979,5
35851,80964,4
35853,80962,5
35841,80953,5
35845,80957,5
35846,80959,5
35836,80957,4
35837,80945,5
35834,80950,5
35836,80925,5
35824,80918,4
35834,80921,4
35832,80920,5
35822,80915,5
35822,80913,5
35820,80925,4
35822,80937,5
35835,80938,6
35843,80945,4
35838,80955,5
35850,80973,4
35861,80991,5
35867,81011,5
35873,81032,5
35877,81051,5
35889,81069,4
35904,81096,5
35905,81097,5
35906,81107,5
35905,81114,5
35918,81124,4
35913,81112,5
35913,81106,5
35915,81127,5
35908,81102,4
35913,81112,4
35907,81115,5
35919,81110,5
35908,81109,5
35909,81107,4
35918,81105,5
35901,81099,5
35903,81086,6
35894,81091,4
35884,81076,4
35883,81063,5
35887,81045,5
35867,81027,5
35867,80990,5
35844,80959,4
35803,80909,5
35796,80850,5
35773,80775,5
35733,80707,5
35681,80639,4
35673,80574,5
35657,80541,5
35643,80515,5
35622,80503,4
35641,80513,4
35649,80530,5
35663,80553,5
35682,80575,5
35688,80628,5
35700,80660,4
35719,80694,5
35759,80714,5
35742,80732,6
35759,80755,3
35750,80773,5
35778,80777,5
35758,80764,5
35742,80766,5
35744,80748,4
35722,80672,5
35663,80527,5
35585,80355,5
35533,80264,5
35524,80244,4
35511,80223,5
35502,80205,5
35502,80196,5
35491,80164,5
35487,80186,4
35479,80184,5
35483,80167,5
35491,80163,5
35495,80193,4
35495,80211,5
35510,80227,4
35510,80252,5
35522,80282,5
35540,80304,4
35550,80311,5
35546,80342,5
35554,80335,5
35550,80329,5
35557,80352,4
35563,80381,5
35556,80350,5
35565,80344,5
35560,80346,5
35563,80370,4
35568,80358,5
35571,80360,5
35567,80365,5
35583,80406,5
35598,80425,4
35608,80459,5
35619,80459,5
35612,80454,5
35610,80461,4
35613,80464,4
35609,80464,6
35619,80464,4
35629,80492,5
35625,80485,4
35626,80490,5
35625,80491,5
35642,80507,5
35646,80520,5
35649,80534,4
35655,80542,5
35665,80567,5
35671,80600,5
35689,80634,5
35708,80675,4
35732,80719,5
35746,80762,5
35761,80823,5
35800,80881,5
35823,80932,4
35852,80991,5
35866,81033,5
35898,81085,5
35918,81130,4
35932,81165,4
35954,81205,5
35969,81224,6
35972,81243,4
35981,81263,4
35987,81290,5
35994,81295,5
35996,81307,5
35999,81305,5
35988,81309,4
35996,81307,5
36000,81307,5
35998,81313,5
36005,81323,5
36009,81323,4
36008,81324,5
36010,81313,5
35999,81319,5
36002,81313,5
36009,81309,4
36003,81315,5
35997,81307,5
35997,81301,5
36000,81307,5
36000,81309,4
35994,81303,5
35998,81296,5
35997,81289,6
35979,81253,3
35968,81226,4
35953,81176,5
35923,81135,5
35910,81094,5
35899,81074,4
35887,81052,5
35887,81040,5
35884,81054,5
35898,81080,5
35904,81103,4
35919,81144,5
35938,81200,5
35965,81258,5
36003,81318,5
36031,81383,4
36049,81442,5
36069,81492,5
36104,81535,5
36116,81586,5
36126,81599,5
36131,81606,4
36135,81589,5
36123,81556,5
36086,81457,4
36009,81282,4
35952,81166,5
35908,81136,5
35922,81137,5
35926,81135,4
35924,81143,5
35902,81147,5
35929,81156,5
35938,81170,5
35949,81182,4
35933,81210,5
35963,81234,5
35983,81262,5
36001,81306,5
36030,81360,4
36034,81400,5
36050,81440,5
36074,81483,4
36112,81506,5
36109,81550,4
36110,81565,6
36118,81583,4
36148,81595,5
36138,81588,4
36131,81592,4
36136,81591,5
36128,81583,5
36121,81577,5
36123,81567,4
36107,81564,5
36118,81553,5
36106,81561,5
36127,81580,5
36131,81588,4
36115,81551,5
36109,81561,5
36122,81561,5
36116,81553,5
36113,81532,4
36114,81574,5
36121,81576,5
36125,81593,5
36135,81596,5
36136,81617,4
36140,81611,5
36130,81612,6
36142,81655,4
36155,81649,5
36171,81683,4
36191,81728,5
36204,81808,5
36244,81846,5
36261,81895,4
36290,81974,5
36321,82059,5
36360,82132,5
36392,82209,5
36431,82295,4
36474,82382,5
36494,82446,5
36534,82490,5
36552,82556,5
36584,82608,4
36596,82648,5
36615,82674,5
36624,82702,5
36634,82728,5
36653,82752,4
36657,82764,5
36656,82769,5
36660,82759,5
36647,82740,5
36638,82708,4
36621,82674,5
36591,82606,5
36565,82543,5
36539,82491,4
36511,82442,4
36502,82416,5
36494,82404,5
36501,82415,5
36502,82423,4
36515,82464,5
36531,82490,5
36550,82546,5
36587,82626,5
36618,82680,4
36639,82747,5
36663,82800,5
36691,82857,5
36721,82903,5
36742,82933,5
36756,82956,4
36753,82962,5
36741,82947,5
36720,82862,5
36648,82708,4
36592,82588,5
36568,82544,5
36557,82541,5
36548,82526,4
36544,82519,4
36556,82530,5
36547,82539,5
36563,82542,5
36562,82563,4
36576,82576,5
36587,82610,5
36605,82654,5
36622,82676,5
36634,82720,4
36659,82768,5
36676,82803,5
36692,82860,5
36719,82891,5
36731,82929,4
36742,82955,6
36758,82983,4
36767,82990,5
36772,83004,5
36769,83008,4
36767,83011,5
36768,83024,5
36767,83019,5
36775,83010,4
36778,83024,4
36779,83030,5
36789,83055,5
36797,83053,5
36783,83038,4
36773,83017,5
36772,83011,5
36757,82997,5
36765,82987,5
36757,82972,4
36752,82971,5
36749,82955,5
36744,82941,6
36736,82931,4
36725,82902,4
36704,82868,5
36711,82831,5
36687,82828,5
36669,82831,5
36698,82847,4
36700,82862,5
36715,82886,5
36694,82928,5
36747,82959,5
36766,83000,4
36784,83072,5
36785,83117,5
36843,83186,5
36876,83256,4
36904,83321,5
36943,83387,5
36964,83452,5
36993,83505,5
37015,83573,5
37070,83621,4
37051,83651,5
37076,83676,5
37085,83688,6
37106,83684,3
37078,83658,5
37050,83637,5
37034,83580,5
37024,83521,5
36984,83459,4
36949,83400,5
36934,83358,5
36923,83321,5
36911,83318,5
36915,83324,4
36922,83340,5
36939,83341,5
36943,83413,5
36971,83460,5
36992,83518,4
37018,83540,5
37040,83634,5
37070,83714,5
37120,83797,4
37156,83873,6
37185,83933,4
37200,83953,5
37187,83912,5
37136,83812,6
37082,83681,3
37057,83642,5
37044,83629,5
37041,83647,5
37036,83599,4
37045,83602,5
37032,83601,5
37042,83627,5
37034,83596,5
37040,83610,4
37034,83611,5
37048,83632,5
37060,83641,5
37065,83661,4
37075,83695,4
37091,83718,5
37113,83753,5
37119,83781,5
37136,83813,4
37147,83845,5
37160,83889,6
37185,83905,4
37193,83936,5
37201,83959,4
37197,83980,5
37217,83991,5
37230,84011,5
37234,84022,5
37236,84055,4
37250,84075,5
37272,84118,5
37302,84175,5
37306,84185,5
37316,84176,4
37296,84170,5
37294,84165,5
37289,84164,5
37295,84157,5
37294,84144,7
37295,84142,2
37281,84138,5
37292,84126,5
37272,84114,4
37251,84077,5
37240,84028,5
37225,83993,6
37196,83960,4
37191,83939,4
37183,83932,5
37187,83936,5
37200,83936,5
37199,83946,5
37203,83966,4
37204,83986,5
37223,84015,5
37229,84035,5
37243,84068,5
37258,84090,4
37264,84135,5
37283,84159,5
37304,84198,5
37312,84217,5
37323,84263,4
37342,84275,5
37357,84279,5
37356,84297,5
37351,84285,5
37349,84285,4
37340,84257,5
37326,84219,5
37300,84161,6
37272,84093,3
37231,84003,5
37186,83910,5
37139,83814,5
37098,83723,5
37071,83650,4
37040,83609,5
37025,83581,5
37025,83570,5
37019,83582,5
37025,83590,4
37026,83613,5
37043,83634,5
37055,83674,5
37075,83703,5
37090,83743,4
37099,83786,5
37116,83801,5
37118,83789,5
37085,83703,4
37018,83528,5
36947,83417,4
36914,83337,5
36886,83262,5
36857,83208,4
36823,83157,5
36807,83129,5
36809,83098,5
36797,83078,5
36757,83039,4
36772,83028,5
36765,83003,5
36755,82997,5
36723,82991,5
36755,82997,4
36754,82998,5
36762,83008,5
36767,83007,5
36761,83022,5
36760,83024,4
36758,83019,5
36802,83011,5
36764,83009,5
36760,83009,4
36755,83011,4
36790,82996,6
36750,82994,4
36749,82982,5
36738,82987,4
36751,82971,5
36741,82968,5
36733,82966,5
36745,82981,5
36742,82964,4
36734,82946,5
36715,82913,5
36712,82903,5
36700,82840,5
36675,82821,4
36669,82792,5
36643,82746,5
36623,82687,5
36608,82692,5
36589,82653,5
36580,82611,4
36561,82541,5
36535,82511,5
36519,82470,5
36496,82423,4
36478,82412,5
36477,82382,6
36467,82369,4
36466,82378,4
36467,82404,5
36468,82381,5
36478,82388,5
36482,82397,5
36491,82432,4
36489,82429,5
36507,82449,5
36499,82458,5
36511,82487,5
36526,82488,4
36533,82510,5
36532,82517,5
36536,82521,5
36545,82526,5
36546,82541,4
36548,82538,5
36542,82548,5
36543,82551,5
36553,82552,5
36542,82548,4
36550,82552,5
36550,82542,5
36540,82531,5
36543,82535,4
36540,82518,5
36534,82506,5
36527,82490,5
36517,82476,5
36521,82458,4
36501,82455,5
36500,82437,5
36500,82423,5
36490,82401,5
36479,82395,4
36474,82382,5
36469,82364,5
36471,82364,5
36465,82347,5
36456,82328,4
36452,82321,5
36448,82319,5
36439,82308,5
36445,82301,5
36438,82299,5
36432,82282,4
36426,82282,5
36432,82279,5
36427,82265,4
36417,82259,4
36419,82256,5
36419,82250,5
36418,82247,5
36423,82240,4
36409,82242,5
36412,82236,5
36407,82233,5
36404,82226,5
36407,82226,4
36399,82213,5
36394,82211,5
36394,82203,5
36388,82195,5
36396,82186,4
36382,82176,5
36388,82167,5
36375,82159,5
36378,82151,5
36371,82134,4
36365,82129,6
36365,82125,4
36360,82122,5
36354,82107,4
36346,82077,4
36327,82047,5
36296,81974,5
36256,81859,5
36186,81694,4
36115,81500,5
36034,81323,5
35960,81167,5
35911,81075,5
35879,81023,4
35872,81018,5
35873,81026,5
35886,81042,5
35896,81085,5
35915,81130,4
35949,81181,5
35972,81264,5
36010,81336,5
36044,81414,5
36085,81508,4
36127,81599,5
36144,81679,6
36185,81737,4
36199,81764,4
36209,81753,4
36150,81666,5
36105,81480,5
36020,81319,5
35979,81251,4
35945,81224,5
35951,81176,5
35930,81143,5
35913,81116,5
35913,81099,4
35903,81091,5
35896,81078,5
35886,81064,5
35921,81062,5
35899,81064,4
35894,81075,5
35898,81095,5
35929,81111,5
35904,81124,5
35920,81120,4
35923,81137,5
35939,81132,5
35921,81148,5
35930,81141,5
35927,81158,4
35929,81145,5
35937,81152,5
35927,81151,5
35927,81141,4
35917,81119,5
35918,81138,5
35910,81123,5
35919,81121,5
35904,81075,4
35903,81089,5
35901,81082,5
35896,81088,5
35900,81088,5
35904,81107,4
35908,81095,6
35896,81082,4
35893,81082,5
35891,81066,5
35892,81060,6
35882,81058,3
35887,81094,5
35899,81054,5
35886,81057,5
35884,81049,4
35877,81075,5
35882,81044,5
35879,81039,5
35875,81039,4
35875,81052,4
35890,81046,5
35883,81057,5
35888,81060,5
35890,81066,4
35892,81078,5
35901,81092,5
35906,81095,5
35917,81119,5
35919,81136,4
35927,81167,5
35949,81173,5
35954,81203,4
35953,81214,5
35966,81236,4
35977,81259,7
35982,81273,3
35986,81280,5
35992,81294,5
35997,81306,4
35998,81310,5
36004,81312,5
36001,81312,5
36000,81321,4
35999,81325,4
36003,81317,5
35999,81318,5
36002,81317,5
36002,81306,4
36001,81313,5
35998,81311,5
35995,81298,5
35995,81284,5
35992,81284,4
35989,81277,5
35988,81277,5
35987,81282,6
35978,81267,4
35988,81263,4
35982,81271,5
35981,81271,5
35973,81259,5
35979,81259,5
35979,81261,4
35981,81263,5
35980,81251,5
35980,81255,5
35968,81248,5
35970,81220,4
35955,81185,5
35938,81139,5
35901,81077,5
35871,81004,4
35835,80929,5
35810,80866,5
35786,80822,5
35775,80792,5
35765,80771,5
35770,80783,4
35772,80788,5
35783,80810,5
35785,80841,6
35814,80874,3
35823,80913,5
35836,80950,5
35856,81003,5
35875,81030,5
35894,81083,4
35917,81109,5
35917,81128,5
35920,81137,5
35929,81149,5
35916,81139,4
35913,81113,5
35893,81030,5
35817,80878,5
35756,80720,4
35723,80669,4
35705,80648,5
35697,80622,5
35677,80594,5
35678,80581,4
35670,80578,6
35672,80578,4
35665,80576,5
35654,80576,5
35667,80584,6
35679,80595,3
35680,80617,5
35671,80634,5
35700,80660,5
35719,80685,4
35726,80706,5
35704,80726,5
35734,80736,5
35740,80742,5
35733,80742,4
35750,80739,5
35746,80736,5
35730,80734,5
35740,80722,4
35765,80729,4
35738,80722,5
35734,80712,5
35726,80702,5
35753,80696,4
35716,80683,5
35711,80690,6
35719,80694,4
35739,80714,5
35735,80705,4
35721,80692,5
35714,80688,5
35717,80665,5
35705,80651,5
35709,80656,4
35699,80649,5
35694,80621,5
35690,80623,5
35690,80615,5
35679,80600,4
35671,80565,5
35668,80582,5
35673,80584,5
35676,80581,4
35678,80574,4
35673,80592,5
35689,80603,5
35697,80613,5
35694,80631,4
35694,80631,5
35701,80652,5
35709,80679,6
35709,80714,4
35723,80710,4
35738,80723,5
35742,80746,5
35756,80789,5
35754,80779,5
35762,80778,4
35775,80800,5
35764,80812,5
35762,80799,5
35762,80800,5
35766,80797,4
35760,80788,5
35756,80796,5
35767,80785,5
35766,80797,5
35766,80787,4
35762,80783,5
35757,80784,5
35749,80772,5
35756,80764,5
35746,80750,4
35741,80745,5
35725,80736,5
35735,80729,6
35728,80718,3
35728,80710,5
35723,80696,5
35720,80675,5
35715,80683,5
35708,80669,5
35713,80660,4
35699,80652,5
35701,80643,5
35696,80650,5
35698,80642,4
35696,80628,5
35692,80630,5
35684,80613,5
35681,80612,5
35674,80608,4
35681,80594,5
35677,80583,5
35668,80572,5
35663,80562,4
35660,80560,5
35654,80549,4
35659,80541,5
35651,80531,5
35644,80516,4
35641,80516,5
35634,80500,5
35627,80489,5
35616,80458,5
35601,80418,4
35568,80360,5
35544,80284,5
35512,80211,5
35481,80130,5
35452,80062,4
35422,79994,5
35396,79948,5
35380,79909,5
35370,79899,5
35363,79889,4
35366,79911,5
35385,79928,5
35393,79963,5
35409,80012,4
35439,80073,4
35460,80123,6
35484,80169,4
35497,80211,5
35521,80265,4
35536,80275,5
35531,80285,5
35541,80283,5
35534,80275,5
35530,80262,4
35514,80221,5
35483,80110,5
35419,79993,5
35400,79963,5
35395,79970,4
35406,79978,5
35395,79976,5
35415,79996,5
35422,80021,5
35429,80041,4
35442,80074,5
35444,80101,5
35460,80128,5
35484,80167,5
35492,80217,4
35515,80258,5
35534,80300,6
35553,80351,4
35561,80391,4
35588,80422,5
35611,80448,5
35613,80470,5
35595,80480,5
35637,80505,4
35637,80505,5
35635,80510,5
35649,80520,5
35641,80523,5
35644,80529,4
35647,80524,5
35670,80525,5
35647,80525,5
35646,80532,5
35651,80533,4
35689,80553,5
35666,80590,5
35682,80596,5
35670,80589,5
35682,80578,4
35670,80569,5
35668,80562,5
35662,80571,5
35662,80553,4
35666,80565,5
35670,80548,5
35662,80552,5
35656,80544,5
35656,80561,4
35664,80572,5
35659,80575,5
35672,80556,5
35676,80590,5
35682,80612,5
35690,80624,4
35695,80649,5
35713,80694,5
35739,80735,5
35760,80799,4
35777,80850,5
35809,80902,5
35828,80941,5
35843,80980,5
35870,81064,5
35891,81064,4
35904,81089,5
35911,81130,5
35926,81187,4
35948,81176,4
35945,81197,5
35957,81212,5
35964,81241,5
35971,81246,4
35975,81250,5
35977,81267,5
35977,81267,5
35991,81272,5
35979,81277,4
35985,81278,5
35984,81270,5
35976,81274,5
35983,81257,5
35975,81241,4
35963,81209,5
35945,81190,5
35934,81149,5
35926,81125,5
35917,81095,4
35908,81093,6
35900,81090,4
35911,81091,5
35905,81105,5
35920,81120,4
35932,81155,5
35943,81193,5
35963,81244,5
35990,81302,4
36010,81340,5
36031,81383,5
36030,81399,5
36053,81400,5
36051,81418,4
36045,81417,5
36048,81411,5
36043,81398,5
36037,81380,5
36014,81327,4
35979,81219,5
35906,81083,5
35878,81019,5
35873,81023,5
35880,81012,4
35871,81020,5
35872,81039,5
35885,81044,5
35898,81079,5
35903,81112,4
35921,81142,5
35944,81177,5
35955,81225,5
35977,81263,4
35999,81304,4
36027,81356,5
36044,81421,5
36063,81461,5
36077,81500,4
36088,81524,5
36097,81541,5
36105,81557,5
36111,81562,5
36113,81566,4
36120,81564,5
36123,81563,5
36110,81560,5
36118,81558,5
36114,81555,4
36116,81568,5
36107,81565,5
36122,81584,5
36140,81619,5
36146,81626,4
36139,81612,5
36131,81602,5
36136,81588,5
36133,81580,4
36125,81584,4
36126,81579,5
36130,81589,5
36129,81585,5
36131,81573,4
36120,81570,5
36114,81562,5
36112,81557,5
36122,81555,5
36115,81560,4
36124,81565,5
36116,81582,4
36128,81602,5
36149,81634,5
36168,81672,5
36162,81725,3
36209,81790,5
36242,81852,5
36273,81918,5
36278,82005,4
36326,82068,5
36361,82121,5
36389,82178,5
36418,82233,5
36438,82273,4
36453,82312,5
36470,82343,5
36501,82375,5
36487,82396,4
36495,82400,5
36502,82413,5
36531,82414,5
36496,82411,5
36487,82387,4
36475,82366,5
36484,82332,6
36445,82272,4
36417,82226,5
36400,82169,4
36380,82125,7
36358,82100,3
36356,82088,5
36351,82099,5
36358,82086,4
36380,82134,5
36391,82167,5
36406,82211,5
36429,82237,5
36457,82331,4
36486,82387,5
36502,82427,5
36519,82434,5
36532,82504,4
36549,82527,5
36554,82526,4
36547,82524,5
36528,82474,5
36497,82374,4
36427,82208,5
36357,82128,5
36336,82059,6
36345,82046,4
36324,82033,4
36326,82061,5
36330,82036,5
36331,82055,5
36345,82071,5
36350,82095,4
36365,82123,5
36374,82148,5
36385,82187,5
36407,82232,5
36438,82279,4
36442,82319,5
36471,82375,5
36489,82419,5
36519,82457,5
36527,82501,4
36540,82523,5
36553,82546,5
36566,82584,5
36578,82586,5
36578,82606,4
36581,82599,5
36583,82604,5
36581,82599,6
36583,82590,3
36569,82592,5
36578,82601,5
36590,82618,5
36592,82629,5
36588,82610,4
36580,82586,5
36567,82575,5
36567,82559,5
36561,82553,5
36550,82534,4
36548,82534,5
36542,82525,5
36545,82515,5
36535,82497,5
36524,82483,4
36517,82454,5
36505,82440,5
36502,82428,5
36499,82419,4
36506,82429,5
36512,82448,4
36515,82480,5
36537,82512,5
36554,82542,6
36568,82583,3
36587,82630,5
36617,82692,5
36645,82750,5
36674,82826,4
36704,82898,5
36727,82961,5
36766,83019,5
36783,83068,5
36805,83123,4
36823,83158,5
36845,83187,5
36859,83212,5
36868,83229,5
36858,83223,4
36861,83224,5
36855,83202,5
36836,83160,5
36800,83089,4
36775,83012,4
36733,82924,6
36703,82850,4
36677,82791,5
36657,82751,4
36642,82727,5
36634,82726,5
36643,82744,5
36652,82752,5
36666,82803,4
36688,82842,5
36712,82916,5
36736,82967,5
36764,83027,5
36805,83103,4
36833,83186,5
36866,83267,5
36901,83337,5
36926,83371,5
36932,83372,4
36915,83311,5
36844,83163,5
36777,83057,5
36779,83021,4
36757,82973,4
36737,82952,5
36713,82937,6
36732,82924,4
36716,82925,4
36721,82917,5
36693,82919,5
36718,82927,5
36734,82935,5
36733,82956,4
36746,82976,5
36751,83002,5
36779,83031,5
36780,83056,5
36813,83084,4
36812,83131,5
36822,83158,5
36838,83181,5
36888,83219,5
36871,83244,4
36876,83260,5
36874,83272,5
36905,83292,5
36895,83309,5
36896,83315,4
36901,83324,5
36910,83330,5
36912,83337,6
36910,83346,3
36936,83379,4
36929,83382,5
36931,83380,5
36929,83373,5
36923,83364,4
36917,83332,5
36909,83340,5
36904,83316,5
36893,83300,5
36883,83263,4
36876,83262,5
36861,83247,5
36851,83209,5
36825,83169,5
36805,83106,4
36786,83053,5
36764,83006,5
36747,83007,5
36745,82967,5
36734,82945,5
36730,82955,4
36738,82984,5
36742,82968,5
36746,82971,4
36753,82992,4
36751,83011,5
36759,83013,5
36763,83040,5
36774,83045,4
36779,83080,5
36795,83092,5
36803,83112,5
36810,83111,5
36810,83133,4
36813,83146,5
36821,83147,5
36821,83146,5
36816,83153,5
36822,83136,4
36815,83136,5
36797,83102,5
36793,83087,8
36777,83035,2
36738,82944,4
36682,82856,6
36649,82741,4
36593,82616,5
36541,82513,5
36501,82412,4
36458,82331,5
36433,82291,5
36436,82291,5
36435,82295,4
36427,82300,5
36446,82320,5
36465,82359,5
36477,82396,5
36500,82454,4
36522,82507,5
36538,82538,5
36562,82587,5
36581,82631,5
36601,82668,4
36614,82690,5
36590,82656,5
36545,82525,5
36468,82341,5
36415,82248,4
36384,82184,5
36355,82107,6
36331,82051,4
36307,82016,5
36295,81969,4
36278,81941,5
36262,81915,5
36243,81874,5
36230,81855,4
36228,81829,4
36225,81828,5
36219,81820,5
36220,81834,5
36224,81835,4
36227,81840,5
36225,81849,5
36225,81845,5
36228,81849,5
36231,81855,4
36241,81861,5
36230,81862,5
36234,81868,5
36233,81872,5
36243,81874,4
36244,81879,5
36241,81879,5
36245,81876,5
36239,81870,5
36242,81860,4
36238,81868,5
36236,81876,5
36250,81891,5
36252,81885,4
36240,81864,4
36237,81862,5
36237,81850,5
36233,81840,5
36223,81827,4
36215,81816,5
36206,81800,5
36198,81790,5
36201,81760,5
36175,81737,4
36174,81711,5
36164,81672,5
36146,81650,5
36103,81612,5
36122,81583,5
36110,81573,4
36112,81568,5
36078,81562,5
36106,81560,5
36103,81557,4
36111,81569,5
36110,81584,5
36113,81577,5
36116,81595,5
36126,81601,4
36162,81625,5
36144,81643,5
36147,81652,5
36149,81679,4
36192,81687,5
36165,81702,5
36171,81712,5
36180,81714,5
36184,81720,4
36180,81718,5
36184,81724,6
36179,81729,4
36182,81719,5
36178,81730,4
36176,81725,6
36176,81726,3
36177,81698,5
36178,81726,5
36174,81720,4
36179,81705,5
36175,81679,5
36170,81697,5
36163,81686,5
36168,81688,4
36159,81658,5
36153,81664,5
36150,81668,5
36148,81651,4
36144,81662,4
36147,81648,5
36140,81638,5
36141,81640,5
36149,81671,4
36153,81635,5
36138,81634,5
36137,81644,5
36142,81664,5
36133,81629,4
36139,81637,5
36128,81602,5
36109,81566,5
36085,81473,5
36035,81379,4
35974,81237,5
35926,81131,5
35874,81015,5
35846,80962,5
35836,80934,4
35824,80908,5
35827,80916,5
35831,80931,5
35833,80958,4
35858,81005,4
35879,81053,5
35904,81105,5
35924,81159,5
35947,81221,4
35980,81301,5
36019,81370,5
36040,81413,5
36061,81450,5
36071,81487,3
36092,81523,5
36108,81551,5
36092,81524,5
36058,81424,5
35988,81232,4
35886,81042,5
35848,80964,5
35823,80912,5
35815,80854,5
35787,80822,4
35762,80804,5
35749,80774,5
35753,80762,5
35740,80754,5
35737,80740,4
35730,80733,5
35739,80742,5
35748,80757,5
35757,80766,4
35759,80785,6
35769,80812,4
35775,80829,5
35776,80834,5
35788,80848,6
35789,80849,3
35791,80846,5
35790,80859,5
35796,80863,5
35793,80865,4
35786,80863,5
35793,80873,5
35795,80863,5
35801,80869,5
35789,80852,4
35778,80845,5
35785,80845,5
35788,80828,5
35782,80837,5
35787,80845,4
35793,80851,5
35793,80847,5
35783,80838,5
35773,80827,4
35773,80810,4
35776,80817,6
35768,80813,4
35771,80810,5
35771,80805,4
35769,80799,7
35758,80790,3
35759,80781,5
35762,80776,5
35751,80780,4
35747,80770,5
35755,80783,5
35747,80769,5
35761,80779,5
35760,80780,4
35758,80792,5
35763,80790,5
35772,80811,5
35770,80814,5
35774,80837,4
35771,80865,5
35794,80874,5
35809,80896,5
35817,80926,4
35799,80948,4
35839,80968,5
35847,80991,6
35852,80996,4
35836,81019,4
35867,81019,5
35868,81041,5
35871,81040,5
35867,81034,5
35876,81045,4
35878,81054,5
35868,81049,5
35900,81052,5
35879,81041,5
35876,81045,4
35869,81035,5
35909,81029,5
35870,81033,5
35863,81028,5
35861,81026,4
35885,81016,5
35857,81024,5
35855,81009,5
35855,81009,5
35864,81001,4
35856,80995,5
35857,81002,5
35859,80989,6
35854,80981,3
35855,80993,4
35856,80999,5
35858,80989,5
35856,80959,5
35857,80997,4
35856,80990,5
35855,80989,5
35851,80953,5
35843,80984,5
35843,80982,5
35851,80975,4
35842,80995,5
35854,80980,5
35849,80982,5
35845,80977,4
35843,80993,5
35828,80941,5
35819,80909,5
35793,80850,5
35764,80812,5
35725,80688,4
35691,80607,5
35650,80522,5
35621,80480,6
35606,80434,3
35606,80435,5
35607,80440,5
35615,80451,5
35624,80481,4
35639,80507,5
35652,80553,5
35669,80605,5
35695,80656,5
35729,80714,4
35760,80775,5
35790,80831,5
35805,80876,5
35802,80912,5
35812,80911,4
35820,80923,5
35821,80916,5
35806,80875,5
35779,80767,5
35693,80590,4
35615,80453,6
35590,80401,4
35577,80380,5
35572,80351,5
35562,80341,4
35554,80328,5
35553,80319,5
35553,80322,5
35562,80332,4
35557,80325,4
35555,80355,5
35563,80362,5
35565,80379,5
35583,80395,4
35597,80429,5
35611,80449,5
35603,80461,5
35618,80477,5
35624,80483,4
35631,80487,5
35632,80484,5
35631,80488,5
35625,80487,5
35630,80497,4
35625,80494,5
35623,80495,6
35624,80490,4
35622,80476,5
35621,80475,4
35620,80457,5
35617,80465,5
35606,80449,5
35620,80465,4
35611,80475,4
35631,80483,5
35616,80464,5
35613,80458,5
35605,80446,4
35604,80443,5
35620,80443,5
35607,80429,5
35608,80434,5
35591,80438,4
35603,80418,5
35589,80415,5
35594,80418,5
35595,80407,5
35593,80421,4
35598,80419,5
35599,80424,5
35602,80426,6
35608,80448,4
35620,80455,4
35620,80463,5
35618,80474,5
35630,80497,5
35629,80518,5
35648,80534,4
35660,80547,5
35666,80576,5
35674,80594,5
35686,80618,4
35680,80626,5
35698,80653,5
35697,80662,5
35706,80669,5
35709,80674,4
35713,80677,5
35683,80668,5
35703,80662,5
35706,80672,5
35707,80652,5
35667,80658,4
35690,80657,5
35693,80651,5
35691,80651,5
35683,80638,4
35687,80634,5
35691,80620,5
35691,80624,5
35709,80621,5
35686,80610,4
35680,80602,5
35683,80601,5
35703,80597,5
35677,80590,4
35669,80590,4
35673,80585,5
35694,80586,5
35670,80577,5
35665,80584,4
35668,80587,5
35673,80584,5
35671,80575,5
35673,80578,5
35659,80560,4
35653,80527,6
35642,80507,4
35608,80450,5
35595,80401,5
35578,80322,4
35551,80287,5
35531,80252,5
35521,80221,5
35506,80192,5
35512,80201,4
35507,80207,5
35515,80211,5
35518,80229,5
35528,80263,4
35544,80282,4
35553,80321,5
35559,80373,5
35574,80377,5
35579,80381,4
35580,80401,5
35583,80432,5
35591,80386,5
35576,80369,5
35579,80363,4
35569,80350,5
35552,80309,6
35517,80217,4
35467,80075,5
35397,79940,4
35364,79901,5
35360,79884,5
35344,79858,5
35336,79841,5
35331,79829,4
35334,79820,5
35334,79821,6
35339,79823,4
35336,79827,4
35345,79843,4
35353,79856,5
35353,79866,5
35357,79899,5
35366,79897,4
35371,79918,5
35378,79922,5
35377,79931,5
35384,79921,5
35371,79928,4
35377,79918,5
35371,79912,5
35375,79911,5
35371,79903,5
35365,79902,4
35366,79893,5
35360,79878,5
35351,79879,5
35356,79861,5
35350,79852,4
35344,79848,5
35352,79864,5
35344,79868,5
35341,79860,5
35345,79844,4
35334,79840,5
35328,79834,5
35339,79831,5
35327,79839,4
35334,79834,5
35339,79825,5
35337,79829,5
35324,79818,5
35325,79813,5
35342,79823,4
35325,79803,5
35333,79818,5
35340,79820,5
35331,79838,4
35344,79848,5
35342,79856,5
35345,79880,5
35362,79890,5
35372,79906,4
35376,79926,5
35390,79960,5
35410,79998,5
35416,80025,5
35427,80057,4
35447,80080,5
35445,80103,5
35461,80117,5
35469,80134,4
35478,80150,4
35483,80156,5
35486,80178,5
35483,80178,5
35501,80202,4
35500,80211,6
35517,80217,4
35511,80234,5
35520,80256,5
35534,80264,4
35532,80271,5
35545,80293,5
35544,80306,5
35551,80314,5
35558,80309,4
35560,80326,5
35561,80341,5
35568,80355,5
35577,80362,5
35581,80382,4
35583,80385,5
35595,80402,5
35577,80400,5
35600,80404,4
35596,80411,4
35597,80397,5
35560,80394,5
35586,80367,4
35576,80344,4
35573,80325,5
35538,80313,5
35548,80299,5
35549,80289,5
35539,80295,4
35560,80306,5
35560,80323,5
35568,80335,5
35581,80380,5
35633,80430,4
35624,80484,5
35652,80539,5
35669,80601,5
35726,80657,5
35713,80694,4
35728,80726,5
35742,80741,5
35758,80743,5
35747,80746,5
35741,80728,4
35735,80692,5
35702,80634,5
35653,80507,6
35604,80394,3
35577,80366,5
35590,80342,5
35588,80378,5
35598,80381,5
35594,80392,4
35592,80370,5
35599,80408,5
35603,80422,5
35609,80455,5
35626,80466,4
35635,80498,5
35648,80532,5
35669,80566,5
35682,80632,5
35704,80663,4
35716,80704,5
35743,80744,5
35757,80803,5
35763,80785,5
35782,80802,5
35784,80817,4
35784,80846,5
35785,80825,5
35786,80823,6
35781,80828,3
35779,80819,5
35780,80807,5
35769,80800,5
35771,80795,4
35773,80801,5
35777,80829,5
35782,80840,5
35783,80832,5
35780,80813,4
35779,80803,5
35773,80803,5
35771,80797,5
35774,80807,5
35781,80812,4
35775,80817,5
35780,80809,5
35778,80820,5
35779,80806,5
35777,80819,4
35785,80817,6
35780,80835,4
35785,80836,5
35790,80847,4
35798,80872,6
35811,80902,3
35835,80931,5
35847,80977,5
35868,81026,4
35899,81089,5
35916,81140,5
35942,81199,5
35968,81248,5
35999,81302,4
36015,81341,5
36038,81392,5
36048,81430,5
36067,81454,5
36089,81478,4
36090,81497,5
36098,81523,5
36098,81540,5
36108,81550,5
36115,81568,4
36125,81581,5
36126,81581,6
36132,81593,4
36129,81586,5
36123,81588,4
36116,81567,5
36119,81530,5
36087,81499,5
36072,81444,4
36041,81386,5
36019,81339,5
36002,81299,5
35980,81273,5
35977,81265,4
35982,81261,5
35993,81272,5
35992,81296,5
36014,81319,5
36023,81377,4
36051,81429,5
36083,81484,5
36109,81559,5
36139,81612,5
36157,81655,4
36172,81683,5
36173,81703,5
36188,81716,6
36185,81707,4
36172,81690,4
36158,81668,5
36151,81614,5
36119,81522,5
36045,81364,4
35980,81230,4
35947,81186,5
35952,81176,5
35943,81166,5
35952,81176,4
35950,81183,5
35954,81201,5
35960,81233,5
35967,81254,5
35980,81285,4
36001,81316,5
36014,81351,5
36034,81397,5
36030,81439,5
36076,81481,5
36097,81516,4
36113,81555,5
36094,81585,5
36136,81612,6
36136,81625,3
36146,81632,5
36156,81645,5
36149,81646,5
36141,81646,4
36152,81642,4
36176,81634,5
36153,81637,5
36143,81628,5
36151,81624,4
36175,81632,5
36160,81660,5
36172,81687,5
36167,81666,5
36171,81647,4
36160,81649,5
36146,81630,5
36139,81626,5
36148,81626,5
36145,81629,4
36152,81620,6
36145,81620,4
36142,81598,5
36137,81610,5
36138,81609,4
36127,81582,5
36127,81563,5
36131,81589,5
36134,81606,5
36147,81632,4
36156,81637,5
36168,81685,5
36180,81728,5
36197,81776,4
36236,81843,4
36263,81902,5
36291,81969,5
36316,82042,5
36355,82141,4
36383,82173,5
36408,82236,5
36430,82285,5
36454,82363,5
36476,82371,4
36492,82403,5
36504,82439,6
36511,82465,4
36526,82482,5
36541,82489,4
36545,82519,5
36540,82522,5
36540,82516,5
36542,82500,5
36523,82465,4
36504,82415,5
36482,82343,5
36444,82274,5
36410,82191,4
36376,82126,4
36356,82080,5
36333,82040,5
36331,82043,5
36336,82050,4
36339,82069,5
36358,82115,5
36375,82155,5
36408,82219,5
36433,82297,4
36473,82375,5
36498,82447,5
36533,82524,6
36572,82590,4
36615,82677,4
36631,82735,5
36648,82766,5
36653,82762,5
36644,82725,5
36609,82641,4
36538,82457,5
36478,82341,5
36448,82295,5
36432,82268,4
36420,82236,4
36405,82229,5
36415,82219,5
36413,82230,5
36418,82252,4
36428,82270,5
36439,82287,5
36460,82325,5
36470,82354,5
36491,82409,5
36506,82451,4
36535,82510,5
36561,82565,5
36579,82604,5
36604,82661,4
36621,82713,5
36643,82769,5
36666,82802,5
36676,82834,5
36699,82865,4
36702,82889,5
36709,82895,5
36718,82909,5
36725,82916,5
36726,82926,4
36727,82918,5
36719,82922,5
36730,82934,5
36738,82948,4
36743,82957,5
36738,82946,5
36727,82911,5
36713,82901,5
36715,82889,4
36716,82874,6
36707,82866,4
36693,82855,5
36698,82852,5
36694,82839,4
36680,82829,5
36675,82799,5
36655,82773,5
36648,82746,5
36639,82732,4
36641,82724,5
36642,82730,5
36641,82740,5
36645,82755,5
36664,82779,4
36659,82816,5
36683,82843,5
36706,82878,5
36714,82920,4
36717,82960,4
36754,83006,5
36775,83050,5
36796,83106,5
36803,83162,4
36853,83217,5
36883,83261,6
36891,83299,4
36904,83330,5
36921,83364,4
36931,83387,5
36957,83412,5
36970,83422,5
36962,83445,5
36957,83439,4
36960,83440,5
36991,83421,5
36948,83409,5
36927,83363,5
36894,83289,4
36871,83195,5
36810,83082,5
36763,82979,5
36721,82901,4
36702,82835,4
36676,82799,5
36662,82777,5
36661,82790,5
36679,82794,4
36676,82850,5
36711,82886,5
36734,82943,5
36755,82971,5
36779,83064,4
36804,83131,5
36845,83204,5
36883,83231,5
36908,83327,5
36926,83374,5
36942,83389,4
36933,83391,5
36912,83294,5
36838,83125,5
36756,82981,4
36726,82950,5
36687,82845,5
36666,82776,5
36645,82723,4
36614,82721,4
36605,82660,5
36590,82627,5
36578,82593,5
36565,82587,5
36564,82566,8
36557,82569,1
36562,82566,5
36561,82569,5
36563,82585,4
36565,82582,5
36572,82591,5
36563,82591,5
36570,82605,5
36579,82608,4
36576,82602,5
36581,82611,5
36574,82604,5
36575,82601,5
36579,82596,4
36568,82596,5
36569,82596,5
36569,82594,5
36568,82588,4
36563,82576,4
36564,82576,5
36568,82575,5
36574,82595,5
36573,82591,4
36560,82568,6
36543,82544,3
36545,82526,5
36531,82505,5
36526,82485,4
36506,82454,5
36498,82418,5
36482,82400,5
36477,82367,5
36464,82336,4
36439,82299,5
36426,82267,5
36408,82226,5
36396,82190,5
36382,82164,4
36380,82153,5
36365,82148,5
36368,82135,5
36364,82151,5
36373,82150,4
36378,82163,5
36374,82175,6
36387,82180,4
36377,82202,4
36400,82209,5
36404,82225,5
36414,82246,5
36410,82250,5
36423,82260,4
36421,82280,5
36429,82290,5
36442,82301,5
36439,82300,5
36438,82300,4
36436,82308,5
36439,82317,5
36440,82304,5
36440,82306,5
36431,82303,4
36434,82294,5
36425,82285,5
36431,82269,5
36424,82259,5
36407,82261,4
36414,82233,5
36411,82236,5
36402,82216,6
36388,82204,3
36395,82192,4
36384,82184,5
36386,82172,5
36376,82146,5
36370,82134,4
36353,82112,5
36342,82063,5
36320,81994,5
36269,81890,5
36210,81767,4
36155,81622,5
36091,81487,5
36033,81372,5
36001,81299,5
35972,81253,4
35964,81214,5
35933,81207,5
35959,81239,5
35969,81260,5
35995,81298,5
35979,81344,4
36033,81388,5
36054,81433,5
36075,81500,6
36114,81578,3
36146,81649,5
36165,81705,5
36187,81749,5
36240,81812,4
36250,81868,5
36255,81883,5
36243,81857,5
36234,81762,5
36138,81579,4
36074,81453,5
36040,81399,5
36034,81346,5
36000,81295,5
35977,81260,4
35974,81237,5
35968,81218,5
35959,81196,5
35946,81183,5
35932,81173,4
35938,81150,6
35944,81175,4
35941,81172,5
35948,81194,4
35951,81180,4
35953,81221,5
35968,81227,5
35959,81233,5
35963,81213,4
35971,81245,5
35971,81256,5
35971,81250,5
35969,81252,5
35962,81254,4
35974,81255,5
35975,81261,5
35973,81288,5
35973,81257,5
35970,81245,4
35976,81245,5
35968,81271,5
35969,81241,5
35970,81253,5
35980,81261,4
35978,81275,5
35972,81242,6
35968,81237,4
35960,81229,4
35964,81231,4
35965,81229,5
35969,81226,5
35962,81220,5
35957,81210,4
35955,81203,5
35958,81203,5
35950,81200,5
35954,81201,5
35952,81201,4
35954,81194,5
35951,81195,5
35959,81199,5
35953,81203,5
35957,81210,4
35949,81223,5
35961,81219,5
35963,81230,5
35962,81242,5
35970,81260,4
35992,81278,5
35987,81302,5
35997,81310,6
36009,81333,3
36013,81358,4
36028,81366,5
36019,81385,5
36032,81390,5
36043,81405,4
36045,81417,5
36050,81422,5
36050,81426,5
36060,81431,5
36062,81425,4
36045,81422,5
36052,81419,5
36043,81422,5
36045,81413,5
36049,81413,4
36033,81396,5
36029,81380,5
36031,81381,5
36036,81368,5
36030,81362,5
36022,81355,4
36015,81349,5
36015,81338,5
36007,81331,5
36012,81330,4
35999,81319,5
36004,81314,5
35997,81307,5
35992,81298,4
35985,81286,5
35999,81284,5
35992,81295,5
35982,81290,5
35989,81277,4
35981,81279,5
35988,81273,5
35980,81264,5
35987,81270,5
35982,81260,4
35972,81260,5
35969,81250,5
35973,81255,5
35971,81254,5
35962,81238,4
35971,81227,6
35958,81231,4
35964,81218,5
35959,81218,5
35963,81208,4
35953,81199,5
35944,81190,5
35950,81182,5
35937,81174,4
35940,81174,5
35932,81154,5
35920,81149,5
35918,81131,5
35903,81118,4
35921,81117,5
35909,81104,5
35906,81094,5
35878,81088,5
35895,81068,4
35885,81074,5
35888,81046,5
35844,81028,5
35860,80988,5
35841,80916,4
35797,80829,5
35737,80713,6
35691,80579,4
35621,80439,5
35579,80324,4
35551,80252,5
35512,80199,5
35511,80186,5
35495,80187,4
35536,80206,4
35516,80224,5
35529,80266,5
35552,80313,5
35595,80369,4
35598,80435,5
35628,80497,5
35662,80576,5
35709,80670,5
35727,80731,4
35746,80765,5
35762,80780,5
35757,80767,5
35750,80751,5
35719,80670,4
35664,80499,5
35578,80326,5
35557,80313,6
35547,80298,4
35532,80273,4
35522,80212,5
35519,80241,5
35519,80239,5
35522,80237,4
35523,80263,4
35526,80260,5
35530,80274,5
35535,80287,5
35543,80341,4
35558,80335,5
35570,80374,5
35586,80396,5
35591,80450,5
35603,80441,4
35610,80451,5
35616,80450,5
35611,80485,5
35620,80467,5
35618,80465,5
35614,80478,3
35616,80479,5
35626,80467,5
35628,80465,5
35615,80473,4
35615,80460,5
35618,80452,5
35612,80456,5
35614,80450,4
35611,80446,4
35617,80451,5
35612,80474,5
35627,80472,5
35624,80476,4
35617,80468,5
35619,80452,5
35606,80455,5
35615,80449,5
35607,80443,4
35616,80449,5
35609,80454,5
35603,80435,5
35603,80446,5
35607,80433,4
35612,80437,6
35608,80440,4
35610,80441,5
35603,80445,5
35607,80441,4
35607,80446,5
35614,80459,5
35612,80459,5
35622,80470,4
35620,80473,4
35625,80488,5
35639,80508,5
35637,80526,5
35661,80537,4
35659,80552,5
35666,80563,5
35665,80583,5
35675,80597,5
35681,80600,4
35690,80617,5
35682,80620,5
35682,80623,5
35681,80620,5
35678,80610,4
35678,80620,5
35687,80615,6
35685,80606,4
35676,80612,5
35675,80605,4
35678,80598,5
35674,80589,5
35667,80586,5
35673,80587,5
35661,80567,4
35666,80567,5
35660,80558,5
35658,80545,5
35654,80532,4
35646,80532,5
35640,80528,5
35639,80530,5
35637,80518,5
35644,80516,4
35635,80503,5
35637,80498,5
35634,80512,5
35628,80506,5
35629,80497,4
35628,80478,5
35625,80480,5
35625,80461,5
35614,80454,5
35610,80455,4
35609,80439,5
35607,80436,5
35604,80418,5
35599,80420,5
35590,80403,4
35582,80392,5
35586,80385,5
35575,80373,5
35579,80355,4
35546,80339,4
35566,80309,5
35525,80253,5
35506,80194,5
35447,80121,4
35449,80037,5
35415,79982,5
35385,79920,5
35336,79864,5
35330,79826,5
35330,79792,4
35323,79792,5
35344,79801,5
35326,79810,5
35340,79846,4
35362,79875,5
35406,79929,5
35397,79975,5
35416,80005,5
35422,80032,4
35459,80064,5
35439,80078,5
35440,80069,5
35438,80055,4
35441,80043,4
35428,80018,5
35412,79992,5
35376,79906,5
35320,79754,4
35262,79640,5
35237,79586,6
35230,79568,4
35218,79538,5
35204,79529,4
35208,79541,5
35199,79550,5
35209,79520,5
35213,79558,5
35214,79558,5
35220,79582,4
35224,79583,5
35233,79608,5
35242,79626,5
35249,79656,4
35252,79693,5
35269,79679,5
35272,79704,5
35264,79688,4
35270,79726,6
35275,79693,3
35276,79696,5
35269,79688,5
35271,79697,4
35262,79678,5
35268,79665,5
35263,79669,6
35266,79667,4
35253,79665,4
35251,79656,5
35260,79665,5
35259,79676,5
35263,79698,5
35289,79722,4
35289,79753,5
35299,79753,5
35299,79747,5
35294,79755,5
35297,79755,4
35306,79764,5
35314,79779,5
35317,79789,5
35312,79800,5
35324,79808,4
35329,79822,5
35329,79821,5
35337,79841,5
35343,79853,5
35360,79869,4
35359,79899,5
35380,79929,5
35391,79970,6
35409,80003,3
35428,80046,5
35444,80084,5
35465,80136,5
35482,80183,5
35501,80236,4
35536,80281,5
35553,80324,5
35571,80362,5
35591,80411,5
35608,80442,4
35620,80478,5
35635,80508,5
35639,80525,5
35646,80538,5
35656,80546,4
35666,80560,5
35665,80569,5
35675,80583,5
35662,80585,4
35665,80578,5
35667,80587,4
35671,80587,5
35667,80585,5
35674,80589,6
35676,80595,3
35672,80581,5
35674,80586,5
35663,80589,5
35666,80589,4
35666,80586,5
35672,80579,5
35673,80580,5
35667,80569,5
35662,80556,4
35654,80527,5
35634,80494,5
35616,80454,5
35603,80424,5
35590,80383,4
35578,80364,5
35563,80343,5
35574,80341,5
35568,80338,4
35567,80346,4
35581,80368,6
35594,80387,4
35601,80435,5
35611,80464,4
35637,80507,5
35652,80554,5
35669,80586,5
35687,80610,5
35694,80622,4
35700,80622,5
35695,80631,5
35694,80629,5
35688,80621,5
35685,80605,4
35683,80584,5
35639,80534,5
35620,80428,5
35581,80350,5
35573,80349,4
35543,80362,5
35573,80362,5
35573,80362,5
35585,80388,5
35575,80409,4
35605,80442,5
35619,80471,6
35639,80494,4
35656,80534,4
35664,80580,5
35683,80621,5
35702,80660,5
35748,80705,5
35738,80759,4
35762,80791,5
35776,80828,5
35819,80844,5
35791,80857,5
35796,80866,4
35796,80865,5
35803,80858,5
35794,80853,5
35800,80855,5
35793,80859,4
35792,80849,5
35793,80856,5
35793,80857,5
35798,80863,5
35798,80854,4
35813,80901,5
35831,80925,5
35831,80921,6
35812,80884,3
35820,80899,4
35813,80888,5
35808,80896,5
35811,80865,5
35809,80889,4
35817,80896,6
35800,80880,4
35801,80892,5
35814,80875,5
35811,80885,4
35804,80878,5
35805,80918,5
35819,80895,5
35817,80916,5
35824,80933,4
35835,80985,5
35859,81007,5
35878,81058,5
35916,81122,5
35929,81191,5
35968,81249,4
36006,81316,5
36020,81383,5
36053,81433,4
36076,81486,4
36096,81528,5
36112,81579,5
36133,81629,5
36150,81649,4
36161,81686,5
36178,81708,5
36192,81737,5
36195,81752,5
36206,81771,4
36212,81784,5
36222,81797,5
36216,81801,5
36217,81785,5
36207,81769,4
36191,81729,5
36173,81695,5
36149,81636,5
36136,81586,5
36107,81534,4
36089,81498,6
36078,81470,4
36071,81452,5
36076,81469,5
36075,81489,4
36089,81505,5
36104,81548,5
36125,81591,5
36141,81649,4
36173,81706,5
36205,81772,5
36230,81821,5
36250,81860,5
36258,81889,4
36271,81919,5
36275,81913,5
36273,81919,5
36266,81895,5
36255,81867,4
36233,81807,5
36185,81681,5
36111,81536,5
36084,81474,5
36086,81488,4
36074,81478,5
36081,81492,6
36089,81510,4
36095,81541,5
36123,81594,4
36141,81628,5
36161,81686,5
36179,81743,5
36208,81796,4
36235,81852,4
36269,81920,5
36295,81975,5
36314,82032,5
36341,82079,4
36362,82132,5
36371,82159,5
36388,82189,5
36405,82215,5
36418,82235,4
36424,82258,5
36430,82262,5
36432,82280,5
36435,82289,5
36436,82296,4
36440,82296,5
36445,82298,5
36443,82297,5
36448,82313,5
36454,82333,4
36467,82365,5
36475,82368,5
36467,82355,5
36457,82335,4
36459,82334,4
36463,82332,5
36459,82337,5
36457,82326,5
36460,82322,4
36453,82335,5
36452,82320,5
36423,82316,5
36446,82298,5
36437,82273,4
36425,82270,5
36397,82275,5
36437,82280,5
36441,82299,5
36451,82321,5
36466,82349,4
36479,82387,5
36498,82443,5
36533,82498,5
36576,82568,4
36586,82634,5
36616,82715,5
36651,82773,5
36712,82847,5
36714,82920,4
36741,82979,5
36770,83031,5
36808,83075,5
36812,83114,4
36820,83127,5
36827,83143,5
36831,83165,5
36827,83157,5
36826,83138,4
36818,83113,5
36789,83069,5
36771,83013,5
36746,82945,5
36702,82849,4
36660,82753,6
36647,82733,4
36615,82695,5
36619,82684,5
36611,82658,4
36617,82693,5
36632,82721,5
36661,82770,5
36676,82833,5
36700,82896,4
36741,82977,5
36774,83032,5
36799,83130,5
36830,83172,4
36869,83252,4
36894,83311,5
36913,83368,5
36910,83328,5
36900,83286,4
36852,83161,5
36779,83039,5
36740,82957,5
36730,82917,5
36709,82871,4
36690,82850,5
36685,82844,6
36691,82849,4
36690,82848,5
36692,82847,4
36697,82867,5
36707,82891,5
36713,82927,5
36738,82961,5
36746,82993,4
36778,83040,5
36795,83089,5
36813,83139,5
36837,83187,4
36854,83232,4
36877,83266,5
36894,83312,5
36915,83340,5
36932,83375,4
36931,83404,5
36949,83429,5
36966,83454,5
36973,83472,5
36984,83499,4
36988,83497,5
36981,83512,5
36997,83508,5
36997,83539,5
37015,83575,4
37030,83591,5
37019,83569,5
37018,83564,5
37013,83570,5
37013,83559,4
37008,83536,5
37004,83523,5
36992,83518,5
36991,83501,5
36986,83487,4
36974,83472,5
36967,83441,5
36952,83410,5
36934,83376,4
36917,83338,6
36908,83322,4
36893,83311,5
36908,83328,5
36910,83331,6
36915,83342,3
36915,83356,5
36920,83375,5
36934,83397,5
36949,83422,4
36951,83456,5
36975,83486,5
36981,83515,5
36996,83544,5
37008,83569,4
37023,83595,5
37036,83607,5
37036,83633,5
37040,83637,5
37055,83653,4
37053,83658,5
37058,83660,5
37067,83665,5
37054,83653,4
37053,83650,4
37048,83633,6
37035,83609,4
37021,83562,5
36990,83508,4
36943,83390,7
36896,83274,3
36838,83136,5
36769,83009,5
36717,82873,4
36671,82794,5
36634,82713,5
36615,82681,5
36604,82656,5
36615,82666,4
36610,82682,5
36619,82712,5
36634,82741,5
36632,82771,5
36667,82817,4
36683,82858,5
36696,82886,5
36690,82928,5
36730,82975,4
36750,82998,4
36761,83002,5
36731,82962,6
36688,82829,4
36598,82636,4
36538,82517,5
36525,82429,5
36460,82342,5
36418,82259,5
36387,82196,4
36392,82128,5
36340,82080,5
36311,82023,5
36290,81964,5
36296,81930,4
36258,81904,5
36251,81888,5
36241,81883,5
36249,81879,5
36252,81885,4
36246,81896,5
36258,81895,5
36258,81893,5
36261,81916,5
36263,81917,4
36255,81926,5
36269,81909,5
36265,81933,6
36270,81938,4
36267,81935,4
36271,81913,5
36273,81934,5
36271,81932,9
36260,81934,5
36266,81919,5
36264,81905,5
36266,81920,5
36264,81925,4
36270,81961,5
36264,81920,5
36258,81900,5
36261,81899,5
36256,81924,4
36244,81867,5
36239,81860,5
36232,81848,5
36229,81844,5
36215,81799,5
36206,81792,4
36196,81761,5
36185,81731,5
36168,81690,6
36148,81665,3
36136,81638,5
36137,81629,5
36132,81619,5
36129,81609,4
36128,81612,5
36116,81619,5
36122,81620,5
36141,81623,5
36140,81638,4
36147,81653,5
36143,81659,5
36150,81679,5
36163,81689,5
36166,81703,4
36175,81717,5
36179,81731,5
36180,81735,5
36185,81753,5
36185,81746,4
36184,81746,6
36185,81761,4
36198,81758,5
36196,81764,4
36195,81763,4
36184,81762,5
36191,81778,5
36196,81771,5
36188,81762,4
36191,81745,5
36191,81749,5
36185,81744,5
36185,81739,5
36174,81725,4
36181,81714,5
36166,81699,5
36169,81702,5
36157,81692,5
36163,81663,4
36143,81644,5
36121,81604,5
36107,81521,5
36060,81421,5
36001,81293,4
35940,81164,5
35882,81036,6
35842,80943,4
35807,80881,5
35796,80846,4
35784,80833,5
35792,80834,5
35803,80875,5
35821,80916,4
35833,80961,5
35857,81011,5
35879,81059,5
35916,81132,5
35933,81199,4
35977,81286,5
35995,81342,5
36030,81395,5
36045,81425,5
36063,81473,4
36088,81522,5
36103,81557,5
36091,81536,5
36075,81468,5
36007,81297,4
35914,81112,5
35875,81009,5
35853,80969,6
35821,80908,4
35802,80865,4
35785,80855,5
35786,80822,5
35772,80814,5
35768,80807,4
35767,80806,4
35770,80806,5
35774,80819,5
35792,80835,5
35785,80844,4
35788,80859,5
35788,80881,5
35812,80903,5
35817,80908,5
35823,80930,4
35801,80937,5
35831,80942,5
35837,80937,5
35834,80943,5
35797,80945,5
35828,80939,4
35831,80942,5
35838,80935,5
35828,80936,5
35825,80929,4
35828,80930,5
35821,80926,5
35848,80912,5
35815,80912,5
35820,80911,4
35817,80917,5
35854,80914,5
35810,80894,5
35806,80871,4
35800,80879,5
35808,80862,5
35789,80857,5
35794,80852,5
35785,80854,4
35799,80848,5
35784,80843,5
35785,80842,5
35774,80829,5
35779,80817,4
35777,80829,6
35769,80827,4
35770,80817,5
35780,80795,5
35782,80827,4
35775,80830,4
35776,80842,5
35790,80818,5
35792,80861,5
35790,80862,4
35797,80888,5
35807,80908,5
35819,80917,5
35819,80928,4
35831,80955,4
35837,80990,5
35848,80988,5
35844,80997,5
35851,81004,4
35866,81038,5
35859,81009,5
35865,81020,5
35863,81016,5
35865,81027,4
35865,81006,5
35858,81014,6
35864,81013,4
35866,80997,5
35858,81007,4
35852,80995,5
35856,80997,5
35857,80993,5
35851,80982,5
35850,80980,4
35849,80966,5
35842,80961,5
35834,80959,5
35840,80944,4
35832,80953,4
35824,80936,5
35840,80937,5
35825,80935,5
35822,80933,4
35826,80931,5
35831,80929,5
35820,80920,5
35825,80930,5
35825,80925,4
35821,80926,5
35827,80930,5
35817,80914,5
35815,80924,5
35821,80914,4
35825,80915,5
35818,80907,5
35819,80910,5
35815,80917,5
35814,80907,4
35812,80906,5
35812,80901,5
35815,80909,5
35820,80902,5
35822,80908,4
35813,80895,5
35819,80897,5
35815,80896,5
35812,80889,4
35809,80886,5
35809,80883,5
35803,80880,5
35802,80875,5
35804,80858,5
35796,80867,4
35800,80845,5
35792,80853,5
35786,80837,5
35772,80817,4
35760,80777,5
35741,80706,5
35699,80635,5
35657,80521,5
35610,80407,4
35561,80307,5
35527,80233,5
35508,80195,5
35496,80165,5
35485,80167,4
35488,80168,5
35489,80181,5
35505,80205,5
35526,80256,4
35535,80304,4
35563,80353,5
35594,80407,5
35608,80462,5
35643,80532,4
35682,80591,6
35688,80636,4
35689,80649,5
35696,80661,5
35701,80650,4
35686,80617,5
35658,80536,5
35589,80366,5
35519,80222,5
35492,80175,4
35491,80166,5
35468,80137,5
35456,80111,5
35460,80100,5
35458,80107,4
35460,80109,5
35441,80110,5
35458,80118,5
35461,80131,4
35470,80135,4
35450,80159,5
35482,80166,5
35503,80195,5
35503,80219,4
35491,80232,5
35511,80245,6
35519,80253,4
35523,80250,5
35537,80264,4
35526,80259,5
35526,80260,5
35530,80258,5
35551,80267,5
35523,80255,4
35524,80256,5
35520,80250,5
35542,80228,5
35505,80221,5
35508,80215,4
35504,80204,5
35513,80206,5
35502,80226,5
35517,80236,4
35520,80241,4
35519,80231,5
35513,80224,5
35499,80208,6
35505,80209,3
35508,80190,5
35501,80218,5
35505,80211,5
35503,80211,5
35501,80180,4
35507,80212,5
35503,80208,5
35499,80206,5
35508,80213,5
35507,80215,4
35512,80226,5
35507,80240,5
35510,80247,5
35521,80241,5
35518,80243,4
35525,80250,5
35531,80286,5
35521,80271,5
35533,80282,5
35535,80294,5
35550,80319,4
35542,80311,5
35547,80324,5
35555,80335,6
35562,80350,3
35566,80342,5
35565,80350,5
35573,80353,5
35571,80346,4
35566,80354,5
35563,80349,5
35562,80347,5
35563,80336,5
35551,80330,4
35562,80327,5
35552,80319,5
35556,80316,5
35539,80305,5
35550,80300,4
35544,80293,5
35541,80293,5
35541,80284,5
35533,80276,5
35528,80271,4
35530,80266,6
35525,80256,4
35526,80248,5
35519,80248,4
35515,80238,6
35510,80243,3
35507,80229,5
35508,80237,5
35506,80223,4
35508,80215,5
35495,80214,5
35500,80189,5
35493,80187,5
35493,80167,4
35481,80161,5
35478,80162,5
35472,80140,5
35475,80118,5
35457,80094,4
35442,80062,5
35416,80014,5
35389,79947,5
35370,79889,5
35338,79822,4
35314,79762,5
35288,79700,6
35265,79661,4
35254,79641,4
35249,79627,4
35241,79628,5
35253,79639,5
35251,79669,5
35272,79687,4
35292,79722,5
35303,79773,5
35317,79803,5
35333,79822,5
35332,79839,4
35331,79845,5
35338,79846,5
35336,79844,5
35335,79835,5
35335,79826,4
35321,79801,5
35298,79728,5
35246,79600,5
35192,79495,5
35173,79467,4
35173,79470,5
35159,79448,5
35160,79438,6
35159,79440,4
35161,79443,4
35160,79467,5
35171,79464,5
35171,79468,5
35180,79492,4
35185,79507,5
35199,79535,5
35213,79575,5
35223,79600,5
35242,79627,4
35251,79655,5
35260,79677,5
35270,79683,5
35255,79703,5
35265,79701,4
35274,79700,5
35279,79715,5
35258,79722,5
35288,79732,5
35291,79736,5
35287,79748,4
35269,79755,5
35294,79758,5
35300,79772,6
35306,79787,3
35327,79805,5
35324,79841,5
35349,79879,5
35360,79892,4
35380,79878,4
35348,79873,5
35348,79876,5
35355,79887,5
35391,79883,4
35364,79896,5
35368,79900,5
35371,79902,5
35382,79918,5
35367,79926,4
35378,79947,5
35385,79953,5
35400,79965,7
35399,79998,3
35419,80034,4
35438,80062,6
35455,80082,4
35471,80142,5
35482,80180,5
35497,80216,4
35526,80242,5
35550,80321,5
35572,80373,5
35586,80418,4
35611,80438,4
35635,80501,5
35648,80537,5
35650,80564,5
35672,80587,4
35674,80619,5
35694,80632,5
35698,80639,5
35695,80694,5
35709,80678,4
35716,80681,5
35726,80697,5
35718,80730,5
35729,80716,5
35732,80722,4
35733,80720,5
35732,80739,6
35733,80731,4
35725,80727,5
35731,80716,4
35723,80727,5
35742,80715,5
35734,80721,5
35731,80724,5
35739,80720,4
35733,80727,5
35732,80728,5
35729,80726,5
35733,80732,4
35735,80732,5
35747,80725,5
35734,80731,5
35737,80721,5
35730,80730,4
35726,80710,5
35725,80705,5
35716,80666,5
35706,80634,5
35672,80599,4
35669,80559,5
35655,80515,5
35633,80488,6
35623,80470,4
35617,80462,4
35621,80457,5
35621,80466,5
35623,80486,5
35637,80505,5
35652,80541,4
35668,80568,5
35688,80626,5
35706,80686,5
35734,80738,4
35769,80791,4
35771,80823,5
35792,80838,5
35792,80863,5
35800,80864,4
35797,80861,5
35804,80848,5
35790,80825,5
35767,80775,5
35712,80648,5
35665,80536,4
35641,80501,5
35640,80502,5
35637,80512,5
35633,80507,4
35647,80521,5
35647,80542,5
35657,80564,5
35679,80590,5
35686,80621,4
35696,80667,5
35722,80704,5
35745,80754,5
35765,80811,4
35783,80855,4
35812,80901,5
35827,80936,5
35837,80983,5
35862,80992,4
35858,81007,5
35861,81008,5
35868,81003,5
35870,81014,5
35864,81007,4
35860,81002,6
35867,81012,4
35866,81003,5
35862,80999,5
35861,80992,4
35860,80989,5
35854,80992,5
35855,81008,5
35868,81021,5
35876,81025,4
35873,81018,5
35865,81017,5
35867,80991,5
35853,80985,5
35851,80974,4
35847,80982,5
35844,80972,5
35846,80967,5
35824,80970,4
35847,80955,5
35841,80951,5
35841,80956,5
35814,80961,5
35839,80956,4
35861,80985,5
35854,80998,6
35861,81022,4
35884,81055,5
35888,81092,4
35922,81148,5
35959,81205,5
35969,81263,5
36010,81328,5
36029,81392,4
36093,81452,5
36091,81514,5
36114,81569,5
36135,81615,5
36178,81660,4
36171,81700,5
36181,81724,5
36189,81745,5
36209,81777,4
36210,81780,4
36214,81793,5
36210,81794,5
36217,81787,5
36218,81793,4
36218,81800,5
36215,81796,5
36213,81764,5
36218,81785,5
36209,81772,4
36193,81757,5
36196,81708,5
36176,81690,5
36157,81640,5
36121,81588,4
36102,81532,5
36083,81479,5
36063,81444,5
36047,81422,5
36054,81438,4
36052,81423,5
36059,81438,5
36069,81468,5
36086,81555,4
36113,81582,4
36141,81633,5
36176,81705,5
36199,81791,5
36229,81820,6
36244,81861,3
36253,81891,5
36265,81911,5
36264,81893,5
36264,81892,4
36248,81863,5
36230,81823,5
36203,81741,5
36142,81598,5
36078,81458,4
36048,81398,5
36043,81404,5
36045,81393,5
36047,81407,5
36053,81432,4
36069,81461,5
36084,81489,5
36102,81528,5
36118,81574,5
36134,81619,4
36162,81679,5
36185,81735,5
36215,81798,5
36242,81849,4
36253,81907,6
36286,81961,4
36304,82020,5
36326,82043,5
36346,82081,4
36353,82102,5
36360,82118,5
36352,82119,5
36366,82126,5
36360,82119,4
36357,82120,5
36368,82114,5
36370,82114,5
36362,82113,5
36360,82115,4
36367,82122,5
36372,82131,5
36381,82164,5
36386,82170,5
36373,82157,4
36371,82145,5
36364,82130,5
36375,82122,4
36357,82114,4
36360,82114,4
36357,82117,5
36353,82118,5
36353,82100,5
36354,82086,4
36346,82069,5
36336,82053,5
36326,82043,5
36332,82037,5
36323,82033,4
36323,82049,5
36342,82067,5
36346,82093,5
36364,82124,5
36373,82177,4
36403,82221,5
36419,82272,5
36442,82330,5
36483,82395,5
36516,82468,4
36540,82524,5
36567,82604,5
36597,82655,6
36623,82715,4
36643,82759,4
36658,82794,5
36669,82823,5
36684,82848,5
36690,82860,4
36696,82880,5
36701,82883,5
36701,82885,5
36699,82885,5
36700,82867,4
36690,82851,5
36676,82809,5
36653,82748,5
36613,82662,5
36565,82565,4
36506,82473,5
36492,82382,5
36461,82333,5
36446,82292,5
36402,82287,5
36434,82280,4
36439,82301,5
36448,82336,5
36456,82397,6
36500,82452,3
36534,82527,5
36577,82616,5
36624,82699,5
36648,82777,4
36681,82867,4
36722,82947,5
36785,83013,5
36780,83063,5
36792,83081,4
36785,83075,5
36803,83035,5
36733,82898,5
36646,82712,5
36578,82593,4
36572,82543,5
36531,82486,5
36510,82450,5
36493,82421,5
36494,82413,4
36496,82441,6
36496,82440,4
36506,82463,5
36524,82463,5
36530,82517,4
36544,82547,5
36572,82602,5
36595,82613,5
36608,82690,5
36641,82741,4
36658,82802,5
36681,82815,5
36698,82876,5
36713,82918,4
36723,82948,5
36740,82991,5
36748,83000,5
36763,83020,5
36768,83037,4
36783,83078,5
36769,83057,5
36791,83055,5
36775,83059,5
36773,83081,4
36777,83054,5
36785,83063,6
36792,83089,4
36789,83081,5
36779,83060,4
36768,83037,5
36777,83027,5
36766,83007,5
36750,82993,5
36746,82974,4
36739,82948,5
36728,82945,5
36720,82925,5
36710,82891,4
36699,82860,4
36672,82814,5
36650,82772,5
36636,82735,5
36622,82713,4
36625,82712,5
36622,82714,5
36621,82710,5
36625,82729,5
36638,82736,4
36638,82748,5
36645,82763,5
36651,82781,6
36651,82792,4
36663,82818,4
36675,82841,5
36695,82858,5
36694,82889,5
36702,82904,5
36713,82919,4
36714,82927,5
36716,82925,5
36721,82925,5
36715,82927,5
36719,82915,4
36711,82911,5
36692,82887,5
36683,82827,5
36642,82762,4
36606,82654,5
36556,82557,5
36509,82445,5
36472,82360,5
36428,82274,5
36411,82216,4
36388,82185,5
36378,82164,5
36375,82165,6
36383,82182,3
36400,82207,5
36391,82230,5
36414,82252,5
36421,82295,5
36443,82337,4
36470,82369,5
36469,82412,5
36500,82445,5
36509,82480,5
36520,82498,4
36530,82497,5
36508,82454,5
36455,82309,5
36369,82134,4
36315,82019,4
36283,81949,5
36246,81861,5
36204,81785,5
36184,81733,4
36163,81685,6
36140,81649,4
36130,81619,5
36113,81594,5
36113,81577,4
36113,81584,5
36113,81593,5
36118,81598,5
36126,81617,5
36124,81630,4
36130,81643,5
36148,81664,5
36153,81672,5
36162,81685,5
36160,81705,4
36163,81707,5
36157,81709,5
36166,81719,5
36174,81724,5
36175,81724,4
36160,81727,5
36186,81734,5
36181,81741,5
36185,81735,4
36146,81744,5
36185,81754,6
36190,81757,4
36197,81782,5
36194,81785,4
36196,81771,5
36182,81761,5
36186,81750,5
36210,81736,5
36172,81729,4
36153,81649,10
36153,81649,5
36143,81626,5
36143,81603,4
36116,81578,5
36104,81547,5
36099,81537,5
36095,81523,5
36086,81529,4
36089,81525,5
36084,81525,5
36086,81525,5
36088,81543,4
36098,81557,4
36103,81573,5
36107,81565,6
36120,81613,4
36129,81623,4
36137,81645,5
36152,81638,5
36152,81688,5
36158,81706,5
36173,81714,5
36166,81717,4
36167,81731,5
36175,81734,5
36176,81731,5
36174,81755,4
36172,81722,5
36179,81732,5
36181,81724,5
36171,81755,5
36175,81718,4
36166,81714,5
36159,81703,5
36161,81702,5
36153,81679,5
36147,81666,4
36147,81639,5
36140,81646,5
36130,81628,5
36130,81622,4
36127,81602,5
36113,81592,5
36113,81585,5
36109,81572,5
36109,81554,4
36095,81553,5
36094,81552,5
36089,81541,5
36095,81538,5
36088,81527,4
36087,81526,5
36084,81521,5
36081,81517,5
36076,81505,5
36084,81508,4
36073,81499,5
36074,81494,5
36071,81494,5
36075,81482,5
36069,81486,5
36068,81478,4
36056,81462,5
36066,81460,5
36056,81459,4
36057,81448,4
36045,81440,5
36051,81428,5
36044,81417,5
36038,81404,4
36031,81390,5
36024,81380,5
36027,81372,5
36012,81351,5
36017,81342,4
36001,81334,5
35999,81316,5
35992,81311,5
35990,81292,5
35986,81280,4
35973,81269,5
35979,81260,5
35971,81251,5
35969,81240,5
35957,81223,4
35948,81208,6
35946,81189,4
35923,81153,5
35905,81093,5
35876,81008,4
35820,80879,5
35764,80748,5
35691,80602,5
35634,80462,4
35568,80349,5
35546,80284,5
35523,80244,5
35508,80227,5
35514,80217,4
35524,80244,5
35533,80277,5
35555,80337,5
35579,80384,5
35613,80452,4
35640,80536,5
35677,80604,5
35710,80684,5
35747,80765,5
35782,80833,4
35798,80871,5
35811,80895,5
35815,80894,5
35801,80857,5
35767,80765,4
35683,80585,5
35640,80501,5
35623,80456,5
35601,80441,4
35599,80400,4
35587,80384,5
35581,80373,5
35575,80378,5
35575,80378,4
35570,80372,5
35590,80392,5
35581,80396,5
35593,80416,5
35578,80445,4
35621,80457,5
35624,80484,5
35635,80509,5
35619,80524,5
35646,80549,4
35654,80555,5
35654,80560,5
35655,80561,5
35653,80564,5
35660,80561,4
35657,80560,5
35691,80563,5
35653,80553,5
35652,80552,5
35652,80545,4
35670,80532,5
35639,80515,5
35637,80513,5
35637,80505,4
35654,80498,5
35625,80507,5
35633,80508,5
35637,80524,5
35647,80516,4
35636,80507,5
35634,80507,4
35636,80501,5
35636,80487,5
35630,80494,6
35647,80511,3
35636,80507,5
35642,80487,5
35634,80513,5
35630,80500,4
35632,80499,5
35624,80459,5
35624,80488,5
35626,80489,5
35627,80489,5
35619,80504,4
35625,80490,5
35632,80490,5
35623,80500,4
35627,80533,4
35637,80509,5
35641,80521,5
35650,80522,5
35655,80586,4
35654,80560,5
35664,80571,6
35670,80584,4
35676,80613,5
35682,80613,4
35689,80628,7
35692,80646,3
35692,80654,5
35697,80653,5
35700,80651,4
35702,80648,5
35695,80651,5
35701,80649,5
35701,80653,5
35695,80652,4
35693,80641,5
35690,80641,5
35698,80646,5
35691,80636,5
35687,80622,4
35682,80621,5
35684,80616,5
35684,80614,5
35682,80611,4
35689,80593,5
35673,80591,5
35667,80583,6
35669,80589,4
35668,80583,4
35674,80579,5
35668,80572,5
35670,80574,5
35666,80584,5
35658,80574,4
35668,80557,5
35658,80563,5
35660,80561,5
35650,80555,5
35657,80552,4
35654,80549,5
35647,80546,5
35651,80544,5
35652,80533,5
35639,80523,4
35640,80511,5
35638,80509,5
35634,80490,5
35638,80485,5
35628,80477,4
35616,80456,5
35603,80417,5
35584,80375,6
35567,80317,3
35530,80242,5
35504,80191,5
35476,80121,5
35453,80071,5
35419,80032,4
35420,79986,5
35405,79975,5
35405,79979,5
35406,79992,5
35417,80011,4
35431,80045,5
35454,80095,5
35464,80134,5
35492,80184,5
35513,80229,4
35520,80250,5
35539,80289,5
35560,80322,5
35561,80339,5
35556,80334,5
35560,80329,4
35556,80320,5
35549,80290,5
35515,80215,6
35459,80063,3
35400,79972,5
35387,79950,5
35388,79933,5
35377,79917,4
35380,79902,5
35375,79911,5
35369,79917,5
35384,79926,5
35383,79931,4
35390,79954,5
35399,79972,5
35405,79989,5
35419,80020,5
35434,80041,4
35421,80073,5
35460,80092,5
35456,80122,5
35461,80133,5
35433,80124,4
35461,80135,6
35466,80138,4
35459,80132,5
35441,80112,4
35463,80112,5
35456,80104,5
35450,80104,5
35473,80102,5
35455,80095,4
35445,80085,5
35450,80076,5
35475,80076,5
35441,80080,5
35440,80063,4
35450,80083,5
35475,80102,5
35450,80100,5
35447,80081,5
35446,80069,4
35450,80061,5
35429,80056,5
35433,80051,5
35435,80057,5
35429,80040,4
35437,80044,5
35430,80026,6
35417,80026,4
35417,79997,4
35418,80021,5
35417,80022,5
35417,80017,5
35419,79989,5
35426,80021,4
35424,80034,5
35425,80039,5
35436,80037,5
35423,80053,5
35434,80068,4
35451,80084,5
35448,80115,5
35465,80113,5
35464,80126,5
35470,80144,4
35484,80184,5
35486,80164,5
35483,80173,5
35490,80174,5
35485,80191,4
35488,80176,5
35491,80177,5
35494,80179,6
35491,80175,3
35490,80167,5
35479,80173,5
35484,80174,5
35486,80166,5
35489,80159,4
35483,80158,5
35485,80157,5
35485,80153,5
35472,80145,5
35468,80142,4
35471,80144,5
35464,80131,5
35462,80134,5
35461,80118,5
35468,80117,4
35450,80100,5
35442,80071,5
35421,80024,5
35410,79980,5
35378,79932,5
35366,79875,4
35342,79827,5
35325,79786,5
35307,79772,4
35303,79744,4
35305,79747,5
35293,79737,5
35305,79755,5
35308,79767,4
35313,79794,5
35332,79837,5
35345,79858,5
35359,79887,5
35375,79920,4
35386,79941,5
35392,79950,5
35395,79972,5
35392,79969,5
35399,79971,4
35402,79964,5
35403,79967,5
35401,79964,5
35373,79902,5
35337,79799,4
35295,79737,6
35289,79721,4
35290,79732,5
35291,79736,4
35297,79738,4
35295,79758,5
35302,79772,5
35307,79796,5
35337,79817,4
35340,79848,5
35346,79881,5
35374,79917,5
35381,79962,5
35407,80004,4
35412,80037,5
35444,80083,5
35466,80124,5
35472,80139,5
35481,80167,4
35480,80191,5
35484,80192,5
35490,80187,5
35493,80196,5
35489,80181,4
35486,80188,5
35486,80179,6
35489,80180,4
35486,80189,4
35483,80183,4
35491,80183,5
35494,80195,5
35492,80209,5
35505,80234,4
35525,80255,5
35521,80250,5
35521,80242,5
35504,80235,5
35512,80232,4
35506,80232,5
35513,80228,5
35499,80239,5
35510,80222,5
35515,80228,4
35505,80219,5
35468,80226,5
35507,80231,5
35506,80213,5
35507,80221,7
35504,80231,2
35540,80247,5
35532,80259,5
35532,80274,4
35563,80299,4
35561,80326,5
35568,80362,5
35586,80395,5
35631,80435,4
35619,80474,5
35638,80518,5
35648,80547,5
35690,80583,5
35677,80607,4
35699,80646,5
35703,80661,5
35715,80687,5
35719,80700,5
35733,80714,4
35730,80721,6
35739,80723,4
35741,80746,5
35751,80744,5
35743,80760,6
35753,80732,3
35758,80760,5
35753,80773,5
35759,80768,5
35749,80739,4
35759,80775,5
35753,80773,5
35761,80778,5
35766,80778,4
35754,80773,5
35755,80772,5
35764,80780,5
35753,80804,5
35763,80775,4
35757,80765,5
35762,80771,5
35755,80797,5
35755,80766,5
35754,80758,4
35752,80759,5
35742,80765,5
35749,80741,5
35742,80736,5
35733,80712,4
35720,80675,6
35697,80626,4
35676,80584,5
35655,80522,4
35633,80484,4
35621,80428,5
35594,80404,5
35591,80364,5
35577,80362,4
35580,80361,5
35583,80364,5
35594,80392,5
35605,80427,5
35625,80475,4
35648,80530,5
35671,80590,5
35703,80648,5
35733,80720,5
35759,80778,4
35772,80818,5
35791,80840,5
35794,80858,5
35788,80853,5
35791,80826,4
35782,80818,5
35762,80749,5
35714,80618,5
35649,80490,4
35627,80470,4
35628,80468,5
35635,80481,5
35629,80467,5
35632,80508,4
35641,80517,5
35653,80554,5
35673,80583,5
35690,80622,5
35698,80665,4
35733,80722,5
35755,80792,5
35785,80849,5
35808,80908,5
35831,80957,4
35850,80998,4
35872,81032,5
35891,81071,5
35893,81081,5
35903,81097,3
35905,81117,5
35913,81117,5
35913,81114,5
35906,81118,4
35919,81109,4
35912,81117,5
35908,81116,5
35913,81102,5
35910,81110,4
35911,81107,5
35908,81107,5
35908,81119,5
35917,81135,5
35936,81150,4
35926,81124,5
35921,81117,5
35905,81103,5
35913,81102,5
35906,81099,4
35894,81092,6
35904,81085,4
35908,81085,5
35907,81089,5
35906,81088,6
35902,81078,3
35902,81069,5
35899,81076,5
35897,81083,4
35904,81086,4
35898,81096,5
35915,81126,5
35924,81144,5
35936,81166,4
35949,81205,5
35967,81251,5
35994,81300,5
36014,81354,5
36018,81419,4
36064,81468,5
36091,81515,5
36119,81565,5
36099,81600,5
36152,81643,4
36157,81675,5
36173,81699,6
36176,81734,4
36199,81743,5
36206,81777,4
36211,81778,5
36247,81799,5
36226,81802,5
36230,81812,4
36218,81805,4
36252,81780,5
36203,81738,5
36169,81677,5
36133,81607,4
36133,81542,5
36090,81477,5
36057,81428,5
36052,81414,5
36049,81406,4
36050,81411,5
36055,81435,5
36074,81471,5
36091,81497,5
36123,81590,4
36150,81663,5
36189,81751,5
36221,81791,6
36253,81884,4
36274,81932,4
36298,81976,5
36313,81985,5
36320,82037,5
36327,82048,4
36328,82020,5
36312,82000,4
36290,81945,5
36243,81830,5
36183,81663,4
36129,81615,5
36130,81560,5
36114,81554,5
36111,81545,5
36107,81587,4
36108,81571,5
36136,81608,5
36143,81638,5
36158,81692,5
36183,81714,5
36205,81772,4
36233,81833,5
36261,81900,5
36286,81953,6
36316,82015,3
36338,82084,5
36369,82126,5
36382,82172,5
36403,82213,5
36408,82238,4
36419,82242,5
36426,82253,5
36429,82257,5
36428,82256,4
36432,82263,5
36424,82254,5
36429,82277,5
36429,82268,5
36428,82280,4
36440,82285,5
36448,82309,5
36455,82344,5
36477,82390,5
36493,82404,4
36482,82398,6
36487,82390,4
36477,82384,5
36486,82384,5
36477,82386,4
36485,82388,5
36473,82376,5
36474,82375,5
36473,82360,5
36465,82351,4
36455,82328,5
36450,82307,5
36448,82305,5
36439,82313,4
36447,82312,5
36451,82332,5
36466,82343,5
36477,82376,5
36488,82402,4
36505,82460,5
36534,82508,5
36559,82573,5
36579,82625,5
36607,82699,4
36641,82774,5
36670,82822,6
36703,82894,4
36727,82946,5
36746,82986,4
36764,83012,5
36768,83033,5
36773,83024,5
36764,83017,5
36750,82987,4
36734,82931,5
36699,82855,5
36660,82767,5
36618,82682,4
36585,82607,5
36560,82547,5
36540,82512,5
36537,82496,5
36531,82487,4
36534,82505,5
36538,82536,5
36566,82573,5
36583,82621,5
36605,82671,4
36622,82726,5
36646,82785,5
36676,82847,6
36711,82912,4
36741,82978,4
36759,83024,5
36770,83049,5
36774,83047,5
36765,83020,5
36728,82914,4
36660,82762,5
36611,82681,5
36599,82638,5
36581,82598,4
36563,82562,4
36519,82538,5
36540,82519,5
36534,82513,5
36536,82506,4
36513,82516,5
36538,82529,5
36550,82533,5
36554,82562,5
36563,82588,5
36577,82607,4
36579,82626,5
36601,82657,5
36628,82681,5
36609,82703,4
36628,82725,5
36635,82733,5
36668,82735,5
36641,82748,5
36649,82762,4
36637,82760,5
36662,82772,5
36652,82766,5
36659,82773,4
36643,82762,4
36649,82757,5
36636,82749,5
36642,82759,5
36651,82759,4
36648,82756,5
36642,82748,5
36635,82725,5
36625,82713,5
36613,82666,4
36601,82663,6
36583,82642,4
36585,82614,5
36566,82564,5
36554,82561,4
36545,82540,5
36532,82489,5
36503,82450,5
36485,82386,5
36462,82348,4
36441,82307,5
36434,82320,5
36426,82286,5
36428,82278,4
36422,82279,4
36429,82314,5
36422,82295,5
36434,82308,5
36439,82305,4
36441,82335,5
36442,82332,5
36453,82348,5
36471,82374,5
36470,82387,4
36473,82398,5
36474,82401,6
36486,82396,4
36482,82410,5
36472,82407,4
36483,82394,5
36479,82394,5
36482,82390,5
36472,82374,5
36466,82368,4
36468,82369,5
36460,82336,5
36441,82323,5
36431,82308,5
36424,82280,4
36424,82268,5
36417,82253,5
36406,82224,5
36390,82201,4
36377,82167,4
36361,82123,5
36336,82065,5
36301,81984,5
36251,81854,4
36184,81713,5
36115,81556,5
36060,81423,6
36009,81327,4
35978,81252,4
35950,81198,5
35941,81161,5
35928,81167,5
35931,81175,5
35946,81205,4
35964,81235,5
35985,81280,5
35998,81329,5
36016,81385,5
36049,81457,4
36084,81525,5
36112,81604,5
36141,81657,5
36165,81700,4
36195,81774,4
36215,81815,5
36235,81832,5
36226,81815,5
36184,81713,5
36098,81524,4
36039,81389,5
36012,81329,5
35984,81271,5
35958,81211,4
35927,81175,5
35928,81151,5
35912,81119,5
35893,81104,5
35888,81084,4
35887,81084,5
35882,81083,5
35898,81087,5
35897,81103,5
35903,81119,4
35912,81126,5
35916,81136,5
35911,81154,5
35921,81152,5
35916,81151,4
35927,81158,5
35923,81156,5
35925,81155,5
35922,81164,4
35919,81140,6
35921,81144,4
35916,81142,5
35925,81148,5
35920,81147,4
35923,81155,5
35918,81143,5
35914,81150,5
35920,81156,5
35921,81150,4
35917,81160,5
35937,81171,5
35917,81154,5
35928,81148,5
35922,81154,5
35915,81137,4
35892,81137,5
35917,81134,5
35919,81120,5
35917,81130,4
35895,81130,5
35919,81106,5
35909,81109,5
35906,81110,4
35921,81104,4
35899,81099,6
35901,81106,4
35897,81098,5
35924,81102,4
35896,81109,5
35902,81116,5
35906,81120,5
35933,81136,5
35913,81143,4
35920,81155,5
35933,81169,5
35945,81183,5
35941,81205,5
35952,81216,4
35964,81236,5
35975,81242,5
35972,81270,5
35980,81276,5
35985,81290,4
35984,81273,5
35989,81299,5
35994,81315,5
35988,81305,4
35991,81285,4
35986,81305,5
35997,81316,5
35994,81314,5
35994,81292,4
35990,81309,5
35988,81301,5
35981,81283,5
35981,81307,5
35979,81277,4
35979,81269,5
35968,81265,5
35971,81287,5
35962,81244,5
35958,81235,4
35953,81226,5
35953,81248,5
35957,81222,5
35950,81218,5
35953,81208,5
35946,81210,4
35953,81197,5
35943,81196,5
35935,81193,6
35942,81191,3
35943,81186,5
35937,81173,5
35927,81168,5
35933,81163,4
35919,81159,4
35928,81161,5
35922,81158,5
35920,81153,5
35921,81145,4
35921,81137,5
35922,81131,5
35912,81122,5
35913,81117,5
35907,81115,4
35903,81106,5
35895,81102,5
35895,81075,5
35877,81050,5
35852,80987,4
35817,80886,6
35769,80773,4
35711,80626,5
35647,80501,5
35588,80363,6
35547,80285,3
35518,80229,5
35499,80217,5
35512,80210,5
35507,80214,4
35512,80240,5
35532,80266,5
35549,80318,5
35575,80377,4
35601,80443,5
35626,80511,5
35672,80597,5
35710,80693,5
35749,80764,4
35757,80803,5
35777,80840,5
35787,80852,5
35796,80849,5
35782,80819,4
35740,80729,5
35663,80540,6
35586,80386,4
35561,80320,5
35539,80285,4
35519,80246,5
35519,80214,5
35506,80197,5
35499,80197,5
35498,80192,4
35500,80212,5
35499,80214,5
35504,80222,5
35505,80234,4
35519,80249,4
35536,80271,5
35531,80287,5
35550,80311,5
35547,80336,4
35556,80344,5
35561,80352,5
35569,80357,5
35560,80358,5
35567,80365,4
35567,80367,5
35571,80376,5
35570,80368,6
35570,80374,4
35571,80378,4
35568,80373,5
35568,80367,5
35561,80362,5
35569,80357,5
35562,80350,4
35565,80347,5
35564,80352,5
35564,80367,5
35564,80385,5
35576,80384,4
35572,80369,5
35572,80370,5
35549,80356,5
35566,80363,4
35572,80367,5
35571,80361,5
35545,80372,5
35570,80370,5
35565,80358,5
35574,80353,4
35560,80362,5
35571,80371,5
35571,80370,6
35577,80375,3
35599,80376,5
35578,80389,5
35586,80390,5
35576,80402,5
35623,80409,4
35596,80418,5
35593,80433,5
35608,80458,5
35638,80483,5
35630,80502,4
35634,80536,5
35653,80544,5
35660,80571,5
35668,80584,4
35675,80602,4
35677,80609,5
35682,80597,5
35674,80617,5
35690,80627,4
35680,80625,6
35677,80590,4
35685,80622,5
35684,80623,5
35682,80623,5
35686,80594,4
35687,80610,5
35686,80619,5
35683,80616,5
35669,80604,4
35674,80604,5
35668,80587,5
35669,80583,5
35668,80608,5
35666,80579,4
35661,80575,5
35667,80577,5
35664,80600,5
35659,80572,5
35660,80559,4
35650,80560,5
35663,80585,5
35671,80567,5
35651,80561,4
35657,80556,5
35656,80559,6
35659,80561,4
35653,80554,5
35644,80554,4
35654,80548,5
35646,80536,5
35652,80532,5
35640,80524,5
35637,80521,4
35643,80514,5
35641,80518,5
35632,80500,5
35630,80501,5
35633,80500,4
35624,80493,5
35629,80488,5
35632,80476,5
35619,80473,5
35616,80470,4
35608,80462,5
35613,80440,5
35608,80431,5
35594,80408,4
35581,80364,5
35545,80302,5
35526,80238,6
35493,80177,4
35463,80112,4
35445,80051,5
35412,80014,5
35398,79972,5
35396,79956,5
35385,79953,4
35390,79958,5
35413,79974,5
35412,80012,5
35428,80045,5
35447,80096,4
35469,80154,5
35491,80194,5
35516,80234,5
35534,80275,5
35540,80293,4
35544,80312,5
35547,80291,5
35540,80284,5
35527,80261,5
35523,80236,4
35491,80132,5
35422,79993,5
35371,79891,5
35356,79863,4
35354,79845,5
35341,79825,5
35337,79823,5
35333,79824,5
35341,79829,4
35339,79846,5
35337,79859,5
35345,79864,5
35360,79885,5
35359,79905,4
35373,79937,5
35383,79957,5
35390,79983,5
35406,80002,5
35406,80020,4
35420,80027,5
35423,80029,5
35418,80029,5
35415,80014,4
35408,80007,6
35410,80003,4
35402,79994,5
35397,79979,5
35396,79979,4
35388,79963,5
35386,79959,5
35383,79945,5
35373,79931,5
35366,79926,4
35363,79921,5
35369,79920,5
35374,79927,5
35390,79942,5
35361,79928,4
35373,79918,5
35360,79912,5
35358,79892,5
35323,79882,5
35345,79877,4
35351,79867,5
35341,79845,5
35329,79834,4
35335,79827,4
35323,79807,4
35321,79811,6
35341,79806,4
35332,79804,5
35327,79813,4
35325,79812,5
35358,79819,5
35330,79828,5
35338,79832,5
35338,79840,4
35351,79852,5
35350,79854,5
35349,79867,5
35350,79885,5
35369,79904,4
35372,79917,5
35377,79935,5
35381,79945,5
35380,79937,5
35387,79952,4
35380,79957,5
35386,79954,5
35381,79926,5
35376,79944,4
35377,79931,4
35381,79939,5
35380,79900,6
35375,79926,4
35367,79920,4
35365,79911,5
35355,79911,4
35365,79898,5
35355,79889,5
35350,79874,4
35344,79899,5
35344,79866,5
35347,79851,5
35334,79843,5
35330,79876,4
35325,79839,5
35328,79823,5
35332,79826,5
35318,79823,5
35326,79807,8
35313,79793,5
35309,79784,5
35309,79775,7
35295,79746,8
35261,79677,9
35144,79364,8
35144,79364,5
35112,79322,7
35106,79306,8
35089,79275,5
35084,79259,7
35043,79256,8
35087,79272,5
35101,79310,7
35169,79473,8
35169,79473,9
35185,79500,5
35188,79521,8
35347,79851,7
35192,79520,5
35198,79517,8
35198,79517,7
35170,79472,7
35141,79366,10
35124,79338,5
35115,79342,5
35164,79449,8
35164,79449,7
35213,79503,10
35196,79540,9
35296,79766,10
35296,79766,9
35305,79809,5
35328,79843,8
35343,79866,7
35365,79908,9
35365,79908,10
35378,79918,9
35379,79919,10
35379,79919,9
35379,79921,10
35379,79935,5
35382,79934,5
35399,79971,10
35399,79971,5
35397,79972,5
35398,79972,10
35389,79966,5
35393,79964,7
35391,79946,8
35391,79946,5
35402,79958,7
35418,79967,13
35404,79977,7
35441,80105,8
35441,80105,5
35472,80085,7
35378,79918,8
35509,80223,9
35576,80390,8
35576,80390,5
35602,80416,7
35588,80435,8
35597,80439,5
35605,80445,7
35610,80489,8
35643,80461,11
35643,80461,8
35617,80459,5
35619,80455,7
35614,80435,8
35628,80450,5
35613,80447,7
35613,80447,8
35629,80449,5
35616,80440,7
35602,80416,8
35604,80438,5
35603,80455,7
35519,80243,8
35519,80243,5
35509,80171,7
35468,80148,8
35470,80121,7
35466,80104,7
35473,80164,8
35473,80164,7
35481,80165,5
35506,80217,8
35518,80217,7
35538,80320,5
35575,80337,8
35574,80362,7
35568,80367,5
35577,80356,8
35577,80356,7
35613,80447,7
35554,80294,10
35512,80176,5
35453,80098,8
35453,80098,2
35442,80106,0
35442,80106,4
35473,80139,5
35482,80164,5
35493,80201,5
35508,80236,5
35523,80271,4
35541,80311,5
35569,80347,5
35576,80398,5
35604,80442,5
35619,80468,4
35637,80496,5
35632,80514,5
35649,80515,5
35639,80524,5
35644,80528,4
35645,80533,5
35643,80521,5
35645,80519,6
35653,80521,3
35648,80525,4
35642,80524,5
35641,80518,5
35632,80524,5
35636,80522,4
35648,80521,5
35645,80539,5
35664,80559,5
35660,80564,5
35667,80562,4
35660,80546,5
35650,80537,5
35657,80538,5
35655,80536,5
35650,80541,4
35655,80534,5
35648,80535,5
35649,80526,5
35647,80528,5
35636,80520,5
35636,80527,4
35653,80527,5
35645,80535,5
35654,80546,6
35657,80563,3
35668,80584,5
35680,80629,5
35700,80668,5
35724,80727,4
35759,80803,5
35795,80878,5
35828,80958,5
35867,81013,5
35883,81069,4
35903,81129,5
35929,81174,5
35949,81215,5
35958,81241,5
35978,81264,4
35989,81305,5
35998,81330,5
36013,81346,5
36021,81360,5
36019,81376,4
36042,81387,6
36038,81409,4
36035,81394,5
36025,81388,5
36014,81346,4
36012,81324,5
35987,81286,5
35978,81235,5
35937,81186,4
35923,81136,5
35907,81103,5
35898,81082,5
35869,81076,5
35899,81086,4
35907,81105,5
35912,81133,5
35905,81174,5
35961,81230,5
35980,81302,4
36020,81359,5
36057,81443,5
36079,81494,5
36098,81536,5
36112,81573,4
36149,81601,5
36128,81606,6
36127,81605,4
36122,81576,5
36142,81542,4
36084,81494,5
36046,81370,5
35977,81233,5
35953,81158,4
35930,81154,4
35933,81158,5
35927,81159,5
35932,81165,5
35944,81210,4
35960,81247,5
35988,81290,5
36005,81323,5
36028,81397,5
36059,81451,4
36094,81525,5
36111,81557,5
36147,81650,5
36164,81702,5
36204,81773,5
36224,81805,4
36246,81869,5
36263,81899,6
36276,81927,4
36278,81964,4
36284,81961,5
36295,81965,5
36289,81967,5
36293,82008,4
36303,81971,4
36298,81967,5
36292,81969,5
36290,81995,5
36289,81972,4
36308,81994,5
36317,82034,5
36321,82066,5
36329,82048,5
36325,82039,4
36324,82031,5
36320,82024,5
36312,82015,5
36305,82008,5
36312,81999,5
36313,82004,4
36304,81986,5
36310,81982,5
36295,81963,5
36276,81939,4
36276,81933,5
36281,81930,5
36278,81924,5
36275,81942,5
36285,81964,4
36301,81975,5
36304,81999,5
36323,82037,5
36346,82101,4
36361,82150,5
36401,82223,5
36429,82285,5
36459,82366,5
36485,82434,4
36521,82493,5
36549,82555,11
36570,82616,7
36604,82667,5
36610,82687,8
36600,82711,5
36631,82717,5
36628,82729,5
36625,82725,8
36616,82689,5
36607,82638,5
36447,82293,8
36447,82293,5
36419,82254,5
36418,82226,5
36405,82216,8
36406,82241,5
36419,82260,5
36427,82299,8
36463,82361,5
36477,82416,5
36506,82456,8
36532,82522,5
36558,82589,5
36694,82868,5
36694,82868,8
36697,82864,5
36693,82840,5
36643,82733,8
36583,82563,5
36510,82447,5
36490,82427,2
36467,82360,3
36441,82301,5
36440,82296,5
36445,82304,4
36434,82297,4
36445,82315,5
36447,82331,5
36451,82351,5
36472,82379,4
36488,82404,5
36498,82446,5
36522,82485,5
36529,82538,5
36555,82577,4
36577,82624,5
36595,82673,5
36617,82714,5
36636,82728,5
36649,82780,4
36657,82805,5
36678,82829,5
36685,82854,5
36689,82860,5
36693,82875,4
36697,82872,5
36703,82880,5
36702,82884,5
36710,82884,5
36703,82906,4
36707,82918,5
36727,82948,5
36730,82969,5
36733,82940,4
36722,82928,5
36729,82925,5
36719,82908,5
36718,82889,5
36697,82888,5
36702,82880,4
36694,82873,5
36685,82846,5
36670,82835,5
36667,82807,4
36650,82772,5
36641,82743,5
36619,82728,5
36622,82709,5
36617,82702,4
36615,82695,5
36617,82700,5
36629,82721,5
36627,82718,5
36633,82747,4
36644,82753,5
36651,82771,5
36660,82787,5
36665,82816,4
36674,82846,4
36684,82853,5
36703,82882,5
36712,82897,5
36709,82905,4
36712,82916,6
36719,82924,4
36715,82935,5
36718,82935,5
36724,82939,4
36721,82935,5
36724,82932,5
36715,82919,5
36713,82916,5
36713,82911,4
36711,82895,5
36704,82891,5
36688,82868,5
36682,82842,5
36667,82800,4
36639,82728,5
36596,82628,5
36531,82489,5
36468,82325,4
36385,82152,4
36316,82004,5
36266,81904,6
36241,81839,4
36227,81794,4
36208,81792,5
36208,81783,5
36202,81799,5
36227,81837,5
36242,81880,4
36269,81916,5
36284,81979,5
36307,82024,5
36327,82086,5
36368,82154,4
36380,82202,5
36391,82222,5
36410,82261,5
36421,82283,5
36434,82309,4
36423,82281,5
36393,82206,5
36316,82005,5
36222,81777,5
36160,81659,4
36116,81563,5
36076,81483,5
36044,81405,6
36022,81343,3
35986,81302,5
35977,81271,5
35964,81240,5
35941,81206,5
35940,81195,4
35936,81188,5
35935,81185,5
35935,81192,5
35926,81202,5
35944,81198,4
35945,81208,5
35948,81205,5
35943,81211,5
35939,81212,5
35938,81208,4
35948,81209,5
35940,81214,5
35948,81210,5
35943,81211,5
35940,81205,5
35938,81206,4
35940,81195,5
35943,81210,5
35940,81193,6
35930,81189,3
35933,81182,5
35932,81173,5
35929,81176,5
35925,81177,4
35935,81182,5
35932,81167,5
35916,81132,5
35907,81127,5
