RED,IR,EKG,TIME
32420,60649,183765
26797,50470,0
26797,50470,3
26796,50463,5
26794,50471,4
26793,50467,5
26834,50468,5
26795,50473,4
26792,50468,4
26800,50465,5
26857,50477,5
26793,50464,5
26794,50473,4
26795,50472,5
26820,50473,5
26793,50465,5
26795,50458,5
26789,50474,4
26809,50474,5
26789,50477,5
26799,50467,5
26800,50473,5
26796,50436,4
26802,50477,5
26800,50488,5
26798,50476,5
26795,50422,5
26798,50471,4
26795,50472,6
26801,50476,4
26795,50449,5
26789,50473,4
26790,50469,5
26794,50470,5
26782,50506,5
26793,50473,5
26791,50473,4
26790,50465,5
26795,50530,5
26789,50460,5
26790,50460,5
26784,50461,4
26783,50502,5
26781,50455,5
26785,50455,5
26776,50458,5
26776,50468,4
26773,50457,5
26787,50459,5
26786,50466,5
26778,50464,4
26782,50459,4
26777,50460,5
26780,50458,6
26783,50462,4
26780,50457,4
26786,50461,5
26781,50469,5
26784,50468,5
26781,50468,5
26790,50465,4
26781,50473,5
26782,50476,5
26783,50463,5
26785,50472,5
26782,50468,4
26783,50468,5
26782,50469,5
26780,50472,5
26781,50472,5
26798,50471,4
26780,50479,5
26788,50480,5
26797,50485,5
26800,50492,5
26802,50502,4
26803,50499,5
26801,50505,5
26807,50512,5
26813,50525,4
26808,50524,5
26823,50533,5
26818,50538,5
26822,50539,5
26820,50542,4
26821,50533,5
26818,50526,5
26818,50522,5
26813,50520,5
26815,50526,4
26815,50526,5
26810,50524,5
26811,50521,5
26813,50519,5
26813,50515,4
26816,50519,5
26810,50510,5
26815,50513,5
26802,50509,4
26813,50508,5
26805,50507,4
26813,50515,5
26809,50514,5
26813,50517,4
26808,50511,5
26807,50525,5
26812,50523,5
26820,50533,5
26821,50530,4
26823,50528,5
26822,50530,5
26821,50532,5
26824,50539,5
26822,50542,4
26821,50541,5
26829,50546,5
26824,50547,5
26823,50548,5
26828,50553,4
26831,50550,5
26824,50543,5
26821,50541,5
26832,50552,4
26825,50551,4
26824,50553,6
26830,50557,4
26821,50557,5
26804,50550,4
26831,50546,5
26832,50559,5
26830,50553,5
26774,50541,5
26819,50540,4
26826,50543,5
26835,50551,5
26781,50544,5
26828,50544,5
26821,50530,4
26824,50534,5
26843,50527,5
26821,50543,5
26828,50542,5
26830,50543,4
26882,50544,5
26814,50531,5
26824,50548,5
26829,50545,4
26869,50539,4
26828,50546,5
26827,50544,5
26819,50540,5
26843,50550,4
26829,50544,5
26830,50546,5
26819,50546,5
26824,50531,5
26823,50553,4
26829,50546,5
26832,50545,5
26824,50502,5
26830,50552,5
26831,50550,4
26820,50548,5
26829,50491,5
26820,50544,5
26827,50542,5
26825,50542,5
26826,50536,4
26826,50548,5
26815,50545,5
26829,50549,6
26825,50599,3
26824,50552,5
26818,50546,5
26831,50536,5
26825,50601,4
26822,50547,5
26818,50542,5
26828,50542,5
26826,50567,5
26825,50542,4
26827,50540,5
26826,50549,5
26830,50550,5
26826,50547,5
26824,50554,4
26829,50559,5
26843,50564,5
26828,50566,5
26837,50575,5
26845,50578,4
26848,50573,6
26846,50578,4
26848,50581,5
26846,50588,4
26846,50575,6
26855,50583,3
26845,50582,5
26848,50578,8
26849,50582,1
26841,50597,5
26847,50577,5
26840,50578,5
26848,50574,5
26845,50570,4
26838,50577,5
26835,50564,5
26847,50582,5
26837,50566,5
26843,50569,4
26842,50561,5
26835,50566,5
26844,50568,5
26835,50576,5
26843,50576,4
26839,50565,5
26839,50579,6
26836,50579,4
26848,50578,4
26841,50568,4
26842,50575,5
26840,50574,5
26847,50579,5
26846,50582,4
26844,50576,5
26836,50575,5
26838,50582,5
26843,50580,5
26852,50577,4
26849,50585,5
26853,50592,5
26853,50584,5
26855,50579,5
26840,50590,4
26845,50583,5
26843,50584,5
26844,50579,5
26847,50570,5
26844,50574,4
26841,50585,5
26837,50579,5
26846,50572,6
26839,50568,3
26830,50570,4
26832,50562,5
26840,50565,5
26835,50560,5
26849,50566,4
26834,50569,5
26829,50569,5
26843,50565,5
26840,50564,5
26842,50564,4
26842,50561,5
26837,50570,5
26848,50572,5
26836,50567,5
26833,50576,4
26846,50575,5
26843,50571,5
26833,50574,5
26840,50567,5
26837,50568,5
26835,50573,4
26801,50565,5
26836,50567,5
26839,50567,6
26840,50562,3
26791,50562,5
26834,50562,5
26847,50560,5
26829,50561,4
26804,50559,5
26834,50560,5
26833,50560,5
26827,50562,5
26861,50547,4
26828,50552,5
26821,50539,5
26827,50535,5
26876,50547,5
26818,50549,4
26830,50542,5
26825,50539,5
26858,50545,5
26821,50548,5
26827,50547,4
26837,50553,6
26845,50554,4
26841,50549,5
26838,50568,4
26848,50562,4
26839,50549,5
26846,50576,5
26853,50581,5
26847,50572,4
26843,50523,5
26846,50583,5
26845,50575,5
26845,50567,5
26837,50510,4
26835,50560,5
26839,50560,5
26831,50555,5
26822,50565,5
26831,50556,4
26821,50540,5
26827,50535,5
26824,50593,5
26815,50531,5
26819,50529,4
26823,50533,5
26824,50590,6
26819,50542,4
26827,50538,4
26825,50541,4
26827,50555,5
26824,50539,5
26825,50545,5
26822,50539,4
26825,50552,5
26836,50548,5
26834,50548,5
26834,50549,5
26836,50558,4
26839,50562,5
26840,50557,5
26835,50551,5
26837,50556,5
26830,50560,4
26834,50555,5
26842,50560,5
26842,50556,5
26834,50555,5
26833,50559,4
26836,50558,5
26838,50558,5
26837,50551,6
26822,50553,4
26836,50556,4
26826,50542,5
26832,50545,5
26828,50540,5
26827,50541,4
26814,50535,5
26824,50534,5
26819,50531,5
26816,50531,5
26816,50530,4
26818,50530,5
26820,50533,5
26817,50522,5
26819,50526,5
26807,50522,4
26811,50518,5
26812,50504,5
26812,50517,5
26810,50515,5
26813,50511,5
26810,50519,4
26807,50512,5
26803,50506,5
26808,50517,5
26806,50511,4
26816,50510,5
26812,50516,5
26812,50513,5
26815,50515,4
26813,50514,5
26804,50522,5
26807,50516,5
26814,50511,5
26814,50522,4
26803,50516,5
26805,50507,5
26815,50515,5
26809,50501,5
26798,50506,4
26803,50507,5
26802,50506,5
26790,50497,5
26800,50494,5
26799,50505,4
26798,50506,6
26791,50495,4
26796,50498,5
26800,50501,5
26788,50501,4
26794,50489,5
26785,50491,5
26791,50484,5
26787,50480,4
26784,50484,4
26792,50485,5
26791,50484,5
26782,50482,5
26782,50482,4
26775,50483,5
26784,50482,5
26789,50468,5
26785,50477,5
26744,50470,4
26785,50470,5
26772,50468,5
26781,50477,5
26725,50483,5
26792,50487,4
26787,50477,5
26788,50483,6
26765,50489,4
26794,50480,5
26785,50485,4
26782,50480,5
26818,50469,5
26786,50474,5
26775,50462,4
26771,50458,4
26829,50456,5
26763,50444,5
26766,50446,5
26757,50430,4
26796,50419,5
26741,50405,5
26732,50397,5
26723,50375,5
26730,50367,4
26722,50358,5
26715,50357,5
26718,50346,5
26719,50316,5
26704,50361,4
26701,50335,5
26708,50342,5
26707,50298,5
26700,50336,5
26696,50323,4
26689,50318,5
26684,50251,5
26678,50298,5
26673,50295,4
26673,50287,5
26664,50296,4
26659,50265,5
26659,50250,5
26647,50255,4
26659,50319,5
26663,50262,5
26668,50268,5
26668,50277,5
26676,50331,4
26673,50278,5
26677,50285,5
26673,50268,5
26657,50282,5
26649,50253,5
26653,50254,4
26668,50260,5
26662,50258,5
26656,50251,5
26659,50258,4
26661,50272,5
26669,50283,5
26673,50280,5
26667,50274,4
26660,50269,4
26658,50261,5
26669,50289,5
26675,50309,5
26685,50315,4
26685,50316,5
26694,50347,5
26715,50375,5
26734,50405,5
26748,50431,4
26756,50441,5
26757,50436,5
26763,50448,5
26774,50473,5
26782,50488,4
26799,50511,6
26816,50534,4
26820,50567,5
26823,50564,5
26843,50581,4
26850,50604,5
26863,50620,5
26879,50665,5
26899,50689,4
26920,50711,4
26918,50725,5
26938,50741,5
26950,50754,5
26939,50760,4
26953,50774,5
26963,50797,5
26982,50835,5
26996,50873,5
27036,50912,4
27032,50921,5
27051,50936,5
27054,50964,5
27065,50973,5
27063,50983,4
27078,50989,5
27080,50990,5
27077,50980,5
27082,50996,5
27094,51014,4
27105,51026,5
27096,51037,5
27108,51039,5
27099,51027,4
27097,51014,4
27095,51015,5
27098,51027,5
27112,51052,5
27137,51074,4
27142,51094,5
27148,51107,5
27138,51108,5
27143,51100,5
27132,51090,4
27138,51099,4
27152,51111,5
27153,51119,5
27151,51120,5
27148,51112,3
27152,51112,5
27144,51113,5
27147,51098,5
27146,51105,5
27148,51118,4
27159,51126,5
27150,51115,5
27124,51102,5
27129,51089,4
27133,51078,4
27115,51049,5
27072,51041,5
27105,51030,5
27091,51012,4
27090,51010,5
27027,50995,5
27084,50986,5
27069,50984,5
27068,50967,4
27056,50970,6
27051,50956,4
27061,50929,5
27031,50919,5
27066,50901,6
27012,50870,3
26999,50840,5
26982,50829,5
27037,50815,5
26971,50803,4
26959,50794,5
26948,50774,5
26974,50762,5
26934,50736,5
26921,50726,4
26916,50708,5
26912,50692,5
26897,50674,5
26881,50664,4
26882,50649,5
26877,50614,5
26871,50633,5
26864,50635,5
26857,50622,4
26870,50565,5
26856,50618,6
26852,50603,4
26854,50601,5
26854,50563,4
26852,50599,5
26844,50601,5
26849,50598,5
26854,50631,5
26842,50596,4
26840,50599,5
26842,50603,5
26848,50666,5
26843,50603,5
26855,50606,4
26859,50611,5
26858,50664,5
26860,50631,5
26855,50631,4
26862,50641,5
26871,50637,5
26862,50635,5
26866,50630,5
26863,50620,4
26859,50624,5
26858,50619,5
26862,50623,6
26854,50611,4
26858,50612,4
26851,50611,5
26855,50601,5
26856,50602,5
26849,50604,5
26843,50595,4
26839,50591,5
26847,50592,5
26841,50585,5
26840,50588,5
26849,50597,4
26847,50590,5
26851,50594,5
26858,50598,5
26846,50607,4
26854,50595,4
26849,50600,5
26855,50608,5
26847,50606,6
26853,50600,4
26857,50603,4
26855,50603,5
26858,50602,5
26857,50601,6
26851,50606,3
26849,50612,5
26849,50609,5
26851,50609,5
26856,50613,5
26855,50607,4
26852,50614,5
26851,50602,5
26854,50610,5
26855,50604,5
26852,50606,4
26855,50595,5
26854,50593,5
26850,50610,5
26849,50605,4
26852,50606,4
26852,50591,5
26845,50600,5
26851,50596,5
26851,50592,4
26846,50593,6
26844,50584,4
26848,50596,5
26849,50598,5
26842,50601,4
26850,50603,5
26844,50593,5
26843,50596,5
26857,50607,5
26848,50598,4
26849,50594,5
26842,50602,5
26850,50602,5
26845,50600,5
26853,50603,4
26845,50595,5
26853,50602,5
26846,50599,5
26844,50609,5
26856,50604,4
26852,50598,5
26853,50604,5
26862,50602,5
26846,50600,4
26844,50596,5
26849,50598,6
26843,50597,4
26844,50595,5
26848,50600,4
26837,50598,5
26852,50599,5
26854,50607,5
26858,50614,5
26812,50618,4
26860,50616,5
26861,50629,5
26872,50626,5
26817,50633,5
26872,50629,4
26877,50640,5
26881,50652,5
26868,50640,5
26883,50638,5
26867,50634,4
26872,50633,5
26912,50637,5
26861,50636,5
26866,50636,4
26869,50629,5
26920,50623,5
26864,50615,6
26860,50611,4
26852,50613,4
26884,50610,5
26849,50608,5
26854,50608,5
26859,50607,5
26871,50612,4
26858,50612,5
26860,50609,5
26857,50617,5
26855,50580,5
26860,50614,4
26854,50615,5
26861,50605,5
26853,50558,5
26858,50612,5
26853,50617,4
26861,50618,5
26871,50581,5
26862,50621,5
26859,50616,5
26861,50617,5
26852,50649,4
26866,50622,5
26867,50630,6
26859,50618,3
26871,50691,5
26868,50625,5
26863,50627,5
26866,50622,5
26865,50682,4
26867,50632,5
26869,50626,5
26867,50620,5
26875,50631,5
26868,50633,4
26861,50626,5
26868,50628,5
26857,50615,5
26862,50619,5
26862,50611,4
26868,50626,5
26865,50626,5
26863,50627,5
26867,50629,4
26863,50620,5
26868,50625,4
26860,50630,5
26865,50626,5
26872,50631,4
26867,50637,5
26867,50640,5
26870,50638,5
26869,50642,5
26875,50638,4
26881,50638,5
26876,50648,5
26878,50650,5
26881,50646,5
26886,50647,4
26886,50652,5
26886,50660,5
26880,50656,5
26883,50656,5
26890,50654,4
26883,50663,5
26879,50661,5
26892,50663,5
26890,50661,4
26891,50657,4
26882,50669,6
26891,50667,4
26885,50676,5
26896,50675,4
26886,50669,5
26900,50667,5
26892,50667,5
26892,50664,5
26891,50668,4
26895,50674,5
26904,50680,5
26915,50700,5
26911,50696,5
26920,50711,4
26916,50711,5
26917,50716,5
26914,50711,5
26915,50716,5
26921,50706,4
26914,50709,5
26917,50705,5
26906,50700,5
26913,50701,4
26906,50694,4
26910,50693,5
26909,50697,6
26909,50692,4
26904,50688,4
26913,50700,5
26910,50695,5
26904,50691,5
26905,50690,5
26910,50688,4
26911,50695,5
26912,50696,5
26908,50685,5
26916,50691,5
26910,50703,4
26911,50708,5
26919,50699,5
26912,50695,5
26916,50701,5
26917,50705,4
26920,50716,5
26920,50720,5
26907,50726,5
26924,50725,5
26925,50725,4
26928,50720,5
26881,50724,5
26921,50723,5
26923,50723,4
26928,50730,5
26874,50720,5
26932,50728,5
26930,50731,5
26932,50728,4
26914,50729,5
26928,50737,5
26933,50732,5
26925,50721,5
26974,50720,4
26925,50723,5
26929,50731,5
26915,50721,5
26986,50707,5
26924,50708,4
26913,50720,5
26919,50717,5
26944,50715,5
26925,50716,5
26913,50711,5
26922,50711,4
26931,50719,5
26927,50718,5
26919,50708,4
26928,50715,4
26918,50691,5
26930,50719,5
26927,50730,5
26927,50723,4
26922,50671,5
26930,50733,5
26931,50731,5
26929,50733,5
26930,50683,4
26924,50738,5
26923,50732,5
26932,50738,5
26920,50750,5
26932,50735,4
26925,50723,5
26924,50728,6
26929,50794,4
26925,50726,5
26920,50727,4
26925,50731,7
26931,50776,3
26923,50729,5
26931,50720,4
26925,50719,4
26918,50729,5
26918,50723,5
26926,50724,5
26915,50721,4
26926,50726,5
26913,50717,5
26919,50723,5
26920,50716,5
26926,50721,4
26922,50718,5
26925,50717,5
26914,50720,5
26920,50720,5
26928,50729,4
26920,50731,5
26934,50728,5
26920,50728,5
26924,50722,4
26924,50731,4
26920,50738,5
26942,50731,5
26937,50739,5
26933,50750,5
26940,50756,4
26932,50750,5
26939,50757,5
26941,50755,5
26935,50753,4
26932,50745,5
26931,50746,5
26932,50734,5
26931,50734,5
26934,50724,4
26933,50729,5
26921,50734,5
26928,50720,5
26917,50724,5
26928,50721,5
26918,50710,4
26918,50716,5
26915,50714,5
26915,50708,6
26920,50726,3
26924,50721,5
26925,50723,5
26930,50719,5
26926,50729,5
26932,50723,4
26933,50732,5
26936,50733,5
26930,50725,5
26930,50732,4
26929,50740,4
26932,50739,5
26931,50743,5
26937,50739,5
26930,50744,4
26934,50741,5
26934,50740,5
26926,50744,5
26926,50743,5
26936,50739,4
26938,50733,6
26936,50733,4
26927,50729,5
26934,50725,5
26930,50732,6
26927,50733,3
26932,50724,5
26925,50726,5
26925,50714,5
26908,50710,4
26925,50712,5
26927,50716,5
26918,50717,5
26921,50718,4
26917,50730,4
26918,50718,5
26927,50716,5
26914,50720,5
26916,50707,4
26910,50710,5
26919,50715,5
26923,50713,5
26924,50725,5
26880,50726,4
26926,50726,5
26931,50729,6
26928,50721,4
26870,50719,5
26929,50729,4
26932,50728,5
26928,50731,5
26913,50735,5
26932,50730,5
26941,50732,4
26922,50730,5
26967,50731,5
26931,50732,5
26933,50731,4
26933,50729,4
26989,50738,5
26934,50727,5
26927,50728,5
26934,50732,4
26963,50729,5
26928,50730,5
26928,50730,5
26931,50740,5
26950,50731,4
26921,50734,5
26937,50731,5
26932,50734,6
26933,50707,4
26935,50737,4
26930,50744,5
26935,50731,5
26933,50688,5
26939,50740,5
26940,50734,4
26937,50744,5
26940,50678,5
26940,50744,5
26939,50745,5
26936,50749,5
26932,50757,4
26930,50737,5
26935,50741,5
26932,50741,4
26939,50798,5
26945,50746,5
26945,50749,5
26944,50752,5
26942,50798,5
26949,50758,4
26948,50748,5
26944,50754,5
26951,50776,6
26946,50759,3
26946,50757,5
26943,50758,5
26945,50767,5
26944,50761,5
26941,50765,4
26955,50770,5
26951,50767,5
26953,50767,5
26951,50780,5
26956,50783,4
26963,50779,5
26966,50783,5
26951,50781,5
26962,50772,4
26964,50776,4
26959,50765,5
26956,50757,5
26945,50759,5
26946,50752,4
26942,50757,6
26940,50739,4
26936,50751,5
26941,50744,5
26940,50737,4
26929,50734,5
26941,50726,5
26938,50729,5
26937,50736,5
26935,50729,4
26934,50722,5
26938,50728,5
26937,50737,5
26937,50737,5
26932,50744,4
26939,50737,5
26931,50743,5
26936,50737,5
26937,50740,4
26939,50738,4
26942,50740,5
26928,50736,5
26933,50726,5
26937,50733,4
26929,50730,5
26928,50721,6
26932,50733,4
26926,50724,5
26918,50714,4
26928,50718,5
26918,50717,5
26922,50715,5
26921,50713,5
26919,50706,4
26917,50701,5
26916,50688,5
26902,50693,5
26902,50683,5
26908,50680,4
26912,50687,5
26904,50684,5
26905,50681,5
26906,50676,5
26894,50675,4
26903,50680,5
26899,50665,5
26896,50668,5
26890,50678,4
26892,50675,5
26893,50672,5
26895,50671,6
26897,50677,4
26902,50677,4
26897,50674,5
26895,50675,5
26909,50682,5
26911,50683,5
26901,50676,4
26909,50683,5
26905,50683,5
26905,50679,5
26909,50687,5
26899,50682,4
26910,50689,5
26864,50687,5
26911,50687,5
26910,50690,5
26908,50690,4
26856,50680,5
26913,50682,5
26908,50680,5
26909,50678,5
26872,50677,4
26895,50676,5
26899,50667,5
26908,50667,5
26921,50669,4
26893,50672,5
26901,50661,5
26895,50660,5
26951,50667,5
26887,50662,4
26900,50656,5
26888,50673,5
26930,50664,5
26894,50664,5
26900,50669,4
26899,50672,5
26910,50680,5
26896,50674,5
26900,50674,5
26900,50679,4
26897,50660,5
26902,50674,5
26892,50672,5
26903,50666,4
26891,50619,5
26902,50674,4
26893,50669,5
26889,50671,5
26899,50617,4
26900,50667,5
26896,50672,5
26894,50664,5
26893,50668,5
26884,50656,4
26883,50651,5
26885,50649,5
26883,50703,5
26877,50654,5
26879,50647,4
26878,50645,5
26886,50715,5
26886,50653,5
26888,50649,5
26883,50652,4
26882,50672,5
26878,50645,5
26871,50641,5
26885,50640,5
26874,50643,4
26880,50641,6
26887,50644,4
26880,50641,5
26874,50642,4
26885,50642,5
26876,50649,5
26886,50646,5
26875,50637,5
26878,50640,4
26871,50640,5
26871,50632,5
26882,50630,5
26874,50640,5
26876,50627,4
26868,50631,5
26864,50627,5
26876,50633,5
26871,50633,5
26876,50641,4
26882,50641,5
26881,50648,5
26881,50659,5
26892,50663,5
26886,50663,4
26893,50664,5
26894,50661,6
26899,50662,4
26891,50663,4
26888,50661,5
26874,50661,5
26876,50640,5
26878,50647,5
26876,50636,4
26873,50632,5
26867,50633,5
26866,50618,5
26871,50631,5
26867,50632,4
26876,50636,5
26881,50641,5
26880,50648,5
26885,50651,5
26894,50656,4
26889,50655,5
26887,50650,5
26877,50637,5
26867,50626,5
26872,50634,4
26865,50629,5
26868,50615,5
26872,50624,5
26872,50630,4
26877,50629,4
26866,50630,5
26872,50634,5
26875,50626,5
26866,50633,4
26878,50624,5
26868,50628,5
26875,50650,5
26894,50646,5
26884,50652,4
26885,50652,5
26880,50641,5
26880,50640,5
26880,50636,5
26885,50633,4
26875,50645,5
26879,50641,5
26887,50650,5
26878,50644,5
26887,50644,5
26874,50646,4
26875,50647,5
26877,50630,5
26874,50643,4
26873,50645,4
26881,50646,5
26885,50655,5
26897,50665,5
26861,50672,4
26897,50677,5
26897,50669,5
26893,50676,5
26856,50677,5
26905,50677,4
26909,50688,5
26899,50688,5
26873,50697,5
26922,50718,5
26922,50718,4
26925,50722,5
26954,50726,6
26925,50718,4
26925,50721,5
26924,50714,4
26984,50720,7
26929,50712,3
26924,50717,5
26929,50729,5
26985,50747,4
26947,50756,5
26934,50752,5
26936,50746,5
26946,50755,4
26940,50767,5
26946,50769,5
26950,50769,5
26948,50747,5
26949,50770,4
26948,50770,5
26944,50758,5
26952,50711,5
26948,50762,5
26961,50765,4
26952,50775,5
26953,50733,5
26957,50778,6
26947,50761,4
26939,50758,5
26938,50755,4
26936,50752,5
26937,50741,5
26931,50739,5
26938,50797,4
26935,50754,5
26944,50765,5
26955,50769,5
26950,50822,4
26949,50757,4
26938,50754,5
26935,50743,5
26933,50767,5
26928,50733,4
26923,50730,5
26913,50717,5
26914,50718,5
26910,50699,5
26911,50696,5
26902,50697,4
26899,50683,5
26896,50693,5
26901,50692,6
26900,50694,3
26904,50690,5
26906,50693,5
26909,50694,5
26898,50692,5
26902,50689,4
26895,50689,5
26895,50686,5
26898,50682,5
26889,50665,4
26879,50663,4
26877,50643,5
26855,50633,5
26866,50614,5
26844,50606,4
26842,50586,5
26824,50571,5
26824,50566,5
26827,50564,5
26816,50554,4
26811,50551,6
26811,50540,4
26806,50531,5
26802,50537,5
26789,50537,6
26802,50516,3
26796,50523,5
26798,50519,5
26805,50521,5
26795,50516,4
26794,50518,5
26787,50515,5
26794,50506,5
26800,50507,4
26801,50512,4
26794,50515,5
26800,50511,5
26796,50518,5
26789,50507,4
26790,50515,5
26784,50502,5
26782,50494,5
26770,50484,5
26769,50480,4
26777,50478,5
26772,50483,6
26767,50486,4
26781,50490,5
26775,50478,4
26774,50478,5
26777,50479,5
26774,50488,5
26776,50488,5
26776,50488,4
26774,50488,5
26773,50485,5
26776,50478,5
26777,50480,5
26777,50471,4
26771,50480,5
26770,50481,5
26770,50476,5
26768,50474,4
26767,50469,5
26767,50471,5
26770,50476,5
26767,50473,5
26775,50481,4
26773,50483,5
26775,50478,5
26772,50469,6
26773,50479,4
26773,50477,4
26768,50478,5
26736,50478,5
26767,50474,5
26766,50480,5
26767,50479,4
26728,50485,5
26767,50486,5
26786,50491,5
26791,50496,5
26738,50499,4
26785,50499,5
26783,50497,5
26784,50509,5
26821,50512,4
26798,50510,4
26793,50512,5
26803,50524,5
26856,50515,5
26796,50525,5
26801,50515,4
26799,50515,5
26839,50515,5
26790,50504,6
26792,50514,3
26795,50509,5
26803,50511,5
26789,50511,5
26793,50501,5
26793,50500,4
26782,50485,5
26775,50497,5
26781,50503,5
26782,50497,5
26787,50450,4
26785,50496,5
26789,50500,5
26788,50502,5
26783,50444,4
26783,50489,4
26787,50493,5
26783,50494,5
26789,50498,5
26784,50497,4
26792,50500,6
26788,50502,4
26786,50550,5
26785,50510,5
26793,50500,4
26795,50499,5
26788,50573,5
26784,50505,5
26793,50506,5
26795,50507,4
26795,50541,5
26794,50508,5
26791,50515,5
26796,50510,5
26792,50509,4
26791,50512,5
26786,50510,5
26781,50499,5
26788,50502,4
26787,50497,4
26789,50502,5
26786,50492,5
26780,50489,5
26774,50492,4
26779,50486,5
26779,50489,6
26778,50481,4
26784,50474,5
26770,50483,4
26780,50478,5
26772,50475,5
26781,50484,5
26773,50473,5
26769,50482,4
26765,50484,5
26777,50486,5
26772,50481,5
26778,50487,5
26780,50490,4
26791,50484,5
26787,50488,5
26780,50495,5
26784,50504,5
26781,50499,4
26788,50505,5
26797,50511,5
26796,50510,5
26795,50509,4
26795,50514,4
26791,50511,7
26789,50504,4
26796,50513,4
26795,50509,4
26795,50520,5
26796,50517,5
26798,50514,5
26796,50506,5
26798,50517,4
26794,50517,5
26794,50528,5
26791,50517,5
26797,50524,5
26799,50532,4
26801,50522,5
26804,50523,5
26799,50524,5
26793,50529,5
26802,50523,4
26804,50522,5
26800,50522,5
26804,50517,5
26796,50511,5
26798,50506,4
26803,50506,5
26796,50506,5
26790,50514,5
26796,50505,4
26796,50509,5
26793,50516,5
26790,50512,5
26792,50515,5
26803,50521,4
26791,50513,5
26801,50519,5
26799,50521,5
26806,50536,5
26807,50534,4
26813,50536,5
26819,50532,5
26808,50540,5
26816,50547,5
26814,50551,4
26815,50548,5
26825,50552,5
26828,50553,5
26784,50557,5
26836,50567,5
26829,50560,4
26828,50551,5
26773,50553,5
26820,50557,4
26819,50560,5
26826,50563,5
26797,50562,5
26822,50561,5
26825,50555,4
26826,50553,5
26857,50558,5
26820,50556,5
26823,50555,5
26816,50559,4
26881,50552,5
26827,50556,5
26828,50565,5
26829,50569,5
26854,50558,4
26825,50558,5
26818,50556,5
26827,50555,5
26840,50552,5
26828,50565,4
26830,50565,6
26827,50566,4
26828,50544,5
26827,50565,4
26829,50571,5
26832,50573,5
26833,50523,5
26828,50576,5
26825,50578,4
26831,50572,5
26832,50520,5
26838,50577,5
26838,50581,5
26841,50580,5
26833,50596,4
26846,50586,5
26842,50587,5
26849,50579,5
26844,50639,4
26842,50582,5
26835,50589,5
26836,50582,6
26837,50637,4
26843,50578,4
26837,50584,5
26843,50570,5
26842,50601,5
26850,50582,4
26844,50588,4
26843,50587,5
26845,50596,5
26846,50595,5
26843,50608,4
26852,50599,5
26850,50601,5
26847,50601,5
26859,50606,5
26855,50610,4
26865,50613,5
26870,50627,5
26868,50631,5
26871,50633,5
26870,50647,4
26869,50650,5
26879,50646,5
26869,50637,5
26871,50635,5
26876,50641,4
26868,50642,5
26871,50639,5
26874,50636,5
26869,50642,4
26881,50648,4
26891,50646,5
26875,50639,5
26878,50640,5
26875,50640,4
26875,50633,5
26871,50646,5
26880,50645,5
26881,50645,5
26877,50647,4
26873,50647,5
26885,50651,5
26887,50665,5
26887,50664,5
26884,50667,4
26880,50664,6
26889,50656,4
26883,50663,5
26886,50666,5
26887,50661,6
26894,50663,3
26893,50664,5
26892,50658,5
26897,50672,5
26891,50675,4
26904,50678,5
26903,50669,5
26891,50681,5
26900,50682,4
26897,50677,5
26898,50676,5
26905,50679,5
26897,50677,5
26904,50672,4
26905,50682,5
26889,50681,5
26907,50676,5
26901,50676,5
26896,50676,4
26899,50672,5
26895,50673,6
26898,50670,4
26901,50666,5
26900,50672,4
26900,50673,5
26896,50667,5
26896,50673,5
26901,50664,5
26893,50673,4
26899,50681,5
26899,50680,5
26889,50675,5
26894,50669,4
26895,50675,4
26900,50667,5
26891,50672,5
26902,50679,5
26897,50678,4
26896,50681,5
26860,50687,5
26907,50691,5
26906,50693,5
26904,50701,4
26854,50702,5
26915,50706,5
26916,50712,6
26919,50706,4
26896,50715,4
26924,50708,5
26918,50709,5
26915,50715,5
26954,50709,5
26917,50712,4
26924,50724,5
26935,50721,5
26982,50727,5
26920,50719,4
26920,50721,4
26913,50716,5
26960,50722,5
26922,50717,5
26917,50714,4
26926,50715,5
26929,50713,5
26927,50715,5
26919,50707,5
26916,50719,5
26927,50683,4
26911,50715,5
26918,50714,5
26916,50717,6
26925,50666,3
26920,50716,5
26927,50719,5
26928,50726,5
26928,50680,5
26932,50736,4
26931,50734,5
26929,50735,5
26923,50748,5
26918,50728,4
26923,50725,4
26925,50715,5
26927,50774,5
26928,50726,5
26927,50717,4
26925,50719,5
26919,50772,5
26929,50715,5
26923,50716,5
26916,50722,4
26916,50727,6
26919,50715,4
26915,50708,5
26917,50709,5
26915,50710,4
26920,50709,5
26921,50712,5
26924,50713,5
26915,50707,5
26914,50712,4
26917,50706,5
26917,50704,5
26924,50710,5
26921,50701,4
26913,50708,5
26911,50704,5
26907,50702,5
26914,50700,5
26910,50697,4
26912,50696,5
26912,50698,5
26910,50698,5
26909,50695,5
26917,50694,4
26904,50684,5
26902,50688,6
26899,50671,4
26898,50672,5
26896,50668,4
26897,50648,5
26887,50651,5
26875,50646,5
26881,50638,5
26882,50637,4
26879,50629,5
26872,50620,5
26865,50615,5
26867,50606,4
26859,50600,4
26856,50594,5
26861,50595,5
26855,50575,5
26842,50579,4
26836,50565,5
26838,50560,5
26830,50555,5
26831,50556,5
26832,50545,4
26824,50533,5
26822,50518,5
26819,50532,6
26823,50526,4
26818,50518,4
26811,50519,5
26803,50509,5
26806,50514,5
26803,50497,5
26803,50492,4
26797,50500,5
26802,50501,5
26799,50493,5
26799,50491,4
26800,50494,4
26795,50487,5
26794,50479,5
26789,50482,5
26790,50482,4
26792,50478,5
26782,50476,5
26791,50474,5
26788,50477,5
26788,50467,5
26791,50468,4
26781,50468,5
26786,50466,5
26784,50466,5
26786,50465,4
26781,50459,5
26785,50453,5
26784,50457,5
26773,50462,5
26765,50451,4
26773,50452,5
26770,50454,5
26774,50450,5
26739,50455,4
26770,50445,4
26780,50456,5
26770,50457,5
26729,50457,5
26778,50462,4
26777,50465,5
26783,50466,5
26778,50459,5
26785,50475,5
26782,50461,4
26786,50467,6
26824,50460,4
26779,50459,5
26781,50448,5
26780,50454,4
26837,50442,5
26777,50448,5
26774,50438,5
26766,50428,5
26797,50427,4
26765,50437,5
26759,50424,5
26763,50426,5
26768,50429,4
26769,50431,4
26762,50426,5
26762,50424,5
26764,50394,5
26766,50432,4
26757,50429,5
26763,50430,5
26767,50382,5
26768,50425,5
26760,50436,4
26756,50433,5
26769,50402,6
26763,50429,4
26758,50437,5
26756,50425,5
26763,50451,4
26757,50426,5
26759,50424,5
26753,50422,5
26758,50481,4
26763,50426,5
26761,50417,5
26764,50421,5
26752,50460,4
26760,50429,4
26756,50422,5
26764,50419,5
26759,50437,5
26753,50420,4
26754,50428,5
26759,50431,5
26759,50431,5
26762,50433,5
26760,50436,4
26757,50425,5
26758,50422,5
26759,50423,5
26764,50427,5
26761,50428,4
26759,50429,5
26764,50432,5
26758,50427,5
26763,50427,5
26763,50431,4
26758,50428,5
26765,50422,5
26759,50428,5
26760,50418,4
26766,50429,4
26764,50421,5
26756,50425,5
26762,50420,5
26745,50415,4
26755,50418,5
26755,50411,5
26751,50412,5
26743,50414,5
26747,50419,5
26754,50404,4
26750,50404,5
26741,50413,5
26742,50402,5
26744,50408,4
26740,50409,5
26745,50406,5
26743,50412,5
26743,50406,5
26751,50414,4
26751,50422,5
26746,50416,5
26754,50408,5
26747,50410,4
26753,50411,4
26755,50415,5
26756,50414,5
26758,50417,5
26757,50424,4
26759,50434,5
26761,50429,5
26772,50437,5
26763,50433,5
26765,50430,4
26755,50431,6
26755,50421,4
26758,50433,5
26759,50422,5
26748,50424,4
26758,50418,5
26751,50422,5
26750,50418,5
26743,50412,5
26748,50419,4
26748,50414,5
26744,50410,5
26743,50406,5
26745,50415,4
26741,50404,5
26739,50399,5
26739,50404,5
26748,50411,5
26741,50403,4
26742,50419,5
26746,50404,5
26750,50403,5
26744,50402,5
26752,50412,4
26756,50414,5
26742,50409,5
26717,50409,5
26751,50418,5
26746,50407,4
26746,50400,5
26691,50408,5
26743,50416,5
26754,50408,5
26745,50409,4
26693,50415,5
26739,50412,5
26740,50416,5
26744,50407,4
26760,50402,5
26730,50402,5
26733,50400,5
26746,50395,5
26793,50397,4
26742,50391,5
26726,50395,5
26735,50393,5
26780,50398,5
26740,50380,3
26732,50382,5
26731,50382,5
26745,50379,5
26722,50382,5
26724,50377,4
26718,50376,5
26728,50349,5
26729,50375,5
26720,50369,5
26719,50375,4
26719,50332,5
26723,50375,5
26727,50369,5
26724,50370,5
26729,50326,4
26727,50386,5
26731,50380,5
26727,50380,5
26719,50385,4
26722,50367,6
26730,50383,4
26729,50383,5
26722,50423,5
26721,50382,6
26719,50377,3
26719,50374,5
26720,50429,5
26721,50376,5
26717,50364,4
26713,50375,5
26719,50392,5
26726,50369,5
26721,50366,5
26722,50372,4
26716,50371,5
26716,50368,5
26717,50352,5
26704,50357,4
26707,50350,5
26706,50337,5
26702,50342,5
26700,50328,5
26693,50319,4
26685,50310,5
26678,50308,6
26673,50300,4
26674,50289,5
26663,50276,4
26655,50281,5
26669,50271,5
26658,50255,5
26649,50265,5
26648,50244,4
26644,50247,5
26642,50224,5
26631,50224,5
26630,50220,5
26627,50219,4
26627,50219,5
26621,50214,5
26627,50216,5
26624,50219,4
26622,50224,5
26628,50220,5
26634,50229,5
26637,50226,5
26633,50240,4
26630,50229,5
26633,50222,5
26634,50221,6
26619,50214,4
26619,50207,4
26613,50206,5
26614,50208,5
26626,50215,5
26623,50212,5
26635,50218,4
26630,50235,5
26634,50251,5
26649,50271,5
26650,50275,5
26657,50267,4
26648,50271,5
26654,50269,5
26656,50269,5
26656,50281,4
26660,50282,5
26670,50278,5
26654,50291,5
26670,50301,5
26660,50299,5
26664,50302,4
26674,50313,5
26670,50319,5
26679,50306,6
26668,50312,3
26669,50310,5
26669,50302,5
26676,50317,5
26682,50324,5
26687,50334,4
26690,50327,5
26687,50352,5
26699,50367,5
26700,50365,5
26705,50367,4
26699,50367,5
26704,50370,5
26701,50368,5
26704,50372,4
26713,50387,5
26705,50395,5
26719,50405,5
26729,50407,5
26725,50395,4
26685,50407,6
26726,50396,4
26719,50399,5
26722,50391,5
26672,50404,4
26723,50398,5
26732,50404,5
26726,50404,5
26716,50397,5
26722,50402,4
26715,50404,5
26717,50393,5
26765,50394,5
26720,50397,5
26718,50388,4
26707,50382,5
26763,50372,5
26707,50369,5
26700,50364,4
26697,50358,5
26719,50338,5
26691,50337,5
26694,50321,5
26679,50320,4
26685,50321,5
26670,50309,6
26670,50295,4
26669,50298,5
26661,50256,4
26654,50276,5
26652,50267,5
26648,50260,5
26648,50208,5
26635,50254,4
26644,50255,5
26641,50256,5
26641,50218,5
26639,50255,4
26641,50262,4
26650,50259,5
26641,50286,5
26639,50261,5
26642,50257,4
26647,50253,5
26639,50321,5
26649,50259,5
26644,50261,5
26650,50271,4
26652,50309,5
26657,50277,5
26655,50282,6
26662,50282,4
26653,50289,4
26659,50277,5
26659,50289,5
26660,50289,5
26654,50285,5
26659,50293,4
26656,50283,5
26660,50290,5
26665,50280,5
26667,50289,4
26653,50294,4
26664,50292,5
26655,50282,5
26658,50285,5
26664,50288,4
26664,50290,5
26667,50287,5
26672,50295,5
26662,50284,5
26670,50293,5
26673,50299,4
26673,50301,5
26678,50307,5
26683,50314,5
26684,50315,4
26678,50319,5
26683,50318,5
26689,50316,5
26688,50325,5
26672,50322,4
26679,50321,5
26682,50320,5
26689,50331,5
26681,50336,4
26681,50335,4
26683,50330,5
26686,50336,5
26687,50337,5
26699,50340,4
26694,50336,5
26695,50340,5
26691,50342,5
26699,50349,5
26699,50351,4
26704,50342,6
26704,50358,4
26695,50362,5
26707,50370,5
26712,50374,4
26715,50364,5
26718,50381,5
26718,50382,5
26715,50384,5
26721,50384,4
26708,50380,5
26714,50378,5
26716,50367,5
26708,50367,4
26712,50368,4
26709,50375,5
26703,50368,5
26712,50370,5
26710,50362,4
26705,50357,5
26706,50366,5
26706,50360,5
26709,50365,5
26710,50365,4
26719,50370,5
26710,50371,6
26708,50368,4
26710,50375,5
26719,50369,4
26704,50369,5
26711,50383,5
26717,50370,5
26710,50377,5
26711,50382,4
26717,50381,5
26728,50389,5
26725,50392,5
26700,50391,5
26727,50391,4
26720,50386,5
26734,50394,5
26686,50394,5
26728,50398,4
26722,50400,5
26722,50403,5
26678,50392,5
26725,50395,5
26728,50403,4
26730,50400,5
26730,50393,5
26734,50399,6
26724,50389,4
26727,50392,4
26767,50393,5
26721,50393,5
26724,50383,5
26725,50391,5
26785,50385,4
26721,50390,5
26722,50396,5
26722,50390,5
26757,50403,5
26730,50396,4
26727,50396,5
26734,50394,5
26730,50404,5
26739,50402,4
26737,50409,4
26726,50397,5
26727,50366,5
26727,50405,5
26731,50412,5
26735,50407,4
26731,50360,5
26736,50423,5
26743,50418,5
26742,50416,5
26743,50387,4
26749,50434,5
26743,50427,5
26746,50418,5
26744,50461,4
26757,50430,5
26747,50425,5
26737,50416,5
26746,50478,5
26739,50418,4
26743,50417,5
26728,50401,5
26738,50449,5
26736,50404,4
26741,50415,4
26736,50414,5
26741,50425,5
26746,50413,5
26732,50420,4
26742,50414,7
26736,50410,3
26746,50417,5
26748,50425,5
26747,50432,4
26753,50430,5
26756,50439,5
26752,50446,5
26758,50452,5
26761,50452,4
26763,50458,5
26771,50461,5
26769,50462,5
26765,50457,5
26766,50462,4
26770,50450,5
26752,50457,5
26759,50458,5
26762,50456,4
26770,50457,4
26762,50455,5
26766,50451,5
26761,50451,5
26753,50447,4
26769,50446,5
26759,50447,6
26763,50448,4
26762,50451,5
26764,50444,4
26758,50461,5
26759,50450,5
26756,50455,5
26770,50449,5
26774,50461,4
26768,50458,5
26761,50464,5
26767,50464,5
26772,50469,5
26772,50459,4
26779,50467,5
26773,50477,5
26778,50476,5
26779,50478,5
26788,50491,4
26778,50482,5
26784,50486,5
26791,50487,5
26795,50496,4
26785,50495,5
26788,50491,5
26791,50490,5
26795,50497,5
26786,50491,4
26791,50485,8
26782,50490,2
26768,50498,5
26791,50499,5
26792,50491,4
26795,50499,5
26786,50493,5
26787,50498,5
26797,50495,5
26788,50484,4
26792,50487,5
26789,50491,5
26794,50493,5
26783,50496,5
26803,50495,5
26795,50499,4
26793,50499,5
26790,50501,5
26799,50502,6
26793,50506,3
26791,50510,5
26801,50507,5
26800,50517,5
26804,50518,4
26804,50513,5
26780,50514,5
26798,50509,5
26800,50510,5
26808,50521,4
26761,50523,5
26810,50531,5
26813,50531,5
26807,50531,5
26761,50527,4
26813,50532,5
26809,50532,5
26812,50532,5
26807,50526,5
26815,50531,4
26811,50535,6
26820,50534,4
26857,50543,5
26815,50545,4
26819,50538,6
26813,50537,3
26875,50544,5
26812,50537,5
26811,50546,4
26812,50544,5
26849,50551,5
26809,50551,5
26822,50555,5
26828,50554,4
26830,50545,5
26821,50550,5
26824,50552,5
26831,50565,5
26825,50534,4
26838,50566,5
26840,50580,5
26841,50577,5
26839,50525,5
26841,50580,4
26838,50576,5
26848,50578,6
26828,50533,4
26840,50568,5
26844,50577,4
26837,50578,5
26830,50598,5
26834,50582,5
26842,50579,4
26846,50571,5
26833,50631,5
26846,50576,5
26835,50576,5
26832,50577,4
26841,50629,5
26844,50586,5
26843,50581,5
26847,50591,5
26848,50598,4
26855,50591,5
26849,50587,5
26851,50598,5
26849,50592,5
26853,50591,4
26853,50596,5
26854,50596,5
26853,50594,6
26854,50598,4
26852,50593,4
26852,50586,5
26843,50589,5
26854,50593,5
26855,50592,4
26858,50593,4
26847,50599,5
26847,50589,5
26843,50586,5
26840,50585,4
26848,50589,5
26847,50574,5
26844,50580,5
26846,50573,5
26840,50590,4
26847,50585,5
26852,50588,5
26856,50592,5
26856,50592,5
26845,50599,5
26856,50593,4
26850,50593,5
26849,50589,5
26854,50588,6
26852,50592,3
26852,50596,5
26848,50586,5
26855,50587,5
26849,50593,4
26850,50599,4
26851,50591,5
26856,50600,5
26852,50593,5
26848,50590,4
26855,50598,5
26852,50594,5
26850,50596,5
26849,50585,5
26855,50590,4
26844,50586,5
26843,50576,5
26845,50581,5
26842,50571,5
26842,50577,4
26841,50577,6
26844,50570,4
26846,50573,5
26838,50575,5
26847,50567,4
26845,50564,5
26845,50574,5
26847,50575,5
26846,50567,4
26834,50565,4
26844,50565,5
26833,50577,5
26834,50564,5
26834,50567,4
26833,50557,5
26830,50557,5
26838,50569,5
26830,50562,5
26840,50567,4
26835,50558,5
26828,50561,5
26827,50548,5
26827,50552,5
26831,50562,4
26836,50555,5
26837,50556,6
26825,50559,4
26817,50541,5
26821,50538,4
26815,50530,5
26819,50532,5
26783,50520,5
26815,50514,5
26806,50503,4
26799,50499,5
26742,50495,5
26797,50487,5
26787,50478,4
26780,50457,5
26750,50457,5
26772,50449,5
26770,50443,5
26763,50429,4
26786,50415,5
26759,50422,5
26756,50421,5
26758,50419,5
26816,50422,4
26750,50420,5
26749,50419,5
26751,50413,6
26788,50413,4
26746,50411,4
26743,50408,5
26750,50409,5
26743,50397,5
26748,50392,5
26737,50395,4
26741,50398,5
26745,50371,5
26747,50405,5
26750,50412,4
26741,50390,4
26743,50345,5
26744,50401,5
26744,50393,5
26739,50406,5
26744,50345,4
26747,50395,5
26736,50396,5
26748,50402,5
26741,50414,5
26746,50399,4
26737,50393,5
26747,50394,5
26744,50448,5
26736,50400,4
26738,50394,5
26750,50394,5
26754,50456,5
26736,50400,5
26742,50399,4
26745,50397,5
26743,50421,5
26738,50405,5
26745,50403,4
26744,50406,4
26750,50403,5
26742,50411,5
26749,50405,5
26746,50399,4
26745,50396,5
26735,50400,5
26754,50405,5
26750,50404,5
26749,50416,4
26748,50407,6
26747,50407,4
26751,50411,5
26748,50416,5
26755,50423,4
26758,50418,5
26763,50426,5
26761,50430,5
26762,50425,5
26768,50421,4
26756,50433,5
26756,50417,5
26753,50417,5
26758,50427,5
26759,50422,4
26754,50410,5
26760,50421,5
26753,50420,5
26762,50419,4
26756,50418,5
26756,50420,5
26755,50418,5
26753,50423,5
26759,50424,4
26756,50425,5
26760,50426,6
26761,50423,4
26767,50423,5
26762,50428,4
26752,50429,5
26755,50422,5
26760,50428,5
26761,50421,5
26772,50425,4
26753,50428,5
26762,50426,5
26755,50432,5
26758,50428,5
26762,50419,4
26758,50443,5
26760,50432,5
26758,50425,5
26759,50439,4
26760,50424,4
26753,50423,5
26759,50426,5
26763,50421,5
26758,50430,4
26759,50426,5
26753,50428,5
26752,50425,5
26754,50418,5
26758,50426,4
26748,50413,5
26755,50423,5
26759,50416,5
26755,50417,5
26749,50424,4
26748,50426,5
26753,50428,5
26760,50421,5
26754,50407,5
26757,50415,4
26751,50425,5
26755,50424,5
26764,50419,5
26754,50426,4
26759,50432,4
26751,50434,5
26753,50438,5
26756,50436,5
26761,50436,5
26727,50436,4
26763,50434,5
26761,50434,5
26765,50442,5
26714,50439,4
26761,50443,5
26767,50436,5
26758,50434,5
26721,50438,5
26762,50438,4
26761,50433,5
26766,50433,5
26785,50431,5
26766,50430,5
26758,50431,4
26756,50434,5
26816,50431,5
26759,50429,5
26760,50436,5
26755,50425,4
26793,50432,5
26757,50432,5
26762,50429,5
26758,50430,4
26763,50427,6
26752,50426,4
26752,50433,5
26752,50425,5
26748,50410,4
26746,50419,5
26758,50414,5
26757,50417,5
26760,50387,5
26750,50423,4
26756,50429,5
26756,50420,5
26756,50375,5
26748,50432,5
26750,50439,4
26758,50438,5
26758,50426,5
26758,50431,5
26760,50439,5
26758,50438,4
26762,50493,5
26763,50457,6
26765,50454,4
26771,50448,4
26772,50509,4
26773,50456,5
26767,50451,5
26770,50444,5
26760,50468,4
26757,50443,5
26766,50436,5
26751,50438,5
26749,50437,5
26749,50431,4
26760,50430,5
26747,50423,5
26745,50423,5
26750,50427,5
26748,50422,4
26739,50419,5
26745,50427,5
26742,50405,5
26742,50409,5
26746,50413,4
26740,50416,5
26747,50411,5
26747,50413,6
26738,50416,3
26748,50415,4
26747,50414,5
26749,50419,5
26749,50418,5
26737,50408,4
26741,50417,5
26740,50412,5
26748,50414,5
26745,50411,5
26746,50410,4
26743,50412,5
26742,50404,5
26740,50404,5
26741,50404,5
26736,50404,4
26736,50407,5
26733,50397,5
26734,50405,5
26738,50395,5
26734,50392,5
26732,50402,4
26731,50392,5
26725,50389,5
26722,50384,6
26724,50384,3
26727,50381,5
26725,50376,5
26727,50379,5
26727,50379,4
26726,50384,5
26716,50372,5
26720,50373,5
26716,50371,5
26717,50372,4
26714,50370,5
26723,50364,5
26718,50369,5
26709,50375,5
26721,50368,4
26726,50367,5
26719,50373,5
26721,50376,5
26717,50376,5
26719,50366,5
26730,50370,5
26720,50379,4
26728,50380,5
26724,50378,5
26724,50382,6
26721,50375,3
26720,50382,5
26719,50375,5
26720,50367,4
26716,50370,4
26717,50366,5
26712,50376,5
26714,50376,5
26712,50371,4
26711,50368,5
26721,50374,5
26721,50377,5
26713,50378,5
26721,50372,4
26723,50382,5
26723,50375,5
26689,50375,5
26723,50373,5
26716,50367,4
26709,50368,5
26655,50343,6
26699,50334,4
26690,50329,5
26687,50316,4
26635,50309,5
26679,50300,5
26673,50296,5
26666,50279,4
26672,50275,4
26651,50262,5
26651,50266,5
26650,50260,5
26697,50254,4
26637,50252,5
26637,50253,5
26638,50225,5
26676,50220,5
26626,50214,4
26627,50215,5
26627,50223,5
26644,50213,5
26608,50200,5
26608,50195,4
26602,50185,5
26604,50166,5
26596,50168,6
26582,50156,4
26586,50151,4
26580,50097,5
26566,50142,5
26570,50134,5
26555,50112,5
26549,50043,4
26548,50090,5
26544,50088,5
26546,50094,5
26552,50088,4
26547,50101,5
26554,50113,5
26559,50117,5
26557,50167,5
26570,50119,4
26562,50132,5
26568,50125,5
26565,50195,5
26564,50129,5
26565,50127,5
26566,50131,4
26568,50181,5
26573,50154,5
26572,50146,6
26582,50163,3
26580,50183,5
26587,50180,5
26609,50213,5
26620,50232,5
26629,50246,4
26631,50267,5
26642,50290,5
26661,50296,5
26669,50311,4
26660,50315,4
26670,50321,5
26672,50323,5
26674,50327,5
26686,50355,4
26699,50367,5
26706,50380,5
26726,50402,5
26735,50426,5
26742,50455,4
26749,50460,6
26754,50454,4
26758,50485,5
26786,50534,5
26818,50581,4
26828,50585,5
26839,50590,5
26841,50604,5
26851,50622,5
26863,50641,4
26878,50679,5
26885,50690,5
26905,50715,5
26917,50755,4
26928,50763,4
26946,50798,5
26952,50806,5
26952,50813,5
26954,50813,4
26964,50833,5
26988,50860,5
27000,50896,5
27015,50907,5
27003,50896,4
26998,50881,5
26998,50888,6
27011,50903,4
27010,50907,5
27010,50886,4
26990,50848,5
26974,50817,5
26952,50806,5
26967,50805,5
26968,50819,4
26973,50820,5
26960,50808,5
26955,50784,5
26947,50772,4
26928,50745,4
26921,50730,5
26922,50715,5
26910,50713,5
26910,50695,4
26893,50681,5
26894,50674,5
26887,50664,5
26878,50655,5
26866,50633,4
26861,50620,5
26856,50614,5
26845,50591,6
26842,50596,4
26833,50590,4
26835,50592,5
26837,50596,5
26842,50596,5
26839,50590,5
26840,50580,4
26839,50586,5
26835,50592,5
26834,50588,5
26837,50587,5
26815,50584,4
26837,50591,5
26846,50590,5
26847,50594,5
26789,50600,4
26850,50603,5
26844,50610,5
26854,50614,5
26798,50623,5
26856,50620,5
26858,50631,4
26868,50631,5
26878,50624,5
26861,50626,5
26864,50624,4
26863,50633,5
26920,50629,5
26859,50617,5
26868,50634,5
26863,50627,4
26905,50628,5
26862,50630,5
26865,50629,5
26864,50635,5
26877,50630,4
26864,50638,5
26867,50624,5
26859,50620,5
26852,50608,4
26857,50624,4
26858,50627,5
26863,50632,5
26866,50580,5
26856,50622,4
26869,50632,6
26860,50627,4
26862,50572,5
26856,50634,5
26862,50622,4
26860,50617,5
26860,50599,5
26851,50613,5
26856,50605,5
26846,50613,4
26845,50641,5
26846,50599,5
26848,50606,5
26842,50595,5
26838,50663,4
26846,50598,5
26843,50593,5
26844,50594,5
26834,50617,4
26847,50597,4
26841,50595,5
26834,50592,5
26847,50597,5
26851,50594,4
26849,50607,5
26845,50606,7
26846,50604,3
26854,50603,5
26853,50610,4
26850,50607,5
26855,50610,5
26850,50608,5
26851,50604,5
26847,50603,4
26855,50600,5
26852,50604,5
26850,50600,5
26850,50606,5
26846,50601,4
26843,50597,5
26846,50596,5
26851,50602,5
26849,50601,5
26849,50602,4
26847,50610,5
26838,50604,5
26844,50602,5
26841,50600,4
26848,50591,5
26841,50604,5
26845,50597,5
26839,50596,5
26839,50595,4
26833,50588,5
26836,50599,5
26836,50591,5
26843,50594,5
26839,50588,4
26849,50598,5
26839,50597,5
26846,50594,5
26844,50602,5
26844,50595,4
26843,50602,5
26847,50605,5
26853,50594,5
26848,50611,5
26845,50615,4
26854,50606,5
26859,50608,5
26852,50619,5
26862,50621,5
26862,50621,4
26849,50612,5
26852,50616,5
26853,50617,5
26859,50612,4
26857,50614,5
26852,50616,5
26864,50603,5
26853,50610,5
26856,50606,4
26845,50610,5
26845,50607,5
26845,50612,5
26845,50601,5
26855,50601,4
26856,50606,5
26846,50610,5
26853,50604,5
26847,50608,5
26853,50610,4
26853,50610,5
26855,50602,4
26849,50608,5
26855,50605,4
26855,50616,6
26848,50614,3
26851,50613,5
26854,50617,5
26868,50628,4
26870,50623,5
26862,50637,5
26845,50633,5
26873,50638,5
26874,50652,4
26878,50641,5
26824,50656,5
26879,50647,5
26874,50647,5
26879,50650,4
26815,50639,5
26863,50631,5
26864,50637,5
26870,50630,5
26881,50634,4
26867,50631,5
26867,50624,6
26864,50632,4
26924,50625,5
26862,50628,4
26863,50630,5
26859,50624,5
26917,50620,5
26865,50621,4
26866,50626,5
26868,50620,5
26886,50633,5
26870,50624,5
26876,50642,4
26867,50635,5
26870,50627,5
26872,50648,5
26872,50637,5
26872,50642,4
26883,50601,5
26880,50651,5
26883,50644,5
26882,50656,5
26879,50600,4
26880,50651,5
26875,50639,5
26891,50656,6
26879,50635,4
26880,50663,4
26885,50660,5
26888,50666,5
26883,50710,5
26890,50664,4
26892,50666,4
26891,50664,5
26892,50730,5
26897,50675,5
26899,50669,4
26905,50670,5
26892,50695,5
26890,50673,5
26887,50668,5
26896,50669,4
26895,50680,5
26890,50660,5
26882,50659,5
26895,50669,5
26884,50659,5
26887,50660,4
26887,50659,5
26884,50656,5
26884,50656,6
26886,50656,3
26874,50652,5
26880,50655,5
26874,50648,5
26892,50664,4
26874,50654,4
26886,50667,5
26886,50660,5
26881,50655,5
26884,50664,4
26885,50658,5
26880,50653,5
26880,50657,5
26886,50655,5
26889,50662,4
26891,50664,5
26885,50662,5
26883,50665,5
26888,50665,5
26880,50664,4
26890,50662,6
26883,50663,4
26888,50665,5
26885,50665,5
26894,50670,6
26887,50664,3
26890,50675,5
26896,50664,5
26888,50668,5
26883,50673,4
26891,50680,5
26891,50666,5
26897,50664,5
26897,50671,4
26892,50677,4
26894,50672,5
26899,50675,5
26898,50689,5
26901,50695,4
26909,50692,5
26902,50693,5
26900,50696,5
26903,50693,5
26901,50696,4
26906,50688,5
26902,50685,6
26903,50686,4
26911,50682,5
26895,50684,4
26899,50680,5
26898,50677,5
26887,50680,5
26906,50682,5
26903,50683,4
26895,50683,5
26901,50682,5
26908,50676,8
26907,50684,1
26905,50706,4
26902,50687,5
26906,50684,5
26897,50684,5
26903,50689,4
26902,50687,5
26907,50682,5
26898,50685,5
26903,50688,5
26903,50689,4
26897,50678,5
26892,50680,5
26907,50681,6
26902,50674,4
26878,50677,4
26902,50687,5
26900,50671,5
26893,50667,5
26856,50670,5
26889,50670,4
26888,50664,5
26892,50674,5
26835,50662,5
26886,50659,5
26893,50666,4
26888,50658,5
26890,50653,5
26891,50661,5
26887,50662,4
26891,50668,5
26938,50658,5
26875,50657,5
26881,50651,5
26890,50645,5
26945,50649,4
26895,50660,5
26891,50657,5
26881,50665,6
26920,50668,3
26894,50662,5
26892,50662,5
26897,50668,5
26907,50671,5
26903,50673,4
26905,50664,5
26899,50662,5
26900,50631,5
26890,50671,5
26899,50667,4
26897,50672,5
26896,50615,5
26892,50671,5
26891,50673,4
26903,50672,5
26899,50634,5
26886,50675,5
26907,50668,5
26898,50674,5
26887,50697,5
26896,50673,4
26890,50665,5
26908,50674,5
26898,50728,4
26898,50669,5
26901,50684,5
26895,50677,5
26901,50716,5
26903,50670,4
26902,50686,5
26903,50673,5
26905,50698,5
26900,50679,5
26897,50683,4
26902,50687,5
26912,50682,5
26910,50694,5
26915,50696,4
26919,50697,4
26914,50702,5
26923,50706,5
26932,50720,5
26927,50710,4
26922,50720,5
26933,50711,6
26926,50708,4
26914,50699,5
26914,50687,4
26909,50687,5
26906,50689,5
26910,50683,5
26907,50668,5
26901,50670,4
26892,50666,5
26888,50651,5
26897,50660,5
26892,50651,5
26889,50653,4
26891,50652,5
26889,50651,5
26890,50646,5
26884,50654,4
26889,50656,4
26890,50644,5
26890,50644,5
26881,50645,5
26898,50640,4
26892,50649,5
26885,50638,5
26888,50635,6
26883,50642,4
26878,50629,4
26873,50631,5
26882,50626,5
26873,50624,5
26865,50608,5
26867,50610,4
26864,50604,5
26862,50601,5
26868,50587,5
26853,50596,5
26848,50586,4
26854,50576,5
26850,50573,5
26847,50576,5
26851,50578,5
26841,50567,4
26844,50576,5
26850,50571,5
26845,50564,5
26834,50557,5
26834,50551,4
26834,50538,5
26825,50529,5
26824,50531,5
26830,50532,4
26822,50528,5
26824,50527,5
26811,50518,5
26826,50515,5
26808,50521,4
26816,50517,5
26816,50515,5
26808,50514,5
26810,50501,5
26815,50504,4
26813,50500,5
26814,50503,5
26802,50509,5
26807,50495,5
26805,50505,4
26803,50504,5
26795,50503,5
26808,50496,5
26801,50487,4
26804,50494,5
26755,50486,4
26811,50494,5
26801,50493,5
26805,50502,4
26754,50490,5
26807,50487,5
26798,50492,5
26795,50476,5
26770,50462,4
26778,50451,5
26781,50461,5
26775,50457,5
26816,50469,5
26779,50471,4
26790,50487,5
26788,50470,5
26845,50473,5
26791,50483,5
26800,50498,4
26805,50492,5
26833,50499,5
26799,50486,5
26786,50474,4
26788,50476,4
26804,50484,6
26799,50503,4
26828,50546,5
26854,50584,4
26867,50571,5
26873,50615,5
26883,50632,5
26898,50659,5
26922,50645,4
26933,50729,5
26938,50725,5
26938,50721,5
26942,50675,5
26952,50756,4
26977,50796,5
27005,50837,5
27035,50911,5
27060,50947,5
27066,50954,4
27081,50983,5
27107,51076,5
27126,51072,5
27153,51124,5
27188,51190,4
27225,51297,5
27246,51278,5
27277,51333,5
27313,51410,4
27357,51508,5
27404,51556,5
27421,51595,5
27434,51596,5
27443,51612,4
27468,51662,5
27528,51797,5
27616,51947,5
27703,52090,5
27740,52157,4
27760,52170,5
27737,52134,5
27737,52151,5
27794,52258,5
27885,52413,4
27932,52476,4
27944,52477,5
27946,52481,5
27947,52499,6
27949,52517,3
27975,52555,5
27988,52579,5
28009,52613,5
28012,52608,4
28026,52624,4
28025,52649,5
28022,52618,5
27991,52579,5
28000,52588,4
27996,52601,5
27999,52590,5
27988,52568,5
27978,52551,5
27995,52595,4
28022,52662,5
28075,52740,5
28122,52843,5
28201,52960,5
28231,53012,4
28234,52993,6
28222,52956,4
28212,52963,5
28234,52994,5
28269,53068,6
28301,53131,3
28308,53109,5
28297,53099,5
28307,53121,4
28334,53174,4
28378,53271,5
28445,53399,5
28518,53513,5
28517,53495,4
28502,53458,5
28479,53407,5
28475,53428,5
28485,53441,5
28515,53514,4
28576,53634,5
28613,53683,5
28661,53761,5
28662,53752,5
28650,53706,4
28587,53610,5
28547,53550,6
28556,53556,4
28553,53572,5
28599,53665,4
28618,53666,5
28557,53537,5
28504,53455,5
28467,53409,5
28471,53427,4
28492,53450,5
28474,53423,5
28440,53351,5
28419,53307,4
28407,53289,5
28402,53264,5
28386,53245,5
28356,53204,5
28365,53237,4
28387,53249,5
28396,53282,5
28445,53359,5
28464,53480,5
28554,53544,4
28517,53473,5
28464,53363,5
28369,53312,6
28421,53333,4
28466,53406,4
28489,53457,5
28481,53475,5
28501,53445,5
28491,53428,5
28494,53464,4
28544,53474,5
28479,53393,5
28439,53324,5
28406,53266,4
28432,53207,4
28352,53197,5
28388,53267,5
28461,53407,5
28566,53504,4
28529,53510,5
28497,53444,5
28459,53391,5
28464,53367,5
28443,53352,5
28447,53367,4
28467,53396,5
28475,53378,5
28450,53367,6
28416,53294,3
28376,53219,5
28337,53141,5
28337,53176,5
28336,53170,5
28303,53067,4
28220,52863,5
28179,52847,5
28151,52829,5
28141,52825,5
28140,52791,4
28118,52751,5
28087,52723,5
28085,52716,5
28084,52749,4
28041,52612,5
27996,52552,5
27993,52546,5
28004,52619,5
27999,52530,4
27957,52484,6
27950,52459,4
27946,52468,5
27932,52427,5
27916,52399,4
27883,52352,5
27861,52328,5
27839,52291,5
27844,52287,5
27847,52299,4
27852,52316,5
27863,52320,5
27841,52289,5
27827,52267,5
27803,52213,4
27767,52169,5
27768,52177,5
27791,52205,5
27812,52241,4
27803,52224,5
27800,52227,5
27800,52204,5
27763,52147,5
27728,52084,4
27717,52070,5
27702,52030,6
27684,52007,4
27682,51998,5
27666,51993,4
27654,51974,5
27652,51976,5
27673,52006,5
27683,52026,5
27683,52031,4
27672,52001,5
27637,51929,5
27621,51921,5
27633,51947,5
27642,51964,4
27664,52007,5
27691,52026,5
27677,52012,5
27668,51987,4
27651,51976,4
27657,51979,5
27670,51999,5
27680,52013,5
27668,51999,4
27677,52030,5
27691,52049,5
27714,52073,6
27739,52132,4
27763,52148,4
27737,52093,5
27712,52056,5
27697,52030,5
27710,52063,5
27753,52155,4
27800,52221,5
27820,52246,5
27805,52216,5
27789,52179,5
27756,52143,4
27762,52132,5
27755,52132,5
27754,52125,5
27741,52098,4
27719,52053,4
27713,52068,5
27727,52080,5
27725,52079,5
27719,52047,5
27703,52024,4
27703,52027,5
27710,52048,6
27736,52082,4
27741,52076,4
27723,52071,5
27729,52057,5
27729,52070,5
27714,52024,5
27695,51998,4
27667,51956,5
27642,51922,5
27613,51861,5
27580,51802,5
27539,51757,4
27495,51726,5
27500,51694,5
27491,51677,5
27471,51646,5
27413,51627,4
27433,51586,5
27421,51578,5
27436,51605,5
27411,51627,4
27463,51628,6
27452,51616,4
27422,51557,5
27391,51492,5
27353,51427,4
27327,51372,5
27291,51328,5
27333,51320,5
27282,51323,5
27287,51316,4
27271,51306,5
27316,51270,5
27224,51227,5
27218,51220,5
27223,51206,4
27238,51194,5
27195,51162,5
27184,51116,5
27147,51048,5
27114,50987,4
27098,50966,5
27088,50926,5
27074,50893,5
27034,50789,4
27003,50727,4
26971,50671,6
26957,50661,4
26969,50643,5
26985,50703,4
26982,50714,5
26994,50732,5
27006,50709,5
26991,50716,5
26969,50669,4
26946,50628,5
26938,50642,5
26907,50575,5
26895,50541,5
26884,50524,4
26875,50567,5
26877,50496,5
26881,50502,5
26865,50487,5
26847,50492,4
26818,50400,5
26799,50343,5
26787,50311,6
26784,50319,4
26769,50299,4
26767,50277,5
26752,50251,7
26752,50250,3
26750,50245,4
26756,50244,5
26736,50232,5
26720,50181,5
26698,50147,5
26684,50100,4
26651,50058,5
26633,50032,5
26614,50000,5
26594,49945,5
26555,49881,4
26516,49812,5
26488,49770,5
26469,49726,5
26450,49714,5
26429,49658,4
26388,49566,5
26333,49482,5
26294,49415,5
26268,49366,5
26245,49324,4
26229,49315,5
26225,49288,5
26208,49273,5
26218,49272,4
26211,49264,4
26184,49201,5
26162,49148,5
26136,49097,5
26109,49052,4
26069,48996,5
26033,48930,5
25998,48861,5
25977,48827,5
25958,48798,4
25936,48769,5
25937,48777,5
25949,48798,5
25944,48774,5
25919,48712,4
25883,48665,5
25875,48652,5
25862,48635,5
25838,48586,5
25808,48537,5
25782,48491,4
25769,48465,5
25758,48450,5
25731,48415,4
25701,48358,4
25669,48295,5
25618,48202,5
25572,48120,5
25529,48048,4
25495,48009,5
25476,47971,5
25459,47924,5
25422,47860,5
25381,47808,4
25363,47758,5
25343,47728,5
25336,47697,5
25305,47646,5
25250,47545,4
25210,47469,5
25173,47402,5
25141,47309,5
25075,47204,5
25014,47085,4
24935,46951,6
24866,46821,4
24823,46765,5
24782,46694,5
24757,46659,4
24745,46649,5
24752,46670,5
24753,46693,5
24761,46694,4
24782,46734,4
24799,46803,5
24823,46892,5
24890,46945,5
24908,46952,4
24906,46974,5
24900,47058,5
25008,47137,5
25023,47150,5
25056,47232,4
25110,47349,5
25190,47444,5
25181,47402,6
25176,47425,4
25280,47528,4
25274,47559,5
25270,47554,5
25267,47556,5
25325,47577,5
25296,47608,4
25285,47593,5
25279,47571,5
25301,47560,5
25306,47619,4
25326,47657,4
25327,47648,5
25330,47649,5
25307,47605,5
25299,47597,4
25292,47579,5
25274,47513,5
25235,47456,5
25197,47397,5
25150,47340,5
25164,47303,4
25172,47347,5
25170,47357,5
25141,47284,6
25076,47131,3
25061,47195,5
25106,47271,5
25119,47270,5
25066,47179,5
25015,47101,4
24998,47083,5
24996,47079,5
24989,47118,5
24966,47059,5
24943,47002,4
24915,46963,5
24915,47018,5
24920,46970,5
24900,46932,4
24829,46839,4
24811,46823,5
24814,46789,5
24786,46747,5
24755,46712,4
24754,46669,6
24732,46646,4
24738,46622,5
24716,46612,5
24710,46599,6
24706,46588,3
24701,46582,5
24711,46585,5
24710,46570,5
24663,46484,4
24626,46436,5
24624,46438,5
24628,46450,5
24642,46451,5
24623,46421,4
24617,46406,5
24623,46443,5
24631,46432,5
24614,46405,4
24598,46374,4
24561,46326,5
24534,46282,5
24535,46292,5
24543,46299,4
24560,46321,5
24537,46288,6
24498,46223,4
24465,46191,5
24449,46174,4
24449,46152,5
24436,46113,5
24413,46122,5
24433,46152,5
24456,46188,4
24460,46179,5
24442,46139,5
24428,46120,5
24455,46161,5
24458,46167,4
24459,46174,5
24471,46190,5
24486,46197,5
24496,46220,5
24516,46252,4
24529,46284,5
24545,46310,5
24559,46344,5
24572,46357,4
24553,46321,5
24514,46288,5
24504,46257,6
24505,46272,4
24506,46262,4
24490,46240,5
24451,46196,5
24456,46202,5
24447,46207,5
24406,46131,4
24354,46056,5
24310,45963,5
24239,45854,5
24208,45808,5
24177,45797,4
24186,45799,5
24159,45758,5
24155,45746,5
24149,45745,5
24139,45714,4
24126,45686,5
24118,45697,5
24083,45635,5
24049,45576,5
24035,45569,4
24028,45558,5
23990,45489,5
23948,45440,6
23949,45453,3
23936,45432,5
23883,45335,5
23781,45197,5
23713,45104,5
23722,45173,4
23800,45249,5
23802,45235,5
23789,45237,5
23727,45227,5
23795,45235,4
23803,45261,5
23856,45339,5
23807,45314,5
23869,45364,5
23863,45351,4
23878,45378,5
23918,45389,5
23911,45428,5
23969,45528,4
23999,45600,5
24120,45718,4
24122,45780,5
24108,45746,5
24099,45757,4
24180,45837,5
24197,45927,5
24263,46052,5
24349,46218,5
24477,46370,4
24502,46422,5
24514,46438,5
24478,46366,5
24485,46394,5
24597,46600,4
24694,46756,5
24774,46852,5
24815,46856,5
24832,46929,5
24833,46918,4
24820,46891,5
24826,46856,5
24853,46973,5
24912,47089,5
24938,47103,5
24927,47084,5
24945,47123,4
24988,47221,5
25043,47303,4
25077,47404,4
25120,47448,5
25178,47544,5
25205,47537,5
25188,47554,4
25172,47494,5
25186,47529,5
25219,47598,5
25245,47664,5
25234,47599,4
25216,47591,5
25193,47553,5
25168,47537,5
25169,47525,5
25190,47580,4
25251,47687,5
25306,47787,5
25341,47861,5
25381,47940,5
25417,48008,4
25472,48092,5
25476,48097,6
25476,48095,4
25489,48177,4
25623,48435,4
25730,48601,5
25767,48618,5
25740,48577,5
25729,48571,4
25795,48686,5
25797,48658,5
25745,48579,5
25695,48499,5
25689,48504,4
25718,48569,5
25743,48598,5
25716,48545,5
25674,48490,5
25698,48544,4
25707,48547,5
25677,48500,5
25649,48456,5
25646,48449,5
25672,48513,4
25729,48627,5
25806,48740,5
25862,48811,5
25851,48773,5
25867,48845,4
25961,48989,5
25971,48982,5
25933,48911,5
25883,48848,4
25869,48821,5
25869,48816,5
25872,48841,5
25895,48853,5
25912,48898,4
25898,48836,5
25839,48756,5
25859,48781,5
25873,48792,5
25896,48835,4
25961,48926,5
25991,48961,5
25994,48932,5
25896,48752,5
25787,48530,5
25692,48393,4
25647,48347,5
25671,48376,5
25646,48305,5
25590,48210,4
25535,48133,5
25553,48192,5
25564,48210,5
25585,48233,4
25570,48195,4
25479,48075,5
25513,48133,5
25534,48171,5
25514,48116,4
25473,48058,9
25451,48023,1
25449,48016,5
25445,48039,5
25400,47910,4
25277,47727,5
25227,47675,5
25275,47781,5
25272,47715,5
25236,47677,4
25242,47690,6
25157,47576,4
25168,47562,5
25174,47579,5
25177,47567,4
25063,47422,5
25043,47333,5
25048,47387,5
25102,47487,4
25089,47506,4
25131,47499,5
25118,47443,5
25042,47332,5
25019,47279,4
24998,47262,5
25007,47274,5
24993,47257,5
25073,47315,5
25081,47419,4
25130,47484,5
25156,47502,5
25173,47444,5
25113,47440,5
25117,47452,4
25145,47503,5
25181,47523,6
25169,47527,4
25156,47528,5
25178,47532,4
25166,47506,5
25162,47524,5
25147,47496,5
25147,47492,5
25154,47467,4
25162,47498,5
25153,47481,5
25142,47473,5
25122,47380,4
25073,47348,4
25016,47242,5
24974,47183,5
24969,47070,5
24917,47007,4
24855,46900,5
24799,46783,5
24739,46692,5
24633,46480,5
24535,46294,4
24441,46154,5
24377,46120,5
24337,45979,5
24257,45843,5
24179,45731,4
24103,45627,5
23996,45414,5
23890,45232,5
23815,45111,5
23766,45034,4
23707,44917,5
23622,44760,5
23529,44608,5
23454,44475,4
23369,44316,4
23291,44126,5
23198,43974,5
23136,43811,5
23062,43695,4
23017,43593,5
22995,43511,5
22969,43461,5
22950,43404,5
22927,43315,5
22930,43217,4
22906,43087,5
22825,42889,5
22745,42734,5
22676,42576,4
22616,42451,5
22552,42324,5
22489,42209,5
22441,42069,5
22390,41948,4
22321,41837,5
22266,41682,5
22198,41549,5
22142,41410,5
22072,41288,4
21821,41155,5
21760,41051,5
21701,40994,5
21677,40948,4
21646,40914,5
21643,40881,6
21599,40751,4
21572,40672,5
21544,40590,4
21528,40518,7
21497,40464,3
21467,40401,5
21472,40339,5
21448,40296,4
21445,40257,5
21433,40229,5
21420,40189,5
21401,40151,5
21372,40111,4
21357,40077,5
21335,40040,5
21324,40013,5
21311,39982,5
21296,39958,4
21288,39927,5
21277,39887,5
21263,39867,5
21255,39839,4
21252,39824,4
21238,39811,5
21223,39803,6
21222,39787,4
21215,39755,4
21192,39736,5
21180,39724,5
21176,39710,5
21186,39714,5
21190,39714,4
21182,39712,5
21175,39712,5
21179,39698,5
21173,39675,5
21150,39661,4
21159,39665,5
21189,39728,5
21234,39805,5
21262,39857,5
21289,39919,4
21327,39999,5
21360,40054,5
21378,40079,5
21380,40093,5
21386,40095,4
21375,40092,5
21371,40073,5
21305,40041,6
21329,40007,3
21307,39969,5
21291,39921,5
21209,39875,5
21244,39829,5
21234,39800,4
21213,39768,5
21198,39756,5
21202,39727,5
21194,39726,5
21183,39722,4
21225,39720,5
21189,39715,5
21187,39723,5
21191,39721,5
21243,39722,4
21185,39720,5
21189,39712,5
21183,39710,5
21205,39705,5
21174,39698,5
21174,39700,4
21174,39703,5
21179,39686,5
21169,39675,6
21163,39667,3
21154,39660,5
21149,39618,5
21146,39641,5
21145,39629,4
21146,39626,5
21135,39559,5
21125,39593,5
21121,39572,5
21103,39545,5
21094,39466,4
21070,39476,5
21059,39438,5
21035,39396,5
21026,39384,4
21006,39334,5
20990,39303,5
20979,39262,5
20950,39268,5
20933,39168,4
20926,39140,6
20914,39120,4
20904,39154,5
20890,39083,4
20879,39061,4
20864,39048,5
20855,39033,5
20848,39005,5
20845,38995,4
20842,38973,5
20826,38956,5
20819,38943,5
20805,38921,5
20794,38908,4
20788,38897,5
20781,38882,5
20769,38865,5
20768,38852,5
20745,38845,4
20749,38847,5
20756,38849,5
20756,38843,5
20746,38828,5
20742,38819,4
20732,38824,5
20730,38814,6
20732,38806,4
20739,38817,4
20735,38810,4
20731,38810,5
20740,38804,5
20734,38805,5
20731,38795,4
20737,38803,5
20745,38814,5
20750,38819,5
20750,38837,5
20752,38838,4
20745,38832,5
20745,38822,5
20742,38818,5
20727,38798,5
20729,38802,4
20732,38806,5
20726,38805,5
20737,38814,5
20734,38824,5
20742,38831,4
20752,38849,5
20760,38862,5
20780,38898,6
20787,38918,4
20801,38934,4
20804,38951,5
20804,38957,5
20813,38954,5
20811,38955,4
20808,38952,4
20809,38957,5
20799,38951,5
20808,38956,5
20815,38965,4
20813,38972,5
20823,38987,5
20819,38987,5
20821,38978,5
20810,38975,4
20815,38961,5
20803,38940,5
20800,38918,5
20782,38900,5
20774,38881,5
20755,38854,4
20749,38839,5
20734,38814,5
20725,38811,5
20729,38807,4
20724,38809,5
20731,38806,5
20740,38817,5
20737,38831,4
20736,38831,4
20743,38838,5
20736,38837,5
20737,38843,5
20748,38855,4
20751,38848,5
20750,38859,5
20748,38845,5
20738,38833,5
20725,38816,4
20680,38795,5
20708,38784,5
20693,38760,5
20680,38731,5
20612,38702,4
20642,38665,6
20640,38643,4
20617,38618,5
20599,38615,5
20618,38614,4
20615,38602,5
20617,38615,5
20652,38610,5
20617,38605,4
20616,38609,4
20604,38595,5
20674,38592,5
20604,38588,5
20614,38597,4
20616,38611,5
20664,38608,5
20621,38611,5
20624,38609,5
20621,38610,4
20625,38607,5
20625,38607,5
20616,38598,5
20618,38589,5
20607,38549,4
20600,38562,5
20595,38551,6
20591,38541,4
20578,38471,5
20571,38520,4
20574,38507,5
20574,38504,5
20573,38452,5
20568,38509,5
20569,38503,4
20566,38489,5
20565,38499,5
20551,38460,5
20549,38443,4
20528,38425,5
20531,38469,5
20513,38375,5
20493,38341,5
20483,38306,4
20465,38332,5
20436,38228,5
20427,38176,5
20396,38127,6
20359,38084,3
20330,37992,5
20304,37928,5
20276,37894,5
20254,37857,5
20237,37810,4
20211,37779,5
20192,37742,5
20188,37719,5
20172,37695,5
20172,37693,4
20169,37681,5
20166,37682,5
20167,37671,5
20154,37658,4
20154,37634,4
20134,37608,5
20125,37603,5
20123,37594,5
20118,37569,4
20108,37567,5
20100,37554,5
20103,37543,5
20097,37519,5
20087,37519,5
20080,37511,4
20090,37508,5
20079,37487,5
20078,37475,5
20080,37484,4
20076,37482,5
20080,37481,5
20085,37502,5
20091,37495,5
20086,37506,4
20094,37520,5
20096,37514,5
20091,37528,5
20103,37546,4
20113,37555,4
20111,37547,5
20112,37563,5
20116,37575,5
20121,37580,4
20129,37586,5
20132,37577,5
20133,37584,5
20121,37580,5
20128,37588,4
20130,37596,6
20137,37604,4
20144,37618,5
20149,37625,5
20152,37633,4
20156,37643,5
20159,37667,5
20173,37683,5
20187,37718,5
20202,37747,4
20222,37763,5
20237,37794,5
20242,37812,5
20251,37822,5
20271,37853,4
20273,37887,5
20289,37909,5
20294,37932,5
20314,37953,4
20324,37975,5
20336,37990,5
20339,37995,5
20344,38011,5
20351,38020,4
20355,38025,5
20360,38026,6
20358,38040,4
20373,38041,5
20377,38060,6
20384,38077,3
20405,38100,5
20413,38125,5
20429,38152,5
20440,38181,4
20446,38194,5
20466,38224,5
20428,38241,5
20485,38269,5
20486,38297,4
20509,38328,5
20461,38337,5
20528,38349,5
20542,38361,4
20535,38373,4
20496,38362,5
20533,38365,5
20520,38349,5
20523,38348,4
20537,38336,5
20510,38338,5
20520,38336,5
20518,38331,5
20572,38330,4
20521,38336,5
20517,38356,5
20527,38341,5
20566,38353,5
20524,38356,4
20524,38367,5
20536,38379,5
20555,38365,5
20531,38366,5
20527,38370,4
20523,38349,5
20520,38315,5
20509,38329,5
20502,38305,5
20491,38288,5
20493,38229,4
20470,38266,5
20466,38252,5
20461,38240,6
20461,38164,3
20443,38222,5
20459,38215,5
20447,38214,5
20446,38217,4
20451,38207,5
20450,38214,5
20454,38228,5
20454,38276,5
20455,38227,4
20457,38230,5
20454,38234,5
20456,38290,5
20438,38202,5
20433,38194,4
20432,38175,5
20412,38199,5
20414,38148,5
20410,38151,5
20402,38147,4
20407,38153,6
20398,38133,4
20410,38147,5
20402,38144,4
20405,38154,6
20416,38153,3
20407,38156,5
20410,38162,5
20416,38169,4
20421,38170,5
20423,38178,5
20422,38190,5
20432,38195,5
20438,38203,4
20440,38199,5
20441,38213,5
20432,38205,5
20429,38192,5
20412,38161,4
20400,38138,5
20386,38117,5
20372,38102,5
20371,38095,5
20361,38087,4
20358,38078,5
20348,38072,6
20345,38056,4
20346,38070,4
20344,38071,4
20350,38068,5
20343,38066,5
20342,38060,5
20334,38048,4
20324,38033,5
20315,38019,5
20308,37988,5
20303,37960,5
20280,37947,4
20260,37918,5
20256,37907,5
20247,37884,5
20234,37864,5
20218,37844,4
20219,37833,5
20216,37821,5
20199,37804,5
20188,37803,5
20193,37785,4
20188,37785,5
20188,37776,5
20178,37777,6
20174,37787,4
20189,37793,4
20191,37802,5
20197,37817,5
20209,37837,5
20215,37848,4
20223,37878,4
20241,37891,5
20245,37932,5
20263,37941,5
20282,37969,4
20278,37989,5
20293,38007,5
20312,38034,5
20318,38043,5
20320,38068,4
20332,38071,5
20337,38093,5
20344,38098,5
20350,38113,5
20360,38129,5
20365,38161,4
20384,38171,5
20384,38180,5
20378,38194,6
20392,38186,3
20383,38192,5
20377,38190,5
20368,38181,5
20365,38170,4
20326,38167,4
20351,38155,5
20337,38136,5
20335,38120,5
20264,38104,4
20309,38097,5
20312,38084,5
20310,38086,5
20248,38079,5
20309,38084,4
20319,38083,5
20312,38075,5
20319,38069,5
20310,38064,5
20311,38081,4
20317,38108,6
20382,38127,4
20350,38157,5
20363,38186,5
20384,38212,4
20466,38238,5
20409,38258,5
20420,38271,5
20440,38284,5
20466,38283,4
20457,38294,5
20459,38313,5
20453,38308,5
20465,38300,4
20465,38298,5
20455,38300,5
20455,38290,5
20455,38249,5
20458,38278,4
20443,38281,5
20444,38270,5
20442,38217,5
20428,38260,5
20418,38241,4
20397,38210,5
20386,38165,6
20371,38177,4
20364,38163,5
20364,38160,4
20371,38189,5
20363,38142,5
20363,38143,5
20364,38141,5
20362,38214,4
20362,38166,5
20377,38176,5
20384,38197,5
20403,38267,4
20412,38248,4
20430,38277,5
20454,38306,5
20478,38356,5
20486,38384,4
20514,38413,5
20525,38447,5
20546,38474,5
20563,38512,5
20572,38527,4
20585,38552,5
20593,38578,5
20604,38587,6
20620,38601,4
20614,38607,4
20620,38625,5
20626,38626,5
20631,38641,5
20628,38638,5
20634,38646,4
20642,38657,5
20646,38656,5
20642,38658,5
20649,38672,5
20656,38679,4
20665,38685,5
20660,38684,5
20668,38685,5
20660,38684,4
20662,38685,5
20664,38674,5
20661,38681,5
20653,38673,5
20664,38674,5
20661,38661,4
20654,38654,5
20647,38653,5
20644,38651,5
20638,38639,4
20636,38639,5
20634,38634,5
20633,38626,5
20629,38630,5
20622,38602,4
20611,38596,5
20612,38576,5
20603,38568,5
20595,38549,5
20588,38546,4
20581,38526,5
20580,38527,5
20570,38521,5
20569,38501,4
20563,38502,4
20559,38489,5
20564,38487,5
20555,38482,5
20548,38487,4
20553,38475,6
20549,38484,4
20551,38488,5
20549,38485,5
20540,38486,4
20542,38475,5
20531,38475,5
20527,38464,5
20520,38455,5
20515,38436,4
20508,38433,5
20499,38410,5
20486,38396,5
20484,38387,5
20475,38370,4
20467,38366,5
20466,38363,5
20470,38374,5
20467,38366,4
20462,38368,4
20468,38363,5
20468,38372,5
20474,38371,5
20472,38377,4
20478,38377,5
20470,38379,6
20468,38401,4
20480,38401,5
20494,38425,4
20497,38428,5
20453,38438,5
20496,38438,5
20503,38445,5
20492,38447,4
20437,38441,5
20494,38432,5
20493,38432,5
20488,38449,5
20481,38457,4
20513,38484,5
20519,38493,5
20526,38513,5
20572,38524,5
20535,38538,4
20552,38548,5
20561,38564,5
20618,38561,5
20569,38571,4
20570,38580,5
20576,38592,5
20617,38602,5
20588,38624,5
20606,38635,4
20615,38662,5
20635,38679,5
20639,38702,5
20648,38739,5
20659,38748,4
20676,38742,5
20683,38791,5
20680,38790,5
20691,38800,5
20700,38760,4
20702,38822,5
20702,38828,5
20710,38844,5
20715,38802,5
20721,38875,4
20736,38877,5
20749,38890,5
20755,38941,5
20766,38939,5
20775,38966,4
20795,38991,5
20807,39068,5
20806,39036,5
20823,39056,4
20846,39082,5
20854,39138,5
20851,39084,5
20850,39090,5
20853,39096,4
20856,39121,5
20859,39107,5
20869,39123,5
20884,39143,5
20882,39150,4
20896,39159,5
20906,39188,5
20912,39202,5
20920,39225,5
20937,39242,4
20939,39273,5
20959,39275,5
20963,39295,5
20973,39309,5
20971,39316,5
20986,39332,4
20994,39349,5
20996,39356,5
21001,39382,4
21018,39387,5
21029,39409,5
21027,39414,5
21036,39418,5
21033,39427,4
21037,39440,5
21043,39442,5
21048,39444,5
21045,39442,5
21034,39436,4
21041,39439,5
21040,39438,5
21043,39439,5
21037,39435,5
21037,39435,4
21044,39433,5
21042,39444,5
21039,39452,5
21042,39452,5
21048,39458,4
21039,39449,6
21046,39452,3
21045,39454,5
21045,39463,4
21065,39477,4
21061,39474,5
21071,39494,5
21070,39487,5
21066,39489,4
21071,39493,5
21075,39489,5
21073,39506,5
21066,39498,5
21076,39503,4
21078,39502,5
21083,39511,5
21078,39509,5
21082,39506,5
21083,39522,4
21088,39525,5
21088,39521,5
21097,39532,6
21091,39533,4
21088,39535,4
21090,39548,5
21099,39553,5
21101,39558,5
21107,39562,5
21108,39573,4
21119,39581,5
21127,39593,5
21126,39601,5
21126,39607,4
21129,39607,5
21133,39610,5
21129,39618,5
21132,39620,5
21152,39642,4
21152,39658,5
21166,39666,5
21169,39676,5
21170,39684,5
21170,39685,5
21167,39679,4
21171,39681,5
21168,39687,5
21134,39692,6
21179,39695,3
21184,39697,5
21190,39720,5
21136,39725,5
21212,39741,5
21207,39744,4
21214,39755,5
21187,39754,5
21212,39762,5
21214,39762,4
21215,39767,4
21250,39755,5
21211,39759,5
21207,39759,5
21213,39751,4
21271,39745,5
21202,39745,5
21202,39742,5
21201,39754,5
21247,39758,4
21211,39762,6
21214,39758,4
21221,39768,5
21243,39774,5
21229,39793,6
21233,39796,3
21241,39805,5
21248,39793,5
21240,39817,5
21247,39821,4
21251,39835,5
21255,39785,5
21256,39846,5
21264,39847,4
21269,39860,4
21268,39806,5
21268,39874,5
21283,39880,5
21272,39882,5
21279,39898,4
21292,39899,5
21296,39910,5
21291,39918,5
21292,39971,4
21302,39931,5
21303,39943,6
21302,39936,4
21306,40006,5
21311,39943,4
21315,39959,5
21319,39967,5
21324,39999,5
21331,39980,5
21330,39977,4
21337,39991,5
21343,40005,5
21347,40007,5
21354,40006,5
21350,40031,4
21361,40033,5
21361,40042,5
21368,40040,5
21371,40048,4
21364,40046,5
21370,40043,5
21361,40031,5
21363,40035,5
21352,40021,4
21348,40012,5
21349,40005,5
21349,40004,6
21346,40006,4
21340,40008,4
21348,40002,5
21341,40004,5
21339,39996,5
21346,39996,5
21338,40000,4
21344,39997,5
21347,39996,5
21348,40005,5
21344,40002,5
21331,39988,4
21336,39989,5
21330,39990,5
21334,39974,5
21322,39970,4
21320,39959,4
21318,39959,5
21311,39943,5
21307,39941,5
21316,39948,5
21312,39932,4
21303,39941,5
21307,39938,5
21315,39928,6
21304,39933,3
21301,39939,5
21311,39939,5
21314,39932,5
21310,39939,5
21311,39941,4
21312,39944,5
21313,39943,5
21313,39934,5
21314,39942,5
21306,39952,4
21304,39942,5
21316,39951,5
21320,39948,5
21316,39946,4
21324,39948,4
21323,39956,5
21319,39941,5
21316,39947,5
21320,39947,4
21319,39940,6
21318,39944,4
21316,39947,5
21314,39943,5
21316,39955,4
21319,39957,5
21328,39956,5
21326,39970,5
21332,39961,5
21325,39966,4
21331,39969,5
21332,39979,5
21342,39984,5
21335,39981,5
21338,39988,4
21340,39989,5
21340,39994,5
21342,40001,5
21344,40008,5
21345,40003,4
21317,40007,5
21342,40005,5
21348,40006,5
21350,40000,4
21290,39996,5
21341,39988,6
21340,39996,4
21342,39999,5
21282,39985,4
21334,39996,5
21343,39984,5
21340,39995,5
21361,39996,5
21344,40001,4
21345,40006,5
21352,40011,5
21408,40012,5
21354,40019,5
21345,40017,4
21357,40018,5
21409,40026,5
21350,40018,5
21353,40030,5
21357,40025,4
21371,40033,5
21355,40021,5
21362,40026,5
21368,40024,4
21358,40015,4
21363,40027,5
21367,40045,6
21373,40055,4
21375,40010,4
21381,40068,5
21378,40068,5
21385,40075,5
21387,40014,5
21380,40080,4
21390,40073,5
21397,40074,5
21390,40074,5
21395,40083,5
21397,40086,4
21392,40095,5
21396,40142,5
21399,40095,5
21398,40093,5
21396,40081,4
21393,40147,5
21380,40082,5
21392,40081,5
21387,40072,5
21386,40105,4
21384,40063,5
21391,40059,5
21380,40060,5
21375,40056,4
21375,40040,5
21367,40035,5
21356,40032,5
21357,40031,5
21367,40025,4
21359,40029,5
21364,40032,5
21356,40034,5
21360,40031,5
21363,40024,4
21369,40038,5
21363,40034,5
21360,40047,5
21367,40030,5
21358,40032,4
21368,40033,5
21361,40035,5
21358,40019,5
21359,40024,5
21362,40034,5
21365,40029,4
21354,40026,5
21349,40029,5
21355,40019,4
21354,40011,4
21353,40008,5
21341,39994,5
21336,39993,5
21327,39975,4
21328,39968,5
21333,39975,5
21331,39984,5
21335,39978,5
21338,39985,4
21337,39999,5
21337,40000,5
21335,39999,5
21345,40004,5
21342,40016,4
21353,40021,5
21360,40029,5
21357,40023,5
21360,40014,5
21349,40031,4
21362,40028,6
21360,40038,4
21366,40056,5
21371,40056,4
21378,40064,4
21382,40069,5
21383,40072,5
21385,40065,5
21385,40080,4
21385,40085,5
21389,40091,5
21399,40095,5
21401,40110,5
21405,40128,4
21411,40130,5
21412,40127,5
21425,40136,5
21424,40151,5
21429,40172,4
21429,40167,5
21436,40176,5
21445,40176,5
21443,40184,5
21445,40198,4
21448,40188,5
21454,40197,5
21452,40203,5
21449,40204,5
21446,40199,4
21451,40202,5
21454,40208,5
21456,40210,5
21449,40210,4
21458,40209,5
21451,40206,5
21459,40203,5
21436,40204,5
21463,40216,4
21456,40212,5
21458,40206,5
21402,40210,5
21457,40195,5
21451,40205,4
21463,40218,5
21399,40216,5
21460,40222,5
21461,40226,5
21477,40230,4
21469,40239,5
21474,40233,5
21477,40238,5
21475,40239,5
21525,40253,4
21480,40252,5
21481,40262,5
21488,40265,5
21550,40278,4
21498,40284,4
21496,40278,5
21491,40281,5
21527,40286,5
21494,40270,4
21488,40272,5
21490,40276,5
21496,40270,5
21488,40280,5
21489,40278,4
21498,40265,6
21491,40234,4
21494,40264,5
21487,40275,5
21493,40267,6
21489,40226,3
21494,40278,5
21496,40281,5
21497,40280,5
21504,40250,4
21496,40278,5
21491,40283,5
21495,40278,5
21506,40316,5
21498,40289,4
21489,40282,5
21495,40278,5
21490,40337,5
21492,40282,4
21500,40281,5
21503,40286,5
21502,40328,5
21505,40298,5
21504,40295,4
21516,40301,5
21506,40316,6
21511,40308,4
21518,40313,5
21522,40322,4
21529,40326,7
21518,40314,3
21524,40323,5
21512,40317,5
21515,40321,4
21523,40314,5
21514,40322,5
21521,40307,5
21515,40312,5
21515,40305,4
21508,40307,5
21517,40302,5
21520,40304,5
21513,40310,4
21516,40310,4
21503,40300,5
21516,40300,5
21514,40311,5
21511,40319,4
21513,40321,5
21520,40318,5
21516,40335,6
21525,40328,4
21516,40320,4
21516,40325,5
21531,40326,5
21531,40342,5
21529,40340,5
21532,40342,4
21532,40337,5
21529,40335,5
21529,40346,5
21522,40336,5
21527,40328,4
21529,40342,5
21528,40327,5
21527,40333,5
21528,40331,4
21521,40336,4
21529,40347,5
21532,40351,5
21537,40349,5
21536,40347,5
21530,40365,4
21535,40364,5
21540,40365,5
21539,40365,6
21541,40361,3
21541,40362,5
21542,40358,5
21542,40353,5
21541,40361,5
21542,40352,4
21544,40361,5
21543,40358,5
21542,40368,5
21539,40358,5
21538,40365,4
21544,40372,5
21547,40373,5
21537,40359,5
21538,40364,5
21540,40361,4
21537,40370,5
21549,40368,5
21543,40368,5
21550,40382,4
21553,40391,6
21563,40390,4
21552,40395,5
21554,40404,5
21565,40397,6
21562,40406,3
21567,40405,5
21574,40417,5
21569,40423,5
21569,40422,4
21561,40424,5
21583,40432,7
21576,40434,3
21591,40433,5
21541,40443,4
21588,40449,5
21594,40449,5
21591,40448,5
21536,40447,5
21590,40445,4
21586,40445,5
21591,40448,5
21573,40454,5
21586,40457,4
21589,40452,4
21594,40448,6
21617,40446,4
21584,40441,5
21582,40436,4
21583,40442,5
21640,40436,5
21575,40433,5
21579,40422,5
21576,40425,4
21608,40417,5
21574,40419,5
21569,40411,5
21560,40407,5
21577,40408,4
21559,40409,5
21559,40408,5
21569,40405,5
21559,40375,5
21566,40407,4
21562,40392,5
21558,40399,5
21561,40344,5
21557,40394,4
21556,40395,4
21555,40378,5
21546,40320,6
21551,40376,4
21552,40371,4
21553,40377,6
21556,40384,4
21544,40360,5
21542,40354,5
21548,40358,4
21530,40410,5
21546,40356,5
21535,40354,5
21536,40359,5
21533,40417,4
21531,40351,5
21542,40346,5
21540,40354,5
21534,40373,5
21536,40344,4
21533,40346,5
21535,40346,5
21529,40353,5
21536,40343,5
21532,40345,4
21537,40344,5
21529,40342,5
21529,40341,6
21536,40338,3
21531,40334,5
21529,40336,5
21532,40333,5
21527,40332,5
21523,40330,4
21519,40333,5
21522,40322,5
21529,40322,5
21520,40330,5
21522,40320,4
21514,40320,5
21531,40324,5
21522,40315,5
21520,40316,5
21518,40321,4
21514,40312,5
21516,40304,5
21504,40305,5
21512,40310,5
21514,40312,5
21512,40309,4
21508,40302,5
21509,40304,5
21499,40295,4
21508,40299,4
21506,40297,5
21504,40290,5
21509,40302,5
21501,40297,4
21495,40294,5
21506,40294,5
21508,40297,5
21498,40292,5
21504,40284,4
21504,40294,5
21500,40287,5
21491,40290,5
21493,40278,5
21500,40278,4
21496,40273,5
21492,40282,5
21497,40281,5
21489,40281,5
21491,40282,4
21500,40290,6
21499,40287,4
21500,40292,5
21505,40292,4
21503,40300,4
21505,40290,5
21501,40295,5
21499,40294,5
21505,40290,4
21500,40301,5
21511,40295,5
21509,40307,5
21508,40308,5
21515,40310,4
21517,40306,5
21517,40316,5
21520,40314,5
21519,40317,5
21520,40323,4
21519,40322,5
21535,40330,5
21529,40339,5
21528,40340,5
21537,40339,4
21532,40347,5
21538,40353,6
21538,40349,4
21542,40363,5
21545,40365,4
21548,40372,5
21517,40374,5
21556,40383,5
21563,40383,4
21555,40386,5
21512,40390,5
21565,40395,5
21557,40399,5
21564,40406,4
21530,40405,5
21573,40408,5
21569,40399,5
21568,40397,5
21589,40401,4
21571,40407,5
21576,40400,5
21567,40414,5
21632,40420,5
21582,40426,4
21583,40434,5
21593,40431,5
21629,40432,5
21589,40428,5
21591,40435,4
21591,40427,5
21598,40423,5
21575,40422,5
21582,40423,4
21583,40430,4
21583,40408,5
21584,40433,5
21600,40442,5
21594,40444,4
21589,40406,5
21591,40460,5
21616,40463,5
21609,40458,5
21605,40414,4
21606,40468,5
21606,40477,5
21607,40479,5
21607,40473,5
21616,40482,5
21618,40481,4
21609,40474,5
21616,40534,5
21617,40488,5
21624,40492,4
21615,40487,5
21618,40557,5
21618,40486,5
21619,40487,5
21619,40480,4
21624,40524,5
21617,40489,5
21623,40499,5
21619,40505,4
21634,40504,5
21624,40494,5
21621,40503,5
21630,40508,5
21631,40514,4
21633,40517,5
21637,40525,5
21641,40533,5
21637,40532,5
21642,40532,4
21649,40533,6
21645,40534,4
21646,40536,5
21641,40529,5
21642,40535,4
21639,40535,5
21639,40526,5
21645,40525,5
21638,40531,5
21642,40527,4
21630,40520,5
21638,40526,5
21630,40518,5
21631,40516,4
21622,40508,5
21633,40521,5
21622,40510,5
21629,40509,5
21620,40501,4
21627,40500,5
21614,40497,5
21613,40495,5
21612,40485,5
21613,40479,4
21608,40477,5
21601,40465,5
21602,40466,5
21588,40453,5
21583,40449,4
21583,40440,5
21577,40439,5
21585,40447,5
21580,40441,5
21583,40438,4
21584,40429,5
21580,40430,5
21581,40428,5
21574,40414,4
21566,40412,10
21565,40421,9
21572,40408,5
21569,40405,10
21555,40368,5
21556,40398,5
21560,40389,10
21560,40389,5
21557,40394,5
21550,40390,10
21540,40360,5
21546,40372,7
21529,40341,8
21529,40341,5
21548,40335,7
21545,40331,8
21518,40336,5
21523,40336,7
21525,40336,8
21522,40335,5
21532,40329,7
21532,40329,8
21525,40319,5
21513,40321,7
21485,40312,8
21515,40319,5
21549,40315,7
21508,40303,8
21508,40303,5
21455,40304,7
21501,40297,8
21501,40284,7
21497,40296,5
21548,40291,8
21500,40285,7
21491,40291,9
21491,40291,9
21486,40286,11
21549,40277,5
21482,40260,7
21482,40260,8
21482,40277,5
21475,40263,7
21475,40226,8
21477,40243,5
21479,40250,7
21478,40245,8
21478,40245,7
21488,40234,7
21474,40253,8
21486,40246,7
21465,40257,5
21476,40294,8
21476,40294,7
21503,40255,5
21485,40258,8
21470,40256,7
21483,40324,5
21481,40254,8
21482,40247,7
21482,40247,5
21479,40253,8
21476,40258,7
21479,40258,5
21476,40247,8
21494,40257,7
21519,40258,5
21488,40261,8
21488,40261,7
21482,40259,5
21475,40221,8
21488,40234,7
21481,40255,9
21478,40254,10
21478,40254,5
21488,40263,10
21469,40257,5
21476,40254,5
21482,40258,10
21481,40263,5
21481,40263,5
21481,40272,10
21487,40256,5
21482,40253,5
21479,40258,10
21488,40277,5
21508,40271,5
21473,40244,10
21473,40244,5
21472,40221,5
21472,40223,7
21470,40243,1
21475,40255,1
21462,40256,5
21472,40254,5
21484,40261,4
21479,40265,5
21478,40257,5
21474,40261,5
21480,40261,5
21485,40255,4
21474,40248,5
21468,40250,5
21482,40252,5
21479,40256,5
21479,40256,4
21491,40265,5
21480,40274,5
21483,40264,5
21491,40271,5
21485,40267,4
21481,40268,6
21486,40272,4
21483,40264,5
21488,40281,4
21488,40276,5
21477,40273,5
21482,40275,5
21478,40266,5
21479,40263,4
21483,40270,5
21483,40266,5
21484,40264,5
21481,40262,5
21476,40259,4
21488,40259,5
21484,40259,5
21482,40269,5
21485,40278,5
21480,40270,4
21487,40267,5
21456,40272,5
21479,40266,5
21485,40256,5
21479,40264,4
21429,40264,5
21475,40273,6
21480,40273,4
21470,40265,4
21429,40268,4
21484,40267,5
21483,40265,5
21482,40265,5
21503,40272,4
21486,40264,5
21484,40270,5
21483,40263,5
21535,40271,5
21489,40264,4
21479,40271,5
21487,40284,5
21542,40281,5
21490,40288,5
21498,40291,4
21498,40294,5
21509,40281,5
21493,40275,5
21487,40269,5
21479,40263,4
21487,40260,5
21481,40266,5
21484,40273,6
21481,40268,3
21475,40222,4
21480,40272,5
21487,40272,5
21494,40272,5
21493,40225,4
21490,40280,5
21483,40279,5
21489,40283,5
21496,40261,5
21490,40274,4
21489,40279,5
21488,40288,5
21492,40330,5
21489,40288,5
21488,40286,4
21487,40274,5
21500,40353,5
21490,40282,5
21492,40286,5
21487,40278,5
21486,40313,4
21482,40274,5
21488,40272,5
21479,40288,5
21489,40289,4
21488,40281,5
21486,40279,5
21485,40280,5
21487,40277,4
21478,40268,4
21480,40284,5
21486,40279,5
21489,40282,5
21492,40283,4
21490,40280,5
21487,40276,5
21477,40268,5
21487,40264,5
21480,40264,4
21480,40268,5
21488,40262,5
21484,40262,5
21489,40274,5
21481,40276,4
21480,40272,6
21491,40273,4
21488,40271,5
21494,40283,5
21488,40288,4
21495,40283,5
21493,40286,5
21493,40283,5
21493,40298,4
21492,40282,4
21497,40285,5
21491,40292,5
21495,40293,5
21501,40297,4
21500,40294,5
21501,40293,5
21503,40296,5
21500,40301,5
21496,40300,4
21490,40294,5
21491,40294,5
21496,40300,5
21497,40295,5
21499,40301,4
21498,40294,5
21496,40297,6
21499,40292,4
21484,40282,5
21494,40295,4
21487,40281,5
21490,40293,5
21488,40287,5
21485,40286,5
21483,40265,4
21476,40273,5
21479,40272,5
21477,40263,5
21477,40271,4
21478,40269,5
21489,40277,5
21485,40269,5
21477,40277,5
21483,40277,4
21484,40273,5
21474,40269,5
21478,40268,5
21479,40267,5
21474,40261,4
21470,40255,5
21474,40256,5
21476,40259,5
21470,40252,5
21470,40253,4
21461,40240,5
21457,40239,5
21460,40227,5
21458,40235,5
21457,40224,4
21453,40225,5
21458,40234,5
21458,40219,5
21430,40220,4
21458,40219,4
21448,40219,5
21452,40217,5
21413,40208,5
21448,40217,4
21448,40220,5
21451,40228,5
21396,40223,5
21456,40217,5
21457,40220,5
21459,40216,4
21443,40215,5
21460,40229,5
21457,40221,5
21458,40235,4
21509,40234,5
21468,40235,5
21470,40245,5
21461,40242,5
21521,40255,4
21474,40254,5
21467,40257,5
21473,40252,5
21499,40245,4
21466,40244,4
21457,40241,5
21464,40235,5
21456,40229,5
21467,40234,4
21461,40242,5
21471,40241,6
21475,40214,4
21474,40260,5
21472,40259,4
21484,40260,5
21475,40198,5
21466,40256,5
21470,40257,5
21467,40256,5
21480,40228,4
21476,40260,5
21476,40252,5
21474,40249,5
21472,40289,4
21482,40260,5
21477,40266,5
21481,40266,5
21485,40336,5
21485,40278,4
21484,40284,5
21490,40288,5
21489,40332,5
21490,40275,4
21485,40278,4
21485,40282,5
21489,40293,6
21490,40278,4
21492,40282,4
21487,40286,5
21483,40281,5
21489,40290,5
21494,40300,5
21495,40289,4
21491,40298,5
21498,40296,5
21499,40295,5
21488,40296,5
21493,40291,4
21498,40295,5
21493,40296,5
21496,40300,5
21501,40314,5
21498,40307,4
21495,40317,5
21498,40319,5
21499,40323,5
21507,40325,5
21507,40336,4
21522,40340,5
21512,40343,5
21524,40346,6
21523,40341,3
21517,40347,5
21512,40340,5
21511,40338,5
21518,40331,5
21511,40327,4
21508,40326,5
21504,40323,5
21506,40325,5
21513,40336,5
21513,40335,4
21514,40339,5
21512,40336,5
21519,40345,5
21517,40349,5
21522,40338,4
21521,40341,5
21519,40344,5
21527,40338,5
21523,40343,5
21520,40343,5
21524,40341,4
21516,40338,5
21520,40341,5
21515,40337,6
21510,40348,3
21520,40334,5
21523,40339,5
21513,40333,5
21522,40336,4
21522,40343,5
21517,40340,5
21518,40348,5
21511,40342,5
21516,40345,4
21517,40346,5
21517,40344,5
21519,40338,5
21518,40335,5
21507,40340,4
21521,40334,5
21517,40335,5
21524,40328,5
21511,40330,5
21520,40342,4
21511,40345,6
21522,40345,4
21525,40338,5
21522,40339,4
21525,40334,4
21515,40333,5
21518,40336,5
21515,40340,5
21509,40335,4
21508,40331,5
21492,40324,5
21514,40325,5
21508,40326,5
21511,40338,4
21473,40327,5
21517,40330,5
21514,40332,5
21507,40331,5
21465,40328,4
21508,40325,5
21514,40331,5
21515,40334,5
21486,40327,5
21515,40325,4
21510,40334,5
21502,40327,6
21549,40330,4
21513,40335,5
21518,40335,4
21512,40330,5
21580,40333,5
21523,40336,5
21509,40336,4
21509,40333,4
21547,40332,5
21508,40331,5
21511,40325,5
21504,40324,4
21519,40314,5
21510,40325,5
21503,40316,5
21507,40317,5
21509,40285,4
21506,40313,5
21515,40316,5
21503,40314,5
21496,40261,5
21500,40303,4
21494,40310,5
21504,40312,5
21498,40250,6
21500,40312,4
21494,40319,4
21500,40319,5
21500,40327,5
21508,40307,5
21509,40326,4
21508,40324,4
21513,40384,5
21506,40328,5
21512,40332,5
21516,40329,4
21512,40386,5
21509,40334,5
21512,40336,5
21512,40328,5
21501,40339,4
21502,40315,5
21509,40322,5
21511,40327,5
21513,40323,5
21511,40324,5
21513,40329,4
21507,40326,5
21508,40324,5
21513,40328,6
21518,40343,3
21515,40335,5
21521,40336,5
21520,40348,5
21522,40349,5
21528,40364,4
21529,40366,5
21527,40362,5
21531,40371,5
21548,40371,4
21543,40376,4
21542,40378,5
21539,40380,5
21534,40380,5
21544,40382,4
21538,40389,5
21537,40386,5
21546,40376,5
21547,40385,5
21542,40384,4
21554,40394,6
21550,40401,4
21550,40401,5
21557,40403,5
21546,40400,4
21551,40410,5
21552,40395,5
21556,40405,5
21555,40405,5
21556,40405,4
21556,40411,5
21558,40410,5
21557,40405,5
21548,40413,4
21556,40410,4
21563,40411,5
21567,40408,5
21555,40415,5
21559,40421,4
21559,40421,5
21564,40427,5
21561,40421,5
21557,40423,5
21571,40421,4
21569,40423,5
21567,40428,6
21568,40431,4
21565,40431,5
21574,40428,4
21566,40430,5
21575,40433,5
21574,40444,5
21572,40442,5
21570,40441,4
21572,40434,5
21586,40445,5
21577,40460,5
21578,40446,4
21585,40444,4
21573,40436,5
21578,40438,5
21570,40444,5
21585,40442,4
21580,40445,5
21568,40434,5
21581,40445,5
21578,40451,5
21585,40445,4
21584,40451,5
21582,40452,5
21577,40437,6
21583,40443,4
21588,40432,4
21569,40443,5
21581,40439,5
21541,40440,5
