RED,IR,EKG,TIME
43191,92265,7
43200,92303,8
43195,92316,5
43195,92319,7
43189,92322,8
43195,92326,5
43204,92337,7
43204,92337,8
43213,92357,5
43207,92340,7
43219,92337,8
43208,92343,5
43203,92337,7
43209,92331,8
43209,92331,7
43203,92354,7
43216,92337,8
43209,92347,7
43197,92348,4
43208,92354,8
43208,92327,7
43208,92327,5
43210,92375,8
43208,92353,7
43208,92342,5
43213,92342,8
43214,92348,7
43220,92358,5
43223,92356,8
43223,92356,7
43217,92319,7
43205,92337,8
43210,92355,7
43216,92378,5
43220,92357,10
43220,92357,5
43223,92356,5
43216,92364,10
43210,92356,5
43220,92354,5
43216,92340,10
43216,92340,5
43213,92345,5
43218,92349,10
43206,92340,5
43213,92338,5
43212,92335,15
43212,92335,5
43214,92374,10
43213,92357,5
43212,92333,5
43204,92291,10
43203,92325,5
43211,92342,5
43194,92314,10
43194,92314,5
43200,92323,7
43192,92316,8
43203,92317,5
43196,92325,7
43198,92317,8
43198,92317,5
43241,92304,7
43218,92305,8
43190,92319,5
43195,92315,7
43186,92331,8
43202,92343,5
43200,92314,7
43200,92314,8
43201,92314,5
43200,92307,7
43190,92301,8
43198,92306,5
43204,92307,7
43190,92309,8
43190,92309,7
43192,92295,8
43195,92272,5
43192,92302,7
43233,92306,8
43198,92307,5
43185,92307,7
43204,92327,8
43204,92327,5
43206,92307,7
43204,92327,8
43209,92334,5
43201,92324,7
43210,92333,12
43210,92333,7
43187,92288,8
43179,92261,5
43202,92242,7
43174,92269,8
43174,92269,5
43182,92286,7
43177,92288,8
43196,92271,5
43186,92305,7
43236,92303,4
43205,92306,0
43181,92310,4
43194,92310,4
43203,92321,5
43199,92323,5
43210,92324,5
43209,92327,4
43209,92330,5
43215,92337,5
43219,92331,5
43211,92343,5
43213,92341,4
43215,92336,5
43212,92340,5
43213,92337,5
43204,92324,5
43206,92335,5
43207,92329,4
43212,92335,5
43208,92336,5
43213,92345,5
43219,92348,4
43212,92338,5
43216,92340,5
43206,92326,5
43211,92323,5
43200,92315,4
43204,92322,5
43203,92310,5
43206,92323,5
43211,92337,4
43222,92331,4
43208,92339,5
43209,92337,5
43204,92341,5
43210,92339,4
43206,92340,5
43209,92336,6
43210,92343,4
43210,92332,5
43206,92346,4
43204,92335,7
43215,92336,3
43213,92340,5
43207,92338,5
43216,92353,4
43227,92344,5
43217,92354,5
43219,92364,5
43220,92349,5
43213,92353,4
43214,92358,5
43218,92350,5
43217,92346,5
43205,92344,5
43208,92339,4
43208,92330,5
43212,92321,5
43208,92325,5
43205,92316,4
43206,92324,4
43204,92314,5
43207,92322,6
43195,92313,4
43202,92315,4
43201,92312,5
43205,92312,5
43200,92311,5
43195,92323,5
43198,92320,4
43202,92315,5
43208,92315,5
43203,92314,5
43193,92306,5
43192,92316,4
43200,92319,5
43201,92310,5
43203,92310,5
43208,92311,5
43203,92320,4
43201,92314,5
43201,92320,5
43203,92330,5
43206,92315,5
43210,92332,4
43199,92329,5
43205,92317,5
43209,92324,6
43212,92322,3
43203,92335,4
43208,92336,5
43208,92338,5
43213,92326,5
43214,92345,4
43212,92329,5
43207,92326,5
43209,92338,5
43211,92331,5
43212,92329,4
43206,92344,5
43216,92337,5
43208,92338,5
43213,92344,5
43220,92350,4
43214,92359,5
43226,92348,5
43221,92364,5
43225,92361,5
43221,92356,5
43224,92361,4
43231,92369,5
43228,92362,5
43228,92372,6
43222,92366,3
43230,92371,5
43229,92360,5
43213,92346,5
43210,92310,4
43196,92281,5
43188,92284,5
43175,92262,5
43181,92285,5
43183,92291,4
43193,92300,5
43187,92306,5
43207,92326,5
43207,92340,5
43213,92334,4
43217,92346,5
43213,92349,5
43226,92347,5
43223,92365,5
43230,92369,4
43229,92369,6
43229,92371,4
43229,92367,5
43232,92372,5
43224,92365,4
43220,92380,5
43234,92379,5
43222,92376,5
43232,92381,4
43224,92369,4
43232,92369,5
43228,92363,5
43228,92370,5
43234,92371,4
43224,92375,5
43230,92379,5
43234,92387,5
43230,92391,5
43230,92385,4
43230,92396,5
43224,92377,5
43222,92361,5
43227,92360,5
43220,92359,4
43217,92353,5
43219,92356,6
43220,92352,4
43222,92371,5
43223,92370,4
43227,92377,5
43234,92375,5
43234,92383,5
43225,92379,5
43235,92385,4
43229,92391,5
43233,92388,5
43235,92392,5
43238,92394,4
43246,92396,4
43232,92397,5
43243,92383,5
43228,92397,5
43235,92389,4
43229,92387,5
43230,92387,5
43229,92380,5
43228,92372,5
43231,92371,4
43233,92371,5
43232,92371,5
43229,92374,6
43227,92366,4
43225,92374,4
43231,92368,5
43227,92360,5
43219,92364,5
43232,92364,5
43224,92363,4
43218,92360,5
43225,92353,5
43223,92361,5
43216,92351,5
43214,92356,4
43226,92358,5
43225,92352,5
43221,92363,5
43220,92354,4
43216,92362,4
43219,92363,5
43224,92360,5
43218,92356,5
43221,92353,5
43220,92350,4
43224,92362,5
43217,92363,5
43227,92362,6
43219,92364,3
43223,92364,5
43228,92364,5
43226,92360,5
43221,92369,5
43218,92364,4
43235,92358,5
43214,92356,5
43221,92362,5
43226,92355,5
43220,92357,4
43214,92355,5
43219,92365,5
43224,92367,5
43227,92358,5
43214,92364,4
43217,92356,5
43218,92365,5
43219,92364,5
43217,92368,4
43223,92363,5
43221,92362,4
43229,92371,5
43221,92374,5
43235,92368,4
43225,92375,5
43225,92376,5
43231,92371,5
43219,92373,5
43231,92367,4
43230,92373,5
43232,92378,5
43232,92377,5
43232,92376,5
43233,92383,4
43230,92383,5
43231,92377,5
43237,92383,5
43234,92388,5
43230,92387,4
43234,92385,5
43237,92393,5
43230,92389,5
43239,92400,5
43236,92408,4
43240,92405,6
43237,92396,4
43228,92378,5
43205,92351,4
43200,92316,4
43197,92299,5
43191,92298,5
43187,92293,5
43193,92311,4
43200,92320,5
43201,92331,5
43216,92357,5
43219,92366,5
43221,92375,4
43232,92377,5
43242,92389,5
43233,92384,5
43243,92394,5
43238,92394,4
43252,92404,5
43248,92408,5
43241,92412,5
43244,92414,5
43245,92405,4
43248,92412,5
43244,92401,6
43233,92408,4
43236,92399,5
43234,92395,4
43243,92404,5
43237,92394,5
43232,92388,5
43232,92382,4
43239,92394,4
43235,92384,5
43234,92380,5
43238,92401,5
43241,92392,5
43239,92403,4
43240,92409,5
43242,92398,5
43239,92392,5
43229,92388,4
43239,92397,5
43240,92382,5
43237,92398,5
43234,92391,5
43245,92403,4
43239,92398,5
43242,92397,5
43233,92403,5
43245,92403,5
43236,92399,4
43237,92394,5
43244,92395,5
43239,92399,5
43241,92391,5
43231,92380,4
43231,92391,5
43236,92380,5
43229,92370,5
43227,92370,4
43225,92372,4
43221,92360,5
43221,92357,5
43210,92345,5
43211,92354,4
43215,92352,5
43211,92357,5
43216,92354,5
43221,92355,5
43225,92371,5
43218,92360,4
43224,92362,5
43219,92368,5
43219,92369,5
43221,92358,4
43224,92367,5
43215,92363,5
43219,92357,5
43220,92349,5
43224,92354,4
43223,92358,5
43216,92350,5
43219,92349,5
43213,92361,5
43215,92360,4
43219,92367,5
43218,92353,5
43216,92356,5
43217,92354,4
43219,92356,4
43224,92367,5
43213,92355,5
43212,92352,5
43221,92351,4
43219,92353,6
43213,92355,4
43219,92351,5
43214,92350,5
43211,92355,4
43220,92356,5
43216,92349,5
43210,92360,5
43215,92356,5
43222,92348,4
43223,92357,5
43219,92351,5
43218,92358,5
43217,92367,5
43225,92369,4
43222,92360,5
43225,92368,5
43228,92365,5
43223,92377,5
43228,92365,4
43234,92373,5
43238,92380,5
43234,92377,5
43225,92381,4
43236,92385,4
43228,92379,6
43237,92378,4
43234,92386,5
43229,92380,4
43229,92370,5
43227,92372,5
43227,92356,5
43215,92331,5
43203,92318,4
43192,92299,5
43187,92289,5
43181,92289,5
43185,92309,5
43192,92315,4
43199,92318,5
43203,92334,5
43211,92340,5
43217,92352,5
43217,92355,4
43222,92364,5
43232,92361,5
43233,92367,5
43229,92371,4
43223,92373,4
43236,92376,5
43229,92389,5
43238,92379,5
43232,92371,4
43233,92375,4
43231,92382,5
43231,92374,5
43231,92382,5
43220,92372,4
43229,92371,5
43226,92370,5
43232,92361,5
43225,92361,5
43225,92366,4
43225,92380,5
43232,92370,5
43235,92384,5
43232,92386,5
43239,92391,5
43234,92383,4
43246,92382,5
43222,92375,5
43230,92369,6
43225,92357,3
43220,92371,5
43230,92375,5
43223,92375,5
43229,92373,5
43237,92393,4
43235,92385,5
43227,92395,5
43245,92388,5
43244,92392,4
43237,92388,4
43230,92389,5
43237,92394,5
43241,92390,5
43240,92406,4
43232,92394,5
43238,92403,5
43242,92398,5
43225,92398,5
43238,92393,4
43234,92393,6
43239,92396,4
43237,92382,5
43234,92383,5
43234,92387,6
43226,92377,3
43233,92380,5
43226,92380,5
43236,92379,5
43233,92386,4
43233,92380,5
43226,92392,5
43231,92378,5
43230,92380,5
43241,92376,4
43229,92368,5
43233,92373,5
43222,92373,5
43229,92374,4
43229,92372,4
43225,92372,5
43226,92369,5
43227,92374,5
43228,92365,4
43221,92373,5
43222,92360,6
43225,92368,4
43219,92368,5
43229,92374,4
43232,92379,5
43227,92384,5
43231,92381,5
43230,92386,5
43229,92382,4
43233,92393,5
43233,92394,5
43236,92383,5
43231,92391,5
43237,92396,4
43236,92391,5
43239,92396,5
43241,92398,5
43232,92399,5
43236,92399,4
43237,92391,5
43239,92396,5
43236,92393,5
43236,92393,4
43238,92398,4
43241,92387,5
43234,92391,6
43240,92402,4
43233,92404,4
43235,92402,5
43241,92405,5
43246,92401,5
43239,92399,5
43245,92403,4
43249,92395,5
43242,92399,5
43244,92396,5
43239,92402,5
43242,92414,4
43243,92414,5
43242,92408,5
43250,92423,5
43260,92430,5
43254,92423,4
43257,92437,5
43260,92437,5
43256,92441,5
43253,92437,5
43253,92441,4
43257,92428,5
43260,92443,5
43273,92447,6
43269,92450,3
43265,92443,4
43251,92421,5
43246,92400,5
43236,92387,5
43223,92370,4
43226,92370,5
43225,92377,5
43229,92385,5
43231,92391,5
43241,92396,4
43244,92407,5
43251,92417,5
43254,92421,5
43253,92423,5
43251,92431,4
43252,92422,5
43249,92432,5
43265,92443,5
43256,92439,5
43271,92441,5
43262,92453,4
43259,92450,5
43265,92446,5
43263,92453,6
43258,92448,3
43259,92442,5
43262,92444,5
43264,92437,5
43271,92437,4
43260,92439,4
43258,92441,5
43255,92439,5
43264,92444,5
43264,92443,4
43260,92436,5
43261,92452,5
43261,92447,5
43262,92453,5
43273,92465,4
43269,92456,5
43257,92446,5
43265,92440,5
43259,92437,5
43250,92429,4
43258,92436,6
43258,92452,4
43259,92450,5
43266,92464,5
43265,92458,4
43261,92458,5
43262,92448,5
43265,92458,5
43269,92451,5
43271,92454,4
43261,92451,5
43264,92457,5
43259,92453,5
43275,92451,5
43257,92449,4
43268,92455,5
43266,92471,5
43269,92461,5
43269,92466,4
43270,92459,5
43267,92460,5
43262,92452,5
43259,92448,5
43274,92452,4
43260,92442,5
43259,92451,6
43256,92442,4
43261,92440,5
43255,92438,4
43256,92437,5
43252,92449,5
43255,92439,5
43259,92439,5
43260,92440,4
43259,92445,5
43269,92436,5
43264,92441,5
43262,92434,5
43260,92432,4
43254,92434,5
43254,92432,5
43252,92441,5
43257,92434,5
43257,92423,4
43258,92432,5
43253,92435,5
43253,92429,5
43258,92437,4
43245,92426,5
43244,92425,5
43257,92428,6
43248,92435,4
43261,92432,4
43250,92432,5
43259,92429,5
43258,92420,5
43252,92436,5
43261,92429,4
43250,92429,5
43258,92439,5
43256,92435,5
43259,92429,5
43253,92438,4
43255,92423,5
43259,92426,5
43252,92434,5
43252,92428,5
43253,92429,4
43260,92429,5
43260,92425,5
43249,92428,5
43252,92419,5
43249,92430,4
43258,92423,5
43251,92423,5
43246,92428,5
43250,92427,4
43260,92426,4
43251,92429,5
43256,92443,5
43254,92445,5
43261,92446,4
43262,92436,5
43261,92444,5
43258,92423,5
43260,92448,5
43264,92439,4
43261,92434,5
43255,92437,5
43256,92433,5
43256,92420,5
43244,92404,4
43242,92388,5
43233,92391,5
43220,92364,5
43230,92366,5
43229,92376,5
43243,92388,4
43249,92396,5
43239,92401,5
43244,92406,5
43249,92416,4
43251,92424,5
43253,92429,5
43248,92426,5
43255,92433,4
43261,92430,4
43256,92433,5
43254,92428,5
43256,92431,5
43259,92429,4
43256,92433,5
43262,92430,5
43261,92426,5
43258,92447,5
43261,92438,4
43260,92434,5
43255,92443,5
43265,92441,5
43266,92435,5
43254,92443,4
43265,92427,6
43262,92438,4
43263,92443,5
43266,92445,5
43267,92444,4
43268,92449,5
43265,92453,5
43259,92449,5
43260,92439,5
43260,92433,4
43259,92428,5
43257,92429,5
43258,92435,5
43254,92430,4
43250,92435,4
43254,92427,5
43249,92418,5
43255,92420,5
43250,92426,5
43251,92419,4
43240,92410,5
43239,92414,5
43249,92408,5
43247,92397,4
43251,92409,5
43242,92410,6
43244,92413,4
43246,92424,5
43244,92424,4
43254,92423,5
43257,92425,5
43251,92428,5
43254,92426,5
43251,92421,4
43251,92415,5
43243,92415,5
43249,92417,5
43246,92416,5
43255,92401,4
43248,92399,5
43246,92420,5
43247,92408,5
43250,92415,4
43265,92406,4
43253,92412,5
43245,92411,5
43245,92406,6
43252,92398,3
43244,92403,5
43244,92409,5
43241,92407,5
43243,92404,5
43246,92411,4
43243,92409,5
43244,92416,5
43248,92408,5
43245,92406,5
43246,92412,4
43247,92408,5
43243,92406,5
43242,92409,5
43245,92412,5
43255,92419,4
43252,92407,5
43252,92414,5
43256,92420,5
43250,92414,5
43241,92413,4
43248,92410,5
43248,92418,5
43234,92399,5
43247,92412,5
43244,92397,7
43239,92404,2
43241,92399,5
43222,92397,5
43236,92398,4
43234,92401,5
43240,92397,5
43238,92410,5
43244,92394,5
43242,92400,4
43246,92397,5
43244,92420,5
43247,92406,5
43254,92409,5
43245,92413,4
43252,92413,5
43252,92419,5
43246,92422,5
43250,92420,5
43254,92425,4
43250,92427,5
43260,92420,4
43257,92422,5
43250,92413,5
43246,92415,5
43252,92429,3
43259,92430,5
43260,92416,5
43246,92419,4
43250,92400,4
43240,92373,5
43230,92370,5
43222,92351,5
43218,92333,4
43216,92329,5
43220,92334,5
43210,92344,5
43221,92345,5
43222,92359,4
43232,92366,5
43219,92371,5
43232,92371,5
43236,92389,5
43246,92393,4
43242,92398,5
43241,92395,6
43244,92400,4
43241,92401,5
43240,92407,4
43242,92401,5
43242,92399,5
43253,92401,5
43245,92405,5
43245,92406,4
43235,92393,5
43243,92394,5
43231,92388,5
43229,92390,4
43237,92372,4
43229,92388,5
43238,92383,5
43237,92380,5
43236,92376,4
43229,92378,5
43242,92388,5
43240,92385,5
43237,92396,5
43239,92392,4
43246,92393,5
43244,92378,5
43239,92377,6
43228,92378,4
43233,92375,4
43229,92383,5
43237,92384,5
43241,92390,5
43243,92390,5
43240,92389,4
43239,92384,5
43240,92387,5
43239,92395,5
43245,92382,5
43245,92395,4
43240,92383,5
43233,92387,5
43241,92383,5
43235,92399,4
43241,92389,4
43246,92395,5
43244,92395,5
43233,92406,5
43241,92392,5
43236,92394,4
43238,92402,5
43242,92375,5
43240,92384,6
43236,92377,3
43238,92393,5
43233,92376,5
43229,92370,5
43238,92385,5
43235,92384,4
43236,92381,5
43230,92388,5
43243,92397,5
43238,92383,5
43235,92379,4
43229,92383,5
43227,92385,5
43236,92373,5
43229,92378,5
43236,92384,4
43227,92384,5
43233,92381,5
43238,92379,5
43228,92375,4
43233,92378,5
43229,92378,4
43238,92378,5
43236,92380,5
43228,92375,6
43232,92378,3
43232,92369,5
43228,92380,5
43229,92369,5
43230,92367,4
43238,92387,5
43228,92386,5
43233,92372,5
43226,92373,5
43224,92378,4
43234,92372,5
43236,92383,5
43243,92379,5
43240,92381,5
43236,92384,4
43238,92393,5
43237,92394,5
43236,92390,5
43240,92387,5
43231,92397,4
43239,92390,6
43240,92379,4
43234,92387,5
43231,92377,4
43229,92377,4
43230,92367,5
43226,92379,5
43232,92375,5
43223,92370,4
43234,92378,5
43233,92371,5
43235,92372,5
43235,92383,5
43234,92386,4
43229,92406,5
43240,92402,5
43246,92408,5
43248,92404,5
43248,92407,4
43239,92407,5
43249,92407,5
43251,92419,5
43237,92433,5
43251,92418,4
43255,92415,5
43244,92412,6
43243,92389,4
43230,92369,5
43221,92361,4
43214,92339,5
43206,92351,5
43213,92334,5
43204,92341,4
43219,92349,4
43220,92370,5
43225,92364,5
43225,92371,5
43230,92383,4
43235,92390,5
43241,92393,5
43236,92392,5
43240,92383,5
43233,92395,4
43236,92395,5
43240,92398,5
43233,92394,5
43236,92401,5
43239,92398,4
43240,92386,5
43230,92393,5
43230,92400,6
43239,92404,4
43239,92387,4
43235,92390,5
43228,92390,5
43243,92389,5
43239,92389,5
43235,92390,4
43240,92388,5
43244,92391,5
43240,92394,5
43245,92398,4
43242,92400,4
43252,92400,5
43238,92393,5
43247,92401,5
43232,92377,4
43230,92383,5
43237,92382,5
43232,92370,5
43226,92369,5
43234,92374,5
43235,92379,4
43236,92378,5
43227,92387,5
43232,92388,6
43233,92383,3
43234,92399,5
43243,92390,5
43241,92393,5
43240,92399,5
43244,92399,4
43243,92401,5
43236,92402,5
43244,92406,5
43243,92389,5
43239,92391,4
43246,92400,5
43236,92390,5
43238,92387,5
43231,92382,4
43230,92385,4
43233,92381,5
43226,92399,5
43235,92380,5
43226,92383,4
43230,92372,6
43233,92380,4
43234,92382,5
43237,92370,5
43238,92374,4
43231,92380,5
43236,92374,5
43229,92370,5
43234,92365,5
43229,92369,4
43222,92366,5
43226,92370,5
43225,92372,5
43229,92370,5
43226,92370,4
43223,92363,5
43218,92367,5
43229,92367,5
43222,92370,5
43223,92368,4
43223,92377,5
43230,92372,5
43221,92368,5
43228,92368,4
43221,92369,4
43228,92375,6
43226,92372,4
43228,92362,5
43224,92372,4
43222,92373,5
43229,92369,5
43228,92371,5
43228,92371,5
43226,92370,4
43219,92371,5
43218,92367,5
43226,92357,5
43226,92360,5
43220,92359,4
43211,92360,5
43221,92345,5
43168,92204,5
43019,91833,5
42777,91333,4
42550,90872,5
42360,90512,5
42244,90289,5
42193,90183,5
42172,90164,4
42178,90176,5
42196,90217,6
42209,90256,4
42233,90315,4
42272,90384,4
42302,90451,5
42337,90526,5
42376,90604,5
42393,90664,4
42421,90714,5
42455,90761,5
42476,90803,5
42496,90850,5
42523,90899,4
42547,90949,5
42569,91005,5
42591,91061,5
42625,91107,5
42645,91159,4
42675,91201,5
42683,91233,5
42700,91272,5
42710,91295,5
42729,91317,4
42729,91321,5
42735,91325,5
42736,91320,5
42724,91312,5
42725,91327,4
42732,91316,5
42740,91343,5
42748,91358,5
42766,91379,4
42780,91419,4
42780,91445,5
42808,91467,5
42811,91474,5
42818,91498,4
42823,91512,5
42830,91522,5
42834,91521,5
42833,91539,5
42843,91549,4
42845,91544,6
42841,91551,4
42847,91559,5
42858,91573,5
42858,91570,5
42861,91566,4
42854,91576,5
42864,91582,5
42855,91577,5
42859,91578,4
42859,91581,5
42859,91587,5
42863,91585,5
42872,91590,5
42874,91591,4
42874,91591,5
42867,91586,5
42869,91593,5
42868,91585,4
42861,91586,4
42865,91592,5
42865,91597,5
42865,91593,5
42874,91596,4
42860,91587,5
42863,91584,5
42861,91583,5
42858,91595,5
42872,91600,4
42865,91605,6
42869,91607,4
42867,91609,5
42879,91606,5
42875,91611,4
42869,91615,5
42874,91618,5
42876,91620,5
42882,91619,5
42872,91616,4
42875,91619,5
42878,91609,5
42873,91622,5
42882,91616,5
42869,91613,4
42877,91614,5
42869,91617,5
42875,91628,5
42873,91612,4
42877,91605,5
42880,91601,5
42868,91608,5
42864,91595,5
42867,91602,4
42867,91608,5
42880,91609,5
42871,91614,5
42873,91604,5
42875,91601,4
42869,91606,5
42877,91611,5
42875,91614,5
42868,91599,5
42865,91608,4
42880,91607,5
42880,91609,5
42867,91612,5
42873,91597,5
42867,91609,4
42878,91607,5
42869,91606,5
42879,91616,5
42881,91610,5
42871,91606,4
42877,91603,5
42867,91612,5
42877,91613,6
42879,91615,3
42874,91612,5
42877,91606,5
42875,91612,5
42871,91600,5
42874,91608,4
42863,91603,5
42873,91613,5
42877,91607,5
42879,91615,5
42879,91603,4
42865,91622,5
42878,91613,5
42870,91614,5
42876,91600,5
42871,91606,4
42869,91601,5
42881,91621,5
42872,91619,5
42888,91615,5
42889,91616,5
42880,91621,4
42881,91619,5
42885,91616,5
42882,91617,6
42873,91623,3
42882,91625,5
42887,91623,5
42881,91621,5
42879,91617,4
42872,91614,5
42873,91598,5
42862,91595,5
42854,91590,5
42861,91571,4
42845,91572,5
42853,91564,5
42855,91571,5
42850,91574,5
42862,91583,4
42859,91599,5
42866,91589,5
42869,91603,5
42868,91599,5
42869,91605,4
42880,91611,6
42878,91616,4
42877,91609,5
42871,91612,5
42872,91606,6
42871,91616,3
42875,91622,5
42877,91610,5
42880,91616,5
42872,91617,4
42874,91611,5
42883,91607,5
42873,91608,5
42872,91607,4
42864,91601,5
42872,91609,5
42868,91610,5
42874,91608,5
42870,91602,4
42872,91604,5
42876,91605,5
42881,91618,5
42872,91620,5
42882,91611,4
42887,91616,5
42879,91616,6
42870,91609,4
42870,91599,5
42872,91589,4
42868,91601,5
42875,91601,5
42862,91593,5
42873,91605,5
42871,91609,4
42876,91611,5
42869,91612,5
42871,91608,5
42861,91595,5
42869,91598,4
42862,91608,5
42882,91607,5
42866,91605,5
42871,91602,4
42875,91601,5
42870,91600,5
42876,91616,5
42871,91602,5
42865,91598,4
42866,91601,5
42870,91602,5
42875,91590,6
42868,91604,4
42860,91604,5
42869,91590,4
42870,91594,5
42869,91609,5
42868,91603,5
42879,91606,4
42867,91615,5
42871,91597,5
42865,91603,5
42861,91597,5
42863,91599,4
42864,91581,5
42869,91585,5
42862,91591,5
42861,91590,5
42866,91591,4
42869,91583,5
42857,91597,5
42863,91587,5
42862,91590,5
42865,91587,4
42861,91584,5
42858,91587,5
42860,91582,6
42862,91586,3
42862,91586,5
42867,91591,5
42860,91590,5
42865,91590,5
42861,91591,4
42861,91585,5
42864,91587,5
42859,91592,5
42858,91587,5
42856,91589,4
42862,91584,5
42857,91581,5
42865,91584,5
42850,91580,5
42859,91586,4
42866,91588,5
42856,91586,5
42864,91591,5
42853,91596,5
42861,91595,5
42857,91589,4
42874,91579,5
42863,91581,5
42863,91579,4
42851,91587,5
42856,91585,5
42861,91580,5
42861,91573,5
42856,91584,4
42857,91588,5
42864,91590,5
42863,91588,5
42862,91585,5
42863,91597,4
42863,91587,5
42866,91591,5
42859,91595,5
42859,91602,5
42859,91588,4
42860,91596,5
42868,91602,5
42862,91595,5
42872,91598,5
42871,91607,4
42863,91603,6
42870,91606,4
42876,91607,5
42876,91606,4
42881,91608,4
42867,91611,5
42869,91605,5
42868,91607,5
42877,91615,4
42868,91617,5
42872,91615,5
42870,91606,5
42870,91591,5
42852,91577,4
42846,91569,5
42848,91560,5
42844,91562,5
42850,91559,5
42846,91551,4
42839,91557,5
42848,91561,5
42851,91576,5
42858,91569,5
42862,91588,4
42861,91595,5
42866,91599,6
42865,91599,4
42869,91599,5
42875,91605,4
42867,91603,5
42870,91608,5
42870,91609,5
42869,91595,4
42869,91600,4
42854,91600,5
42871,91603,5
42863,91601,5
42871,91591,4
42854,91589,5
42863,91595,5
42860,91589,5
42856,91585,5
42862,91586,4
42869,91586,5
42864,91587,5
42857,91582,5
42867,91585,5
42859,91589,4
42864,91597,5
42868,91584,5
42868,91594,6
42868,91596,4
42861,91606,4
42862,91598,5
42867,91583,5
42850,91588,5
42861,91579,5
42859,91580,4
42854,91591,5
42856,91583,5
42861,91585,5
42865,91595,4
42864,91586,4
42854,91592,5
42860,91598,5
42861,91580,5
42862,91590,4
42865,91593,5
42865,91598,5
42862,91582,5
42852,91586,5
42856,91594,5
42863,91584,4
42863,91592,5
42867,91596,5
42854,91604,5
42866,91600,4
42864,91600,5
42860,91602,5
42866,91595,5
42858,91585,5
42852,91585,4
42854,91590,5
42859,91593,5
42856,91595,5
42860,91586,5
42860,91593,4
42863,91592,5
42870,91601,5
42859,91588,5
42861,91588,4
42858,91596,4
42865,91595,5
42867,91598,5
42864,91592,5
42865,91592,4
42875,91601,7
42868,91596,3
42867,91592,5
42867,91595,5
42861,91590,4
42865,91595,5
42871,91602,5
42859,91596,5
42868,91602,5
42875,91598,4
42864,91598,5
42862,91608,5
42877,91603,5
42865,91598,5
42881,91606,4
42869,91602,5
42868,91606,5
42865,91601,5
42866,91606,5
42861,91609,4
42868,91604,5
42874,91606,5
42861,91606,5
42868,91618,4
42867,91604,4
42869,91601,6
42866,91611,4
42864,91608,5
42871,91600,4
42868,91614,5
42870,91611,5
42865,91604,5
42873,91603,5
42870,91602,4
42867,91601,5
42874,91612,5
42878,91605,5
42867,91613,5
42874,91615,4
42873,91612,5
42863,91607,5
42871,91610,5
42879,91622,5
42875,91623,4
42874,91636,5
42884,91637,5
42881,91640,5
42897,91649,5
42890,91644,4
42886,91638,5
42890,91641,5
42891,91644,5
42894,91654,4
42900,91653,4
42892,91642,5
42891,91643,5
42891,91630,5
42880,91631,4
42874,91612,5
42862,91603,5
42865,91592,5
42858,91586,5
42856,91581,4
42863,91597,5
42862,91601,5
42862,91609,5
42860,91600,5
42864,91602,4
42871,91611,5
42873,91622,5
42878,91616,5
42879,91618,5
42876,91631,4
42881,91634,5
42886,91636,5
42883,91638,5
42880,91641,5
42879,91642,4
42879,91641,5
42880,91638,5
42884,91638,5
42889,91649,4
42888,91637,4
42877,91632,5
42878,91636,5
42877,91634,5
42879,91633,4
42882,91634,5
42877,91620,5
42873,91620,5
42871,91621,5
42867,91614,4
42870,91618,5
42870,91622,4
42872,91623,5
42888,91625,5
42871,91629,5
42883,91619,3
42873,91619,5
42876,91613,5
42864,91616,5
42873,91627,4
42876,91629,5
42873,91623,5
42870,91631,5
42876,91627,5
42878,91631,4
42881,91630,5
42880,91631,5
42881,91638,5
42880,91644,4
42887,91637,4
42877,91640,5
42880,91638,5
42873,91626,5
42874,91635,4
42880,91622,5
42868,91630,6
42872,91622,4
42868,91617,5
42866,91603,4
42862,91605,7
42856,91598,3
42858,91601,5
42857,91585,5
42855,91584,4
42849,91584,5
42840,91584,5
42855,91581,5
42852,91574,5
42846,91581,4
42849,91574,5
42854,91571,5
42850,91573,5
42853,91574,4
42846,91568,4
42846,91573,5
42851,91570,5
42846,91574,5
42845,91574,4
42846,91577,5
42849,91576,5
42849,91575,6
42855,91571,4
42844,91574,4
42854,91571,5
42847,91575,5
42853,91572,5
42845,91577,5
42851,91582,4
42855,91580,5
42842,91562,5
42849,91564,5
42846,91563,5
42845,91567,4
42835,91562,5
42845,91567,5
42841,91571,5
42837,91568,5
42835,91568,4
42845,91564,5
42841,91572,5
42843,91565,5
42853,91577,5
42850,91571,4
42846,91572,5
42853,91569,5
42844,91570,6
42848,91572,6
42835,91573,2
42840,91565,5
42828,91578,5
42843,91578,5
42852,91572,4
42851,91580,5
42851,91568,5
42846,91575,5
42842,91576,5
42844,91573,4
42852,91575,5
42846,91586,5
42846,91573,5
42854,91587,5
42853,91589,4
42856,91594,5
42853,91600,5
42854,91600,5
42869,91610,5
42860,91602,5
42864,91605,4
42854,91596,5
42858,91608,5
42868,91597,6
42860,91611,3
42858,91595,5
42855,91596,5
42855,91589,5
42849,91579,4
42844,91573,5
42830,91552,5
42836,91551,5
42836,91556,5
42833,91557,4
42840,91559,5
42837,91578,5
42853,91581,5
42843,91588,5
42851,91596,4
42858,91609,5
42861,91616,5
42861,91622,5
42871,91631,5
42867,91633,4
42876,91645,6
42874,91647,4
42884,91661,5
42883,91666,5
42891,91672,4
42893,91687,5
42892,91690,5
42897,91686,5
42901,91709,4
42908,91711,4
42900,91720,5
42912,91715,5
42909,91716,5
42902,91712,4
42904,91714,5
42921,91720,5
42909,91733,5
42917,91730,5
42913,91733,4
42919,91750,5
42927,91757,5
42925,91770,5
42932,91774,5
42937,91783,4
42936,91782,5
42930,91779,6
42926,91773,4
42933,91782,5
42933,91791,4
42944,91794,5
42948,91801,5
42950,91803,5
42956,91817,5
42954,91822,4
42966,91823,5
42956,91827,5
42963,91834,5
42962,91829,5
42961,91835,4
42957,91827,5
42959,91833,5
42958,91825,5
42959,91820,4
42956,91831,5
42949,91816,5
42945,91805,5
42944,91796,5
42933,91799,4
42927,91775,5
42929,91764,5
42930,91752,6
42931,91764,4
42931,91778,4
42939,91817,5
42980,91868,5
43000,91925,5
43006,91961,5
43023,91976,4
43027,91991,5
43036,92005,5
43047,92026,5
43061,92065,5
43073,92090,4
43082,92112,5
43092,92129,5
43109,92149,5
43113,92164,4
43120,92177,4
43126,92185,5
43135,92194,5
43126,92192,5
43135,92212,5
43141,92218,4
43138,92228,5
43150,92235,5
43149,92232,6
43157,92244,3
43157,92258,5
43156,92272,5
43172,92279,5
43171,92290,5
43169,92284,4
43172,92285,5
43173,92286,5
43180,92293,5
43175,92295,5
43176,92300,4
43192,92316,5
43191,92320,5
43197,92336,5
43203,92338,5
43204,92352,4
43209,92359,5
43206,92357,5
43205,92374,5
43220,92377,4
43222,92394,5
43228,92401,4
43233,92401,5
43234,92425,5
43250,92442,4
43252,92460,5
43258,92472,5
43266,92474,5
43269,92491,5
43279,92493,4
43274,92503,5
43279,92501,5
43276,92507,5
43276,92503,5
43278,92497,4
43267,92492,5
43265,92474,5
43258,92471,5
43255,92449,5
43257,92441,4
43233,92430,5
43244,92427,5
43248,92428,5
43249,92435,5
43238,92440,4
43244,92451,6
43252,92465,4
43253,92470,5
43263,92480,4
43264,92475,4
43269,92489,5
43272,92506,5
43278,92508,5
43292,92523,4
43287,92540,5
43295,92541,5
43297,92545,5
43293,92544,5
43292,92556,4
43300,92551,5
43295,92554,5
43299,92549,5
43302,92560,5
43294,92557,4
43287,92564,5
43297,92561,5
43297,92563,5
43299,92555,5
43298,92558,4
43306,92559,5
43299,92565,6
43305,92567,4
43312,92566,5
43315,92590,4
43313,92582,5
43321,92599,5
43318,92583,5
43311,92590,4
43310,92584,5
43307,92577,5
43307,92572,5
43302,92576,5
43301,92579,4
43297,92567,5
43312,92582,5
43306,92573,5
43316,92577,5
43308,92562,4
43301,92557,5
43290,92547,5
43290,92548,5
43288,92547,5
43294,92541,4
43288,92532,5
43290,92548,5
43286,92551,5
43289,92530,5
43290,92539,4
43288,92552,5
43291,92550,5
43295,92554,5
43291,92551,5
43299,92562,4
43305,92566,5
43308,92585,5
43304,92572,5
43313,92576,4
43308,92590,5
43311,92596,5
43313,92597,5
43310,92603,5
43317,92621,4
43329,92632,5
43329,92632,5
43344,92640,5
43343,92647,5
43346,92643,5
43337,92657,4
43342,92659,5
43347,92660,5
43346,92663,5
43350,92663,4
43351,92664,5
43345,92672,5
43342,92673,5
43356,92680,5
43351,92689,4
43362,92677,5
43363,92689,5
43363,92692,5
43362,92694,5
43367,92694,4
43368,92707,5
43368,92699,5
43367,92705,5
43371,92712,4
43379,92725,5
43385,92739,5
43381,92729,5
43380,92744,5
43390,92736,4
43391,92743,6
43386,92754,4
43383,92758,5
43392,92766,5
43387,92757,4
43395,92764,5
43397,92777,5
43404,92794,5
43408,92788,5
43410,92808,4
43424,92814,5
43420,92824,5
43429,92843,5
43427,92832,5
43437,92842,4
43446,92846,5
43442,92861,5
43444,92862,5
43453,92870,4
43449,92865,4
43442,92852,5
43436,92843,5
43437,92834,5
43431,92809,4
43427,92819,5
43419,92820,6
43420,92812,4
43422,92822,5
43429,92827,4
43421,92829,5
43427,92843,5
43431,92857,5
43440,92853,5
43447,92880,4
43454,92880,5
43457,92892,5
43468,92914,5
43457,92916,5
43471,92918,4
43474,92919,5
43481,92920,5
43477,92931,5
43477,92931,5
43476,92942,4
43482,92944,5
43478,92949,5
43488,92948,5
43489,92948,3
43488,92947,4
43486,92948,5
43489,92956,5
43482,92966,5
43496,92962,4
43490,92955,5
43492,92964,5
43493,92972,5
43495,92976,5
43505,92982,4
43501,92990,5
43521,93015,5
43513,93017,5
43518,93029,5
43524,93026,4
43519,93038,5
43513,93025,5
43533,93029,5
43531,93034,5
43525,93034,5
43538,93055,4
43531,93046,5
43543,93057,5
43548,93065,6
43552,93069,3
43547,93063,5
43546,93071,5
43554,93083,5
43554,93079,4
43563,93090,4
43548,93089,5
43563,93097,5
43557,93091,5
43563,93105,4
43567,93104,5
43574,93123,5
43572,93126,5
43569,93132,5
43582,93141,4
43583,93133,5
43582,93127,5
43582,93144,5
43573,93152,5
43585,93146,4
43583,93134,6
43588,93142,4
43580,93153,5
43583,93146,5
43593,93144,6
43583,93144,3
43586,93153,5
43589,93149,5
43585,93164,5
43594,93155,4
43596,93164,5
43594,93171,5
43590,93184,5
43599,93180,4
43602,93173,4
43602,93177,5
43607,93193,5
43608,93185,5
43603,93188,4
43606,93193,5
43614,93210,5
43617,93208,5
43622,93216,5
43623,93228,4
43622,93228,5
43629,93230,6
43624,93235,4
43638,93243,5
43631,93242,4
43635,93254,5
43641,93249,5
43637,93253,5
43643,93272,5
43649,93277,4
43650,93283,5
43652,93287,5
43656,93291,5
43654,93297,5
43663,93300,4
43665,93305,5
43666,93312,5
43665,93320,5
43670,93329,4
43673,93326,4
43674,93323,5
43670,93312,5
43672,93304,5
43657,93302,4
43667,93298,5
43663,93302,5
43667,93302,6
43667,93297,4
43667,93296,4
43659,93300,5
43667,93303,5
43668,93312,5
43675,93316,5
43679,93328,4
43678,93341,5
43679,93345,5
43682,93359,5
43691,93371,5
43694,93374,4
43693,93381,5
43699,93389,5
43705,93392,5
43705,93406,5
43710,93403,4
43719,93417,5
43719,93427,5
43723,93430,5
43727,93437,5
43730,93449,4
43735,93453,5
43739,93461,5
43747,93471,6
43743,93477,3
43760,93492,5
43750,93488,5
43764,93500,5
43765,93501,5
43757,93499,4
43761,93510,5
43764,93501,5
43761,93507,5
43769,93512,5
43765,93503,4
43768,93506,5
43753,93499,5
43753,93485,5
43749,93486,5
43740,93471,4
43760,93485,5
43748,93485,5
43757,93492,5
43759,93489,5
43760,93499,5
43759,93502,4
43754,93515,5
43765,93516,5
43772,93516,6
43766,93519,3
43762,93503,5
43752,93484,5
43749,93467,5
43725,93447,4
43720,93418,5
43716,93396,5
43703,93396,5
43699,93372,5
43695,93357,4
43679,93345,5
43677,93324,5
43673,93312,5
43660,93303,5
43661,93301,4
43655,93296,5
43653,93263,5
43646,93250,5
43641,93227,5
43609,93200,4
43610,93171,6
43584,93131,4
43565,93087,5
43545,93035,4
43511,92958,4
43469,92876,5
43416,92769,5
43359,92653,5
43306,92546,4
43255,92450,5
43214,92368,5
43177,92277,5
43143,92203,5
43114,92152,4
43090,92094,5
43060,92029,5
43029,91973,5
43013,91929,5
42996,91892,5
42971,91875,4
42958,91835,5
42951,91817,5
42930,91793,5
42926,91768,4
42910,91739,5
42899,91702,6
42877,91657,4
42849,91609,5
42837,91569,4
42802,91496,5
42778,91444,5
42738,91380,5
42716,91317,4
42682,91244,4
42650,91173,5
42620,91125,5
42594,91065,5
42569,91010,4
42542,90951,5
42518,90916,5
42498,90859,5
42477,90805,5
42460,90779,4
42432,90746,5
42422,90725,5
42418,90707,5
42410,90696,5
42401,90682,4
42405,90675,5
42403,90682,5
42416,90693,6
42405,90681,4
42408,90678,4
42402,90679,5
42398,90666,5
42389,90654,5
42393,90635,5
42376,90625,4
42366,90600,5
42372,90588,5
42357,90573,5
42346,90548,4
42342,90530,4
42330,90507,5
42326,90494,5
42310,90479,5
42303,90461,4
42295,90456,5
42295,90450,5
42295,90434,5
42288,90429,5
42295,90421,5
42283,90413,4
42287,90422,5
42293,90421,5
42285,90419,5
42288,90419,4
42282,90412,5
42280,90416,5
42282,90419,5
42282,90416,5
42278,90415,4
42281,90397,5
42271,90381,5
42256,90368,5
42245,90341,5
42246,90348,4
42248,90340,5
42246,90354,5
42249,90350,5
42258,90349,4
42251,90358,4
42251,90355,5
42256,90359,5
42257,90357,5
42251,90356,4
42252,90349,6
42259,90346,4
42258,90342,5
42249,90337,5
42240,90332,4
42235,90329,5
42236,90319,5
42247,90321,5
42236,90324,5
42238,90325,4
42232,90322,5
42232,90312,5
42233,90321,5
42236,90314,5
42245,90309,4
42239,90318,5
42231,90312,5
42232,90312,5
42231,90316,5
42232,90310,4
42231,90308,5
42235,90298,5
42226,90299,5
42225,90285,4
42221,90277,4
42215,90273,6
42218,90268,4
42222,90275,5
42215,90257,4
42204,90254,5
42207,90245,5
42198,90249,5
42190,90236,5
42200,90233,4
42194,90224,5
42184,90220,5
42191,90220,5
42188,90218,5
42184,90215,4
42183,90204,5
42184,90208,5
42195,90214,5
42185,90210,5
42181,90195,4
42180,90173,5
42165,90158,5
42162,90136,5
42152,90119,5
42157,90101,4
42141,90089,5
42130,90082,6
42126,90074,4
42130,90060,4
42114,90046,4
42113,90044,5
42105,90024,5
42095,90001,5
42089,89981,4
42086,89970,5
42065,89943,5
42061,89932,5
42049,89894,5
42042,89878,4
42038,89875,5
42030,89864,4
42022,89856,5
42037,89854,5
42027,89841,4
42021,89841,5
42018,89834,5
42019,89827,5
42018,89829,6
42009,89815,3
42018,89820,5
42006,89814,5
42005,89797,5
42013,89798,5
42002,89774,4
41989,89763,5
41981,89741,5
41981,89737,5
41968,89713,4
41960,89700,4
41960,89698,5
41964,89694,5
41962,89693,5
41962,89688,4
41966,89699,5
41955,89698,5
41965,89690,5
41958,89672,5
41946,89668,4
41937,89647,5
41934,89627,5
41918,89591,5
41915,89573,5
41898,89547,5
41880,89521,4
41866,89500,5
41866,89486,5
41856,89475,5
41863,89475,4
41863,89471,5
41855,89464,5
41864,89471,5
41859,89463,5
41857,89456,4
41843,89436,5
41836,89429,5
41838,89427,5
41826,89399,4
41826,89396,4
41823,89389,5
41820,89386,5
41818,89379,5
41825,89380,4
41807,89380,5
41822,89378,6
41817,89387,4
41824,89383,5
41818,89398,4
41820,89385,7
41816,89384,3
41816,89372,5
41811,89375,5
41805,89366,4
41805,89361,5
41796,89353,5
41793,89344,5
41799,89333,5
41787,89336,4
41795,89334,5
41793,89342,5
41803,89336,5
41800,89348,5
41806,89360,4
41811,89371,5
41818,89379,5
41814,89376,5
41820,89395,4
41824,89400,4
41831,89411,5
41834,89430,6
41843,89440,4
41844,89449,4
41843,89446,5
41850,89453,5
41857,89457,5
41848,89471,5
41863,89471,4
41861,89479,5
41866,89472,5
41856,89468,5
41861,89477,5
41853,89464,4
41858,89470,5
41852,89461,5
41867,89471,5
41863,89467,5
41845,89464,4
41848,89461,5
41860,89464,5
41848,89472,5
41857,89474,5
41861,89485,4
41872,89491,5
41874,89510,5
41881,89521,6
41889,89521,3
41888,89536,4
41878,89530,5
41882,89539,5
41891,89546,5
41890,89549,4
41902,89558,5
41903,89540,5
41905,89563,5
41902,89561,5
41911,89568,4
41901,89576,5
41916,89586,5
41912,89580,5
41913,89582,5
41918,89577,4
41913,89587,5
41913,89590,5
41905,89572,5
41913,89580,5
41911,89568,5
41909,89570,4
41906,89567,5
41917,89563,5
41901,89562,6
41904,89557,3
41904,89548,5
41901,89547,5
41892,89537,5
41892,89537,4
41886,89533,4
41896,89542,5
41891,89538,5
41895,89542,5
41903,89550,4
41900,89553,5
41904,89556,5
41909,89568,5
41911,89588,5
41917,89577,4
41915,89596,5
41920,89584,5
41917,89588,5
41925,89586,5
41925,89585,4
41920,89597,6
41926,89598,4
41928,89599,5
41931,89610,5
41932,89613,6
41930,89596,3
41932,89612,5
41929,89588,5
41927,89580,5
41926,89596,4
41932,89600,5
41925,89601,5
41938,89616,5
41941,89621,4
41946,89645,4
41954,89650,5
41955,89662,5
41957,89662,5
41957,89666,4
41966,89685,5
41974,89721,5
41998,89775,5
42026,89830,5
42056,89886,4
42078,89941,5
42095,90003,6
42119,90052,4
42148,90114,5
42180,90183,4
42217,90254,5
42243,90317,5
42273,90385,5
42316,90467,5
42348,90541,4
42373,90603,5
42403,90664,5
42434,90757,5
42488,90860,5
42521,90931,4
42537,90977,5
42554,91017,5
42572,91041,5
42578,91079,4
42619,91147,4
42647,91196,5
42640,91213,5
42646,91192,5
42638,91216,4
42657,91225,5
42662,91254,5
42670,91275,6
42673,91284,6
42682,91301,2
42682,91313,5
42684,91321,5
42690,91321,5
42686,91335,5
42701,91357,4
42703,91387,5
42731,91439,5
42750,91479,5
42750,91480,5
42748,91493,4
42749,91484,5
42749,91484,5
42756,91509,5
42770,91547,5
42792,91609,4
42824,91660,5
42828,91648,5
42813,91642,5
42808,91615,5
42797,91616,4
42794,91602,5
42788,91585,5
42785,91592,6
42783,91590,3
42781,91579,5
42764,91535,5
42738,91492,5
42731,91465,5
42714,91438,4
42692,91430,5
42692,91418,5
42694,91415,5
42685,91406,5
42672,91414,4
42680,91424,5
42667,91396,5
42646,91346,5
42617,91290,5
42574,91211,4
42530,91144,5
42488,91031,5
42421,90866,5
42323,90669,5
42249,90495,5
42171,90370,4
42106,90193,5
42034,90047,5
41988,89945,4
41953,89900,4
41952,89882,5
41943,89860,5
41927,89832,5
41905,89780,4
41879,89730,5
41860,89699,5
41837,89645,5
41829,89628,5
41827,89640,4
41843,89660,5
41842,89665,5
41837,89632,5
41820,89618,5
41819,89618,4
41809,89594,5
41816,89601,5
41816,89605,5
41828,89642,5
41852,89663,4
41856,89685,6
41845,89660,4
41836,89634,5
41861,89688,5
41889,89749,4
41926,89829,5
41985,89988,5
42057,90108,5
42119,90220,4
42151,90312,5
42187,90385,5
42231,90480,5
42276,90553,5
42300,90604,4
42311,90619,5
42322,90638,5
42356,90706,5
42381,90789,5
42445,90922,4
42508,91068,5
42575,91186,5
42639,91318,5
42698,91414,5
42729,91478,4
42749,91528,5
42766,91562,6
42771,91584,4
42799,91630,5
42825,91697,4
42847,91726,5
42866,91745,5
42868,91758,5
42881,91786,5
42904,91831,4
42920,91872,5
42949,91931,5
42989,92012,5
42997,92035,4
43010,92063,5
43038,92084,5
43047,92111,5
43035,92113,5
43055,92137,4
43090,92223,5
43120,92291,5
43136,92309,5
43148,92314,5
43145,92313,4
43133,92276,5
43117,92257,5
43127,92280,6
43136,92292,4
43137,92278,4
43133,92264,5
43128,92257,5
43139,92297,5
43163,92337,5
43191,92390,4
43220,92452,5
43245,92488,5
43257,92492,5
43249,92504,4
43263,92485,4
43250,92483,5
43249,92492,5
43253,92480,5
43256,92486,4
43276,92528,5
43284,92555,5
43286,92564,5
43300,92572,5
43296,92579,5
43301,92593,4
43315,92617,5
43326,92638,5
43349,92679,5
43366,92703,4
43371,92731,5
43399,92791,5
43440,92858,5
43467,92909,5
43496,92971,4
43513,93017,5
43543,93069,5
43577,93133,5
43603,93215,5
43648,93292,4
43682,93360,5
43704,93390,5
43720,93413,5
43718,93433,4
43724,93444,4
43748,93474,5
43771,93513,5
43769,93540,5
43789,93552,4
43795,93590,6
43795,93594,4
43797,93606,5
43802,93609,5
43815,93614,4
43815,93631,5
43815,93634,5
43823,93632,5
43814,93638,5
43817,93623,4
43812,93625,5
43820,93636,5
43817,93636,5
43820,93643,5
43820,93647,4
43824,93646,5
43822,93672,5
43838,93685,5
43838,93692,5
43861,93713,4
43855,93737,5
43868,93756,5
43885,93772,5
43882,93782,4
43884,93795,4
43894,93792,6
43897,93795,4
43896,93799,5
43902,93810,4
43904,93812,5
43908,93814,5
43899,93805,5
43902,93802,5
43897,93770,4
43884,93768,5
43875,93755,5
43873,93756,5
43863,93739,5
43858,93730,4
43860,93721,5
43853,93723,5
43856,93704,5
43856,93706,5
43847,93704,4
43859,93718,5
43862,93722,5
43864,93738,5
43873,93745,5
43873,93746,4
43869,93740,5
43869,93753,5
43877,93749,5
43885,93754,4
43878,93750,4
43870,93748,5
43866,93746,5
43867,93738,5
43861,93737,4
43867,93733,5
43852,93718,5
43852,93717,5
43854,93714,5
43861,93716,4
43860,93715,5
43851,93714,5
43845,93731,5
43860,93715,5
43853,93708,5
43860,93708,4
43863,93716,5
43859,93718,5
43858,93718,6
43852,93701,3
43847,93692,5
43845,93680,5
43844,93665,5
43829,93651,5
43823,93646,4
43820,93632,5
43816,93627,5
43817,93639,5
43820,93645,4
43826,93628,4
43820,93627,5
43811,93640,5
43816,93626,5
43813,93634,4
43815,93637,5
43824,93634,5
43824,93646,5
43833,93653,5
43836,93657,4
43836,93663,6
43834,93666,4
43834,93660,5
43843,93653,5
43829,93645,6
43821,93626,3
43813,93615,5
43809,93606,5
43804,93593,5
43799,93591,4
43791,93588,5
43802,93576,5
43790,93569,5
43793,93553,5
43787,93556,4
43788,93554,5
43787,93550,5
43790,93555,5
43789,93556,4
43784,93543,4
43786,93561,5
43782,93563,5
43797,93570,5
43791,93567,4
43800,93590,5
43816,93615,6
43815,93629,4
43840,93659,5
43844,93680,4
43863,93710,5
43872,93727,5
43878,93729,5
43873,93739,5
43874,93738,4
43865,93731,5
43874,93719,5
43869,93717,5
43861,93696,5
43853,93691,4
43852,93694,5
43851,93690,5
43854,93680,5
43851,93680,5
43849,93677,4
43844,93669,5
43832,93660,5
43835,93652,5
43832,93642,4
43833,93637,4
43828,93631,5
43824,93633,6
43827,93629,4
43828,93634,4
43821,93620,5
43824,93635,5
43824,93647,5
43834,93642,5
43844,93673,4
43848,93680,5
43858,93688,5
43880,93719,5
43883,93744,5
43895,93766,4
43907,93787,5
43917,93820,5
43934,93840,5
43942,93868,5
43965,93885,4
43967,93906,5
43983,93946,5
43991,93950,5
44010,93976,5
44012,94007,4
44014,94021,5
44021,94030,5
44032,94048,6
44037,94060,3
44038,94075,4
44050,94103,5
44070,94123,5
44075,94135,5
44086,94163,4
44099,94188,5
44116,94203,5
44121,94218,5
44126,94239,5
44140,94260,4
44142,94249,5
44145,94261,5
44143,94274,5
44151,94279,5
44148,94281,4
44156,94278,5
44156,94291,5
44153,94285,5
44157,94285,5
44143,94271,5
44146,94257,4
44134,94236,5
44122,94221,5
44109,94203,6
44107,94192,3
44110,94186,5
44099,94192,5
44099,94190,5
44098,94178,4
44101,94173,4
44099,94185,5
44104,94175,5
44101,94184,5
44106,94183,4
44111,94187,5
44097,94186,5
44112,94194,5
44110,94191,5
44105,94200,4
44114,94200,5
44113,94199,5
44106,94200,5
44112,94209,5
44115,94203,4
44118,94209,6
44107,94213,4
44113,94205,5
44117,94207,5
44115,94218,4
44107,94215,5
44110,94217,5
44112,94215,5
44122,94225,5
44116,94228,4
44124,94235,5
44126,94246,5
44129,94239,5
44132,94256,4
44132,94255,4
44139,94276,5
44144,94274,5
44145,94270,5
44147,94282,4
44144,94282,5
44138,94277,5
44154,94273,5
44143,94275,5
44140,94286,4
44153,94286,5
44150,94292,6
44149,94290,4
44144,94303,5
44154,94305,4
44160,94299,5
44154,94310,5
44165,94313,5
44161,94314,5
44159,94312,4
44152,94310,5
44159,94311,5
44157,94306,5
44159,94308,5
44159,94311,4
44154,94298,5
44160,94302,5
44154,94308,5
44156,94307,4
44149,94304,4
44151,94307,5
44154,94303,5
44151,94301,5
44151,94297,4
44152,94295,5
44145,94290,5
44142,94287,6
44139,94277,4
44145,94280,4
44143,94276,5
44142,94282,5
44132,94271,5
44129,94253,5
44131,94255,4
44120,94244,5
44116,94221,5
44105,94217,5
44109,94199,5
44097,94186,4
44088,94172,5
44086,94166,5
44083,94163,5
44079,94150,5
44070,94156,4
44070,94141,5
44078,94149,5
44065,94149,5
44068,94155,5
44076,94166,4
44088,94182,5
44091,94218,5
44105,94230,5
44113,94245,4
44120,94262,5
44125,94281,5
44137,94289,5
44141,94306,5
44136,94305,4
44146,94299,5
44143,94303,5
44139,94298,5
44127,94306,5
44140,94310,4
44143,94308,5
44132,94316,5
44146,94321,5
44138,94325,5
44155,94344,4
44150,94341,5
44156,94348,5
44161,94353,5
44165,94366,5
44167,94367,5
44160,94356,4
44155,94347,5
44156,94334,5
44149,94311,4
44121,94276,4
44108,94234,5
44091,94194,5
44068,94161,5
44049,94124,5
44039,94077,4
44007,94017,5
43981,93964,5
43960,93908,5
43935,93833,4
43900,93799,5
43895,93772,5
43885,93762,5
43880,93749,5
43865,93721,4
43859,93691,5
43853,93686,6
43850,93680,4
43841,93676,5
43845,93667,4
43842,93660,7
43848,93663,3
43846,93662,5
43842,93659,5
43845,93655,4
43852,93639,5
43845,93656,5
43850,93662,5
43851,93666,4
43839,93654,4
43846,93655,5
43841,93655,5
43847,93658,5
43849,93660,4
43851,93671,5
43849,93665,5
43843,93653,5
43849,93645,5
43847,93635,4
43840,93627,5
43828,93602,5
43830,93600,5
43821,93594,5
43830,93596,4
43830,93601,5
43834,93609,6
43831,93613,4
43834,93610,5
43826,93593,4
43819,93592,5
43826,93599,5
43822,93611,5
43840,93621,5
43840,93639,4
43849,93633,5
43840,93649,5
43854,93646,5
43855,93661,4
43853,93659,4
43854,93672,5
43868,93692,5
43868,93690,5
43882,93713,4
43880,93730,5
43889,93738,5
43897,93740,5
43906,93754,5
43918,93774,4
43915,93789,5
43925,93806,5
43927,93804,5
43925,93803,5
43923,93794,4
43919,93795,5
43923,93798,5
43914,93788,5
43919,93787,5
43917,93793,4
43920,93801,5
43921,93810,5
43936,93821,5
43935,93827,5
43937,93829,4
43944,93834,5
43943,93835,5
43950,93839,5
43939,93852,5
43958,93862,4
43957,93860,5
43961,93872,5
43964,93866,5
43972,93881,5
43969,93891,4
43971,93908,5
43989,93928,5
43985,93927,5
43990,93919,4
43983,93929,5
43986,93926,5
43991,93923,5
43990,93917,5
43985,93923,4
43988,93922,5
43992,93927,5
43989,93932,5
43983,93910,5
43980,93904,4
43975,93907,5
43981,93909,5
43977,93924,5
43987,93916,5
43975,93925,4
43993,93930,5
43985,93935,5
43994,93930,5
43985,93938,5
43998,93948,5
44009,93953,3
44006,93958,5
44013,93974,5
44004,93991,4
44020,93984,4
44018,93993,5
44032,93992,5
44031,94005,5
44032,94002,4
44035,94013,5
44048,94030,5
44043,94037,5
44041,94043,5
44046,94050,4
44044,94049,5
44041,94048,5
44049,94051,5
44048,94044,5
44047,94053,4
44046,94050,5
44051,94055,6
44055,94065,4
44055,94062,5
44058,94071,4
44056,94067,5
44063,94086,5
44061,94082,5
44078,94102,5
44067,94113,4
44086,94126,4
44081,94118,5
44087,94118,5
44085,94123,4
44085,94133,4
44093,94150,5
44096,94161,5
44111,94177,5
44118,94182,4
44122,94204,5
44129,94197,5
44122,94210,5
44138,94209,5
44138,94240,4
44135,94229,5
44140,94241,5
44137,94237,6
44148,94240,4
44142,94238,4
44138,94253,5
44140,94246,5
44144,94267,5
44147,94254,5
44151,94261,4
44151,94257,5
44153,94242,5
44137,94248,5
44144,94239,5
44144,94245,4
44143,94242,5
44148,94251,5
44151,94242,5
44159,94247,4
44139,94250,5
44138,94238,5
44146,94240,5
44138,94235,5
44140,94227,5
44146,94232,4
44140,94229,5
44143,94233,5
44136,94232,6
44127,94219,3
44129,94214,5
44140,94213,5
44136,94217,5
44132,94223,5
44131,94220,4
44134,94222,5
44130,94220,5
44126,94218,5
44141,94220,5
44135,94225,4
44137,94219,5
44130,94221,5
44136,94218,5
44130,94218,5
44132,94213,4
44126,94206,5
44126,94201,5
44113,94186,5
44117,94166,4
44104,94156,5
44100,94139,4
44084,94118,5
44073,94105,5
44072,94097,6
44077,94086,3
44064,94088,5
44065,94081,5
44064,94085,5
44074,94087,4
44070,94092,5
44084,94096,5
44076,94099,5
44082,94105,5
44080,94105,4
44080,94119,5
44079,94101,5
44068,94102,5
44074,94092,5
44065,94086,4
44059,94085,5
44061,94079,5
44070,94072,5
44056,94070,5
44059,94072,4
44055,94062,6
44056,94064,4
44057,94069,5
44047,94054,4
44057,94066,4
44058,94055,5
44054,94057,5
44051,94057,5
44056,94044,4
44054,94046,5
44051,94044,5
44048,94043,5
44050,94041,5
44041,94030,4
44037,94035,5
44043,94039,5
44038,94026,5
44028,94006,5
44033,93999,4
44015,93991,5
44022,94008,5
44022,94009,5
44038,94011,5
44030,94017,4
44039,94019,5
44032,94017,6
44044,94015,4
44042,94011,5
44038,94019,4
44038,94024,5
44036,94020,5
44051,94027,5
44034,94019,4
44037,94025,4
44026,94012,5
44028,94009,5
44023,93998,5
44024,94005,4
44025,93994,5
44023,93995,5
44020,93987,5
44019,93977,5
44015,93972,4
44010,93982,5
44005,93968,5
44008,93958,5
44000,93956,5
44002,93940,4
43991,93934,5
43984,93923,5
43980,93901,6
43978,93883,4
43974,93886,4
43974,93881,5
43964,93875,5
43966,93870,5
43965,93860,5
43958,93870,4
43959,93863,5
43964,93866,5
43963,93857,5
43961,93843,4
43945,93831,4
43945,93837,5
43935,93819,5
43939,93800,5
43931,93780,4
43916,93774,5
43904,93753,5
43902,93721,5
43884,93694,5
43873,93667,5
43863,93659,4
43855,93647,5
43855,93625,5
43838,93597,6
43831,93581,3
43819,93558,5
43816,93554,5
43808,93547,5
43807,93548,5
43820,93548,4
43806,93552,5
43807,93558,5
43812,93545,5
43808,93541,5
43797,93521,4
43803,93527,5
43799,93515,5
43796,93518,5
43798,93516,4
43800,93502,4
43784,93506,5
43789,93496,5
43785,93491,5
43778,93493,4
43784,93480,6
43771,93470,4
43773,93462,5
43763,93462,5
43768,93450,4
43773,93444,5
43756,93437,5
43753,93421,5
43740,93397,5
43732,93377,4
43724,93360,5
43713,93351,5
43718,93353,5
43706,93326,5
43705,93318,4
43696,93298,5
43684,93265,5
43662,93234,5
43654,93224,5
43665,93224,4
43650,93221,5
43654,93205,5
43635,93191,5
43637,93179,4
43629,93161,4
43618,93145,6
43612,93140,6
43600,93112,3
43597,93103,4
43611,93080,5
43592,93076,5
43582,93061,5
43572,93062,5
43562,93054,4
43563,93039,5
43564,93041,5
43560,93027,5
43559,93028,5
43559,93028,4
43560,93020,5
43552,93016,5
43548,93003,5
43551,93000,5
43538,92991,4
43542,92983,5
43532,92975,5
43529,92970,5
43527,92960,5
43531,92955,4
43522,92952,5
43519,92932,6
43509,92923,4
43508,92914,4
43511,92920,4
43507,92911,5
43500,92905,5
43487,92895,5
43485,92885,4
43483,92869,5
43481,92856,5
43480,92858,5
43491,92866,5
43477,92880,4
43488,92870,5
43483,92866,5
43486,92861,5
43489,92872,5
43488,92861,4
43486,92875,5
43490,92875,5
43487,92879,5
43483,92862,5
43492,92877,4
43490,92872,5
43489,92877,5
43504,92885,5
43501,92888,5
43491,92889,4
43496,92889,5
43498,92896,5
43500,92897,5
43506,92895,4
43491,92887,4
43489,92884,5
43500,92879,5
43495,92889,5
43489,92887,4
43492,92881,5
43487,92867,5
43488,92875,5
43485,92883,5
43496,92888,4
43502,92890,5
43512,92916,5
43514,92934,5
43523,92940,5
43526,92951,5
43529,92959,4
43523,92962,5
43536,92967,5
43541,92989,5
43542,92986,4
43554,92989,5
43544,92985,5
43543,93005,5
43544,93001,5
43550,92993,4
43542,93004,5
43543,93005,5
43552,93008,5
43554,93007,4
43561,93005,4
43551,93019,5
43553,93017,5
43553,93011,5
43553,93011,4
43556,93027,5
43556,93024,5
43560,93032,5
43568,93045,5
43575,93048,4
43579,93071,6
43578,93068,4
43584,93064,5
43584,93071,5
43579,93064,4
43581,93066,5
43575,93079,5
43589,93077,5
43584,93072,5
43588,93075,4
43595,93083,5
43592,93085,5
43599,93088,5
43585,93095,5
43595,93091,4
43593,93090,5
43601,93087,5
43596,93086,5
43599,93094,4
43595,93094,4
43591,93095,5
43601,93101,5
43595,93099,5
43590,93093,4
43590,93091,5
43600,93090,6
43596,93091,4
43596,93075,5
43592,93081,4
43584,93079,5
43586,93080,5
43587,93072,5
43589,93070,5
43584,93075,4
43580,93075,5
43582,93081,5
43585,93075,5
43588,93079,5
43582,93089,4
43595,93080,5
43593,93085,5
43588,93076,5
43590,93066,5
43588,93075,4
43588,93067,5
43581,93061,5
43578,93057,5
43576,93052,3
43579,93049,4
43573,93042,5
43571,93039,5
43574,93044,5
43565,93034,4
43562,93022,5
43565,93022,5
43566,93034,5
43566,93034,5
43570,93028,4
43565,93028,5
43569,93030,5
43577,93035,5
43563,93031,5
43565,93024,4
43570,93027,5
43573,93027,5
43568,93028,5
43568,93034,5
43561,93040,5
43562,93026,4
43562,93027,5
43564,93030,5
43568,93026,6
43558,93018,3
43561,93005,5
43557,92998,5
43558,92995,5
43539,92978,4
43539,92979,4
43533,92958,5
43532,92960,5
43518,92946,5
43533,92940,4
43520,92941,5
43527,92951,5
43527,92955,5
43520,92950,5
43536,92962,4
43538,92963,5
43544,92970,5
43535,92967,5
43537,92960,5
43537,92969,4
43543,92968,6
43538,92970,4
43531,92967,5
43541,92973,5
43541,92974,6
43540,92970,3
43527,92980,5
43535,92978,5
43542,92993,5
43545,92993,4
43555,92997,5
43553,92997,5
43537,92979,5
43543,92981,4
43540,92976,4
43550,92982,5
43544,92978,5
43537,92980,5
43549,92972,5
43539,92975,4
43540,92970,5
43532,92961,5
43534,92952,5
43524,92951,4
43525,92946,5
43525,92943,6
43531,92944,4
43529,92938,5
43526,92957,4
43528,92947,5
43528,92952,5
43534,92957,5
43525,92956,5
43527,92956,4
43523,92967,5
43531,92952,5
43529,92959,5
43520,92952,5
43525,92942,4
43527,92943,5
43525,92936,5
43528,92942,5
43530,92931,4
43513,92918,4
43517,92930,5
43511,92928,5
43517,92924,5
43516,92925,4
43516,92922,5
43509,92915,5
43514,92911,6
43511,92907,4
43501,92903,4
43510,92894,5
43508,92890,5
43513,92890,5
43500,92894,5
43504,92879,4
43502,92892,5
43491,92875,5
43496,92898,5
43496,92891,5
43499,92883,4
43500,92887,5
43494,92885,5
43500,92884,5
43501,92877,5
43493,92884,4
43499,92879,5
43499,92880,5
43497,92880,5
43503,92880,5
43495,92886,4
43495,92877,5
43498,92877,5
43493,92876,6
43485,92866,3
43491,92866,5
43488,92861,5
43478,92857,5
43484,92863,5
43491,92865,4
43491,92871,5
43488,92873,5
43482,92868,5
43494,92873,5
43502,92885,4
43500,92877,5
43501,92883,5
43499,92877,5
43495,92883,5
43492,92878,4
43493,92870,5
43496,92861,5
43489,92865,5
43492,92867,5
43493,92863,5
43484,92857,4
43475,92840,5
43474,92834,5
43470,92836,6
43465,92815,3
43461,92801,5
43461,92799,5
43452,92788,5
43452,92791,4
43451,92800,5
43464,92795,5
43454,92788,5
43463,92804,5
43475,92822,4
43476,92824,5
43484,92847,5
43480,92852,5
43486,92842,5
43486,92854,4
43483,92858,5
43494,92860,5
43498,92874,5
43504,92871,5
43501,92889,4
43495,92892,6
43489,92884,4
43496,92879,5
43500,92881,5
43499,92885,4
43501,92884,5
43493,92880,5
43500,92885,5
43501,92887,4
43501,92887,4
43493,92877,5
43497,92876,5
43497,92871,5
43506,92880,4
43504,92882,5
43509,92889,5
43503,92887,5
43496,92892,5
43506,92887,4
43502,92875,5
43506,92882,5
43503,92886,5
43502,92894,5
43507,92908,4
43504,92904,5
43515,92904,6
43517,92902,4
43515,92904,5
43507,92902,4
43513,92901,5
43512,92911,5
43503,92903,5
43508,92906,4
43509,92908,4
43515,92907,5
43519,92905,5
43506,92903,5
43509,92911,4
43513,92914,5
43516,92907,5
43513,92915,5
43512,92916,5
43516,92909,4
43514,92916,5
43512,92914,5
43517,92914,5
43508,92903,5
43506,92907,4
43511,92915,5
43508,92914,5
43516,92909,6
43519,92915,4
43523,92931,4
43517,92942,5
43533,92951,5
43540,92963,5
43546,92977,5
43548,92994,4
43568,93021,5
43582,93045,5
43590,93061,5
43594,93091,4
43616,93110,4
43630,93147,5
43645,93181,5
43656,93195,5
43671,93217,4
43679,93246,5
43690,93261,5
43698,93279,5
43709,93313,5
43730,93332,5
43733,93351,4
43745,93371,5
43756,93398,5
43766,93418,5
43778,93430,4
43783,93454,5
43793,93468,5
43804,93500,5
43817,93506,5
43822,93512,4
43827,93537,5
43842,93563,5
43845,93567,5
43865,93585,5
43867,93602,4
43862,93615,5
43873,93628,5
43871,93654,5
43896,93664,4
43906,93680,4
43908,93702,5
43908,93707,5
43916,93721,5
43919,93731,4
43923,93736,6
43933,93746,4
43931,93751,5
43931,93755,5
43942,93745,4
43937,93765,5
43942,93756,5
43937,93762,5
43939,93748,5
43938,93742,4
43924,93737,5
43920,93721,5
43917,93709,5
43924,93714,5
43916,93713,4
43923,93714,5
43920,93714,5
43920,93731,5
43933,93726,5
43928,93732,4
43929,93751,5
43935,93756,5
43948,93756,5
43944,93762,4
43937,93757,4
43941,93773,6
43949,93772,4
43939,93775,5
43952,93776,4
43953,93768,5
43952,93766,5
43947,93772,5
43950,93771,5
43942,93767,4
43945,93774,5
43937,93759,5
43948,93763,5
43944,93769,5
43942,93761,4
43941,93755,5
43946,93771,5
43936,93763,5
43947,93771,5
43952,93772,4
43952,93789,5
43951,93798,5
43957,93798,5
43964,93811,5
43958,93812,4
43961,93796,5
43961,93796,6
43958,93788,4
43947,93783,4
43960,93791,4
43968,93794,5
43962,93804,5
43962,93807,5
43968,93810,4
43969,93825,5
43974,93825,5
43966,93824,5
43977,93834,5
43974,93841,4
43984,93843,5
43976,93839,5
43981,93844,5
43977,93836,5
43984,93842,5
43985,93844,4
43977,93852,5
43981,93848,5
43986,93846,6
43987,93860,3
43997,93856,5
43988,93863,5
43990,93871,5
43998,93875,5
43991,93866,4
43991,93880,5
43997,93872,5
43988,93881,5
43993,93888,4
44003,93892,4
44000,93897,5
43999,93898,5
44008,93916,5
44007,93905,4
44010,93898,5
44014,93902,5
44010,93921,5
44007,93910,5
44009,93920,4
44019,93925,5
44012,93923,5
44021,93920,5
44016,93921,5
44015,93923,5
44018,93917,4
44019,93916,5
44014,93929,5
44020,93923,5
44013,93925,4
44020,93916,5
44014,93926,5
44019,93924,5
44019,93927,5
44024,93922,4
44013,93926,5
44019,93940,5
44020,93930,5
44023,93935,4
44018,93938,4
44018,93924,5
44017,93926,5
44016,93919,5
44015,93911,4
44007,93916,5
44013,93905,5
44019,93906,4
44005,93899,5
44005,93899,4
43994,93890,7
44004,93883,3
43989,93881,5
43974,93867,5
43982,93860,4
43979,93848,5
43982,93846,5
43979,93848,5
43977,93849,5
43975,93833,4
43980,93843,5
43970,93846,5
43981,93843,5
43983,93836,5
43978,93838,4
43979,93846,5
43972,93851,5
43976,93847,5
43978,93838,4
43970,93835,4
43970,93828,5
43974,93821,6
43961,93819,4
43958,93815,4
43957,93803,5
43953,93796,5
43952,93786,5
43948,93786,5
43941,93778,4
43950,93778,5
43941,93764,5
43943,93761,5
43944,93774,5
43939,93772,4
43939,93770,5
43942,93766,5
43942,93776,5
43936,93772,5
43947,93785,4
43943,93783,5
43948,93795,5
43941,93773,5
43931,93764,5
43932,93753,4
43927,93754,5
43930,93744,5
43930,93757,6
43945,93764,3
43938,93761,4
43940,93772,5
43944,93786,5
43931,93779,5
43944,93773,4
43935,93780,5
43943,93779,5
43941,93773,5
43940,93783,5
43944,93770,4
43947,93780,5
43949,93775,5
43943,93777,5
43939,93786,5
43945,93787,4
43939,93780,5
43951,93784,5
43940,93779,5
43943,93779,5
43947,93772,5
43933,93763,4
43944,93768,5
43931,93780,5
43936,93781,6
43949,93782,3
43962,93805,5
43957,93830,5
43980,93856,5
43983,93870,4
43984,93861,4
43992,93873,5
44005,93905,5
44016,93936,5
44036,93966,4
44053,93983,5
44053,93992,5
44070,94014,5
44079,94019,5
44076,94027,4
44081,94026,5
44081,94020,5
44083,94019,5
44084,94028,5
44078,94024,5
44090,94039,5
44090,94035,4
44104,94053,5
44100,94071,5
44107,94063,4
44109,94076,5
44115,94074,5
44110,94083,5
44109,94081,5
44106,94076,4
44104,94072,5
44104,94045,5
44098,94041,5
44098,94061,4
44107,94063,4
44105,94058,5
44108,94069,5
44104,94081,5
44105,94064,4
44109,94036,5
44096,94038,5
44088,94014,5
44083,94014,5
44080,93993,4
44067,94000,5
44066,93984,6
44071,93979,4
44067,93980,5
44059,93990,4
44069,93980,5
44063,93979,5
44067,93976,5
44067,93975,5
44068,93990,4
44069,93978,5
44074,93996,5
44069,93986,5
44056,93969,4
44055,93957,4
44059,93959,5
44059,93957,5
44052,93949,5
44059,93959,4
44059,93972,5
44061,93970,5
44063,93959,5
44059,93960,5
44051,93959,4
44056,93960,5
44054,93948,5
44055,93949,6
44054,93956,4
44055,93942,4
44044,93933,5
44038,93936,5
44043,93933,5
44040,93920,5
44037,93917,4
44045,93914,5
44042,93915,5
44036,93916,5
44033,93910,5
44038,93915,4
44042,93917,5
44042,93918,5
44042,93915,5
44039,93912,4
44043,93926,4
44034,93918,5
44041,93923,5
44045,93914,5
44032,93909,5
44036,93905,4
44039,93891,5
44019,93875,5
44008,93847,6
44001,93809,3
43968,93752,5
43939,93693,5
43911,93643,5
43877,93570,5
43851,93506,4
43820,93450,5
43789,93395,5
43769,93355,5
43760,93321,5
43747,93316,4
43744,93293,5
43733,93289,5
43732,93288,5
43735,93293,5
43739,93296,4
43742,93305,5
43742,93309,5
43748,93324,5
43746,93318,4
43749,93335,5
43755,93328,4
43753,93347,5
43767,93359,5
43777,93368,4
43776,93383,5
43784,93399,5
43790,93413,5
43798,93412,5
43804,93425,4
43801,93431,5
43801,93429,5
43806,93428,5
43812,93451,5
43821,93462,4
43825,93471,5
43829,93483,5
43829,93482,5
43836,93476,5
43825,93484,4
43826,93470,5
43825,93453,5
43821,93451,5
43815,93438,5
43809,93437,4
43817,93437,6
43820,93448,4
43814,93459,5
43828,93468,4
43838,93483,4
43850,93524,5
43854,93533,5
43858,93563,5
43873,93588,4
43882,93600,5
43895,93615,5
43890,93619,5
43904,93632,5
43894,93625,4
43901,93655,5
43918,93656,5
43918,93669,5
43929,93687,5
43929,93698,4
43942,93729,5
43949,93729,5
43960,93741,5
43958,93737,5
43960,93747,4
43963,93742,5
43964,93765,6
43968,93748,4
43964,93745,5
43965,93769,4
43964,93779,5
43968,93785,5
43982,93795,5
43988,93819,4
43996,93841,4
44001,93859,5
44008,93864,5
44018,93861,5
44009,93874,4
44016,93874,5
44023,93876,5
44019,93897,5
44030,93903,5
44032,93915,4
44036,93913,5
44037,93923,5
44042,93922,5
44041,93930,5
44039,93919,4
44035,93906,5
44034,93912,5
44023,93911,5
44019,93904,5
44029,93898,4
44028,93880,5
44021,93889,5
44018,93877,5
44014,93878,5
44020,93890,4
44017,93892,5
44029,93890,5
44026,93903,5
44026,93892,4
44022,93901,4
44025,93889,5
44021,93897,5
44022,93902,5
44024,93912,4
44022,93912,5
44040,93918,5
44033,93918,5
44039,93922,5
44041,93928,5
44045,93933,4
44041,93930,5
44048,93929,5
44045,93928,5
44049,93941,4
44039,93930,5
44043,93934,5
44050,93942,5
44047,93941,5
44051,93936,4
44043,93935,5
44037,93933,5
44037,93931,5
44028,93912,5
44040,93912,4
44036,93910,5
44025,93904,5
44036,93901,5
44036,93905,4
44030,93904,4
44032,93896,5
44026,93911,5
44034,93915,5
44034,93923,4
44040,93924,6
44039,93943,6
44041,93933,3
44055,93950,5
44066,93949,4
44048,93947,5
44049,93947,5
44053,93941,5
44050,93953,5
44047,93959,4
44055,93959,5
44056,93961,5
44052,93970,5
44066,93968,5
44063,93972,4
44065,93978,5
44068,93986,5
44070,93980,5
44067,93985,5
44074,93985,4
44078,93991,5
44076,94002,5
44073,93999,5
44076,93997,4
44069,93997,4
44070,93989,6
44063,93985,4
44069,93993,5
44068,93978,4
44068,93983,5
44059,93976,5
44071,93972,5
44064,93965,5
44052,93951,4
44064,93957,5
44058,93947,5
44054,93944,5
44050,93951,5
44057,93948,4
44056,93938,5
44054,93930,5
44035,93916,5
44029,93887,5
44015,93871,4
44012,93855,5
44001,93846,5
43997,93834,5
44001,93828,4
43999,93817,4
43993,93819,5
43990,93813,5
43987,93815,5
43979,93794,4
43980,93797,4
43968,93764,5
43951,93726,5
43941,93698,5
43910,93650,4
43895,93606,5
43883,93563,5
43856,93527,5
43829,93476,5
43807,93427,4
43793,93380,5
43764,93350,5
43751,93323,5
43737,93310,5
43743,93299,5
43738,93285,4
43738,93280,5
43722,93260,5
43702,93214,6
43688,93176,3
43665,93126,5
43645,93096,5
43628,93058,5
43612,93031,5
43590,92994,4
43571,92965,5
43568,92949,5
43555,92920,5
43547,92893,4
43542,92892,4
43543,92883,5
43541,92880,5
43536,92891,5
43535,92881,4
43532,92879,5
43523,92860,5
43514,92842,5
43509,92825,5
43497,92793,4
43479,92776,6
43481,92752,4
43469,92730,5
43462,92729,5
43451,92718,6
43451,92712,3
43452,92713,5
43442,92699,5
43444,92690,5
43429,92668,4
43420,92647,5
43410,92627,5
43399,92598,5
43390,92575,5
43367,92551,4
43359,92527,5
43351,92497,5
43334,92470,5
43329,92455,4
43317,92445,4
43319,92434,5
43303,92418,5
43314,92412,5
43302,92418,4
43300,92413,5
43312,92413,6
43307,92416,4
43305,92404,5
43299,92393,4
43292,92388,5
43287,92366,5
43289,92365,5
43277,92357,5
43264,92332,4
43262,92339,5
43268,92341,5
43272,92341,5
43273,92347,5
43279,92345,4
43271,92345,5
43270,92340,5
43263,92332,5
43267,92332,5
43261,92328,4
43264,92336,5
43271,92322,5
43260,92348,5
43271,92329,4
43269,92323,5
43262,92331,5
43259,92325,6
43254,92307,4
43252,92295,4
43249,92288,5
43241,92277,5
43226,92260,5
43231,92240,5
43222,92231,4
43217,92238,5
43217,92235,5
43223,92240,5
43217,92234,5
43225,92234,4
43219,92225,5
43204,92212,5
43200,92187,5
43187,92160,5
43180,92139,4
43169,92105,5
43148,92084,5
43146,92056,5
43125,92029,5
43126,92026,4
43118,92001,5
43107,91986,5
43089,91974,6
43085,91936,3
43079,91928,5
43074,91917,5
43059,91901,5
43055,91881,5
43048,91877,4
43042,91863,5
43045,91869,5
43047,91862,5
43043,91862,5
43050,91874,4
43059,91867,5
43046,91878,5
43052,91876,5
43051,91867,5
43056,91861,4
43045,91860,5
43045,91862,5
43045,91860,5
43044,91848,5
43042,91850,5
43038,91839,4
43040,91846,5
43046,91860,5
43042,91871,6
43054,91884,3
43065,91902,5
43070,91917,5
43084,91939,5
43098,91972,5
43107,91983,4
43119,92010,5
43128,92042,5
43144,92074,5
43162,92095,4
43180,92140,5
43191,92157,5
43200,92162,5
43194,92162,5
43199,92178,4
43191,92157,5
43194,92152,5
43183,92153,5
43195,92161,5
43196,92171,4
43193,92173,6
43209,92176,4
43208,92186,5
43212,92202,5
43211,92220,4
43217,92212,5
43228,92237,5
43231,92244,5
43226,92245,4
43229,92248,4
43236,92243,5
43243,92258,5
43237,92266,5
43242,92274,4
43251,92285,5
43262,92295,5
43264,92324,5
43277,92339,5
43281,92362,4
43298,92376,5
43302,92398,5
43303,92396,5
43302,92414,5
43310,92395,4
43314,92411,5
43309,92422,6
43310,92414,4
43310,92414,5
43309,92420,4
43312,92422,5
43324,92431,5
43325,92431,5
43331,92441,5
43333,92450,4
43340,92464,5
43337,92477,5
43345,92480,5
43344,92484,4
43351,92488,5
43341,92495,5
43349,92493,5
43350,92506,5
43350,92523,4
43356,92528,5
43367,92544,5
43380,92556,5
43376,92562,5
43387,92567,4
43378,92563,5
43389,92565,5
43388,92557,6
43385,92571,4
43381,92576,4
43382,92578,5
43387,92576,5
43389,92590,5
43397,92602,5
43398,92621,4
43397,92631,5
43406,92624,5
43410,92613,5
43405,92609,4
43411,92607,4
43404,92597,5
43397,92591,5
43395,92593,5
43387,92582,4
43384,92568,5
43392,92576,5
43387,92588,5
43395,92595,5
43399,92610,5
43396,92615,4
43412,92616,5
43408,92638,5
43420,92642,5
43417,92647,4
43426,92647,5
43421,92657,5
43429,92671,5
43429,92673,5
43440,92680,4
43444,92687,5
43437,92689,5
43444,92706,5
43451,92702,5
43449,92699,4
43443,92694,5
43446,92688,5
43444,92693,5
43434,92682,4
43425,92680,5
43446,92686,5
43441,92682,5
43447,92694,5
43455,92716,4
43460,92731,6
43471,92751,4
43479,92753,5
43495,92779,5
43483,92766,4
43481,92779,5
43483,92789,5
43500,92808,5
43506,92831,5
43520,92852,4
43526,92859,5
43515,92857,5
43516,92863,5
43512,92811,5
43473,92739,4
43440,92662,5
43407,92620,5
43369,92548,5
43339,92485,4
43294,92407,4
43276,92347,5
43250,92313,6
43236,92289,4
43236,92261,4
43208,92231,5
43177,92174,7
43150,92126,3
43129,92079,5
43099,92000,4
43058,91917,5
43021,91840,5
42984,91778,5
42959,91726,5
42930,91688,4
42917,91622,5
42877,91562,5
42842,91490,5
42826,91454,5
42807,91414,4
42785,91378,5
42775,91348,5
42763,91320,5
42762,91312,5
42747,91289,4
42728,91247,5
42712,91223,5
42699,91183,5
42689,91154,4
42675,91128,5
42667,91104,5
42641,91053,5
42615,90989,5
42581,90906,4
42535,90823,5
42508,90762,5
42464,90714,5
42459,90679,5
42450,90663,4
42438,90649,5
42434,90632,5
42432,90637,5
42427,90626,5
42424,90601,4
42398,90558,5
42392,90508,5
42363,90456,5
42319,90382,5
42289,90310,4
42244,90240,5
42228,90185,5
42198,90130,5
42187,90111,5
42174,90097,4
42169,90082,5
42167,90075,5
42173,90075,5
42170,90087,4
42178,90082,5
42163,90048,5
42132,89992,5
42106,89947,5
42080,89892,4
42064,89872,5
42058,89850,5
42064,89838,5
42055,89832,5
42050,89823,4
42046,89824,5
42050,89846,5
42043,89820,5
42024,89783,5
41998,89719,4
41969,89651,5
41948,89602,5
41921,89567,5
41915,89551,5
41899,89531,5
41902,89528,4
41908,89538,5
41908,89542,5
41894,89518,4
41875,89456,5
41856,89416,5
41838,89383,5
41829,89363,5
41826,89372,4
41830,89392,5
41853,89402,5
41862,89454,5
41886,89494,5
41897,89526,4
41913,89554,5
41919,89584,5
41932,89598,5
41947,89626,5
41959,89651,4
41973,89676,5
41994,89710,5
42000,89723,4
42013,89732,5
42015,89751,4
42021,89768,6
42040,89796,4
42032,89815,5
42046,89834,4
42057,89840,4
42057,89865,5
42069,89874,5
42082,89889,5
42088,89913,4
42101,89947,5
42126,89998,5
42154,90052,5
42189,90116,5
42226,90207,4
42264,90289,5
42317,90379,5
42354,90478,5
42417,90583,5
42458,90681,4
42521,90785,5
42565,90894,5
42618,90991,6
42661,91095,4
42704,91180,4
42747,91253,5
42779,91311,5
42800,91350,5
42809,91381,5
42821,91406,4
42840,91431,5
42849,91463,5
42862,91497,5
42881,91523,4
42897,91563,5
42913,91592,5
42923,91609,5
42936,91625,5
42946,91644,5
42938,91662,4
42952,91679,5
42975,91709,5
42977,91724,5
42992,91738,5
43000,91758,4
43002,91756,5
43002,91768,5
43003,91765,6
42997,91766,3
42982,91747,5
42996,91746,5
42995,91748,5
42989,91766,5
43003,91759,4
43003,91774,5
43003,91784,5
43017,91795,5
43023,91817,4
43025,91834,4
43039,91853,5
43057,91873,5
43065,91902,5
43078,91920,4
43078,91927,5
43085,91931,5
43084,91945,5
43084,91950,5
43089,91947,4
43093,91951,6
43099,91952,4
43095,91954,5
43091,91952,5
43087,91960,6
43089,91950,3
43093,91960,5
43095,91947,5
43088,91947,5
43089,91952,4
43093,91942,5
43094,91945,5
43085,91948,5
43092,91963,5
43090,91960,4
43097,91962,5
43095,91965,5
43095,91959,5
43089,91956,4
43091,91934,4
43089,91924,5
43078,91929,5
43075,91919,5
43083,91937,4
43084,91942,5
43088,91936,6
43087,91932,4
43094,91946,5
43089,91951,4
43091,91956,5
43092,91955,5
43098,91952,5
43091,91955,5
43098,91960,4
43095,91957,5
43093,91966,5
43100,91977,5
43100,91965,5
43110,91971,4
43106,91976,5
43115,92002,5
43114,92017,5
43137,92036,5
43133,92039,4
43143,92076,5
43158,92087,5
43181,92122,5
43191,92159,4
43204,92191,4
43225,92235,5
43240,92256,6
43255,92293,4
43268,92328,4
43288,92354,5
43292,92376,5
43308,92402,5
43314,92426,5
43338,92451,4
43338,92465,5
43349,92488,5
43360,92513,5
43374,92526,5
43383,92554,4
43393,92573,5
43399,92572,5
43402,92573,5
43403,92564,5
43396,92574,4
43388,92562,5
43387,92572,5
43395,92567,5
43391,92565,5
43387,92557,4
43381,92556,5
43388,92557,5
43403,92552,6
43383,92559,3
43384,92560,4
43396,92569,5
43391,92565,5
43392,92572,5
43387,92573,4
43388,92568,5
43389,92554,5
43380,92556,5
43388,92542,5
43376,92523,4
43370,92526,5
43376,92518,5
43373,92533,5
43373,92524,5
43371,92532,4
43370,92536,5
43386,92547,5
43391,92566,5
43401,92574,5
43401,92599,5
43424,92629,4
43432,92650,5
43437,92662,5
43454,92692,6
43480,92696,3
43470,92719,5
43479,92738,5
43484,92750,5
43498,92765,4
43495,92783,4
43507,92795,5
43511,92813,5
43517,92824,5
43530,92846,4
43535,92859,5
43544,92878,4
43554,92886,5
43563,92907,5
43567,92922,4
43574,92933,5
43584,92946,5
43590,92968,5
43598,92984,5
43600,92999,4
43601,93004,6
43618,93011,4
43616,93011,5
43615,93006,5
43617,93005,4
43620,93008,5
43620,93017,5
43626,93032,5
43627,93030,5
43643,93050,4
43637,93064,5
43643,93079,5
43648,93086,5
43665,93102,4
43662,93108,4
43660,93117,5
43673,93124,5
43670,93128,5
43672,93120,4
43672,93123,5
43665,93128,5
43679,93136,5
43682,93138,5
43685,93145,4
43681,93149,5
43688,93155,6
43694,93171,4
43694,93180,5
43701,93189,4
43697,93195,5
43703,93201,5
43700,93195,5
43712,93187,5
43707,93195,4
43710,93195,5
43700,93189,5
43706,93187,5
43713,93203,5
43706,93197,4
43705,93197,5
43708,93199,5
43715,93198,5
43712,93194,4
43708,93203,4
43704,93212,5
43706,93204,5
43715,93214,5
43711,93217,4
43722,93214,5
43720,93212,5
43720,93225,6
43720,93217,4
43722,93229,4
43725,93224,5
43715,93224,5
43714,93226,5
43722,93223,5
43726,93212,4
43720,93222,5
43718,93219,5
43714,93219,5
43720,93222,5
43724,93231,4
43719,93234,5
43726,93237,5
43727,93252,5
43732,93250,5
43742,93256,4
43738,93251,5
43734,93266,5
43733,93274,5
43743,93273,5
43738,93278,4
43748,93284,5
43755,93304,5
43757,93308,5
43756,93295,4
43741,93285,5
43735,93260,5
43724,93253,5
43727,93252,5
43729,93250,4
43732,93244,5
43727,93250,5
43733,93254,5
43735,93266,5
43742,93276,4
43739,93275,5
43737,93273,5
43738,93302,5
43757,93311,5
43759,93317,4
43765,93329,5
43764,93326,5
43765,93324,5
43760,93332,5
43764,93331,5
43771,93339,4
43762,93342,5
43767,93339,5
43775,93352,4
43767,93350,4
43772,93363,5
43775,93374,5
43774,93369,5
43792,93360,4
43791,93367,5
43788,93380,5
43786,93379,5
43794,93384,5
43794,93398,4
43800,93405,5
43797,93415,5
43801,93412,5
43814,93421,5
43816,93425,4
43807,93430,5
43813,93421,5
43816,93418,5
43808,93405,5
43803,93401,4
43800,93402,6
43804,93420,4
43810,93423,5
43816,93432,5
43825,93435,4
43816,93445,5
43816,93446,5
43831,93454,5
43827,93456,4
43819,93465,4
43822,93457,5
43823,93461,5
43826,93467,5
43829,93455,4
43823,93466,5
43835,93464,5
43829,93477,5
43826,93467,5
43825,93469,4
43833,93471,5
43829,93480,5
43827,93478,5
43831,93477,5
43829,93471,4
43825,93474,5
43832,93472,6
43829,93463,4
43821,93470,5
43835,93469,4
43833,93471,5
43818,93462,5
43827,93459,5
43823,93448,5
43823,93450,4
43814,93445,5
43811,93438,5
43814,93430,5
43810,93424,4
43812,93430,4
43805,93433,5
43809,93432,5
43800,93428,5
43804,93425,4
43803,93419,5
43814,93433,5
43803,93431,5
43802,93434,5
43800,93434,4
43794,93411,5
43798,93412,5
43791,93394,5
43777,93389,5
43783,93375,4
43779,93364,5
43770,93350,5
43768,93341,5
43758,93317,5
43745,93294,4
43718,93247,5
43700,93208,5
43678,93154,5
43659,93114,5
43634,93053,4
43601,93017,5
43586,92975,5
43581,92944,5
43564,92921,4
43560,92914,4
43550,92900,4
43546,92872,5
43523,92821,5
43493,92765,5
43459,92701,3
43431,92639,5
43390,92582,5
43380,92520,5
43346,92479,4
43317,92412,5
43281,92350,5
43249,92267,5
43206,92199,5
43169,92113,4
43135,92014,5
43082,91892,5
43008,91766,5
42955,91635,5
42888,91510,4
42824,91394,5
42785,91289,5
42736,91204,5
42698,91142,5
42685,91092,4
42664,91065,6
42646,91036,4
42621,90996,5
42602,90935,4
42572,90847,6
42523,90760,5
42484,90674,3
42443,90615,5
42412,90527,4
42376,90449,5
42319,90359,5
42282,90267,5
42237,90161,5
42191,90053,4
42129,89928,5
42057,89771,5
41966,89577,5
41858,89341,5
41745,89079,4
41601,88758,5
41420,88371,5
41217,87943,5
41034,87531,5
40852,87136,4
40675,86799,5
40529,86489,6
40409,86202,4
40285,85952,5
40172,85746,4
40096,85554,5
39984,85326,5
39893,85112,5
39790,84890,4
39682,84639,4
39566,84381,5
39429,84095,5
39301,83824,5
39179,83554,4
39075,83339,5
38980,83150,5
38895,82967,5
38802,82744,5
38680,82475,4
38553,82181,5
38409,81905,5
38289,82262,5
38169,82005,9
38046,81783,7
37940,81522,7
37467,80523,8
37467,80523,7
37388,80358,5
37312,80215,8
37249,80048,7
37189,79955,5
37148,79831,8
37100,79737,7
37053,79649,5
36839,79224,8
36839,79224,7
36802,79066,7
36756,79013,8
36695,78883,7
36631,78771,5
36336,78112,10
36336,78112,9
36302,78037,10
36268,77956,5
36256,77903,5
36110,77598,10
36110,77598,5
36083,77518,5
36058,77454,10
35994,77348,5
35936,77208,5
35789,76886,10
35789,76886,5
35788,76866,5
35794,76854,10
35781,76858,5
35775,76849,5
35762,76838,10
35771,76834,5
35770,76851,5
35714,76706,10
35714,76706,9
35715,76694,10
35707,76677,5
35694,76673,5
35735,76730,10
35735,76730,5
35744,76755,7
35755,76774,8
35772,76797,5
35761,76830,7
35816,76914,8
35816,76914,5
35848,76947,7
35860,76969,8
35849,76992,5
35860,77012,7
35857,77039,8
35871,77055,5
35900,77112,7
35900,77112,8
35910,77123,9
35909,77132,5
35921,77147,8
35930,77176,7
35941,77197,5
35823,76900,8
35823,76900,7
35782,76826,10
35724,76716,5
35700,76600,7
35507,76184,8
35507,76184,7
35539,76244,5
35560,76301,8
35573,76341,7
35589,76331,5
35586,76325,8
35572,76257,7
35291,75556,7
35291,75556,8
35176,75289,7
35027,74930,5
34856,74554,8
34679,74174,7
34171,73021,10
34171,73021,7
34063,72763,5
33949,72510,5
33815,72302,10
33746,72097,5
33694,71904,5
33053,70438,10
33053,70438,5
32958,70213,5
32868,70018,10
32801,69873,5
32745,69746,5
32677,69590,10
32425,68998,5
32425,68998,5
32332,68792,10
32216,68488,5
32039,68179,5
31904,67868,10
31772,67543,2
31615,67219,0
31448,66886,4
31260,66550,4
31145,66277,5
31037,66040,5
30935,65753,5
30753,65438,5
30604,65742,4
30407,65331,5
30225,64901,5
30031,64510,5
29877,64162,4
29705,63781,4
29558,63438,5
29433,63153,5
29342,62944,5
29297,62903,4
29359,63031,5
29494,63382,5
29704,63825,5
29901,64227,5
30051,64536,4
30177,64784,6
30325,65068,4
30479,65376,5
30630,65697,5
30785,66000,4
30910,66270,5
31036,66547,5
31173,66820,5
31303,67108,5
31457,67444,4
31643,67898,5
31905,68488,5
32205,69175,5
32515,69868,5
32825,70509,4
33077,71037,5
33294,71507,5
33489,71868,5
33612,72133,4
33721,72361,4
33827,72579,5
33905,72715,5
33946,72779,5
33951,72805,4
33981,72864,5
34021,72957,6
34087,73099,4
34151,73266,5
34216,73426,4
34272,73576,5
34357,73778,5
34463,74033,5
34586,74292,5
34714,74576,4
34829,74814,5
34912,74986,5
34975,75101,5
35015,75185,5
35042,75269,4
35106,75408,5
35197,75635,5
35356,75957,5
35536,76335,5
35698,76683,4
35856,77000,5
36006,77324,5
36150,77619,5
36311,78008,4
36501,78394,4
36660,78726,5
36841,79106,6
37069,79595,4
37286,80095,4
37532,80627,5
37807,81211,5
38079,81761,5
38326,82314,5
38545,82181,4
38837,82827,5
39141,83485,5
39419,84046,5
39635,84516,5
39838,84969,4
40044,85411,5
40278,85862,5
40421,86194,5
40554,86471,5
40648,86663,4
40714,86851,5
40817,87044,5
40813,87011,5
40780,86950,5
40701,86817,4
40621,86647,5
40540,86498,5
40448,86286,5
40308,86014,4
40178,85732,4
40000,85351,5
39771,84866,5
39567,84465,5
39393,84109,4
39240,83816,5
39087,83439,5
38903,83091,5
38758,82762,5
38605,82456,4
38453,82095,5
38241,81640,5
38069,81264,5
37913,80901,5
37720,80486,4
37534,80081,6
37355,79705,4
37212,79345,5
37059,79021,5
36953,78797,5
36837,78558,4
36705,78218,5
36500,77744,5
36275,77280,5
36140,76991,4
36018,76661,5
35923,76458,5
35861,76323,5
35835,76253,4
35836,76231,4
35858,76267,5
35863,76289,5
35877,76308,5
35866,76306,4
35859,76306,5
35839,76257,5
35817,76212,5
35782,76173,5
35805,76196,4
35804,76207,6
35807,76209,4
35788,76106,5
35765,76132,5
35797,76163,4
35819,76165,6
35828,76160,4
35822,76071,5
35789,76040,5
35785,75985,4
35776,75938,5
35766,75920,5
35805,75961,5
35871,76075,5
35905,76158,4
35966,76213,5
35976,76244,5
35986,76269,5
35997,76304,4
36013,76291,4
36021,76275,5
36072,76345,5
36151,76501,5
36252,76726,4
36390,77034,5
36618,77514,5
36920,78177,5
37266,78917,4
37666,79748,4
38117,80695,5
38567,81611,5
38975,82451,5
39354,83240,5
39692,83967,4
40089,84825,5
40518,85719,5
40888,86431,5
41124,86904,5
41251,87120,4
41310,87265,5
41319,87296,5
41307,87303,5
41347,87370,5
41350,87380,4
41323,87320,5
41269,87249,5
41259,87234,5
41264,87241,5
41280,87284,4
41315,87374,5
41372,87503,5
41439,87630,6
41482,87719,3
41515,87777,5
41547,87858,5
41567,87884,5
41636,88065,5
41752,88295,4
41842,88496,5
41942,88707,5
42026,88876,5
42079,88966,5
42086,89001,4
42110,89038,5
42125,89046,5
42115,89031,5
42084,88968,5
42066,88938,4
42071,88952,5
42085,88977,5
42079,88949,5
42044,88897,5
42002,88792,5
41956,88710,4
41954,88726,5
41963,88740,5
41966,88746,6
41981,88764,3
42003,88818,5
42034,88902,5
42081,89010,5
42164,89144,4
42239,89353,5
42346,89532,5
42410,89692,5
42438,89737,5
42464,89785,4
42509,89868,5
42541,89965,5
42572,90039,5
42590,90075,5
42581,90038,4
42506,89846,5
42336,89487,5
42172,89173,5
42058,88941,5
41934,88615,4
41674,88033,6
41331,87314,4
41023,86753,5
40843,86418,5
40756,86261,6
40688,86125,3
40616,86025,5
40579,85900,5
40509,85790,4
40498,85759,4
40484,85751,5
40483,85708,5
40449,85630,5
40428,85602,4
40457,85632,5
40502,85758,5
40591,85952,5
40698,86172,5
40842,86397,4
40902,86520,5
40912,86532,5
40913,86545,5
40973,86697,5
41052,86830,4
41113,86993,5
41223,87226,6
41366,87471,4
41424,87580,5
41507,87781,4
41675,88140,5
41912,88666,5
42201,89285,5
42516,90023,5
42948,90942,4
43376,91847,5
43772,92700,5
44116,93433,5
44386,93990,4
44512,94179,4
44499,94178,5
44499,94204,5
44546,94389,5
44643,94624,4
44804,95020,5
44996,95451,5
45212,95981,5
45509,96688,5
45839,97446,4
46239,98366,5
46697,98818,5
47148,99778,6
47638,100927,4
48194,102139,4
48755,103305,5
49257,104365,5
48928,105284,5
49336,106152,5
49652,106750,4
49843,107174,5
49993,107490,5
50130,107790,5
50213,107940,5
50317,108194,4
50469,108574,5
50639,108965,5
50848,109453,5
51115,110032,4
51376,110574,5
51583,111018,5
51767,111457,5
51940,111823,5
52102,112173,5
52284,112540,4
52430,112868,5
52586,113201,5
52706,113462,6
52802,113682,3
52911,113926,5
53036,114178,5
53143,114440,5
53302,114743,5
53465,114550,4
53658,114946,5
53816,115273,5
53893,115402,5
53920,115464,5
53914,115440,4
53861,115312,5
53789,115153,5
53744,115085,5
53718,115033,4
53703,114970,4
53645,114860,5
53588,114717,5
53494,114504,5
53395,114267,4
53251,113976,6
53143,113783,4
53099,113684,5
53059,113580,5
52978,113384,4
52881,113146,5
52764,112892,5
52619,112554,5
52429,112141,5
52245,111760,4
52071,111417,5
51907,111058,5
51775,110714,5
51536,110193,5
51244,109546,4
50937,108874,5
50668,108304,5
50411,107745,5
50194,107270,5
49967,106774,4
49718,106249,5
49483,105766,5
49317,105438,5
49175,105099,4
48984,104661,4
48786,104276,6
48621,103918,4
48448,103558,5
48294,103184,4
48072,102675,5
47824,102126,5
47531,101457,5
47215,100822,5
47024,100455,4
46904,100144,5
46807,99950,5
46742,99837,5
46761,99806,5
46713,99666,4
46645,99507,5
46625,99444,5
46629,99459,5
46657,99492,5
46681,99529,4
46721,99565,5
46773,99661,5
46850,99830,5
46912,99967,5
46993,100088,4
47076,100215,5
47120,100319,6
47174,100395,4
47209,100489,5
47277,100613,4
47338,100716,5
47386,100841,5
47458,100959,5
47499,101011,4
47522,101069,5
47556,101118,5
47566,101150,5
47602,101212,5
47630,101265,4
47673,101346,5
47706,101410,5
47741,101513,5
47799,101598,5
47828,101678,4
47871,101747,5
47902,101814,5
47956,101959,5
48029,102080,5
48078,102159,4
48083,102159,5
48068,102123,5
48059,102114,6
48069,102152,4
48108,102224,4
48136,102274,5
48155,102315,5
48181,102367,5
48204,102424,5
48234,102507,4
48270,102547,5
48273,102555,5
48260,102515,5
48244,102473,4
48243,102497,5
48263,102505,5
48236,102440,5
48202,102371,5
48182,102350,4
48172,102335,5
48189,102358,5
48198,102379,5
48210,102404,5
48271,102545,5
48356,102744,4
48474,102984,5
48560,103171,5
48631,103326,5
48697,103450,4
48762,103572,5
48797,103680,5
48837,103751,5
48857,103798,5
48898,103904,4
48963,104026,5
49017,104160,5
49091,104299,5
49142,104424,4
49199,104544,4
49267,104684,5
49316,104769,5
49354,104862,5
49385,104929,4
49399,104956,5
49424,104994,5
49436,105053,5
49458,105085,5
49475,105124,4
49501,105172,6
49521,105199,4
49525,105246,5
49549,105283,5
49561,105312,4
49585,105385,5
49614,105425,5
49630,105447,5
49640,105478,5
49642,105472,4
49647,105500,5
49678,105558,5
49697,105593,5
49710,105611,5
49726,105641,4
49730,105655,5
49746,105686,5
49748,105700,5
49752,105712,4
49763,105751,4
49772,105785,5
49771,105762,5
49768,105755,5
49755,105718,4
49727,105666,5
49694,105588,6
49669,105554,4
49656,105535,5
49646,105518,4
49649,105515,5
49647,105530,5
49657,105537,5
49675,105591,5
49699,105623,4
49719,105646,5
49718,105663,5
49720,105667,5
49719,105657,5
49702,105637,4
49707,105632,5
49690,105613,5
49680,105579,5
49666,105541,5
49642,105499,4
49619,105458,5
49590,105397,5
49563,105341,5
49538,105287,4
49513,105230,4
49487,105178,5
49466,105140,5
49448,105118,5
49448,105095,4
49443,105091,5
49435,105093,5
49442,105113,5
49459,105133,5
49462,105157,4
49469,105160,5
49478,105198,5
49500,105246,5
49532,105289,5
49549,105343,4
49567,105388,5
49602,105432,5
49613,105458,5
49647,105525,5
49660,105583,4
49700,105634,5
49723,105700,5
49755,105758,5
49790,105817,5
49818,105858,4
49833,105913,5
49861,105949,5
49885,105991,5
49881,106004,4
49881,105992,4
49878,105986,5
49881,105974,5
49866,105963,5
49860,105948,4
49856,105955,5
49868,105945,5
49856,105954,5
49864,105966,5
49867,105964,4
49860,105964,5
49871,105978,5
49883,106012,5
49891,106019,5
49902,106048,4
49925,106074,6
49937,106110,4
49948,106148,5
49961,106165,5
49966,106195,6
49980,106216,3
49999,106240,5
50018,106270,5
50024,106296,5
50028,106315,5
50045,106332,4
50049,106354,5
50072,106374,5
50075,106401,4
50082,106419,4
50097,106461,5
50103,106480,5
50126,106507,5
50143,106530,4
50159,106581,5
50171,106595,5
50181,106601,5
50173,106606,5
50169,106612,4
50173,106603,5
50167,106589,6
50168,106596,4
50171,106606,5
50187,106638,4
50202,106691,7
50231,106726,3
50250,106763,5
50261,106805,5
50287,106867,4
50307,106918,5
50335,106953,5
50355,106995,5
50366,107018,5
50368,107030,4
50371,107030,5
50371,107024,5
50370,107029,5
50355,107022,4
50371,107015,4
50361,106999,5
50364,106995,5
50342,106977,5
50332,106956,4
50334,106949,5
50326,106949,5
50330,106956,6
50341,106970,4
50343,106986,4
50352,107002,5
50369,107035,5
50378,107063,5
50411,107120,5
50430,107163,4
50442,107208,5
50473,107255,5
50507,107312,5
50528,107383,5
50542,107412,4
50578,107486,5
50610,107557,5
50646,107637,5
50702,107714,5
50726,107797,4
50768,107880,5
50802,107947,5
50841,108035,5
50878,108113,5
50916,108218,4
50972,108310,5
51028,108461,5
51087,108553,6
51144,108648,3
51187,108753,5
51232,108850,5
51276,108949,5
51318,109028,5
51345,109102,4
51383,109162,5
51399,109203,5
51411,109223,5
51419,109227,5
51431,109245,4
51426,109242,5
51430,109252,5
51437,109258,5
51446,109279,5
51455,109301,4
51465,109330,5
51487,109372,5
51504,109422,5
51531,109471,5
51548,109512,5
51558,109562,4
51592,109628,5
51622,109680,5
51641,109729,6
51667,109764,5
51684,109810,3
51703,109844,5
51714,109892,5
51750,109941,4
51771,110005,5
51820,110095,5
51844,110178,5
51897,110251,5
51927,110318,4
51958,110389,5
51981,110462,5
52027,110521,5
52040,110546,5
52036,110563,4
52037,110561,5
52036,110538,5
52010,110498,5
52008,110486,5
52020,110490,4
52014,110511,6
52027,110540,4
52049,110581,5
52090,110615,5
52090,110662,4
52118,110719,5
52153,110776,5
52180,110831,5
52194,110880,4
52208,110916,4
52227,110956,5
52255,111022,5
52274,111063,5
52308,111121,4
52329,111180,5
52362,111234,5
52395,111302,5
52423,111368,5
52450,111412,4
52467,111441,5
52481,111495,5
52503,111540,5
52513,111557,5
52533,111571,4
52538,111608,5
52542,111642,6
52554,111662,4
52586,111730,5
52617,111790,4
52628,111826,5
52635,111831,5
52636,111853,5
52635,111850,5
52654,111880,4
52669,111915,5
52687,111972,5
52721,112008,5
52724,112047,4
52741,112096,4
52773,112139,5
52791,112162,5
52801,112201,5
52813,112226,4
52819,112230,5
52815,112237,5
52834,112254,5
52825,112241,5
52818,112218,4
52800,112180,5
52790,112152,5
52772,112131,6
52767,112113,4
52767,112115,4
52761,112115,5
52756,112100,5
52757,112094,5
52752,112101,5
52744,112085,4
52756,112113,5
52756,112125,5
52762,112123,5
52776,112139,4
52789,112189,4
52813,112220,5
52817,112265,5
52849,112315,5
52851,112326,4
52861,112331,5
52873,112353,5
52880,112376,5
52903,112421,5
52919,112467,5
52937,112484,4
52945,112518,5
52981,112579,5
52997,112616,5
52999,112628,4
53024,112647,5
53035,112682,5
53062,112741,5
53082,112776,5
53091,112788,4
53069,112724,5
53016,112588,5
52932,112420,5
52834,112209,5
52713,111978,4
52621,111799,5
52562,111667,5
52514,111601,5
52507,111582,4
52505,111579,4
52504,111614,5
52522,111619,5
52533,111638,5
52539,111668,4
52552,111697,6
52547,111702,4
52561,111706,5
52569,111722,5
52580,111732,4
52582,111754,5
52598,111791,9
52620,111797,5
52614,111808,5
52594,111812,8
52618,111834,7
52621,111843,5
52613,111801,8
52613,111801,7
52617,111804,10
52605,111802,7
52624,111813,5
52631,111826,8
52673,111944,7
52673,111944,5
52701,111997,8
52711,112007,7
52707,112008,9
52808,112206,10
52808,112206,5
52838,112240,5
52863,112318,10
52885,112354,5
52903,112375,5
52901,112398,10
52930,112421,5
53007,112557,5
53007,112557,10
53005,112592,1
53010,112618,1
53020,112644,6
53047,112641,3
53039,112665,4
53044,112664,5
53040,112663,6
53047,112655,4
53046,112647,4
53028,112626,5
53023,112614,5
53021,112587,5
53009,112593,5
53019,112596,4
53019,112601,5
53027,112606,5
53029,112630,5
53039,112642,5
53036,112655,5
53045,112647,4
53056,112666,5
53052,112679,5
53062,112676,5
53064,112685,4
53064,112713,5
53073,112725,5
53085,112724,5
53098,112769,5
53104,112775,4
