RED,IR,EKG,TIME
37638,83182,5
37606,83171,8
37605,83145,7
37595,83151,5
37572,83078,10
37572,83078,9
37572,83081,8
37568,83075,7
37568,83050,5
37541,82996,8
37541,82996,7
37523,83024,7
37526,82969,10
37515,82936,5
37484,82900,5
37450,82804,10
37450,82804,5
37452,82807,5
37461,82808,10
37458,82806,5
37456,82803,5
37460,82799,10
37460,82800,5
37470,82818,5
37470,82818,9
37465,82807,3
37462,82810,5
37456,82775,10
37452,82774,5
37442,82756,5
37445,82771,10
37438,82776,5
37446,82768,10
37446,82768,10
37443,82751,7
37437,82736,10
37437,82736,5
37436,82739,7
37439,82740,8
37446,82736,5
37437,82729,7
37429,82723,8
37438,82727,5
37405,82661,7
37405,82661,8
37392,82675,5
37395,82637,7
37391,82613,8
37382,82605,5
37382,82592,7
37364,82538,8
37364,82538,5
37362,82552,7
37353,82511,8
37345,82520,9
37336,82491,8
37336,82491,5
37349,82498,7
37358,82494,8
37330,82493,5
37326,82501,7
37337,82489,8
37334,82497,5
37332,82484,7
37332,82484,8
37320,82465,5
37315,82477,7
37320,82473,8
37322,82465,5
37362,82466,7
37317,82462,8
37317,82462,7
37313,82453,5
37299,82410,8
37303,82414,7
37308,82445,5
37347,82457,8
37328,82463,7
37321,82463,7
37321,82463,8
37284,82460,7
37314,82461,5
37308,82448,8
37319,82480,7
37308,82437,10
37308,82437,9
37292,82440,5
37306,82440,8
37309,82433,7
37302,82427,10
37302,82427,7
37319,82433,5
37299,82428,5
37250,82415,10
37289,82420,5
37311,82427,5
37299,82422,10
37299,82422,5
37307,82427,5
37303,82428,10
37304,82433,5
37307,82434,5
37306,82442,10
37309,82435,5
37309,82435,5
37308,82435,10
37307,82444,5
37303,82428,2
37315,82431,2
37330,82441,2
37317,82447,5
37307,82437,5
37310,82447,5
37317,82458,4
37317,82462,5
37309,82469,5
37326,82466,5
37327,82481,4
37330,82474,4
37333,82489,5
37335,82488,5
37332,82504,5
37333,82498,4
37341,82503,5
37333,82498,5
37335,82506,5
37338,82515,5
37331,82496,4
37339,82499,5
37343,82505,5
37340,82516,5
37339,82510,5
37346,82508,4
37337,82515,6
37347,82510,4
37356,82526,5
37348,82517,5
37343,82522,4
37352,82543,5
37350,82527,5
37361,82543,5
37368,82554,5
37368,82554,4
37369,82572,5
37373,82566,5
37376,82570,5
37380,82576,4
37365,82577,4
37375,82590,5
37380,82596,5
37385,82590,5
37385,82600,4
37406,82625,5
37400,82630,5
37406,82643,5
37418,82660,5
37422,82678,4
37418,82683,5
37428,82698,6
37432,82690,4
37436,82707,5
37433,82706,4
37440,82713,5
37442,82720,5
37436,82718,5
37446,82721,5
37445,82713,4
37440,82728,5
37453,82731,5
37449,82729,5
37445,82731,5
37451,82741,4
37446,82746,5
37447,82744,5
37457,82750,5
37455,82756,4
37457,82761,5
37459,82766,5
37466,82765,5
37467,82774,5
37467,82788,4
37472,82797,5
37479,82808,5
37487,82820,5
37493,82823,5
37481,82822,4
37499,82823,5
37494,82823,5
37498,82841,5
37492,82844,5
37506,82849,4
37506,82865,5
37521,82866,5
37510,82877,5
37516,82875,5
37510,82866,4
37514,82876,5
37510,82872,5
37511,82871,5
37510,82868,4
37511,82866,4
37505,82857,5
37504,82866,5
37507,82863,5
37511,82856,5
37505,82870,4
37507,82855,5
37509,82853,5
37505,82846,5
37502,82847,4
37502,82851,5
37503,82846,5
37504,82845,5
37502,82832,5
37487,82827,4
37498,82812,5
37483,82801,5
37476,82782,5
37482,82776,5
37482,82769,4
37459,82759,5
37454,82748,5
37461,82732,5
37450,82712,5
37446,82704,4
37438,82693,6
37444,82682,4
37428,82670,5
37420,82668,4
37428,82664,5
37425,82663,4
37416,82650,5
37413,82639,5
37407,82632,4
37392,82618,5
37390,82599,5
37385,82581,5
37374,82569,5
37375,82557,4
37369,82557,5
37373,82558,5
37372,82558,5
37366,82546,5
37368,82549,4
37375,82540,5
37365,82529,5
37355,82500,5
37341,82469,5
37325,82434,4
37310,82400,5
37286,82367,6
37287,82342,4
37276,82331,4
37264,82314,4
37263,82309,5
37257,82293,5
37253,82297,5
37258,82297,4
37253,82298,5
37249,82288,5
37254,82282,5
37252,82285,5
37251,82291,4
37266,82289,5
37253,82291,5
37255,82279,5
37247,82280,5
37241,82265,4
37245,82252,5
37237,82257,5
37233,82250,5
37229,82229,5
37230,82216,4
37213,82207,5
37215,82195,5
37214,82183,6
37198,82185,4
37210,82185,4
37211,82180,5
37203,82191,5
37222,82210,5
37217,82215,4
37226,82230,4
37238,82238,5
37234,82240,5
37235,82244,5
37233,82256,4
37235,82254,5
37244,82272,5
37244,82281,5
37255,82283,5
37244,82291,4
37258,82291,5
37255,82299,5
37265,82305,5
37266,82318,5
37261,82321,5
37263,82322,4
37264,82321,5
37272,82327,5
37271,82322,6
37273,82328,3
37266,82334,5
37275,82331,5
37271,82340,5
37279,82340,5
37275,82349,4
37279,82344,5
37275,82333,5
37282,82346,5
37278,82332,4
37280,82332,4
37276,82336,5
37279,82342,5
37279,82353,5
37280,82344,4
37275,82362,5
37291,82362,5
37283,82343,5
37280,82343,5
37277,82337,4
37274,82338,6
37267,82319,4
37273,82321,5
37261,82318,5
37260,82299,6
37263,82296,3
37256,82296,5
37259,82302,5
37265,82306,5
37258,82306,4
37267,82315,5
37266,82312,5
37268,82314,5
37264,82322,4
37265,82304,4
37254,82305,5
37261,82302,5
37267,82306,5
37260,82298,4
37265,82322,5
37260,82311,5
37267,82303,5
37261,82304,5
37261,82309,4
37252,82289,5
37247,82267,6
37240,82260,4
37240,82247,5
37224,82232,4
37230,82226,5
37208,82215,5
37215,82209,5
37228,82209,5
37222,82222,4
37227,82224,5
37222,82225,5
37232,82227,5
37223,82213,5
37228,82226,4
37217,82216,5
37216,82217,5
37227,82221,5
37231,82238,4
37227,82229,4
37229,82238,5
37240,82241,5
37239,82255,5
37237,82254,4
37244,82253,5
37238,82266,5
37245,82259,6
37237,82255,4
37245,82262,4
37240,82271,5
37251,82277,5
37250,82288,5
37254,82285,5
37262,82303,4
37264,82300,5
37266,82315,5
37276,82331,5
37271,82325,5
37270,82323,4
37281,82331,5
37284,82346,5
37274,82349,5
37287,82352,5
37294,82366,4
37284,82368,5
37301,82383,5
37301,82401,5
37304,82408,5
37319,82414,4
37315,82423,5
37326,82450,5
37331,82450,6
37327,82468,3
37334,82458,5
37331,82478,5
37350,82477,5
37346,82487,5
37342,82497,4
37354,82508,5
37355,82517,5
37360,82522,5
37366,82539,5
37383,82551,4
37379,82559,5
37385,82581,5
37394,82588,5
37392,82602,5
37397,82595,4
37399,82608,5
37399,82623,5
37399,82617,5
37411,82631,8
37410,82632,2
37404,82599,3
37412,82639,5
37412,82623,5
37410,82626,4
37421,82627,4
37415,82641,5
37418,82647,5
37415,82645,5
37415,82627,4
37415,82629,5
37414,82622,5
37406,82628,5
37402,82630,5
37412,82634,4
37412,82645,5
37425,82649,5
37427,82659,5
37432,82662,5
37427,82666,4
37440,82669,5
37431,82667,5
37432,82672,5
37435,82677,5
37435,82678,4
37441,82693,6
37441,82694,4
37440,82704,5
37449,82720,4
37454,82725,4
37446,82724,5
37464,82723,5
37456,82731,5
37464,82741,4
37474,82758,5
37473,82781,5
37481,82783,5
37482,82793,5
37489,82813,4
37505,82823,5
37511,82836,5
37519,82862,5
37522,82858,5
37531,82873,4
37532,82890,5
37526,82891,5
37538,82897,5
37542,82911,5
37536,82910,4
37544,82924,5
37552,82923,6
37552,82926,4
37553,82932,5
37555,82940,4
37559,82941,5
37567,82953,5
37561,82949,5
37560,82950,4
37565,82962,4
37565,82965,5
37571,82974,5
37575,82991,5
37594,83002,4
37577,83006,5
37580,83009,5
37579,83017,5
37597,83017,5
37593,83026,4
37597,83026,5
37592,83026,5
37596,83033,5
37590,83022,5
37593,83030,4
37601,83032,5
37600,83038,5
37599,83049,6
37599,83050,4
37605,83056,4
37597,83051,5
37606,83064,5
37611,83060,5
37608,83062,4
37606,83056,4
37617,83058,5
37619,83065,5
37616,83069,5
37617,83055,4
37623,83067,5
37613,83062,5
37610,83072,5
37607,83069,5
37612,83061,4
37611,83056,5
37617,83047,5
37603,83055,5
37608,83042,5
37611,83045,5
37602,83050,4
37594,83029,5
37591,83050,5
37600,83033,5
37592,83041,4
37598,83036,5
37598,83028,5
37596,83031,5
37599,83034,5
37605,83043,4
37610,83050,4
37603,83043,5
37603,83043,5
37599,83041,5
37604,83047,4
37602,83046,5
37606,83047,5
37598,83041,5
37606,83055,4
37601,83052,5
37604,83054,5
37612,83049,5
37606,83064,5
37609,83055,4
37608,83060,6
37602,83058,4
37606,83050,5
37601,83056,5
37602,83058,4
37610,83059,5
37613,83057,5
37613,83051,5
37609,83061,5
37612,83053,4
37606,83052,5
37606,83049,5
37604,83060,5
37609,83052,5
37612,83065,4
37619,83072,5
37611,83067,5
37616,83071,5
37606,83072,4
37614,83069,4
37610,83068,5
37607,83070,5
37611,83071,5
37613,83072,4
37605,83063,5
37606,83078,7
37615,83065,3
37605,83059,5
37614,83055,4
37605,83050,5
37596,83038,5
37599,83035,5
37597,83035,5
37595,83026,4
37591,83031,5
37595,83035,5
37606,83044,5
37599,83043,5
37605,83044,4
37603,83052,5
37613,83059,5
37612,83067,5
37606,83058,4
37602,83055,4
37606,83064,5
37615,83070,5
37612,83073,5
37609,83072,4
37606,83071,5
37611,83067,5
37600,83056,5
37611,83059,5
37601,83061,4
37603,83054,5
37599,83051,5
37602,83046,5
37598,83048,5
37608,83042,4
37603,83042,5
37593,83040,5
37601,83038,5
37604,83056,5
37600,83060,4
37615,83062,5
37610,83068,5
37605,83062,5
37615,83063,5
37607,83064,4
37613,83066,4
37605,83069,5
37607,83053,5
37599,83054,6
37609,83052,3
37618,83055,5
37617,83065,5
37611,83061,5
37602,83053,4
37609,83064,5
37610,83066,5
37611,83064,5
37608,83059,5
37616,83060,4
37614,83048,5
37600,83046,5
37604,83057,5
37605,83050,5
37613,83066,4
37606,83050,5
37598,83061,5
37607,83069,5
37610,83052,5
37606,83069,4
37600,83064,6
37606,83063,4
37607,83060,5
37602,83065,5
37611,83071,6
37614,83065,3
37603,83069,5
37614,83059,5
37609,83063,4
37601,83057,4
37605,83050,5
37611,83049,5
37603,83040,5
37588,83035,4
37589,83033,5
37595,83037,5
37597,83031,5
37597,83033,5
37602,83037,4
37599,83044,5
37594,83052,5
37592,83044,5
37601,83055,5
37595,83039,4
37598,83039,5
37603,83041,6
37589,83036,4
37598,83037,5
37598,83036,4
37598,83037,5
37602,83046,5
37591,83025,5
37594,83037,5
37594,83033,4
37598,83023,5
37592,83023,5
37592,83026,5
37587,83020,4
37584,83024,4
37595,83039,5
37591,83028,5
37602,83039,5
37597,83032,4
37590,83045,5
37595,83040,5
37598,83047,5
37595,83040,5
37592,83044,4
37593,83044,5
37596,83037,5
37589,83033,6
37588,83040,4
37586,83027,4
37586,83034,5
37600,83034,5
37590,83042,5
37598,83046,5
37588,83036,4
37603,83052,5
37600,83045,5
37602,83043,5
37594,83052,5
37595,83053,4
37604,83056,5
37591,83040,5
37602,83044,5
37591,83036,4
37596,83037,4
37592,83040,5
37584,83019,5
37584,83006,5
37578,83008,5
37581,82997,4
37579,83003,5
37575,83009,5
37571,83007,6
37573,83013,3
37587,83011,5
37578,83028,5
37592,83031,5
37595,83032,5
37589,83035,4
37590,83042,5
37584,83033,5
37582,83033,5
37583,83040,5
37593,83031,4
37587,83028,5
37587,83042,5
37589,83036,5
37585,83032,5
37590,83027,4
37598,83035,5
37585,83034,5
37589,83029,5
37593,83034,4
37587,83030,5
37585,83030,4
37590,83024,5
37590,83031,5
37590,83041,6
37586,83044,3
37590,83047,5
37586,83036,5
37593,83046,5
37595,83051,4
37591,83046,5
37590,83044,5
37593,83044,5
37593,83038,5
37592,83043,4
37595,83042,5
37595,83047,5
37595,83045,5
37590,83050,5
37589,83055,4
37594,83058,5
37591,83062,5
37587,83060,5
37595,83053,5
37601,83054,4
37591,83064,6
37588,83060,4
37590,83055,5
37595,83058,4
37599,83048,4
37590,83051,5
37601,83054,5
37586,83054,5
37599,83060,4
37601,83058,5
37593,83059,5
37598,83057,5
37596,83071,5
37606,83074,4
37599,83075,5
37597,83087,5
37603,83088,5
37605,83080,5
37606,83090,4
37606,83092,5
37603,83078,5
37607,83082,5
37606,83087,5
37597,83091,4
37591,83076,5
37602,83081,6
37591,83065,4
37596,83076,5
37596,83069,4
37587,83066,5
37592,83058,5
37602,83060,5
37593,83064,4
37590,83055,4
37595,83050,5
37596,83054,5
37594,83049,5
37582,83055,4
37595,83063,5
37597,83068,5
37595,83068,5
37593,83066,5
37592,83074,4
37592,83063,5
37601,83071,5
37599,83081,5
37601,83081,5
37602,83083,4
37601,83076,5
37596,83077,5
37594,83059,5
37589,83063,5
37593,83062,4
37593,83075,5
37588,83084,5
37599,83098,5
37596,83084,5
37601,83088,4
37596,83071,5
37593,83074,5
37580,83051,5
37574,83045,4
37578,83034,4
37571,83042,5
37577,83029,5
37565,83028,5
37570,83039,4
37572,83036,5
37574,83036,5
37564,83047,5
37573,83054,5
37580,83070,5
37595,83076,4
37595,83085,5
37595,83096,5
37602,83124,5
37608,83116,4
37603,83107,5
37590,83078,5
37578,83069,5
37577,83047,5
37566,83026,4
37575,83022,5
37557,83008,6
37543,82995,4
37535,82980,5
37551,82982,4
37549,82996,5
37550,82996,5
37556,83010,5
37559,83015,4
37561,83023,4
37555,83025,5
37570,83030,5
37573,83044,5
37577,83054,4
37583,83084,6
37595,83098,4
37594,83105,5
37597,83094,5
37581,83074,4
37577,83061,5
37579,83059,5
37567,83056,5
37572,83049,5
37572,83049,4
37572,83057,5
37571,83054,5
37576,83064,5
37576,83067,5
37580,83081,4
37588,83092,5
37593,83110,5
37607,83124,5
37606,83130,5
37616,83154,4
37624,83167,5
37631,83177,5
37630,83190,5
37630,83193,4
37634,83197,4
37639,83198,6
37634,83210,4
37642,83208,5
37642,83205,4
37642,83207,5
37648,83221,5
37643,83231,5
37652,83232,5
37654,83237,4
37654,83235,5
37656,83234,5
37666,83238,5
37645,83239,5
37649,83239,4
37653,83210,5
37639,83219,5
37640,83209,5
37637,83201,5
37648,83188,4
37631,83183,5
37637,83171,5
37625,83168,5
37625,83166,5
37629,83152,4
37612,83155,5
37611,83142,6
37612,83126,4
37607,83130,4
37611,83120,4
37609,83117,5
37596,83120,5
37593,83109,5
37593,83100,4
37603,83102,5
37595,83093,5
37591,83082,5
37593,83089,5
37589,83074,4
37582,83071,5
37578,83067,5
37578,83068,5
37581,83067,5
37580,83061,5
37574,83071,4
37592,83069,5
37585,83076,5
37587,83075,5
37585,83065,4
37583,83068,5
37574,83067,5
37587,83065,5
37591,83062,5
37586,83066,4
37583,83076,5
37587,83064,5
37593,83069,5
37587,83074,4
37599,83077,4
37591,83069,5
37588,83085,5
37590,83078,5
37593,83084,4
37604,83083,5
37593,83084,5
37597,83091,5
37591,83077,5
37597,83079,4
37588,83068,5
37592,83065,5
37586,83069,5
37574,83045,5
37580,83031,5
37564,83034,4
37565,83038,5
37579,83035,5
37579,83044,5
37577,83051,4
37576,83047,5
37588,83051,5
37582,83068,5
37585,83054,5
37587,83072,4
37580,83060,5
37589,83073,5
37585,83063,5
37585,83073,4
37591,83077,4
37599,83081,5
37598,83077,5
37592,83066,5
37584,83071,4
37593,83064,5
37592,83073,5
37591,83068,5
37583,83065,5
37587,83055,4
37583,83054,6
37576,83049,4
37586,83038,5
37583,83044,5
37581,83049,4
37574,83039,5
37582,83044,5
37574,83038,5
37579,83050,5
37577,83039,4
37584,83048,5
37577,83045,5
37587,83042,5
37583,83049,5
37572,83037,4
37576,83047,5
37581,83032,5
37578,83045,5
37569,83050,4
37578,83045,4
37581,83044,5
37579,83049,6
37582,83053,4
37589,83049,4
37583,83045,5
37586,83068,5
37581,83053,5
37586,83070,5
37588,83061,4
37589,83060,5
37584,83060,5
37589,83070,5
37587,83060,5
37592,83063,4
37591,83083,5
37596,83061,5
37594,83066,5
37599,83069,5
37594,83065,4
37585,83069,5
37589,83077,5
37586,83076,5
37592,83071,5
37590,83080,4
37596,83081,5
37593,83078,5
37593,83084,6
37599,83083,3
37601,83083,5
37608,83092,5
37601,83088,5
37602,83094,5
37610,83099,4
37611,83101,5
37611,83100,5
37602,83108,5
37612,83115,5
37608,83100,4
37617,83109,5
37619,83106,5
37607,83109,5
37610,83107,5
37616,83109,4
37616,83119,5
37617,83106,5
37618,83118,5
37617,83118,5
37615,83120,5
37617,83117,4
37617,83112,5
37617,83112,5
37614,83113,6
37609,83116,3
37611,83106,5
37611,83106,5
37607,83107,5
37614,83110,4
37611,83104,4
37603,83103,5
37619,83115,5
37615,83124,5
37628,83126,4
37619,83138,5
37627,83138,5
37626,83150,5
37629,83139,5
37628,83133,4
37635,83146,5
37628,83129,5
37632,83128,5
37632,83130,5
37627,83129,4
37627,83120,6
37620,83115,4
37618,83096,5
37612,83087,5
37609,83074,6
37602,83076,3
37598,83059,5
37591,83051,5
37585,83030,5
37578,83025,4
37572,83006,5
37561,82990,5
37546,82944,5
37521,82905,4
37511,82865,5
37487,82833,5
37486,82814,5
37481,82803,5
37476,82786,4
37472,82777,5
37453,82745,5
37438,82699,5
37411,82658,5
37396,82629,5
37386,82582,4
37371,82554,6
37356,82530,4
37364,82539,5
37351,82548,4
37369,82542,5
37355,82539,5
37357,82524,5
37355,82534,5
37344,82513,4
37337,82491,5
37336,82473,5
37317,82453,5
37308,82426,4
37306,82404,4
37293,82382,5
37282,82360,5
37270,82332,5
37251,82316,4
37241,82287,5
37244,82285,5
37239,82280,5
37244,82286,5
37230,82247,4
37233,82239,5
37211,82202,5
37202,82166,6
37173,82128,4
37168,82102,4
37152,82093,5
37152,82091,5
37154,82080,5
37158,82077,5
37152,82074,4
37147,82073,5
37148,82065,5
37139,82043,5
37129,82017,5
37122,82001,4
37119,81991,5
37111,81987,5
37100,81979,5
37091,81964,4
37094,81972,4
37108,81971,5
37099,81967,5
37089,81932,5
37066,81883,5
37045,81832,4
37017,81781,5
37008,81762,5
36989,81742,6
36996,81728,3
36992,81732,5
36992,81730,5
36996,81735,5
36995,81727,5
36999,81723,4
36990,81729,5
36998,81738,5
37000,81740,5
36993,81738,5
36992,81718,4
36991,81711,5
36986,81705,5
36982,81701,5
36973,81692,5
36973,81694,4
36973,81696,5
36984,81702,5
36978,81695,5
36975,81694,4
36969,81684,5
36964,81680,4
36969,81660,5
36961,81653,5
36957,81639,4
36952,81625,5
36940,81597,5
36925,81585,5
36925,81583,5
36927,81571,4
36914,81567,5
36917,81575,5
36933,81580,5
36931,81578,5
36939,81597,4
36936,81579,5
36919,81578,5
36915,81559,5
36909,81544,5
36910,81541,4
36906,81530,5
36905,81530,5
36894,81521,5
36894,81523,5
36899,81534,4
36904,81537,6
36911,81540,4
36908,81532,5
36901,81523,4
36894,81514,4
36893,81505,5
36886,81499,5
36888,81499,5
36878,81488,4
36881,81482,5
36888,81484,5
36891,81491,5
36883,81484,5
36890,81489,4
36883,81484,5
36891,81482,5
36890,81486,5
36873,81488,5
36885,81501,4
36897,81506,5
36909,81499,5
36899,81501,5
36885,81493,5
36890,81481,4
36893,81460,5
36861,81447,6
36853,81427,4
36850,81412,5
36849,81406,4
36845,81388,5
36847,81395,5
36841,81373,5
36832,81367,4
36833,81364,4
36834,81359,5
36838,81362,5
36838,81357,5
36833,81369,4
36835,81368,5
36827,81364,5
36835,81360,5
36838,81372,5
36833,81358,4
36837,81365,5
36833,81366,5
36831,81372,5
36832,81370,5
36835,81360,5
36831,81364,4
36829,81361,5
36830,81350,6
36826,81351,4
36830,81369,4
36826,81353,5
36824,81353,5
36822,81356,5
36833,81378,5
36833,81372,4
36844,81388,5
36839,81389,5
36838,81378,5
36839,81390,4
36850,81399,4
36852,81400,5
36851,81406,5
36845,81403,5
36856,81402,4
36850,81399,5
36850,81407,5
36849,81398,5
36843,81392,8
36843,81380,3
36848,81384,3
36839,81385,5
36852,81385,5
36837,81375,5
36835,81386,4
36844,81391,5
36849,81395,5
36837,81387,5
36851,81382,5
36831,81367,4
36837,81350,5
36829,81342,5
36817,81330,5
36822,81342,5
36826,81342,4
36828,81337,5
36827,81349,5
36832,81353,5
36832,81366,4
36832,81365,4
36833,81363,5
36837,81364,5
36829,81357,5
36836,81358,4
36823,81350,6
36834,81355,4
36842,81361,5
36830,81361,5
36838,81375,4
36842,81365,5
36842,81378,5
36848,81386,5
36841,81373,5
36835,81379,4
36855,81378,5
36841,81373,5
36846,81376,5
36839,81383,5
36846,81377,4
36850,81388,5
36850,81387,5
36849,81393,5
36859,81397,5
36857,81403,4
36844,81399,5
36857,81403,5
36846,81408,5
36845,81406,4
36864,81400,4
36861,81414,6
36857,81408,4
36860,81418,5
36862,81425,4
36867,81428,5
36876,81448,5
36881,81455,5
36883,81463,5
36891,81486,4
36886,81499,5
36902,81504,5
36904,81512,5
36915,81532,5
36925,81546,4
36925,81569,5
36933,81581,5
36948,81601,5
36956,81623,5
36951,81633,4
36970,81667,5
36983,81687,5
36997,81708,5
37010,81754,5
37022,81793,4
37039,81824,5
37059,81855,5
37066,81869,5
37067,81886,4
37061,81881,4
37076,81868,5
37067,81869,5
37067,81864,5
37053,81867,4
37070,81874,5
37069,81893,5
37084,81900,5
37090,81910,5
37089,81925,4
37104,81941,5
37100,81958,5
37124,81972,5
37125,81991,5
37124,82007,4
37139,82019,5
37139,82011,5
37130,82019,5
37134,82018,5
37132,82015,3
37138,82008,5
37141,82026,5
37142,82026,5
37140,82025,5
37133,82017,4
37133,82011,5
37136,82018,5
37131,82008,5
37136,82009,4
37127,82014,4
37132,82014,5
37129,82012,5
37127,82001,5
37121,82012,4
37127,82009,5
37116,81986,5
37110,81964,5
37101,81952,5
37103,81935,4
37094,81935,6
37099,81933,4
37100,81930,5
37091,81913,5
37085,81908,6
37090,81914,3
37085,81913,5
37091,81916,5
37087,81902,5
37075,81887,4
37074,81880,5
37072,81870,5
37082,81891,5
37067,81885,5
37082,81888,4
37077,81877,5
37083,81896,5
37084,81908,5
37084,81916,4
37093,81920,4
37099,81938,5
37095,81948,5
37111,81962,5
37104,81951,4
37100,81939,5
37099,81927,6
37099,81924,4
37093,81926,5
37092,81919,4
37093,81922,7
37095,81929,3
37097,81943,5
37105,81970,5
37110,81968,4
37118,81971,5
37117,81976,5
37120,81984,5
37129,81990,5
37118,81985,4
37122,81997,5
37126,82007,5
37124,82004,5
37139,82030,5
37140,82032,4
37149,82053,5
37160,82070,5
37168,82094,5
37183,82116,4
37192,82134,4
37205,82150,5
37206,82169,6
37217,82188,4
37224,82202,4
37232,82225,5
37235,82249,5
37249,82265,5
37268,82295,5
37270,82313,4
37284,82328,5
37287,82347,5
37290,82374,5
37310,82385,5
37316,82408,4
37320,82415,5
37335,82423,5
37325,82425,5
37333,82440,5
37332,82447,4
37342,82458,5
37332,82457,5
37344,82461,5
37345,82471,5
37353,82470,4
37348,82475,5
37340,82478,5
37354,82487,6
37354,82490,3
37349,82486,4
37355,82503,5
37357,82512,5
37361,82526,5
37366,82532,4
37373,82526,5
37369,82539,5
37382,82538,5
37370,82526,5
37369,82517,4
37363,82512,5
37369,82516,5
37360,82520,5
37360,82513,5
37359,82535,4
37375,82521,5
37371,82539,5
37379,82547,5
37385,82547,5
37380,82559,5
37378,82558,4
37379,82545,5
37382,82557,5
37379,82544,6
37378,82537,3
37368,82538,5
37384,82543,5
37376,82541,5
37369,82533,4
37371,82552,5
37372,82539,5
37371,82546,5
37385,82557,5
37391,82556,4
37394,82570,5
37392,82584,5
37403,82594,5
37421,82624,5
37419,82627,4
37416,82638,5
37421,82640,5
37427,82659,5
37426,82661,5
37430,82676,4
37437,82676,6
37444,82685,4
37448,82694,5
37451,82712,5
37449,82725,4
37459,82730,5
37455,82737,5
37472,82749,5
37466,82756,4
37472,82754,4
37472,82751,5
37476,82762,5
37472,82753,5
37474,82748,4
37476,82750,4
37465,82749,5
37473,82751,5
37469,82753,5
37474,82763,4
37486,82771,5
37479,82772,5
37483,82778,5
37486,82784,5
37481,82792,4
37481,82782,5
37480,82790,6
37484,82795,4
37486,82792,5
37498,82800,4
37503,82823,5
37505,82830,5
37505,82833,5
37500,82833,5
37507,82834,4
37506,82846,5
37509,82842,5
37512,82847,5
37517,82849,5
37508,82858,4
37522,82862,5
37522,82865,5
37525,82872,5
37523,82871,4
37520,82873,5
37528,82877,5
37528,82874,5
37518,82878,5
37513,82880,4
37525,82883,5
37531,82882,5
37530,82881,6
37525,82878,4
37536,82884,4
37528,82892,5
37534,82895,5
37522,82886,5
37524,82891,5
37527,82891,4
37535,82883,5
37530,82884,5
37528,82883,5
37533,82889,5
37533,82893,4
37532,82892,5
37529,82894,5
37533,82896,5
37537,82904,4
37542,82919,4
37541,82908,5
37541,82920,5
37543,82916,5
37541,82923,5
37550,82927,4
37547,82942,5
37544,82938,5
37547,82934,5
37544,82939,4
37544,82944,5
37547,82940,5
37554,82940,5
37554,82945,5
37549,82950,4
37550,82948,5
37557,82940,5
37558,82949,5
37553,82949,5
37561,82949,4
37555,82947,5
37555,82947,5
37554,82947,5
37556,82935,5
37563,82943,4
37556,82949,5
37547,82948,5
37556,82941,5
37548,82946,4
37545,82939,5
37551,82938,4
37543,82932,5
37542,82935,5
37543,82940,4
37546,82935,5
37546,82931,5
37545,82933,5
37538,82924,5
37539,82932,4
37538,82935,5
37545,82924,5
37537,82929,5
37542,82930,5
37547,82929,4
37553,82935,5
37544,82946,5
37540,82942,5
37543,82945,5
37546,82936,4
37544,82939,5
37555,82934,5
37545,82934,5
37547,82930,5
37547,82935,4
37537,82925,6
37523,82927,4
37529,82914,5
37535,82900,4
37525,82893,4
37513,82873,5
37513,82869,5
37509,82876,5
37507,82871,4
37520,82859,5
37510,82858,5
37514,82875,5
37517,82871,5
37517,82884,4
37520,82881,5
37522,82883,5
37526,82896,5
37540,82888,5
37519,82887,4
37519,82883,5
37519,82889,5
37522,82878,5
37511,82875,5
37506,82877,4
37519,82871,5
37502,82865,6
37502,82871,4
37500,82857,5
37510,82852,4
37503,82841,5
37494,82849,5
37503,82840,5
37505,82849,5
37499,82833,4
37496,82839,5
37502,82852,5
37493,82845,5
37494,82841,4
37494,82848,5
37502,82847,5
37499,82847,5
37491,82849,5
37492,82852,4
37495,82846,5
37492,82845,5
37491,82838,5
37499,82839,5
37489,82835,4
37492,82839,5
37494,82843,5
37492,82844,5
37499,82840,5
37502,82853,4
37503,82854,5
37502,82855,5
37507,82848,5
37502,82847,5
37501,82854,4
37506,82853,6
37503,82844,4
37497,82851,5
37501,82838,4
37495,82855,4
37497,82851,5
37497,82849,5
37505,82854,5
37508,82853,4
37500,82862,5
37495,82859,5
37502,82868,5
37499,82860,5
37499,82860,5
37505,82867,4
37496,82871,5
37508,82866,5
37500,82869,5
37505,82871,4
37500,82880,5
37502,82868,5
37503,82870,5
37510,82876,5
37513,82875,4
37504,82878,5
37509,82870,5
37508,82873,5
37510,82876,5
37505,82875,4
37502,82879,5
37506,82875,5
37508,82880,5
37508,82879,4
37503,82870,4
37506,82879,5
37511,82888,5
37509,82883,5
37511,82873,4
37511,82895,6
37514,82903,4
37510,82895,5
37508,82891,5
37524,82896,4
37524,82907,5
37521,82904,5
37516,82908,5
37508,82913,5
37519,82905,4
37522,82917,5
37519,82916,5
37515,82907,5
37525,82910,5
37518,82911,4
37521,82917,5
37524,82922,5
37525,82908,5
37522,82903,5
37516,82917,4
37521,82915,5
37515,82917,5
37525,82912,4
37515,82916,4
37520,82921,4
37512,82914,5
37521,82921,5
37520,82927,5
37516,82926,4
37515,82917,5
37522,82914,5
37514,82918,5
37521,82918,5
37520,82920,4
37513,82918,5
37514,82912,5
37514,82916,5
37511,82911,5
37507,82908,4
37515,82916,5
37511,82911,5
37510,82913,5
37499,82901,5
37512,82905,4
37498,82878,5
37500,82874,5
37493,82877,6
37489,82870,4
37491,82868,4
37482,82858,5
37494,82868,5
37491,82872,5
37500,82872,4
37487,82879,4
37499,82897,5
37500,82901,5
37507,82895,5
37499,82902,4
37512,82909,5
37509,82908,5
37504,82902,5
37507,82910,5
37508,82906,4
37505,82909,5
37513,82903,5
37508,82899,5
37500,82898,5
37506,82909,5
37504,82902,4
37509,82907,5
37513,82898,5
37507,82899,6
37496,82895,3
37501,82895,5
37500,82887,5
37503,82894,5
37508,82902,5
37500,82898,4
37507,82889,5
37505,82905,5
37507,82897,5
37503,82890,5
37496,82888,4
37503,82890,5
37501,82873,5
37494,82866,5
37493,82883,4
37487,82872,5
37492,82870,5
37498,82873,5
37496,82887,5
37492,82870,4
37500,82875,6
37497,82875,4
37499,82877,5
37493,82872,5
37496,82874,6
37497,82874,3
37497,82873,5
37494,82880,5
37495,82877,5
37492,82870,4
37494,82877,5
37488,82878,5
37502,82875,5
37502,82886,5
37493,82879,4
37498,82879,5
37497,82873,5
37501,82873,5
37493,82870,4
37495,82873,4
37487,82865,5
37490,82868,5
37498,82867,5
37490,82877,4
37492,82867,5
37500,82871,6
37493,82873,4
37492,82876,5
37498,82870,4
37502,82876,5
37488,82885,5
37502,82884,5
37502,82879,5
37507,82887,4
37504,82896,5
37503,82890,5
37507,82901,5
37512,82895,5
37503,82903,4
37516,82907,5
37508,82904,5
37511,82908,5
37510,82900,5
37505,82907,4
37512,82909,5
37502,82917,5
37514,82907,5
37506,82916,4
37514,82913,4
37516,82920,5
37521,82940,6
37526,82937,4
37527,82941,4
37531,82938,5
37529,82952,5
37535,82957,5
37536,82961,5
37536,82962,4
37546,82958,5
37531,82967,5
37530,82963,5
37527,82958,5
37534,82949,4
37538,82954,5
37529,82955,5
37542,82954,5
37534,82963,5
37534,82960,4
37539,82962,5
37535,82965,5
37546,82971,5
37545,82981,5
37541,82992,4
37546,82987,5
37551,82981,5
37540,82985,6
37545,82987,3
37555,82982,5
37546,82987,5
37546,82981,5
37544,82985,5
37555,82992,4
37549,82989,5
37555,82985,5
37549,82975,5
37544,82963,5
37537,82959,4
37530,82952,5
37533,82940,5
37532,82942,5
37536,82948,5
37536,82954,4
37529,82944,5
37523,82937,5
37527,82921,5
37508,82915,5
37523,82898,5
37507,82886,4
37499,82862,5
37489,82834,5
37469,82815,4
37466,82796,4
37453,82769,5
37446,82747,5
37444,82749,5
37436,82730,4
37441,82735,5
37453,82730,5
37441,82726,5
37432,82715,5
37418,82699,4
37422,82694,5
37416,82674,5
37408,82652,5
37394,82638,5
37388,82611,4
37378,82606,5
37382,82588,5
37368,82574,5
37366,82570,5
37375,82575,4
37362,82576,6
37370,82577,4
37370,82558,5
37363,82570,5
37357,82548,4
37354,82548,5
37350,82549,5
37357,82545,5
37361,82550,4
37356,82539,4
37347,82563,5
37358,82551,5
37356,82564,5
37356,82557,4
37361,82579,5
37365,82569,5
37374,82572,5
37374,82573,5
37370,82583,4
37372,82571,5
37369,82588,5
37373,82583,5
37374,82583,5
37385,82601,4
37393,82589,5
37382,82619,6
37385,82624,4
37395,82624,5
37388,82640,4
37405,82653,5
37406,82647,5
37419,82664,5
37418,82677,5
37420,82690,4
37415,82691,5
37430,82718,5
37442,82726,5
37435,82725,4
37446,82743,4
37451,82754,5
37450,82762,5
37453,82774,5
37467,82782,4
37466,82790,5
37465,82790,5
37474,82810,5
37463,82803,5
37472,82807,4
37480,82809,5
37479,82820,5
37477,82815,6
37477,82832,4
37487,82837,4
37486,82843,5
37494,82857,5
37507,82881,5
37514,82884,5
37514,82899,4
37523,82916,5
37527,82920,5
37524,82919,5
37534,82932,5
37545,82941,4
37534,82950,5
37546,82958,5
37552,82967,5
37550,82981,4
37554,82989,4
37559,82992,5
37560,82992,5
37563,82999,5
37556,83004,5
37567,82998,4
37567,82999,5
37565,83009,5
37571,83012,5
37571,83003,4
37569,83021,5
37570,83011,5
37569,83015,5
37567,83011,5
37570,83007,4
37569,83020,5
37563,83010,5
37574,83018,5
37570,83011,5
37568,83015,4
37571,82999,5
37559,82986,5
37553,82994,5
37555,82992,5
37553,82988,4
37552,83001,5
37558,82991,5
37556,82981,5
37553,82971,4
37549,82959,5
37544,82955,4
37545,82952,5
37541,82948,5
37539,82945,4
37532,82940,5
37540,82936,5
37527,82915,5
37520,82901,5
37516,82897,4
37515,82874,5
37497,82867,5
37496,82847,5
37492,82838,5
37475,82816,4
37471,82803,5
37466,82784,5
37467,82770,5
37457,82755,5
37444,82736,4
37433,82710,5
37426,82690,5
37423,82687,5
37423,82672,5
37408,82656,4
37394,82612,6
37377,82568,4
37365,82540,5
37344,82504,4
37334,82483,4
37319,82464,5
37326,82442,5
37311,82420,5
37296,82400,4
37287,82389,5
37282,82376,5
37278,82368,5
37284,82354,5
37268,82350,4
37271,82344,5
37265,82346,5
37276,82351,5
37267,82352,5
37274,82340,4
37270,82332,5
37254,82310,5
37246,82278,6
37221,82228,4
37209,82212,4
37196,82184,5
37194,82173,5
37188,82148,5
37179,82136,5
37177,82113,4
37156,82104,5
37164,82108,5
37165,82097,5
37162,82093,4
37160,82100,4
37162,82120,5
37163,82117,5
37173,82108,5
37165,82100,4
37171,82105,5
37162,82088,5
37155,82068,5
37139,82046,5
37134,82041,4
37129,82020,5
37118,82018,5
37119,82006,8
37123,82014,3
37123,82040,3
37127,82006,5
37122,82019,5
37113,82012,5
37118,82010,5
37115,81998,4
37118,81984,5
37112,81988,5
37109,81986,5
37108,81987,5
37114,81981,4
37111,81969,5
37116,81973,5
37110,81977,5
37112,81985,4
37108,81979,4
37104,81981,5
37116,81992,5
37112,81988,5
37114,81989,4
37113,81990,6
37107,81971,4
37101,81972,5
37102,81966,5
37093,81956,6
37099,81946,3
37099,81941,5
37093,81945,5
37098,81945,5
37098,81941,4
37093,81955,5
37102,81949,5
37097,81963,5
37096,81954,5
37093,81959,4
37098,81958,5
37096,81957,5
37099,81950,5
37097,81950,5
37095,81940,4
37083,81936,5
37081,81927,5
37075,81914,5
37072,81902,4
37068,81911,4
37078,81904,6
37069,81919,4
37079,81923,5
37089,81929,4
37093,81931,7
37093,81924,3
37085,81923,5
37085,81928,5
37084,81914,4
37077,81905,5
37074,81901,5
37077,81903,5
37065,81886,5
37071,81897,4
37068,81896,5
37080,81903,5
37080,81899,5
37072,81900,5
37081,81902,4
37088,81919,5
37086,81916,5
37082,81920,5
37097,81937,4
37089,81944,4
37095,81936,5
37095,81957,6
37102,81957,4
37108,81976,4
37114,81988,5
37119,81990,5
37127,82010,5
37122,82013,5
37136,82026,4
37132,82036,5
37144,82053,5
37131,82063,5
37153,82079,5
37150,82091,4
37169,82106,5
37169,82125,5
37182,82140,5
37192,82148,5
37190,82161,4
37203,82172,5
37208,82182,5
37208,82196,5
37218,82224,5
37237,82241,4
37240,82261,5
37244,82297,5
37260,82323,6
37291,82351,3
37294,82373,4
37305,82399,5
37307,82410,5
37318,82420,5
37317,82435,4
37315,82436,5
37320,82443,5
37331,82449,5
37330,82466,5
37327,82481,4
37351,82499,5
37357,82512,5
37363,82535,5
37371,82556,5
37377,82585,4
37389,82599,5
37395,82625,5
37404,82649,5
37422,82665,5
37428,82676,5
37437,82687,4
37451,82727,5
37460,82759,5
37474,82781,6
37484,82796,3
37491,82826,5
37508,82857,5
37514,82879,5
37519,82891,4
37528,82901,5
37531,82923,5
37542,82924,5
37540,82931,5
37546,82957,4
37562,82961,5
37560,82966,5
37563,82981,5
37565,82983,5
37575,82996,4
37581,82997,5
37575,83001,5
37586,83002,5
37582,83005,5
37582,83008,4
37587,83016,6
37586,83016,4
37580,83010,5
37575,83019,5
37584,83008,4
37588,83009,5
37574,83003,5
37585,83003,5
37581,83015,4
37575,83002,4
37580,82989,5
37578,82996,5
37576,82999,5
37573,82989,4
37564,82998,5
37571,83004,5
37575,82997,5
37577,82988,5
37574,83001,4
37576,82988,5
37576,82998,5
37575,82996,5
37576,82990,5
37572,83002,4
37581,83000,5
37575,82997,6
37579,82995,4
37580,82994,5
37574,82996,4
37572,83002,5
37575,82980,5
37571,82984,5
37568,82981,5
37566,82967,4
37557,82965,5
37552,82951,5
37554,82943,5
37551,82938,4
37544,82938,5
37549,82930,5
37552,82948,5
37552,82948,5
37557,82951,4
37555,82961,5
37555,82965,5
37555,82956,5
37551,82961,5
37546,82952,4
37563,82965,5
37562,82961,5
37550,82964,6
37553,82965,4
37553,82963,4
37556,82959,5
37557,82960,5
37556,82961,5
37561,82958,5
37557,82954,4
37553,82955,5
37553,82951,5
37551,82955,5
37549,82944,4
37545,82944,4
37549,82939,5
37555,82939,5
37550,82937,5
37547,82935,4
37546,82944,5
37549,82933,5
37534,82929,5
37538,82930,5
37537,82921,5
37543,82920,4
37537,82912,5
37536,82917,5
37539,82917,5
37532,82911,4
37536,82910,5
37537,82919,5
37541,82917,5
37531,82905,5
37528,82908,4
37534,82904,5
37525,82903,5
37529,82904,5
37527,82905,5
37538,82911,4
37525,82904,5
37532,82909,5
37533,82912,5
37531,82900,4
37534,82898,5
37539,82905,5
37526,82908,5
37535,82907,5
37535,82905,4
37537,82908,6
37532,82903,4
37534,82907,5
37533,82906,5
37526,82901,4
37535,82906,5
37529,82899,5
37528,82908,5
37531,82898,5
37533,82907,4
37537,82913,5
37535,82912,5
37529,82902,5
37534,82913,5
37538,82913,4
37537,82913,5
37542,82906,5
37542,82911,5
37539,82933,4
37537,82922,5
37541,82929,4
37538,82929,5
37543,82921,5
37533,82929,4
37541,82933,5
37536,82928,6
37547,82926,4
37537,82918,5
37534,82926,4
37543,82919,5
37542,82925,5
37547,82926,5
37541,82927,5
37542,82913,4
37535,82919,5
37536,82921,5
37531,82924,5
37546,82923,5
37540,82939,4
37544,82937,5
37550,82941,5
37552,82937,5
37545,82942,5
37540,82947,4
37544,82936,5
37546,82954,5
37545,82943,5
37558,82953,4
37541,82939,4
37542,82949,5
37543,82953,6
37555,82958,4
37554,82950,4
37548,82955,5
37552,82951,5
37548,82959,5
37551,82957,5
37554,82943,4
37547,82931,5
37554,82937,5
37547,82933,5
37532,82925,5
37542,82927,4
37539,82925,5
37543,82939,5
37551,82947,5
37547,82948,5
37554,82957,4
37557,82971,5
37561,82963,5
37554,82967,5
37560,82976,5
37554,82966,4
37551,82969,5
37562,82976,5
37559,82964,5
37555,82972,4
37559,82960,5
37563,82967,5
37552,82967,5
37558,82964,5
37558,82975,4
37558,82968,5
37553,82970,5
37558,82967,5
37557,82959,5
37560,82962,4
37556,82965,5
37554,82962,5
37561,82971,5
37559,82967,5
37553,82974,4
37563,82978,5
37565,82981,5
37552,82979,5
37559,82969,5
37559,82976,5
37558,82965,4
37554,82968,5
37558,82971,5
37562,82974,4
37563,82982,4
37562,82984,5
37565,82987,5
37561,82985,5
37564,82986,4
37564,82993,5
37570,82994,5
37569,82988,5
37567,82984,5
37573,82993,4
37572,82994,5
37575,82996,5
37565,82991,5
37567,82991,5
37572,82990,4
37570,83001,5
37558,83001,5
37572,83001,5
37576,82992,5
37577,83001,4
37560,82999,6
37566,83007,4
37572,82992,5
37565,82987,4
37566,82993,4
37577,82992,5
37570,82993,5
37562,82999,5
37570,82988,4
37566,82991,5
37567,82995,5
37555,82993,5
37577,82988,5
37563,82978,4
37553,82977,5
37566,82983,5
37575,82985,5
37563,82971,5
37561,82972,4
37563,82964,5
37561,82972,5
37557,82976,5
37552,82966,4
37560,82978,4
37560,82971,5
37557,82965,5
37558,82970,5
37558,82971,5
37558,82961,4
37553,82969,5
37559,82978,5
37555,82965,5
37551,82968,4
37551,82966,4
37556,82960,5
37558,82966,5
37553,82967,5
37556,82970,4
37558,82962,5
37553,82958,5
37549,82966,5
37549,82959,5
37557,82965,5
37552,82968,4
37554,82964,5
37551,82960,5
37551,82950,6
37553,82952,3
37550,82955,5
37539,82952,5
37544,82943,5
37543,82940,5
37548,82941,4
37542,82938,5
37544,82947,5
37542,82944,5
37539,82936,5
37535,82941,4
37547,82945,6
37540,82946,3
37536,82946,5
37546,82943,4
37540,82942,5
37547,82940,5
37546,82950,5
37542,82939,5
37551,82946,4
37546,82953,6
37549,82950,4
37550,82951,5
37548,82954,5
37537,82939,6
37542,82932,3
37531,82928,5
37531,82930,5
37529,82929,5
37529,82921,4
37523,82911,5
37524,82902,5
37513,82895,5
37522,82899,5
37525,82899,4
37528,82910,5
37536,82903,5
37524,82917,5
37536,82927,4
37528,82924,4
37523,82917,5
37533,82921,5
37530,82927,5
37528,82913,4
37529,82910,5
37529,82918,6
37536,82913,4
37526,82914,5
37531,82921,4
37534,82927,5
37529,82916,5
37522,82918,5
37525,82917,5
37524,82921,4
37529,82907,5
37520,82916,5
37532,82904,5
37529,82906,5
37526,82905,4
37520,82902,5
37513,82895,5
37512,82898,5
37522,82899,5
37519,82889,4
37522,82896,5
37511,82890,5
37521,82894,5
37516,82886,4
37513,82880,4
37507,82874,5
37516,82875,6
37506,82867,4
37512,82868,4
37508,82862,5
37519,82869,5
37510,82875,5
37504,82868,5
37506,82871,4
37505,82867,5
37507,82869,5
37504,82875,5
37511,82870,5
37504,82872,4
37507,82877,5
37511,82866,5
37504,82884,5
37506,82873,5
37510,82867,4
37514,82876,5
37506,82861,5
37499,82867,5
37495,82864,5
37504,82852,4
37504,82852,5
37493,82853,5
37494,82847,6
37492,82844,3
37499,82841,5
37497,82841,5
37493,82847,5
37493,82835,5
37492,82841,4
37499,82823,5
37486,82831,5
37482,82832,5
37487,82827,5
37486,82830,4
37487,82830,5
37483,82832,5
37488,82825,5
37484,82825,5
37488,82835,4
37484,82821,5
37488,82830,5
37487,82823,5
37484,82814,5
37481,82818,5
37485,82820,4
37490,82815,5
37485,82824,5
37476,82809,6
37490,82810,3
37482,82803,5
37480,82804,5
37485,82802,5
37479,82817,5
37473,82812,4
37486,82819,5
37480,82818,5
37483,82819,5
37482,82826,4
37476,82813,5
37482,82821,5
37481,82807,5
37475,82829,5
37476,82806,4
37479,82801,5
37479,82808,5
37477,82808,5
37481,82798,5
37478,82793,4
37471,82804,6
37478,82799,4
37463,82803,5
37469,82795,5
37468,82791,4
37475,82787,5
37471,82794,5
37469,82799,5
37466,82789,4
37464,82794,4
37469,82796,5
37463,82787,5
37470,82776,5
37455,82783,4
37461,82773,5
37462,82771,5
37459,82772,5
37461,82784,5
37454,82765,4
37452,82753,5
37440,82751,5
37437,82746,5
37433,82730,5
37435,82726,4
37441,82722,5
37432,82706,6
37430,82710,4
37429,82716,5
37427,82713,4
37426,82719,5
37435,82726,5
37438,82723,5
37435,82730,4
37435,82735,4
37441,82748,5
37443,82750,5
37445,82756,5
37440,82764,4
37450,82778,4
37455,82777,5
37453,82786,5
37460,82793,5
37457,82784,4
37449,82762,5
37435,82749,5
37419,82720,5
37415,82700,5
37405,82692,4
37407,82694,5
37403,82703,5
37415,82702,6
37417,82716,4
37421,82724,4
37428,82731,5
37426,82725,5
37431,82733,5
37431,82755,5
37433,82746,4
37434,82747,5
37436,82751,5
37444,82761,5
37443,82757,4
37450,82775,4
37448,82777,5
37446,82786,5
37458,82813,5
37473,82824,4
37478,82841,5
37472,82862,5
37486,82876,5
37492,82878,5
37492,82887,5
37497,82902,4
37511,82903,5
37495,82904,5
37505,82901,5
37495,82892,4
37499,82905,5
37503,82905,5
37501,82905,5
37498,82902,5
37507,82901,4
37496,82896,5
37499,82898,5
37496,82908,5
37502,82910,5
37496,82910,4
37500,82911,5
37504,82919,5
37506,82907,5
37502,82913,4
37497,82904,4
37500,82909,5
37501,82899,5
37500,82900,5
37500,82907,4
37505,82916,6
37510,82907,4
37507,82897,5
37502,82896,5
37494,82894,4
37494,82892,5
37499,82886,5
37493,82882,5
37494,82871,5
37479,82873,4
37494,82878,5
37489,82883,5
37497,82882,5
37493,82892,5
37499,82893,4
37500,82892,5
37494,82887,5
37488,82886,5
37495,82875,4
37478,82880,4
37486,82876,5
37497,82882,6
37497,82883,4
37502,82897,4
37494,82898,5
37507,82908,7
37498,82913,3
37505,82909,5
37505,82930,4
37518,82929,5
37523,82949,5
37520,82940,5
37523,82947,5
37525,82946,4
37529,82941,5
37517,82933,5
37519,82932,5
37516,82918,5
37518,82922,4
37518,82917,5
37511,82911,5
37503,82910,5
37512,82916,5
37510,82908,4
37510,82912,5
37524,82905,5
37514,82916,5
37518,82921,4
37521,82929,4
37521,82934,5
37519,82926,5
37517,82930,5
37516,82937,4
37527,82939,5
37517,82930,5
37526,82940,5
37520,82946,5
37527,82938,4
37533,82950,5
37524,82950,5
37531,82949,5
37518,82943,5
37520,82934,4
37527,82948,5
37519,82928,5
37525,82943,5
37528,82943,5
37522,82949,4
37523,82938,5
37533,82945,5
37533,82956,5
37529,82955,5
37533,82957,4
37542,82958,5
37539,82970,5
37544,82974,5
37550,82986,4
37544,82974,4
37546,82974,5
37550,82981,5
37551,82984,5
37554,82990,4
37556,82999,5
37550,82997,5
37555,83006,5
37557,82997,5
37554,82995,4
37555,83001,5
37562,83001,5
37548,83006,5
37554,82996,5
37545,82996,4
37557,83007,5
37560,83009,5
37562,83006,5
37561,83006,5
37568,83011,5
37567,83025,4
37559,83023,5
37563,83028,5
37567,83029,4
37569,83026,4
37571,83023,5
37565,83019,5
37571,83037,5
37570,83036,4
37565,83027,5
37580,83031,5
37569,83028,5
37569,83029,5
37562,83025,4
37564,83023,5
37570,83037,5
37576,83032,5
37579,83032,5
37568,83038,4
37575,83041,5
37575,83043,6
37573,83039,4
37574,83042,5
37571,83046,4
37572,83042,7
37571,83046,3
37578,83038,5
37577,83038,5
37575,83034,4
37574,83030,5
37564,83030,5
37571,83024,5
37561,83012,4
37562,83017,4
37562,83014,5
37568,83021,5
37560,83012,5
37554,82985,4
37559,82980,5
37538,82977,5
37536,82964,5
37535,82942,5
37542,82934,4
37531,82927,5
37525,82910,5
37511,82911,6
37522,82897,4
37502,82897,4
37513,82895,5
37511,82901,5
37526,82905,5
37509,82900,5
37508,82903,4
37510,82905,5
37510,82900,5
37506,82896,5
37508,82897,5
37511,82886,4
37511,82873,5
37499,82874,5
37499,82872,5
37496,82874,4
37499,82849,4
37508,82854,5
37498,82858,5
37497,82848,5
37490,82847,5
37487,82849,4
37486,82845,5
37490,82843,5
37486,82847,6
37491,82844,3
37492,82855,5
37495,82849,5
37491,82857,5
37484,82843,5
37490,82845,4
37496,82845,5
37482,82849,5
37492,82842,5
37489,82834,5
37494,82837,4
37482,82847,5
37490,82850,5
37501,82866,5
37495,82859,5
37495,82856,4
37504,82864,5
37497,82862,5
37501,82871,5
37490,82859,4
37499,82866,6
37498,82871,4
37496,82875,5
37502,82870,8
37510,82881,3
37526,82869,3
37517,82895,5
37526,82901,5
37525,82909,5
37522,82915,4
37530,82912,5
37533,82922,5
37525,82926,5
37538,82927,5
37533,82926,4
37534,82932,5
37544,82931,5
37535,82932,5
37534,82935,5
37543,82949,4
37547,82954,5
37537,82942,5
37532,82940,5
37542,82936,5
37533,82930,4
37535,82927,6
37537,82926,4
37528,82918,5
37529,82927,4
37526,82905,4
37521,82890,5
37518,82875,5
37509,82859,5
37498,82851,4
37498,82841,5
37497,82833,5
37492,82822,5
37492,82816,5
37468,82815,4
37473,82802,5
37473,82788,5
37463,82768,5
37459,82764,5
37449,82758,4
37451,82751,5
37446,82733,5
37449,82730,5
37443,82712,5
37430,82692,4
37415,82672,5
37403,82659,6
37402,82645,4
37411,82627,5
37393,82618,4
37383,82587,5
37375,82571,5
37357,82535,5
37340,82506,4
37329,82489,5
37321,82470,5
37325,82454,5
37314,82440,5
37303,82427,4
37296,82409,5
37300,82405,5
37293,82386,5
37281,82381,5
37286,82379,4
37283,82374,5
37273,82357,5
37269,82347,5
37263,82327,5
37260,82310,4
37251,82290,5
37237,82283,5
37235,82268,6
37227,82263,4
37228,82230,4
37216,82222,5
37210,82201,5
37195,82209,5
37203,82195,5
37199,82192,4
37209,82186,5
37193,82186,5
37198,82181,5
37194,82174,4
37184,82172,5
37188,82153,5
37176,82150,5
37178,82131,5
37170,82136,4
37177,82114,5
37166,82114,5
37161,82104,5
37156,82091,5
37166,82093,5
37148,82078,4
37155,82078,5
37152,82078,5
37144,82062,6
37141,82071,3
37150,82057,5
37144,82054,5
37138,82046,5
37138,82045,5
37123,82039,4
37129,82032,5
37127,82021,5
37129,82031,5
37134,82029,5
37139,82043,4
37132,82048,5
37148,82060,5
37144,82062,5
37140,82053,5
37146,82033,4
37128,82039,5
37138,82032,5
37129,82018,5
37122,82026,4
37130,82015,6
37122,82019,4
37126,82027,5
37130,82033,5
37132,82023,4
37137,82032,5
37129,82031,5
37134,82042,5
37131,82022,5
37129,82027,4
37130,82022,5
37124,82007,5
37114,82004,5
37118,81994,5
37106,81971,4
37096,81958,5
37098,81951,5
37098,81961,5
37090,81952,5
37090,81931,4
37081,81931,5
37079,81931,5
37075,81923,5
37081,81915,4
37075,81923,4
37077,81913,6
37077,81913,4
37073,81913,5
37079,81909,4
37078,81917,5
37072,81911,5
37075,81918,5
37075,81923,5
37085,81915,4
37080,81925,5
37080,81914,5
37073,81904,5
37065,81901,5
37075,81899,4
37073,81904,5
37075,81901,5
37075,81905,5
37080,81895,5
37067,81881,4
37062,81875,5
37058,81874,5
37051,81871,5
37058,81857,5
37060,81859,4
37057,81862,5
37064,81866,6
37062,81872,4
37054,81861,4
37059,81870,4
37056,81868,5
37058,81869,5
37063,81870,5
37064,81874,4
37067,81877,5
37062,81884,5
37063,81873,5
37058,81869,5
37060,81870,4
37057,81874,5
37058,81866,5
37060,81881,5
37069,81875,5
37054,81888,4
37064,81888,5
37064,81892,5
37065,81893,5
37068,81897,5
37083,81914,4
37094,81915,5
37082,81928,5
37094,81939,5
37096,81952,5
37109,81956,4
37105,81969,5
37100,81958,5
37099,81967,5
37108,81963,4
37101,81972,4
37109,81960,5
37110,81973,5
37120,81978,5
37114,81986,4
37125,81990,5
37121,81990,5
37121,82011,5
37124,82019,5
37133,82024,4
37135,82034,5
37143,82041,5
37154,82063,5
37156,82069,5
37160,82082,5
37165,82083,4
37159,82098,5
37167,82095,5
37167,82105,5
37175,82108,4
37173,82120,5
37175,82119,5
37183,82132,5
37199,82149,5
37199,82158,4
37197,82164,5
37207,82168,5
37199,82166,5
37215,82180,4
37202,82182,5
37215,82188,5
37199,82185,5
37212,82185,5
37209,82189,4
37224,82194,5
37212,82195,5
37216,82205,5
37217,82200,5
37222,82220,4
37230,82236,6
37243,82257,4
37252,82271,5
37250,82288,5
37261,82292,4
37265,82304,5
37266,82316,5
37263,82318,5
37279,82337,5
37273,82335,4
37275,82350,5
37283,82353,5
37295,82360,5
37291,82386,5
37305,82406,5
37313,82409,4
37319,82425,5
37318,82429,5
37320,82436,4
37323,82445,4
37326,82435,5
37332,82449,5
37330,82440,5
37328,82453,4
37335,82454,5
37342,82468,6
37336,82471,4
37347,82492,5
37350,82490,4
37350,82473,5
37353,82478,5
37340,82467,5
37336,82469,5
37340,82461,4
37327,82451,5
37327,82444,5
37337,82445,5
37323,82453,5
37326,82448,4
37328,82451,5
37329,82442,5
37326,82436,5
37326,82438,5
37324,82435,4
37332,82443,5
37328,82457,5
37340,82456,5
37345,82467,3
37345,82488,5
37359,82496,5
37363,82520,5
37373,82538,5
37381,82560,4
37389,82579,5
37394,82589,5
37398,82613,5
37407,82629,5
37411,82643,4
37424,82644,5
37435,82666,5
37429,82678,5
37439,82699,5
37443,82705,4
37460,82718,5
37463,82735,5
37468,82756,5
37474,82763,5
37479,82773,5
37478,82781,4
37480,82799,5
37487,82805,5
37498,82822,6
37509,82826,3
37506,82842,5
37509,82852,5
37522,82863,5
37521,82855,4
37522,82852,4
37514,82860,5
37512,82874,5
37520,82866,5
37525,82872,4
37516,82867,5
37525,82872,5
37524,82875,5
37523,82878,5
37529,82884,4
37520,82880,5
37527,82886,5
37530,82885,5
37536,82889,5
37533,82897,4
37537,82892,6
37530,82893,4
37529,82892,5
37531,82893,5
37533,82902,6
37536,82895,3
37539,82901,5
37539,82904,5
37540,82905,5
37541,82906,4
37537,82902,5
37533,82897,5
37529,82898,5
37539,82899,4
37543,82904,4
37539,82899,5
37540,82902,5
37537,82913,5
37542,82892,4
37539,82909,5
37532,82895,5
37543,82898,5
37541,82898,5
37539,82900,4
37525,82895,5
37536,82889,6
37529,82887,4
37532,82888,5
37521,82888,4
37528,82890,5
37527,82894,5
37532,82890,5
37533,82892,5
37534,82893,4
37533,82889,5
37537,82892,5
37542,82890,5
37529,82902,5
37541,82899,4
37538,82905,5
37537,82906,5
37543,82906,5
37529,82902,4
37534,82889,4
37536,82888,5
37517,82877,5
37531,82858,5
37508,82860,4
37512,82849,5
37506,82833,5
37513,82846,6
37506,82841,4
37515,82842,4
37516,82856,5
37508,82848,5
37512,82863,5
37519,82846,5
37507,82854,4
37515,82854,5
37517,82863,5
37515,82855,5
37530,82875,5
37518,82861,4
37519,82860,5
37512,82869,5
37523,82871,5
37528,82870,5
37516,82870,4
37519,82877,5
37526,82870,5
37525,82868,5
37519,82871,5
37518,82882,4
37512,82865,5
37520,82876,5
37515,82862,6
37519,82873,3
37523,82870,5
37528,82874,5
37522,82878,5
37524,82891,5
37536,82900,4
37532,82895,5
37535,82897,5
37541,82905,5
37532,82898,5
37539,82901,4
37535,82906,6
37529,82901,4
37537,82910,5
37544,82913,5
37542,82918,4
37544,82911,5
37541,82928,5
37551,82923,5
37549,82932,5
37552,82930,5
37543,82933,4
37545,82930,5
37553,82938,5
37555,82942,6
37554,82951,3
37557,82958,5
37557,82959,5
37561,82963,5
37557,82958,4
37559,82958,5
37558,82965,5
37567,82964,5
37564,82968,5
37564,82963,4
37553,82962,5
37563,82959,5
37560,82952,5
37555,82965,5
37560,82960,4
37565,82959,5
37560,82952,5
37555,82958,5
37552,82955,5
37552,82960,4
37557,82965,6
37560,82953,4
37552,82963,5
37557,82962,5
37559,82960,4
37555,82950,5
37556,82955,5
37550,82957,5
37553,82957,4
37560,82966,4
37562,82959,5
37562,82971,5
37561,82973,5
37558,82970,4
37556,82969,5
37558,82969,5
37557,82972,5
37557,82968,5
37556,82970,4
37562,82975,5
37571,82971,5
37561,82971,5
37555,82970,5
37562,82971,4
37563,82971,5
37557,82966,6
37557,82968,4
37561,82971,5
37558,82974,4
37566,82976,5
37564,82970,5
37561,82970,5
37557,82958,5
37559,82968,4
37567,82969,5
37556,82965,5
37556,82968,5
37562,82959,4
37558,82959,4
37555,82950,5
37555,82947,5
37554,82949,5
37552,82953,4
37553,82952,5
37548,82961,5
37546,82946,5
37549,82952,5
37547,82955,4
37548,82957,5
37549,82956,5
37546,82943,6
37551,82942,4
37547,82944,4
37548,82945,5
37546,82946,5
37543,82939,5
37556,82941,5
37557,82945,4
37548,82942,5
37553,82949,5
37553,82941,5
37555,82944,5
37553,82945,4
37547,82949,5
37551,82954,5
37542,82941,5
37540,82949,5
37553,82951,4
37554,82947,5
37549,82941,5
37546,82945,5
37555,82942,5
37537,82923,4
37538,82929,5
37532,82913,5
37527,82909,5
37520,82888,4
37526,82889,5
37520,82878,5
37518,82867,5
37514,82870,5
37514,82871,4
37512,82882,5
37523,82885,5
37522,82889,5
37513,82879,5
37518,82901,4
37531,82896,5
37518,82904,5
37521,82901,5
37536,82903,5
37521,82910,4
37531,82920,5
37522,82905,5
37532,82907,5
37531,82897,5
37531,82907,5
37521,82894,4
37522,82895,5
37519,82892,5
37526,82890,4
37514,82892,5
37516,82891,5
37514,82889,5
37517,82895,5
37511,82888,4
37521,82897,5
37525,82894,5
37521,82890,5
37520,82894,5
37522,82896,4
37523,82892,5
37525,82899,5
37521,82891,5
37521,82893,5
37519,82878,4
37517,82881,5
37511,82886,5
37519,82875,5
37519,82888,5
37514,82884,4
37520,82887,6
37516,82887,4
37522,82885,5
37516,82887,5
37514,82886,4
37523,82885,5
37514,82886,5
37514,82879,5
37505,82883,4
37515,82878,4
37510,82881,5
37508,82870,5
37517,82879,5
37514,82886,4
37518,82883,5
37508,82888,5
37522,82889,5
37520,82897,5
37516,82900,4
37520,82902,5
37519,82907,5
37522,82903,5
37512,82898,5
37517,82898,4
37521,82898,5
37519,82905,6
37520,82907,4
37524,82902,5
37517,82908,4
37523,82899,5
37521,82908,5
37521,82903,5
37515,82898,5
37525,82911,4
37519,82901,5
37528,82908,5
37533,82907,5
37524,82915,4
37515,82914,4
37519,82908,5
37525,82913,5
37523,82906,5
37531,82911,4
37529,82900,5
37531,82910,5
37529,82910,5
37520,82912,5
37523,82912,4
37530,82910,5
37524,82918,5
37534,82915,5
37528,82922,5
37527,82929,4
37533,82932,5
37532,82935,5
37532,82928,5
37533,82933,5
37537,82928,4
37534,82923,5
37534,82931,5
37531,82927,5
37536,82927,5
37531,82929,4
37538,82931,5
37527,82938,5
37539,82924,5
37534,82924,4
37532,82931,5
37536,82933,4
37538,82931,5
37534,82924,5
37535,82932,5
37540,82932,4
37544,82928,5
37530,82934,5
37531,82936,5
37545,82934,4
37532,82941,5
37530,82922,5
37535,82928,5
37542,82932,5
37538,82930,4
37527,82917,5
37521,82912,5
37525,82907,5
37526,82900,5
37526,82905,4
37515,82904,5
37514,82906,5
37519,82904,5
37524,82912,5
37529,82923,4
37530,82917,6
37528,82926,4
37522,82927,5
37538,82932,5
37531,82920,6
37523,82922,3
37528,82927,5
37531,82928,5
37535,82914,4
37532,82916,5
37523,82919,5
37534,82924,5
37523,82918,5
37516,82910,4
37518,82906,5
37509,82903,5
37514,82913,5
37515,82903,5
37515,82891,4
37518,82895,5
37509,82889,5
37518,82890,5
37511,82891,5
37506,82892,4
37517,82901,5
37518,82896,6
37508,82900,4
37519,82885,5
37511,82887,4
37513,82878,5
37514,82884,5
37513,82874,5
37499,82863,4
37501,82862,4
37503,82869,5
37503,82863,5
37502,82865,5
37497,82870,4
37500,82870,5
37505,82873,5
37503,82867,5
37507,82871,5
37498,82871,4
37500,82870,5
37504,82875,5
37501,82871,5
37502,82878,5
37503,82875,4
37513,82877,5
37507,82880,5
37500,82883,6
37506,82898,4
37502,82889,4
37511,82893,5
37512,82896,5
37503,82885,5
37503,82882,5
37500,82879,4
37505,82883,5
37500,82886,5
37505,82894,5
37508,82895,4
37515,82905,4
37510,82904,5
37522,82909,5
37515,82919,5
37507,82920,4
37513,82913,4
37514,82913,5
37511,82923,5
37517,82923,5
37519,82929,5
37516,82932,4
37515,82924,5
37519,82928,5
37516,82930,6
37524,82934,3
37514,82936,5
37518,82932,5
37519,82936,5
37519,82948,5
37519,82952,4
37531,82970,5
37527,82976,5
37534,82975,5
37533,82978,5
37527,82979,4
37522,82968,5
37536,82974,5
37531,82971,5
37534,82965,5
37527,82972,4
37526,82981,5
37534,82984,5
37540,82992,5
37531,82988,4
37530,83001,5
37538,82999,4
37538,82994,5
37550,83018,5
37542,83015,6
37550,83014,3
37545,83016,5
37548,83026,5
37543,83036,5
37544,83032,4
37550,83048,5
37559,83049,5
37548,83051,5
37546,83037,5
37547,83034,4
37551,83038,5
37543,83024,5
37528,83015,5
37533,82995,5
37524,82986,4
37527,82992,5
37510,82983,5
37513,82979,5
37522,82979,5
37521,82983,4
37519,82973,6
37521,82981,4
37523,82987,5
37521,82985,4
37530,82993,4
37526,82994,5
37530,82995,5
37527,82990,5
37540,82996,4
37530,82992,5
37526,82997,5
37523,82990,5
37527,82987,5
37528,82980,4
37527,82987,5
37524,82992,5
37520,82977,5
37522,82976,5
37526,82973,4
37512,82958,5
37505,82952,5
37513,82954,5
37507,82949,5
37507,82952,4
37514,82949,5
37506,82946,6
37505,82938,4
37506,82936,5
37508,82929,4
37505,82930,5
37497,82931,5
37510,82925,5
37505,82930,4
37496,82924,4
37499,82918,5
37499,82915,5
37500,82932,5
37505,82929,4
37511,82928,5
37514,82932,5
37510,82947,5
37505,82941,5
37503,82930,4
37507,82934,5
37511,82927,5
37495,82916,5
37508,82925,5
37501,82915,4
37496,82923,5
37510,82913,8
37503,82922,3
37497,82943,4
37504,82916,4
37511,82922,5
37498,82918,5
37497,82909,5
37508,82925,5
37499,82913,4
37499,82915,5
37503,82916,5
37498,82920,5
37492,82912,4
37495,82916,4
37507,82912,5
37492,82919,5
37496,82916,5
37498,82903,4
37496,82921,5
37505,82910,5
37506,82908,5
37502,82904,5
37494,82903,5
37503,82911,4
37503,82911,5
37506,82913,5
37497,82914,6
37504,82914,3
37504,82921,5
37501,82915,5
37510,82928,5
37505,82921,5
37508,82933,4
37510,82936,5
37509,82942,5
37512,82934,5
37518,82935,5
37514,82932,4
37513,82934,5
37515,82934,5
37513,82941,5
37516,82946,5
37522,82947,4
37520,82941,5
37516,82937,5
37512,82939,5
37521,82936,4
37507,82923,5
37514,82920,4
37505,82919,5
37512,82919,5
37510,82922,4
37503,82913,5
37507,82931,5
37509,82927,5
37510,82922,5
37510,82928,4
37511,82933,5
37519,82944,5
37513,82942,5
37524,82938,5
37516,82954,4
37517,82943,5
37516,82945,5
37515,82940,5
37530,82945,5
37518,82953,4
37523,82949,5
37515,82951,5
37519,82949,5
37525,82946,5
37518,82935,4
37511,82923,6
37509,82916,4
37516,82918,5
37505,82904,4
37503,82892,4
37501,82884,5
37493,82891,5
37498,82882,5
37496,82876,4
37491,82886,5
37486,82871,5
37484,82864,5
37473,82858,5
37482,82859,4
37481,82853,5
37484,82834,5
37469,82824,5
37460,82804,5
37454,82782,4
37447,82757,5
37440,82742,5
37431,82736,5
37429,82732,5
37425,82708,4
37426,82702,5
37400,82676,6
37393,82657,4
37386,82627,5
37384,82606,4
37360,82577,5
37361,82568,5
37351,82557,5
37357,82550,4
37344,82539,4
37331,82514,5
37321,82491,5
37308,82459,5
37293,82437,4
37287,82416,5
37291,82410,5
37277,82387,5
37279,82396,5
37274,82373,4
37273,82377,5
37263,82359,5
37259,82348,5
37252,82314,5
37235,82282,5
37224,82243,4
37212,82227,5
37211,82229,5
37199,82213,5
37198,82205,4
37190,82199,5
37192,82186,5
37186,82181,5
37186,82192,5
37187,82176,4
37184,82169,5
37174,82149,5
37169,82148,5
37171,82129,4
37163,82123,4
37156,82106,5
37152,82090,5
37144,82067,5
37131,82063,4
37133,82054,5
37135,82053,5
37133,82068,5
37140,82069,5
37145,82081,6
37141,82092,3
37151,82114,5
37164,82121,5
37160,82138,5
37170,82140,4
37172,82154,5
37181,82161,5
37188,82170,5
37185,82176,5
37186,82185,4
37187,82205,5
37192,82208,5
37204,82225,5
37216,82241,5
37224,82252,4
37225,82252,5
37226,82265,5
37233,82266,5
37230,82275,4
37236,82265,4
37226,82261,5
37222,82261,5
37220,82249,5
37235,82271,4
37233,82276,6
37239,82273,4
37236,82289,5
37237,82291,5
37242,82307,4
37241,82309,5
37248,82303,5
37250,82305,5
37240,82305,5
37243,82302,4
37243,82290,5
37237,82275,5
37233,82262,5
37222,82253,5
37222,82244,4
37215,82236,5
37228,82236,5
37212,82229,5
37222,82232,5
37219,82238,4
37222,82237,5
37219,82234,5
37214,82236,5
37217,82229,5
37218,82241,4
37222,82243,6
37222,82249,3
37221,82256,5
37226,82255,4
37221,82264,4
37229,82270,5
37228,82274,5
37233,82275,5
37232,82275,4
37241,82278,5
37240,82282,5
37241,82286,5
37243,82283,5
37240,82281,4
37240,82290,5
37242,82289,5
37243,82283,5
37237,82291,5
37241,82289,4
37249,82309,5
37244,82318,5
37246,82323,6
37260,82327,4
37266,82339,4
37274,82360,5
37269,82360,5
37275,82367,5
37284,82370,5
37281,82388,4
37289,82400,5
37291,82403,5
37301,82417,5
37298,82437,4
37308,82445,4
37310,82444,5
37317,82453,5
37307,82449,5
37318,82449,4
37322,82452,5
37311,82452,5
37311,82451,5
37318,82454,5
37311,82461,5
37320,82465,4
37331,82475,5
37322,82491,5
37340,82508,6
37349,82516,3
37361,82533,5
37359,82550,5
37355,82557,5
37367,82560,5
37377,82563,4
37375,82576,5
37366,82579,5
37376,82578,5
37382,82591,5
37376,82593,4
37379,82601,5
37385,82611,5
37398,82604,5
37396,82629,4
37402,82634,4
37400,82642,5
37404,82627,5
37405,82643,5
37399,82644,4
37412,82649,6
37405,82650,4
37414,82664,5
37415,82668,5
37426,82677,6
37418,82687,3
37425,82690,5
37427,82696,5
37430,82697,5
37434,82699,4
37433,82689,5
37435,82686,5
37427,82687,5
37424,82696,5
37432,82686,4
37428,82698,5
37433,82699,5
37428,82705,5
37431,82701,5
37439,82703,4
37432,82698,5
37429,82679,5
37426,82682,5
37432,82694,4
37430,82694,4
37428,82683,6
37428,82680,4
37429,82682,5
37416,82669,4
37418,82667,5
37419,82662,5
37408,82651,5
37424,82655,5
37413,82653,4
37400,82646,5
37408,82643,5
37413,82632,5
37408,82637,5
37412,82632,4
37403,82634,5
37406,82635,5
37407,82645,5
37404,82636,5
37404,82634,4
37406,82637,5
37410,82633,5
37398,82640,5
37401,82626,5
37401,82635,4
37394,82625,5
37397,82623,6
37399,82621,4
37388,82612,4
37386,82614,4
37392,82606,5
37401,82613,5
37394,82616,5
37401,82623,4
37391,82614,5
37392,82617,5
37392,82601,5
37387,82608,5
37392,82610,4
37389,82601,5
37385,82602,5
37389,82604,5
37389,82597,5
37386,82601,4
37376,82596,5
37382,82606,5
37384,82596,5
37381,82595,5
37390,82592,4
37379,82594,5
37391,82591,5
37379,82589,6
37379,82576,4
37383,82577,4
37376,82559,5
37366,82565,5
37371,82570,5
37372,82572,4
37375,82574,4
37377,82568,5
37371,82575,5
37379,82573,5
37379,82562,4
37379,82562,5
37373,82566,5
37367,82560,5
37375,82555,5
37365,82557,4
37379,82575,5
37370,82567,5
37371,82570,5
37374,82558,5
37369,82555,5
37368,82557,4
37372,82562,5
37367,82542,5
37373,82549,6
37358,82541,3
37354,82532,5
37358,82526,5
37349,82517,5
37349,82497,5
37333,82491,4
37339,82473,5
37330,82475,5
37329,82461,5
37315,82440,4
37314,82434,4
37303,82413,5
37302,82400,5
37291,82391,5
37300,82388,4
37302,82402,5
37299,82408,5
37314,82415,5
37304,82415,5
37315,82425,4
37314,82422,6
37323,82434,4
37311,82428,5
37317,82436,5
37314,82433,4
37315,82433,5
37316,82433,5
37312,82445,5
37311,82427,5
37317,82422,4
37312,82431,5
37310,82412,5
37304,82401,5
37302,82399,5
37304,82408,4
37297,82397,5
37298,82401,5
37296,82388,5
37297,82398,4
37295,82395,4
37301,82391,5
37303,82391,5
37303,82407,5
37297,82408,4
37306,82407,6
37309,82414,5
37305,82406,4
37302,82400,5
37303,82391,4
37303,82399,5
37301,82392,5
37289,82372,5
37298,82378,5
37284,82375,4
37290,82359,5
37283,82361,5
37277,82355,5
37281,82354,5
37274,82349,4
37274,82346,5
37273,82351,5
37272,82342,5
37271,82320,5
37264,82322,4
37269,82330,5
37266,82325,5
37269,82327,5
37270,82329,4
37269,82324,4
37277,82331,5
37271,82329,6
37268,82325,4
37265,82329,4
37276,82315,5
37261,82312,5
37256,82295,5
37245,82274,5
37243,82264,4
37233,82228,5
37221,82208,5
37202,82168,5
37191,82162,5
37191,82143,4
37176,82135,5
37181,82137,5
37180,82136,5
37188,82138,5
37187,82139,4
37189,82147,5
37178,82146,5
37181,82148,5
37181,82149,5
37187,82139,4
37186,82140,5
37182,82132,5
37188,82146,5
37174,82141,4
37181,82133,4
37184,82133,5
37173,82121,5
37176,82125,5
37173,82119,4
37173,82121,5
37166,82107,5
37168,82101,5
37166,82108,5
37163,82092,4
37166,82095,5
37169,82090,5
37160,82096,5
37157,82092,5
37165,82097,4
37170,82100,5
37164,82101,5
37165,82081,5
37157,82085,5
37154,82081,5
37160,82084,4
37161,82083,5
37163,82090,5
37158,82085,5
37167,82093,4
37167,82103,5
37170,82104,5
37159,82101,5
37171,82108,4
37166,82107,4
37173,82110,5
37164,82107,5
37162,82104,5
37175,82111,4
37165,82106,5
37175,82105,5
37166,82116,5
37171,82112,5
37166,82119,4
37170,82113,5
37170,82109,5
37160,82111,5
37162,82111,5
37164,82098,4
37162,82104,6
37166,82087,4
37161,82099,5
37159,82096,5
37160,82100,4
37151,82109,5
37171,82103,5
37169,82104,5
37158,82112,5
37157,82112,4
37164,82107,5
37164,82107,5
37166,82101,5
37166,82106,4
37164,82102,4
37172,82096,5
37164,82099,5
37167,82095,5
37159,82086,4
37162,82088,5
37156,82095,5
37168,82100,5
37158,82092,5
37154,82086,4
37153,82081,5
37151,82076,6
37147,82067,4
37147,82071,5
37141,82063,4
37144,82061,5
37153,82059,5
37144,82071,5
37146,82075,5
37149,82065,4
37161,82072,5
37156,82072,5
37144,82059,5
37144,82061,5
37138,82059,4
37143,82052,5
37145,82056,5
37145,82045,5
37146,82050,4
37140,82061,4
37141,82046,5
37141,82064,5
37137,82045,5
37146,82049,4
37139,82048,5
37138,82055,5
37145,82047,5
37140,82040,5
37141,82053,4
37133,82040,5
37132,82041,5
37140,82038,5
37147,82043,5
37135,82045,4
37136,82026,5
37134,82029,5
37139,82031,5
37129,82024,5
37125,82031,4
37125,82027,5
37131,82027,5
37130,82023,5
37125,82038,5
37128,82028,5
37132,82030,4
37129,82041,5
37134,82028,5
37132,82029,6
37132,82027,3
37136,82028,5
37140,82032,5
37131,82035,5
37129,82024,4
37138,82034,5
37127,82038,5
37143,82045,5
37138,82055,5
37148,82054,4
37139,82063,5
37148,82065,5
37149,82064,5
37154,82068,5
37146,82069,4
37153,82089,5
37162,82086,5
37160,82099,5
37167,82105,5
37166,82117,4
37171,82128,6
37176,82136,4
37177,82147,5
37200,82159,5
37193,82177,6
37209,82185,3
37215,82211,5
37220,82218,5
37226,82237,4
37235,82263,4
37251,82288,5
37261,82314,5
37265,82346,5
37276,82351,4
37293,82370,5
37291,82394,5
37307,82415,5
37318,82433,5
37316,82458,4
37338,82475,5
37342,82494,5
37350,82526,5
37359,82533,5
37366,82551,4
37386,82569,5
37381,82581,6
37382,82587,4
37393,82604,5
37385,82617,4
37396,82616,5
37408,82622,5
37405,82632,5
37403,82629,5
37410,82647,4
37410,82646,5
37424,82660,5
37416,82659,5
37431,82684,4
37430,82692,4
37441,82701,5
37437,82711,5
37443,82720,5
37450,82730,4
37447,82726,5
37439,82731,5
37450,82722,5
37441,82732,5
37453,82725,4
37451,82737,5
37453,82740,5
37453,82756,6
37465,82757,4
37468,82767,4
37465,82771,5
37460,82776,5
37463,82772,5
37453,82777,5
37462,82778,4
37463,82792,5
37469,82783,5
37469,82784,5
37479,82783,5
37483,82796,4
37471,82795,5
37482,82793,5
37472,82795,5
37481,82800,4
37484,82796,4
37473,82805,5
37480,82807,5
37479,82804,5
37471,82796,5
37471,82789,4
37473,82782,5
37472,82778,5
37473,82795,6
37463,82786,3
37465,82776,5
37465,82771,5
37457,82768,5
37451,82753,5
37456,82757,4
37450,82738,5
37454,82747,5
37442,82733,5
37441,82721,5
37442,82712,4
37439,82705,5
37430,82685,5
37424,82678,5
37413,82669,5
37407,82659,4
37403,82640,5
37402,82627,5
37401,82628,5
37395,82630,4
37403,82633,5
37413,82638,4
37408,82656,5
37410,82650,5
37411,82657,6
37418,82651,3
37407,82650,5
37410,82638,5
37398,82622,5
37401,82610,4
37385,82586,5
37372,82569,5
37365,82553,5
37349,82534,5
37353,82523,4
37356,82532,5
37349,82529,5
37352,82535,5
37344,82527,5
37359,82544,4
37362,82535,5
37366,82542,5
37350,82535,5
37370,82551,5
37365,82533,4
37359,82543,6
37356,82536,4
37353,82527,5
37343,82519,4
37346,82521,4
37347,82519,5
37342,82525,5
37344,82517,5
37352,82521,4
37343,82512,5
37347,82508,5
37347,82508,5
37342,82498,5
37328,82489,4
37337,82481,5
37338,82496,5
37328,82490,5
37326,82494,5
37336,82509,4
37347,82506,5
37343,82513,5
37348,82519,5
37354,82528,5
37352,82540,4
37353,82540,5
37362,82548,6
37365,82559,4
37366,82567,5
37377,82567,4
37375,82583,5
37375,82580,5
37383,82591,5
37383,82607,5
37383,82605,4
37380,82600,5
37388,82599,5
37388,82600,5
37380,82589,4
37383,82592,5
37373,82583,5
37383,82595,5
37380,82587,5
37375,82590,4
37382,82588,5
37375,82602,5
37392,82612,5
37389,82609,5
37392,82627,4
37399,82624,5
37402,82633,5
37405,82640,6
37406,82647,4
37407,82655,4
37410,82652,5
37411,82659,5
37406,82655,5
37415,82660,5
37415,82669,4
37424,82670,5
37417,82679,5
37413,82675,5
37414,82678,4
37416,82684,4
37420,82684,5
37424,82683,5
37418,82689,5
37422,82696,4
37421,82695,4
37421,82703,5
37423,82692,5
37418,82708,5
37433,82711,5
37420,82706,4
37440,82716,5
37430,82721,5
37432,82713,5
37432,82714,4
37433,82713,5
37431,82716,5
37442,82732,5
37428,82726,5
37439,82727,4
37447,82735,5
37442,82740,5
37437,82750,5
37442,82761,5
37454,82753,4
37441,82753,5
37440,82763,5
37453,82752,5
37452,82762,5
37447,82754,4
37455,82765,5
37448,82764,5
37449,82769,5
37446,82760,4
37461,82772,6
37454,82775,4
37455,82763,5
37451,82762,5
37455,82771,4
37451,82761,5
37444,82755,5
37451,82755,5
37454,82755,5
37450,82757,4
37447,82754,4
37450,82757,5
37455,82754,5
37444,82751,5
37444,82763,4
37445,82773,5
37447,82763,5
37454,82772,5
37446,82768,5
37450,82762,4
37449,82762,5
37444,82776,5
37443,82782,4
37446,82772,5
37454,82784,7
37440,82780,4
37428,82786,3
37458,82780,5
37455,82783,4
37450,82788,5
37455,82785,5
37455,82784,5
37454,82791,5
37452,82805,4
37461,82813,5
37468,82822,5
37463,82831,5
37470,82846,5
37478,82842,4
37482,82856,5
37482,82855,5
37486,82865,5
37487,82871,5
37482,82862,4
37480,82860,5
37478,82872,5
37480,82869,5
37489,82882,5
37494,82894,4
37491,82895,5
37501,82907,6
37503,82908,4
37502,82930,4
37510,82924,4
37506,82935,5
37509,82945,5
37516,82943,5
37512,82948,4
37510,82954,5
37518,82971,5
37522,82966,5
37528,82984,5
37536,82987,4
37537,83009,5
37535,83002,5
37540,83002,5
37538,83010,5
37547,83014,4
37536,83008,5
37529,83001,5
37532,82993,5
37531,82992,5
37532,82982,4
37524,82975,5
37522,82991,5
37529,82993,5
37529,83007,5
37538,83013,4
37538,83026,5
37549,83030,5
37553,83039,5
37558,83065,4
37562,83070,4
37567,83089,5
37572,83089,5
37574,83093,5
37579,83098,4
37569,83098,5
37583,83105,5
37576,83112,5
37589,83109,5
37577,83108,4
37581,83109,5
37582,83096,5
37581,83107,5
37572,83101,5
37579,83105,5
37582,83101,4
37571,83098,5
37573,83104,5
37573,83092,5
37567,83099,4
37574,83093,5
37571,83097,5
37580,83092,5
37567,83097,5
37577,83090,4
37569,83086,5
37571,83093,5
37566,83094,5
37569,83088,4
37565,83071,4
37552,83066,5
37554,83058,5
37559,83043,5
37530,83028,4
37545,83032,5
37547,83019,5
37540,83014,5
37529,83012,5
37531,83010,4
37522,82992,6
37522,82994,4
37518,82971,5
37518,82968,5
37508,82964,4
37510,82947,5
37508,82947,5
37508,82932,5
37496,82930,5
37489,82912,4
37505,82919,5
37488,82914,5
37497,82918,5
37488,82907,5
37493,82912,4
37491,82906,5
37491,82900,5
37489,82898,5
37484,82893,4
37482,82892,4
37492,82904,5
37490,82894,6
37494,82896,4
37493,82896,4
37492,82891,5
37492,82896,5
37486,82888,5
37498,82888,5
37492,82881,4
37482,82889,5
37480,82877,5
37488,82884,5
37485,82891,5
37481,82885,5
37488,82897,4
37496,82891,5
37495,82888,5
37487,82901,5
37491,82904,4
37490,82897,5
37498,82900,5
37498,82901,5
37501,82916,5
37499,82905,4
37496,82897,5
37496,82888,5
37489,82901,6
37499,82902,3
37486,82898,4
37490,82895,5
37487,82899,5
37491,82911,5
37496,82910,4
37504,82913,5
37498,82906,5
37495,82911,5
37502,82905,5
37496,82912,4
37493,82907,5
37501,82909,5
37494,82912,5
37503,82912,5
37494,82919,4
37498,82931,5
37500,82936,5
37497,82925,5
37505,82919,5
37498,82923,5
37493,82925,4
37498,82908,5
37489,82898,5
37502,82902,6
37499,82896,3
37499,82902,5
37489,82903,5
37495,82907,5
37494,82905,4
37501,82909,4
37500,82917,5
37501,82915,5
37499,82910,5
37505,82916,4
37506,82926,5
37503,82916,5
37503,82914,5
37497,82914,5
37499,82916,4
37504,82907,5
37501,82912,5
37499,82911,5
37487,82895,5
37484,82896,4
37488,82887,6
37489,82887,4
37495,82888,5
37491,82881,5
37488,82876,6
37487,82879,3
37488,82880,5
37487,82879,5
37489,82873,5
37496,82885,4
37495,82882,5
37498,82874,5
37488,82880,5
37489,82885,4
37492,82882,4
37496,82882,5
37495,82881,5
37497,82863,5
37482,82850,4
37467,82831,5
37460,82814,5
37462,82810,5
37452,82804,5
37450,82791,4
37448,82805,5
37458,82798,6
37457,82809,4
37451,82796,5
37458,82798,4
37460,82800,5
37454,82793,5
37451,82790,5
37447,82786,5
37439,82777,4
37440,82759,5
37433,82759,5
37436,82760,5
37442,82755,5
37438,82760,4
37438,82758,5
37451,82757,5
37438,82764,5
37435,82760,4
37431,82752,4
37433,82760,5
37435,82755,5
37428,82754,5
37432,82744,4
37442,82754,5
37432,82744,5
37431,82754,6
37431,82756,4
37436,82751,4
37431,82763,5
37432,82766,5
37447,82772,5
37446,82783,5
37451,82790,4
37444,82800,5
37465,82813,5
37457,82817,5
37462,82833,5
37469,82852,4
37481,82859,5
37492,82868,5
37490,82880,5
37493,82887,5
37502,82899,4
37513,82907,5
37504,82920,5
37517,82942,5
37513,82935,5
37534,82963,4
37531,82965,5
37532,82960,5
37533,82959,6
37539,82978,3
37538,82973,5
37529,82968,5
37536,82974,5
37540,82972,5
37544,82974,4
37551,82981,6
37553,82993,4
37551,83002,5
37553,83009,5
37563,83016,4
37561,83042,5
37575,83040,5
37569,83047,5
37569,83058,5
37577,83062,4
37573,83057,5
37585,83065,5
37574,83066,5
37593,83081,5
37591,83070,5
37584,83078,4
37588,83092,5
37593,83087,5
37594,83093,4
37591,83091,4
37599,83096,5
37598,83097,5
37594,83095,5
37594,83112,4
37606,83115,5
37598,83113,5
37596,83114,5
37604,83112,5
37604,83114,4
37609,83115,5
37600,83126,5
37604,83124,5
37600,83132,5
37605,83119,4
37616,83130,5
37608,83128,5
37612,83124,5
37603,83130,5
37610,83127,4
37619,83134,6
37606,83137,4
37617,83146,5
37619,83146,5
37615,83151,4
37626,83165,5
37622,83156,5
37623,83158,5
37629,83166,4
37622,83167,4
37629,83169,5
37623,83169,5
37624,83172,5
37631,83173,4
37633,83172,5
37634,83179,5
37630,83185,5
37634,83185,5
37637,83188,4
37641,83192,5
37635,83198,5
37643,83193,5
37632,83193,5
37635,83196,4
37644,83191,5
37635,83195,6
37644,83200,4
37636,83197,5
37644,83202,4
37640,83199,5
37651,83201,5
37640,83198,5
37644,83197,5
37640,83211,4
37646,83191,5
37646,83191,5
37651,83201,5
37649,83198,4
37642,83193,4
37639,83195,5
37639,83192,5
37639,83193,5
37644,83200,4
37641,83189,5
37645,83196,5
37648,83200,5
37647,83196,5
37650,83204,4
37653,83201,5
37644,83201,5
37647,83202,6
37651,83197,4
37653,83200,4
37648,83206,5
37648,83200,5
37643,83196,5
37645,83192,5
37639,83198,4
37638,83200,5
37645,83203,5
37649,83205,5
37639,83207,5
37651,83203,4
37640,83210,5
37659,83206,5
37650,83209,5
37658,83207,4
37647,83218,4
37647,83215,5
37641,83205,5
37650,83211,5
37644,83206,5
37651,83204,4
37642,83191,5
37645,83196,5
37639,83187,5
37638,83183,4
37627,83170,5
37630,83161,5
37623,83157,5
37631,83161,5
37623,83164,4
37620,83151,5
37623,83152,5
37625,83155,5
37624,83159,5
37631,83154,4
37629,83151,5
37621,83145,5
37614,83145,5
37612,83136,5
37621,83133,4
37610,83120,5
37604,83128,5
37609,83123,5
37605,83112,4
37610,83110,5
37608,83118,4
37612,83106,5
37601,83108,5
37607,83110,4
37606,83112,5
37608,83106,5
37594,83097,5
37594,83077,5
37588,83067,4
37582,83059,5
37576,83053,5
37572,83033,5
37571,83029,5
37567,83039,4
37569,83050,5
37575,83029,5
37566,83027,5
37559,83016,5
37560,83007,4
37559,83002,5
37552,82986,5
37550,82979,5
37531,82956,5
37540,82959,4
37541,82959,6
37535,82956,4
37532,82949,5
37531,82956,4
37520,82937,4
37518,82922,5
37509,82907,5
37507,82894,5
37505,82882,4
37491,82881,5
37491,82864,5
37494,82856,5
37490,82854,5
37484,82842,4
37483,82848,5
37478,82840,5
37489,82839,5
37472,82826,5
37474,82827,4
37476,82809,5
37465,82809,5
37463,82800,5
37457,82782,5
37459,82786,4
37449,82776,5
37452,82766,5
37439,82754,5
37440,82745,5
37436,82733,4
37427,82717,5
37420,82704,5
37419,82695,5
37414,82684,4
37397,82675,4
37401,82663,5
37396,82651,5
37397,82648,5
37395,82643,4
37389,82635,5
37391,82627,5
37374,82618,5
37374,82607,5
37375,82604,4
37376,82608,4
37365,82596,5
37377,82606,5
37365,82592,5
37370,82583,3
37370,82587,5
37363,82578,5
37358,82569,5
37353,82556,5
37341,82546,4
37335,82522,5
37328,82498,5
37328,82482,5
37313,82465,5
37305,82445,4
37296,82420,5
37284,82406,5
37290,82402,5
37279,82393,4
37276,82383,4
37268,82369,5
37267,82367,5
37266,82363,5
37264,82365,4
37270,82369,6
37263,82378,4
37276,82367,5
37265,82373,5
37261,82368,6
37254,82366,3
37253,82355,5
37264,82349,5
37255,82338,5
37245,82324,4
37242,82303,5
37235,82296,5
37226,82287,5
37225,82285,5
37227,82287,4
37235,82285,5
37217,82270,5
37209,82252,10
37198,82216,9
37181,82166,5
37165,82141,8
37139,82092,7
37126,82030,5
37102,82016,8
37102,82016,7
37117,82009,5
37093,81994,8
37105,81992,7
37085,81976,7
37082,81948,8
37082,81948,7
37060,81933,5
37061,81911,8
37050,81885,7
37033,81857,5
36991,81839,8
37012,81819,7
36994,81780,8
36994,81780,9
36988,81759,5
36994,81765,8
36983,81741,7
36982,81699,5
36971,81722,8
36971,81722,7
36965,81717,5
36967,81717,8
36966,81712,7
36960,81695,7
36928,81633,8
36928,81633,7
36929,81613,5
36924,81611,10
36921,81606,5
36913,81596,5
36903,81595,10
36902,81586,5
36910,81579,5
36874,81475,10
36863,81475,5
36856,81450,5
36857,81443,10
36838,81446,5
36831,81428,5
36860,81410,10
36821,81404,5
36802,81394,5
36774,81299,10
36774,81299,5
36776,81275,5
36776,81260,10
36764,81241,5
36748,81220,7
36732,81202,8
36732,81179,5
36686,81089,7
36686,81089,8
36677,81098,5
36679,81075,7
36670,81037,8
36657,81030,5
36657,81010,7
36591,80867,8
36591,80867,5
36580,80876,7
36577,80842,8
36568,80809,9
36556,80788,8
36556,80788,5
36547,80779,7
36559,80771,8
36549,80780,5
36540,80768,7
36517,80763,8
36532,80744,5
36486,80652,7
36486,80652,8
36488,80648,9
36494,80653,5
36474,80645,8
36488,80624,7
36487,80626,5
36452,80551,8
36452,80551,7
36452,80587,10
36447,80552,5
36438,80551,7
36426,80471,8
36426,80471,7
36398,80446,5
36404,80432,8
36387,80412,7
36386,80415,5
36368,80410,8
36381,80414,7
36369,80378,7
36369,80378,8
36361,80399,7
36359,80359,5
36358,80364,9
36361,80374,5
36361,80374,5
36365,80366,4
36375,80368,4
36365,80379,5
36369,80383,6
36368,80381,4
36378,80386,4
36368,80385,5
36366,80387,5
36367,80382,5
36377,80387,5
36376,80394,4
36373,80407,5
36370,80399,5
36379,80399,5
36383,80416,5
36381,80426,4
36392,80437,5
36408,80447,5
36396,80472,5
36415,80484,5
36429,80511,4
36429,80526,5
36444,80544,5
36445,80563,5
36453,80574,5
36454,80602,4
36474,80619,5
36482,80651,5
36492,80658,6
36504,80691,3
36517,80714,4
36535,80746,5
36544,80768,5
36554,80793,5
36559,80812,4
36571,80823,5
36565,80838,5
36582,80856,5
36573,80855,5
36580,80859,4
36583,80847,5
36582,80844,5
36573,80824,5
36564,80804,5
36559,80788,4
36547,80778,5
36542,80767,5
36543,80761,5
36544,80760,5
36540,80759,5
36541,80768,4
36538,80767,5
36543,80768,5
36545,80779,5
36551,80786,4
36551,80786,5
36556,80787,5
36553,80796,5
36553,80797,4
36557,80789,4
36555,80804,5
36564,80812,5
36556,80815,5
36562,80815,4
36556,80816,5
36563,80812,5
36561,80818,5
36565,80819,5
36564,80814,4
36568,80812,5
36570,80819,5
36562,80819,5
36570,80817,5
36572,80832,4
36569,80835,6
36577,80837,4
36580,80844,5
36577,80847,5
36584,80850,4
36587,80857,5
36578,80859,5
36578,80859,5
36585,80861,5
36593,80874,4
36594,80879,5
36598,80882,5
36593,80894,5
36598,80894,4
36591,80901,4
36603,80906,5
36595,80902,5
36604,80911,5
36606,80908,4
36606,80906,5
36602,80917,5
36607,80909,5
36613,80926,5
36601,80928,4
36613,80939,5
36622,80941,6
36622,80943,4
36627,80954,5
36623,80964,4
36639,80955,5
36632,80963,5
36626,80963,5
36630,80963,5
36622,80953,4
36629,80954,5
36621,80956,5
36618,80960,5
36631,80951,5
36632,80957,4
36628,80958,5
36631,80947,5
36631,80972,5
36629,80962,4
36631,80951,4
36630,80966,5
36635,80962,5
36632,80965,5
36633,80960,4
36631,80959,5
36625,80954,5
36626,80959,5
36623,80940,5
36611,80938,4
36619,80945,5
36625,80939,5
36618,80930,5
36613,80932,5
36619,80913,4
36612,80915,5
36614,80923,5
36619,80912,5
36614,80918,5
36607,80915,4
36614,80913,5
36622,80917,5
36613,80913,5
36614,80919,5
36615,80922,5
36616,80922,4
36623,80928,5
36618,80919,5
36623,80927,5
36629,80932,3
36617,80934,5
36625,80934,5
36621,80935,5
36619,80935,4
36620,80931,5
36623,80927,5
36618,80944,5
36623,80937,5
36631,80939,4
36625,80940,5
36631,80943,5
36635,80943,5
36627,80948,5
36639,80946,4
36638,80963,5
36639,80961,5
36641,80964,5
36655,80983,5
36647,80983,5
36649,80990,4
36649,80994,5
36655,80989,5
36655,80998,7
36655,81013,3
36644,81005,4
36654,81014,5
36664,81006,5
36663,81018,4
36657,80999,4
36655,81017,5
36655,80999,5
36663,81013,5
36656,81002,4
36658,81007,5
36658,81002,5
36664,81007,5
36661,81024,5
36659,81022,4
36670,81022,5
36667,81034,5
36671,81034,5
36671,81041,5
36678,81043,4
36685,81040,5
36673,81040,6
36671,81049,4
36688,81046,5
36679,81048,4
36685,81055,7
36683,81063,3
36684,81073,5
36694,81079,5
36696,81084,4
36692,81076,5
36688,81093,5
36697,81091,5
36701,81088,5
36698,81094,4
36705,81097,5
36705,81101,5
36703,81098,5
36705,81116,4
36711,81121,5
36714,81117,5
36723,81126,5
36725,81139,5
36723,81141,4
36727,81148,5
36723,81161,5
36732,81149,6
36730,81153,4
36729,81159,4
36725,81148,5
36725,81149,5
36728,81176,5
36733,81178,5
36743,81190,4
36752,81193,5
36758,81199,5
36758,81213,5
36764,81234,5
36765,81229,4
36775,81238,5
36776,81237,5
36774,81245,5
36772,81246,4
36766,81244,4
36775,81246,5
36779,81251,5
36779,81255,5
36787,81257,5
36788,81267,4
36789,81266,5
36791,81265,5
36779,81276,6
36786,81286,3
36785,81297,5
36785,81293,5
36798,81298,5
36799,81304,5
36798,81304,4
36799,81317,5
36803,81306,5
36809,81318,5
36811,81329,5
36804,81317,4
36815,81337,5
36810,81339,5
36817,81343,5
36823,81343,5
36830,81351,4
36830,81361,5
36825,81354,5
36827,81363,5
36837,81367,4
36828,81368,5
36829,81366,4
36831,81380,5
36836,81386,5
36838,81383,6
36830,81391,3
36843,81402,5
36843,81410,5
36846,81404,5
36842,81425,4
36862,81430,5
36859,81436,5
36863,81436,5
36861,81437,5
36868,81452,4
36866,81452,5
36870,81450,5
36878,81454,5
36871,81465,5
36878,81463,4
36880,81460,5
36888,81469,5
36881,81464,5
36883,81472,5
36883,81464,4
36887,81462,6
36881,81459,4
36880,81465,5
36884,81465,4
36883,81468,4
36880,81482,5
36888,81494,5
36894,81507,5
36901,81509,4
36900,81521,5
36898,81537,5
36913,81528,5
36917,81538,5
36910,81540,4
36918,81546,5
36912,81544,5
36914,81551,5
36922,81561,5
36924,81568,4
36920,81566,5
36923,81584,5
36940,81577,5
36927,81585,5
36929,81587,4
36931,81598,5
36934,81596,6
36939,81598,4
36946,81606,5
36941,81614,4
36952,81621,5
36959,81621,5
36956,81622,5
36961,81644,4
36955,81637,4
36967,81646,5
36954,81644,5
36959,81647,5
36952,81638,4
36959,81638,5
36960,81643,5
36960,81656,5
36967,81662,5
36972,81666,4
36974,81679,5
36976,81678,5
36978,81680,5
36987,81697,5
36993,81700,4
36991,81714,5
36989,81722,5
36988,81719,6
36996,81717,4
36992,81718,4
37005,81723,5
36998,81727,5
36994,81742,5
37008,81736,5
37000,81748,4
37010,81754,5
37003,81755,5
37010,81751,5
37013,81747,5
37002,81747,4
37007,81758,5
37007,81753,5
37019,81749,5
37016,81751,4
37006,81756,5
37014,81761,5
37009,81756,5
37017,81768,5
37013,81768,5
37022,81768,4
37022,81771,5
37024,81779,5
37018,81772,6
37021,81777,3
37024,81780,5
37023,81779,5
37026,81789,5
37020,81789,5
37029,81791,4
37028,81786,5
37030,81801,5
37035,81797,5
37031,81810,5
37038,81818,4
37045,81822,5
37043,81826,5
37046,81838,5
37057,81849,5
37057,81857,4
37063,81857,5
37064,81857,5
37054,81878,5
37068,81873,4
37072,81874,5
37072,81876,4
37077,81886,5
37076,81886,5
37074,81886,4
37076,81890,5
37075,81886,5
37074,81880,5
37074,81893,5
37081,81893,4
37072,81888,5
37067,81892,5
37068,81883,5
37071,81887,5
37068,81890,4
37068,81885,5
37073,81899,5
37083,81900,5
37082,81909,5
37085,81912,4
37092,81925,5
37091,81924,5
37092,81936,5
37093,81941,5
37096,81942,4
37091,81946,6
37103,81954,4
37109,81960,5
37109,81960,4
37095,81964,4
37105,81974,5
37116,81969,5
37116,81967,5
37107,81962,4
37109,81978,5
37115,81980,5
37111,81982,5
37127,81988,5
37127,81982,4
37120,81997,5
37122,82001,5
37134,82007,5
37128,82014,5
37129,82032,4
37146,82038,5
37141,82036,5
37148,82043,5
37143,82033,5
37142,82043,4
37149,82046,5
37148,82049,6
37153,82050,4
37153,82051,5
37165,82072,4
37153,82083,5
37160,82093,5
37174,82096,5
37168,82083,4
37169,82090,4
37168,82102,5
37179,82106,5
37179,82096,5
37177,82107,4
37181,82124,5
37190,82130,5
37187,82133,5
37187,82135,5
37186,82147,4
37200,82140,5
37197,82161,5
37202,82161,5
37196,82165,5
37194,82171,4
37202,82179,5
37207,82174,5
37211,82180,5
37206,82182,5
37214,82172,4
37216,82190,5
37202,82196,5
37219,82196,5
37218,82199,5
37213,82194,4
37223,82202,5
37223,82192,5
37218,82193,5
37216,82196,4
37223,82208,4
37222,82208,5
37219,82223,5
37223,82223,5
37221,82226,4
37224,82228,5
37229,82225,5
37234,82229,5
37233,82230,5
37226,82224,5
37236,82234,4
37236,82234,5
37234,82239,5
37242,82236,5
37230,82243,4
37239,82242,5
37241,82237,5
37245,82240,5
37241,82245,5
37247,82249,4
37242,82244,5
37242,82253,5
37244,82252,5
37253,82250,5
37247,82260,4
37248,82267,5
37249,82258,5
37254,82270,5
37253,82274,5
37258,82284,4
37258,82279,5
37257,82284,5
37257,82283,5
37252,82278,4
37259,82280,5
37245,82269,4
37251,82266,5
37259,82276,5
37248,82277,4
37245,82259,5
37244,82255,5
37239,82244,5
37239,82254,5
37251,82247,4
37246,82242,5
37239,82255,5
37239,82262,5
37248,82265,5
37250,82267,4
37250,82268,5
37246,82265,5
37247,82263,5
37246,82263,5
37242,82260,4
37248,82262,5
37251,82263,5
37246,82259,5
37242,82265,5
37245,82259,4
37243,82261,6
37255,82253,4
37241,82251,5
37241,82249,4
37231,82248,4
37236,82241,5
37235,82240,5
37234,82234,5
37229,82228,4
37225,82222,5
37229,82215,5
37226,82212,5
37229,82209,5
37223,82211,4
37229,82208,5
37216,82204,5
37213,82194,5
37212,82189,5
37212,82178,4
37213,82171,5
37194,82160,5
37200,82154,5
37198,82156,4
37197,82150,4
37185,82150,5
37196,82157,5
37204,82163,5
37197,82146,5
37201,82146,4
37189,82147,5
37202,82147,5
37197,82139,5
37195,82140,4
37189,82139,4
37185,82135,5
37191,82125,5
37194,82127,5
37179,82131,4
37187,82120,5
37184,82124,5
37190,82122,5
37181,82129,5
37191,82118,5
37180,82122,4
37181,82118,5
37189,82107,5
37165,82104,6
37171,82104,3
37170,82096,5
37168,82092,5
37167,82101,5
37163,82078,5
37166,82078,4
37167,82083,5
37175,82076,5
37159,82081,5
37161,82067,5
37167,82080,4
37167,82073,5
37169,82072,5
37163,82071,5
37167,82070,4
37158,82067,4
37155,82068,5
37158,82072,5
37157,82064,5
37168,82060,4
37161,82058,6
37151,82070,4
37167,82068,5
37153,82069,5
37155,82057,6
37158,82051,3
37153,82065,5
37154,82052,5
37151,82048,5
37152,82041,4
37148,82039,5
37143,82040,5
37140,82029,5
37145,82030,5
37141,82026,4
37144,82037,5
37145,82027,5
37146,82032,5
37140,82027,5
37140,82038,4
37133,82031,5
37135,82030,5
37146,82029,5
37141,82022,4
37141,82029,4
37137,82028,6
37138,82027,4
37142,82030,5
37130,82022,4
37139,82013,7
37135,82014,3
37129,82005,5
37130,82006,5
37122,81998,4
37122,81995,5
37129,81984,5
37124,81981,5
37120,81973,5
37124,81993,4
37116,81994,5
37118,81996,5
37135,82006,5
37129,82006,5
37124,82001,4
37133,82004,5
37127,82003,5
37127,81997,5
37125,82009,5
37122,81998,4
37121,82000,5
37127,82002,6
37127,81995,4
37123,81987,5
37131,81995,4
37124,81983,5
37120,81993,5
37116,81980,5
37126,81990,4
37118,81988,5
37122,81979,5
37119,81983,5
37116,81978,5
37119,81987,4
37123,81985,5
37116,81987,5
37116,81987,5
37122,81989,5
37119,81996,4
37124,81984,5
37121,81968,5
37123,81966,5
37114,81972,5
37117,81960,4
37109,81957,5
37111,81958,5
37111,81963,6
37115,81961,4
37111,81969,4
37112,81962,5
37104,81959,5
37105,81960,5
37103,81954,5
37106,81953,4
37105,81949,5
37101,81951,5
37102,81957,5
37108,81972,4
37102,81963,4
37099,81958,5
37107,81959,5
37106,81957,5
37109,81953,4
37101,81963,5
37105,81949,5
37105,81947,5
37095,81952,5
37104,81950,5
37106,81951,4
37089,81942,5
37092,81951,5
37097,81929,6
37099,81940,3
37094,81940,5
37091,81933,5
37101,81934,5
37098,81940,5
37102,81942,4
37093,81927,5
37090,81932,5
37098,81930,5
37100,81936,5
37093,81931,4
37090,81934,5
37092,81932,5
37097,81928,5
37095,81930,4
37099,81929,4
37092,81924,5
37088,81919,5
37093,81915,5
37095,81914,4
37090,81910,6
37090,81908,4
37092,81917,5
37081,81910,5
37075,81909,4
37079,81904,5
37078,81899,5
37080,81897,5
37089,81907,5
37078,81896,4
37078,81897,5
37083,81899,5
37088,81894,5
37080,81890,5
37069,81897,4
37067,81889,5
37078,81890,5
37068,81893,5
37074,81889,5
37079,81894,4
37067,81889,5
37077,81899,12
37072,81882,7
37058,81868,5
37071,81883,10
37081,81927,5
37063,81875,7
37063,81875,8
37062,81873,5
37059,81871,7
37065,81873,8
37063,81867,5
37097,81867,7
37063,81875,8
37063,81875,5
37065,81861,7
37070,81866,8
37061,81859,5
37050,81838,7
37054,81843,8
37021,81833,5
37039,81824,7
37026,81801,8
37026,81801,9
37035,81793,5
37037,81809,8
37032,81792,7
37040,81773,2
37043,81814,2
37064,81815,5
37039,81822,5
37038,81814,4
37046,81823,5
37045,81818,5
37046,81823,5
37043,81826,5
37051,81813,4
37040,81819,5
37036,81811,5
37039,81813,5
37045,81810,5
37035,81813,4
37033,81818,5
37033,81808,5
37037,81813,6
37041,81820,4
37038,81809,4
37030,81807,5
37032,81804,5
37036,81814,5
37040,81816,5
37033,81818,4
