RED,IR,EKG,TIME
29578,54753,9
29574,54766,5
29569,54792,5
29577,54770,10
29568,54775,5
29569,54760,5
29571,54760,10
29579,54758,5
29553,54815,5
29573,54761,10
29573,54761,5
29567,54751,5
29571,54762,10
29572,54773,5
29565,54759,5
29573,54752,10
29573,54752,5
29535,54746,5
29555,54765,10
29566,54760,5
29566,54761,5
29573,54754,10
29563,54725,5
29564,54749,7
29564,54749,8
29563,54762,5
29576,54763,7
29577,54767,8
29574,54750,5
29555,54757,7
29571,54763,8
29571,54763,5
29579,54761,7
29591,54761,8
29568,54767,5
29565,54760,7
29559,54758,8
29581,54755,5
29570,54761,7
29570,54761,8
29576,54763,9
29574,54754,8
29578,54764,5
29574,54759,7
29571,54776,8
29571,54776,5
29573,54795,7
29571,54795,8
29561,54767,5
29569,54770,7
29579,54761,8
29584,54773,5
29584,54783,7
29584,54783,8
29570,54782,7
29567,54775,5
29586,54786,8
29585,54806,7
29585,54808,5
29588,54792,8
29588,54792,7
29558,54790,11
29586,54790,7
29585,54796,5
29596,54808,8
29596,54808,7
29620,54811,5
29597,54806,8
29583,54816,7
29602,54814,5
29572,54808,8
29598,54808,7
29598,54808,5
29598,54827,8
29599,54807,7
29541,54813,5
29599,54809,8
29627,54823,3
29627,54819,0
29614,54821,5
29598,54819,4
29605,54816,5
29597,54824,5
29651,54814,5
29603,54814,4
29599,54820,4
29603,54820,5
29654,54820,5
29601,54819,5
29606,54825,4
29599,54822,5
29623,54819,5
29601,54826,5
29606,54828,5
29602,54823,4
29604,54811,5
29609,54833,5
29618,54833,5
29609,54842,5
29614,54807,4
29617,54840,5
29621,54845,6
29618,54844,4
29612,54803,5
29621,54865,4
29623,54856,5
29619,54866,5
29629,54850,5
29621,54854,5
29621,54860,4
29622,54863,5
29623,54904,5
29622,54860,5
29612,54871,4
29622,54865,4
29630,54924,5
29618,54863,5
29622,54859,5
29627,54857,4
29621,54889,5
29624,54865,5
29624,54866,5
29625,54877,5
29628,54884,4
29624,54882,5
29637,54885,5
29640,54883,6
29643,54894,4
29643,54878,4
29635,54886,5
29635,54887,5
29635,54878,5
29637,54882,5
29636,54889,4
29644,54883,5
29641,54898,5
29639,54890,5
29642,54893,4
29632,54886,4
29640,54893,5
29641,54882,5
29643,54896,5
29638,54892,4
29640,54882,5
29631,54888,5
29640,54885,5
29642,54894,5
29640,54889,5
29645,54891,4
29634,54882,5
29637,54886,5
29643,54894,6
29634,54891,3
29637,54891,5
29637,54894,5
29636,54897,5
29637,54892,5
29637,54897,4
29645,54898,5
29639,54887,5
29635,54891,5
29641,54903,5
29640,54894,4
29648,54895,5
29643,54897,5
29642,54901,5
29643,54900,4
29645,54898,4
29637,54896,5
29635,54902,5
29647,54903,5
29635,54904,4
29652,54890,6
29650,54896,4
29643,54891,5
29651,54898,5
29651,54906,4
29641,54896,5
29648,54903,5
29637,54904,5
29645,54900,5
29651,54897,4
29644,54911,5
29640,54900,5
29647,54900,5
29645,54900,5
29640,54902,4
29653,54910,5
29656,54902,5
29638,54909,5
29642,54907,5
29655,54900,4
29647,54903,5
29641,54909,5
29650,54915,5
29645,54913,4
29638,54913,5
29649,54906,6
29644,54912,4
29654,54903,5
29644,54915,4
29652,54918,5
29651,54917,5
29653,54915,5
29622,54920,5
29654,54918,4
29648,54915,5
29643,54915,5
29608,54920,5
29658,54921,5
29653,54917,4
29653,54910,5
29606,54916,5
29656,54924,5
29667,54920,5
29645,54917,4
29668,54921,5
29653,54919,5
29657,54912,5
29653,54921,4
29703,54918,4
29646,54910,5
29654,54910,6
29651,54920,4
29701,54924,4
29652,54918,6
29655,54926,4
29661,54918,5
29671,54920,5
29657,54917,4
29647,54918,5
29658,54913,5
29657,54903,5
29643,54910,5
29647,54917,4
29641,54908,5
29644,54872,5
29651,54910,5
29647,54908,5
29643,54906,4
29649,54864,5
29643,54916,5
29646,54911,5
29642,54910,5
29642,54903,4
29650,54903,5
29652,54909,5
29648,54907,5
29650,54946,4
29645,54904,4
29644,54910,5
29642,54914,5
29645,54958,5
29647,54911,4
29649,54907,5
29644,54910,5
29652,54934,5
29645,54910,5
29653,54902,4
29643,54897,5
29647,54907,5
29650,54912,5
29643,54911,5
29642,54905,4
29641,54906,5
29646,54900,5
29641,54904,5
29646,54899,5
29647,54905,5
29638,54907,4
29633,54905,5
29640,54906,5
29642,54903,5
29643,54901,4
29651,54900,5
29641,54900,5
29645,54898,5
29647,54905,4
29640,54902,5
29645,54889,5
29639,54910,5
29638,54908,5
29648,54903,4
29637,54913,5
29647,54912,5
29639,54905,5
29648,54906,5
29643,54901,4
29642,54909,5
29647,54900,5
29639,54905,5
29641,54896,5
29642,54903,4
29641,54904,6
29641,54909,4
29644,54909,5
29652,54910,5
29648,54909,4
29655,54913,5
29643,54912,5
29640,54908,5
29645,54902,4
29644,54902,4
29641,54906,5
29649,54907,5
29654,54910,5
29658,54922,4
29647,54917,5
29651,54917,5
29653,54907,5
29652,54914,5
29654,54909,4
29647,54912,5
29649,54910,5
29641,54904,5
29645,54905,5
29636,54912,4
29636,54896,5
29640,54912,5
29649,54902,5
29644,54898,5
29652,54907,4
29646,54898,5
29649,54906,5
29649,54908,5
29641,54903,5
29640,54910,4
29649,54904,5
29650,54902,5
29642,54913,5
29654,54912,4
29647,54907,4
29644,54914,5
29649,54907,5
29647,54907,5
29658,54913,5
29650,54913,4
29644,54912,5
29645,54911,5
29650,54905,6
29651,54912,3
29630,54920,5
29648,54909,5
29647,54907,5
29650,54912,5
29602,54905,4
29638,54905,5
29652,54905,5
29645,54906,5
29586,54903,5
29647,54900,4
29643,54904,5
29645,54911,5
29657,54900,5
29650,54908,5
29648,54906,4
29648,54915,5
29695,54908,5
29645,54906,5
29651,54910,4
29645,54907,6
29699,54907,4
29642,54908,5
29645,54917,5
29647,54912,6
29668,54914,3
29654,54916,5
29653,54915,5
29657,54916,5
29646,54904,4
29649,54921,5
29649,54921,5
29653,54919,5
29649,54876,5
29650,54921,4
29655,54913,5
29649,54914,5
29643,54875,5
29654,54921,5
29653,54924,5
29651,54915,4
29654,54902,5
29649,54935,5
29655,54915,4
29652,54914,4
29647,54958,6
29651,54919,4
29667,54927,5
29649,54920,4
29650,54981,7
29654,54924,3
29655,54918,5
29658,54926,5
29660,54958,4
29649,54925,5
29650,54920,5
29655,54922,5
29648,54937,5
29650,54921,4
29649,54920,5
29658,54910,5
29648,54914,5
29651,54913,5
29656,54922,4
29652,54918,5
29654,54915,5
29648,54914,5
29643,54921,5
29645,54912,4
29655,54912,5
29644,54923,6
29656,54926,4
29652,54917,4
29654,54909,4
29651,54913,5
29654,54924,5
29655,54919,5
29647,54908,4
29654,54907,5
29651,54913,5
29645,54901,5
29649,54908,5
29655,54920,4
29650,54912,5
29647,54923,5
29653,54906,5
29647,54910,5
29647,54916,4
29647,54910,5
29647,54910,5
29648,54911,5
29648,54916,5
29643,54922,4
29652,54910,5
29645,54908,5
29653,54906,6
29637,54908,4
29648,54910,4
29649,54915,5
29646,54907,5
29651,54906,5
29650,54915,4
29650,54911,5
29646,54919,5
29647,54910,5
29645,54914,5
29646,54911,4
29642,54916,5
29641,54915,5
29646,54912,5
29652,54918,5
29657,54919,4
29656,54915,5
29651,54919,5
29652,54914,5
29650,54915,5
29654,54922,5
29656,54915,4
29657,54925,5
29657,54917,5
29644,54923,6
29653,54924,3
29647,54920,5
29649,54918,5
29659,54919,5
29646,54916,4
29660,54919,4
29655,54915,5
29658,54921,5
29651,54924,5
29649,54920,4
29649,54922,5
29654,54919,5
29649,54913,5
29650,54918,5
29649,54918,4
29658,54913,5
29647,54917,5
29631,54913,5
29646,54910,5
29656,54916,4
29650,54915,6
29615,54919,4
29655,54919,5
29656,54919,5
29655,54915,4
29609,54920,5
29657,54914,5
29648,54922,5
29650,54910,5
29652,54921,4
29648,54922,5
29656,54919,5
29653,54923,5
29696,54926,4
29657,54920,4
29655,54926,5
29665,54924,5
29711,54937,5
29652,54919,4
29655,54925,5
29655,54921,5
29674,54927,5
29655,54928,5
29666,54931,4
29655,54938,5
29664,54933,6
29655,54924,4
29656,54933,5
29665,54942,4
29662,54904,5
29671,54938,5
29654,54932,5
29661,54940,5
29655,54892,4
29671,54942,5
29659,54933,5
29664,54937,5
29660,54901,4
29662,54928,4
29655,54922,5
29669,54928,5
29657,54956,5
29657,54923,4
29653,54924,5
29650,54929,5
29662,54988,5
29654,54931,5
29659,54927,4
29650,54928,5
29655,54959,5
29658,54920,6
29656,54927,4
29658,54931,4
29668,54932,5
29655,54928,5
29659,54935,5
29664,54936,5
29660,54932,4
29660,54936,5
29657,54938,5
29658,54935,5
29662,54927,5
29664,54927,4
29664,54935,5
29654,54931,5
29670,54934,5
29664,54931,4
29659,54923,4
29662,54928,5
29653,54926,5
29657,54926,5
29655,54928,5
29655,54916,4
29656,54921,5
29655,54927,5
29654,54927,5
29652,54909,4
29657,54911,5
29649,54922,5
29649,54916,5
29654,54922,5
29655,54919,4
29654,54924,5
29654,54914,5
29647,54915,5
29648,54925,5
29647,54926,4
29651,54914,5
29652,54917,5
29652,54915,5
29649,54926,5
29652,54923,4
29658,54920,5
29651,54924,5
29655,54917,5
29656,54921,4
29648,54921,6
29659,54926,4
29653,54932,5
29657,54923,5
29655,54924,4
29659,54929,5
29655,54923,5
29660,54927,5
29658,54923,5
29662,54934,4
29659,54924,5
29654,54923,5
29658,54931,5
29658,54930,5
29670,54928,4
29655,54919,5
29661,54927,5
29657,54924,5
29661,54932,5
29664,54931,4
29657,54925,5
29655,54924,5
29655,54931,5
29658,54927,4
29660,54926,4
29651,54927,6
29663,54926,4
29658,54922,5
29658,54924,4
29661,54930,5
29659,54931,5
29653,54928,5
29650,54933,5
29657,54922,4
29654,54935,5
29655,54935,5
29655,54929,5
29658,54931,5
29643,54936,4
29661,54931,5
29663,54923,5
29666,54934,5
29616,54938,5
29659,54917,4
29662,54933,5
29659,54928,5
29607,54920,5
29655,54918,5
29651,54923,4
29657,54918,5
29650,54924,5
29658,54922,5
29650,54920,4
29651,54920,5
29691,54920,5
29648,54915,5
29654,54925,5
29652,54924,4
29703,54919,5
29657,54931,5
29656,54922,5
29655,54928,5
29677,54924,4
29661,54926,5
29661,54920,5
29653,54930,8
29664,54919,2
29651,54923,4
29654,54937,5
29649,54920,5
29651,54880,5
29650,54922,5
29645,54920,4
29656,54917,5
29656,54869,5
29654,54917,5
29654,54924,5
29656,54919,4
29649,54899,5
29654,54921,5
29660,54927,5
29664,54927,4
29653,54961,5
29653,54914,5
29654,54927,5
29660,54921,5
29652,54974,4
29658,54919,5
29650,54922,5
29650,54921,5
29645,54945,5
29650,54916,4
29652,54912,5
29645,54917,5
29647,54915,5
29645,54916,5
29647,54921,6
29646,54915,3
29648,54913,5
29649,54915,5
29650,54915,5
29650,54910,4
29650,54918,5
29656,54913,5
29646,54905,5
29649,54911,4
29656,54923,4
29651,54910,5
29650,54913,5
29658,54912,5
29643,54913,4
29650,54909,5
29647,54912,5
29654,54910,5
29644,54905,5
29648,54897,4
29639,54908,5
29642,54912,6
29643,54905,4
29641,54908,5
29647,54901,4
29648,54910,7
29645,54911,3
29650,54905,5
29653,54899,5
29644,54897,4
29646,54909,5
29639,54898,5
29645,54897,5
29644,54906,4
29642,54891,4
29641,54895,5
29646,54898,5
29648,54896,5
29647,54898,4
29638,54893,5
29640,54901,5
29635,54892,5
29639,54907,5
29642,54898,4
29654,54907,5
29650,54912,5
29644,54905,6
29643,54901,4
29647,54908,4
29650,54902,5
29644,54908,5
29644,54906,5
29640,54892,5
29640,54899,4
29636,54896,5
29642,54890,5
29635,54880,5
29636,54884,5
29628,54885,4
29632,54889,5
29635,54881,5
29636,54879,5
29633,54877,4
29641,54879,5
29634,54883,5
29637,54877,5
29631,54878,5
29634,54885,5
29633,54884,4
29638,54875,5
29636,54884,5
29633,54879,6
29628,54888,3
29636,54889,5
29625,54878,5
29626,54884,5
29624,54869,5
29631,54882,4
29622,54865,5
29609,54876,5
29633,54871,5
29622,54871,5
29627,54878,4
29582,54870,5
29628,54863,5
29623,54871,5
29624,54857,4
29568,54866,4
29617,54861,5
29620,54853,5
29620,54851,5
29622,54849,4
29613,54851,6
29623,54861,4
29622,54860,5
29661,54860,5
29614,54856,6
29628,54849,3
29616,54848,5
29667,54844,5
29618,54847,5
29616,54839,4
29612,54838,5
29632,54851,5
29616,54838,5
29611,54837,5
29611,54849,4
29623,54837,5
29616,54845,5
29611,54840,5
29612,54842,5
29615,54816,4
29616,54849,5
29606,54846,5
29604,54842,5
29614,54786,4
29613,54840,5
29607,54837,6
29617,54838,4
29607,54815,5
29612,54834,4
29605,54847,5
29606,54824,5
29604,54862,5
29600,54834,5
29599,54832,4
29607,54824,5
29605,54878,5
29600,54829,5
29602,54828,5
29600,54824,4
29604,54861,5
29602,54830,5
29610,54823,5
29599,54825,5
29605,54829,4
29594,54817,5
29607,54824,5
29608,54830,5
29610,54830,4
29601,54823,4
29606,54832,5
29597,54822,6
29600,54821,4
29605,54832,4
29602,54823,5
29605,54813,5
29591,54818,5
29592,54810,5
29598,54803,4
29588,54807,5
29594,54806,5
29583,54789,5
29591,54800,5
29585,54803,4
29594,54796,5
29589,54789,5
29587,54798,5
29582,54787,5
29589,54796,4
29586,54791,5
29586,54797,5
29583,54787,5
29581,54792,5
29583,54784,4
29591,54785,5
29585,54787,5
29574,54794,6
29586,54786,3
29574,54795,4
29587,54789,5
29580,54792,5
29584,54788,5
29580,54784,4
29590,54793,5
29582,54778,5
29575,54777,5
29582,54781,5
29579,54774,4
29577,54784,5
29579,54781,5
29576,54778,5
29575,54791,5
29574,54777,4
29570,54777,5
29583,54776,5
29575,54778,5
29583,54771,5
29575,54772,5
29577,54772,4
29586,54775,5
29581,54782,5
29572,54788,4
29580,54776,4
29574,54776,5
29574,54790,5
29570,54789,5
29573,54778,4
29578,54779,5
29580,54781,5
29575,54776,5
29581,54776,5
29576,54777,4
29577,54782,5
29581,54792,5
29579,54776,5
29582,54778,5
29575,54772,4
29575,54788,5
29573,54786,5
29575,54773,5
29576,54779,5
29576,54775,4
29574,54777,6
29571,54771,4
29581,54776,5
29558,54779,5
29579,54773,4
29583,54777,5
29580,54778,5
29535,54785,5
29577,54776,4
29580,54783,4
29583,54791,5
29534,54781,5
29576,54790,5
29572,54775,4
29576,54787,5
29596,54784,5
29580,54790,5
29579,54787,5
29581,54785,4
29631,54787,5
29580,54785,5
29577,54782,5
29582,54792,5
29633,54781,4
29583,54785,5
29587,54785,6
29580,54779,4
29592,54779,5
29574,54772,4
29572,54775,5
29577,54775,5
29582,54764,5
29578,54772,5
29585,54773,4
29578,54774,5
29570,54741,5
29569,54776,5
29576,54773,5
29575,54773,4
29570,54732,5
29575,54775,5
29576,54777,5
29578,54782,4
29569,54766,5
29573,54780,5
29581,54781,5
29576,54781,5
29584,54824,4
29577,54785,5
29583,54783,5
29584,54781,5
29582,54843,5
29580,54785,4
29581,54789,5
29585,54790,5
29581,54818,5
29579,54798,5
29587,54799,4
29585,54804,5
29593,54805,5
29588,54799,5
29589,54808,4
29595,54811,4
29594,54814,5
29593,54816,5
29603,54810,5
29601,54815,4
29590,54828,5
29595,54828,5
29606,54830,5
29608,54831,5
29604,54826,5
29614,54834,4
29610,54838,5
29605,54841,5
29610,54848,5
29612,54850,4
29608,54847,5
29608,54847,5
29621,54859,5
29620,54859,5
29624,54856,4
29625,54857,5
29622,54863,5
29627,54858,5
29631,54881,5
29628,54876,4
29628,54877,5
29627,54875,5
29631,54878,5
29631,54884,4
29629,54883,4
29637,54877,5
29632,54884,5
29629,54888,5
29635,54882,4
29626,54889,6
29636,54887,4
29630,54891,5
29646,54900,5
29641,54895,4
29654,54902,5
29640,54894,5
29646,54905,5
29647,54906,5
29646,54911,4
29643,54915,5
29644,54899,5
29644,54902,5
29646,54910,5
29641,54904,4
29640,54910,5
29643,54909,5
29650,54907,5
29648,54910,4
29655,54917,4
29652,54921,5
29652,54920,5
29650,54919,5
29657,54918,4
29648,54924,5
29651,54927,6
29657,54927,4
29657,54921,5
29654,54917,4
29647,54917,5
29649,54911,5
29648,54920,5
29648,54913,5
29643,54919,4
29649,54911,5
29653,54918,5
29650,54911,5
29647,54913,5
29644,54918,4
29648,54908,5
29645,54906,5
29651,54915,5
29648,54908,5
29646,54911,4
29634,54909,5
29648,54907,5
29651,54907,5
29636,54919,4
29605,54907,4
29650,54904,5
29650,54907,5
29654,54916,5
29596,54905,4
29644,54918,5
29644,54908,5
29639,54918,5
29660,54926,5
29653,54922,4
29654,54912,5
29644,54911,5
29694,54924,5
29652,54918,5
29651,54911,4
29649,54914,5
29696,54908,5
29643,54920,5
29651,54909,5
29654,54923,5
29658,54917,4
29657,54910,5
29652,54925,5
29655,54912,6
29652,54913,3
29647,54920,5
29653,54921,5
29658,54922,5
29646,54884,4
29654,54923,5
29644,54926,6
29653,54922,4
29654,54877,5
29650,54921,4
29660,54921,5
29648,54923,5
29658,54905,5
29653,54922,5
29654,54937,4
29648,54927,5
29660,54965,5
29653,54927,5
29655,54926,5
29658,54930,4
29657,54983,6
29658,54923,4
29654,54929,5
29657,54929,5
29657,54966,6
29654,54933,3
29662,54929,5
29651,54924,5
29655,54940,4
29658,54923,4
29654,54925,5
29659,54929,5
29659,54930,5
29658,54928,4
29658,54930,5
29652,54939,5
29659,54928,5
29657,54933,5
29652,54929,4
29652,54922,5
29654,54926,5
29659,54929,5
29661,54922,5
29654,54927,4
29653,54927,5
29649,54931,6
29659,54926,4
29652,54920,5
29660,54927,4
29666,54924,5
29657,54922,5
29658,54928,5
29652,54928,5
29662,54920,4
29664,54925,5
29654,54926,5
29655,54932,5
29659,54930,4
29649,54927,5
29654,54923,5
29653,54923,5
29653,54928,5
29662,54923,4
29646,54913,5
29652,54922,5
29654,54920,5
29650,54918,5
29652,54929,4
29652,54919,5
29656,54922,5
29656,54923,6
29660,54918,4
29651,54918,4
29644,54923,5
29653,54920,5
29653,54924,5
29658,54930,5
29656,54915,4
29659,54924,5
29652,54925,5
29657,54922,5
29652,54928,4
29652,54926,4
29663,54932,5
29657,54932,5
29658,54924,5
29654,54925,4
29654,54932,5
29650,54931,5
29648,54924,5
29656,54930,5
29656,54922,5
29657,54928,4
29648,54924,5
29656,54930,5
29660,54925,6
29654,54925,3
29651,54915,5
29656,54915,5
29645,54920,5
29650,54919,5
29657,54917,4
29640,54921,5
29654,54913,5
29645,54924,5
29655,54921,5
29649,54924,4
29650,54921,5
29652,54927,5
29627,54927,5
29659,54917,4
29652,54921,4
29654,54917,5
29615,54927,5
29649,54924,5
29649,54915,4
29651,54923,6
29611,54923,4
29655,54921,5
29655,54932,5
29656,54928,4
29665,54930,5
29656,54930,5
29651,54935,5
29657,54925,5
29703,54925,4
29659,54919,5
29665,54922,5
29654,54929,5
29712,54940,5
29659,54946,4
29658,54935,5
29656,54929,5
29682,54924,5
29658,54929,4
29655,54924,4
29656,54928,5
29658,54917,5
29657,54925,5
29660,54922,4
29644,54921,5
29651,54885,6
29656,54928,4
29656,54923,5
29658,54922,4
29659,54871,5
29645,54928,5
29653,54919,5
29651,54924,5
29650,54896,4
29655,54919,5
29648,54915,5
29654,54917,5
29647,54951,5
29651,54910,4
29648,54921,5
29647,54916,5
29651,54966,5
29651,54916,5
29652,54922,4
29652,54913,5
29642,54952,5
29644,54907,5
29646,54910,4
29643,54911,4
29639,54912,5
29641,54907,6
29654,54909,4
29643,54912,4
29636,54903,5
29636,54908,5
29648,54909,5
29645,54913,5
29651,54909,4
29653,54917,5
29649,54910,5
29649,54905,5
29655,54911,5
29652,54912,4
29647,54905,5
29649,54911,5
29646,54910,5
29646,54919,5
29652,54908,4
29654,54918,5
29656,54905,5
29652,54914,5
29653,54916,5
29643,54915,4
29650,54908,5
29651,54915,5
29647,54911,6
29641,54909,3
29653,54913,5
29650,54917,5
29650,54913,5
29647,54917,5
29658,54914,4
29653,54911,5
29647,54913,5
29653,54913,5
29644,54918,5
29650,54924,4
29660,54920,5
29659,54920,5
29646,54918,5
29654,54917,5
29655,54922,4
29650,54923,5
29654,54921,5
29655,54915,5
29655,54914,5
29646,54918,5
29651,54920,4
29660,54915,5
29658,54920,5
29645,54923,4
29661,54923,4
29646,54917,5
29650,54925,5
29648,54912,5
29651,54918,4
29653,54918,5
29653,54916,5
29645,54913,5
29652,54918,5
29651,54914,4
29647,54914,5
29656,54916,5
29646,54910,5
29652,54916,5
29642,54911,4
29642,54914,5
29651,54918,5
29648,54911,5
29653,54914,5
29655,54924,4
29652,54919,6
29645,54908,4
29636,54914,5
29645,54915,4
29644,54919,4
29650,54914,5
29652,54910,5
29643,54914,5
29652,54912,4
29616,54913,5
29649,54907,5
29650,54911,5
29651,54911,5
29603,54913,4
29649,54907,5
29649,54915,5
29649,54911,5
29605,54917,5
29648,54920,4
29646,54920,5
29654,54912,5
29672,54917,5
29647,54915,5
29651,54930,4
29657,54911,5
29703,54922,6
29653,54921,4
29661,54922,5
29645,54929,4
29696,54918,5
29654,54926,5
29655,54920,5
29658,54915,4
29666,54915,4
29650,54914,5
29653,54909,5
29648,54909,5
29654,54893,4
29645,54899,5
29638,54902,5
29651,54908,5
29649,54871,5
29643,54904,4
29648,54906,5
29650,54907,5
29647,54857,5
29654,54903,5
29647,54898,5
29646,54900,4
29649,54916,5
29651,54915,5
29643,54913,5
29640,54905,4
29648,54959,5
29646,54913,5
29637,54919,5
29648,54904,4
29646,54965,4
29651,54913,5
29637,54898,5
29645,54898,5
29647,54927,4
29636,54900,5
29642,54902,5
29641,54897,5
29642,54893,5
29648,54891,4
29644,54901,5
29643,54897,5
29628,54892,5
29641,54899,5
29642,54899,6
29636,54903,3
29631,54898,5
29641,54888,5
29644,54897,5
29637,54893,4
29641,54893,5
29636,54893,5
29638,54902,5
29642,54890,5
29643,54898,4
29634,54896,5
29634,54899,5
29642,54897,5
29641,54898,4
29639,54886,4
29637,54896,5
29642,54891,5
29626,54894,5
29637,54896,4
29640,54888,5
29632,54895,5
29633,54889,4
29641,54885,5
29633,54894,4
29646,54886,6
29628,54886,3
29635,54890,5
29642,54890,5
29634,54897,4
29636,54896,5
29633,54897,5
29634,54892,5
29639,54887,5
29642,54893,4
29648,54883,5
29635,54885,5
29635,54892,5
29639,54893,4
29638,54885,4
29639,54884,5
29637,54887,5
29635,54892,5
29637,54891,4
29635,54874,5
29631,54885,5
29634,54874,6
29637,54888,4
29638,54889,4
29626,54883,5
29635,54879,5
29637,54881,5
29629,54883,5
29633,54886,4
29630,54884,5
29622,54882,5
29630,54880,5
29630,54885,5
29629,54881,4
29639,54881,5
29635,54880,5
29628,54879,5
29638,54878,5
29628,54884,4
29628,54875,5
29631,54880,5
29634,54882,5
29631,54884,5
29627,54882,4
29623,54878,5
29635,54882,5
29628,54880,6
29635,54874,3
29622,54873,5
29623,54876,5
29593,54877,5
29622,54870,5
29624,54861,4
29626,54865,5
29576,54867,5
29615,54864,5
29627,54862,5
29623,54870,4
29583,54858,5
29622,54862,5
29624,54865,5
29622,54866,5
29650,54867,4
29629,54864,5
29627,54863,5
29617,54863,5
29665,54867,5
29623,54857,5
29622,54859,4
29620,54855,5
29664,54856,5
29614,54856,6
29623,54859,3
29617,54860,5
29643,54860,5
29624,54865,5
29617,54854,4
29616,54856,5
29619,54842,5
29615,54862,5
29621,54856,5
29619,54862,4
29625,54824,5
29620,54872,5
29616,54853,5
29617,54857,5
29609,54805,4
29623,54852,5
29625,54856,5
29626,54856,5
29619,54853,8
29624,54857,1
29619,54861,6
29618,54849,4
29618,54897,5
29622,54859,4
29618,54857,4
29612,54858,5
29611,54911,5
29626,54855,5
29618,54858,4
29615,54848,5
29618,54887,5
29620,54856,5
29622,54856,5
29623,54861,4
29621,54866,5
29624,54856,5
29614,54860,5
29615,54861,5
29613,54861,4
29620,54852,5
29621,54853,5
29613,54848,5
29615,54854,5
29615,54859,4
29617,54859,5
29609,54860,6
29611,54856,4
29621,54851,5
29608,54852,4
29620,54852,5
29619,54858,5
29617,54856,5
29619,54845,4
29620,54858,4
29622,54842,5
29616,54853,5
29615,54848,5
29628,54856,4
29613,54856,5
29614,54850,5
29616,54853,5
29616,54851,5
29608,54847,4
29613,54853,5
29612,54842,5
29606,54845,5
29609,54846,5
29610,54847,4
29608,54839,5
29618,54847,5
29617,54851,6
29620,54843,4
29619,54848,4
29618,54854,5
29613,54844,5
29615,54853,5
29620,54839,5
29620,54854,4
29609,54850,5
29613,54838,5
29608,54833,5
29599,54840,4
29608,54836,4
29608,54842,5
29604,54837,5
29607,54837,5
29611,54840,4
29603,54832,5
29608,54827,5
29601,54824,5
29602,54836,5
29601,54824,5
29601,54817,4
29598,54818,5
29602,54825,5
29602,54814,6
29598,54822,3
29590,54820,5
29600,54818,5
29591,54806,5
29592,54799,5
29588,54813,4
29597,54814,5
29596,54808,5
29593,54809,5
29599,54808,4
29594,54806,4
29588,54811,5
29588,54799,5
29600,54799,5
29595,54811,4
29587,54806,5
29598,54810,5
29592,54810,5
29586,54807,5
29563,54808,4
29587,54803,6
29584,54795,4
29589,54807,5
29538,54795,5
29586,54796,4
29586,54798,5
29584,54806,5
29538,54796,5
29587,54800,5
29584,54804,4
29594,54790,5
29608,54804,5
29588,54801,5
29591,54794,5
29584,54797,4
29637,54796,5
29591,54807,5
29585,54803,5
29591,54807,4
29637,54811,4
29594,54809,5
29588,54805,5
29597,54813,5
29606,54804,4
29590,54809,5
29591,54811,6
29594,54804,4
29590,54789,5
29589,54803,4
29590,54810,5
29585,54813,5
29596,54765,5
29595,54814,5
29595,54810,4
29595,54799,5
29593,54755,5
29595,54809,5
29596,54802,5
29593,54798,4
29592,54802,5
29589,54804,5
29581,54805,5
29603,54803,5
29606,54844,4
29594,54812,5
29595,54808,5
29592,54804,5
29598,54859,4
29590,54809,5
29588,54797,5
29591,54807,6
29602,54832,4
29591,54803,4
29593,54817,5
29604,54816,5
29598,54823,5
29596,54820,5
29597,54812,4
29600,54817,5
29601,54814,5
29595,54807,5
29589,54811,5
29598,54808,4
29594,54802,5
29600,54805,5
29596,54812,5
29597,54808,5
29589,54814,4
29597,54811,5
29600,54823,5
29595,54814,5
29600,54810,5
29590,54804,4
29600,54801,5
29602,54809,5
29587,54805,5
29595,54817,4
29589,54804,5
29594,54814,5
29591,54816,5
29592,54815,5
29594,54815,4
29601,54818,5
29604,54821,5
29592,54824,5
29598,54820,5
29605,54823,4
29600,54821,5
29607,54828,5
29605,54837,5
29604,54836,5
29605,54833,4
29609,54832,5
29612,54843,5
29607,54841,5
29608,54840,5
29613,54844,5
29622,54854,4
29617,54848,5
29617,54844,5
29613,54846,4
29607,54853,4
29616,54856,5
29622,54860,5
29622,54869,5
29623,54861,4
29623,54861,5
29617,54858,5
29626,54869,5
29624,54861,5
29627,54859,4
29624,54865,5
29622,54878,5
29625,54875,5
29626,54875,5
29626,54872,4
29636,54883,5
29637,54885,5
29639,54891,5
29641,54904,5
29638,54902,4
29640,54901,6
29649,54903,4
29642,54899,5
29648,54906,4
29647,54897,4
29642,54907,5
29640,54913,5
29646,54905,5
29643,54908,4
29654,54912,5
29644,54918,5
29641,54910,5
29638,54914,5
29645,54900,4
29643,54900,5
29624,54919,5
29655,54906,5
29643,54903,5
29647,54918,4
29612,54927,5
29649,54920,5
29644,54914,5
29653,54922,5
29602,54924,4
29656,54921,5
29656,54931,5
29649,54933,5
29659,54927,5
29659,54935,4
29661,54934,5
29655,54924,5
29701,54926,5
29663,54922,4
29658,54929,4
29658,54927,5
29708,54933,5
29659,54927,5
29657,54927,4
29656,54921,5
29677,54935,5
29659,54926,5
29647,54930,5
29652,54917,4
29657,54914,5
29659,54923,5
29653,54926,5
29646,54933,5
29647,54881,4
29655,54916,5
29656,54914,5
29652,54923,5
29650,54874,5
29655,54917,4
29657,54915,5
29653,54925,5
29646,54894,5
29658,54921,5
29654,54924,4
29658,54925,5
29657,54961,5
29646,54923,5
29648,54929,4
29652,54927,4
29650,54976,5
29652,54921,5
29652,54916,5
29650,54913,4
29644,54955,6
29653,54912,4
29651,54915,5
29654,54907,5
29649,54927,6
29646,54918,3
29646,54917,5
29647,54911,5
29641,54913,5
29641,54915,4
29652,54919,5
29647,54916,5
29644,54928,5
29645,54913,5
29646,54911,4
29646,54917,5
29652,54910,5
29651,54910,5
29642,54914,4
29653,54921,4
29641,54910,5
29649,54914,5
29651,54905,5
29648,54914,4
29650,54913,5
29656,54913,6
29646,54907,4
29649,54913,5
29652,54913,4
29652,54923,7
29655,54916,3
29652,54920,5
29644,54920,5
29654,54918,4
29654,54925,5
29651,54911,5
29646,54920,5
29650,54922,5
29655,54918,4
29655,54917,5
29653,54913,5
29655,54916,5
29646,54927,5
29654,54912,4
29646,54913,5
29655,54923,5
29648,54907,5
29654,54919,4
29649,54925,4
29649,54915,5
29650,54922,6
29644,54918,4
29651,54914,4
29650,54916,5
29654,54918,5
29653,54915,5
29653,54928,5
29653,54921,4
29656,54915,5
29656,54918,5
29648,54923,5
29649,54917,5
29654,54923,4
29663,54922,5
29655,54929,5
29648,54918,5
29653,54922,5
29654,54934,4
29650,54923,5
29648,54930,5
29644,54928,5
29651,54928,5
29650,54919,4
29651,54919,5
29651,54922,5
29650,54929,6
29660,54921,3
29650,54921,5
29653,54923,5
29653,54926,5
29648,54928,5
29654,54921,4
29651,54923,5
29652,54929,5
29658,54928,5
29632,54929,5
29654,54916,4
29654,54923,5
29656,54928,5
29617,54923,5
29658,54918,5
29650,54924,4
29656,54922,5
29609,54925,5
29649,54930,5
29657,54931,5
29655,54927,5
29662,54934,4
29658,54919,5
29657,54924,5
29655,54935,6
29693,54922,3
29654,54925,5
29657,54927,5
29659,54918,5
29707,54927,4
29655,54928,5
29660,54919,5
29655,54937,5
29680,54924,5
29654,54928,4
29656,54925,5
29663,54920,5
29650,54918,5
29656,54923,5
29666,54924,4
29656,54930,5
29665,54888,5
29648,54921,5
29657,54933,5
29652,54924,4
29657,54869,6
29653,54918,4
29650,54919,5
29660,54927,5
29646,54892,4
29646,54923,5
29660,54917,5
29652,54922,5
29649,54955,4
29658,54925,5
29657,54925,5
29649,54924,6
29661,54977,4
29661,54933,4
29655,54937,5
29661,54939,5
29654,54972,5
29660,54925,5
29659,54930,4
29660,54930,5
29661,54938,5
29657,54918,5
29654,54926,5
29652,54919,4
29648,54914,5
29652,54919,6
29643,54920,4
29651,54913,5
29651,54919,4
29652,54914,5
29638,54908,5
29652,54913,5
29649,54912,4
29646,54911,4
29648,54915,5
29647,54917,5
29651,54921,5
29645,54911,4
29645,54921,5
29650,54912,5
29651,54918,5
29653,54925,5
29643,54914,4
29648,54918,5
29650,54919,5
29652,54915,5
29644,54916,5
29647,54915,4
29654,54923,5
29654,54920,5
29649,54914,6
29641,54920,4
29646,54914,4
29651,54908,5
29652,54918,5
29654,54921,5
29651,54918,5
29649,54917,4
29641,54915,5
29636,54909,5
29651,54914,5
29652,54921,4
29646,54910,4
29644,54907,5
29649,54910,5
29650,54915,5
29651,54917,4
29649,54920,5
29649,54912,5
29652,54908,5
29643,54911,5
29645,54905,5
29650,54904,4
29639,54909,5
29651,54919,5
29642,54919,5
29651,54910,4
29653,54919,5
29647,54923,5
29652,54911,5
29651,54915,5
29644,54917,4
29652,54922,5
29645,54917,5
29649,54918,5
29648,54918,5
29651,54929,4
29650,54913,5
29656,54916,5
29650,54921,5
29648,54915,4
29660,54919,5
29651,54910,5
29654,54919,5
29651,54918,5
29650,54916,4
29650,54926,6
29653,54923,4
29652,54913,5
29659,54924,5
29644,54925,4
29640,54927,5
29657,54913,5
29653,54924,5
29650,54920,5
29614,54920,4
29648,54907,5
29650,54913,5
29658,54915,5
29602,54920,5
29661,54917,4
29657,54922,5
29651,54928,5
29645,54920,5
29656,54920,4
29650,54918,4
29654,54918,5
29689,54921,5
29653,54920,5
29653,54937,4
29651,54925,5
29709,54922,6
29646,54917,4
29655,54917,5
29647,54912,4
29675,54911,5
29654,54912,5
29653,54912,5
29649,54921,5
29655,54912,4
29648,54906,5
29652,54908,5
29652,54923,5
29646,54882,5
29651,54905,4
29645,54908,5
29653,54911,5
29651,54874,5
29649,54918,5
29649,54924,4
29652,54923,5
29652,54873,5
29659,54912,5
29647,54910,5
29648,54915,4
29650,54936,5
29652,54916,5
29650,54912,5
29648,54911,4
29635,54960,5
29640,54894,5
29643,54906,5
29638,54894,5
29640,54942,4
29645,54908,5
29633,54910,5
29642,54891,5
29640,54917,5
29642,54900,4
29636,54902,5
29637,54890,5
29642,54894,5
29639,54890,5
29644,54885,4
29633,54895,5
29636,54901,5
29639,54893,5
29640,54890,6
29643,54898,3
29638,54895,5
29641,54895,5
29635,54890,5
29638,54887,4
29640,54887,5
29635,54878,5
29630,54886,5
29630,54883,5
29634,54888,4
29630,54885,5
29634,54884,5
29630,54882,5
29634,54882,5
29627,54882,4
29624,54879,5
29626,54875,5
29636,54877,5
29629,54870,5
29623,54883,4
29626,54877,5
29627,54878,5
29627,54878,5
29634,54876,5
29630,54876,5
29629,54877,4
29633,54876,5
29622,54879,5
29623,54872,4
29622,54876,4
29633,54874,5
29621,54874,5
29628,54864,5
29628,54875,4
29630,54859,5
29629,54874,5
29621,54864,5
29632,54870,5
29629,54864,4
29624,54863,5
29622,54873,5
29623,54865,5
29623,54867,5
29624,54863,4
29618,54865,5
29627,54858,6
29619,54862,4
29623,54854,5
29628,54855,4
29624,54862,7
29624,54857,3
29622,54866,5
29624,54863,5
29625,54866,4
29625,54868,5
29628,54861,5
29629,54873,5
29627,54862,4
29622,54870,4
29629,54859,5
29627,54859,5
29619,54862,5
29619,54857,4
29625,54859,5
29631,54856,5
29624,54864,5
29618,54855,5
29610,54860,4
29619,54859,5
29617,54855,5
29612,54859,6
29610,54854,4
29623,54849,4
29614,54854,5
29580,54856,5
29613,54851,5
29622,54862,5
29623,54862,4
29577,54853,5
29627,54855,5
29614,54859,5
29623,54863,5
29600,54864,4
29620,54873,5
29626,54871,5
29623,54865,5
29649,54861,4
29620,54852,5
29626,54855,5
29620,54857,5
29670,54851,5
29618,54849,5
29609,54846,4
29614,54849,5
29648,54849,5
29612,54847,6
29603,54847,3
29605,54835,5
29613,54834,5
29606,54825,5
29607,54838,5
29598,54829,4
29605,54809,5
29596,54824,5
29608,54824,5
29607,54823,5
29608,54782,4
29606,54828,5
29593,54834,5
29605,54825,5
29608,54772,4
29599,54829,4
29605,54819,5
29601,54827,5
29605,54827,5
29600,54826,4
29593,54816,6
29606,54823,4
29599,54873,5
29611,54827,5
29595,54824,6
29598,54824,3
29602,54880,5
29595,54818,5
29599,54813,5
29592,54817,4
29597,54844,5
29600,54825,5
29602,54823,5
29599,54825,5
29596,54824,4
29600,54815,5
29601,54823,5
29597,54827,5
29596,54822,5
29601,54812,4
29605,54815,5
29590,54818,5
29600,54817,5
29603,54817,4
29594,54816,4
29604,54822,6
29598,54823,4
29594,54828,5
29594,54821,4
29599,54823,5
29600,54827,5
29606,54825,5
29604,54828,5
29604,54821,4
29601,54821,5
29596,54821,5
29602,54821,5
29601,54815,5
29593,54814,4
29596,54813,5
29606,54822,5
29605,54816,5
29598,54815,5
29592,54820,4
29599,54820,5
29604,54814,5
29604,54814,5
29603,54811,5
29601,54824,4
29596,54823,5
29597,54815,6
29599,54820,4
29598,54817,4
29600,54818,4
29597,54825,5
29604,54817,5
29601,54817,5
29598,54817,4
29596,54819,5
29597,54826,5
29598,54815,5
29595,54817,5
29600,54809,4
29595,54820,5
29600,54819,5
29603,54821,5
29604,54827,5
29601,54817,4
29599,54826,5
29606,54819,5
29604,54826,5
29596,54810,5
29595,54806,4
29587,54811,5
29595,54823,5
29595,54824,6
29595,54812,4
29593,54807,4
29589,54807,5
29592,54815,5
29597,54807,5
29601,54809,4
29589,54812,5
29602,54808,5
29593,54808,5
29594,54811,5
29589,54814,4
29593,54811,5
29594,54815,5
29596,54817,5
29598,54804,5
29592,54810,4
29600,54812,5
29594,54819,5
29589,54803,5
29567,54801,5
29592,54811,5
29596,54807,4
29602,54804,5
29548,54809,5
29589,54804,6
29591,54809,3
29597,54803,5
29547,54804,5
29592,54809,5
29586,54808,4
29595,54811,4
29612,54810,5
29596,54807,5
29584,54805,5
29590,54794,4
29640,54798,5
29586,54801,5
29583,54795,5
29591,54796,5
29625,54800,4
29588,54802,5
29597,54806,5
29590,54801,5
29606,54799,5
29587,54803,4
29589,54798,6
29599,54805,4
29597,54792,5
29596,54806,5
29592,54798,4
29592,54803,5
29593,54761,5
29584,54802,5
29587,54793,5
29586,54803,4
29589,54747,5
29587,54800,5
29592,54801,5
29591,54806,4
29593,54792,4
29593,54799,5
29584,54807,5
29593,54807,5
29589,54845,4
29590,54803,5
29587,54798,5
29584,54806,5
29586,54848,5
29589,54800,8
29587,54807,1
29592,54800,6
29589,54796,4
29585,54797,5
29585,54793,4
29582,54798,5
29591,54798,5
29575,54791,5
29587,54792,5
29578,54786,4
29579,54792,5
29579,54785,5
29576,54787,5
29578,54795,5
29580,54794,4
29596,54794,5
29582,54794,5
29589,54801,5
29590,54804,4
29593,54800,5
29582,54804,5
29594,54801,5
29584,54807,5
29593,54786,4
29583,54794,5
29593,54793,5
29582,54790,6
29582,54786,4
29576,54789,4
29581,54782,5
29573,54784,5
29585,54783,5
29581,54784,5
29578,54781,4
29573,54776,5
29581,54780,5
29582,54769,5
29581,54780,5
29577,54772,4
29581,54772,5
29566,54768,5
29581,54782,5
29575,54774,4
29576,54770,4
29570,54778,5
29575,54769,5
29574,54763,5
29567,54771,5
29564,54763,4
29574,54768,5
29573,54759,5
29570,54761,5
29574,54761,4
29573,54765,5
29570,54770,5
29575,54766,5
29569,54774,5
29570,54779,4
29577,54771,5
29571,54769,5
29569,54772,5
29575,54771,5
29572,54769,4
29574,54776,5
29571,54759,5
29571,54771,5
29572,54769,5
29580,54769,4
29576,54767,5
29570,54769,5
29564,54770,5
29570,54767,4
29566,54767,5
29572,54767,4
29571,54775,5
29575,54774,5
29572,54768,4
29575,54767,5
29574,54776,5
29575,54774,5
29576,54774,5
29574,54769,4
29575,54764,5
29566,54776,5
29574,54779,5
29577,54779,5
29573,54785,4
29551,54778,5
29576,54771,5
29577,54776,5
29578,54775,5
29532,54770,4
29572,54769,5
29571,54784,5
29574,54782,5
29523,54777,5
29571,54786,4
29578,54777,6
29579,54772,4
29585,54782,5
29570,54776,4
29576,54783,4
29579,54785,5
29629,54786,5
29585,54782,5
29583,54781,4
29580,54780,5
29635,54791,5
29579,54791,5
29579,54787,5
29583,54784,4
29601,54794,5
29576,54791,5
29582,54794,5
29580,54786,5
29593,54789,4
29584,54786,5
29585,54787,5
29582,54786,5
29585,54760,5
29578,54797,4
29584,54788,5
29588,54791,5
29584,54748,5
29575,54801,4
29589,54800,4
29589,54796,5
29587,54775,5
29592,54807,5
29591,54810,4
29591,54807,5
29585,54839,5
29593,54816,5
29589,54813,5
29588,54820,4
29598,54872,5
29605,54817,5
29609,54821,5
29600,54826,5
29602,54863,4
29605,54828,4
29604,54824,5
29607,54837,5
29603,54842,5
29605,54832,3
29610,54833,5
29610,54833,5
29606,54840,5
29611,54847,5
29606,54843,4
29615,54852,5
29623,54855,5
29614,54860,5
29621,54859,4
29616,54864,4
29620,54859,5
29615,54858,5
29623,54862,5
29616,54867,4
29621,54865,5
29623,54869,5
29625,54867,5
29626,54876,5
29628,54871,4
29625,54864,6
29634,54881,4
29628,54887,5
29628,54877,5
29632,54887,6
29629,54886,3
29626,54876,5
29638,54891,5
29634,54891,5
29630,54895,4
29640,54897,5
29640,54898,5
29631,54911,5
29635,54906,5
29646,54901,4
29638,54908,5
29645,54913,5
29640,54905,5
29654,54904,4
29645,54913,5
29642,54903,5
29642,54919,5
29642,54916,5
29648,54910,4
29644,54912,5
29641,54911,6
29639,54908,4
29643,54898,5
29635,54904,4
29644,54908,5
29640,54902,5
29644,54911,5
29641,54907,5
29645,54908,4
29648,54913,5
29650,54912,5
29646,54915,5
29647,54918,5
29647,54920,4
29650,54919,5
29654,54921,5
29643,54922,5
29652,54914,4
29652,54929,4
29660,54929,5
29651,54924,5
29651,54930,5
29657,54926,4
29659,54932,5
29656,54931,5
29664,54931,6
29661,54924,4
29653,54927,4
29658,54928,5
29660,54929,5
29653,54913,5
29646,54905,5
29650,54919,4
29646,54918,5
29648,54901,5
29627,54908,5
29639,54910,5
29650,54910,4
29641,54913,5
29605,54903,5
29651,54909,5
29640,54914,5
29649,54914,4
29604,54913,5
29640,54914,5
29646,54910,5
29641,54909,5
29646,54918,4
29651,54914,5
29652,54915,5
29642,54924,6
29682,54909,3
29643,54914,5
29643,54908,5
29653,54907,5
29700,54916,5
29647,54912,4
29640,54910,5
29639,54905,5
29670,54912,5
29644,54911,5
29641,54908,4
29644,54913,5
29645,54905,5
29644,54922,5
29646,54919,5
29638,54908,4
29647,54875,5
29649,54913,5
29649,54909,5
29642,54917,4
29643,54864,5
29646,54914,4
29642,54920,5
29651,54919,5
29647,54892,6
29649,54919,3
29651,54912,5
29645,54917,5
29655,54936,5
29645,54913,4
29650,54923,5
29644,54917,5
29653,54973,5
29647,54917,5
29653,54919,4
29653,54917,5
29654,54956,5
29647,54921,5
29650,54922,5
29641,54922,4
29656,54931,5
29648,54917,5
29642,54909,5
29645,54911,5
29641,54920,4
29653,54923,6
29648,54922,4
29649,54920,5
29646,54916,4
29650,54916,4
29651,54914,5
29650,54908,5
29649,54917,5
29646,54922,4
29644,54915,5
29652,54911,5
29651,54916,5
29644,54916,5
29651,54916,4
29648,54905,5
29645,54911,5
29653,54914,5
29645,54905,5
29652,54920,4
29652,54911,5
29651,54920,5
29657,54918,5
29646,54920,5
29654,54915,4
29651,54922,5
29650,54919,6
29647,54918,4
29650,54911,5
29646,54915,4
29653,54918,5
29648,54918,5
29653,54924,5
29637,54916,4
29657,54915,5
29653,54912,5
29643,54905,5
29651,54917,5
29646,54916,4
29644,54916,5
29644,54915,5
29649,54915,5
29648,54910,5
29650,54919,4
29649,54915,5
29655,54921,5
29656,54920,5
29648,54921,5
29656,54913,4
29645,54916,5
29649,54916,5
29655,54920,6
29643,54913,4
29643,54907,4
29637,54902,5
29642,54909,5
29643,54914,5
29642,54902,4
29644,54903,4
29638,54902,5
29636,54901,5
29642,54905,5
29647,54897,4
29640,54900,5
29638,54892,5
29645,54894,5
29632,54896,5
29638,54898,4
29629,54897,5
29638,54897,5
29633,54897,5
29642,54902,5
29638,54899,5
29636,54899,4
29635,54895,5
29641,54893,5
29632,54898,5
29626,54887,4
29634,54888,5
29634,54888,5
29642,54898,5
29600,54891,5
29642,54896,4
29633,54888,5
29630,54899,5
29586,54890,5
29631,54889,4
29645,54900,4
29642,54896,5
29619,54893,5
29637,54897,5
29631,54888,4
29636,54899,5
29673,54897,5
29627,54892,5
29637,54900,5
29634,54904,4
29692,54891,6
29629,54894,4
29642,54902,5
29644,54894,5
29670,54899,4
29640,54893,5
29634,54893,5
29643,54894,5
29651,54893,5
29640,54898,4
29641,54893,5
29634,54899,5
29645,54881,5
29644,54891,5
29647,54894,4
29637,54896,5
29644,54853,5
29638,54889,5
29640,54884,5
29630,54890,4
29635,54838,5
29637,54893,5
29631,54897,5
29636,54887,4
29641,54910,5
29637,54885,6
29642,54893,4
29632,54884,5
29632,54943,4
29639,54890,5
29639,54898,5
29633,54892,5
29635,54950,5
29640,54899,4
29639,54896,5
29639,54896,5
29636,54908,6
29640,54891,4
29640,54892,4
29643,54892,5
29635,54895,5
29634,54893,5
29638,54895,4
29638,54898,4
29634,54886,5
29630,54880,5
29632,54890,5
29638,54889,4
29634,54884,5
29638,54879,5
29626,54877,5
29631,54878,5
29634,54878,4
29634,54875,5
29640,54878,5
29634,54876,5
29632,54879,5
29630,54878,4
29626,54886,5
29636,54883,5
29628,54880,5
29630,54872,5
29629,54872,4
29629,54883,5
29633,54877,5
29630,54879,5
29631,54882,5
29625,54884,4
29628,54892,5
29637,54882,5
29629,54882,5
29621,54874,5
29633,54868,4
29624,54875,5
29625,54875,5
29627,54873,5
29628,54881,4
29623,54871,5
29636,54892,5
29631,54887,5
29635,54877,5
29633,54886,4
29633,54875,5
29631,54879,5
29626,54881,5
29626,54875,5
29621,54865,4
29625,54866,5
29615,54862,5
29624,54862,5
29615,54861,5
29620,54850,4
29615,54851,5
29608,54844,5
29608,54845,5
29603,54843,5
29610,54830,5
29608,54822,4
29600,54820,5
29604,54819,5
29598,54827,4
29600,54816,5
29589,54815,5
29586,54813,5
29590,54814,5
29587,54816,4
29597,54812,5
29596,54804,5
29593,54803,5
29587,54808,5
29589,54814,4
29591,54796,5
29584,54809,5
29591,54804,5
29589,54813,5
29587,54809,4
29598,54815,5
29592,54813,5
29588,54805,4
29590,54817,5
29597,54817,4
29566,54815,7
29592,54799,3
29595,54810,5
29594,54802,4
29550,54811,4
29598,54824,5
29589,54823,5
29594,54822,5
29553,54810,4
29589,54820,5
29599,54816,5
29596,54820,5
29612,54811,5
29593,54815,4
29599,54812,5
29589,54819,5
29637,54814,5
29596,54818,5
29596,54808,4
29587,54808,5
29631,54802,5
29589,54798,6
29583,54800,4
29586,54790,4
29599,54787,5
29583,54784,5
29574,54786,5
29575,54784,5
29580,54769,4
29575,54778,5
29574,54767,5
29580,54769,5
29573,54734,4
29579,54773,4
29580,54780,5
29572,54773,5
29574,54725,5
29574,54772,4
29577,54763,5
29574,54769,5
29572,54759,5
29572,54760,5
29568,54770,5
29576,54766,4
29570,54810,5
29573,54754,5
29573,54765,6
29572,54757,3
29569,54815,5
29565,54765,5
29568,54756,5
29561,54767,5
29580,54793,4
29562,54771,5
29566,54765,5
29572,54764,5
29566,54765,5
29578,54766,4
29575,54764,5
29571,54762,5
29569,54766,5
29568,54760,4
29565,54756,5
29567,54766,5
29574,54768,5
29572,54756,5
29571,54753,4
29568,54763,6
29564,54750,4
29566,54748,5
29560,54746,5
29563,54740,6
29553,54733,3
29553,54733,5
29557,54729,5
29553,54736,5
29557,54724,4
29556,54732,5
29551,54728,5
29558,54727,5
29548,54719,5
29543,54721,4
29551,54719,5
29545,54717,5
29544,54717,5
29541,54709,4
29530,54701,4
29543,54699,5
29535,54688,5
29523,54695,5
29533,54680,4
29525,54684,5
29529,54684,6
29528,54690,4
29525,54675,5
29518,54678,4
29526,54682,5
29514,54682,5
29526,54680,5
29521,54682,5
29526,54691,4
29527,54689,5
29528,54684,5
29520,54686,5
29522,54680,5
29527,54675,4
29532,54675,5
29529,54684,5
29522,54670,5
29521,54673,5
29528,54678,4
29522,54672,5
29525,54668,5
29517,54675,5
29521,54685,4
29527,54679,4
29523,54682,5
29526,54679,6
29526,54684,4
29522,54673,4
29520,54676,5
29525,54683,5
29525,54678,5
29520,54675,5
29528,54680,4
29527,54686,5
29523,54687,5
29531,54685,5
29525,54682,5
29523,54686,4
29524,54680,5
29533,54686,5
29531,54686,5
29524,54683,5
29536,54691,4
29528,54676,5
29522,54687,5
29505,54673,5
29531,54674,5
29526,54678,4
29521,54682,5
29476,54672,5
29519,54675,6
29526,54676,3
29525,54681,5
29470,54674,5
29524,54665,5
29524,54674,5
29524,54671,4
29522,54670,5
29523,54677,5
29524,54670,5
29523,54676,5
29572,54681,4
29520,54675,5
29521,54678,5
29527,54676,5
29578,54681,5
29523,54682,4
29524,54675,5
29532,54687,5
29552,54680,5
29523,54676,5
29521,54674,5
29533,54679,4
29532,54671,5
29530,54690,5
29532,54687,4
29527,54691,4
29528,54648,5
29531,54681,5
29525,54676,5
29530,54683,4
29523,54633,5
29526,54673,5
29523,54675,5
29523,54668,5
29525,54649,4
29515,54664,5
29517,54672,5
29515,54675,5
29510,54698,5
29515,54670,4
29518,54664,5
29511,54664,5
29510,54712,5
29513,54657,5
29518,54660,4
29508,54656,6
29518,54690,4
29505,54664,5
29522,54654,5
29514,54658,4
29511,54660,5
29507,54656,5
29507,54648,5
29500,54653,4
29504,54655,4
29511,54656,5
29515,54655,5
29511,54660,5
29511,54657,4
29521,54663,5
29518,54658,5
29515,54654,5
29519,54668,5
29517,54668,4
29521,54666,5
29521,54666,5
29521,54664,5
29521,54660,5
29524,54669,4
29516,54658,5
29515,54675,6
29519,54667,4
29515,54670,5
29521,54656,4
29508,54656,5
29525,54674,5
29512,54664,5
29511,54668,5
29519,54670,4
29512,54667,5
29522,54677,5
29518,54672,5
29523,54681,4
29520,54680,5
29521,54674,5
29517,54685,5
29533,54680,5
29527,54678,4
29530,54684,5
29527,54687,5
29523,54690,5
29521,54686,5
29519,54683,4
29528,54689,5
29530,54686,5
29525,54692,6
29526,54686,4
29534,54689,4
29524,54689,5
29523,54688,5
29533,54696,5
29530,54697,5
29530,54696,4
29533,54691,5
29532,54699,5
29531,54695,5
29536,54699,4
29529,54699,4
29538,54695,5
29537,54702,5
29532,54695,5
29534,54704,4
29535,54706,5
29544,54714,5
29537,54699,5
29532,54705,5
29538,54713,5
29537,54712,4
29545,54703,5
29546,54715,5
29536,54705,5
29540,54718,4
29543,54711,5
29540,54708,5
29540,54712,5
29546,54707,5
29539,54710,4
29545,54702,5
29537,54710,5
29539,54712,5
29546,54703,5
29517,54705,4
29542,54701,5
29536,54701,5
29537,54699,5
29489,54701,4
29538,54710,4
29541,54704,6
29537,54716,4
29488,54709,5
29537,54717,4
29542,54714,6
29541,54714,4
29548,54708,5
29546,54724,5
29547,54724,4
29543,54725,5
29600,54722,5
29549,54738,5
29558,54734,5
29550,54741,4
29613,54744,5
29561,54750,5
29563,54751,5
29561,54749,5
29587,54757,4
29568,54751,5
29561,54760,5
29569,54758,5
29562,54744,5
29567,54768,4
29568,54765,5
29575,54781,5
29579,54748,5
29592,54788,4
29577,54789,5
29590,54802,6
29590,54745,4
29591,54800,5
29600,54809,5
29593,54822,4
29603,54794,5
29598,54826,5
29603,54827,5
29607,54825,4
29606,54856,5
29600,54843,5
29605,54838,5
29612,54838,5
29607,54893,4
29600,54843,5
29602,54842,5
29614,54846,5
29607,54879,5
29609,54842,4
29612,54839,5
29622,54836,5
29615,54854,5
29619,54845,4
29609,54845,8
29624,54851,1
29609,54855,5
29615,54828,5
29618,54862,4
29628,54855,5
29623,54853,5
29617,54862,5
29623,54857,5
29621,54860,4
29628,54870,5
29615,54869,5
29626,54861,5
29627,54863,5
29617,54873,4
29623,54868,5
29627,54869,5
29624,54869,5
29624,54863,5
29631,54863,4
29622,54860,4
29611,54860,5
29616,54864,5
29621,54871,6
29625,54864,3
29616,54870,5
29616,54863,5
29624,54868,5
29622,54868,4
29613,54867,4
29615,54863,5
29624,54867,5
29622,54864,5
29624,54868,4
29624,54862,5
29623,54861,5
29622,54851,5
29630,54861,5
29618,54861,4
29613,54860,5
29619,54860,5
29612,54860,5
29607,54857,5
29621,54855,4
29610,54856,6
29615,54847,4
29618,54856,5
29617,54857,5
29612,54856,6
29605,54847,3
29605,54841,5
29603,54845,5
29609,54840,4
29604,54849,4
29603,54835,5
29614,54839,5
29606,54842,5
29610,54833,4
29610,54838,5
29605,54837,5
29604,54846,5
29612,54843,5
29612,54844,4
29611,54847,5
29609,54853,5
29605,54846,5
29609,54852,5
29605,54842,4
29609,54850,5
29617,54851,6
29616,54852,4
29612,54852,5
29604,54853,4
29625,54856,5
29615,54860,5
29616,54855,5
29617,54855,5
29620,54854,4
29615,54861,5
29605,54863,5
29616,54855,5
29614,54861,4
29614,54872,4
29583,54869,5
29627,54875,5
29624,54875,5
29621,54870,4
29569,54870,5
29626,54868,5
29621,54869,5
29616,54872,5
29599,54865,4
29620,54864,5
29625,54874,5
29621,54874,6
29664,54874,4
29620,54866,4
29627,54870,5
29627,54867,5
29668,54866,5
29619,54869,5
29631,54869,4
29625,54872,5
29647,54881,5
29627,54875,5
29625,54878,5
29626,54870,4
29636,54870,5
29627,54878,5
29642,54869,5
29632,54872,4
29630,54847,5
29632,54880,5
29623,54868,5
29626,54878,5
29627,54823,5
29626,54869,4
29627,54870,5
29622,54868,5
29625,54832,6
29630,54865,3
29627,54864,5
29630,54870,5
29625,54877,5
29625,54871,5
29624,54871,4
29618,54863,5
29614,54905,5
29622,54862,5
29617,54866,5
29625,54863,4
29624,54916,5
29622,54858,5
29619,54863,5
29630,54857,4
29631,54887,4
29625,54868,5
29621,54860,5
29617,54860,5
29621,54866,4
29624,54870,6
29625,54869,4
29621,54864,5
29625,54876,5
29620,54872,6
29624,54861,3
29621,54871,5
29616,54869,5
29625,54858,5
29619,54870,4
29621,54852,5
29623,54867,5
29626,54867,5
29625,54863,5
29616,54867,4
29617,54866,5
29614,54860,5
29623,54865,5
29624,54867,5
29621,54870,4
29621,54863,5
29628,54868,5
29619,54861,5
29621,54868,4
29625,54860,4
29628,54865,6
29618,54860,4
29619,54863,5
29619,54850,4
29613,54863,5
29617,54860,5
29612,54851,5
29615,54859,5
29611,54852,4
29611,54861,5
29613,54858,5
29606,54855,5
29615,54849,5
29610,54859,4
29612,54849,5
29620,54854,5
29615,54850,5
29609,54861,5
29611,54864,4
29616,54841,5
29616,54854,5
29606,54851,5
29618,54853,5
29607,54843,4
29615,54846,5
29612,54843,6
29614,54837,4
29611,54846,4
29611,54848,4
29613,54852,5
29613,54853,5
29608,54842,5
29611,54851,4
29616,54851,5
29613,54860,5
29610,54850,5
29615,54854,5
29617,54859,4
29618,54857,5
29615,54851,5
29611,54858,5
29617,54858,5
29613,54852,4
29613,54857,5
29618,54857,5
29618,54856,5
29612,54862,5
29614,54854,4
29617,54858,5
29616,54857,5
29617,54858,6
29604,54850,4
29608,54849,4
29611,54852,5
29617,54848,5
29574,54852,5
29611,54856,4
29620,54857,5
29614,54853,5
29559,54858,5
29618,54854,5
29623,54860,4
29611,54850,5
29585,54858,5
29618,54858,5
29622,54855,5
29620,54855,4
29641,54856,5
29611,54854,5
29615,54861,5
29619,54860,5
29672,54861,5
29616,54863,4
29619,54862,5
29610,54855,5
29651,54857,5
29624,54855,4
29610,54869,5
29625,54853,5
29631,54865,5
29624,54859,4
29619,54862,4
29618,54864,5
29621,54834,5
29628,54860,5
29617,54861,4
29622,54858,5
29612,54817,5
29613,54864,5
29609,54858,5
29620,54856,4
29617,54809,5
29614,54853,5
29618,54858,5
29621,54851,5
29625,54872,4
29627,54858,6
29617,54863,4
29614,54852,5
29617,54913,5
29621,54865,4
29620,54862,5
29620,54856,5
29614,54908,5
29609,54853,5
29620,54853,4
29617,54858,5
29623,54875,5
29618,54850,5
29615,54853,4
29615,54854,4
29608,54858,5
29614,54861,5
29615,54856,5
29614,54855,4
29614,54856,5
29611,54850,5
29616,54850,5
29607,54850,5
29612,54846,4
29604,54849,5
29618,54846,7
29609,54845,3
29606,54846,5
29616,54847,4
29614,54844,5
29609,54849,5
29604,54844,5
29610,54846,5
29609,54848,4
29610,54851,5
29615,54844,5
29613,54847,5
29609,54841,5
29617,54848,4
29617,54848,5
29610,54851,5
29606,54858,5
29621,54848,4
29618,54858,4
29615,54860,5
29613,54846,5
29619,54857,5
29610,54846,4
29609,54854,5
29615,54849,5
29622,54854,5
29613,54844,5
29611,54842,4
29618,54839,5
29615,54843,5
29609,54841,5
29607,54835,5
29605,54839,4
29600,54844,5
29609,54846,5
29603,54840,5
29606,54846,5
29612,54845,4
29610,54837,5
29611,54837,5
29608,54839,5
29601,54834,5
29607,54834,4
29610,54839,5
29615,54834,5
29601,54838,5
29612,54843,5
29612,54846,4
29608,54833,5
29608,54839,5
29608,54841,5
29610,54844,4
29603,54828,5
29609,54837,5
29598,54848,5
29602,54836,5
29603,54829,4
29610,54833,5
29607,54837,5
29606,54839,5
29606,54830,5
29606,54832,4
29604,54830,5
29600,54834,5
29601,54829,5
29598,54833,5
29600,54832,4
29601,54831,5
29596,54832,5
29605,54833,5
29597,54828,5
29577,54832,5
29600,54834,4
29607,54826,5
29597,54821,5
29552,54824,4
29595,54824,5
29604,54825,5
29598,54819,5
29572,54816,5
29598,54824,4
29599,54820,5
29599,54819,5
29630,54826,5
29598,54819,5
29593,54826,4
29600,54821,5
29654,54824,5
29593,54829,5
29597,54834,5
29600,54814,4
29641,54822,5
29601,54815,6
29598,54814,4
29602,54818,5
29609,54814,4
29597,54812,7
29594,54815,3
29598,54813,5
29591,54801,4
29593,54814,4
29597,54811,5
29596,54815,5
29586,54767,5
29599,54810,4
29596,54816,5
29592,54807,5
29597,54760,5
29591,54815,5
29593,54814,5
29596,54815,4
29598,54815,5
29593,54812,5
29591,54815,5
29603,54815,4
29600,54862,5
29593,54816,5
29593,54815,6
29596,54819,4
29597,54876,4
29590,54818,5
29601,54821,5
29606,54811,5
29593,54832,5
29591,54817,4
29594,54811,5
29597,54811,5
29593,54806,5
29595,54802,4
29595,54803,4
29597,54803,5
29586,54804,5
29588,54801,6
29586,54804,3
29588,54792,5
29596,54784,5
29575,54790,5
29586,54786,5
29580,54784,5
29578,54779,4
29572,54763,5
29573,54762,5
29569,54762,6
29569,54763,3
29566,54748,5
29558,54754,5
29562,54753,5
29563,54748,5
29563,54754,4
29563,54745,5
29566,54743,5
29561,54736,5
29562,54747,5
29557,54744,4
29558,54745,5
29562,54737,5
29554,54738,5
29551,54738,4
29550,54741,4
29553,54734,5
29564,54735,5
29549,54742,5
29546,54732,4
29547,54732,6
29552,54737,4
29547,54742,5
29557,54736,5
29547,54736,6
29558,54728,3
29549,54742,5
29550,54734,5
29563,54732,5
29555,54742,4
29556,54732,5
29558,54743,5
29552,54736,5
29554,54728,5
29550,54725,4
29545,54732,5
29550,54728,5
29554,54725,5
29556,54734,4
29553,54737,4
29548,54731,5
29551,54729,5
29543,54725,5
29553,54730,4
29555,54729,5
29543,54742,6
29551,54725,4
29549,54729,5
29553,54722,4
29556,54724,5
29555,54726,5
29549,54728,5
29543,54726,5
29548,54719,4
29552,54734,5
29543,54716,5
29544,54725,5
29548,54723,5
29549,54712,4
29538,54718,5
29552,54720,5
29545,54712,5
29546,54719,5
29547,54716,4
29542,54709,5
29511,54719,5
29541,54719,5
29546,54722,4
29543,54709,4
29510,54718,5
29552,54711,6
29542,54717,4
29545,54714,4
29507,54712,5
29542,54725,5
29543,54714,5
29543,54707,5
29560,54722,4
29538,54717,5
29543,54709,5
29535,54718,5
29587,54711,5
29540,54701,4
29533,54713,5
29534,54705,5
29594,54704,5
29539,54704,5
29540,54705,4
29536,54714,5
29553,54710,5
29545,54706,5
29544,54702,5
29551,54715,4
29549,54696,5
29535,54713,5
29532,54710,6
29545,54715,3
29544,54667,4
29536,54711,5
29536,54700,5
29540,54695,5
29531,54648,4
29529,54701,5
29529,54697,5
29532,54686,5
29526,54690,5
29527,54696,4
29531,54697,5
29528,54700,5
29540,54727,5
29535,54690,5
29537,54690,4
29525,54690,5
29524,54736,5
29528,54686,5
29524,54681,5
29526,54688,5
29525,54715,4
29527,54678,5
29528,54680,5
29527,54685,5
29533,54689,4
29520,54683,5
29523,54677,5
29526,54674,5
29529,54691,4
29527,54683,5
29526,54689,5
29522,54680,5
29528,54678,5
29528,54674,4
29529,54679,5
29520,54686,5
29521,54679,5
29526,54677,5
29524,54677,4
29525,54677,5
29523,54676,5
29516,54674,5
29522,54672,5
29532,54675,4
29529,54667,6
29521,54671,4
29518,54670,5
29522,54676,5
29527,54670,4
29522,54685,5
29523,54682,5
29520,54680,5
29530,54682,4
29527,54687,4
29529,54687,5
29521,54681,5
29532,54676,5
29524,54686,4
29529,54694,5
29531,54679,5
29520,54674,5
29517,54675,5
29525,54675,4
29520,54676,5
29514,54675,5
29524,54672,5
29520,54671,5
29524,54671,4
29518,54674,5
29518,54674,6
29516,54676,4
29510,54667,5
29518,54672,4
29515,54669,5
29526,54668,5
29519,54672,5
29521,54673,5
29527,54674,4
29514,54669,5
29524,54673,5
29518,54676,5
29516,54668,4
29511,54678,4
29524,54677,5
29518,54677,5
29516,54679,5
29527,54681,4
29524,54676,5
29522,54682,5
29515,54679,5
29530,54666,5
29522,54676,4
29525,54673,5
29529,54666,5
29521,54663,6
29531,54676,4
29520,54668,4
29517,54668,5
29525,54661,5
29526,54664,5
29521,54657,5
29515,54668,4
29514,54661,5
29523,54660,5
29516,54649,5
29483,54655,5
29506,54644,4
29510,54652,5
29508,54647,5
29467,54654,5
29507,54650,4
29504,54655,5
29514,54660,4
29460,54661,5
29511,54660,5
29514,54658,5
29509,54656,4
29525,54657,5
29505,54652,5
29513,54662,5
29510,54652,4
29562,54648,5
29505,54653,5
29513,54656,5
29511,54652,5
29566,54658,4
29514,54653,5
29504,54660,5
29511,54655,5
29519,54650,5
29509,54644,4
29514,54651,5
29503,54652,5
29504,54635,5
29511,54646,4
29505,54652,4
29519,54654,5
29511,54614,5
29509,54654,5
29516,54656,5
29512,54642,5
29503,54602,4
29514,54644,5
29506,54644,5
29510,54649,4
29510,54644,5
29516,54655,5
29513,54652,5
29513,54652,5
29519,54701,4
29513,54650,5
29508,54660,5
29514,54654,5
29511,54723,5
29510,54666,4
29521,54664,5
29507,54661,5
29516,54683,5
29510,54660,5
29512,54662,4
29523,54664,5
29514,54661,5
29514,54668,5
29515,54673,4
29522,54664,4
29518,54673,6
29518,54673,4
29518,54670,5
29529,54682,4
29526,54680,5
29527,54674,5
29526,54678,5
29527,54682,5
29526,54690,4
29533,54688,5
29537,54687,5
29531,54698,5
29534,54697,5
29538,54706,4
29540,54705,5
29547,54709,5
29539,54708,5
29546,54715,5
29539,54716,4
29543,54730,5
29549,54727,5
29550,54731,5
29555,54738,5
29544,54743,4
29556,54744,5
29555,54742,5
29557,54740,5
29560,54739,4
29569,54756,4
29562,54762,5
29570,54767,5
29568,54770,5
29567,54767,4
29568,54774,5
29571,54764,5
29571,54773,5
29578,54768,5
29570,54768,4
29568,54769,5
29577,54772,5
29575,54782,5
29571,54777,5
29582,54778,5
29574,54780,4
29576,54781,5
29578,54790,5
29573,54789,6
29580,54777,3
29578,54782,5
29580,54798,5
29577,54791,5
29585,54798,5
29589,54786,4
29589,54796,5
29586,54798,5
29582,54800,5
29592,54814,4
29590,54810,5
29588,54806,5
29583,54805,5
29589,54801,5
29591,54806,4
29597,54823,5
29600,54818,5
29591,54819,5
29598,54813,5
29604,54829,4
29601,54825,6
29605,54834,4
29608,54836,5
29607,54841,5
29604,54844,6
29610,54837,3
29606,54838,5
29603,54839,5
29610,54850,5
29604,54840,4
29585,54847,5
29603,54852,5
29610,54851,5
29614,54846,4
29562,54856,4
29612,54846,5
29601,54831,5
29605,54836,5
29563,54843,4
29605,54832,5
29601,54836,5
29608,54827,5
29607,54832,5
29604,54827,4
29595,54826,5
29598,54829,6
29648,54827,4
29602,54824,5
29602,54831,4
29598,54815,5
29653,54831,5
29596,54816,5
29599,54829,5
29594,54827,4
29627,54818,5
29595,54827,5
29589,54819,5
29594,54821,5
29601,54815,4
29596,54810,5
29596,54817,5
29596,54810,5
29591,54774,4
29593,54812,5
29597,54819,5
29592,54813,5
29596,54761,5
29593,54816,4
29592,54819,5
29593,54810,5
29587,54799,6
29589,54819,4
29586,54812,4
29590,54814,5
29594,54847,5
29592,54815,5
29588,54811,5
29585,54812,4
29584,54872,5
29604,54813,5
29601,54817,5
29586,54807,5
29597,54851,4
29591,54810,5
29587,54814,5
29590,54811,5
29592,54820,4
29585,54815,4
29588,54801,5
29586,54809,5
29584,54791,5
29587,54802,5
29589,54803,4
29592,54795,5
29576,54792,5
29582,54797,6
29587,54799,3
29594,54792,9
29586,54797,1
29588,54802,5
29592,54819,5
29583,54797,4
29595,54791,5
29580,54783,5
29579,54787,5
29579,54783,5
29575,54778,4
29565,54765,5
29570,54767,5
29570,54765,5
29567,54766,5
29562,54754,4
29557,54759,5
29565,54747,5
29555,54740,5
29552,54750,4
29557,54744,5
29558,54747,4
29547,54739,5
29556,54728,5
29546,54724,6
29543,54724,3
29545,54729,5
29543,54722,5
29540,54718,5
29539,54708,4
29536,54708,5
29539,54714,5
29528,54710,5
29534,54697,5
29528,54701,4
29536,54689,5
29526,54692,5
29527,54697,5
29522,54686,5
29522,54690,4
29519,54690,5
29523,54695,5
29522,54688,5
29525,54688,5
29518,54689,4
29525,54675,6
29526,54678,4
29525,54691,5
29524,54684,4
29523,54681,4
29511,54692,5
29520,54683,5
29532,54695,5
29523,54690,4
29525,54691,5
29520,54685,5
29526,54688,5
29532,54706,5
29532,54697,4
29527,54695,5
29531,54693,5
29526,54693,5
29525,54701,5
29525,54691,4
29534,54693,5
29530,54697,5
29524,54694,5
29525,54681,5
29520,54678,4
29522,54679,5
29516,54686,6
29503,54680,4
29520,54683,5
29520,54682,4
29520,54673,5
29479,54681,5
29517,54686,5
29520,54680,4
29512,54681,4
29471,54673,5
29519,54678,5
29513,54673,5
29519,54673,4
29518,54660,5
29513,54659,5
29504,54651,5
29510,54657,5
29536,54654,4
29497,54650,5
29497,54638,5
29495,54631,5
29546,54626,5
29490,54633,4
29498,54621,5
29494,54623,5
29510,54621,6
29490,54623,4
29487,54614,4
29487,54616,5
29496,54620,5
29483,54615,5
29486,54627,5
29477,54622,4
29482,54583,5
29488,54619,5
29488,54622,5
29491,54617,4
29489,54569,4
29489,54615,5
29489,54620,5
29487,54615,5
29487,54570,4
29483,54619,5
29478,54622,5
29487,54610,5
29486,54632,5
29491,54624,5
29497,54613,4
29481,54621,5
29489,54665,5
29490,54617,5
29488,54612,4
29486,54615,5
29479,54665,5
29482,54618,5
29480,54617,5
29487,54608,4
29481,54621,5
29481,54605,5
29483,54606,5
29480,54605,5
29480,54614,4
29482,54607,5
29489,54609,5
29488,54606,5
29480,54601,4
29483,54613,5
29474,54606,5
29481,54604,5
29476,54616,5
29478,54608,4
29486,54612,7
29485,54613,3
29481,54609,5
29478,54607,5
29480,54615,4
29483,54603,5
29481,54604,5
29478,54608,5
29484,54609,5
29484,54609,4
29485,54602,5
29480,54609,5
29482,54598,5
29482,54611,5
29485,54608,4
29481,54599,5
29480,54603,5
29480,54604,5
29482,54596,5
29489,54604,4
29467,54607,5
29479,54606,5
29479,54606,5
29486,54605,4
29478,54606,5
29489,54612,6
29482,54613,4
29480,54609,5
29472,54609,4
29482,54608,5
29484,54603,5
29481,54611,5
29479,54613,5
29485,54616,4
29490,54615,5
29489,54620,5
29488,54619,5
29489,54619,5
29490,54619,4
29480,54623,5
29484,54617,5
29491,54619,5
29486,54618,5
29493,54618,4
29497,54621,5
29490,54616,5
29485,54616,5
29483,54618,4
29491,54619,4
29483,54621,5
29487,54614,5
29483,54618,5
29485,54608,4
29487,54620,5
29485,54625,5
29486,54623,5
29484,54626,5
29495,54620,4
29488,54625,5
29493,54631,5
29489,54626,5
29495,54628,5
29488,54623,4
29493,54628,5
29499,54629,5
29495,54626,5
29495,54630,5
29491,54642,4
29501,54644,5
29498,54637,5
29508,54639,5
29471,54642,5
29495,54639,4
29505,54651,5
29504,54644,5
29462,54652,5
29512,54650,4
29512,54648,4
29509,54662,5
29479,54658,5
29513,54656,5
29515,54660,4
29517,54666,5
29538,54663,5
29512,54666,5
29520,54666,5
29507,54663,4
29565,54664,5
29509,54662,5
29519,54665,5
29522,54674,5
29555,54672,4
29528,54670,5
29528,54678,5
29528,54681,5
29533,54675,5
29526,54685,5
29518,54683,3
29526,54681,5
29528,54670,5
29537,54697,5
29532,54694,4
29535,54700,5
29533,54656,5
29534,54698,5
29538,54693,5
29535,54706,4
29539,54654,5
29533,54703,5
29542,54702,5
29539,54716,4
29541,54715,5
29546,54714,5
29538,54707,5
29538,54710,5
29545,54760,4
29544,54715,5
29532,54707,6
29538,54707,4
29538,54760,5
29535,54698,4
29538,54707,7
29537,54709,3
29538,54728,5
29542,54704,5
29532,54706,4
29532,54707,5
29542,54711,5
29537,54700,5
29542,54707,5
29545,54693,4
29533,54699,5
29538,54707,5
29532,54708,5
29541,54697,4
29540,54706,4
29531,54704,5
29529,54697,5
29535,54703,5
29530,54694,4
29534,54699,5
29538,54701,5
29529,54704,6
29541,54696,4
29546,54696,4
29533,54710,5
29538,54701,5
29527,54699,5
29533,54696,5
29537,54694,4
29538,54699,5
29537,54708,5
29534,54697,5
29533,54705,5
29531,54705,4
29535,54695,5
29528,54690,5
29524,54695,5
29537,54690,4
29542,54699,4
29528,54698,5
29528,54700,5
29540,54700,5
29529,54693,5
29531,54682,4
29526,54687,5
29526,54693,5
29531,54687,6
29532,54678,3
29528,54689,5
29524,54687,5
29526,54691,5
29529,54689,5
29530,54688,4
29526,54685,5
29521,54676,5
29527,54685,5
29528,54682,5
29519,54679,4
29524,54672,5
29520,54666,5
29519,54670,5
29516,54671,5
29515,54663,4
29528,54661,5
29513,54662,5
29517,54667,5
29512,54666,4
29506,54655,5
29523,54662,4
29516,54660,5
29516,54650,5
29511,54649,6
29512,54656,3
29513,54658,5
29516,54655,5
29510,54652,5
29506,54654,4
29504,54651,5
29507,54646,5
29516,54649,5
29512,54645,5
29509,54641,4
29503,54642,5
29498,54631,5
29492,54637,5
29496,54634,5
29507,54628,4
29472,54639,5
29495,54630,5
29503,54636,5
29502,54632,5
29462,54633,4
29502,54626,6
29503,54629,4
29502,54626,5
29455,54628,4
29499,54629,4
29499,54622,5
29494,54621,5
29514,54628,5
29496,54629,4
29502,54626,5
29500,54629,5
29541,54627,5
29500,54629,5
29502,54630,4
29498,54628,5
29540,54627,5
29494,54621,5
29487,54618,5
29475,54607,4
29510,54608,5
29486,54611,5
29478,54611,5
29486,54606,5
29490,54590,4
29481,54603,5
29486,54605,6
29484,54604,4
29484,54561,5
29484,54606,4
29485,54603,5
29483,54594,5
29482,54543,5
29477,54592,4
29474,54590,4
29471,54590,4
29480,54579,5
29479,54584,5
29469,54589,4
29480,54586,5
29469,54630,5
29477,54584,5
29471,54577,5
29466,54585,4
29486,54641,5
29466,54580,5
29476,54574,5
29467,54581,5
29479,54598,4
29464,54579,5
29483,54569,5
29463,54569,6
29465,54586,4
29472,54578,4
29467,54582,5
29474,54580,5
29467,54567,5
29469,54571,5
29458,54572,4
29462,54565,5
29471,54577,5
29461,54573,5
29468,54573,4
29465,54573,5
29465,54567,5
29463,54567,5
29471,54569,6
29469,54563,3
29466,54573,5
29464,54563,5
29473,54563,5
29460,54563,5
29459,54568,5
29462,54567,4
29462,54565,5
29462,54569,5
29469,54576,5
29461,54564,4
29473,54555,5
29465,54563,5
29466,54562,5
29470,54560,5
29465,54554,4
29470,54563,5
29464,54554,5
29453,54548,5
29462,54559,4
29455,54557,4
29453,54546,5
29454,54554,5
29461,54546,5
29455,54544,4
29451,54546,5
29459,54552,5
29459,54549,5
29453,54547,5
29457,54545,4
29450,54537,6
29450,54543,4
29451,54538,5
29446,54536,5
29450,54536,4
29453,54535,5
29446,54539,5
29452,54533,5
29451,54529,5
29455,54527,4
29445,54531,5
29451,54520,5
29449,54528,5
29446,54529,5
29437,54521,4
29438,54530,5
29435,54526,5
29440,54524,5
29436,54529,4
29444,54531,4
29443,54527,5
29441,54526,5
29445,54531,5
29452,54530,4
29443,54529,5
29452,54535,6
29451,54536,4
29444,54545,5
29442,54529,4
29451,54529,5
29438,54537,5
29443,54522,5
29443,54533,5
29434,54521,4
29451,54528,5
29460,54532,5
29425,54526,5
29448,54535,5
29448,54534,4
29447,54521,5
29397,54531,5
29445,54525,5
29442,54521,5
29454,54521,4
29398,54531,5
29450,54526,5
29448,54532,5
29448,54529,4
29469,54532,4
29450,54536,5
29453,54530,6
29444,54525,4
29497,54531,4
29449,54534,5
29446,54533,5
29449,54528,5
29497,54528,5
29457,54532,4
29439,54525,5
29451,54531,5
29468,54534,5
29443,54537,5
29447,54533,4
29452,54536,5
29451,54524,5
29446,54534,5
29440,54514,5
29431,54509,4
29417,54440,5
29412,54474,5
29402,54443,5
29389,54426,5
29377,54348,4
29370,54387,5
29360,54389,5
29349,54363,5
29350,54338,4
29351,54343,5
29340,54337,5
29338,54328,5
29340,54367,5
29349,54342,4
29348,54349,5
29365,54356,5
29353,54408,5
29364,54361,5
29372,54370,4
29368,54376,5
29364,54408,5
29375,54392,5
29378,54388,5
29388,54389,4
29376,54413,5
29388,54416,5
29394,54419,5
29396,54427,5
29394,54433,5
29405,54442,4
29413,54450,5
29411,54452,5
29415,54453,4
29424,54470,4
29420,54469,5
29422,54487,5
29434,54499,5
29438,54511,4
29438,54522,5
29449,54528,5
29458,54545,5
29461,54556,5
29465,54566,4
29465,54572,5
29467,54576,5
29473,54586,5
29473,54590,5
29480,54597,4
29483,54594,5
29489,54608,5
29490,54611,5
29486,54604,5
29493,54612,4
29495,54619,6
29501,54626,4
29500,54630,5
29507,54624,5
29502,54639,4
29502,54639,5
29499,54637,5
29507,54639,5
29510,54643,4
29514,54641,4
29516,54652,5
29501,54649,5
29511,54640,5
29506,54643,4
29521,54654,5
29505,54655,5
29512,54652,5
29518,54666,5
29516,54670,4
29520,54658,5
29518,54673,5
29517,54674,5
29528,54675,4
29522,54674,4
29519,54674,5
29532,54678,5
29521,54683,5
29528,54686,5
29526,54690,4
29527,54677,5
29528,54685,5
29532,54679,5
29531,54689,5
29523,54680,4
29526,54684,5
29538,54686,5
29528,54682,5
29531,54675,4
29528,54682,4
29524,54679,5
29527,54680,5
29527,54682,5
29528,54680,5
29525,54682,4
29521,54674,5
29520,54681,5
29520,54676,6
29528,54677,3
29523,54680,5
29528,54681,5
29525,54676,5
29537,54684,5
29503,54674,4
29528,54672,5
29530,54682,5
29527,54680,5
29489,54681,5
29520,54676,4
29524,54679,5
29529,54682,5
29482,54679,5
29529,54678,5
29519,54682,4
29531,54678,5
29539,54670,5
29527,54689,5
29525,54680,4
29525,54678,5
29564,54682,4
29525,54678,5
29528,54682,5
29527,54683,6
29565,54682,3
29521,54676,5
29527,54681,5
29522,54673,5
29546,54683,4
29521,54677,5
29530,54680,5
29523,54682,5
29528,54673,5
29523,54681,4
29527,54678,5
29528,54674,5
29521,54641,5
29529,54683,5
29527,54681,4
29530,54676,5
29529,54628,5
29524,54682,5
29524,54686,5
29525,54679,4
29525,54664,6
29523,54686,4
29526,54685,5
29533,54682,4
29520,54723,6
29529,54691,3
29527,54679,5
29525,54679,5
29522,54736,4
29519,54674,5
29530,54674,5
29519,54671,5
29518,54710,5
29523,54675,4
29524,54676,5
29525,54681,5
29518,54685,5
29517,54676,5
29523,54672,4
29525,54671,5
29525,54675,5
29517,54681,5
29517,54674,5
29521,54671,4
29522,54676,5
29525,54672,6
29519,54678,4
29528,54673,5
29522,54670,4
29522,54679,5
29519,54680,5
29519,54672,5
29512,54665,4
29523,54668,5
29527,54667,5
29525,54669,5
29517,54661,5
29509,54660,4
29509,54652,5
29512,54649,5
29509,54641,5
29509,54644,5
29511,54644,4
29509,54650,5
29506,54645,5
29507,54648,5
29511,54643,5
29501,54646,4
29508,54639,5
29509,54645,5
29500,54645,6
29499,54630,4
29497,54635,4
29498,54637,5
29499,54634,5
29501,54629,5
29505,54631,5
29497,54632,4
29503,54633,5
29504,54631,5
29496,54635,5
29494,54634,4
29490,54627,5
29496,54631,5
29499,54625,5
29496,54629,5
29495,54625,4
29497,54614,5
29496,54632,5
29499,54620,5
29495,54612,5
29492,54615,5
29502,54625,4
29498,54613,5
29495,54623,5
29495,54621,6
29493,54616,3
29501,54613,5
29484,54610,5
29494,54616,5
29491,54620,5
29495,54614,4
29496,54622,5
29491,54624,5
29497,54620,5
29486,54625,4
29495,54625,4
29498,54625,5
29494,54629,5
29497,54629,5
29502,54626,4
29491,54621,5
29499,54621,5
29497,54628,5
29495,54627,5
29494,54627,4
29500,54629,6
29480,54633,4
29500,54620,5
29489,54628,5
29499,54631,4
29455,54624,5
29496,54622,5
29498,54625,5
29495,54617,5
29447,54625,4
29495,54620,5
29492,54617,5
29487,54617,5
29488,54623,5
29499,54617,4
29484,54609,5
29492,54615,5
29527,54616,5
29482,54613,4
29483,54608,4
29493,54612,5
29536,54610,5
29494,54619,5
29498,54616,4
29495,54609,5
29520,54615,6
29493,54626,4
29494,54614,5
29487,54616,4
29495,54610,5
29485,54610,5
29488,54606,5
29491,54614,5
29493,54579,4
29489,54599,5
29482,54599,5
29488,54606,5
29478,54540,5
29472,54576,4
29462,54549,5
29453,54541,5
29447,54504,5
29442,54513,5
29431,54519,5
29428,54515,4
29437,54541,5
29438,54515,5
29436,54514,4
29432,54503,4
29430,54554,5
29429,54494,6
29425,54492,4
29429,54489,4
29421,54522,5
29427,54497,5
29430,54488,5
29433,54493,5
29432,54503,4
29426,54506,5
29423,54508,5
29429,54503,5
29431,54505,5
29446,54506,4
29441,54512,5
29434,54505,5
29433,54504,5
29434,54512,5
29440,54516,4
29443,54516,5
29435,54519,5
29438,54532,5
29443,54532,5
29449,54541,4
29446,54540,5
29457,54548,5
29454,54551,5
29455,54544,4
29455,54555,8
29459,54551,1
29462,54556,5
29462,54538,5
29462,54562,4
29462,54561,5
29467,54567,5
29464,54570,5
29463,54574,5
29471,54569,4
29470,54569,5
29470,54575,5
29469,54574,5
29467,54578,5
29466,54563,4
29473,54568,5
29472,54574,5
29469,54574,5
29476,54568,5
29462,54583,5
29463,54568,4
29458,54573,5
29466,54568,5
29465,54563,5
29470,54565,4
29468,54571,5
29464,54584,5
29457,54565,5
29459,54562,4
29462,54563,5
29464,54564,5
29461,54564,5
29465,54565,5
29468,54571,4
29465,54572,5
29457,54572,5
29464,54570,5
29467,54569,5
29455,54564,4
29453,54557,5
29459,54567,5
29454,54573,5
29469,54564,5
29455,54563,4
29465,54568,6
29461,54575,4
29460,54578,5
29460,54578,5
29456,54564,4
29470,54567,5
29462,54559,5
29464,54557,5
29457,54561,4
29469,54555,4
29467,54562,5
29464,54562,5
29459,54555,5
29451,54560,4
29458,54559,5
29460,54557,5
29459,54563,5
29455,54547,5
29438,54549,4
29450,54546,5
29447,54533,5
29452,54536,5
29409,54534,5
29446,54532,4
29443,54527,5
29442,54524,6
29381,54507,4
29427,54503,5
29427,54503,4
29418,54487,5
29416,54492,5
29416,54486,5
29414,54478,5
29407,54468,4
29448,54470,5
29411,54458,5
29402,54453,5
29398,54441,4
29456,54433,4
29389,54437,5
29390,54431,5
29391,54417,5
29415,54424,4
29388,54428,5
29382,54420,5
29384,54424,5
29390,54415,5
29393,54416,4
29378,54423,5
29381,54418,5
29383,54396,5
29380,54426,5
29394,54417,4
29389,54421,5
29385,54379,5
29383,54422,5
29383,54419,5
29384,54430,4
29391,54388,5
29400,54438,5
29390,54422,5
29389,54434,5
29392,54448,4
29384,54434,5
29395,54431,5
29386,54431,5
29388,54485,4
29390,54436,4
29396,54438,5
29393,54425,5
29389,54474,5
29386,54421,6
29390,54429,3
29387,54427,5
29377,54425,5
29374,54412,5
29376,54409,4
29374,54396,5
29370,54397,5
29370,54405,5
29377,54407,5
29372,54399,4
29371,54399,5
29372,54390,5
29367,54392,5
29374,54381,5
29371,54393,4
29361,54384,5
29363,54380,5
29368,54383,5
29359,54378,5
29367,54382,4
29364,54396,6
29369,54381,4
29365,54382,5
29357,54381,4
29361,54380,6
29358,54370,3
29358,54368,5
29363,54373,5
29362,54380,4
29361,54381,5
29367,54376,5
29358,54379,5
29365,54388,5
29361,54388,4
29377,54393,5
29371,54393,5
29371,54387,5
29373,54400,5
29380,54397,4
29383,54395,5
29378,54398,5
29377,54404,5
29379,54405,5
29373,54404,4
29388,54411,5
29386,54416,6
29377,54404,4
29387,54416,5
29385,54414,4
29391,54413,5
29382,54421,5
29391,54427,5
29392,54427,4
29390,54423,5
29385,54425,5
29390,54419,5
29386,54425,5
29391,54417,4
29390,54425,5
29391,54427,5
29400,54415,5
29392,54424,5
29396,54428,4
29398,54422,5
29394,54426,5
29400,54425,5
29396,54434,5
29394,54431,4
29401,54432,5
29395,54427,5
29401,54430,6
29392,54435,4
29386,54426,4
29388,54422,5
29395,54420,5
29387,54430,5
29391,54424,5
29385,54425,4
29395,54421,5
29391,54424,5
29387,54421,5
29393,54426,4
29394,54428,5
29389,54430,5
29390,54428,5
29396,54425,5
29395,54428,4
29356,54425,5
29390,54414,5
29392,54425,5
29401,54421,5
29347,54429,5
29397,54426,4
29402,54424,5
29393,54428,5
29367,54419,6
29401,54428,3
29392,54423,5
29399,54427,5
29424,54430,5
29392,54423,5
29387,54419,4
29389,54415,5
29440,54424,5
29384,54427,5
29390,54422,4
29393,54425,4
29427,54419,5
29388,54425,5
29395,54423,5
29397,54420,4
29393,54414,5
29389,54419,5
29382,54425,5
29396,54422,5
29390,54398,4
29386,54418,6
29386,54423,4
29393,54423,5
29390,54385,5
29390,54411,4
29384,54419,4
29391,54426,5
29390,54372,5
29383,54415,5
29385,54419,4
29397,54423,5
29384,54427,5
29394,54422,5
29388,54426,5
29389,54418,4
29386,54467,5
29391,54419,5
29395,54416,5
29394,54429,4
29389,54466,4
29393,54424,5
29386,54419,5
29393,54424,5
29392,54451,4
29398,54419,5
29391,54424,6
29391,54422,4
29394,54421,5
29391,54425,4
29386,54421,5
29394,54429,5
29386,54422,5
29391,54430,5
29391,54424,4
29392,54431,5
29391,54425,5
29395,54424,5
29395,54429,5
29395,54429,4
29396,54424,5
29389,54427,5
29391,54428,5
29392,54435,5
29387,54427,4
29401,54427,5
29396,54423,5
29392,54430,5
29389,54426,4
29400,54429,4
29396,54423,5
29404,54432,6
29396,54427,4
29398,54438,4
29398,54427,5
29399,54431,5
29392,54429,5
29398,54431,5
29397,54433,4
29400,54432,5
29397,54436,5
29402,54436,5
29410,54435,5
29396,54430,4
29405,54432,5
29393,54433,5
29397,54433,5
29393,54434,5
29396,54437,4
29403,54441,5
29406,54439,5
29401,54432,5
29394,54434,5
29401,54439,4
29400,54442,5
29392,54443,5
29407,54439,6
29404,54445,3
29409,54447,4
29406,54448,5
29410,54441,5
29402,54446,5
29403,54443,4
29411,54445,5
29406,54448,5
29413,54448,5
29403,54456,5
29406,54445,4
29408,54445,5
29408,54444,5
29406,54451,5
29405,54447,5
29404,54440,4
29397,54439,5
29397,54433,5
29398,54437,5
29407,54439,5
29397,54434,5
29398,54432,4
29403,54435,5
29405,54441,5
29409,54450,5
29400,54438,4
29400,54439,5
29390,54437,5
29394,54439,5
29402,54433,4
29400,54441,5
29403,54440,5
29369,54433,5
29397,54438,5
29410,54444,4
29403,54445,5
29354,54436,5
29397,54443,5
29402,54437,5
29408,54444,4
29371,54439,5
29397,54437,5
29407,54438,5
29394,54433,5
29436,54434,4
29401,54437,6
29397,54447,4
29405,54432,5
29453,54435,5
29408,54439,4
29402,54434,5
29407,54446,5
29435,54447,5
29402,54439,4
29395,54445,4
29404,54451,5
29412,54441,5
29403,54441,5
29402,54450,4
29406,54454,5
29410,54425,5
29411,54450,5
29407,54456,5
29401,54451,4
29411,54418,5
29403,54452,5
29412,54454,5
29405,54453,5
29428,54408,4
29413,54465,5
29415,54460,6
29410,54458,4
29422,54467,5
29412,54464,4
29417,54474,5
29408,54472,5
29411,54516,5
29419,54466,5
29415,54470,4
29416,54467,5
29416,54531,5
29419,54472,5
29419,54473,4
29419,54472,4
29424,54500,5
29418,54484,5
29416,54480,5
29430,54485,4
29430,54493,5
29428,54495,5
29432,54495,5
29437,54482,5
29433,54503,4
29432,54499,5
29430,54491,5
29434,54495,5
29428,54508,5
29435,54499,4
29430,54503,5
29437,54502,5
29432,54506,5
29434,54499,5
29443,54507,4
29434,54517,5
29433,54509,5
29439,54507,5
29435,54517,5
29444,54512,4
29433,54518,5
29443,54521,5
29441,54520,6
29441,54520,3
29439,54517,4
29444,54522,5
29444,54522,5
29436,54526,5
29447,54511,5
29445,54524,4
29447,54526,5
29461,54532,5
29452,54532,5
29454,54537,4
29450,54543,5
29450,54541,5
29458,54549,5
29456,54542,5
29460,54553,4
29464,54554,5
29467,54549,5
29459,54551,5
29455,54549,5
29463,54556,4
29463,54555,5
29465,54561,5
29468,54559,5
29462,54567,5
29467,54574,4
29470,54578,5
29473,54570,5
29481,54579,5
29474,54575,4
29480,54583,5
29482,54581,4
29472,54589,5
29480,54597,5
29486,54609,4
29481,54599,5
29485,54611,5
29490,54612,5
29493,54603,5
29493,54621,4
29485,54614,5
29490,54611,5
29494,54616,5
29500,54620,5
29493,54621,4
29492,54630,5
29498,54618,5
29504,54636,5
29496,54637,5
29504,54644,4
29510,54643,5
29507,54642,5
29515,54649,4
29508,54656,5
29508,54657,4
29509,54652,7
29513,54658,3
29516,54657,5
29483,54663,4
29512,54668,5
29526,54666,5
29521,54666,5
29481,54662,5
29521,54659,4
29521,54662,5
29519,54664,5
29476,54680,5
29523,54664,5
29517,54678,4
29524,54674,5
29551,54674,5
29523,54686,5
29531,54691,5
29527,54685,4
29578,54688,5
29531,54701,5
29533,54689,6
29539,54702,4
29576,54699,4
29534,54709,5
29539,54700,5
29539,54708,5
29561,54707,4
29544,54716,4
29548,54718,5
29548,54717,5
29561,54698,5
29547,54712,4
29549,54719,5
29551,54711,5
29548,54682,5
29550,54712,5
29554,54728,4
29553,54716,5
29550,54675,5
29556,54729,5
29548,54716,5
29560,54718,5
29554,54725,4
29552,54725,5
29544,54728,5
29548,54715,6
29551,54776,3
29551,54723,5
29554,54723,5
29548,54726,5
29553,54780,5
29549,54713,4
29550,54709,5
29553,54715,5
29555,54753,5
29551,54721,4
29551,54725,5
29539,54713,5
29548,54722,5
29551,54722,5
29553,54721,4
29549,54721,5
29550,54720,5
29544,54716,5
29549,54712,5
29547,54711,4
29546,54714,6
29544,54723,4
29544,54713,5
29539,54708,5
29544,54708,6
29552,54705,3
29539,54707,5
29535,54700,5
29536,54702,5
29531,54694,4
29532,54702,5
29530,54692,5
29536,54682,5
29535,54686,4
29537,54690,4
29528,54678,5
29529,54682,5
29527,54669,5
29526,54657,4
29515,54660,5
29511,54657,5
29510,54648,5
29510,54648,5
29505,54651,4
29510,54646,5
29496,54630,6
29506,54623,4
29492,54614,5
29485,54610,4
29493,54593,5
29480,54593,5
29477,54590,5
29476,54577,5
29466,54567,4
29465,54572,5
29462,54559,5
29462,54570,5
29462,54560,5
29462,54569,4
29464,54574,5
29464,54567,5
29459,54555,5
29465,54568,4
29468,54573,5
29465,54560,5
29467,54571,5
29470,54574,5
29469,54581,4
29468,54572,5
29473,54577,5
29475,54571,6
29464,54576,4
29474,54575,4
29474,54581,5
29472,54588,5
29476,54593,5
29470,54580,5
29471,54578,4
29473,54578,5
29472,54574,5
29468,54577,5
29467,54572,5
29470,54568,4
29462,54565,5
29462,54558,5
29466,54568,5
29460,54565,4
29470,54572,4
29464,54561,5
29459,54572,5
29466,54578,5
29473,54581,5
29472,54580,4
29435,54578,5
29475,54580,5
29480,54587,6
29482,54583,3
29432,54586,5
29482,54590,5
29485,54598,5
29469,54598,5
29461,54597,4
29488,54603,5
29483,54608,5
29477,54606,5
29517,54602,5
29485,54602,4
29487,54605,5
29482,54614,5
29542,54603,5
29485,54603,4
29486,54611,4
29483,54598,5
29512,54609,5
29488,54607,5
29484,54598,4
29484,54613,6
29499,54602,4
29476,54604,5
29483,54603,5
29482,54597,4
29484,54587,5
29480,54603,5
29488,54598,5
29484,54600,5
29484,54551,4
29475,54603,5
29479,54610,5
29486,54608,5
29486,54565,5
29479,54604,5
29488,54607,4
29479,54594,5
29472,54613,5
29476,54585,5
29473,54588,4
29471,54587,5
29465,54637,5
29470,54582,5
29466,54585,4
29464,54574,4
29470,54630,6
29465,54578,4
29465,54570,5
29464,54577,4
29461,54585,5
29455,54567,5
29450,54566,5
29457,54565,5
29455,54554,4
29446,54547,5
29441,54531,5
29428,54511,5
29427,54506,5
29430,54498,4
29424,54487,5
29424,54483,5
29418,54474,5
29419,54484,5
29403,54472,4
29408,54471,5
29421,54470,5
29411,54477,5
29418,54483,4
29418,54488,4
29422,54476,5
29427,54473,6
29423,54479,4
29417,54475,4
29414,54470,5
29412,54466,5
29403,54464,5
29403,54460,5
29411,54456,4
29408,54459,5
29403,54458,5
29410,54455,5
29407,54455,5
29408,54448,4
29399,54454,5
29405,54453,5
29400,54449,5
29406,54453,5
29404,54458,4
29415,54465,5
29409,54467,5
29407,54462,5
29405,54468,5
29412,54475,4
29406,54472,5
29417,54473,5
29416,54486,5
29424,54484,4
29419,54482,5
29422,54480,5
29423,54488,5
29423,54486,5
29419,54482,4
29416,54482,5
29425,54486,5
29420,54494,5
29427,54495,5
29424,54484,4
29417,54482,5
29426,54483,5
29421,54490,5
29422,54472,5
29425,54483,4
29413,54481,5
29418,54477,5
29423,54483,5
29419,54486,5
29426,54490,5
29418,54490,4
29419,54486,5
29426,54485,5
29428,54485,4
29420,54493,4
29419,54485,5
29420,54477,5
29427,54482,5
29420,54478,4
29422,54480,5
29417,54484,5
29423,54472,5
29416,54478,5
29392,54474,4
29423,54474,5
29419,54473,5
29414,54468,5
29382,54470,5
29419,54471,4
29415,54476,5
29414,54471,5
29359,54475,5
29407,54474,5
29413,54467,4
29417,54467,6
29412,54472,4
29411,54468,5
29415,54465,5
29414,54471,4
29462,54473,5
29415,54462,5
29409,54461,5
29406,54458,4
29466,54466,4
29416,54470,5
29412,54469,5
29411,54463,5
29431,54468,4
29416,54468,5
29414,54468,5
29410,54472,5
29413,54470,5
29420,54478,4
29413,54473,5
29417,54475,5
29425,54455,5
29420,54490,5
29418,54477,4
29410,54476,5
29419,54425,6
29410,54482,4
29417,54476,5
29408,54463,4
29413,54440,5
29411,54472,5
29410,54472,5
29408,54464,4
29413,54502,4
29422,54474,5
29419,54475,5
29415,54480,5
29417,54522,4
29416,54471,5
29413,54462,5
29417,54462,5
29409,54512,5
29409,54467,4
29405,54467,5
29410,54457,5
29404,54479,5
29412,54466,6
29406,54464,3
29416,54466,5
29398,54465,5
29412,54454,5
29404,54456,5
29405,54454,4
29405,54458,5
29408,54454,5
29411,54449,5
29408,54452,5
29403,54452,4
29408,54445,5
29401,54448,5
29402,54445,5
29402,54452,4
29395,54449,4
29401,54452,5
29395,54444,5
29394,54444,5
29400,54439,4
29397,54447,6
29393,54440,4
29398,54438,5
29392,54440,5
29395,54435,6
29388,54439,3
29399,54438,5
29401,54436,5
29394,54431,5
29397,54442,4
29401,54424,9
29391,54430,1
29389,54425,5
29393,54433,5
29397,54413,4
29395,54429,5
29392,54428,5
29391,54424,5
29385,54423,5
29385,54415,4
29384,54421,5
29380,54407,5
29375,54422,5
29378,54404,4
29381,54404,4
29383,54415,6
29379,54412,4
29380,54417,5
29378,54408,4
29386,54411,7
29388,54401,3
29382,54407,5
29381,54404,5
29380,54404,4
29381,54401,5
29378,54403,5
29381,54403,5
29381,54397,5
29378,54407,4
29376,54400,5
29383,54401,5
29377,54400,5
29373,54400,5
29374,54393,4
29369,54396,5
29378,54388,5
29379,54394,5
29373,54384,5
29371,54390,4
29371,54384,5
29365,54384,6
29381,54390,4
29374,54385,4
29375,54379,4
29361,54379,5
29369,54379,5
29364,54387,5
29369,54384,4
29371,54380,5
29353,54386,5
29369,54389,5
29371,54389,5
29368,54392,4
29334,54389,5
29375,54385,5
29370,54393,5
29378,54391,5
29326,54378,4
29363,54381,5
29372,54377,5
29366,54380,5
29360,54379,5
29367,54377,4
29358,54376,5
29373,54370,5
29407,54379,6
29367,54377,4
29368,54379,4
29373,54378,5
29422,54385,5
29368,54375,5
29368,54381,4
29372,54384,4
29398,54381,5
29371,54390,5
29364,54383,5
29362,54376,4
29373,54370,5
29370,54378,10
29364,54377,7
29362,54386,7
29362,54386,10
29355,54365,5
29369,54377,5
29370,54333,10
29373,54387,9
29373,54387,10
29366,54381,5
29368,54386,5
29377,54396,10
29370,54382,5
29364,54438,5
29366,54373,10
29366,54373,5
29374,54375,5
29368,54382,10
29367,54409,5
29373,54384,5
29367,54391,10
29367,54391,5
29363,54387,5
29376,54391,10
29378,54413,5
29370,54384,7
29372,54335,8
29379,54397,9
29379,54397,7
29376,54384,8
29380,54390,7
29367,54383,8
29372,54384,5
29378,54394,7
29378,54394,8
29357,54393,5
29376,54381,7
29376,54399,8
29373,54382,5
29361,54368,7
29368,54371,8
29368,54371,5
29358,54370,7
29368,54370,8
29365,54366,5
29355,54360,7
29359,54307,8
29365,54364,9
29365,54364,5
29366,54358,8
29365,54366,7
29365,54372,5
29329,54370,8
29355,54373,7
29362,54368,10
29360,54357,7
29364,54368,5
29373,54384,8
29361,54341,7
29360,54361,5
29379,54364,8
29369,54382,7
29372,54383,5
29385,54409,8
29385,54409,7
29381,54371,7
29390,54420,8
29391,54431,7
29393,54463,5
29409,54466,8
29409,54466,7
29381,54469,10
29411,54469,7
29418,54482,5
29425,54471,5
29422,54483,10
29422,54483,5
29419,54490,5
29419,54457,10
29374,54465,5
29421,54489,5
29423,54477,10
29422,54482,5
29381,54482,5
29418,54480,10
29418,54480,5
29418,54483,5
29426,54478,10
29475,54496,5
29422,54486,5
29426,54488,10
29426,54488,5
29411,54490,7
29438,54488,8
29433,54493,2
29413,54487,3
29425,54454,4
29423,54470,5
29416,54487,5
29418,54488,5
29422,54492,5
29431,54439,4
29420,54481,5
29421,54482,5
29419,54471,5
29418,54429,5
29422,54485,4
29417,54475,5
29419,54473,5
29416,54476,5
29420,54476,5
29414,54471,4
29410,54474,6
29408,54518,4
29412,54466,5
29403,54461,4
29417,54464,4
29399,54516,5
29409,54466,5
29416,54459,5
29410,54479,4
29421,54493,5
29409,54464,5
29410,54462,5
29414,54473,5
29405,54466,4
29415,54465,5
29405,54456,5
29406,54458,5
29411,54460,5
29413,54454,4
29404,54454,5
29401,54459,5
29405,54450,5
29400,54444,5
29397,54442,4
29395,54434,5
29395,54437,6
29398,54440,4
29393,54427,5
29387,54442,4
29387,54430,5
29391,54428,5
29396,54420,5
29378,54429,4
29378,54422,5
29371,54422,5
29384,54415,5
29370,54408,5
29381,54415,4
29372,54407,5
29367,54401,5
29377,54395,5
29362,54392,5
29360,54393,4
29357,54389,5
29363,54393,5
29365,54386,5
29365,54393,5
29364,54378,4
29361,54388,5
29368,54392,5
29363,54393,5
29369,54403,5
29370,54402,4
29365,54396,5
29364,54405,5
29362,54398,5
29376,54400,4
29358,54399,4
29367,54398,5
29363,54403,5
29359,54396,5
29366,54403,4
29362,54405,5
29367,54396,5
29367,54401,5
29360,54398,5
29371,54398,4
29364,54385,5
29365,54388,5
29352,54390,5
29350,54385,5
29355,54381,5
29355,54377,4
29350,54374,5
29352,54373,5
29347,54375,5
29342,54367,4
29346,54360,5
29347,54369,5
29342,54364,5
29346,54357,5
29342,54360,4
29338,54349,5
29336,54347,5
29336,54347,10
29338,54334,5
29326,54334,5
29327,54329,5
29330,54328,10
29334,54326,5
29313,54330,5
29301,54297,10
29301,54297,5
29300,54290,5
29299,54296,10
29249,54296,5
29300,54287,7
29290,54274,8
29290,54274,5
29263,54276,7
29301,54272,8
29286,54266,5
29291,54267,7
29280,54250,8
29330,54255,9
29330,54255,8
29281,54225,1
29285,54258,1
29315,54258,4
29295,54266,6
29287,54260,4
29281,54253,4
29279,54259,5
29276,54236,5
29279,54241,5
29276,54245,5
29265,54245,4
29272,54196,5
29269,54230,5
29274,54234,5
29268,54227,5
29273,54183,4
29258,54227,5
29270,54229,5
29264,54221,5
29269,54216,5
29262,54218,4
29257,54215,5
29262,54218,5
29259,54263,5
29260,54211,5
29260,54217,4
29259,54208,5
29259,54261,5
29259,54194,6
29245,54192,3
29247,54182,5
29244,54195,5
29230,54150,5
29222,54149,5
29226,54141,4
29216,54140,5
29209,54121,5
29216,54121,5
29207,54118,5
29200,54116,4
29204,54104,5
29207,54096,5
29198,54100,5
29195,54091,5
29191,54092,4
29194,54087,5
29199,54079,5
29185,54074,5
29175,54064,5
29181,54057,5
29172,54062,4
29171,54039,5
