RED,IR,EKG,TIME
37060,66195,9
37062,66201,5
37061,66207,7
37072,66236,8
37073,66213,7
37079,66206,5
37077,66207,8
37079,66211,7
37079,66211,5
37104,66208,8
37079,66209,7
37062,66199,10
37065,66196,10
37065,66196,5
37060,66163,8
37065,66193,7
37063,66182,5
37052,66180,8
37039,66174,7
37066,66187,7
37066,66187,10
37054,66195,5
37058,66188,5
37067,66221,8
37072,66197,7
37111,66265,9
37111,66265,10
37117,66222,5
37113,66278,8
37129,66287,7
37156,66352,7
37156,66352,10
37145,66347,5
37156,66336,5
37140,66343,10
37164,66355,5
37172,66391,5
37237,66478,10
37237,66478,9
37250,66495,10
37267,66527,5
37272,66530,5
37272,66550,10
37272,66550,5
37291,66580,5
37313,66608,10
37318,66629,5
37340,66666,7
37354,66675,8
37354,66675,5
37368,66687,7
37380,66682,8
37366,66701,5
37368,66689,7
37349,66692,8
37373,66723,5
37486,66906,7
37486,66906,8
37484,66929,9
37511,66950,8
37467,66989,5
37539,67000,7
37526,67003,8
37526,67003,5
37555,67073,7
37595,67130,8
37613,67158,5
37625,67174,7
37628,67151,8
37672,67142,5
37705,67311,7
37705,67311,8
37721,67329,5
37708,67313,7
37736,67299,8
37696,67274,5
37691,67310,7
37722,67326,7
37722,67326,0
37722,67326,2
37741,67305,5
37740,67368,5
37745,67372,5
37729,67358,5
37726,67270,4
37705,67297,5
37692,67273,5
37685,67252,5
37683,67197,5
37665,67227,4
37663,67232,5
37662,67225,5
37651,67232,5
37653,67180,5
37630,67162,5
37608,67130,4
37600,67180,5
37579,67086,5
37569,67058,6
37536,67029,3
37523,67047,5
37513,66969,5
37499,66946,5
37489,66934,4
37490,66941,4
37477,66909,5
37468,66886,5
37453,66863,5
37438,66839,4
37425,66828,5
37421,66806,5
37419,66794,5
37406,66782,5
37402,66763,4
37377,66741,5
37364,66714,5
37339,66674,5
37336,66671,5
37325,66626,4
37304,66612,6
37296,66602,4
37298,66590,5
37281,66570,5
37283,66576,6
37276,66561,3
37264,66563,5
37278,66571,5
37278,66577,5
37274,66565,4
37276,66565,5
37277,66571,5
37280,66568,5
37282,66565,4
37273,66558,4
37274,66554,5
37261,66546,5
37254,66520,5
37257,66521,4
37233,66509,5
37235,66490,5
37232,66487,5
37223,66475,5
37218,66466,4
37218,66464,5
37217,66466,6
37215,66443,4
37204,66442,5
37201,66448,4
37212,66447,5
37202,66445,5
37204,66438,5
37209,66447,5
37200,66437,4
37204,66436,5
37201,66432,5
37202,66435,5
37196,66441,5
37196,66440,4
37201,66432,5
37196,66429,5
37198,66438,5
37199,66426,4
37195,66429,4
37183,66422,5
37181,66420,5
37196,66417,5
37182,66412,4
37174,66408,5
37174,66403,5
37187,66408,6
37177,66402,4
37186,66403,4
37175,66404,5
37180,66389,5
37166,66389,5
37179,66384,5
37168,66392,4
37168,66399,5
37168,66386,5
37166,66379,5
37161,66391,5
37170,66376,4
37164,66374,5
37169,66382,5
37167,66373,5
37160,66373,5
37155,66374,4
37162,66366,5
37154,66363,5
37136,66358,5
37159,66357,5
37158,66362,4
37162,66369,5
37110,66359,5
37150,66356,6
37158,66357,3
37148,66351,5
37089,66357,5
37158,66346,5
37153,66345,5
37146,66349,4
37129,66353,5
37136,66347,5
37145,66346,5
37141,66341,5
37185,66340,4
37147,66341,5
37147,66337,5
37150,66342,5
37217,66345,5
37149,66350,4
37151,66347,5
37156,66345,5
37182,66335,5
37134,66316,4
37122,66297,5
37111,66272,4
37105,66261,5
37088,66246,5
37080,66241,6
37084,66220,3
37076,66191,5
37070,66227,5
37075,66217,5
37070,66219,4
37087,66171,5
37077,66236,5
37095,66254,5
37092,66256,5
37101,66209,4
37110,66289,5
37115,66283,5
37119,66309,5
37129,66325,5
37134,66319,4
37134,66335,5
37134,66321,5
37132,66376,5
37130,66319,5
37121,66301,4
37120,66288,6
37121,66359,4
37116,66289,5
37116,66283,4
37108,66276,4
37102,66298,5
37105,66274,5
37106,66273,5
37106,66264,4
37101,66273,5
37101,66275,5
37108,66270,5
37111,66273,5
37107,66271,4
37101,66273,5
37107,66276,5
37111,66276,5
37116,66284,5
37111,66281,4
37110,66281,5
37112,66276,5
37111,66287,5
37106,66280,5
37104,66282,4
37105,66277,5
37106,66278,6
37119,66282,4
37112,66287,5
37112,66284,4
37114,66281,5
37111,66285,5
37116,66294,5
37124,66281,4
37108,66290,4
37112,66284,5
37110,66279,5
37110,66276,5
37113,66288,4
37108,66277,5
37112,66279,5
37109,66282,5
37105,66281,5
37106,66276,4
37110,66258,5
37094,66269,5
37093,66269,5
37107,66261,5
37097,66259,4
37102,66263,5
37091,66269,5
37098,66266,6
37099,66271,4
37095,66272,4
37100,66267,5
37096,66266,5
37109,66277,5
37110,66276,5
37109,66281,4
37111,66283,5
37112,66284,5
37118,66280,5
37108,66292,4
37119,66293,5
37126,66306,5
37121,66293,5
37115,66305,5
37126,66314,4
37130,66302,5
37124,66317,5
37123,66304,5
37135,66315,5
37123,66297,5
37128,66311,4
37121,66312,5
37124,66307,5
37123,66304,5
37119,66301,4
37122,66298,5
37122,66298,5
37118,66294,5
37121,66306,5
37118,66297,4
37113,66302,5
37115,66290,5
37113,66292,5
37110,66276,5
37104,66279,4
37098,66258,5
37095,66240,5
37077,66219,5
37063,66201,4
37063,66194,5
37053,66183,5
37045,66172,5
37008,66169,5
37037,66166,4
37047,66166,6
37051,66178,4
36985,66175,5
37056,66187,5
37058,66199,4
37059,66212,5
37029,66227,5
37083,66242,5
37093,66253,5
37100,66247,4
37131,66273,5
37100,66276,5
37114,66283,5
37108,66274,5
37170,66262,4
37093,66266,5
37097,66250,5
37091,66244,5
37150,66246,4
37084,66241,4
37088,66232,5
37084,66230,6
37104,66240,4
37086,66239,4
37087,66233,5
37089,66254,6
37097,66238,4
37094,66259,5
37092,66263,4
37095,66255,5
37102,66220,5
37099,66261,5
37101,66268,5
37096,66270,4
37102,66196,5
37104,66271,5
37105,66271,5
37102,66272,5
37104,66256,4
37104,66274,5
37107,66271,5
37096,66264,5
37101,66314,5
37097,66262,4
37098,66273,5
37104,66274,5
37100,66331,5
37095,66268,4
37097,66260,4
37094,66267,5
37097,66307,5
37099,66268,5
37095,66252,4
37087,66253,5
37090,66259,5
37082,66242,5
37082,66228,5
37076,66228,4
37072,66221,5
37073,66214,5
37072,66218,5
37067,66212,5
37071,66211,6
37061,66218,3
37062,66210,5
37063,66213,5
37063,66211,5
37057,66210,4
37066,66203,5
37056,66214,5
37066,66204,5
37067,66214,5
37071,66212,4
37069,66213,5
37082,66218,5
37080,66223,5
37069,66228,4
37077,66224,4
37080,66228,5
37077,66225,5
37077,66223,5
37078,66227,4
37080,66229,5
37076,66220,5
37083,66230,5
37079,66232,5
37076,66223,4
37078,66225,5
37073,66222,5
37076,66218,5
37072,66213,5
37064,66216,4
37063,66211,5
37070,66216,5
37064,66203,5
37064,66206,5
37054,66202,5
37057,66195,4
37058,66189,5
37055,66190,5
37051,66178,5
37044,66177,4
37054,66170,5
37038,66163,5
37042,66162,5
37041,66159,4
37036,66157,4
37030,66145,5
37027,66145,5
37023,66139,5
37020,66125,4
37018,66119,5
37012,66107,5
37007,66093,5
36993,66068,5
36973,66046,4
36958,66008,5
36934,65962,6
36903,65920,4
36877,65872,5
36845,65824,4
36825,65796,7
36811,65768,3
36795,65755,5
36800,65755,5
36787,65742,4
36788,65753,5
36794,65756,5
36796,65753,5
36796,65746,5
36796,65746,4
36801,65746,5
36789,65737,5
36786,65725,5
36783,65727,4
36785,65730,4
36785,65721,5
36766,65703,5
36757,65677,5
36715,65664,4
36738,65647,5
36739,65628,5
36718,65623,6
36669,65615,4
36719,65606,4
36708,65611,5
36716,65604,5
36653,65597,5
36709,65590,5
36700,65595,4
36708,65594,5
36731,65593,5
36717,65599,5
36718,65607,5
36717,65609,4
36777,65615,5
36711,65608,5
36721,65606,5
36709,65604,5
36765,65594,4
36711,65589,5
36700,65595,5
36710,65602,5
36731,65592,5
36704,65577,4
36703,65576,5
36701,65582,5
36697,65567,6
36692,65578,3
36699,65570,5
36696,65571,5
36683,65511,5
36682,65547,5
36677,65524,4
36669,65525,5
36664,65447,5
36657,65510,5
36654,65498,5
36653,65497,5
36650,65473,4
36641,65488,5
36644,65476,5
36629,65465,5
36621,65476,4
36616,65425,5
36611,65413,5
36609,65404,5
36597,65470,4
36591,65377,5
36575,65376,4
36587,65389,5
36596,65435,5
36602,65409,6
36605,65422,3
36612,65434,5
36616,65450,5
36622,65446,5
36626,65458,4
36631,65478,5
36650,65491,5
36652,65515,5
36658,65527,5
36662,65524,4
36674,65543,5
36685,65551,5
36695,65568,5
36700,65579,5
36709,65596,4
36712,65612,5
36723,65641,5
36747,65657,5
36762,65679,5
36766,65699,4
36775,65720,6
36787,65723,4
36792,65734,5
36796,65755,4
36796,65766,4
36832,65792,5
36834,65822,5
36842,65836,5
36852,65850,4
36856,65857,5
36870,65862,5
36864,65862,5
36868,65863,5
36866,65859,4
36853,65862,5
36863,65858,5
36870,65870,5
36868,65877,5
36879,65895,4
36889,65898,5
36898,65918,5
36901,65926,5
36905,65938,5
36920,65954,4
36933,65978,5
36939,66014,6
36960,66024,4
36968,66033,5
36972,66054,4
36995,66088,5
37001,66114,5
37014,66117,5
37013,66117,4
37005,66114,4
37005,66098,5
37009,66100,5
37012,66109,5
37005,66115,4
37009,66129,5
37010,66121,5
37025,66132,5
37016,66143,5
37032,66157,4
37044,66186,5
37062,66221,5
37083,66246,5
37101,66271,5
37107,66284,4
37110,66291,5
37112,66303,5
37125,66308,6
37129,66328,4
37134,66320,4
37141,66335,5
37142,66345,5
37146,66347,5
37160,66374,5
37173,66385,4
37159,66380,5
37170,66389,5
37177,66393,5
37172,66398,4
37178,66399,4
37181,66401,5
37178,66399,5
37174,66407,5
37176,66402,4
37134,66408,5
37177,66403,5
37185,66411,5
37187,66411,5
37128,66424,5
37181,66418,4
37178,66422,5
37189,66410,5
37136,66410,5
37183,66412,4
37187,66422,5
37205,66444,5
37226,66458,5
37219,66477,5
37238,66512,4
37263,66534,5
37337,66577,5
37294,66596,5
37311,66616,4
37314,66639,4
37373,66654,5
37344,66687,5
37356,66729,5
37384,66764,4
37425,66799,5
37420,66828,5
37425,66835,5
37443,66840,5
37439,66830,4
37436,66843,6
37449,66873,4
37462,66895,5
37490,66880,5
37502,66961,4
37524,66995,5
37539,67024,5
37551,66988,5
37568,67070,5
37567,67067,4
37559,67063,5
37553,67021,5
37544,67021,5
37524,67006,5
37531,66990,4
37519,67028,5
37509,66984,5
37503,66969,5
37504,66956,4
37492,67011,4
37496,66951,5
37504,66961,5
37515,66978,5
37519,67038,4
37536,67009,5
37542,67018,6
37527,67003,4
37528,67009,5
37516,66984,4
37507,66973,5
37498,66949,5
37488,66926,5
37474,66908,5
37462,66887,4
37444,66856,5
37450,66850,5
37419,66833,5
37417,66826,5
37416,66817,4
37412,66808,5
37418,66817,5
37420,66810,5
37412,66813,5
37427,66819,4
37412,66812,5
37419,66830,5
37418,66822,5
37418,66811,4
37427,66825,4
37427,66822,5
37421,66834,7
37421,66829,3
37432,66826,4
37412,66811,5
37415,66801,5
37401,66794,5
37401,66782,5
37390,66764,4
37386,66758,5
37377,66752,5
37370,66741,5
37360,66734,5
37359,66714,4
37356,66696,5
37333,66677,5
37319,66659,5
37315,66644,5
37314,66624,4
37302,66608,5
37292,66585,5
37275,66573,5
37265,66557,5
37260,66538,4
37261,66523,5
37244,66513,5
37238,66496,5
37232,66495,4
37229,66481,5
37220,66476,5
37221,66471,5
37220,66468,5
37220,66457,4
37218,66465,5
37219,66465,5
37214,66458,5
37202,66455,5
37209,66457,4
37206,66458,5
37208,66457,5
37208,66444,5
37207,66444,5
37199,66445,4
37209,66439,5
37200,66434,5
37200,66440,5
37198,66441,5
37199,66433,5
37194,66438,4
37195,66426,5
37189,66413,5
37187,66410,4
37177,66399,4
37169,66383,5
37165,66375,5
37157,66363,5
37158,66365,4
37155,66369,5
37155,66372,5
37159,66374,5
37166,66382,5
37176,66388,4
37167,66399,5
37132,66404,5
37186,66408,5
37187,66416,5
37198,66421,4
37131,66424,5
37193,66435,5
37186,66417,5
37181,66414,5
37156,66408,4
37182,66405,6
37181,66414,4
37191,66414,5
37218,66407,5
37180,66400,4
37169,66393,5
37177,66396,5
37240,66406,5
37181,66404,4
37184,66410,4
37190,66419,5
37250,66432,5
37206,66442,5
37205,66444,4
37207,66442,5
37229,66452,5
37218,66461,5
37220,66459,5
37211,66470,4
37216,66443,5
37210,66460,5
37227,66464,5
37222,66470,5
37213,66407,4
37222,66465,5
37212,66460,5
37223,66463,5
37219,66407,5
37227,66459,4
37221,66463,5
37209,66469,5
37226,66444,5
37226,66471,5
37215,66468,4
37221,66456,5
37211,66512,5
37208,66447,5
37211,66454,4
37213,66450,4
37209,66521,5
37199,66449,5
37212,66449,5
37207,66454,5
37207,66489,4
37214,66455,5
37211,66457,5
37206,66443,6
37210,66459,3
37201,66448,5
37211,66449,9
37208,66451,1
37206,66438,5
37216,66455,4
37218,66455,5
37213,66471,5
37224,66471,5
37226,66490,5
37228,66482,4
37229,66488,5
37231,66492,5
37228,66481,5
37228,66484,5
37225,66478,4
37219,66465,5
37218,66477,5
37218,66461,5
37226,66466,4
37216,66459,5
37217,66459,4
37209,66460,5
37216,66460,5
37221,66463,6
37216,66468,3
37223,66479,5
37225,66482,5
37236,66491,5
37247,66519,4
37253,66526,5
37257,66535,5
37275,66558,5
37281,66567,5
37283,66571,4
37287,66574,5
37290,66572,5
37282,66585,5
37287,66584,5
37286,66588,4
37292,66592,5
37295,66586,5
37283,66582,5
37291,66587,5
37298,66593,4
37295,66592,6
37291,66591,4
37285,66593,5
37290,66600,4
37303,66605,7
37300,66605,3
37303,66612,5
37310,66623,5
37305,66620,4
37306,66611,5
37314,66616,5
37303,66623,5
37311,66626,5
37319,66635,4
37326,66641,5
37340,66652,5
37327,66661,5
37333,66660,5
37339,66658,4
37341,66672,5
37342,66671,5
37340,66678,5
37343,66679,5
37349,66670,4
37337,66681,5
37352,66683,6
37349,66688,4
37347,66687,4
37359,66697,4
37354,66701,5
37353,66693,5
37359,66698,5
37363,66697,4
37359,66711,5
37365,66715,5
37368,66710,5
37364,66722,5
37370,66732,4
37371,66727,5
37374,66723,5
37331,66734,5
37372,66725,5
37366,66721,4
37372,66716,5
37309,66721,5
37368,66716,5
37374,66719,5
37365,66724,4
37329,66722,5
37369,66736,5
37378,66730,6
37382,66738,4
37409,66742,4
37376,66734,5
37382,66728,5
37372,66725,5
37435,66718,4
37358,66721,4
37360,66717,5
37370,66714,5
37413,66718,5
37374,66723,4
37372,66734,5
37374,66737,5
37392,66749,5
37383,66754,5
37390,66778,4
37396,66776,5
37402,66757,5
37410,66790,5
37417,66796,5
37413,66796,5
37403,66747,4
37400,66781,5
37399,66777,5
37398,66763,5
37387,66709,4
37396,66766,5
37388,66764,5
37389,66760,5
37392,66744,5
37385,66763,4
37389,66756,5
37388,66752,5
37391,66793,5
37393,66754,4
37390,66754,4
37376,66757,5
37383,66826,5
37382,66752,5
37383,66760,4
37383,66756,5
37390,66795,5
37389,66755,5
37388,66756,5
37380,66757,4
37390,66763,6
37391,66757,4
37382,66746,5
37389,66758,5
37384,66757,4
37387,66771,5
37392,66764,5
37398,66762,5
37393,66764,5
37383,66761,4
37383,66761,5
37383,66754,5
37383,66744,5
37385,66733,5
37379,66735,4
37380,66743,5
37376,66731,5
37374,66733,5
37377,66736,4
37372,66731,4
37379,66732,5
37381,66737,5
37373,66741,5
37382,66747,4
37374,66748,5
37378,66748,6
37377,66741,4
37379,66746,5
37378,66740,4
37376,66742,5
37373,66724,5
37374,66730,5
37376,66738,5
37367,66729,4
37363,66737,5
37371,66731,5
37374,66729,5
37374,66733,5
37383,66742,4
37370,66737,5
37378,66737,5
37374,66730,5
37370,66732,4
37366,66722,4
37369,66722,5
37358,66715,5
37355,66702,5
37359,66691,4
37346,66679,5
37338,66680,5
37333,66660,6
37321,66640,4
37310,66625,4
37294,66601,5
37283,66567,5
37255,66537,5
37246,66512,5
37235,66488,4
37227,66473,5
37208,66456,5
37210,66452,5
37210,66443,5
37204,66443,4
37199,66457,5
37211,66448,5
37215,66457,5
37220,66469,5
37225,66484,4
37231,66498,5
37240,66506,5
37252,66512,5
37247,66524,5
37244,66521,4
37249,66523,5
37246,66511,5
37242,66509,5
37243,66503,4
37237,66489,5
37227,66487,5
37224,66483,5
37216,66471,5
37206,66468,4
37212,66456,5
37207,66453,5
37211,66459,5
37173,66449,5
37212,66460,4
37214,66459,5
37213,66453,5
37149,66460,5
37215,66457,5
37217,66456,4
37214,66464,5
37164,66456,4
37211,66467,5
37216,66456,5
37212,66463,5
37243,66471,4
37219,66478,5
37217,66483,5
37233,66480,4
37291,66488,4
37233,66487,5
37237,66486,5
37237,66492,5
37295,66505,4
37239,66511,5
37242,66517,5
37253,66534,5
37276,66540,5
37260,66545,4
37262,66561,5
37277,66567,5
37289,66545,5
37282,66566,5
37281,66574,4
37281,66567,5
37279,66510,5
37271,66562,5
37267,66565,5
37267,66556,4
37266,66480,7
37273,66545,3
37272,66537,5
37266,66540,5
37261,66529,4
37262,66534,5
37260,66532,5
37259,66529,5
37251,66578,4
37261,66535,5
37256,66521,5
37244,66522,5
37255,66593,5
37250,66518,4
37251,66515,5
37248,66520,5
37256,66566,5
37249,66527,5
37257,66529,4
37257,66529,5
37258,66537,5
37255,66522,5
37252,66524,5
37259,66523,4
37255,66525,5
37254,66516,6
37249,66536,4
37245,66524,5
37250,66523,4
37255,66515,5
37244,66535,5
37245,66518,5
37246,66521,4
37250,66520,4
37240,66508,5
37243,66499,5
37244,66495,5
37240,66498,4
37229,66495,5
37219,66480,5
37218,66452,5
37208,66440,5
37191,66417,4
37171,66396,5
37174,66381,5
37160,66374,5
37170,66373,5
37157,66380,4
37166,66387,5
37167,66383,5
37168,66389,5
37184,66400,5
37183,66412,4
37192,66422,5
37195,66438,5
37196,66455,5
37204,66465,5
37211,66461,4
37228,66477,5
37232,66490,5
37231,66488,5
37231,66477,4
37229,66473,4
37221,66459,5
37212,66461,5
37209,66456,5
37211,66464,4
37210,66443,5
37199,66440,5
37203,66440,5
37191,66438,5
37205,66431,5
37197,66447,3
37208,66447,5
37200,66459,5
37206,66460,5
37207,66454,4
37210,66467,5
37211,66469,5
37220,66468,5
37218,66472,5
37212,66468,4
37220,66471,5
37227,66473,5
37223,66472,5
37208,66470,5
37211,66471,4
37223,66467,5
37218,66474,5
37215,66473,5
37211,66469,4
37216,66466,5
37222,66474,6
37221,66466,4
37224,66468,5
37218,66484,4
37213,66476,7
37218,66476,3
37215,66476,5
37218,66481,5
37223,66478,4
37217,66479,5
37222,66471,5
37225,66479,5
37217,66473,5
37173,66471,4
37221,66467,5
37216,66456,5
37205,66462,5
37150,66468,5
37207,66458,4
37207,66450,5
37200,66461,5
37167,66461,5
37210,66469,4
37219,66467,4
37216,66459,5
37245,66468,6
37216,66476,4
37217,66465,4
37221,66469,5
37287,66478,5
37226,66482,5
37230,66488,5
37232,66497,4
37286,66489,5
37236,66505,5
37238,66502,5
37233,66516,5
37256,66517,4
37240,66518,5
37245,66513,5
37243,66515,5
37248,66496,5
37242,66511,4
37247,66523,5
37245,66523,5
37247,66465,5
37246,66514,5
37241,66507,4
37237,66511,5
37228,66437,5
37232,66505,6
37226,66490,3
37238,66491,4
37220,66479,4
37227,66497,5
37222,66494,5
37229,66482,4
37227,66537,5
37225,66484,5
37215,66469,5
37220,66470,5
37213,66531,4
37217,66460,5
37213,66463,5
37215,66471,5
37209,66503,5
37211,66464,6
37213,66461,3
37215,66466,5
37210,66466,5
37209,66453,5
37200,66433,5
37203,66428,4
37174,66401,5
37172,66384,5
37158,66369,6
37148,66348,3
37148,66344,5
37144,66336,5
37138,66336,5
37137,66339,4
37148,66344,4
37143,66355,5
37153,66359,5
37165,66375,5
37166,66395,4
37181,66409,5
37172,66414,5
37193,66430,5
37197,66439,5
37198,66447,4
37199,66451,5
37199,66438,5
37185,66439,5
37197,66431,5
37184,66418,4
37176,66417,6
37185,66411,4
37177,66405,5
37176,66413,5
37177,66396,4
37170,66411,5
37181,66414,5
37188,66411,5
37180,66408,4
37193,66413,4
37189,66426,5
37197,66424,5
37192,66427,5
37203,66436,4
37195,66433,5
37204,66437,5
37201,66447,5
37197,66440,5
37205,66458,4
37210,66452,5
37206,66451,5
37203,66451,5
37199,66446,5
37206,66446,4
37206,66444,5
37203,66440,6
37197,66436,4
37191,66441,5
37197,66437,4
37198,66427,5
37199,66434,5
37200,66437,5
37191,66434,5
37189,66437,4
37193,66430,5
37187,66426,5
37180,66409,5
37181,66414,4
37171,66399,4
37172,66390,5
37162,66381,5
37162,66378,5
37157,66367,4
37155,66363,5
37153,66363,5
37157,66379,5
37162,66389,5
37174,66401,4
37194,66425,5
37199,66438,5
37209,66456,6
37215,66461,4
37213,66453,4
37210,66449,5
37196,66435,5
37196,66440,5
37193,66429,5
37182,66410,4
37135,66411,5
37183,66399,5
37178,66407,5
37188,66413,5
37134,66429,4
37194,66423,5
37193,66423,5
37199,66432,5
37149,66437,4
37197,66437,4
37200,66437,5
37182,66414,5
37207,66408,5
37181,66407,5
37177,66396,4
37170,66386,5
37234,66389,5
37168,66381,6
37170,66378,3
37171,66378,5
37213,66366,5
37156,66369,5
37158,66354,5
37156,66347,4
37169,66341,5
37149,66335,5
37135,66326,5
37131,66319,5
37121,66292,4
37116,66294,5
37099,66271,5
37085,66252,5
37075,66168,4
37046,66188,4
37036,66157,5
37018,66130,5
37006,66055,5
37003,66105,4
36999,66105,6
36992,66091,4
36986,66062,5
36986,66075,5
36981,66077,4
36990,66072,5
36985,66120,5
36986,66078,5
36992,66086,5
36997,66091,4
37004,66169,5
37007,66120,5
37008,66112,5
36996,66097,5
36996,66136,4
36986,66071,5
36974,66063,5
36966,66044,5
36962,66031,5
36959,66014,4
36947,66006,5
36936,65997,5
36937,66000,5
36926,65982,4
36935,65991,4
36936,65988,6
36940,65987,4
36940,65995,5
36938,66004,4
36941,66003,5
36940,66017,5
36947,66007,5
36937,66016,5
36936,66020,4
36951,66012,5
36953,66016,5
36949,66014,5
36944,66009,5
36942,65999,4
36930,65996,5
36929,65993,5
36938,65992,5
36930,65984,5
36927,65989,4
36931,65988,5
36934,65989,5
36923,65977,5
36923,65978,5
36923,65966,4
36917,65963,5
36909,65950,6
36908,65952,4
36908,65938,4
36891,65925,4
36889,65909,5
36881,65906,5
36874,65874,5
36858,65856,4
36846,65842,5
36832,65821,5
36829,65803,5
36813,65786,5
36812,65773,4
36816,65775,5
36807,65774,5
36794,65766,5
36802,65760,5
36804,65758,4
36799,65765,5
36800,65762,5
36806,65756,5
36812,65760,5
36805,65766,4
36806,65772,5
36802,65777,5
36805,65771,5
36808,65775,5
36811,65775,4
36811,65770,5
36805,65780,5
36808,65766,5
36805,65770,4
36799,65762,5
36800,65765,5
36801,65759,5
36797,65750,5
36795,65750,4
36789,65744,5
36789,65745,5
36782,65738,5
36785,65743,5
36789,65740,4
36789,65743,5
36791,65744,5
36790,65738,5
36776,65735,5
36779,65737,5
36786,65742,4
36786,65733,5
36784,65731,5
36779,65738,5
36777,65729,4
36776,65727,5
36746,65728,5
36773,65730,5
36774,65710,4
36770,65710,4
36705,65708,5
36765,65700,5
36767,65685,5
36753,65693,4
36711,65696,5
36761,65696,5
36754,65694,5
36767,65702,5
36791,65720,4
36774,65725,5
36791,65741,5
36788,65763,5
36874,65774,5
36811,65791,4
36811,65803,6
36825,65810,4
36891,65819,5
36836,65824,5
36833,65838,4
36835,65833,5
36854,65830,5
36841,65832,5
36837,65836,5
36843,65831,4
36847,65830,5
36857,65843,5
36847,65858,5
36850,65871,4
36863,65843,4
36880,65904,5
36893,65925,5
36904,65956,5
36919,65914,4
36943,65998,5
36947,66025,5
36958,66041,6
36962,66020,4
36965,66063,4
36981,66063,5
36984,66080,5
36991,66126,5
36991,66101,5
37002,66104,4
36996,66100,5
37001,66182,5
37006,66110,5
37001,66100,5
36999,66094,4
36992,66129,5
36993,66095,5
36990,66098,5
36991,66099,5
36992,66100,4
36994,66085,5
36993,66091,5
36988,66087,5
36988,66082,5
36981,66071,4
36982,66056,5
36969,66057,5
36973,66054,6
36964,66047,3
36961,66038,5
36966,66037,5
36963,66036,5
36960,66036,5
36964,66028,4
36967,66042,5
36961,66041,5
36954,66035,5
36966,66046,5
36965,66037,4
36970,66045,5
36966,66046,5
36964,66048,5
36977,66051,5
36968,66054,4
36980,66060,5
36987,66075,5
36990,66091,5
36993,66084,5
36994,66088,5
37002,66086,4
37000,66096,5
37003,66100,5
37003,66096,6
37004,66092,3
37003,66106,5
37002,66108,5
37001,66108,5
37008,66103,4
37008,66107,5
37004,66110,5
37009,66102,5
37009,66107,5
37004,66097,4
37004,66098,5
36995,66102,5
36995,66102,5
37009,66100,5
36999,66107,4
37007,66117,5
37016,66127,5
37021,66144,5
37022,66149,5
37029,66154,4
37042,66165,6
37043,66174,4
37047,66179,5
37048,66193,4
37056,66201,6
37062,66197,3
37053,66187,5
37051,66182,5
37048,66175,4
37043,66171,5
37040,66167,5
37040,66163,5
37037,66161,5
37036,66163,4
37029,66165,5
37040,66178,5
37042,66174,5
37046,66174,5
37052,66190,4
37050,66196,5
37061,66199,5
37055,66213,5
37065,66212,5
37073,66218,4
37072,66219,5
37077,66232,6
37075,66239,4
37071,66239,5
37069,66229,4
37080,66233,5
37081,66226,5
37042,66226,5
37074,66229,4
37078,66225,4
37078,66218,5
37022,66232,5
37074,66225,5
37072,66230,4
37068,66233,5
37010,66218,5
37073,66220,5
37074,66215,5
37067,66216,4
37085,66208,5
37064,66207,5
37069,66191,5
37053,66204,5
37116,66192,4
37058,66184,5
37049,66176,5
37049,66176,6
37108,66173,4
37042,66171,4
37049,66167,5
37042,66171,5
37065,66170,5
37040,66172,5
37046,66171,4
37056,66179,5
37052,66166,5
37044,66189,5
37047,66187,4
37052,66194,4
37062,66146,5
37058,66189,5
37060,66199,5
37056,66202,4
37066,66142,4
37070,66215,5
37070,66208,5
37067,66211,5
37063,66172,5
37071,66206,4
37060,66198,5
37054,66187,5
37057,66226,6
37051,66173,3
37047,66162,5
37044,66169,9
37034,66238,1
37035,66147,5
37032,66161,4
37039,66165,5
37038,66208,5
37044,66164,5
37044,66166,5
37048,66174,4
37055,66199,5
37060,66191,5
37050,66185,5
37054,66197,4
37059,66191,4
37060,66195,5
37056,66192,5
37054,66172,5
37046,66170,4
37039,66174,6
37039,66159,4
37041,66160,5
37036,66163,5
37033,66154,4
37042,66166,5
37044,66162,5
37043,66176,5
37050,66174,5
37052,66184,4
37052,66185,5
37051,66188,5
37054,66193,5
37061,66199,5
37063,66205,4
37052,66201,5
37068,66204,5
37069,66215,5
37065,66221,5
37063,66209,4
37063,66219,5
37071,66213,5
37064,66225,5
37070,66215,4
37064,66206,5
37064,66218,6
37064,66212,4
37074,66213,5
37076,66212,4
37073,66215,5
37077,66210,5
37073,66218,5
37068,66211,5
37073,66211,4
37063,66213,5
37065,66215,5
37076,66208,5
37070,66203,5
37062,66207,4
37066,66200,5
37060,66204,5
37061,66195,5
37060,66195,5
37060,66204,4
37056,66198,5
37057,66197,5
37056,66203,5
37063,66201,4
37064,66208,4
37063,66199,5
37056,66190,6
37063,66198,4
37060,66202,4
37065,66188,5
37066,66194,5
37063,66207,5
37064,66198,5
37058,66196,4
37061,66195,5
37068,66205,5
37060,66209,5
37071,66210,5
37061,66218,4
37067,66211,5
37068,66211,5
37072,66210,5
37067,66206,5
37066,66207,4
37071,66205,5
37074,66204,5
37067,66204,5
37055,66192,5
37052,66173,4
37043,66162,5
37024,66132,5
37010,66120,5
36976,66101,4
36997,66084,4
36993,66078,5
36986,66067,5
36926,66069,5
36985,66065,4
36987,66077,5
36996,66093,5
36957,66107,5
37015,66126,5
37021,66143,4
37031,66152,5
37065,66170,5
37060,66185,5
37065,66203,5
37076,66220,4
37146,66240,5
37102,66243,5
37092,66242,5
37098,66240,5
37154,66246,5
37092,66241,4
37091,66252,5
37093,66251,5
37121,66258,4
37105,66257,4
37108,66276,5
37121,66292,5
37132,66305,5
37148,66329,4
37148,66358,5
37160,66360,5
37168,66335,5
37183,66395,5
37179,66403,4
37181,66414,5
37195,66348,5
37202,66433,5
37202,66441,5
37216,66444,5
37210,66428,4
37221,66454,5
37213,66455,5
37216,66468,5
37226,66501,4
37219,66457,6
37210,66440,4
37200,66430,5
37194,66483,5
37199,66423,4
37201,66434,5
37211,66445,5
37220,66501,5
37219,66465,4
37226,66464,4
37228,66469,5
37231,66484,5
37234,66478,5
37231,66485,4
37234,66479,5
37228,66483,5
37239,66487,5
37237,66484,5
37236,66481,4
37224,66469,5
37227,66465,5
37230,66456,5
37222,66461,5
37225,66474,4
37227,66477,5
37237,66491,6
37236,66494,4
37243,66496,5
37249,66506,4
37250,66515,5
37261,66514,5
37260,66527,5
37266,66528,5
37264,66529,4
37263,66530,5
37260,66516,5
37260,66522,5
37267,66521,4
37280,66541,4
37271,66549,5
37281,66560,5
37280,66563,5
37283,66554,4
37276,66552,5
37269,66539,5
37264,66535,5
37270,66534,5
37268,66541,4
37266,66540,5
37279,66551,5
37282,66568,5
37293,66580,5
37301,66613,4
37315,66632,5
37323,66649,5
37337,66657,5
37345,66665,5
37348,66677,4
37339,66678,5
37349,66679,5
37350,66694,5
37353,66681,4
37348,66671,4
37349,66680,5
37357,66692,5
37367,66703,5
37359,66700,4
37360,66710,5
37382,66743,5
37396,66772,5
37430,66824,5
37451,66857,5
37478,66898,4
37478,66899,5
37484,66922,5
37500,66929,5
37512,66964,4
37539,67003,5
37547,67032,5
37546,67016,5
37543,66995,5
37520,66945,4
37464,66852,5
37408,66746,5
37343,66655,5
37300,66567,5
37253,66490,4
37209,66440,5
37194,66415,5
37166,66383,5
37152,66377,4
37164,66378,4
37177,66406,6
37180,66411,4
37193,66424,5
37185,66417,4
37153,66418,8
37193,66417,2
37208,66420,5
37199,66428,5
37134,66430,4
37199,66440,5
37209,66439,5
37215,66445,5
37170,66447,5
37217,66453,4
37222,66446,5
37215,66449,5
37233,66459,5
37216,66452,5
37219,66455,4
37218,66458,5
37279,66455,5
37216,66453,5
37220,66454,5
37225,66473,4
37277,66468,5
37219,66467,6
37215,66456,4
37217,66440,4
37228,66438,5
37205,66432,5
37189,66409,5
37191,66406,5
37180,66379,4
37173,66384,5
37162,66371,5
37159,66356,5
37155,66286,5
37146,66322,4
37135,66316,5
37137,66311,5
37123,66230,5
37114,66279,5
37112,66267,4
37103,66251,5
37081,66213,5
37071,66211,5
37057,66184,5
37052,66168,4
37043,66196,5
37038,66138,5
37032,66140,6
37029,66138,3
37039,66218,4
37039,66152,5
37043,66163,5
37051,66172,5
37054,66221,4
37068,66206,5
37067,66205,5
37063,66208,5
37075,66223,5
37080,66229,4
37085,66232,5
37074,66235,5
37084,66231,5
37075,66214,5
37074,66211,4
37068,66194,5
37060,66187,5
37059,66181,5
37048,66170,5
37056,66176,5
37054,66182,4
37049,66170,5
37047,66159,5
37042,66169,6
37052,66166,3
37049,66175,5
37042,66178,5
37048,66173,5
37051,66186,4
37067,66188,4
37063,66196,5
37061,66188,5
37069,66195,5
37064,66208,4
37074,66212,5
37081,66227,5
37082,66222,5
37086,66229,5
37091,66246,4
37096,66249,5
37099,66255,5
37088,66235,5
37091,66225,5
37077,66222,4
37081,66216,6
37077,66214,4
37089,66225,5
37088,66251,5
37101,66266,4
37119,66286,5
37132,66322,5
37169,66367,5
37198,66415,5
37216,66476,4
37245,66516,5
37259,66522,5
37259,66533,5
37252,66510,4
37245,66498,4
37232,66487,5
37228,66492,5
37232,66490,5
37247,66509,4
37250,66534,5
37273,66555,5
37296,66571,5
37289,66578,5
37280,66567,4
37271,66541,5
37253,66518,6
37236,66507,4
37238,66500,5
37251,66518,4
37249,66520,5
37259,66526,5
37261,66541,5
37266,66548,5
37274,66554,4
37271,66567,5
37270,66555,5
37276,66550,5
37267,66542,4
37265,66541,4
37256,66533,5
37256,66526,5
37247,66525,5
37251,66520,4
37253,66508,5
37245,66516,5
37235,66501,5
37241,66501,5
37238,66503,4
37230,66490,5
37184,66488,5
37235,66483,6
37235,66480,4
37222,66471,4
37162,66456,5
37219,66453,5
37214,66450,5
37206,66436,5
37158,66426,4
37193,66413,5
37176,66396,5
37167,66371,5
37192,66358,5
37135,66342,4
37128,66314,5
37122,66308,5
37189,66294,5
37110,66287,4
37114,66291,4
37116,66282,5
37156,66274,5
37118,66294,5
37118,66297,5
37119,66310,4
37148,66324,5
37137,66331,5
37140,66340,6
37154,66349,3
37151,66330,5
37161,66367,5
37160,66378,5
37155,66371,5
37157,66310,4
37156,66356,5
37152,66357,5
37147,66341,5
37142,66270,5
37143,66338,4
37139,66339,5
37132,66329,5
37137,66332,5
37133,66332,5
37134,66339,6
37139,66333,3
37136,66376,5
37147,66325,5
37146,66331,4
37137,66349,5
37144,66416,4
37158,66351,5
37144,66352,5
37154,66346,4
37151,66383,5
37150,66352,5
37155,66360,5
37159,66373,5
37153,66369,4
37159,66356,5
37157,66366,5
37158,66368,5
37160,66362,5
37160,66361,4
37162,66369,5
37152,66359,5
37159,66365,5
37158,66369,5
37159,66368,4
37155,66364,5
37150,66352,5
37155,66359,5
37148,66368,4
37155,66361,4
37151,66357,6
37154,66355,4
37148,66345,5
37143,66338,4
37143,66343,5
37136,66340,5
37142,66331,5
37133,66317,5
37128,66320,4
37141,66324,5
37141,66325,5
37144,66334,5
37142,66331,5
37136,66339,4
37140,66336,5
37147,66345,5
37143,66355,5
37151,66352,5
37155,66352,4
37154,66360,5
37152,66358,5
37156,66359,5
37158,66361,5
37154,66363,4
37160,66366,5
37152,66356,6
37154,66369,4
37164,66376,4
37158,66374,4
37167,66384,5
37166,66381,5
37174,66407,5
37183,66416,4
37185,66433,5
37197,66442,5
37205,66459,5
37219,66466,5
37222,66469,4
37223,66473,5
37232,66471,5
37224,66464,5
37226,66466,5
37207,66445,4
37208,66441,5
37216,66451,5
37217,66473,5
37241,66503,5
37264,66558,4
37291,66579,5
37284,66592,5
37280,66564,5
37261,66542,5
37262,66530,4
37250,66533,5
37258,66530,5
37274,66562,5
37292,66605,4
37325,66645,4
37338,66671,5
37337,66679,5
37341,66684,5
37343,66685,4
37336,66662,5
37333,66657,5
37324,66664,5
37321,66663,5
37342,66668,4
37345,66673,5
37331,66645,5
37273,66637,5
37310,66621,5
37302,66597,5
37276,66565,4
37207,66545,5
37256,66531,5
37245,66497,5
37219,66475,4
37181,66456,5
37189,66413,5
37175,66394,5
37162,66379,5
37203,66371,4
37157,66365,5
37153,66361,5
37152,66356,5
37214,66354,4
37147,66354,5
37148,66359,5
37151,66369,5
37196,66367,5
37155,66374,4
37168,66383,5
37176,66399,6
37194,66415,4
37190,66425,5
37182,66432,4
37197,66439,6
37180,66401,4
37181,66404,5
37168,66408,5
37163,66390,4
37167,66334,5
37153,66370,5
37148,66368,5
37152,66368,5
37144,66282,4
37146,66350,5
37137,66354,5
37139,66341,5
37150,66344,4
37142,66342,4
37140,66344,5
37143,66348,5
37147,66405,5
37140,66348,4
37149,66357,5
37149,66348,5
37153,66428,5
37148,66358,5
37153,66354,4
37141,66350,5
37142,66389,5
37146,66348,5
37142,66348,5
37152,66337,4
37139,66347,5
37138,66336,5
37135,66335,5
37129,66325,5
37125,66315,4
37126,66309,5
37118,66305,5
37118,66307,5
37112,66295,5
37119,66294,4
37118,66300,5
37107,66286,5
37118,66278,5
37101,66273,5
37099,66267,4
37082,66251,5
37083,66248,5
37078,66233,6
37076,66230,3
37076,66215,5
37070,66214,5
37062,66203,5
37057,66196,5
37055,66197,4
37047,66192,5
37058,66192,5
37052,66187,5
37057,66199,5
37053,66186,4
37049,66194,5
37042,66179,5
37050,66189,5
37053,66184,5
37052,66187,4
37060,66191,5
37055,66204,5
37055,66196,5
37063,66197,5
37053,66208,5
37056,66207,4
37057,66210,5
37056,66213,5
37058,66202,6
37063,66203,3
37063,66208,5
37060,66194,5
37056,66187,5
37050,66192,4
37051,66188,5
37047,66185,5
37052,66178,5
37050,66180,5
37049,66176,4
37041,66173,5
37034,66155,5
37041,66153,5
37030,66151,5
37026,66137,4
37019,66131,5
37016,66121,5
37008,66099,5
36997,66084,5
36979,66068,4
36972,66053,6
36961,66027,4
36952,66019,5
36946,66002,5
36936,65981,6
36914,65959,3
36908,65939,5
36898,65912,5
36874,65889,4
36867,65866,5
36857,65848,5
36841,65844,5
36842,65835,5
36845,65826,4
36831,65826,5
36829,65819,5
36835,65819,5
36835,65819,5
36833,65826,4
36838,65827,5
36840,65833,5
36847,65843,5
36814,65865,5
36863,65859,4
36863,65868,5
36855,65866,6
36800,65861,4
36857,65849,5
36850,65858,4
36847,65836,5
36806,65822,5
36830,65817,5
36833,65809,4
36829,65810,4
36855,65797,5
36815,65796,5
36817,65790,5
36828,65790,4
36887,65795,5
36812,65793,5
36826,65803,5
36821,65813,5
36880,65827,4
36834,65821,5
36833,65831,5
36836,65833,5
36865,65843,5
36848,65848,4
36859,65856,5
36860,65866,5
36861,65855,6
36871,65862,4
36865,65862,4
36860,65856,5
36860,65808,5
36861,65860,5
36856,65855,5
36855,65850,4
36854,65784,5
36854,65839,5
36849,65837,5
36836,65829,5
36838,65822,4
36833,65805,5
36834,65808,5
36824,65788,5
36810,65834,4
36803,65752,5
36797,65743,5
36778,65721,5
36771,65776,5
36756,65672,5
36740,65667,4
36735,65643,5
36718,65654,5
36710,65591,6
36692,65574,3
36679,65546,5
36671,65534,5
36661,65511,5
36647,65502,5
36638,65486,4
36649,65486,5
36647,65487,5
36643,65489,5
36651,65502,5
36655,65498,4
36659,65519,5
36663,65516,5
36662,65530,5
36660,65526,4
36675,65546,5
36687,65553,5
36684,65565,5
36694,65571,5
36699,65579,4
36692,65589,6
36707,65598,4
36707,65599,5
36712,65611,5
36724,65615,4
36721,65631,5
36731,65639,5
36744,65658,5
36750,65688,5
36765,65709,4
36782,65714,5
36778,65734,5
36798,65741,5
36800,65749,5
36812,65770,4
36816,65778,5
36824,65794,5
36837,65803,5
36844,65837,4
36858,65834,4
36865,65871,5
36870,65882,5
36882,65900,5
36886,65886,4
36879,65885,5
36881,65864,6
36865,65860,4
36859,65838,5
36849,65837,4
36843,65831,5
36842,65834,5
36844,65823,5
36853,65836,5
36849,65836,4
36839,65839,5
36854,65853,5
36864,65870,5
36870,65897,5
36889,65910,4
36888,65916,5
36898,65935,5
36911,65947,5
36922,65955,5
36919,65956,4
36922,65972,5
36931,65981,5
36934,65976,5
36924,65979,4
36921,65981,4
36925,65973,5
36927,65971,6
36925,65974,4
36924,65973,4
36925,65974,5
36930,65990,5
36921,66000,5
36942,66001,5
36954,66022,4
36960,66042,5
36977,66070,5
36986,66090,5
37010,66121,5
37020,66139,4
37024,66157,5
37047,66185,5
37052,66185,5
37059,66208,5
37020,66213,4
37070,66226,5
37076,66228,5
37078,66231,5
37024,66237,5
37082,66235,4
37077,66238,5
37075,66227,5
37041,66232,5
37068,66223,4
37066,66229,4
37068,66222,5
37101,66223,5
37058,66216,5
37058,66209,4
37063,66197,5
37117,66195,5
37050,66184,5
37049,66182,5
37043,66175,4
37089,66169,5
37029,66170,5
37039,66158,5
37028,66166,5
37047,66162,4
37019,66144,5
37011,66135,5
37011,66131,5
37021,66103,5
37016,66124,5
37011,66135,4
37009,66126,5
37012,66072,5
37011,66128,5
37023,66135,4
37020,66137,5
37022,66075,9
37019,66151,1
37027,66129,4
37034,66161,5
37039,66175,4
37047,66190,5
37049,66196,5
37066,66211,4
37066,66270,5
37073,66232,5
37068,66240,5
37073,66240,5
37081,66309,4
37075,66239,5
37082,66247,5
37081,66242,5
37087,66264,5
37078,66231,4
37069,66224,6
37067,66210,4
37070,66212,5
37056,66198,5
37043,66194,4
37056,66190,5
37047,66182,5
37050,66177,5
37048,66179,4
37050,66174,4
37040,66177,5
37048,66175,5
37046,66185,5
37053,66186,4
37058,66186,5
37054,66192,5
37048,66193,5
37053,66186,5
37062,66192,4
37056,66192,5
37050,66185,5
37041,66170,5
37036,66155,5
37035,66149,4
37013,66138,5
37020,66127,7
37015,66127,3
37015,66118,5
37016,66127,4
37017,66121,5
37018,66139,5
37022,66141,5
37027,66152,5
37039,66163,4
37032,66180,5
37035,66183,5
37055,66198,5
37063,66208,4
37070,66221,4
37072,66230,5
37069,66229,5
37081,66225,5
37080,66242,4
37081,66245,5
37089,66249,5
37088,66250,5
37096,66255,5
37093,66253,4
37090,66249,5
37090,66247,5
37086,66246,5
37083,66250,5
37090,66242,4
37090,66241,5
37086,66235,5
37078,66228,5
37080,66234,5
37080,66223,4
37078,66214,5
37069,66202,5
37062,66194,5
37060,66184,5
37051,66182,4
37043,66184,5
37042,66165,5
37031,66160,5
37043,66165,4
37042,66162,5
37041,66176,5
37051,66177,5
37051,66193,5
37051,66192,5
37062,66199,4
37070,66209,5
37063,66206,5
37068,66222,5
37075,66231,4
37088,66243,5
37104,66272,5
37118,66296,5
37138,66331,5
37156,66344,4
37164,66360,5
37155,66364,5
37165,66372,5
37159,66368,5
37157,66338,4
37102,66333,5
37129,66306,5
37129,66315,5
37129,66324,4
37074,66326,4
37148,66344,5
37153,66363,4
37167,66379,5
37153,66394,4
37179,66410,7
37208,66435,3
37220,66479,5
37288,66507,5
37261,66524,4
37263,66540,5
37270,66550,5
37345,66561,5
37291,66592,5
37308,66613,4
37315,66657,5
37391,66699,5
37376,66737,5
37373,66722,5
37361,66703,4
37350,66665,5
37323,66618,5
37294,66593,5
37285,66582,5
37293,66552,4
37290,66595,5
37291,66584,6
37286,66584,4
37296,66545,4
37307,66613,4
37309,66617,5
37307,66628,5
37300,66552,5
37300,66599,4
37287,66579,5
37280,66567,5
37274,66556,5
37257,66535,5
37262,66534,4
37243,66523,5
37242,66567,5
37248,66496,5
37241,66500,5
37238,66481,4
37231,66539,5
37222,66469,5
37219,66471,5
37218,66463,5
37211,66485,4
37214,66457,5
37206,66439,5
37205,66438,6
37189,66420,4
37188,66402,4
37162,66364,5
37158,66355,5
37147,66328,5
37119,66305,4
37113,66284,4
37111,66275,5
37101,66270,5
37105,66266,5
37107,66266,4
37094,66251,5
37087,66255,5
37091,66249,5
37091,66252,5
37084,66238,4
37098,66238,5
37087,66224,5
37079,66220,5
37071,66214,5
37071,66207,5
37061,66204,4
37067,66197,5
37066,66211,5
37060,66199,6
37071,66204,3
37064,66195,5
37060,66198,5
37066,66196,5
37061,66191,5
37055,66189,4
37059,66189,5
37054,66186,5
37059,66172,5
37050,66164,4
37054,66177,5
37054,66178,5
37051,66177,5
37051,66187,5
37061,66200,4
37062,66197,5
37065,66207,5
37073,66215,5
37070,66225,5
37078,66219,4
37081,66229,6
37072,66228,4
37080,66233,5
37072,66237,5
37076,66225,4
37070,66211,5
37075,66201,5
37057,66196,5
37061,66199,5
37058,66195,4
37061,66189,5
37053,66183,5
37050,66188,5
37057,66172,4
37047,66180,4
37055,66187,5
37050,66175,5
37049,66177,5
37055,66185,4
37049,66179,5
37050,66173,5
37053,66177,5
37047,66184,5
37050,66180,4
37056,66192,5
37053,66180,6
37063,66182,4
37062,66189,5
37057,66188,4
37057,66188,5
37061,66185,5
37058,66187,5
37070,66194,5
37066,66188,4
37058,66202,5
37062,66202,5
37053,66201,5
37060,66203,5
37060,66208,4
37068,66220,5
37026,66219,5
37074,66219,5
37072,66214,4
37070,66228,4
37009,66224,5
37078,66222,5
37075,66223,5
37078,66229,4
37058,66224,5
37076,66228,5
37082,66229,6
37082,66238,4
37119,66239,4
37084,66235,5
37084,66225,5
37073,66231,5
37156,66234,5
37081,66243,4
37090,66249,5
37091,66250,5
37138,66252,5
37098,66256,5
37090,66265,4
37104,66265,5
37114,66273,5
37101,66270,5
37107,66270,5
37104,66266,4
37101,66244,5
37091,66251,5
37085,66257,5
37090,66251,5
37095,66191,4
37091,66240,5
37086,66240,5
37082,66241,5
37090,66180,4
37090,66245,5
37091,66251,5
37094,66261,5
37094,66268,5
37092,66259,4
37104,66273,5
37099,66275,5
37113,66341,5
37104,66284,5
37113,66290,4
37123,66284,5
37117,66362,5
37104,66275,5
37112,66278,5
37118,66279,4
37103,66301,5
37108,66272,5
37109,66268,5
37110,66269,4
37102,66267,5
37098,66263,4
37100,66265,5
37105,66276,5
37100,66275,4
37113,66275,5
37098,66281,5
37112,66283,5
37107,66281,5
37111,66273,4
37110,66280,5
37117,66284,5
37109,66284,5
37116,66283,5
37108,66289,4
37108,66288,5
37116,66296,5
37117,66288,5
37108,66281,5
37124,66285,4
37114,66287,5
37108,66287,5
37114,66289,5
37108,66293,5
37115,66294,4
37119,66301,6
37119,66289,4
37126,66301,5
37123,66299,4
37118,66295,4
37119,66300,5
37126,66297,5
37117,66292,5
37118,66293,4
37116,66286,5
37111,66294,5
37112,66287,5
37114,66284,5
37114,66294,4
37116,66293,5
37106,66291,5
37115,66283,5
37114,66277,5
37117,66281,4
37118,66292,5
37112,66290,5
37115,66294,5
37115,66299,5
37113,66295,4
37125,66295,5
37112,66295,6
37119,66305,4
37119,66306,5
37128,66305,4
37130,66315,5
37137,66310,5
37140,66327,5
37131,66326,4
37135,66324,4
37134,66330,5
37145,66330,5
37136,66340,5
37141,66326,4
37144,66327,5
37139,66335,5
37145,66332,5
37140,66344,5
37141,66335,4
37142,66333,5
37131,66321,5
37127,66310,5
37117,66291,5
37107,66272,4
37096,66262,5
37087,66261,5
37089,66242,5
37079,66239,5
37082,66233,4
37073,66233,5
37085,66243,5
37087,66242,5
37069,66247,5
37093,66260,4
37098,66277,5
37113,66283,5
37068,66300,5
37126,66323,4
37143,66330,5
37139,66349,5
37084,66350,5
37145,66357,5
37155,66355,4
37158,66367,6
37128,66350,4
37147,66342,5
37150,66343,5
37137,66342,5
37172,66331,4
37128,66333,5
37129,66317,5
37133,66323,5
37203,66316,4
37128,66322,5
37132,66326,5
37133,66323,5
37182,66325,5
37138,66329,4
37143,66341,5
37151,66345,5
37157,66341,5
37147,66350,4
37151,66351,4
37146,66357,5
37156,66339,5
37161,66370,5
37155,66374,4
37164,66370,7
37159,66322,3
37166,66373,5
37167,66385,5
37156,66373,5
37166,66319,5
37165,66379,4
37164,66388,5
37167,66383,5
37168,66381,4
37170,66387,5
37174,66390,5
37171,66390,5
37169,66438,5
37175,66394,4
37173,66390,5
37170,66392,5
37170,66459,5
37174,66383,5
37172,66378,4
37173,66381,5
37167,66412,5
37167,66377,5
37160,66367,4
37157,66368,4
37158,66376,5
37156,66367,5
37152,66353,5
37161,66354,4
37160,66362,5
37155,66358,5
37153,66358,5
37161,66356,5
37163,66364,4
37156,66368,5
37158,66369,5
37166,66374,5
37168,66380,5
37171,66387,4
37178,66395,5
37173,66392,5
37175,66385,5
37162,66374,5
37160,66370,4
37152,66364,5
37162,66358,5
37160,66370,5
37166,66370,5
37165,66365,4
37163,66363,5
37156,66362,5
37159,66360,6
37163,66352,3
37151,66354,4
37150,66357,5
37154,66363,5
37160,66366,5
37166,66378,4
37169,66376,5
37175,66398,5
37175,66397,5
37180,66411,5
37189,66416,4
37194,66434,5
37209,66458,5
37218,66469,5
37228,66475,5
37221,66483,4
37216,66477,5
37212,66466,5
37216,66464,5
37211,66463,5
37211,66457,5
37204,66437,4
37197,66432,5
37191,66414,5
37172,66400,6
37170,66376,3
37151,66358,5
37146,66333,5
37128,66313,5
37119,66293,4
37105,66278,5
37102,66266,5
37098,66269,5
37088,66260,5
37091,66260,4
37085,66251,5
37098,66265,5
37099,66276,5
37104,66290,5
37119,66304,4
37124,66321,5
37131,66332,5
37131,66338,5
37138,66340,5
37143,66356,4
37150,66352,6
37137,66340,4
37144,66338,5
37132,66321,5
37134,66319,6
37113,66304,3
37115,66293,5
37113,66300,5
37110,66298,4
37099,66289,4
37106,66291,5
37103,66291,5
37107,66290,5
37058,66281,4
37109,66293,5
37120,66299,5
37118,66297,5
37058,66309,5
37118,66315,4
37128,66310,5
37131,66317,5
37109,66327,5
37122,66317,5
37137,66317,4
37127,66319,5
37168,66323,6
37129,66314,4
37123,66315,5
37128,66317,4
37198,66316,5
37123,66314,5
37121,66313,5
37120,66302,5
37157,66311,4
37115,66313,5
37125,66312,5
37127,66318,5
37139,66315,4
37129,66309,4
37130,66316,5
37127,66312,5
37130,66287,5
37123,66321,4
37117,66310,5
37121,66307,5
37115,66237,5
37105,66297,5
37108,66288,4
37110,66285,5
37103,66206,5
37095,66275,6
37097,66282,4
37100,66280,5
37101,66277,4
37103,66277,5
37102,66269,5
37103,66277,5
37102,66325,4
37095,66261,5
37099,66265,5
37088,66271,5
37097,66341,5
37096,66263,4
37094,66273,5
37110,66275,5
37102,66306,5
37114,66287,4
37102,66278,5
37099,66284,5
37113,66285,5
37105,66288,5
37109,66287,5
37112,66282,4
37109,66292,5
37103,66272,5
37103,66263,6
37095,66265,3
37091,66256,5
37087,66253,5
37093,66255,5
37093,66248,5
37085,66237,4
37081,66244,5
37071,66234,5
37078,66239,5
37087,66232,5
37077,66230,4
37076,66230,5
37075,66228,5
37076,66228,5
37071,66224,4
37067,66213,4
37067,66199,5
37055,66189,5
37046,66188,5
37046,66176,4
37031,66169,6
37027,66148,4
37016,66129,5
37013,66098,5
36990,66083,4
36982,66074,5
36981,66044,5
36963,66039,5
36964,66041,5
36964,66040,4
36971,66050,5
36974,66060,5
36975,66059,5
36975,66065,5
36981,66077,4
36986,66075,5
36987,66090,5
36992,66103,5
37003,66108,5
36998,66103,4
37002,66109,5
37003,66115,5
37002,66118,5
37005,66117,4
37005,66106,4
36998,66104,6
37002,66091,4
36990,66111,5
36994,66096,4
36991,66094,5
36981,66086,5
36985,66087,5
36981,66078,5
36987,66082,4
36988,66079,5
36986,66075,5
36983,66071,5
36977,66081,5
36992,66077,4
36986,66081,5
36993,66089,5
36990,66098,5
36979,66083,5
36993,66081,4
36987,66087,5
36982,66085,5
36991,66094,5
36994,66091,4
36999,66087,4
36996,66085,5
36990,66083,6
36986,66080,4
36982,66074,4
36980,66069,5
36952,66067,5
36968,66057,5
36967,66042,5
36960,66035,4
36908,66030,5
36950,66021,5
36944,66009,5
36941,66000,5
36868,65982,4
36927,65973,5
36929,65974,5
36907,65945,5
36897,65931,5
36890,65909,4
36887,65908,5
36873,65877,5
36906,65875,5
36853,65852,5
36847,65839,4
36838,65827,5
36900,65821,5
36816,65807,6
36820,65789,3
36805,65783,4
36845,65774,5
36811,65779,5
36812,65785,5
36808,65775,4
36818,65779,5
36817,65794,5
36819,65789,5
36821,65790,5
36825,65771,4
36824,65805,5
36821,65798,5
36828,65794,5
36823,65739,5
36824,65791,4
36816,65785,5
36808,65780,5
36811,65723,5
36806,65775,5
36792,65764,5
36798,65751,4
36787,65752,5
36772,65719,5
36773,65713,5
36771,65704,4
36763,65750,5
36755,65684,5
36744,65673,5
36734,65652,4
36730,65700,4
36721,65613,5
36706,65598,5
36701,65575,5
36682,65578,4
36664,65532,5
36664,65518,5
36653,65486,5
36626,65469,5
36615,65435,4
36603,65411,5
36584,65387,5
36563,65358,5
36553,65328,5
36538,65316,4
36529,65277,7
36504,65253,3
36490,65228,5
36483,65207,5
36467,65176,4
36452,65166,5
36456,65170,5
36450,65173,5
36452,65180,4
36464,65198,4
36472,65211,5
36482,65224,5
36479,65223,5
36491,65227,4
36480,65227,5
36484,65235,5
36492,65232,5
36495,65227,5
36492,65248,4
36505,65256,5
36507,65266,5
36515,65278,5
36531,65305,5
36544,65335,4
36565,65368,5
36585,65408,6
36613,65446,4
36640,65488,5
36673,65558,4
36715,65640,5
36749,65675,5
36763,65708,5
36793,65739,5
36812,65784,4
36843,65844,5
36893,65926,5
36929,66001,5
36978,66060,4
37002,66116,4
37030,66158,5
37055,66207,5
37087,66228,5
37107,66275,4
37116,66295,5
37124,66301,5
37112,66308,5
37133,66332,5
37148,66372,4
37171,66408,5
37185,66433,5
37203,66438,5
37203,66451,5
37214,66458,4
37221,66476,5
37221,66471,5
37225,66478,5
37219,66488,5
37229,66492,4
37227,66486,5
37233,66504,5
37258,66548,5
37282,66590,5
37291,66607,4
37298,66589,5
37268,66562,5
37258,66545,5
37257,66541,4
37266,66546,4
37282,66590,5
37302,66618,5
37297,66615,5
37307,66618,5
37316,66645,4
37326,66663,5
37330,66681,5
37342,66671,5
37336,66663,4
37331,66671,5
37300,66690,5
37358,66719,5
37367,66727,5
37344,66687,4
37274,66687,5
37349,66682,5
37341,66677,5
37343,66687,5
37337,66688,4
37339,66675,5
37330,66656,5
37316,66647,5
37354,66624,4
37292,66603,4
37287,66590,5
37265,66550,4
37316,66531,5
37241,66497,4
37214,66468,7
37209,66450,3
37228,66431,5
37179,66402,5
37168,66374,4
37164,66371,5
37162,66364,5
37149,66361,9
37160,66367,1
37163,66342,4
37155,66327,5
37154,66361,5
37154,66358,5
37158,66360,5
37150,66300,4
37155,66353,5
37149,66346,5
37139,66335,5
37126,66272,5
37131,66324,4
37123,66306,5
37117,66281,6
37107,66292,4
37087,66246,4
37078,66230,4
37065,66212,5
37067,66276,5
37064,66209,5
37063,66215,4
37071,66222,5
37077,66299,5
37076,66234,5
37067,66221,5
37066,66229,4
37078,66246,5
37078,66226,5
37082,66243,5
37080,66238,5
37090,66243,4
37087,66255,5
37088,66263,5
37094,66260,5
37101,66263,5
37097,66264,4
37106,66263,5
37101,66271,5
37103,66272,6
37102,66266,4
37098,66271,4
37103,66276,5
37111,66269,5
37108,66260,5
37108,66266,4
37101,66266,4
37103,66266,5
37102,66271,5
37093,66261,5
37096,66255,4
37090,66247,5
37081,66223,5
37080,66221,5
37068,66213,5
37062,66198,4
37054,66176,5
37044,66165,5
37027,66150,5
37020,66126,5
37020,66133,5
37024,66123,4
37020,66119,5
37019,66129,5
37021,66121,6
37020,66125,3
37019,66118,5
37016,66127,5
37021,66136,5
37021,66132,4
37026,66141,4
37029,66141,5
37024,66130,5
37021,66145,5
37014,66130,4
37021,66129,5
37022,66132,5
37030,66136,5
37030,66139,5
37029,66135,4
37028,66137,5
37030,66136,5
37022,66136,5
37019,66121,5
37011,66112,4
37013,66114,6
36995,66105,4
37004,66090,5
36997,66086,5
36985,66070,4
36991,66073,5
36987,66070,5
36996,66075,5
36994,66086,5
37002,66100,4
37016,66110,5
37011,66111,5
37014,66113,5
37020,66120,4
37017,66116,4
37024,66117,5
37021,66122,5
37021,66121,5
37023,66135,4
37031,66127,5
37018,66119,5
37011,66115,5
37018,66112,5
37014,66109,4
37007,66109,5
37009,66104,6
37001,66115,4
36984,66104,5
37016,66111,4
37015,66121,5
37021,66119,5
36969,66126,5
37024,66125,5
37025,66128,4
37021,66129,5
36961,66122,5
37019,66132,5
37022,66144,5
37030,66142,4
37027,66145,5
37029,66148,5
37037,66161,5
37036,66161,4
37084,66162,4
37039,66155,5
37035,66152,5
37043,66153,5
37105,66142,4
37037,66144,5
37030,66142,5
37030,66140,6
37062,66141,4
37023,66133,4
37028,66138,5
37020,66133,5
37036,66131,5
37023,66124,5
37016,66117,4
37010,66104,5
37009,66063,5
37001,66099,5
37008,66093,5
36996,66090,4
37003,66029,5
36996,66072,5
36997,66074,5
36995,66074,5
36995,66012,4
36996,66070,5
36995,66070,5
36987,66063,5
36984,66071,5
36998,66073,4
36998,66075,5
37004,66082,5
37009,66150,6
37007,66096,3
37012,66092,5
37012,66111,5
37016,66172,5
37016,66108,5
37014,66107,4
37020,66109,5
37017,66137,5
37020,66109,5
37012,66110,5
37017,66110,4
37015,66112,5
37006,66109,5
37019,66108,5
37008,66101,5
37009,66105,4
37013,66101,5
37016,66111,5
37019,66121,5
37034,66136,4
37037,66141,5
37049,66160,4
37044,66158,5
37056,66165,5
37034,66156,4
37045,66159,5
37038,66151,5
37042,66153,5
37031,66149,5
37040,66140,4
37035,66146,5
37030,66142,5
37028,66133,5
37019,66126,5
37021,66112,4
37017,66103,5
37011,66103,5
37007,66091,5
37012,66090,5
37011,66100,4
37004,66105,5
37009,66097,5
37012,66099,5
37017,66105,5
37005,66108,4
37015,66110,6
37007,66102,4
37003,66110,5
37014,66107,4
37007,66106,4
37013,66089,5
37010,66094,5
37001,66090,5
36990,66074,4
36995,66073,5
36990,66080,5
36987,66075,5
36996,66074,5
36986,66071,4
36991,66081,5
36994,66069,5
36998,66070,5
36993,66073,5
36994,66061,4
36997,66063,5
36992,66062,5
36994,66061,5
36982,66056,5
36977,66056,4
36971,66052,5
36978,66043,6
36974,66047,4
36976,66052,4
36986,66053,4
36978,66066,5
36988,66063,5
36994,66070,5
36995,66074,4
36999,66085,5
36994,66090,5
37000,66087,5
37002,66085,5
36995,66096,4
37003,66094,5
37005,66099,5
37009,66093,5
37010,66092,5
36997,66104,4
37001,66090,5
36998,66097,5
37002,66090,5
36997,66087,5
36973,66081,4
36983,66071,5
36980,66046,5
36971,66034,5
36913,66035,5
36964,66023,4
36949,66017,5
36950,66000,5
36875,66002,5
36942,65984,4
36936,65985,4
36928,65975,5
36921,65969,5
36926,65969,5
36926,65957,4
36914,65946,5
36959,65937,5
36908,65934,5
36910,65932,5
36903,65916,4
36954,65914,5
36888,65896,5
36878,65885,5
36870,65880,5
36899,65859,5
36863,65859,4
36855,65854,5
36862,65842,5
36871,65855,5
36854,65852,4
36852,65844,5
36855,65843,5
36851,65808,5
36863,65844,5
36857,65840,4
36851,65846,5
36850,65785,5
36850,65842,5
36859,65838,4
36848,65831,4
36852,65770,5
36860,65841,5
36858,65841,5
36857,65845,5
36857,65869,4
36873,65852,5
36863,65869,5
36875,65882,5
36887,65940,4
36874,65877,6
36880,65887,4
36885,65888,5
36885,65955,5
36892,65903,4
36914,65934,5
36928,65955,5
36928,66004,5
36948,66004,5
36958,66015,4
36958,66022,5
36971,66037,5
36980,66054,5
36995,66103,5
37034,66145,4
37068,66201,5
37096,66234,5
37099,66255,5
37105,66257,4
37113,66262,4
37118,66284,5
37137,66330,5
37182,66402,5
37209,66456,4
37231,66491,5
37235,66482,5
37214,66445,5
37203,66430,5
37208,66431,4
37220,66448,5
37229,66467,5
37239,66499,5
37272,66554,5
37299,66606,4
37311,66642,5
37338,66671,5
37359,66696,5
37347,66689,5
37346,66672,4
37344,66676,5
37339,66663,5
37336,66665,5
37340,66680,5
37360,66695,4
37379,66741,5
37409,66799,5
37423,66824,6
37436,66835,3
37434,66830,5
37406,66781,5
37379,66722,5
37341,66657,5
37310,66627,4
37309,66592,5
37293,66574,5
37260,66556,5
37259,66533,5
37246,66514,4
37238,66520,5
37253,66525,5
37266,66541,5
37263,66538,5
37256,66507,4
37243,66505,5
37236,66499,5
37242,66512,5
37245,66521,5
37244,66514,5
37246,66507,4
37240,66496,5
37215,66467,5
37196,66411,6
37170,66376,3
37154,66339,5
37134,66320,5
37126,66297,5
37104,66285,4
37111,66265,5
37096,66255,5
37085,66236,5
37082,66228,5
37074,66230,4
37075,66233,5
37073,66228,5
37079,66222,5
37076,66226,5
37070,66225,4
37079,66223,5
37066,66213,5
37066,66208,5
37053,66202,5
37059,66200,4
37029,66183,6
37052,66183,4
37034,66175,5
37038,66166,5
36984,66163,6
37033,66144,3
37021,66141,5
37020,66132,5
36954,66132,4
37014,66128,4
37019,66117,5
37014,66118,5
37002,66104,5
36996,66097,4
36995,66088,5
36989,66082,5
37038,66074,5
36980,66071,5
36981,66053,4
36972,66053,5
37046,66054,5
36968,66045,5
36963,66048,5
36970,66048,4
36995,66046,7
36970,66039,4
36960,66036,4
36971,66042,5
36979,66033,4
36965,66039,5
36959,66035,5
36967,66041,5
36967,66010,5
36971,66043,4
36967,66042,5
36967,66042,5
36966,65976,5
36967,66049,4
36966,66035,4
36972,66045,5
36970,65989,5
36967,66043,5
36964,66044,4
36966,66050,6
36972,66070,4
36963,66039,5
36974,66042,5
36966,66034,4
36960,66101,5
36966,66041,5
36964,66040,6
36955,66039,4
36962,66098,4
36961,66035,5
36962,66036,5
36961,66039,5
36966,66054,5
36967,66025,4
36961,66030,5
36952,66029,5
36959,66024,5
36961,66034,5
36955,66033,4
36957,66034,5
36960,66028,5
36964,66028,5
36957,66029,4
36960,66030,4
36962,66027,5
36962,66030,5
36955,66030,5
36953,66033,5
36963,66022,4
36954,66018,5
36949,66013,5
36953,66007,6
36938,65979,3
36922,65963,5
36904,65945,5
36903,65926,5
36884,65902,5
36890,65908,4
36891,65901,5
36887,65903,5
36892,65914,5
36888,65916,5
36897,65926,4
36894,65948,5
36908,65950,5
36917,65964,5
36923,65983,4
36938,66012,4
36949,66018,5
36964,66032,5
36966,66050,5
36972,66060,4
36976,66063,6
36977,66058,4
36972,66054,5
36971,66047,5
36951,66038,4
36958,66026,5
36954,66023,5
36952,66017,5
36951,66010,5
36937,66004,4
36955,65998,5
36941,65998,5
36953,66005,5
36948,66013,5
36950,66011,4
36955,66025,5
36959,66034,5
36968,66041,5
36971,66045,5
36965,66041,4
36972,66037,5
36969,66037,5
36971,66034,5
36968,66034,4
36970,66047,4
36973,66049,6
36987,66074,4
37000,66086,5
36998,66105,4
37013,66123,5
37013,66138,5
37032,66137,5
37032,66154,5
37047,66170,4
37059,66194,5
37072,66206,5
37075,66221,5
37072,66230,5
37080,66236,4
37083,66234,5
37083,66230,5
37078,66221,5
37073,66220,5
37067,66204,4
37058,66203,5
37032,66199,5
37054,66190,5
37060,66189,5
37055,66181,4
36997,66177,5
37049,66190,6
37054,66193,4
37059,66193,4
37002,66188,4
37061,66190,5
37051,66190,5
37051,66184,5
37052,66176,4
37050,66166,5
37038,66172,5
37048,66179,5
37102,66177,5
37048,66181,4
37046,66180,5
37049,66188,5
37126,66195,5
37058,66194,5
37060,66192,4
37055,66193,5
37085,66189,5
37054,66180,5
37054,66197,5
37052,66180,4
37056,66175,5
37045,66175,5
37040,66180,6
37051,66169,4
37052,66140,4
37040,66172,5
37045,66163,5
37042,66162,5
37033,66093,4
37024,66155,4
37024,66140,5
37018,66129,5
37012,66075,5
36998,66109,4
36996,66099,5
37005,66093,5
36986,66098,5
36983,66075,5
36982,66072,4
36977,66058,5
36973,66120,5
36976,66060,5
36967,66058,5
36976,66067,5
36975,66130,4
36977,66074,5
36983,66077,5
36988,66085,5
36994,66110,4
36991,66097,5
36996,66107,5
37011,66106,5
37005,66107,5
37002,66100,4
36994,66097,5
36983,66083,5
36985,66071,5
36977,66071,4
36981,66062,4
36968,66053,5
36971,66047,5
36968,66054,5
36972,66050,4
36973,66058,5
36959,66045,5
36966,66063,5
36969,66055,5
36969,66057,4
36974,66060,6
36981,66059,4
36983,66070,5
36981,66076,5
36991,66079,4
36990,66077,5
36983,66084,5
36994,66089,5
36996,66090,5
36998,66096,4
36999,66085,5
36997,66090,5
36992,66085,5
36993,66091,5
36991,66087,4
36989,66085,5
36990,66083,5
36990,66085,5
36985,66080,4
36989,66074,5
36982,66075,5
36984,66069,5
36988,66067,5
36971,66057,4
36975,66046,5
36963,66041,6
36949,66036,4
36946,66011,5
36945,65995,4
36924,65975,5
36921,65960,5
36919,65941,5
36909,65935,5
36900,65926,4
36896,65929,5
36892,65911,5
36874,65898,5
36881,65895,5
36883,65896,4
36877,65897,5
36877,65902,5
36888,65911,5
36883,65913,4
36886,65905,4
36879,65912,5
36891,65909,5
36884,65911,5
36893,65917,4
36893,65919,5
36900,65917,5
36889,65921,5
36890,65920,5
36892,65923,4
36895,65922,5
36893,65909,5
36885,65905,5
36879,65899,5
36887,65898,4
36883,65896,5
36873,65890,5
36866,65870,5
36857,65868,5
36859,65859,4
36861,65856,5
36845,65845,5
36819,65824,5
36830,65810,5
36820,65784,4
36801,65766,5
36751,65754,5
36793,65744,5
36792,65743,5
36782,65733,4
36721,65734,5
36771,65726,5
36765,65709,5
36759,65696,4
36758,65678,5
36736,65654,5
36738,65644,5
36722,65618,5
36761,65600,4
36696,65575,5
36678,65548,5
36669,65533,5
36727,65519,5
36652,65507,4
36648,65497,5
36641,65501,5
36676,65491,5
36646,65502,5
36646,65508,4
36649,65522,6
36657,65512,4
36664,65533,5
36677,65543,5
36679,65563,6
36685,65528,3
36689,65565,5
36684,65560,5
36688,65567,4
36673,65497,4
36675,65545,5
36667,65540,5
36673,65541,5
36671,65479,4
36669,65540,5
36668,65546,5
36674,65548,5
36679,65571,5
36679,65561,4
36677,65558,5
36687,65564,5
36688,65636,5
36692,65585,5
36700,65594,4
36712,65623,5
36717,65677,6
36723,65634,4
36735,65654,5
36744,65661,4
36743,65690,5
36748,65681,5
36752,65681,5
36759,65687,4
36758,65685,4
36759,65680,5
36750,65672,5
36753,65677,5
36750,65671,4
36749,65665,5
36746,65659,5
36750,65658,5
36735,65654,5
36739,65648,4
36725,65638,5
36725,65618,5
36724,65620,5
36716,65602,5
36711,65600,4
36701,65582,5
36686,65569,5
36687,65559,6
36687,65550,4
36665,65527,4
36656,65518,5
36650,65490,5
36634,65484,5
36633,65474,5
36623,65442,4
36615,65437,5
36610,65424,5
36607,65428,5
36606,65413,4
36598,65408,4
36587,65407,5
36588,65405,5
36592,65399,5
36590,65395,4
36585,65412,5
36601,65403,5
36598,65408,5
36597,65418,5
36600,65417,5
36608,65414,4
36606,65433,5
36604,65416,5
36606,65420,6
36601,65420,3
36609,65423,5
36598,65414,5
36603,65422,5
36593,65409,5
36588,65413,4
36596,65403,5
36585,65396,5
36587,65399,5
36584,65395,5
36577,65394,4
36588,65395,5
36585,65397,5
36581,65378,5
36581,65377,4
36584,65378,4
36581,65384,5
36584,65376,5
36578,65380,5
36577,65387,4
36574,65382,6
36585,65392,4
36591,65385,5
36583,65384,5
36587,65390,6
36581,65383,3
36585,65384,5
36576,65380,5
36583,65365,5
36572,65359,4
36561,65358,5
36558,65348,5
36558,65337,5
36552,65335,5
36559,65344,4
36561,65343,5
36556,65350,5
36561,65350,5
36537,65348,5
36556,65362,4
36569,65367,5
36572,65378,5
36533,65406,5
36586,65407,4
36602,65434,4
36609,65446,6
36558,65455,4
36626,65461,5
36627,65469,4
36636,65489,5
36641,65489,5
36635,65477,5
36629,65476,5
36625,65477,4
36689,65477,5
36632,65477,5
36637,65475,9
36627,65475,1
36702,65463,4
36642,65494,5
36642,65511,5
36654,65528,5
36692,65540,5
36670,65556,4
36672,65569,5
36696,65582,5
36708,65603,5
36711,65626,5
36727,65638,4
36747,65655,5
36747,65632,6
36751,65676,4
36756,65685,4
36764,65710,4
36780,65657,5
36778,65735,5
36792,65753,5
36806,65781,5
36826,65758,4
36837,65822,5
36852,65838,5
36849,65837,5
36856,65867,4
36859,65866,5
36877,65887,5
36896,65932,5
36926,66047,5
36959,66010,4
36969,66045,5
36983,66061,5
36987,66147,5
37015,66127,5
37032,66148,4
37056,66185,5
37075,66252,5
37104,66293,6
37139,66347,4
37174,66404,4
37211,66469,5
37250,66542,5
37314,66674,5
37399,66797,4
37451,66902,5
37501,66981,5
37536,67032,5
37570,67094,5
37615,67189,4
37700,67321,5
37767,67438,5
37823,67526,5
37838,67548,5
37833,67529,4
37821,67532,5
37842,67560,5
37866,67619,5
37898,67663,5
37922,67707,5
37945,67756,4
37961,67764,5
37984,67811,5
37998,67852,5
38022,67886,4
38041,67896,5
38052,67908,5
38042,67894,5
38021,67861,5
38016,67864,4
38048,67908,5
38070,67954,5
38086,67976,5
38054,67928,4
38011,67834,5
37961,67747,5
37940,67730,5
37938,67738,5
37962,67778,4
37990,67840,5
38008,67857,5
38015,67860,5
37992,67820,5
37963,67773,4
37956,67755,6
37919,67689,4
37886,67644,5
37881,67617,5
37863,67611,4
37861,67586,5
37830,67527,5
37779,67429,5
37721,67326,5
37670,67253,4
37648,67199,5
37627,67180,5
37616,67183,5
37629,67177,5
37610,67150,4
37584,67083,5
37536,67015,5
37491,66960,5
37462,66902,4
37440,66864,4
37436,66857,5
37434,66863,5
37447,66877,5
37453,66873,4
37446,66864,5
37433,66864,6
37439,66869,4
37439,66875,5
37443,66863,4
37433,66839,5
37412,66810,5
37405,66804,5
37401,66798,5
37403,66797,4
37400,66789,5
37398,66788,5
37387,66779,5
37384,66762,5
37343,66749,4
37371,66745,5
37376,66748,5
37376,66741,5
37312,66736,5
37365,66725,4
37349,66717,5
37347,66714,5
37294,66712,5
37353,66718,4
37354,66711,5
37340,66685,5
37344,66682,6
37322,66663,4
37333,66672,4
37323,66673,5
37382,66666,5
37324,66664,5
37325,66665,5
37324,66665,4
37401,66674,5
37342,66668,5
37336,66677,5
37324,66671,5
37355,66663,4
37320,66659,5
37330,66653,5
37328,66657,5
37325,66654,5
37319,66659,4
37302,66651,5
37317,66646,5
37303,66592,5
37308,66618,5
37294,66617,4
37289,66600,5
37285,66527,5
37274,66566,5
37268,66562,4
37260,66537,5
37249,66471,5
37243,66510,5
37221,66486,5
37211,66473,5
37201,66474,4
37189,66444,5
37189,66429,5
37177,66420,5
37186,66467,4
37169,66397,5
37163,66389,5
37164,66388,5
37152,66422,5
37154,66357,4
37148,66354,5
37134,66350,5
37134,66348,5
37119,66307,5
37105,66288,5
37094,66265,4
37084,66242,5
37075,66232,5
37062,66222,4
37065,66210,4
37059,66201,5
37064,66204,5
37056,66212,5
37063,66217,4
37067,66226,5
37062,66217,5
37070,66229,5
37073,66221,5
37065,66225,4
37075,66229,5
37080,66223,5
37055,66227,5
37070,66226,5
37065,66215,4
37062,66222,5
37072,66223,5
37068,66221,5
37061,66220,5
37062,66211,4
37060,66202,6
37055,66194,4
37048,66190,5
37048,66194,5
37050,66205,4
37055,66193,5
37049,66193,5
37054,66187,5
37052,66185,4
37050,66188,4
37052,66190,5
37054,66191,5
37049,66191,5
37045,66180,4
37038,66174,5
37040,66175,5
37037,66170,5
37031,66159,5
37033,66168,4
37032,66149,5
37033,66153,5
37023,66151,6
37029,66154,4
37021,66153,4
37017,66154,5
37030,66153,5
37032,66160,5
37035,66171,5
37039,66181,4
37037,66168,5
37040,66167,5
37035,66179,5
37038,66181,5
37046,66186,4
37049,66178,5
37044,66179,5
37047,66182,5
37044,66187,4
37040,66184,4
37040,66176,5
37043,66169,5
37042,66169,5
37035,66166,5
37044,66162,4
37042,66176,5
37041,66187,5
37058,66199,6
37072,66225,3
37094,66267,5
37122,66322,5
37160,66380,5
37185,66428,5
37213,66483,4
37256,66537,5
37287,66600,5
37319,66652,5
37340,66687,5
37355,66738,4
37373,66819,5
37457,66904,5
37504,66964,5
37524,66999,5
37478,67010,4
37539,67009,5
37542,67028,5
37539,67027,5
37482,67034,4
37545,67047,5
37577,67095,4
37619,67168,5
37658,67216,5
37673,67264,6
37690,67288,3
37707,67308,5
37763,67307,5
37700,67306,5
37711,67322,4
37711,67326,5
37786,67341,5
37736,67367,5
37734,67361,5
37723,67342,4
37722,67296,5
37683,67263,5
37647,67234,5
37654,67227,5
37656,67209,4
37641,67209,5
37638,67200,5
37636,67196,5
37627,67141,5
37624,67165,4
37598,67125,6
37575,67093,4
37564,67009,5
37568,67064,4
37552,67051,4
37553,67052,5
37550,67010,5
37532,67022,5
37515,66997,4
37509,66966,5
37488,66983,5
37479,66931,5
37470,66904,5
37454,66884,4
37435,66921,5
37418,66839,5
37423,66828,5
37412,66808,5
37410,66837,4
37391,66765,5
37375,66748,5
37366,66718,5
37348,66715,5
37341,66688,4
37327,66663,5
37317,66651,6
37299,66635,4
37292,66606,5
37285,66596,4
37279,66573,5
37266,66562,5
37263,66549,5
37253,66536,4
37250,66529,4
37244,66523,5
37239,66518,5
37239,66518,5
37244,66522,4
37241,66528,5
37248,66532,5
37243,66535,5
37246,66535,5
37239,66523,4
37245,66530,5
37249,66535,5
37235,66514,5
37233,66508,5
37232,66500,4
37231,66489,5
37219,66484,5
37219,66471,6
37215,66473,4
37207,66462,4
37210,66456,5
37193,66445,5
37200,66441,5
37192,66441,5
37195,66436,4
37193,66431,5
37193,66418,5
37186,66420,5
37183,66412,4
37174,66408,5
37182,66415,5
37181,66404,5
37169,66408,5
37187,66406,4
37182,66422,5
37179,66417,5
37185,66412,5
37187,66422,5
37179,66410,5
37188,66418,4
37185,66424,5
37183,66420,5
37189,66413,6
37192,66412,3
37189,66421,5
37181,66414,5
37181,66422,5
37193,66431,5
37191,66435,4
37189,66432,5
37186,66432,5
37191,66428,5
37186,66439,4
37195,66426,4
37182,66427,5
37191,66427,5
37196,66424,5
37189,66427,4
37191,66432,5
37194,66428,5
37189,66417,5
37190,66426,5
37191,66438,4
37188,66416,6
37189,66416,4
37187,66408,5
37181,66420,5
37181,66413,4
37175,66415,5
37178,66414,5
37179,66409,5
37170,66407,5
37180,66407,4
37178,66410,5
37137,66408,5
37179,66412,5
37176,66414,5
37180,66404,4
37121,66403,5
37183,66408,5
37178,66401,5
37172,66404,4
37123,66399,4
37174,66398,5
37178,66403,5
37172,66396,5
37190,66394,4
37172,66390,7
37161,66366,4
37154,66363,4
37210,66339,5
37136,66319,4
37109,66297,5
37105,66278,5
37149,66261,5
37095,66255,5
37082,66248,4
37082,66246,5
37121,66268,5
37099,66290,5
37108,66306,5
37134,66336,4
37153,66361,5
37172,66419,5
37203,66468,5
37231,66509,5
37250,66485,4
37266,66560,5
37284,66581,5
37296,66595,5
37285,66535,4
37283,66590,4
37280,66570,5
37268,66569,6
37260,66536,4
37259,66537,4
37254,66535,5
37251,66529,5
37253,66565,5
37240,66504,5
37244,66515,4
37234,66511,5
37235,66576,5
37234,66505,5
37229,66497,5
37233,66497,4
37227,66519,5
37222,66483,5
37214,66478,5
37216,66471,5
37214,66481,4
37213,66472,5
37217,66476,5
37218,66473,5
37210,66458,5
37205,66459,4
37198,66445,5
37196,66456,5
37193,66445,5
37195,66434,4
37190,66428,4
37189,66435,5
37188,66432,5
37187,66435,5
37187,66422,4
37184,66426,5
37176,66412,5
37182,66412,5
37183,66428,5
37180,66413,4
37179,66413,5
37174,66410,5
37173,66416,5
37181,66405,5
37172,66395,4
37170,66399,5
37168,66404,5
37166,66405,5
37165,66391,5
37169,66387,5
37165,66390,4
37159,66392,5
37163,66382,5
37162,66378,5
37161,66373,4
37162,66377,5
37164,66372,5
37153,66367,5
37157,66369,4
37159,66380,4
37149,66369,5
37157,66365,5
37149,66363,5
37145,66368,4
37155,66363,5
37154,66366,5
37156,66373,5
37151,66372,5
37161,66376,4
37157,66380,5
37169,66375,5
37165,66381,5
37165,66373,5
37161,66382,4
37159,66386,6
37162,66382,4
37164,66382,5
37163,66387,5
37165,66381,4
37157,66389,5
37169,66382,5
37160,66376,5
37163,66377,4
37158,66370,4
37158,66370,5
37152,66351,5
37127,66329,5
37132,66317,4
37119,66306,5
37111,66286,5
37106,66289,5
37107,66275,5
37108,66283,4
37096,66284,5
37102,66288,5
37112,66298,5
37120,66312,5
37129,66321,4
37136,66339,5
37142,66340,6
37142,66357,4
37148,66366,5
37161,66380,4
37167,66385,5
37163,66397,5
37129,66402,5
37176,66400,5
37171,66393,4
37171,66376,5
37102,66378,5
37154,66368,5
37149,66359,4
37148,66355,4
37107,66354,5
37145,66348,5
37149,66346,5
37140,66352,5
37177,66349,4
37146,66357,5
37149,66359,5
37156,66360,5
37213,66367,4
37144,66370,5
37156,66371,5
37154,66372,5
37198,66374,5
37150,66375,4
37167,66370,5
37160,66381,5
37175,66375,5
37161,66372,5
37155,66382,4
37155,66375,5
37160,66340,5
37163,66357,5
37152,66364,5
37159,66376,4
37160,66314,5
37165,66386,5
37159,66381,5
37167,66382,5
37171,66326,4
37166,66389,4
37168,66400,5
37172,66389,5
37177,66395,6
37169,66387,3
37181,66393,5
37173,66406,5
37193,66483,5
37192,66440,4
37210,66452,5
37208,66464,5
37211,66526,5
37209,66461,5
37221,66471,4
37226,66470,5
37235,66532,5
37241,66519,5
37256,66535,5
37261,66544,4
37270,66564,5
37278,66568,5
37281,66577,5
37275,66568,5
37287,66560,4
37274,66580,6
37292,66590,4
37297,66602,5
37296,66614,4
37316,66639,6
37313,66637,3
37326,66655,5
37332,66663,5
37338,66690,4
37358,66710,5
37369,66737,5
37378,66745,5
37377,66754,5
37384,66756,4
37379,66760,5
37395,66796,5
37432,66841,5
37441,66872,5
37462,66896,4
37473,66907,5
37488,66942,5
37503,66975,5
37508,66980,5
37515,67007,4
37526,66995,5
37525,66994,6
37526,66996,4
37518,66994,5
37512,66999,4
37527,67008,5
37530,67022,5
37540,67016,5
37531,67013,4
37524,67002,4
37517,66991,5
37519,66993,5
37517,66992,5
37519,66994,4
37519,67004,5
37525,67002,5
37519,66999,5
37512,66967,5
37485,66921,4
37465,66882,5
37444,66880,5
37453,66885,5
37464,66908,5
37490,66939,4
37505,66972,5
37525,67005,5
37525,67021,6
37540,67049,4
37556,67072,4
37569,67074,5
37586,67113,5
37598,67133,5
37594,67123,5
37578,67105,4
37570,67083,5
37562,67068,5
37573,67082,5
37561,67081,4
37590,67103,4
37587,67125,5
37610,67150,5
37619,67166,5
37628,67172,4
37624,67172,5
37611,67162,5
37601,67148,5
37601,67148,5
37608,67163,5
37625,67177,4
37637,67206,5
37665,67280,5
37719,67344,6
37723,67380,3
37725,67366,5
37711,67333,5
37705,67310,5
37650,67327,5
37718,67350,4
37732,67366,5
37745,67401,5
37721,67464,5
37804,67508,5
37841,67550,4
37834,67542,5
37817,67563,5
37851,67583,5
37868,67589,4
37863,67616,5
37917,67630,5
37896,67662,5
37912,67683,5
37913,67709,4
38011,67754,6
37975,67803,4
37996,67832,5
37990,67819,5
38019,67798,4
37974,67801,5
37990,67837,5
38001,67865,5
38028,67866,5
38018,67872,4
38010,67872,5
38009,67856,5
38016,67854,5
38012,67868,5
38010,67859,4
37994,67828,5
38007,67809,5
38013,67906,5
38058,67952,4
38073,67998,4
38101,67946,5
38094,67998,5
38064,67951,5
38034,67893,5
38027,67892,4
38041,67927,6
38063,67973,4
38064,67986,5
38093,68055,4
38090,67993,5
38080,67988,5
38060,67946,5
38034,68000,5
38055,67941,4
38044,67934,5
38044,67915,5
38036,67948,5
38043,67932,5
38069,67973,4
38083,67990,5
38080,67981,5
38063,67935,5
38027,67875,5
37986,67806,4
37945,67740,5
37901,67671,5
37855,67591,5
37829,67550,4
37820,67533,4
37811,67514,5
37806,67509,6
37792,67511,4
37790,67476,4
37783,67460,5
37761,67429,5
37744,67397,5
37737,67407,5
37741,67402,4
37746,67409,5
37756,67424,5
37769,67461,5
37812,67517,5
37814,67524,4
37798,67492,5
37781,67455,5
37753,67408,5
37729,67371,5
37721,67359,4
37708,67358,5
37697,67340,5
37698,67336,5
37708,67348,5
37715,67338,4
37690,67294,5
37641,67230,5
37607,67155,6
37581,67113,3
37564,67101,4
37568,67102,5
37579,67123,5
37583,67134,5
37580,67115,4
37576,67121,5
37582,67137,5
37589,67154,5
37597,67161,5
37597,67156,4
37594,67142,5
37583,67119,5
37574,67088,5
37534,67045,5
37507,66989,4
37475,66922,5
37436,66860,5
37412,66820,5
37387,66777,5
37365,66745,5
37347,66714,4
37330,66686,5
37324,66674,5
37307,66650,5
37308,66632,4
37287,66598,5
37263,66577,5
37237,66532,5
37222,66493,4
37193,66457,5
37173,66415,5
37155,66389,5
37143,66357,5
37116,66323,4
37098,66270,5
37073,66225,5
37048,66192,5
37028,66158,5
37018,66145,4
37002,66121,5
36990,66105,5
36987,66093,5
36971,66062,5
36962,66047,4
36937,66031,6
36953,66027,4
36944,66031,5
36943,66017,5
36898,66022,4
36937,66020,5
36945,66011,5
36925,66001,5
36860,65984,4
36910,65966,4
36909,65960,5
36894,65951,9
36858,65947,1
36890,65911,4
36888,65922,5
36880,65903,5
36908,65898,5
36855,65872,5
36842,65857,4
36831,65824,5
36889,65806,5
36798,65784,5
36792,65762,5
36791,65755,4
36832,65745,5
36781,65768,6
36790,65762,4
36788,65765,5
36802,65767,4
36785,65766,5
36782,65761,5
36789,65761,5
36794,65736,5
36790,65754,4
36780,65756,5
36776,65745,5
36767,65689,5
36766,65734,4
36760,65726,4
36761,65722,5
36759,65653,5
36755,65713,5
36762,65725,4
36762,65726,5
36763,65731,4
36775,65731,5
36780,65749,5
36788,65769,4
36801,65834,5
36800,65790,5
36818,65819,5
36829,65824,5
36827,65913,4
36836,65862,5
36843,65861,5
36855,65876,5
36858,65910,5
36850,65867,4
36845,65858,5
36847,65866,5
36852,65865,5
36844,65872,5
36839,65872,4
36849,65869,5
36850,65875,5
36861,65889,5
36865,65887,4
36876,65898,4
36879,65924,5
36891,65937,5
36891,65938,5
36902,65950,6
36914,65974,3
36921,65985,5
36928,65993,5
36938,66014,5
36937,66012,4
36932,66006,5
36939,66011,5
36945,66016,5
36948,66022,5
36960,66050,4
36969,66068,5
36981,66091,5
37005,66118,5
37009,66147,5
37030,66167,4
37033,66171,5
37036,66182,5
37046,66224,5
37090,66277,4
37119,66319,4
37151,66364,5
37163,66420,5
37175,66431,5
37186,66453,4
37202,66482,6
37221,66510,4
37242,66540,5
37249,66553,5
37244,66555,4
37251,66558,5
37249,66561,5
37271,66571,5
37266,66582,5
37283,66622,4
37299,66641,5
37305,66665,5
37319,66671,5
37320,66688,5
37336,66731,4
37356,66765,5
37388,66788,5
37412,66851,5
37461,66941,5
37514,67027,4
37556,67110,5
37593,67173,6
37631,67238,4
37656,67273,4
37648,67261,4
37640,67235,5
37628,67223,5
37629,67229,5
37642,67258,4
37682,67339,5
37730,67426,5
37770,67503,5
37806,67559,5
37822,67575,4
37823,67569,5
37828,67579,5
37834,67575,5
37835,67575,5
37835,67572,4
37819,67565,5
37825,67566,5
37831,67578,5
37844,67624,5
37885,67673,4
37911,67717,5
37893,67711,5
37895,67687,6
37885,67666,4
37875,67666,4
37837,67687,5
37898,67694,5
37909,67715,5
37926,67744,4
37881,67758,4
37917,67712,5
37900,67696,5
37896,67680,5
37860,67640,4
37861,67625,5
37850,67621,5
37857,67615,5
37892,67592,5
37839,67585,4
37826,67550,5
37806,67518,5
37862,67517,5
37775,67478,5
37770,67467,5
37793,67510,4
37850,67550,5
37843,67586,5
37861,67606,6
37845,67601,3
37847,67561,5
37812,67536,5
37795,67493,5
37783,67484,5
37784,67455,4
37773,67463,5
37761,67449,5
37759,67444,5
37757,67374,4
37738,67412,4
37732,67386,5
37715,67369,5
37707,67291,5
37715,67343,4
37705,67335,5
37702,67326,5
37684,67333,5
37686,67304,5
37671,67294,4
37662,67274,6
37658,67322,4
37639,67231,5
37621,67197,5
37602,67169,6
37594,67220,3
37578,67121,5
37564,67099,5
37559,67089,5
37541,67098,4
37540,67059,5
37528,67045,5
37514,67031,5
37510,67023,4
37503,67004,4
37489,66980,5
37487,66971,5
37478,66964,5
37471,66954,4
37465,66942,5
37450,66932,5
37456,66913,5
37445,66886,5
37421,66873,4
37425,66862,5
37415,66842,6
37405,66828,4
37390,66815,5
37378,66794,4
37373,66757,5
37366,66739,5
37352,66718,5
37330,66704,5
37325,66688,4
37307,66672,5
37308,66667,5
37310,66657,5
37286,66645,5
37283,66625,4
37286,66628,5
37280,66615,5
37282,66611,5
37279,66592,4
37276,66603,4
37283,66599,5
37267,66593,5
37266,66592,5
37254,66573,4
37253,66560,5
37246,66543,5
37235,66539,6
37235,66524,4
37240,66532,4
37224,66514,5
37228,66505,5
37218,66510,5
37229,66506,5
37214,66511,4
37224,66502,5
37219,66507,5
37217,66504,5
37209,66501,5
37218,66494,4
37215,66499,5
37218,66495,5
37217,66500,5
37215,66495,5
37209,66510,4
37221,66498,5
37207,66492,5
37209,66485,5
37213,66481,5
37198,66490,4
37215,66480,5
37199,66475,5
37202,66470,6
37200,66477,3
37192,66463,5
37192,66463,5
37188,66448,5
37186,66442,5
37190,66448,4
37179,66444,5
37189,66437,5
37180,66433,5
37170,66433,5
37171,66432,4
37174,66418,5
37173,66420,5
37165,66415,5
37154,66407,5
37158,66402,4
37150,66391,5
37160,66386,5
37140,66381,5
37142,66375,5
37149,66377,5
37149,66370,4
37102,66362,5
37146,66366,5
37137,66364,4
37144,66365,4
37077,66352,5
37148,66362,5
37137,66358,5
37138,66363,4
37124,66363,5
37134,66362,5
37130,66353,5
37134,66362,5
37183,66353,4
37127,66343,5
37126,66338,5
37114,66324,5
37181,66323,5
37112,66318,4
37110,66309,5
37105,66313,5
37152,66310,5
37109,66301,5
37106,66312,4
37106,66313,6
37126,66316,4
37112,66317,5
37116,66318,5
37118,66324,4
37117,66300,5
37115,66333,5
37122,66328,5
37106,66319,4
37111,66258,4
37101,66309,5
37099,66295,5
37097,66283,5
37102,66218,4
37091,66272,5
37090,66263,5
37085,66262,5
37089,66271,5
37079,66265,4
37076,66256,5
37085,66261,5
37084,66326,5
37092,66259,5
37086,66270,4
37090,66270,5
37090,66334,6
37086,66259,4
37079,66271,5
37092,66264,4
37092,66291,5
37085,66256,5
37088,66263,5
37085,66262,5
37078,66263,4
37088,66266,5
37084,66266,5
37076,66263,5
37084,66262,4
37083,66273,5
37087,66272,5
37095,66276,5
37079,66268,5
37087,66275,4
37082,66268,5
37082,66260,5
37087,66268,5
37084,66265,5
37089,66268,4
37088,66258,5
37084,66253,5
37080,66253,6
37080,66247,4
37082,66250,4
37082,66254,5
37074,66246,5
37078,66252,5
37074,66241,5
37067,66245,4
37074,66241,5
37074,66237,5
37075,66240,5
37066,66242,4
37076,66244,4
37074,66249,5
37071,66242,5
37070,66246,5
37081,66255,4
37065,66239,5
37075,66239,5
37077,66248,5
37073,66244,5
37071,66251,5
37068,66234,4
37070,66236,5
37065,66231,5
37064,66230,5
37062,66220,4
37056,66221,5
37059,66219,5
37055,66210,5
37053,66211,5
37058,66211,4
37053,66217,5
37047,66211,5
37061,66219,5
37057,66229,5
37067,66233,4
37067,66238,5
37071,66246,5
37086,66257,5
37081,66252,4
37086,66260,4
37085,66261,5
37078,66252,5
37079,66246,5
37064,66231,4
37061,66235,6
37073,66227,4
37072,66226,5
37063,66220,5
37065,66230,4
37063,66231,5
37072,66224,5
37057,66226,5
37061,66221,5
37057,66226,4
37060,66219,5
37066,66215,5
37055,66205,5
37057,66206,5
37057,66204,4
37054,66195,5
37044,66205,5
37053,66196,5
37018,66181,5
37032,66179,4
37034,66169,5
37024,66154,5
36978,66149,5
37017,66150,4
37022,66161,6
37016,66143,4
36962,66156,4
37025,66152,5
37010,66158,4
37031,66159,5
37016,66168,5
37038,66177,5
37037,66188,5
37047,66192,4
37091,66195,5
37035,66183,5
37040,66172,5
37030,66174,5
37101,66165,4
37029,66159,5
37024,66167,5
37038,66178,5
37084,66182,5
37039,66190,4
37049,66192,5
37047,66189,5
37051,66178,5
37043,66177,5
37048,66185,4
37046,66194,5
37059,66182,5
37069,66247,5
37099,66283,4
37109,66311,4
37137,66279,5
37141,66350,5
37143,66342,5
37132,66337,5
37127,66258,4
37128,66326,5
37133,66332,5
37140,66352,5
37158,66406,4
37174,66428,5
37186,66436,5
37187,66437,5
37185,66493,5
37186,66433,4
37180,66411,4
37166,66404,5
37168,66476,5
37165,66397,6
37154,66388,3
37157,66379,5
37158,66402,5
37152,66377,5
37150,66376,5
37152,66363,4
37139,66372,5
37135,66363,5
37142,66353,5
37144,66359,4
37147,66369,4
37153,66384,5
37166,66407,5
37183,66416,5
37187,66439,4
37193,66457,5
37209,66480,5
37235,66506,5
37240,66504,5
37228,66510,4
37224,66488,6
37210,66484,4
37214,66471,5
37204,66472,5
37211,66476,6
37213,66474,3
37208,66471,5
37202,66472,5
37205,66469,5
37214,66480,4
37210,66475,5
37203,66471,5
37208,66463,5
37208,66469,5
37210,66473,4
37210,66468,5
37207,66471,5
37207,66470,5
37210,66462,4
37207,66464,5
37203,66464,5
37196,66468,5
37211,66461,5
37204,66464,4
37207,66463,5
37202,66460,6
37204,66464,4
37201,66461,5
37196,66456,4
37208,66479,5
37206,66456,10
37199,66455,9
37201,66460,5
37200,66453,10
37197,66405,5
37199,66427,5
37202,66474,10
37202,66474,5
37204,66456,5
37203,66466,10
37194,66461,5
37194,66448,7
37161,66383,8
37161,66383,5
37151,66394,7
37161,66389,8
37153,66381,5
37157,66374,7
37121,66373,8
37146,66370,5
37146,66371,7
37132,66344,8
37132,66344,9
37134,66349,8
37130,66349,5
37132,66311,7
37114,66325,8
37114,66325,5
37118,66344,7
37064,66350,8
37118,66321,5
37106,66306,7
37099,66295,8
37040,66298,5
37058,66207,7
37058,66207,8
37074,66210,5
37042,66210,7
37073,66188,8
37046,66204,5
37052,66230,7
37056,66231,8
37056,66231,7
37106,66234,5
37058,66248,8
37060,66234,7
37060,66245,10
37055,66194,5
37055,66194,7
37054,66219,8
37055,66228,5
37049,66192,7
37048,66147,8
37050,66201,5
37060,66202,7
37045,66200,8
37045,66200,7
37047,66161,7
37043,66196,8
37045,66205,7
37043,66227,5
37047,66267,8
37047,66267,7
37049,66194,5
37031,66197,8
37043,66200,7
37044,66228,7
37045,66196,10
37045,66196,5
37045,66244,5
37048,66213,10
37033,66157,5
37041,66194,5
37036,66189,10
37036,66195,5
37044,66190,5
37036,66201,10
37036,66201,5
37032,66178,5
37030,66183,10
37034,66184,5
37034,66180,5
37037,66184,10
37037,66184,5
36988,66178,5
37023,66181,10
37040,66174,5
37043,66179,5
37037,66183,10
37041,66156,5
37035,66174,5
37042,66196,10
37042,66196,5
37049,66204,7
37053,66204,8
37044,66200,5
37010,66197,1
37041,66196,2
37045,66200,4
37038,66194,5
37039,66193,5
37045,66191,6
37043,66200,4
37042,66186,4
37045,66184,5
37041,66195,5
37039,66190,5
37038,66190,5
37033,66187,4
37040,66191,5
37039,66187,5
37041,66194,5
37038,66188,5
37029,66180,4
37037,66190,5
37029,66185,5
37039,66185,5
37031,66185,4
37040,66186,5
37037,66179,5
37026,66186,5
37031,66187,5
37044,66184,5
37032,66185,4
37038,66186,5
37041,66185,5
37029,66169,5
37026,66179,4
37015,66161,5
37024,66159,5
37016,66149,5
37001,66123,5
36994,66108,4
36980,66099,5
36974,66078,5
36961,66068,5
36958,66059,5
36957,66055,4
36963,66056,5
36950,66064,5
36953,66062,5
36964,66064,4
36973,66073,4
36948,66090,5
36982,66110,5
36998,66132,5
37007,66135,4
36959,66151,6
37014,66157,4
37023,66157,5
37019,66153,5
36958,66148,4
37007,66138,5
37007,66130,5
37006,66130,5
37029,66128,5
36999,66124,4
37003,66122,5
36994,66123,5
37058,66113,5
36998,66117,5
36995,66111,4
36990,66120,5
37051,66121,5
36996,66125,5
37004,66131,5
37001,66139,4
37021,66136,5
37008,66140,5
37005,66139,5
37007,66141,4
37012,66124,4
37015,66135,6
37011,66141,4
37012,66142,5
36998,66091,4
37003,66117,5
36999,66109,5
36985,66097,5
36974,66023,5
36971,66061,4
36956,66030,5
36935,66016,5
36935,65968,5
36913,65965,5
36907,65943,4
36888,65936,5
36886,65954,5
36877,65893,5
36867,65885,5
36862,65884,4
36847,65939,5
36845,65862,5
36858,65855,6
36837,65850,4
36827,65870,4
36827,65817,5
36814,65804,5
36817,65783,5
36800,65785,4
36793,65769,4
36793,65754,5
36790,65746,5
36791,65744,5
36785,65743,4
36780,65744,5
36794,65765,5
36784,65763,5
36798,65766,5
36801,65777,4
36803,65788,5
36811,65798,5
36812,65809,5
36817,65808,5
36823,65810,4
36830,65818,5
36829,65825,5
36837,65843,5
36830,65846,5
36839,65848,4
36845,65849,5
36846,65863,5
36851,65863,5
36855,65873,5
36859,65879,4
36867,65885,5
36866,65885,5
36860,65894,5
36872,65894,4
36868,65897,4
36862,65892,5
36871,65895,5
36855,65888,5
36855,65880,4
36855,65876,5
36856,65865,5
36849,65865,5
36844,65850,5
36833,65838,4
36823,65819,5
36820,65811,5
36809,65794,5
36800,65780,5
36797,65773,5
36792,65767,4
36793,65760,5
36792,65763,5
36784,65756,5
36788,65762,4
36801,65771,5
36794,65773,5
36802,65784,5
36795,65775,5
36800,65782,4
36797,65781,5
36798,65776,5
36800,65770,5
36789,65752,4
36770,65726,5
36756,65707,5
36735,65674,5
36728,65645,5
36711,65635,4
36713,65615,5
36699,65609,5
36701,65604,4
36699,65590,5
36683,65603,4
36691,65593,7
36687,65583,3
36678,65576,5
36669,65558,5
36674,65571,4
36673,65562,5
36658,65539,5
36658,65541,5
36654,65536,5
36650,65534,4
36652,65524,5
36654,65532,9
36661,65535,1
36659,65554,4
36667,65538,4
36670,65558,5
36632,65550,5
36663,65544,5
36657,65538,4
36658,65530,5
36601,65540,5
36657,65529,6
36663,65529,4
36648,65522,4
36596,65508,5
36642,65507,5
36627,65497,5
36634,65504,5
36668,65507,4
36645,65508,5
36631,65512,5
36640,65499,5
36681,65472,5
36610,65455,4
36611,65446,5
36598,65433,5
36652,65421,5
36590,65420,5
36588,65404,4
36583,65417,5
36614,65412,5
36583,65411,5
36578,65412,5
36581,65404,4
36595,65402,5
36590,65418,5
36590,65429,6
36600,65433,3
36602,65382,5
36607,65437,5
36609,65443,5
36615,65457,5
36619,65411,4
36622,65489,5
36625,65502,5
36640,65504,5
36641,65475,5
36639,65502,4
36629,65509,5
36632,65510,5
36641,65555,5
36640,65507,5
36643,65514,4
36659,65534,5
36662,65616,5
36658,65555,5
36679,65562,5
36676,65579,5
36680,65615,4
36680,65575,5
36680,65573,5
36673,65569,6
36662,65573,3
36665,65550,5
36656,65551,5
36662,65544,5
36666,65556,4
36666,65551,5
36664,65557,5
36667,65559,5
36659,65562,5
36667,65571,4
36669,65567,5
36687,65588,5
36692,65587,5
36695,65601,5
36702,65612,4
36707,65623,5
36706,65619,5
36700,65623,5
36705,65611,5
36703,65616,4
36702,65607,6
36705,65606,4
36699,65608,5
36697,65606,5
36701,65595,4
36692,65603,5
36696,65607,5
36703,65597,5
36708,65613,4
36701,65620,4
36703,65614,5
36710,65616,5
36707,65629,5
36710,65638,4
36717,65639,5
36713,65652,5
36724,65650,5
36731,65658,5
36724,65654,4
36732,65653,5
36729,65667,5
36732,65654,5
36728,65647,5
36729,65652,4
36720,65652,5
36726,65642,6
36716,65637,4
36719,65646,5
36728,65630,4
36718,65635,5
36716,65635,5
36711,65630,5
36712,65622,5
36710,65625,4
36705,65624,5
36698,65609,5
36700,65611,5
36698,65592,4
36695,65590,4
36687,65582,9
36680,65588,5
36675,65580,5
36689,65567,8
36678,65609,7
36690,65578,10
36690,65578,9
36681,65587,5
36680,65585,8
36685,65591,7
36691,65604,9
36691,65604,10
36706,65605,9
36706,65607,10
36706,65607,5
36705,65605,5
36691,65610,10
36671,65610,5
36697,65605,5
36693,65584,10
36693,65584,5
36692,65594,5
36621,65575,8
36675,65559,0
36678,65549,4
36667,65544,6
36675,65546,3
36667,65532,5
36654,65533,5
36656,65535,5
36709,65532,5
36659,65523,4
36653,65535,5
36655,65540,5
36731,65542,5
36664,65544,5
36674,65556,4
36666,65549,5
36700,65556,5
36671,65561,5
36668,65549,4
36675,65546,4
36660,65523,5
36650,65525,5
36651,65507,5
36648,65501,4
36638,65451,6
36643,65486,4
36631,65486,5
36622,65481,5
36633,65430,4
36633,65479,5
36635,65491,5
36636,65488,5
36626,65434,5
36642,65497,4
36639,65497,5
36632,65503,5
36644,65535,5
36646,65520,5
36649,65521,4
36659,65528,5
36654,65590,5
36652,65525,5
36655,65512,5
36651,65518,4
36650,65586,5
36653,65537,5
36657,65533,5
36659,65525,4
36659,65561,4
36663,65544,6
36676,65562,4
36680,65556,5
36678,65568,4
36679,65557,5
36675,65561,5
36678,65565,5
36683,65566,5
36686,65571,4
36683,65580,5
36697,65590,5
36699,65585,5
36696,65584,5
36699,65587,4
36690,65588,5
36695,65594,5
36704,65594,5
36711,65607,5
36711,65617,4
36723,65624,5
36725,65639,5
36734,65645,5
36736,65658,5
36741,65674,4
