RED,IR,EKG,TIME
42901,88370,183508
42906,88374,0
68616,140520,4
68597,140422,4
68533,140257,5
68435,140081,5
68360,140045,5
68330,139901,4
68330,139936,6
68354,139985,4
68380,140103,5
68412,140092,5
68456,140161,6
68468,140187,3
68461,140199,5
68462,140187,5
68476,140215,5
68493,140228,4
68489,140246,5
68484,140235,5
68505,140289,5
68525,140313,5
68521,140290,4
68475,140224,5
68434,140150,5
68448,140202,5
68526,140366,5
68568,140398,8
68518,140277,1
68423,140129,5
68331,139912,5
68268,139826,4
68283,139905,5
68346,140016,6
68374,140034,4
68335,139960,5
68287,139885,4
68253,139811,7
68206,139739,3
68211,139751,5
68199,139711,5
68165,139621,4
68111,139544,5
68109,139541,5
68122,139603,5
68159,139635,5
68150,139594,4
68058,139424,5
68036,139425,5
68077,139524,5
68132,139625,4
68146,139591,4
68048,139404,5
67985,139298,5
67940,139230,5
67927,139190,4
67883,139123,5
67875,139128,5
67847,139044,6
67810,138957,4
67754,138901,4
67759,138918,5
67765,138918,5
67739,138889,5
67747,138902,5
67758,138911,4
67754,138890,5
67748,138872,5
67715,138813,5
67681,138708,5
67569,138488,4
67435,138245,5
67338,138088,5
67310,138096,5
67372,138201,4
67408,138274,4
67436,138296,5
67405,138238,5
67338,138075,5
67241,137891,5
67161,137766,4
67110,137688,5
67122,137709,5
67132,137757,6
67190,137865,3
67215,137898,5
67186,137814,5
67108,137651,5
67017,137510,5
66996,137494,4
66997,137503,5
67011,137558,5
67027,137554,5
67023,137527,5
66989,137481,4
66928,137468,5
66942,137355,5
66818,137094,5
66660,136803,4
66493,136683,4
66579,136727,5
66600,136769,5
66611,136783,5
66581,136756,4
66579,136753,6
66630,136870,4
66689,136981,5
66800,137079,5
66775,137099,6
66752,137043,3
66693,136896,5
66671,136687,5
66487,136524,5
66418,136420,4
66414,136425,5
66490,136490,5
66474,136556,5
66456,136510,5
66407,136389,4
66353,136287,5
66307,136227,5
66286,136185,5
66269,136162,4
66241,136035,4
66199,136016,5
66184,136008,5
66176,135982,5
66147,135853,4
66102,135834,5
66040,135733,6
66011,135686,4
65971,135548,5
65922,135501,4
65878,135441,5
65868,135411,5
65858,135421,5
65839,135381,5
65839,135376,4
65823,135334,5
65794,135356,5
65757,135193,5
65700,135108,5
65677,135052,4
65655,135083,5
65645,135015,5
65638,135011,5
65635,134985,4
65633,135013,4
65630,135013,5
65651,135037,5
65664,135056,5
65665,135044,4
65652,135038,5
65652,135041,5
65650,135037,6
65653,135035,4
65653,135029,4
65639,135028,5
65652,135041,5
65654,135064,5
65656,135054,5
65652,135057,4
65647,135043,5
65637,135033,5
65639,135034,5
65643,135029,5
65643,135047,4
65660,135069,5
65661,135067,5
65652,135065,5
65646,135055,4
65644,135041,4
65628,135018,5
65620,134990,5
65604,134962,5
65590,134964,5
65607,134971,4
65602,134999,5
65634,135039,5
65646,135051,6
65645,135069,3
65655,135082,5
65659,135072,5
65668,135102,5
65688,135151,5
65710,135186,4
65742,135260,5
65756,135284,5
65786,135315,5
65798,135353,5
65810,135377,4
65823,135400,5
65836,135433,5
65838,135437,5
65838,135434,4
65849,135426,4
65843,135430,5
65844,135431,5
65838,135425,5
65833,135418,4
65827,135410,6
65836,135427,4
65840,135422,5
65835,135439,5
65842,135428,4
65838,135444,5
65849,135441,5
65843,135435,5
65842,135434,5
65841,135445,4
65849,135450,5
65849,135453,5
65842,135439,5
65830,135427,5
65835,135403,4
65807,135394,5
65808,135387,5
65807,135387,5
65805,135383,4
65806,135374,4
65804,135383,5
65806,135364,5
65797,135341,5
65771,135314,4
65764,135286,5
65760,135273,6
65756,135267,4
65753,135271,5
65712,135269,4
65749,135258,5
65750,135267,5
65764,135277,5
65700,135300,5
65778,135314,4
65792,135349,5
65798,135365,5
65745,135383,5
65816,135386,5
65814,135391,4
65820,135411,5
65848,135420,5
65839,135442,5
65849,135461,4
65855,135479,4
65951,135498,5
65875,135503,5
65879,135513,5
65879,135521,4
65942,135515,5
65873,135508,5
65895,135517,6
65886,135530,4
65926,135546,4
65909,135570,5
65916,135592,5
65920,135597,5
65924,135573,5
65915,135579,4
65916,135571,5
65911,135575,5
65903,135509,5
65903,135557,5
65906,135557,4
65898,135553,5
65902,135467,5
65895,135545,5
65893,135545,4
65884,135547,5
65906,135545,4
65899,135557,5
65897,135547,5
65886,135541,6
65878,135586,3
65881,135516,5
65884,135526,5
65892,135540,5
65903,135662,4
65915,135599,5
65922,135610,5
65934,135605,5
65935,135675,5
65941,135643,4
65956,135655,5
65951,135669,5
65966,135685,5
65959,135677,5
65960,135680,4
65960,135672,5
65950,135653,5
65950,135650,5
65942,135645,5
65938,135625,4
65924,135614,5
65922,135597,5
65914,135581,5
65899,135575,4
65890,135557,6
65901,135560,4
65892,135544,5
65891,135563,5
65896,135554,4
65897,135556,5
65889,135546,5
65885,135530,5
65880,135532,5
65879,135529,4
65870,135530,5
65874,135501,5
65872,135506,5
65867,135504,5
65865,135484,4
65859,135478,5
65846,135484,5
65849,135466,5
65836,135447,5
65828,135428,4
65833,135436,5
65822,135431,5
65825,135415,5
65822,135406,4
65811,135386,5
65797,135362,6
65788,135342,4
65776,135317,5
65757,135292,4
65755,135282,5
65747,135269,5
65742,135251,5
65729,135232,5
65724,135214,4
65707,135194,5
65704,135179,5
65691,135164,5
65681,135146,5
65677,135136,4
65676,135134,5
65676,135123,5
65662,135120,5
65668,135108,5
65661,135100,4
65654,135088,5
65649,135089,5
65656,135093,5
65656,135097,4
65670,135102,4
65673,135117,5
65672,135117,5
65671,135125,5
65671,135112,4
65657,135106,5
65655,135111,5
65657,135095,5
65661,135085,5
65655,135085,4
65656,135088,5
65661,135101,5
65663,135102,5
65659,135108,5
65668,135122,4
65668,135114,5
65670,135131,5
65664,135138,5
65682,135144,5
65684,135156,4
65681,135163,4
65627,135158,5
65685,135162,5
65689,135164,6
65688,135167,3
65628,135172,5
65698,135191,5
65705,135200,5
65717,135211,4
65683,135209,5
65720,135223,5
65729,135221,5
65710,135220,5
65773,135228,4
65718,135222,5
65727,135232,5
65734,135243,5
65816,135251,5
65727,135258,4
65748,135264,5
65739,135245,5
65776,135248,5
65732,135239,5
65720,135232,4
65727,135215,6
65724,135201,4
65715,135201,5
65703,135195,5
65703,135190,6
65708,135151,3
65700,135208,5
65712,135217,5
65712,135230,4
65719,135162,5
65730,135261,5
65736,135258,5
65743,135269,5
65742,135206,4
65749,135263,5
65733,135259,5
65738,135269,5
65749,135314,5
65751,135298,4
65758,135314,5
65756,135307,5
65754,135371,5
65740,135282,5
65735,135275,4
65737,135255,5
65739,135332,6
65739,135253,4
65732,135260,5
65738,135262,4
65742,135293,5
65743,135267,5
65754,135274,5
65752,135283,4
65754,135294,4
65751,135285,5
65754,135293,5
65752,135290,5
65747,135287,4
65754,135278,5
65744,135278,5
65742,135285,5
65744,135269,5
65743,135262,4
65734,135246,5
65722,135214,5
65708,135194,5
65704,135191,5
65699,135191,4
65707,135192,5
65710,135204,5
65714,135208,6
65719,135222,4
65726,135230,4
65720,135240,5
65720,135223,5
65716,135211,5
65721,135226,4
65725,135237,6
65742,135268,3
65753,135284,5
65754,135307,5
65768,135313,4
65768,135327,5
65782,135355,5
65796,135369,5
65794,135388,5
65823,135445,4
65868,135535,5
65926,135631,5
65957,135692,5
65980,135739,5
66007,135790,5
66029,135819,4
66034,135833,5
66049,135883,5
66085,135946,6
66130,136034,3
66188,136123,5
66239,136232,5
66283,136321,5
66340,136417,4
66381,136516,4
66432,136627,5
66493,136735,5
66531,136752,5
66508,136704,4
66477,136640,5
66471,136661,5
66500,136722,5
66549,136813,5
66604,136913,4
66646,136973,5
66654,137009,5
66667,136996,5
66634,136944,5
66597,136879,4
66589,136885,6
66645,137005,4
66744,137211,5
66843,137401,5
66907,137469,4
66903,137452,5
66869,137382,5
66832,137285,5
66785,137232,5
66791,137258,4
66844,137368,5
66913,137493,5
66946,137550,5
66936,137493,4
66856,137385,5
66816,137214,5
66716,137051,5
66640,136899,5
66492,136742,4
66456,136561,5
66379,136412,5
66311,136291,5
66207,136251,5
66283,136275,4
66302,136322,5
66329,136357,6
66352,136396,4
66351,136404,5
66344,136406,4
66352,136384,5
66406,136371,5
66326,136337,5
66300,136316,5
66296,136303,4
66384,136310,5
66301,136319,5
66306,136331,5
66307,136313,4
66332,136316,4
66312,136328,5
66307,136313,5
66302,136304,5
66298,136285,4
66274,136246,5
66262,136239,5
66257,136220,5
66257,136183,5
66261,136245,4
66277,136278,5
66295,136304,5
66291,136226,6
66290,136296,4
66295,136291,4
66286,136301,5
66282,136279,5
66292,136303,5
66291,136295,5
66299,136319,4
66313,136381,5
66312,136351,5
66319,136350,5
66314,136346,4
66297,136405,4
66297,136315,5
66292,136287,5
66276,136289,5
66285,136339,4
66283,136296,5
66283,136298,5
66289,136303,5
66300,136331,5
66309,136341,5
66325,136379,4
66343,136424,5
66348,136415,5
66350,136438,5
66372,136443,4
66370,136449,5
66373,136455,5
66369,136476,5
66380,136469,5
66369,136469,4
66377,136475,5
66375,136458,5
66381,136476,5
66386,136510,5
66405,136529,4
66417,136563,5
66434,136575,5
66437,136597,5
66438,136608,4
66449,136631,5
66467,136652,5
66474,136675,5
66482,136664,5
66471,136654,4
66474,136649,6
66465,136645,4
66471,136654,5
66478,136662,5
66478,136664,4
66482,136680,5
66492,136694,5
66498,136692,5
66500,136703,5
66498,136711,4
66505,136727,5
66512,136746,5
66525,136757,5
66534,136775,5
66535,136782,4
66541,136795,5
66538,136782,5
66547,136793,5
66540,136789,4
66543,136786,5
66548,136786,5
66555,136797,5
66550,136805,5
66561,136811,4
66560,136825,5
66575,136844,6
66575,136850,4
66577,136854,5
66585,136847,4
66573,136827,5
66571,136828,5
66567,136817,5
66571,136819,5
66561,136813,4
66553,136810,5
66551,136818,5
66552,136807,5
66548,136806,5
66547,136807,4
66551,136793,5
66537,136793,5
66543,136792,5
66549,136798,4
66546,136806,4
66552,136808,5
66554,136811,5
66559,136810,5
66569,136833,4
66585,136879,5
66597,136893,5
66608,136913,5
66602,136909,5
66610,136914,4
66619,136931,5
66627,136948,5
66609,136983,5
66657,137033,5
66683,137073,4
66700,137081,5
66654,137123,5
66740,137154,5
66758,137189,5
66775,137226,4
66716,137267,5
66804,137280,5
66815,137288,5
66825,137327,4
66873,137356,4
66858,137376,5
66867,137400,5
66880,137421,5
66960,137425,5
66895,137457,4
66897,137462,5
66903,137463,5
66983,137479,5
66919,137479,4
66923,137503,5
66925,137508,5
66956,137517,5
66949,137553,5
66971,137561,4
66977,137594,5
66996,137599,5
67001,137656,5
67017,137664,5
67018,137687,4
67030,137637,5
67047,137730,5
67066,137764,5
67077,137801,5
67086,137737,4
67105,137827,5
67113,137833,5
67116,137843,5
67128,137880,4
67145,137899,6
67159,137931,4
67169,137952,5
67189,138048,5
67216,138030,4
67241,138074,5
67256,138118,5
67277,138255,5
67303,138216,5
67324,138246,4
67357,138302,5
67380,138386,5
67390,138385,5
67418,138420,5
67437,138463,4
67451,138492,5
67470,138513,5
67491,138569,5
67522,138607,5
67538,138652,4
67555,138684,5
67585,138733,5
67596,138767,5
67629,138826,4
67639,138847,4
67643,138861,6
67658,138857,4
67657,138883,5
67679,138895,4
67675,138908,5
67684,138916,5
67682,138931,5
67699,138961,5
67704,138987,4
67721,138996,5
67734,139016,5
67718,139028,5
67736,139035,5
67740,139051,4
67752,139062,5
67763,139086,5
67779,139090,5
67768,139096,5
67759,139070,4
67759,139065,5
67744,139042,5
67734,139015,6
67717,138971,3
67702,138959,4
67683,138912,5
67666,138880,5
67648,138854,5
67635,138828,4
67619,138801,5
67609,138776,5
67588,138742,5
67575,138708,5
67559,138666,4
67545,138654,5
67531,138628,5
67513,138602,5
67508,138583,5
67498,138572,4
67475,138537,5
67463,138505,5
67450,138477,5
67448,138457,5
67437,138445,5
67429,138422,4
67401,138379,5
67386,138333,5
67361,138291,6
67347,138272,3
67333,138271,5
67352,138285,5
67356,138305,5
67367,138328,4
67384,138356,5
67396,138370,5
67396,138387,5
67408,138406,5
67420,138423,4
67423,138446,5
67445,138471,5
67447,138477,5
67457,138497,5
67466,138504,4
67464,138514,5
67466,138517,5
67473,138525,5
67478,138521,5
67478,138533,4
67459,138532,6
67471,138535,4
67479,138520,5
67465,138530,5
67414,138510,6
67459,138513,3
67460,138506,5
67458,138490,5
67383,138518,4
67467,138509,5
67467,138510,5
67467,138521,5
67434,138514,5
67456,138503,4
67453,138496,5
67453,138494,5
67513,138509,5
67460,138506,5
67456,138483,4
67452,138486,5
67530,138465,5
67437,138466,5
67434,138461,5
67436,138463,4
67486,138468,5
67444,138470,6
67457,138491,4
67454,138522,5
67481,138538,4
67479,138556,5
67487,138571,5
67489,138571,5
67497,138541,4
67496,138597,4
67502,138594,5
67507,138601,5
67515,138545,5
67525,138641,4
67528,138655,5
67528,138654,5
67541,138595,5
67543,138664,5
67546,138680,4
67559,138708,5
67568,138749,4
67567,138717,5
67574,138731,5
67587,138749,4
67585,138841,5
67588,138774,5
67597,138773,6
67599,138781,4
67607,138851,4
67601,138786,5
67603,138789,5
67608,138799,5
67614,138837,4
67617,138818,4
67622,138836,5
67626,138829,5
67623,138824,5
67617,138804,4
67610,138783,5
67604,138773,5
67592,138759,5
67583,138746,5
67583,138746,4
67580,138732,5
67581,138731,5
67575,138737,5
67570,138725,5
67566,138710,5
67552,138691,4
67554,138683,5
67540,138663,5
67536,138647,6
67528,138640,3
67530,138632,5
67521,138633,5
67521,138620,5
67517,138614,4
67511,138633,4
67520,138633,5
67517,138637,5
67534,138634,5
67520,138603,4
67516,138580,5
67502,138577,5
67490,138573,5
67507,138603,5
67536,138650,4
67532,138650,5
67523,138624,5
67517,138619,5
67524,138613,9
67518,138615,1
67525,138607,5
67530,138645,4
67552,138696,5
67571,138713,5
67587,138734,4
67584,138734,5
67581,138729,5
67588,138741,5
67585,138734,5
67584,138720,4
67579,138707,5
67558,138702,5
67563,138674,5
67534,138629,4
67517,138600,4
67492,138559,5
67473,138507,5
67444,138448,5
67417,138391,4
67386,138339,5
67367,138304,5
67350,138290,5
67334,138253,5
67305,138206,4
67284,138140,5
67249,138084,6
67224,138029,4
67186,137986,5
67183,137968,4
67167,137957,5
67159,137946,5
67157,137910,5
67144,137887,5
67123,137856,4
67099,137809,5
67078,137774,5
67060,137741,5
67046,137713,4
67035,137710,4
67036,137704,5
67037,137685,5
67001,137688,5
67020,137680,4
67018,137659,5
67009,137651,5
66950,137654,5
67006,137631,5
67001,137623,4
67002,137627,5
66943,137653,5
67014,137674,6
67036,137711,4
67047,137736,4
67050,137745,5
67057,137756,5
67070,137767,5
67064,137765,5
67137,137772,4
67061,137766,5
67067,137768,5
67055,137752,5
67147,137744,5
67048,137732,4
67043,137734,5
67042,137723,5
67075,137700,5
67021,137677,4
67011,137661,5
67005,137647,5
66998,137627,5
66987,137618,5
66989,137608,5
66982,137617,4
66980,137561,5
66986,137612,5
66990,137619,5
66989,137610,4
66991,137546,5
66983,137621,5
66990,137629,5
66991,137624,5
67000,137613,4
67003,137664,5
67000,137672,5
67008,137670,5
67006,137719,5
67007,137672,4
66998,137660,5
67004,137663,5
67004,137745,5
66999,137652,4
67007,137671,4
67009,137675,5
67013,137737,5
67021,137693,5
67017,137696,4
67023,137703,6
67029,137712,3
67018,137687,5
67022,137692,5
67018,137690,4
67026,137703,5
67016,137698,5
67024,137690,5
67021,137702,5
67026,137702,4
67031,137719,5
67032,137714,5
67022,137713,5
67017,137691,5
67020,137687,4
67021,137687,5
67013,137682,5
67019,137677,5
67020,137684,4
67019,137692,4
67022,137697,5
67018,137696,5
67012,137690,5
67004,137687,4
67012,137660,5
66999,137653,6
67015,137667,4
66996,137660,5
67002,137668,4
67000,137666,5
66992,137656,5
67000,137646,5
66984,137649,5
66990,137646,4
66994,137647,5
66986,137648,5
66990,137639,5
66988,137647,5
66999,137659,4
67001,137669,5
67011,137678,5
67017,137705,5
67021,137714,5
67034,137731,4
67042,137742,5
67048,137764,5
67048,137777,5
67053,137784,4
67064,137791,5
67080,137815,5
67087,137836,5
67099,137874,5
67111,137896,4
67121,137890,5
67124,137902,5
67119,137904,5
67126,137909,5
67135,137913,4
67131,137910,5
67121,137915,5
67132,137913,5
67133,137919,5
67135,137910,4
67119,137882,5
67113,137886,5
67106,137863,5
67091,137853,5
67096,137851,4
67094,137847,5
67095,137832,5
67079,137832,5
67069,137798,5
67070,137793,4
67071,137784,5
67077,137807,5
67076,137819,5
67086,137827,4
67087,137822,5
67092,137835,5
67091,137838,5
67108,137874,5
67135,137912,4
67116,137961,5
67180,138014,5
67215,138103,5
67270,138209,5
67255,138313,4
67388,138408,5
67442,138516,5
67487,138597,5
67434,138630,5
67506,138619,4
67514,138599,5
67517,138650,5
67576,138703,5
67577,138752,4
67630,138848,5
67693,139032,4
67893,139233,5
67883,139314,5
67866,139267,4
67829,139197,5
67871,139130,5
67764,139073,5
67757,139077,5
67774,139113,4
67828,139194,5
67866,139293,5
67907,139384,5
67946,139427,5
67944,139386,4
67913,139343,5
67885,139301,5
67882,139330,5
67928,139360,5
67970,139487,4
68008,139531,5
67982,139478,6
67928,139266,4
67876,139260,5
67844,139223,4
67880,139295,5
67930,139385,5
67975,139467,5
67976,139465,4
67959,139398,5
67894,139348,5
67817,139124,5
67774,139070,5
67790,139115,4
67853,139358,5
67962,139470,5
67988,139474,5
67923,139327,5
67823,139136,4
67712,138904,5
67654,138816,5
67672,138920,5
67772,139077,5
67832,139179,4
67848,139184,5
67813,139096,5
67773,139029,6
67739,139008,4
67734,138978,4
67737,138961,5
67736,138966,5
67773,139075,5
67847,139199,4
67883,139230,4
67849,139134,5
67760,138998,5
67740,138952,5
67720,138915,4
67724,138957,5
67722,138923,5
67701,138910,5
67733,138978,5
67838,139231,4
68001,139519,5
68076,139624,5
68055,139552,5
67935,139256,5
67732,138872,5
67576,138608,4
67544,138585,5
67572,138677,5
67649,138835,6
67738,138983,3
67792,139044,5
67770,139002,5
67729,138928,5
67684,138827,4
67613,138673,4
67558,138600,5
67566,138649,5
67603,138718,5
67636,138743,4
67640,138758,5
67647,138761,5
67630,138742,5
67641,138766,5
67691,138885,4
67719,138924,5
67714,138895,5
67704,138873,5
67688,138871,5
67761,139034,4
67878,139282,6
67982,139435,4
67977,139380,5
67920,139270,5
67827,139076,6
67764,138993,3
67788,139077,5
67891,139321,5
68077,139667,5
68212,139900,4
68234,139893,5
68224,139883,5
68266,139930,5
68236,139884,4
68240,139885,5
68267,139979,5
68412,140317,5
68658,140767,5
68833,141011,4
68790,140892,5
68652,140574,5
68558,140477,5
68638,140694,5
68834,141073,4
68936,141133,5
68832,140923,6
68723,140745,4
68704,140766,5
68775,140911,4
68874,141101,5
68943,141180,5
68900,141170,5
68859,140916,5
68636,140502,4
68521,140358,5
68454,140419,5
68563,140457,5
68556,140431,4
68552,140441,4
68544,140516,5
68629,140620,5
68688,140742,5
68744,140818,4
68775,140771,5
68659,140642,5
68595,140525,5
68554,140456,5
68609,140392,4
68494,140348,5
68472,140326,5
68451,140244,6
68453,140152,4
68339,140063,4
68307,139986,5
68243,139893,5
68245,139882,5
68238,139886,5
68225,139890,4
68232,139864,5
68229,139852,5
68238,139943,5
68257,139946,4
68254,139931,4
68218,139813,5
68183,139804,5
68133,139701,5
68080,139592,5
68034,139431,4
67990,139472,5
67978,139444,5
67985,139472,5
68007,139535,5
68037,139552,4
68039,139565,5
68026,139531,5
67992,139536,6
67937,139354,3
67883,139240,5
67830,139142,5
67795,139170,5
67759,139025,5
67727,138942,4
67674,138832,5
67613,138754,5
67565,138631,5
67509,138549,4
67468,138486,4
67444,138438,5
67429,138405,5
67403,138352,5
67381,138308,4
67354,138274,5
67338,138244,5
67325,138236,5
67313,138205,5
67305,138168,4
67287,138148,6
67286,138131,4
67266,138103,5
67247,138052,5
67211,137993,4
67176,137927,5
67146,137902,5
67139,137870,5
67132,137849,5
67115,137813,4
67086,137789,5
67093,137797,5
67107,137810,5
67107,137837,5
67118,137816,4
67102,137807,5
67084,137784,5
67074,137734,5
67041,137677,4
67000,137621,4
66991,137597,5
66995,137611,5
66993,137603,5
66989,137590,4
66983,137594,5
66992,137593,6
66996,137611,4
66997,137621,5
66995,137609,4
66994,137610,5
66978,137577,5
66967,137548,5
66951,137517,5
66942,137491,4
66926,137445,5
66896,137405,5
66867,137355,7
66829,137275,3
66806,137263,4
66807,137254,5
66804,137234,5
66784,137211,5
66772,137186,4
66754,137151,4
66741,137142,5
66748,137110,5
66722,137081,5
66707,137051,4
66692,137028,5
66667,136959,5
66633,136895,6
66605,136855,4
66587,136822,4
66571,136777,5
66542,136750,5
66531,136724,5
66517,136708,5
66502,136677,4
66490,136646,5
66470,136621,5
66461,136590,5
66451,136580,5
66437,136553,4
66426,136526,5
66415,136530,5
66417,136517,5
66417,136514,5
66412,136499,4
66380,136492,5
66408,136498,5
66406,136491,5
66402,136483,5
66329,136471,4
66378,136417,5
66340,136334,5
66280,136235,5
66169,136176,4
66233,136166,5
66222,136148,5
66221,136130,5
66194,136116,5
66192,136094,4
66174,136055,5
66158,136033,5
66204,136009,5
66132,135984,5
66124,135972,4
66115,135969,5
66197,135970,5
66128,135981,5
66138,135984,5
66135,135987,4
66157,135966,5
66104,135934,5
66089,135907,5
66067,135858,4
66060,135832,5
66042,135819,4
66032,135798,5
66030,135798,5
66016,135723,4
65993,135732,5
65977,135694,5
65960,135669,5
65958,135590,5
65954,135662,4
65957,135672,5
65955,135672,5
65951,135592,5
65932,135626,5
65915,135575,4
65884,135516,5
65847,135491,5
65813,135402,5
65792,135373,5
65787,135347,4
65765,135391,5
65752,135294,5
65747,135260,5
65739,135242,5
65717,135243,4
65680,135130,6
65654,135047,4
65624,135014,5
65606,135006,4
65615,134995,5
65611,134994,5
65615,135009,5
65599,134979,5
65589,134931,4
65572,134904,5
65560,134882,5
65548,134862,5
65542,134873,5
65548,134878,4
65559,134901,5
65569,134908,5
65561,134915,5
65582,134930,5
65573,134927,4
65577,134919,5
65567,134901,5
65564,134894,5
65548,134886,5
65558,134892,4
65549,134877,5
65548,134864,5
65517,134821,5
65513,134817,4
65524,134827,4
65535,134857,5
65547,134878,5
65552,134883,5
65547,134873,4
65541,134858,5
65530,134834,5
65524,134843,5
65532,134840,5
65531,134856,4
65534,134866,5
65535,134849,5
65526,134846,5
65536,134851,5
65549,134887,4
65567,134926,5
65593,134971,5
65610,134986,5
65602,134992,5
65607,134981,4
65602,134961,5
65588,134958,5
65576,134940,5
65584,134944,4
65585,134945,4
65579,134931,5
65573,134915,5
65573,134910,5
65558,134896,4
65556,134883,5
65540,134873,5
65551,134860,5
65549,134878,5
65560,134909,4
65586,134947,5
65598,134973,5
65601,134983,5
65607,134986,5
65599,134972,4
65603,134950,5
65582,134919,4
65563,134889,5
65548,134866,5
65538,134827,6
65519,134792,3
65501,134765,5
65487,134737,5
65476,134743,5
65485,134748,4
65484,134749,5
65487,134751,5
65500,134782,5
65506,134804,4
65513,134801,4
65513,134800,5
65515,134804,5
65503,134823,5
65519,134846,4
65544,134886,5
65557,134907,5
65502,134878,5
65539,134855,5
65515,134809,4
65501,134786,5
65413,134758,6
65484,134745,4
65466,134731,5
65469,134720,4
65472,134741,7
65476,134742,3
65482,134748,5
65484,134738,5
65540,134737,4
65454,134692,5
65440,134657,5
65428,134642,5
65508,134647,4
65432,134647,4
65432,134645,5
65428,134636,5
65454,134614,5
65403,134589,4
65391,134575,5
65389,134574,5
65393,134563,5
65380,134537,5
65360,134506,4
65340,134475,5
65341,134436,5
65355,134524,6
65384,134564,4
65394,134566,4
65383,134484,5
65378,134550,5
65377,134561,5
65388,134571,5
65397,134548,4
65407,134620,5
65422,134635,5
65419,134620,5
65397,134629,5
65384,134546,4
65371,134530,5
65360,134504,5
65356,134604,5
65372,134536,4
65364,134525,5
65379,134538,5
65380,134598,5
65384,134538,5
65356,134513,5
65363,134500,4
65351,134525,5
65358,134520,5
65363,134551,6
65384,134563,3
65389,134577,5
65383,134576,5
65379,134547,5
65366,134525,5
65353,134487,4
65336,134464,5
65325,134450,5
65316,134430,5
65324,134442,5
65326,134467,4
65336,134481,5
65354,134512,5
65365,134510,5
65352,134516,4
65365,134516,4
65350,134509,5
65335,134471,5
65316,134436,5
65314,134440,4
65329,134468,6
65351,134510,4
65344,134489,5
65331,134443,5
65307,134385,6
65274,134348,3
65258,134322,5
65248,134325,5
65247,134305,5
65248,134288,4
65234,134266,5
65212,134238,5
65214,134224,5
65196,134218,5
65197,134205,4
65203,134209,5
65204,134213,5
65205,134225,5
65209,134239,5
65215,134247,4
65214,134236,5
65208,134209,5
65192,134185,5
65171,134155,4
65150,134113,5
65131,134087,6
65120,134065,4
65108,134028,5
65100,134007,4
65088,133977,5
65065,133955,5
65059,133927,5
65032,133909,5
65025,133870,4
65006,133836,5
64973,133794,5
64953,133754,5
64927,133705,5
64913,133660,4
64891,133625,5
64859,133577,5
64833,133521,5
64823,133500,5
64805,133464,4
64790,133438,5
64781,133421,5
64770,133397,5
64760,133378,4
64758,133387,4
64772,133413,5
64774,133425,6
64773,133430,4
64775,133438,4
64783,133453,5
64791,133459,5
64797,133481,5
64799,133493,5
64807,133502,4
64782,133505,5
64821,133511,5
64810,133512,5
64801,133500,5
64751,133522,4
64831,133534,5
64838,133553,5
64846,133558,5
64771,133564,5
64853,133582,4
64856,133595,5
64868,133637,5
64898,133679,5
64920,133726,5
64936,133761,4
64965,133811,5
65054,133853,5
65017,133912,6
65050,133945,3
65061,133985,5
65135,133991,5
65067,133992,5
65067,134004,5
65083,134034,4
65129,134060,5
65113,134100,5
65141,134139,5
65146,134162,5
65163,134151,4
65173,134180,5
65167,134176,5
65171,134176,5
65169,134120,5
65176,134174,4
65173,134184,5
65155,134169,5
65162,134095,5
65161,134161,5
65153,134139,5
65144,134147,4
65145,134112,5
65145,134127,5
65144,134123,4
65137,134131,4
65134,134173,5
65136,134128,5
65140,134127,5
65141,134125,4
65140,134204,5
65141,134104,5
65133,134109,5
65125,134104,5
65125,134134,4
65128,134085,5
65127,134088,5
65135,134096,5
65127,134101,5
65124,134084,4
65112,134071,5
65117,134070,5
65126,134066,5
65113,134052,5
65093,134038,4
65092,134024,6
65083,134007,4
65068,133983,5
65062,133963,4
65048,133934,4
65027,133880,5
64999,133822,5
64961,133770,5
64937,133707,4
64915,133652,5
64882,133599,5
64843,133551,5
64835,133516,5
64808,133476,4
64793,133449,5
64785,133415,5
64762,133399,5
64754,133365,5
64744,133346,4
64724,133334,5
64727,133320,5
64716,133298,5
64706,133296,5
64714,133281,4
64705,133284,5
64698,133274,6
64698,133270,4
64685,133264,5
64675,133247,4
64680,133242,5
64672,133225,5
64674,133219,5
64665,133207,4
64658,133203,4
64657,133195,5
64653,133198,5
64654,133199,5
64651,133175,4
64641,133185,5
64637,133175,5
64648,133180,5
64645,133172,5
64635,133172,4
64630,133174,5
64637,133179,5
64627,133173,5
64637,133165,5
64628,133182,4
64641,133169,5
64638,133177,6
64644,133174,4
64632,133180,5
64631,133159,4
64615,133142,5
64627,133140,5
64626,133154,5
64625,133153,5
64627,133173,4
64627,133171,5
64635,133175,5
64631,133178,5
64634,133181,4
64637,133194,5
64647,133203,5
64653,133216,5
64653,133220,5
64661,133230,4
64664,133230,5
64660,133225,5
64661,133230,5
64659,133222,5
64658,133230,5
64650,133208,4
64654,133219,5
64611,133198,5
64637,133195,5
64645,133181,4
64641,133179,5
64562,133177,5
64633,133174,5
64636,133178,5
64630,133175,4
64564,133178,5
64642,133194,5
64639,133191,5
64631,133183,4
64657,133176,4
64623,133170,5
64624,133163,5
64633,133164,5
64692,133172,4
64635,133168,5
64628,133173,5
64627,133173,5
64693,133169,5
64621,133163,4
64617,133158,6
64622,133163,4
64655,133167,5
64631,133185,5
64644,133203,4
64647,133230,5
64672,133225,5
64668,133249,5
64675,133279,5
64703,133306,4
64710,133293,5
64728,133377,5
64742,133414,5
64765,133432,5
64777,133398,4
64787,133496,5
64803,133524,5
64815,133540,5
64826,133551,4
64838,133566,5
64840,133576,5
64847,133588,6
64854,133671,4
64854,133608,4
64858,133619,5
64868,133627,7
64862,133709,3
64853,133601,5
64859,133615,4
64848,133603,5
64847,133629,5
64846,133597,5
64840,133590,5
64838,133576,4
64842,133592,5
64829,133593,5
64850,133582,5
64827,133575,5
64831,133562,4
64826,133558,5
64827,133555,5
64820,133544,5
64818,133546,4
64810,133531,4
64817,133539,5
64799,133521,5
64803,133537,5
64820,133539,3
64820,133542,5
64819,133551,5
64830,133573,5
64829,133581,5
64835,133593,4
64851,133611,5
64866,133638,5
64869,133639,5
64880,133652,5
64881,133685,4
64894,133687,5
64902,133703,5
64896,133710,5
64905,133704,5
64903,133708,4
64901,133706,5
64894,133705,5
64907,133705,5
64907,133731,4
64912,133731,5
64918,133758,4
64925,133753,5
64934,133757,5
64929,133777,6
64941,133787,3
64944,133792,5
64953,133809,5
64962,133819,5
64955,133828,4
64968,133846,5
64968,133848,5
64976,133849,5
64978,133843,5
64974,133850,4
64974,133850,5
64968,133849,5
64969,133840,5
64980,133846,5
64970,133839,4
64982,133849,5
64977,133840,5
64973,133844,5
64973,133852,5
64979,133857,4
64974,133859,6
64980,133864,4
64987,133870,5
64985,133875,4
64978,133852,6
64973,133862,3
64982,133860,5
64977,133860,5
64984,133863,4
64980,133874,5
64989,133868,5
64987,133875,5
64984,133880,5
64997,133889,4
64991,133908,5
65007,133928,5
65021,133929,5
65023,133953,5
65036,133973,4
65035,133981,5
65050,133991,5
65048,134006,5
65067,134027,5
65026,134034,4
65071,134046,5
65084,134052,6
65091,134075,4
65024,134074,4
65097,134089,4
65100,134084,5
65099,134097,5
65040,134096,5
65108,134105,4
65107,134108,5
65108,134099,5
65131,134102,5
65104,134113,5
65117,134104,4
65098,134099,5
65174,134102,5
65103,134092,5
65097,134083,5
65092,134072,4
65159,134058,5
65078,134049,5
65070,134039,5
65071,134021,5
65086,134007,4
65055,133998,5
65046,133985,5
65042,133986,6
65039,133963,4
65044,133972,4
65047,133990,5
65051,133991,5
65054,133940,5
65054,134006,4
65061,134019,4
65063,134042,5
65075,133977,5
65076,134048,5
65077,134057,4
65078,134055,5
65075,134045,5
65075,134051,5
65079,134065,5
65083,134070,4
65072,134115,5
65075,134031,5
65079,134043,5
65068,134040,5
65072,134120,5
65074,134053,4
65075,134050,5
65085,134049,5
65078,134088,6
65074,134052,3
65077,134044,5
65078,134039,5
65068,134044,5
65070,134039,4
65065,134029,4
65065,134035,5
65061,134025,5
65064,134026,5
65056,134016,4
65055,134012,5
65053,134018,5
65055,134020,5
65057,134014,5
65054,134010,4
65056,134015,5
65052,134003,5
65060,134002,5
65053,133993,5
65043,134001,4
65051,134004,6
65053,133989,4
65053,133990,5
65049,133993,5
65048,133995,4
65030,133966,5
65041,133962,5
65022,133938,5
65014,133925,5
65006,133915,4
65002,133912,5
64996,133896,5
64989,133891,5
64983,133871,4
64977,133852,5
64975,133852,5
64973,133846,5
64980,133850,5
64973,133845,4
64962,133833,5
64959,133814,5
64945,133797,5
64943,133788,5
64946,133788,4
64938,133787,5
64931,133775,6
64927,133775,4
64932,133782,5
64932,133784,4
64944,133777,5
64940,133784,5
64929,133773,5
64922,133755,5
64917,133738,4
64906,133730,5
64905,133711,5
64893,133696,5
64886,133689,4
64869,133665,4
64875,133656,5
64865,133644,5
64852,133643,5
64847,133618,4
64846,133616,5
64841,133586,5
64825,133574,5
64819,133553,5
64792,133523,4
64780,133485,5
64759,133448,5
64746,133412,6
64726,133394,4
64722,133375,4
64709,133352,5
64687,133322,5
64681,133288,5
64666,133272,5
64652,133258,4
64649,133241,5
64643,133240,5
64634,133241,5
64645,133239,4
64642,133237,4
64652,133240,5
64597,133237,5
64639,133217,5
64626,133201,4
64615,133187,5
64551,133184,5
64615,133187,5
64611,133184,5
64624,133170,5
64556,133170,4
64606,133157,5
64604,133162,5
64597,133160,5
64631,133144,4
64594,133148,5
64590,133141,5
64590,133122,5
64659,133128,5
64579,133112,4
64571,133112,5
64569,133097,5
64630,133102,5
64565,133099,5
64566,133081,4
64551,133081,5
64569,133061,5
64540,133038,5
64526,133011,4
64516,133005,4
64507,132968,5
64514,132986,5
64494,132968,5
64488,132964,4
64487,132889,6
64479,132934,4
64458,132900,5
64438,132874,5
64439,132784,4
64431,132842,5
64429,132816,5
64415,132801,5
64401,132784,5
64377,132743,4
64372,132729,5
64364,132720,5
64348,132759,5
64354,132688,5
64336,132658,4
64330,132660,5
64319,132733,5
64313,132629,5
64297,132624,4
64300,132607,4
64306,132629,5
64307,132597,5
64296,132598,5
64287,132589,4
64280,132584,5
64288,132578,6
64269,132571,4
64277,132581,5
64283,132579,4
64275,132587,5
64278,132592,5
64287,132585,5
64283,132579,5
64284,132585,4
64287,132581,5
64276,132578,5
64278,132577,5
64284,132578,5
64274,132564,4
64270,132568,5
64283,132571,5
64272,132551,5
64276,132548,5
64266,132540,4
64257,132521,5
64258,132528,5
64253,132533,5
64256,132527,4
64257,132521,4
64252,132519,5
64257,132523,5
64260,132535,5
64246,132516,4
64250,132521,5
64258,132529,5
64262,132547,5
64256,132545,5
64265,132553,4
64257,132547,5
64257,132529,5
64266,132520,5
64252,132530,5
64255,132521,4
64252,132530,5
64262,132537,5
64265,132550,5
64260,132555,5
64266,132551,4
64274,132564,5
64277,132586,5
64278,132590,5
64286,132592,5
64285,132600,4
64286,132600,5
64290,132597,5
64298,132599,5
64288,132599,4
64292,132600,5
64291,132599,5
64287,132597,5
64285,132588,5
64278,132586,4
64284,132579,5
64286,132578,5
64273,132568,5
64267,132567,5
64274,132562,7
64277,132554,2
64283,132558,5
64266,132549,5
64270,132553,5
64261,132546,4
64267,132538,5
64253,132529,5
64257,132529,5
64257,132520,5
64252,132518,5
64251,132504,4
64241,132516,5
64245,132513,5
64240,132508,4
64230,132507,5
64242,132512,5
64252,132509,5
64242,132521,5
64199,132520,4
64251,132523,5
64261,132519,5
64261,132531,5
64187,132533,5
64260,132545,4
64258,132543,5
64258,132537,5
64233,132552,5
64261,132554,5
64269,132569,4
64271,132569,5
64323,132572,5
64275,132570,5
64271,132580,5
64284,132583,4
64357,132583,6
64280,132594,4
64280,132599,5
64281,132598,4
64329,132607,4
64292,132604,5
64305,132627,5
64298,132625,5
64320,132629,4
64304,132639,5
64308,132630,5
64308,132644,5
64312,132595,5
64306,132637,4
64316,132654,5
64307,132646,5
64309,132572,5
64311,132637,5
64297,132624,4
64296,132609,5
64283,132537,5
64280,132588,6
64271,132581,4
64267,132569,5
64254,132577,4
64252,132528,5
64259,132530,5
64255,132529,4
64259,132610,4
64253,132538,5
64252,132535,5
64250,132531,5
64260,132600,4
64263,132555,5
64273,132577,5
64286,132588,5
64288,132607,5
64291,132598,4
64297,132618,5
64304,132631,5
64313,132643,5
64311,132641,5
64309,132629,5
64301,132633,4
64297,132644,5
64308,132639,5
64310,132646,6
64321,132656,3
64319,132650,5
64319,132670,5
64329,132668,5
64330,132679,5
64331,132668,4
64339,132684,5
64336,132694,5
64333,132695,5
64339,132697,4
64337,132703,5
64346,132699,5
64341,132697,5
64353,132715,5
64346,132707,4
64342,132695,5
64342,132700,5
64346,132711,5
64347,132713,5
64348,132711,4
64348,132701,6
64346,132702,4
64344,132701,5
64338,132697,5
64337,132694,6
64336,132687,3
64342,132684,5
64338,132682,5
64335,132680,5
64333,132671,4
64338,132673,5
64327,132662,5
64325,132659,5
64325,132669,4
64322,132678,4
64326,132678,5
64332,132665,5
64328,132660,5
64331,132661,4
64325,132668,5
64333,132685,5
64333,132676,5
64338,132683,5
64327,132682,4
64337,132695,5
64340,132697,6
64346,132708,4
64349,132713,5
64348,132703,4
64345,132704,5
64355,132711,5
64347,132711,5
64348,132727,5
64354,132715,4
64356,132717,5
64363,132736,5
64360,132721,5
64364,132732,4
64367,132735,4
64365,132739,5
64373,132755,5
64372,132759,5
64372,132769,4
64378,132771,5
64385,132780,5
64381,132778,5
64391,132791,5
64386,132786,4
64393,132799,5
64386,132785,5
64360,132795,6
64390,132784,4
64391,132790,4
64389,132786,5
64328,132793,5
64385,132791,5
64384,132782,5
64385,132780,4
64310,132774,5
64376,132777,5
64391,132770,5
64382,132777,5
64385,132768,4
64377,132766,5
64361,132750,5
64358,132733,5
64423,132723,4
64350,132721,5
64353,132709,5
64346,132701,5
64421,132685,5
64340,132670,5
64338,132677,4
64336,132663,5
64363,132672,5
64326,132663,6
64331,132680,3
64332,132679,5
64346,132690,5
64353,132702,5
64357,132714,5
64352,132715,4
64364,132689,5
64367,132736,5
64364,132743,5
64366,132745,5
64381,132691,4
64379,132758,5
64373,132763,5
64373,132760,5
64365,132699,4
64364,132721,4
64357,132715,5
64348,132715,5
64357,132754,5
64361,132721,4
64351,132721,6
64363,132738,4
64355,132827,5
64363,132749,5
64368,132747,4
64371,132758,5
64375,132803,5
64379,132778,5
64380,132781,5
64390,132786,4
64392,132812,5
64391,132794,5
64405,132801,5
64396,132823,5
64401,132806,4
64411,132817,5
64403,132825,5
64405,132832,5
64415,132826,4
64412,132832,4
64423,132838,5
64413,132830,5
64419,132836,5
64416,132831,4
64405,132827,5
64402,132819,6
64403,132825,4
64417,132817,5
64407,132815,4
64398,132800,5
64390,132780,5
64388,132770,5
64385,132772,5
64379,132759,4
64368,132762,5
64373,132743,5
64369,132741,5
64362,132734,5
64357,132731,4
64366,132733,5
64369,132723,5
64355,132733,5
64366,132732,5
64362,132730,4
64385,132752,5
64374,132757,5
64381,132771,5
64392,132771,4
64394,132790,4
64395,132790,5
64394,132805,6
64403,132814,4
64413,132822,4
64410,132835,5
64417,132838,5
64413,132839,5
64429,132851,5
64422,132839,4
64416,132852,5
64425,132867,5
64432,132861,5
64426,132861,5
64433,132870,4
64436,132866,5
64449,132876,5
64454,132884,5
64451,132901,5
64452,132887,4
64442,132909,5
64456,132901,5
64461,132918,5
64458,132921,5
64471,132926,4
64477,132945,5
64473,132949,5
64479,132964,5
64487,132978,4
64491,132984,5
64507,132996,5
64497,132991,5
64497,132998,5
64509,133010,4
64508,133017,5
64508,133012,5
64502,132999,5
64509,132994,5
64499,132992,4
64494,132980,5
64495,132970,5
64491,132974,5
64485,132963,5
64456,132965,4
64484,132966,5
64479,132970,5
64499,132967,5
64428,132982,5
64488,132981,5
64498,132986,4
64502,132995,5
64436,133006,5
64505,133015,4
64512,133018,5
64527,133039,5
64560,133057,5
64537,133077,5
64553,133093,4
64565,133107,5
64646,133128,5
64583,133139,5
64579,133142,5
64574,133134,4
64635,133140,5
64584,133148,5
64585,133159,5
64607,133180,5
64613,133191,4
64623,133215,5
64630,133235,5
64630,133247,5
64652,133238,5
64661,133295,4
64663,133315,6
64677,133346,4
64691,133305,5
64711,133377,4
64715,133402,4
64732,133424,5
64740,133384,5
64752,133492,5
64770,133506,4
64776,133525,5
64793,133551,4
64806,133572,5
64822,133598,5
64835,133634,4
64848,133711,5
64864,133674,5
64879,133712,5
64890,133736,5
64919,133858,4
64921,133801,5
64948,133827,5
64964,133860,6
64961,133909,4
64965,133857,4
64966,133848,5
64973,133869,7
64968,133887,3
64982,133889,5
64986,133903,4
65003,133917,5
65002,133940,5
65010,133940,5
65016,133952,4
65017,133965,4
65022,133966,5
65037,133996,5
65046,134015,5
65066,134040,4
65079,134067,5
65098,134111,5
65110,134149,5
65131,134176,5
65149,134206,4
65159,134228,5
65173,134249,5
65197,134281,5
65194,134304,5
65209,134326,4
65222,134356,5
65230,134371,5
65238,134376,5
65245,134396,5
65249,134402,4
65260,134415,5
65267,134430,5
65277,134454,5
65286,134460,4
65282,134462,4
65294,134487,5
65301,134505,5
65308,134507,5
65310,134520,4
65324,134527,5
65323,134521,5
65324,134529,5
65323,134515,5
65311,134501,4
65307,134496,5
65306,134483,5
65297,134475,5
65294,134463,5
65286,134446,6
65275,134436,3
65273,134423,5
65264,134399,5
65251,134392,5
65238,134369,4
65225,134350,5
65222,134320,5
65203,134291,5
65179,134268,5
65167,134223,4
65147,134188,5
65133,134153,5
65098,134104,5
65087,134069,4
65064,134032,5
65051,133995,5
65028,133951,5
65008,133926,5
64995,133884,4
64986,133868,5
64973,133856,6
64961,133838,4
64954,133827,5
64960,133818,4
64953,133805,7
64944,133806,3
64942,133805,5
64939,133807,5
64941,133793,4
64939,133790,5
64932,133787,5
64928,133783,5
64932,133782,5
64906,133739,4
64906,133719,5
64843,133716,5
64887,133704,5
64896,133702,4
64893,133712,4
64831,133715,5
64898,133716,5
64897,133730,5
64895,133719,4
64848,133729,5
64908,133742,5
64911,133739,6
64916,133761,4
64958,133764,4
64923,133788,5
64926,133783,5
64919,133791,5
65004,133773,5
64926,133763,4
64921,133750,5
64911,133748,5
64957,133728,5
64899,133718,5
64890,133713,4
64888,133708,5
64905,133697,5
64875,133689,5
64866,133658,5
64862,133664,4
64850,133617,5
64852,133625,5
64847,133632,5
64845,133624,5
64836,133541,4
64822,133584,5
64820,133564,5
64805,133548,6
64794,133455,3
64786,133527,5
64787,133517,5
64784,133506,5
64784,133499,5
64773,133480,4
64771,133467,5
64760,133457,5
64756,133528,5
64753,133456,5
64751,133439,4
64759,133458,5
64754,133533,5
64750,133452,5
64756,133450,5
64766,133465,4
64764,133514,5
64766,133486,5
64767,133500,5
64781,133499,4
64784,133525,5
64782,133522,4
64791,133521,5
64795,133534,5
64802,133541,6
64800,133552,3
64801,133562,5
64804,133562,5
64806,133558,5
64812,133579,4
64810,133565,5
64817,133572,5
64817,133567,5
64820,133575,5
64809,133566,4
64813,133568,5
64816,133572,5
64815,133559,5
64806,133561,5
64803,133566,4
64807,133549,5
64798,133523,5
64783,133518,5
64790,133502,4
64773,133475,4
64758,133471,6
64753,133466,4
64750,133460,5
64749,133450,4
64755,133452,5
64754,133454,5
64751,133455,5
64756,133468,5
64744,133458,4
64763,133470,5
64755,133458,5
64751,133482,5
64766,133489,5
64766,133498,4
64775,133524,5
64783,133527,5
64792,133536,5
64792,133531,5
64791,133530,4
64796,133526,5
64789,133548,5
64799,133563,5
64808,133581,5
64813,133581,4
64817,133591,5
64827,133636,6
64848,133639,4
64852,133675,4
64874,133700,4
64879,133733,5
64900,133743,5
64905,133773,5
64920,133790,4
64927,133804,5
64928,133812,5
64926,133805,5
64933,133807,5
64921,133790,4
64926,133799,5
64928,133802,5
64931,133805,5
64930,133799,5
64925,133784,4
64913,133777,5
64913,133786,5
64911,133781,5
64921,133784,5
64929,133794,4
64946,133827,5
64948,133831,5
64949,133826,6
64937,133832,3
64931,133826,4
64934,133809,5
64935,133807,5
64930,133792,5
64870,133796,4
64913,133768,5
64903,133741,5
64878,133707,5
64796,133679,5
64859,133669,4
64837,133654,5
64847,133646,5
64811,133633,5
64838,133623,5
64834,133622,4
64827,133614,5
64882,133621,5
64845,133645,5
64855,133671,5
64868,133698,5
64961,133720,4
64885,133733,5
64890,133742,5
64900,133766,5
64954,133788,4
64933,133825,5
64942,133830,5
64946,133833,5
64955,133834,4
64935,133835,4
64935,133824,5
64930,133803,5
64914,133742,5
64913,133760,4
64904,133743,5
64889,133714,5
64872,133626,5
64858,133667,5
64850,133639,4
64843,133627,5
64836,133571,5
64835,133633,5
64842,133643,5
64857,133652,5
64852,133691,5
64865,133668,4
64859,133674,5
64868,133681,5
64863,133782,4
64883,133708,5
64888,133719,5
64883,133721,5
64881,133800,4
64896,133753,4
64909,133769,5
64898,133761,5
64907,133774,5
64911,133768,4
64906,133793,5
64933,133822,5
64940,133842,5
64947,133840,5
64947,133848,4
64947,133859,5
64952,133853,5
64959,133861,5
64963,133874,5
64968,133867,4
64965,133893,5
64987,133916,6
64986,133920,4
64986,133924,5
64996,133936,4
64987,133932,5
64997,133942,5
65005,133953,5
65007,133950,5
65001,133945,4
64992,133947,5
65004,133946,5
65003,133947,5
65009,133952,4
65001,133956,4
65007,133962,5
65009,133974,5
65020,133990,5
65027,134004,4
65041,134029,5
65046,134044,5
65050,134044,5
65041,134033,5
65055,134029,4
65038,134026,5
65046,134035,5
65039,134027,6
65037,134009,4
65036,134007,4
65022,133997,5
65034,134016,5
65038,134014,5
65046,134026,5
65046,134044,4
65057,134053,5
65052,134065,5
65067,134075,5
65076,134100,4
65083,134101,4
65099,134120,5
65110,134150,5
65112,134192,5
65137,134217,4
65151,134246,5
65166,134255,5
65162,134281,5
65172,134285,5
65167,134288,5
65184,134294,4
65179,134292,5
65183,134283,5
65175,134296,5
65184,134284,4
65180,134285,5
65181,134280,5
65170,134283,5
65168,134265,5
65171,134276,4
65180,134268,5
65174,134276,5
65179,134289,5
65181,134305,5
65195,134306,4
65198,134321,5
65199,134343,5
65213,134342,5
65207,134342,4
65227,134359,5
65214,134350,5
65187,134352,5
65215,134349,5
65217,134351,4
65206,134345,6
65153,134352,4
65214,134349,5
65213,134343,5
65202,134341,4
65136,134350,5
65206,134345,5
65213,134361,5
65218,134360,5
65227,134357,4
65220,134363,5
65219,134356,5
65218,134356,5
65279,134354,5
65207,134350,4
65211,134354,5
65222,134353,5
65293,134364,5
65214,134348,4
65200,134331,4
65197,134318,5
65215,134303,5
65183,134303,5
65182,134288,4
65174,134266,5
65170,134233,6
65149,134221,4
65146,134215,5
65131,134185,4
65120,134117,5
65123,134166,5
65114,134172,5
65117,134172,5
65120,134079,4
65107,134145,5
65096,134112,5
65078,134088,5
65062,134023,5
65048,134022,4
65039,134007,5
65034,133999,5
65043,134076,5
65063,134064,5
65086,134105,4
65089,134125,5
65095,134202,5
65082,134093,5
65055,134031,4
65023,133970,4
64988,133956,5
64962,133877,5
64945,133827,5
64936,133822,4
64939,133835,5
64956,133873,5
64980,133899,5
64992,133921,5
65000,133947,4
65025,133989,5
65039,134002,5
65035,133990,5
65024,133965,5
65011,133960,4
65005,133961,5
65030,133988,5
65044,134017,5
65046,134028,5
65045,134012,5
65047,134010,4
65041,134005,5
65033,133992,5
65020,133936,6
64977,133902,3
64965,133854,5
64955,133855,5
64963,133888,5
64999,133933,4
65017,133977,5
65032,134005,5
65039,134004,5
65035,133984,5
65029,133983,4
65026,133967,5
65013,133948,5
65012,133969,5
65032,134006,5
65061,134062,4
65085,134110,5
65103,134134,5
65119,134161,5
65127,134171,5
65116,134144,4
65106,134120,6
65092,134102,4
65075,134077,5
65068,134070,5
65072,134079,6
65086,134095,3
65086,134101,5
65091,134096,5
65092,134092,4
65080,134089,4
65087,134093,5
65079,134070,5
65055,134012,5
65027,133970,4
65007,133914,5
64969,133863,5
64947,133812,5
64926,133770,5
64897,133732,4
64880,133681,5
64862,133655,5
64854,133649,5
64843,133631,5
64834,133615,4
64816,133571,5
64795,133540,6
64780,133496,4
64754,133446,5
64738,133423,4
64731,133425,5
64734,133415,5
64722,133394,5
64697,133349,4
64689,133321,4
64683,133331,5
64691,133336,5
64693,133349,5
64684,133341,4
64683,133327,5
64668,133295,5
64660,133283,5
64651,133271,5
64596,133258,4
64642,133234,5
64637,133224,8
64626,133226,2
64557,133230,5
64642,133243,4
64629,133238,5
64628,133240,5
64602,133247,6
64656,133286,4
64660,133278,4
64643,133247,5
64668,133219,5
64630,133211,5
64611,133199,5
64612,133185,4
64673,133162,5
64578,133122,5
64562,133105,5
64535,133065,4
64583,133034,4
64532,133049,5
64540,133065,5
64545,133083,5
64571,133102,4
64576,133127,5
64571,133136,5
64582,133142,5
64577,133098,5
64566,133129,5
64565,133111,4
64566,133109,5
64567,133036,5
64560,133083,6
64549,133090,3
64545,133068,5
64542,132984,5
64531,133050,5
64530,133028,5
64522,133013,5
64500,133021,4
64512,132999,5
64514,133003,5
64509,133007,5
64507,133062,4
64500,132985,5
64507,132994,5
64512,133007,5
64516,133089,4
64508,133024,5
64529,133029,5
64526,133034,5
64523,133069,5
64528,133046,4
64540,133058,6
64535,133064,4
64541,133070,5
64541,133073,5
64545,133072,4
64554,133089,5
64549,133072,5
64547,133074,5
64543,133062,5
64527,133070,4
64542,133058,5
64529,133052,5
64531,133037,5
64525,133031,5
64508,133000,4
64498,132974,5
64480,132961,5
64482,132937,5
64476,132935,4
64480,132934,4
64479,132949,5
64486,132952,5
64487,132953,5
64480,132967,4
64477,132971,5
64485,132960,6
64483,132958,4
64478,132954,5
64487,132969,4
64487,132970,5
64485,132965,5
64478,132959,5
64489,132973,5
64489,132983,4
64489,132989,5
64503,132986,5
64506,133001,5
64503,132997,5
64508,133014,4
64524,133026,5
64515,133038,5
64527,133049,5
64529,133055,4
64525,133056,4
64528,133049,5
64527,133044,5
64525,133056,5
64523,133044,4
64523,133047,5
64517,133034,5
64523,133041,6
64524,133025,4
64514,133017,4
64514,133028,5
64503,133015,5
64508,133000,5
64500,133000,5
64510,132977,4
64496,132980,5
64495,132971,5
64480,132968,5
64484,132955,5
64479,132959,4
64473,132949,5
64484,132954,5
64476,132953,5
64483,132957,5
64481,132959,4
64483,132974,5
64493,132974,5
64496,132984,5
64506,133007,5
64509,133006,4
64506,133017,5
64507,133021,5
64530,133048,6
64527,133067,3
64546,133087,5
64555,133094,5
64531,133098,5
64545,133088,5
64560,133099,4
64553,133093,5
64495,133092,5
64565,133098,5
64564,133112,5
64570,133117,4
64492,133127,5
64571,133131,5
64580,133136,5
64579,133137,5
64577,133141,4
64582,133144,5
64582,133150,5
64586,133157,5
64650,133157,4
64597,133160,5
64597,133165,4
64601,133183,5
64678,133190,5
64605,133189,4
64600,133193,5
64597,133184,5
64633,133183,5
64600,133186,5
64601,133184,4
64597,133185,5
64613,133183,5
64603,133190,5
64597,133197,5
64612,133203,4
64617,133163,5
64613,133226,5
64627,133244,5
64636,133260,5
64648,133221,4
64654,133288,5
64651,133296,5
64664,133297,5
64657,133257,5
64652,133280,4
64663,133289,6
64655,133286,4
64652,133341,5
64656,133283,4
64656,133307,4
64671,133357,5
64687,133468,5
64706,133398,5
64708,133379,4
64698,133365,5
64681,133405,5
64684,133354,5
64700,133372,5
64708,133394,4
64717,133439,5
64734,133445,5
64748,133483,5
64763,133499,5
64769,133523,4
64780,133550,5
64792,133574,5
64811,133623,5
64845,133667,5
64866,133717,4
64871,133725,5
64872,133719,7
64878,133738,3
64897,133782,4
64938,133855,4
64964,133897,5
64983,133936,5
64993,133954,5
64998,133941,4
65001,133979,5
65016,134003,5
65021,133998,5
65030,134010,5
65035,134015,4
65041,134052,5
65067,134106,5
65103,134162,5
65119,134174,5
65103,134157,4
65087,134098,5
65056,134050,5
65044,134030,5
65035,134035,5
65039,134038,4
65037,134020,5
65026,133984,5
65006,133938,5
64984,133934,5
64989,133936,4
64994,133928,5
64995,133947,5
65003,133966,5
65018,133976,4
65014,133986,4
65028,134011,5
65035,134024,5
65040,134041,5
65053,134046,4
65065,134069,5
65071,134093,5
65090,134105,5
65087,134104,5
65074,134094,4
65081,134108,5
65089,134117,5
65105,134145,5
65125,134172,5
65139,134213,5
65154,134234,4
65163,134262,5
65161,134261,5
65178,134284,5
65190,134295,4
65195,134326,5
65201,134338,5
65205,134331,5
65205,134333,5
65217,134347,4
65212,134360,5
65224,134376,5
65228,134373,5
65219,134355,4
65226,134361,4
65223,134355,5
65226,134349,5
65227,134362,5
65230,134382,4
65237,134380,5
65232,134372,5
65232,134372,5
65237,134378,5
65203,134389,4
65244,134393,6
65245,134409,4
65263,134435,5
65189,134415,5
65259,134428,4
65253,134411,5
65257,134411,5
65177,134414,5
65260,134409,5
65249,134402,4
65245,134401,5
65265,134387,5
65234,134367,5
65226,134369,4
65227,134372,4
65300,134371,5
65233,134385,5
65234,134386,5
65237,134399,4
65313,134389,5
65252,134405,5
65254,134408,5
65252,134420,4
65279,134429,4
65265,134441,5
65276,134451,5
65281,134474,5
65281,134450,5
65283,134483,4
65295,134499,5
65308,134517,5
65304,134483,5
65329,134563,5
65334,134582,4
65350,134595,5
65356,134555,5
65364,134628,5
65362,134648,5
65372,134631,5
65371,134620,4
65365,134624,5
65366,134628,5
65361,134628,5
65369,134684,4
65370,134625,5
65355,134632,5
65372,134626,6
65367,134700,3
65365,134621,5
65361,134609,5
65360,134600,5
65344,134623,5
65345,134585,4
65343,134568,5
65331,134563,5
65329,134566,5
65330,134561,5
65334,134569,4
65330,134570,5
65342,134561,5
65343,134567,5
65337,134571,5
65333,134567,4
65333,134577,5
65334,134577,5
65342,134571,5
65343,134575,5
65340,134564,5
65335,134568,4
65324,134547,5
65319,134531,5
65303,134503,6
65297,134471,3
65282,134471,5
65275,134461,5
65276,134458,5
65275,134454,4
65281,134448,5
65280,134451,5
65281,134461,5
65287,134481,5
65283,134480,4
65290,134500,5
65300,134499,5
65305,134516,5
65317,134553,5
65339,134576,4
65350,134595,5
65367,134622,5
65372,134643,5
65374,134659,5
65397,134672,4
65391,134689,6
65391,134693,4
65397,134686,5
65404,134692,4
65405,134708,4
65410,134727,5
65426,134750,5
65442,134795,5
65466,134825,4
65481,134858,5
65499,134902,5
65516,134923,5
65534,134976,5
65553,135015,4
65587,135057,5
65611,135089,5
65625,135130,5
65634,135155,5
65655,135177,4
65670,135207,5
65681,135225,5
65690,135246,5
65693,135250,5
65686,135245,4
65681,135254,5
65696,135256,6
65691,135260,4
65713,135273,5
65714,135271,4
65710,135285,5
65718,135296,5
65725,135287,5
65717,135298,4
65714,135303,5
65712,135302,5
65716,135299,5
65700,135276,5
65706,135263,4
65706,135255,5
65691,135259,5
65699,135286,5
65708,135287,5
65722,135313,4
65729,135319,5
65673,135295,5
65707,135279,5
65708,135267,5
65703,135276,4
65653,135309,5
65750,135362,5
65773,135403,6
65793,135445,4
65789,135505,4
65844,135533,5
65867,135602,5
65924,135712,5
66037,135850,4
66098,136064,5
66189,136249,4
66285,136395,5
66406,136449,5
66347,136507,4
66372,136529,5
66386,136564,5
66453,136593,5
66416,136596,5
66417,136600,4
66437,136657,5
66488,136748,5
66547,136861,5
66599,136974,5
66640,137036,5
66647,137010,4
66650,137040,5
66639,137011,5
66620,136967,6
66598,136855,3
66591,136923,5
66600,136954,5
66632,137011,5
66638,136930,5
66611,136925,4
66561,136819,5
66488,136678,5
66419,136579,5
66366,136455,4
66310,136365,4
66289,136332,5
66286,136411,5
66301,136328,5
66292,136342,4
66279,136303,5
66255,136340,5
66237,136213,5
66210,136175,5
66189,136143,4
66191,136144,6
66175,136089,4
66136,136026,5
66101,135963,5
66064,135885,4
66017,135785,5
65970,135696,5
65920,135626,5
65879,135526,5
65838,135462,4
65809,135420,5
65783,135351,5
65744,135295,5
65724,135242,4
65709,135244,4
65707,135208,5
65681,135174,5
65658,135119,5
65640,135082,4
65631,135064,5
65623,135051,5
65609,135027,5
65600,135017,5
65592,135020,4
65608,135038,5
65619,135059,6
65627,135081,4
65623,135063,5
65606,135021,4
65581,134977,5
65546,134912,5
65527,134864,5
65501,134836,5
65502,134815,4
65491,134819,5
65484,134811,5
65487,134799,5
65468,134783,5
65465,134770,4
65447,134743,5
65440,134738,5
65436,134734,5
65438,134734,4
65443,134731,4
65440,134716,5
65425,134681,5
65399,134637,5
65377,134595,4
65359,134552,5
65349,134541,5
65344,134552,6
65348,134542,4
65356,134561,4
65353,134572,5
65369,134581,5
65366,134572,5
65363,134570,5
65355,134570,4
65359,134568,5
65359,134561,5
65353,134569,5
65362,134586,5
65370,134612,4
65385,134639,5
65398,134665,5
65415,134673,5
65419,134693,5
65418,134686,4
65412,134701,5
65428,134697,5
65434,134715,5
65427,134716,5
65427,134699,4
65417,134698,5
65416,134699,5
65420,134692,5
65418,134685,4
65417,134686,5
65409,134664,5
65397,134649,5
65398,134663,5
65389,134665,4
65399,134663,5
65413,134690,5
65411,134678,5
65349,134668,5
65408,134658,4
65399,134659,5
65395,134641,5
65314,134634,5
65383,134616,5
65377,134608,4
65370,134601,6
65353,134593,4
65356,134570,5
65354,134561,4
65343,134555,5
65402,134552,4
65343,134552,5
65353,134561,5
65347,134557,4
65431,134548,5
65332,134536,5
65318,134516,5
65310,134487,5
65350,134486,4
65319,134488,5
65307,134496,5
65304,134493,5
65322,134513,5
65335,134552,4
65353,134577,5
65362,134595,5
65353,134516,5
65336,134533,5
65328,134532,4
65338,134545,5
65353,134491,5
65361,134590,5
65363,134601,5
65369,134599,4
65383,134592,6
65416,134685,4
65428,134730,5
65452,134763,5
65452,134814,4
65486,134850,5
65536,134960,5
65581,135025,5
65600,135139,4
65597,135056,5
65604,135061,5
65614,135092,5
65630,135193,5
65667,135194,4
65695,135224,5
65698,135235,5
65679,135206,5
65652,135113,5
65631,135075,4
65616,135079,5
65647,135156,5
65716,135293,5
65765,135377,5
65795,135420,4
65824,135476,5
65820,135468,5
65798,135417,5
65770,135372,4
65756,135357,4
65769,135372,5
65766,135374,5
65772,135368,5
65779,135360,4
65766,135360,5
65766,135345,5
65757,135328,5
65731,135274,5
65695,135204,4
65670,135163,5
65667,135174,5
65681,135188,5
65683,135188,5
65678,135181,4
65667,135179,5
65671,135157,5
65652,135137,5
65639,135094,5
65610,135036,4
65587,135008,5
65580,134989,5
65579,134998,5
65588,135013,5
65594,135012,4
65584,135003,5
65579,135000,5
65573,134989,5
65553,134935,4
65528,134905,4
65506,134856,5
65494,134819,5
65461,134751,5
65422,134684,4
65389,134623,5
65383,134638,5
65406,134682,5
65415,134694,5
65424,134696,4
65415,134689,6
65418,134654,4
65396,134626,5
65377,134612,5
65376,134603,6
65379,134623,3
65381,134624,5
65382,134602,5
65357,134577,5
65341,134541,4
65324,134495,5
65305,134469,5
65298,134453,5
65289,134465,5
65314,134491,4
65321,134539,5
65343,134568,5
65364,134603,5
65377,134608,4
65353,134565,5
65320,134493,5
65279,134408,5
65248,134354,5
65225,134323,4
65226,134308,5
65238,134345,6
65254,134393,4
65259,134397,5
65256,134391,4
65242,134360,7
65199,134306,3
65199,134264,5
65177,134241,5
65168,134212,4
65102,134169,5
65131,134147,5
65123,134117,5
65108,134090,5
65017,134055,4
65075,134032,5
65051,133995,5
65044,133969,5
65020,133936,4
65018,133923,4
65009,133918,5
65007,133906,5
65069,133915,5
64999,133902,4
64994,133891,5
64989,133882,5
65081,133902,6
65004,133919,4
65011,133925,4
65011,133922,5
65050,133934,5
65018,133950,5
65042,133981,5
65043,134000,4
65042,133977,5
65025,133949,5
65016,133937,5
65002,133909,5
64994,133852,4
64982,133889,5
64991,133905,5
64988,133907,5
64997,133846,5
64997,133911,4
64997,133904,5
64988,133889,5
64992,133833,5
64983,133868,5
64981,133868,4
64980,133872,5
64975,133924,5
64996,133909,6
65015,133931,3
65015,133960,5
65034,134057,5
65032,133996,5
65047,134003,5
65045,134004,4
65050,134064,5
65040,133992,5
65035,133988,5
65038,133982,5
65019,133990,4
65015,133962,5
65005,133940,5
65000,133903,5
64985,133884,5
64970,133869,4
64960,133834,5
64944,133817,5
64943,133806,5
64930,133786,4
64917,133774,5
64907,133745,4
64902,133740,5
64895,133713,5
64894,133723,6
64891,133719,3
64899,133729,5
64892,133723,5
64898,133728,5
64891,133711,4
64877,133706,5
64879,133683,5
64869,133669,5
64869,133671,5
64866,133667,4
64860,133668,5
64859,133668,5
64867,133689,5
64865,133677,5
64880,133700,4
64885,133709,5
64885,133723,5
64897,133734,5
64899,133743,5
64912,133748,4
64900,133748,6
64902,133757,4
64912,133758,5
64919,133767,4
64920,133792,4
64935,133817,5
64940,133827,5
64938,133820,5
64947,133813,4
64939,133804,5
64935,133802,5
64929,133798,5
64929,133804,5
64929,133818,4
64938,133806,5
64946,133824,5
64941,133824,5
64953,133842,5
64952,133843,4
64946,133838,5
64929,133809,5
64918,133780,5
64922,133764,5
64905,133762,4
64903,133735,5
64895,133723,6
64878,133691,4
64870,133670,5
64845,133644,4
64836,133624,5
64823,133603,5
64821,133585,5
64806,133578,4
64801,133557,5
64792,133542,5
64778,133513,5
64765,133487,5
64753,133454,4
64740,133435,5
64730,133421,5
64731,133424,5
64720,133412,5
64727,133411,4
64717,133386,5
64701,133372,5
64705,133365,5
64660,133355,5
64697,133343,4
64693,133351,5
64694,133345,5
64623,133341,6
64680,133336,4
64679,133335,4
64680,133332,5
64613,133331,5
64682,133340,5
64691,133341,4
64691,133355,4
64689,133348,5
64696,133356,5
64686,133357,5
64690,133349,4
64748,133343,5
64691,133352,5
64683,133341,5
64676,133322,5
64742,133273,4
64636,133246,5
64614,133186,5
64587,133137,8
64585,133093,2
64527,133057,5
64530,133049,4
64531,133049,5
64547,133047,5
64534,133057,5
64527,133046,4
64526,133051,5
64540,132996,5
64532,133046,5
64519,133054,5
64528,133050,4
64538,132992,5
64552,133109,5
64572,133150,5
64594,133185,5
64611,133191,4
64625,133237,5
64636,133246,5
64630,133241,5
64640,133300,4
64630,133231,5
64625,133223,5
64630,133220,5
64618,133309,5
64620,133225,4
64639,133251,6
64638,133255,4
64638,133294,5
64641,133251,5
64644,133270,4
64654,133302,5
64679,133335,5
64693,133351,5
64699,133370,5
64697,133383,4
64705,133385,5
64712,133390,5
64704,133377,5
64701,133372,4
64693,133345,4
64681,133336,5
64671,133343,5
64689,133342,5
64690,133351,4
64682,133347,5
64695,133356,5
64699,133372,5
64695,133361,5
64692,133345,4
64679,133327,5
64673,133314,6
64656,133302,3
64665,133301,5
64660,133307,4
64675,133317,5
64683,133331,5
64682,133332,5
64667,133311,5
64661,133306,4
64663,133303,5
64671,133315,5
64669,133326,5
64683,133317,5
64682,133335,4
64676,133335,5
64681,133334,5
64688,133331,5
64677,133332,4
64672,133325,5
64680,133319,5
64675,133303,5
64668,133304,5
64672,133297,4
64670,133319,5
64680,133325,5
64680,133313,6
64673,133317,4
64672,133315,4
64680,133318,5
64678,133314,5
64674,133316,5
64684,133346,5
64701,133370,4
64710,133404,5
64725,133418,5
64733,133421,5
64732,133428,5
64724,133435,4
64737,133426,5
64730,133425,5
64733,133439,5
64739,133450,4
64747,133467,4
64750,133489,5
64764,133504,5
64770,133483,5
64767,133473,5
64749,133469,4
64750,133468,5
64769,133507,5
64807,133584,5
64845,133660,4
64873,133718,5
64897,133755,5
64916,133787,5
64926,133788,5
64918,133781,4
64913,133789,5
64929,133794,5
64946,133841,5
64970,133892,5
65002,133964,4
65000,134003,5
65036,134029,5
65057,134043,5
65070,134080,5
65015,134092,4
65095,134119,5
65107,134143,5
65108,134159,5
65050,134161,4
65119,134146,6
65101,134132,4
65098,134116,5
65115,134112,5
65103,134115,4
65089,134098,5
65082,134098,5
65156,134095,5
65080,134095,5
65097,134119,4
65106,134150,5
65195,134171,5
65115,134168,5
65130,134174,5
65121,134165,4
65146,134158,5
65120,134165,5
65117,134168,5
65126,134168,5
65127,134174,4
65125,134197,5
65136,134194,5
65137,134189,5
65134,134133,4
65133,134188,4
65119,134179,6
65127,134173,4
65122,134088,5
65115,134171,4
65121,134171,5
65118,134175,5
65126,134164,5
65140,134211,5
65152,134224,4
65152,134221,5
65148,134292,5
65159,134242,5
65158,134234,5
65164,134237,4
65160,134320,5
65150,134222,5
65148,134221,5
65143,134212,5
65146,134263,4
65146,134224,5
65146,134225,5
65152,134212,6
65151,134216,4
65145,134212,4
65142,134214,5
65144,134197,5
65144,134207,5
65136,134196,4
65139,134194,4
65135,134197,5
65137,134191,5
65133,134187,5
65133,134192,4
65133,134184,5
65133,134188,5
65134,134181,5
65128,134160,5
65110,134138,4
65110,134136,5
65099,134123,5
65093,134111,5
65079,134096,5
65085,134081,5
65073,134082,4
65079,134095,5
65081,134088,5
65079,134095,6
65080,134094,3
65085,134091,5
65082,134087,5
65085,134113,5
65099,134111,4
65104,134128,4
65103,134136,5
65104,134151,5
65102,134140,5
65106,134142,4
65100,134147,5
65111,134143,5
65099,134138,5
65107,134145,5
65107,134142,4
65109,134132,5
65094,134118,5
65086,134109,5
65080,134097,5
65068,134077,4
65063,134061,6
65055,134049,4
65047,134034,5
65037,134035,5
65052,134027,6
65042,134005,3
65034,134003,5
65029,134008,5
65035,134011,5
65043,134021,4
65048,134028,5
65056,134053,5
65058,134061,5
65073,134078,4
65087,134107,4
65091,134114,5
65095,134121,5
65106,134124,5
65102,134155,4
65124,134182,5
65134,134197,5
65145,134217,5
65144,134224,5
65146,134205,4
65140,134209,5
65152,134226,6
65147,134228,4
65154,134248,5
65183,134283,4
65190,134318,5
65212,134367,5
65242,134404,5
65261,134441,5
65280,134477,4
65282,134504,5
65296,134507,5
65277,134533,5
65330,134564,4
65348,134611,4
65370,134650,5
65326,134689,5
65399,134709,5
65406,134720,4
65422,134734,5
65349,134739,5
65411,134727,5
65413,134715,5
65413,134709,4
65427,134708,5
65406,134693,5
65407,134705,6
65411,134703,4
65482,134700,4
65407,134707,5
65407,134711,5
65420,134728,5
65490,134724,5
65425,134731,4
65427,134751,5
65437,134767,5
65476,134774,5
65457,134788,5
65446,134804,4
65463,134810,5
65463,134785,5
65451,134785,5
65464,134786,4
65448,134789,4
65459,134728,5
65453,134779,5
65455,134777,5
65457,134781,5
65456,134711,4
65452,134795,5
65458,134803,5
65461,134798,6
65465,134794,3
65475,134830,5
65477,134842,5
65483,134869,5
65504,134947,5
65520,134914,4
65535,134947,5
65530,134960,5
65549,135063,5
65561,134982,5
65558,134992,4
65566,134999,5
65577,135053,5
65582,135026,5
65585,135026,5
65594,135046,4
65586,135048,5
65598,135043,5
65588,135044,5
65590,135039,4
65587,135039,6
65586,135027,4
65578,135018,5
65575,135015,5
65570,135005,4
65572,135010,5
65574,135006,5
65565,134996,5
65556,134996,5
65572,135001,4
65569,135012,5
65578,135021,5
65576,135017,5
65575,135025,5
65581,135029,4
65582,135038,5
65581,135041,5
65594,135060,5
65613,135078,5
65619,135113,4
65626,135107,5
65636,135132,5
65652,135144,5
65646,135157,4
65649,135153,4
65641,135152,6
65640,135150,4
65639,135132,5
65631,135123,4
65627,135120,5
65622,135108,5
65622,135117,5
65617,135108,5
65625,135112,4
65628,135106,5
65619,135109,5
65623,135113,5
65632,135123,5
65633,135129,4
65637,135141,5
65644,135163,5
65656,135192,5
65668,135223,5
65686,135234,4
65709,135262,5
65708,135268,5
65713,135288,5
65724,135298,5
65724,135314,4
65748,135339,5
65747,135366,6
65759,135352,4
65750,135343,4
65761,135380,5
65767,135399,5
65774,135417,5
65790,135435,5
65812,135475,4
65828,135494,5
65828,135518,5
65842,135554,5
65874,135586,5
65899,135649,4
65916,135683,5
65943,135730,5
65956,135740,5
65967,135773,5
65987,135795,4
65993,135823,5
66014,135845,5
66023,135880,5
66038,135911,5
66064,135943,4
66075,135956,5
66083,135969,5
66085,135984,6
66091,136004,3
66057,136000,4
66097,136012,5
66106,136032,5
66113,136037,5
66060,136054,4
66125,136064,5
66124,136064,5
66121,136061,5
66085,136062,5
66121,136055,4
66113,136037,5
66122,136031,5
66159,136037,5
66105,136015,5
66106,136005,4
66085,135991,5
66172,135971,5
66073,135948,5
66067,135928,5
66051,135899,5
66082,135870,4
66019,135852,5
66018,135820,5
66012,135807,5
66005,135793,4
65991,135772,5
65978,135766,5
65977,135747,5
65975,135707,4
65962,135732,5
65952,135729,6
65946,135719,4
65949,135654,5
65955,135705,4
65936,135696,5
65936,135678,5
65921,135592,5
65915,135652,5
65916,135641,4
65912,135626,5
65903,135634,5
65891,135599,5
65886,135603,5
65887,135583,4
65882,135640,6
65867,135560,4
65857,135539,5
65854,135525,5
65834,135589,4
65830,135486,5
65827,135468,5
65812,135453,5
65801,135476,4
65790,135425,4
65783,135404,5
65777,135382,5
65772,135369,5
65755,135345,4
65738,135312,5
65724,135282,5
65712,135244,5
65687,135209,5
65668,135167,4
65650,135134,5
65635,135101,5
65617,135061,5
65588,135035,5
65578,135002,4
65555,134982,5
65553,134953,6
65545,134939,4
65534,134922,5
65527,134913,4
65523,134919,5
65518,134906,5
65516,134898,5
65513,134904,5
65522,134905,4
65522,134899,5
65518,134899,5
65520,134891,5
65522,134905,4
65519,134908,5
65522,134909,5
65514,134905,5
65524,134893,5
65510,134873,4
65494,134852,5
65496,134846,5
65480,134837,5
65479,134835,5
65490,134843,4
65499,134866,5
65499,134874,5
65506,134872,5
65508,134897,5
65508,134898,4
65512,134903,5
65512,134909,5
65522,134925,5
65531,134928,5
65536,134954,4
65546,134958,5
65545,134970,5
65554,134966,5
65555,134978,4
65557,134994,4
65565,134995,5
65574,135012,5
65570,135015,5
65568,135019,4
65574,135023,5
65575,135018,5
65574,135012,5
65565,135002,5
65564,134995,5
65565,134992,4
65556,134997,5
65563,134999,5
65557,134996,5
65556,134975,4
65554,134957,5
65531,134942,5
65536,134936,5
65519,134919,5
65525,134916,4
65517,134905,5
65518,134913,5
65514,134906,5
65509,134896,5
65515,134901,4
65508,134906,5
65517,134926,5
65517,134926,5
65527,134942,4
65542,134972,5
65560,134991,5
65504,135011,5
65570,135019,5
65576,135037,4
65584,135061,7
65526,135085,3
65609,135112,5
65632,135133,5
65635,135159,4
65622,135180,5
65652,135187,5
65656,135194,5
65656,135207,5
65720,135223,4
65678,135231,5
65679,135233,5
65676,135232,5
65771,135244,5
65688,135253,4
65680,135247,5
65693,135256,5
65734,135263,5
65701,135254,4
65698,135270,4
65705,135274,5
65712,135266,6
65695,135270,4
65700,135280,4
65705,135281,5
65698,135233,5
65700,135268,5
65694,135267,5
65700,135271,4
65697,135205,5
65688,135274,5
65699,135282,5
65699,135277,5
65696,135202,4
65690,135262,5
65681,135256,5
65688,135259,5
65683,135269,5
65679,135238,4
65680,135242,5
65681,135244,5
65680,135326,5
65682,135248,5
65688,135248,4
65675,135244,5
65678,135329,5
65686,135256,6
65685,135259,3
65690,135277,4
65705,135308,5
65712,135308,5
65718,135313,5
65721,135340,4
65739,135376,5
65752,135390,5
65760,135414,5
65762,135413,5
65767,135405,4
65763,135394,5
65758,135384,5
65751,135374,5
65758,135396,5
65759,135407,4
65771,135416,5
65780,135433,5
65792,135445,5
65789,135461,5
65795,135481,5
65804,135482,4
65805,135502,5
65816,135511,5
65834,135529,6
65843,135561,3
65851,135573,5
65859,135597,5
65881,135637,5
65906,135675,4
65923,135719,5
65954,135759,5
65968,135784,5
65970,135793,5
65967,135783,4
65964,135785,5
65969,135775,5
65964,135782,5
65968,135775,5
65958,135766,4
65953,135750,5
65941,135720,5
65933,135715,5
65937,135714,5
65919,135688,4
65899,135671,6
65907,135650,4
65886,135619,5
65874,135577,5
65844,135532,4
65834,135508,5
65835,135537,5
65857,135581,5
65898,135665,4
65974,135820,4
66077,136028,5
66195,136241,5
66301,136427,5
66365,136544,4
66393,136568,5
66382,136535,5
66342,136444,5
66289,136327,5
66213,136197,4
66143,136060,5
66071,135945,5
66030,135857,5
65983,135770,5
65945,135706,4
65913,135652,5
65887,135599,6
65866,135548,4
65837,135516,5
65818,135459,4
65798,135428,5
65776,135407,5
65765,135368,5
65744,135349,5
65741,135319,4
65718,135309,5
65716,135291,5
65704,135256,5
65682,135231,4
65650,135198,5
65651,135166,5
65635,135144,5
65626,135130,5
65537,135040,4
65450,134742,5
65335,134561,5
65275,134472,5
65190,134480,5
65289,134516,4
65301,134544,5
65325,134596,5
65343,134675,6
65397,134733,4
65427,134787,4
65451,134817,5
65513,134840,5
65468,134853,5
65463,134856,5
65466,134849,4
65554,134859,5
65464,134868,5
65475,134879,5
65491,134902,4
65528,134891,4
65489,134885,5
65487,134895,5
65486,134883,5
65493,134884,4
65490,134885,5
65489,134908,5
65488,134901,5
65494,134849,5
65495,134914,5
65501,134924,4
65506,134931,5
65518,134862,5
65518,134943,6
65517,134951,3
65520,134949,5
65522,134902,5
65515,134948,5
65528,134946,5
65524,134961,5
65526,135002,4
65520,134962,5
65528,134973,5
65519,134962,5
65529,135047,4
65529,134950,5
65514,134940,5
65516,134948,5
65513,135007,4
65509,134940,4
65517,134943,5
65519,134935,5
65511,134955,5
65517,134946,4
65514,134947,6
65512,134945,4
65519,134937,5
65509,134927,5
65506,134932,4
65497,134932,5
65505,134932,5
65510,134941,5
65503,134927,5
65507,134930,4
65501,134932,5
65507,134931,5
65508,134927,5
65497,134934,5
65508,134944,4
65507,134942,5
65515,134949,5
65514,134940,5
65509,134954,4
65520,134963,4
65515,134969,5
65525,134988,5
65530,134979,5
65530,135000,4
65545,135005,5
65550,135021,6
65558,135031,4
65566,135046,5
65560,135042,4
65561,135043,5
65563,135036,5
65556,135030,5
65555,135009,5
65549,135002,4
65538,134999,5
65535,134995,5
65525,134991,5
65523,134973,5
65529,134978,4
65506,134953,5
65504,134945,5
65497,134929,5
65491,134915,5
65486,134898,4
65478,134869,5
65473,134870,5
65464,134845,5
65454,134826,4
65448,134810,4
65452,134829,5
65453,134831,6
65452,134822,4
65438,134818,4
65427,134778,5
65413,134754,5
65417,134763,5
65421,134766,5
65401,134752,4
65402,134735,5
65393,134730,5
65401,134731,5
65424,134766,5
65427,134774,4
65432,134773,5
65400,134726,5
65367,134677,5
65355,134625,5
65338,134621,4
65330,134602,5
65332,134602,5
65335,134607,5
65352,134635,5
65372,134693,4
65398,134738,5
65409,134739,5
65389,134700,5
65361,134625,4
65327,134547,5
65281,134469,5
65223,134425,5
65248,134435,5
65262,134475,4
65289,134505,5
65235,134513,5
65292,134513,5
65284,134491,5
65273,134481,4
65205,134494,5
65286,134503,5
65288,134492,5
65269,134464,5
65250,134402,4
65190,134294,5
65140,134217,5
65098,134142,5
65131,134098,5
65065,134089,5
65056,134093,4
65072,134102,5
65158,134104,5
65064,134087,4
65064,134097,4
65061,134103,5
65094,134078,5
65041,134045,5
65027,134013,4
65003,133992,5
64996,133959,5
64986,133939,5
64976,133926,5
64965,133914,4
64969,133878,5
64967,133922,5
64965,133913,5
64973,133924,5
64965,133836,4
64953,133880,5
64923,133832,5
64907,133787,5
64874,133703,8
64864,133720,1
64850,133755,6
64903,133806,4
64929,133908,5
64937,133870,4
64935,133871,4
64925,133823,5
64889,133844,5
64856,133711,5
64856,133738,4
64903,133823,5
64942,133966,5
64994,133987,5
65006,134001,5
65005,133978,4
64977,133947,5
64976,133927,5
64982,133947,5
64990,133956,5
65002,133989,4
65003,133981,5
64998,133984,5
65009,134012,5
65054,134071,5
65061,134101,4
65052,134057,5
64993,133958,5
64948,133856,5
64899,133783,5
64896,133785,4
64914,133823,5
64947,133892,5
65005,134010,5
65048,134099,4
65075,134124,4
65073,134107,5
65057,134089,5
65059,134068,5
65042,134053,4
65033,134031,5
65017,133986,5
65001,133970,5
65006,134003,5
65041,134061,4
65073,134124,5
65086,134142,5
65105,134172,5
65104,134156,5
65078,134108,3
65039,134022,5
65000,133948,5
64981,133933,5
65003,133978,5
65025,134037,4
65061,134109,5
65113,134165,5
65109,134163,5
65100,134157,5
65089,134125,4
65081,134123,5
65089,134122,5
65094,134164,5
65111,134167,4
65105,134156,5
65096,134134,5
65095,134156,5
65113,134216,5
65158,134261,4
65168,134303,6
65202,134357,4
65231,134416,5
65262,134458,5
65278,134513,6
65298,134534,3
65312,134540,5
65313,134557,5
65336,134586,5
65353,134625,4
65373,134660,5
65382,134652,5
65336,134581,5
65287,134496,5
65289,134503,4
65326,134568,5
65332,134573,5
65310,134521,5
65282,134478,4
65273,134472,4
65294,134526,5
65348,134628,5
65374,134660,5
65360,134604,4
65329,134543,5
65283,134480,6
65260,134432,4
65254,134431,5
65227,134442,4
65250,134390,7
65199,134299,3
65163,134217,5
65066,134176,5
65113,134142,4
65106,134139,5
65107,134144,5
65036,134163,5
65132,134205,5
65138,134196,4
65123,134157,5
65101,134100,5
65053,134029,5
65028,133994,5
65030,134002,4
65112,134029,5
65049,134037,5
65047,134035,5
65039,134036,4
65120,134026,4
65030,134000,5
65028,133996,6
65030,133989,4
65057,133980,4
65004,133933,5
64978,133893,5
64973,133881,5
64979,133878,5
64985,133918,4
65004,133950,5
65018,133972,5
65002,133900,5
65001,133948,5
65006,133946,4
64996,133942,5
64994,133863,5
65003,133932,5
65002,133956,5
65013,133974,5
65012,133954,4
65014,133962,5
65020,133994,5
65046,134029,5
65068,134124,4
65081,134085,5
65084,134120,5
65099,134133,6
65105,134241,3
65118,134152,4
65098,134134,5
65078,134096,5
65058,134111,5
65054,134050,4
65054,134074,5
65055,134068,5
65062,134078,5
65051,134028,5
65034,134003,4
65024,133992,5
65034,134028,5
65074,134086,5
65107,134144,5
65106,134152,4
65102,134155,5
65110,134143,5
65109,134166,5
65128,134190,5
65124,134196,5
65132,134185,4
65114,134161,5
65112,134172,5
65124,134178,6
65129,134203,3
65144,134200,5
65138,134209,5
65127,134196,5
65139,134210,4
65143,134225,5
65159,134259,5
65179,134294,5
65205,134322,5
65199,134332,4
65187,134314,5
65183,134289,5
65173,134295,5
65172,134298,5
65188,134297,4
65205,134347,5
65247,134436,5
65286,134492,5
65298,134511,5
65279,134470,4
65244,134399,6
65203,134339,4
65209,134345,5
65216,134379,5
65233,134378,4
65230,134378,5
65219,134368,5
65232,134406,5
65256,134465,4
65291,134507,4
65300,134518,5
65285,134497,5
65266,134439,5
65243,134416,4
65242,134431,5
65260,134451,5
65267,134431,5
65238,134390,5
65215,134363,4
65204,134344,5
65189,134325,5
65210,134365,5
65226,134393,5
65240,134407,4
65240,134430,5
65243,134426,6
65242,134405,4
65252,134419,5
65252,134423,4
65242,134401,5
65234,134382,5
65236,134401,5
65265,134470,5
65299,134514,4
65296,134520,5
65297,134518,5
65314,134569,5
65369,134671,4
65413,134751,4
65421,134767,5
65430,134768,5
65416,134735,5
65402,134712,4
65397,134702,5
65365,134710,5
65412,134751,5
65434,134799,5
65476,134865,4
65438,134912,5
65506,134909,5
65477,134851,6
65443,134788,4
65358,134765,4
65445,134779,5
65446,134786,5
65442,134777,5
65427,134725,5
65383,134665,4
65370,134631,5
65366,134641,5
65444,134652,5
65371,134651,4
65362,134607,4
65332,134557,5
65383,134521,5
65294,134488,5
65282,134471,4
65281,134481,5
65321,134487,5
65284,134459,5
65263,134442,5
65262,134424,5
65263,134415,4
65248,134420,5
65263,134424,5
65241,134419,5
65256,134360,4
65256,134426,5
65256,134429,5
65267,134452,5
65281,134407,5
65299,134507,4
65304,134547,5
65325,134563,5
65336,134558,5
65350,134620,5
65371,134656,4
65394,134712,5
65428,134823,5
65451,134814,5
65469,134847,4
65490,134881,4
65505,134987,5
65511,134923,5
65522,134959,5
65558,135013,4
65578,135098,6
65601,135097,4
65612,135120,5
65623,135126,5
65628,135159,4
65624,135129,5
65615,135116,5
65614,135117,5
65615,135124,5
65617,135111,4
65615,135116,5
65617,135128,5
65619,135137,5
65626,135123,5
65613,135131,4
65618,135121,5
65609,135106,5
65607,135112,5
65604,135113,5
65614,135119,4
65619,135130,5
65629,135140,5
65632,135151,5
65624,135151,4
65630,135163,5
65632,135156,6
65631,135148,4
65627,135159,5
65644,135182,4
65637,135170,5
65635,135170,5
65630,135171,5
65637,135175,5
65627,135169,4
65628,135160,5
65633,135152,5
65620,135152,5
65632,135176,5
65631,135166,4
65630,135176,5
65642,135167,5
65638,135173,5
65634,135165,5
65631,135164,4
65625,135149,5
65626,135147,5
65627,135135,5
65620,135129,4
65615,135130,4
65616,135144,5
65615,135134,6
65617,135144,4
65624,135162,4
65644,135180,5
65651,135201,5
65657,135201,5
65649,135203,5
65666,135214,4
65652,135234,5
65669,135239,5
65678,135268,5
65685,135289,5
65698,135307,4
65712,135348,5
65728,135376,5
65742,135390,5
65763,135420,5
65769,135457,4
65795,135497,5
65819,135536,5
65844,135595,5
65876,135652,5
65917,135727,4
65946,135783,5
65972,135818,5
65978,135836,5
65983,135839,4
65992,135841,4
65991,135860,5
65998,135861,5
66003,135872,5
66003,135875,4
66013,135882,5
66014,135899,5
66028,135900,5
65974,135896,5
66014,135875,4
65998,135861,5
65993,135841,5
65912,135821,5
65964,135790,5
65958,135774,4
65943,135758,6
65883,135744,4
65941,135722,5
65917,135710,5
65919,135703,5
65950,135699,4
65918,135698,5
65919,135691,5
65915,135707,5
66009,135734,4
65938,135746,5
65943,135746,5
65936,135748,5
65995,135748,4
65945,135763,4
65956,135781,5
65960,135780,5
65982,135797,5
65968,135803,4
65973,135812,5
65968,135798,5
65961,135771,5
65964,135810,5
65977,135826,4
65985,135850,5
66006,135826,5
66026,135920,5
66045,135954,5
66068,135989,4
66073,135928,6
66095,136050,4
66120,136091,5
66137,136130,5
66158,136176,4
66174,136204,5
66192,136232,5
66208,136266,5
66229,136374,4
66249,136345,4
66259,136381,5
66294,136419,6
66312,136533,4
66334,136497,4
66353,136528,5
66370,136577,5
66397,136647,5
66423,136657,5
66439,136706,4
66460,136745,5
66483,136780,5
66500,136799,6
66509,136825,4
66517,136833,4
66523,136843,5
66520,136846,5
66535,136847,5
66533,136856,5
66538,136869,4
66541,136889,5
66543,136881,5
66558,136893,5
66552,136889,5
66558,136885,4
66558,136887,5
66552,136877,5
66541,136862,5
66542,136862,4
66538,136854,4
66541,136843,5
66545,136856,5
66544,136860,5
66545,136851,5
66542,136845,4
66527,136828,5
66518,136801,5
66498,136769,6
66499,136743,3
66479,136726,5
66465,136696,5
66457,136670,5
66442,136637,5
66432,136618,4
66414,136596,5
66400,136568,5
66395,136552,5
66375,136526,5
66357,136512,4
66365,136500,5
66347,136480,5
66355,136475,5
66336,136460,5
66342,136463,4
66328,136444,5
66321,136432,5
66313,136414,5
66304,136406,4
66306,136391,5
66294,136387,4
66288,136356,5
66270,136340,5
66258,136302,6
66236,136277,3
66234,136262,5
66224,136236,5
66206,136227,5
66213,136213,4
66208,136206,5
66196,136205,5
66206,136216,5
66206,136210,5
66216,136228,4
66211,136233,5
66214,136232,5
66215,136238,5
66223,136250,5
66224,136246,4
66224,136242,5
66218,136228,5
66217,136241,5
66224,136237,5
66210,136234,4
66211,136225,6
66214,136217,4
66203,136201,5
66191,136187,4
66182,136156,5
66158,136136,5
66166,136121,5
66154,136103,5
66145,136090,4
66086,136082,5
66134,136084,5
66136,136089,5
66145,136090,5
66065,136079,4
66130,136057,5
66118,136042,5
66116,136028,5
66079,136016,5
66104,136016,4
66090,136023,5
66087,135998,5
66128,135989,5
66077,135966,5
66076,135952,4
66072,135941,5
66135,135952,6
66060,135941,4
66056,135937,4
66063,135939,4
66112,135939,5
66057,135936,5
66053,135923,5
66066,135932,4
66069,135926,5
66057,135945,5
66060,135958,5
66065,135959,5
66069,135935,4
66079,135969,5
66080,135961,5
66075,135970,5
66070,135900,5
66074,135970,4
66073,135990,5
66087,136010,5
66089,135941,5
66096,136012,5
66093,136000,4
66083,135997,5
66090,136021,5
66094,136002,6
66087,135991,4
66074,135986,4
66077,136045,5
66074,135967,5
66075,135976,5
66082,135971,4
66077,136045,5
66059,135966,5
66064,135933,5
66050,135925,5
66038,135910,4
66017,135873,5
66008,135848,5
66004,135829,5
66000,135826,5
65991,135825,4
65986,135818,5
66005,135835,5
66017,135861,5
66033,135899,5
66026,135910,9
66048,135923,5
66055,135885,7
66051,135953,5
66077,135992,8
66102,136049,7
66147,136123,5
66167,136184,8
66265,136351,7
66265,136351,5
66274,136364,8
66281,136399,7
66298,136407,5
66318,136452,10
66534,136833,9
66534,136833,8
66507,136756,7
66495,136749,12
66495,136749,6
66548,136794,5
66518,136821,8
66524,136809,7
66518,136785,9
66546,136825,10
66546,136825,5
66478,136701,5
66431,136607,10
66389,136528,5
66387,136542,5
66399,136577,10
66429,136625,5
66460,136684,7
66460,136684,8
66465,136695,5
66418,136592,7
66383,136489,8
66328,136423,5
66297,136360,7
66294,136387,8
66294,136387,5
66324,136460,7
66307,136390,8
66279,136311,9
66250,136309,8
66250,136309,5
66310,136393,7
66329,136412,8
66302,136372,5
66266,136309,7
66215,136230,8
66167,136186,5
66273,136338,7
66273,136338,8
66266,136326,9
66255,136292,8
66158,136237,5
66173,136150,7
66114,136041,8
66114,136041,5
66098,136039,7
66148,135953,8
66028,135868,5
65992,135797,7
65949,135706,8
66005,135692,5
65991,135794,7
65991,135794,8
65926,135726,5
65917,135671,7
65924,135672,8
65931,135697,5
65923,135730,7
65962,135734,8
65962,135734,5
65881,135596,7
65874,135606,8
65861,135580,7
65887,135627,7
65995,135861,8
65995,135861,7
65983,135776,5
65975,135729,8
65966,135753,7
65968,135840,5
65978,135712,8
65919,135654,7
65779,135393,7
65779,135393,10
65775,135471,5
65838,135528,5
65851,135552,8
65825,135486,7
65734,135314,12
65739,135320,7
65771,135386,5
65769,135383,10
65781,135379,5
65754,135328,5
65710,135263,5
65699,135255,0
65701,135239,3
65704,135263,5
65736,135327,7
65768,135384,3
65761,135354,5
65717,135274,4
65675,135168,5
65617,135075,5
65589,135022,5
65590,135023,5
65587,135031,4
65573,135011,5
65566,135006,5
65559,134961,5
65519,134895,5
65495,134849,4
65479,134821,5
65468,134822,5
65469,134829,5
65478,134832,4
65476,134828,4
65481,134839,5
65476,134810,5
65454,134787,5
65435,134740,4
65407,134683,5
65387,134636,5
65354,134584,5
65327,134542,5
65305,134510,4
65297,134488,5
65287,134461,5
65266,134436,5
65254,134411,5
65251,134388,4
65243,134384,5
65226,134368,5
65226,134354,5
65218,134361,5
65226,134347,4
65233,134369,5
65235,134368,5
65226,134362,5
65221,134335,4
65206,134317,4
65201,134322,5
65199,134308,5
65193,134306,5
65199,134305,5
65191,134301,4
65178,134270,5
65162,134255,5
65152,134210,5
65123,134169,4
65090,134106,5
65061,134039,5
65048,133999,5
65022,133984,5
65019,133983,4
65016,133983,5
65009,133945,5
64957,133890,5
64949,133846,5
64937,133841,4
64937,133837,5
64893,133865,5
64960,133876,5
64957,133860,4
64949,133829,4
64839,133776,6
64884,133714,4
64859,133684,5
64852,133675,4
64837,133694,7
64869,133712,3
64883,133735,5
64878,133733,5
64929,133699,4
64841,133651,5
64821,133605,5
64791,133574,5
64871,133550,5
64769,133533,4
64776,133549,5
64785,133562,5
64828,133571,5
64778,133538,5
64769,133523,4
64757,133497,5
64754,133484,5
64749,133504,5
64764,133544,5
64786,133578,4
64806,133546,5
64817,133624,6
64820,133629,4
64809,133602,4
64787,133493,5
64760,133520,5
64746,133503,5
64735,133488,5
64740,133479,4
64762,133555,5
64785,133595,5
64803,133619,5
64817,133689,5
64827,133653,4
64815,133638,5
64816,133636,5
64805,133691,5
64797,133598,5
64789,133588,4
64775,133560,5
64771,133591,5
64753,133515,5
64741,133486,5
64697,133416,4
64670,133356,5
64642,133290,5
64606,133242,6
64588,133189,3
64556,133157,9
64555,133138,1
64557,133155,5
64557,133186,5
64562,133164,4
64558,133157,5
64545,133147,5
64542,133117,5
64520,133096,5
64513,133084,4
64492,133071,5
64496,133056,5
64500,133046,5
64497,133043,5
64504,133052,4
64488,133057,5
64488,133045,5
64494,133050,5
64501,133070,5
64524,133111,5
64538,133139,4
64563,133194,5
64576,133234,5
64604,133263,6
64624,133299,3
64635,133338,5
64664,133369,5
64680,133401,5
64688,133436,4
64706,133470,5
64744,133524,5
64762,133564,5
64775,133576,5
64781,133585,4
64780,133588,5
64780,133585,5
64770,133589,5
64770,133579,5
64769,133582,4
64775,133569,5
64763,133546,5
64768,133527,5
64751,133515,5
64730,133512,4
64736,133487,6
64728,133478,4
64734,133499,5
64754,133532,4
64774,133573,4
64787,133589,5
64780,133597,5
64775,133576,5
64763,133569,4
64772,133553,5
64767,133558,5
64767,133553,5
64759,133557,5
64758,133542,4
64743,133509,5
64732,133496,5
64718,133457,5
64700,133438,5
64704,133426,4
64688,133420,5
64690,133405,5
64684,133405,5
64692,133396,5
64679,133392,4
64682,133388,5
64669,133397,6
64675,133392,4
64679,133396,5
64672,133399,4
64672,133414,5
64692,133413,5
64703,133435,5
64698,133445,4
64656,133453,5
64713,133462,5
64715,133469,5
64723,133471,5
64657,133498,4
64722,133497,5
64723,133494,5
64731,133503,5
64701,133506,5
64738,133523,4
64747,133537,5
64746,133538,5
64806,133558,5
64761,133570,5
64772,133590,4
64775,133620,5
64871,133628,5
64804,133624,6
64803,133632,4
64808,133645,4
64845,133639,5
64807,133653,5
64816,133663,5
64820,133657,4
64816,133653,4
64812,133652,5
64812,133635,5
64801,133630,5
64788,133577,4
64780,133591,5
64779,133596,5
64775,133585,5
64774,133517,5
64777,133599,4
64785,133608,5
64785,133602,5
64789,133550,5
64784,133611,5
64785,133603,5
64798,133621,4
64791,133653,5
64792,133616,5
64793,133619,5
64790,133612,4
64791,133689,5
64789,133612,5
64787,133613,5
64788,133613,4
64782,133669,4
64783,133614,5
64784,133609,5
64799,133614,5
64800,133639,4
64793,133630,5
64797,133618,5
64789,133614,5
64789,133607,5
64794,133605,4
64788,133618,5
64796,133607,5
64779,133605,5
64777,133600,5
64784,133600,4
64781,133605,6
64774,133602,4
64777,133595,5
64776,133597,5
64785,133586,4
64771,133575,5
64777,133586,5
64768,133578,5
64767,133569,4
64764,133571,4
64767,133574,5
64775,133572,5
64771,133584,5
64772,133583,4
64769,133593,5
64772,133594,5
64776,133594,5
64776,133606,5
64778,133614,4
64791,133601,5
64789,133611,5
64786,133609,5
64774,133599,5
64782,133600,4
64794,133610,5
64786,133600,6
64786,133613,4
64789,133606,5
64783,133611,4
64787,133613,5
64792,133616,5
64788,133620,5
64792,133623,5
64796,133618,4
64788,133611,5
64789,133608,5
64793,133603,5
64786,133606,4
64787,133611,5
64790,133616,5
64796,133622,5
64790,133613,5
64793,133641,4
64807,133640,5
64801,133650,5
64801,133649,5
64802,133653,5
64803,133641,4
64808,133637,5
64805,133646,5
64812,133649,5
64805,133642,5
64790,133616,4
64785,133594,5
64768,133581,5
64764,133565,5
64760,133545,5
64749,133536,4
64747,133516,5
64747,133549,5
64776,133597,5
64806,133642,4
64822,133692,4
64852,133744,5
64871,133792,5
64897,133834,5
64920,133862,4
64937,133895,5
64939,133895,5
64924,133887,5
64892,133892,5
64954,133927,5
64982,133997,4
65029,134076,5
64977,134087,5
65032,134063,5
65025,134049,4
65019,134046,5
64955,134036,5
65000,134024,5
64996,134027,5
65016,134047,4
65072,134099,5
65072,134157,5
65097,134193,5
65105,134212,4
65174,134198,4
65099,134178,5
65089,134163,5
65085,134162,5
65144,134173,4
65093,134191,5
65113,134224,6
65124,134260,4
65149,134259,5
65123,134243,4
65110,134218,6
65098,134199,4
65082,134133,5
65058,134112,5
65050,134087,4
65025,134054,5
65019,133970,5
65015,134033,5
65012,134032,5
65014,134042,4
65025,133972,5
65022,134045,5
65011,134037,5
65006,134008,4
64997,134006,4
64990,133980,5
64986,133978,5
64987,133976,5
64998,134059,4
65000,134007,5
65012,134017,5
65007,134003,5
65001,134087,5
64996,134004,4
64996,133995,5
65009,134024,6
65029,134093,4
65053,134114,5
65096,134218,4
65151,134309,5
65178,134364,5
65194,134372,5
65184,134359,5
65188,134378,4
65222,134452,5
65285,134582,5
65357,134712,5
65424,134808,5
65450,134871,4
65492,134930,5
65503,134964,5
65519,134974,5
65515,134975,4
65524,134968,5
65512,134956,5
65485,134878,5
65431,134770,5
65384,134677,4
65353,134626,5
65332,134585,5
65296,134518,5
65260,134456,5
65225,134396,4
65212,134364,5
65196,134343,5
65201,134340,5
65186,134325,5
65180,134327,4
65186,134324,5
65179,134311,5
65162,134263,5
65133,134233,5
65118,134187,4
65102,134170,5
65089,134170,5
65094,134151,5
65081,134138,4
65079,134116,4
65065,134107,4
65059,134092,5
65052,134090,5
65047,134083,6
65051,134073,3
65044,134069,5
65038,134066,5
65040,134076,5
65045,134064,4
65037,134067,5
65031,134063,5
65027,134047,5
65032,134035,5
65025,134051,4
65028,134047,5
65028,134057,5
65040,134073,5
65029,134058,5
65016,134045,4
65024,134046,5
65031,134060,5
65030,134062,5
65037,134070,4
65037,134085,4
65045,134087,6
65045,134096,4
65062,134104,5
65059,134113,4
65054,134132,7
65077,134154,3
65085,134164,5
65102,134186,5
65098,134206,4
65103,134218,5
65131,134236,5
65127,134244,5
65133,134274,5
65148,134311,4
65162,134328,5
65149,134343,5
65187,134354,5
65190,134377,5
65192,134385,4
65137,134389,5
65204,134400,5
65203,134389,5
65200,134395,4
65134,134407,4
65214,134426,5
65229,134442,6
65243,134474,4
65277,134480,4
65250,134473,5
65248,134474,5
65251,134466,5
65315,134482,5
65246,134495,4
65264,134496,5
65268,134512,5
65353,134527,5
65277,134547,5
65281,134542,4
65294,134553,5
65311,134541,5
65281,134551,5
65287,134530,5
65286,134537,4
65287,134547,5
65303,134569,5
65309,134586,5
65317,134606,5
65332,134573,4
65342,134659,5
65341,134656,5
65355,134678,6
65351,134600,3
65353,134682,5
65359,134710,5
65382,134734,5
65391,134731,5
65385,134751,4
65394,134765,5
65406,134789,5
65426,134870,5
65437,134837,5
65441,134852,4
65445,134852,5
65448,134950,5
65450,134873,5
65466,134900,5
65480,134908,4
65478,134947,5
65476,134913,5
65486,134922,5
65486,134924,5
65500,134939,5
65496,134939,4
65498,134947,5
65505,134965,5
65502,134969,6
65513,134983,3
65515,134981,5
65520,135007,5
65533,135013,5
65536,135031,4
65540,135039,5
65549,135051,5
65558,135066,5
65560,135067,5
65557,135062,4
65556,135078,5
65569,135088,5
65570,135089,5
65576,135098,5
65584,135120,6
65592,135121,3
65598,135134,5
65597,135152,5
65598,135153,5
65622,135172,4
65623,135183,6
65613,135176,4
65619,135186,5
65626,135185,4
65631,135191,4
65634,135184,5
65628,135179,5
65615,135178,5
65616,135166,4
65612,135151,5
65602,135147,5
65600,135141,5
65599,135135,5
65590,135141,4
65602,135139,5
65599,135143,5
65607,135141,5
65606,135151,5
65608,135154,4
65613,135169,5
65629,135221,5
65647,135242,5
65662,135269,5
65666,135290,4
65690,135325,5
65705,135355,6
65719,135378,4
65724,135405,4
65735,135405,4
65743,135417,5
65752,135435,5
65765,135461,5
65779,135481,4
65793,135527,5
65818,135553,5
65835,135580,5
65853,135629,5
65868,135650,4
65879,135697,5
65909,135730,5
65921,135754,5
65935,135785,5
65944,135804,4
65961,135835,5
65972,135850,5
65985,135877,5
66005,135904,5
66009,135920,4
66024,135939,5
66017,135935,5
66019,135939,6
66017,135927,4
65992,135920,4
66005,135908,5
66004,135910,5
66002,135899,5
65940,135895,4
65987,135888,5
65995,135879,5
65985,135890,5
65919,135884,5
65997,135894,4
65989,135884,5
65982,135869,5
65970,135848,5
65968,135830,5
65955,135821,4
65962,135821,5
66024,135822,5
65957,135812,5
65951,135796,5
65934,135777,5
66016,135762,4
65924,135752,5
65910,135738,5
65916,135736,5
65951,135733,4
65918,135734,5
65916,135727,5
65921,135741,5
65926,135722,4
65911,135723,5
65917,135723,5
65917,135736,5
65917,135693,5
65910,135753,4
65934,135759,5
65923,135762,5
65929,135689,5
65926,135778,5
65934,135784,5
65936,135773,4
65935,135758,5
65940,135791,5
65947,135789,5
65940,135784,4
65945,135848,6
65942,135798,4
65942,135790,5
65936,135786,5
65947,135885,4
65946,135804,5
65953,135805,5
65941,135788,5
65936,135825,4
65926,135762,4
65922,135750,5
65910,135747,5
65919,135749,5
65914,135733,4
65907,135715,5
65901,135699,5
65888,135680,5
65882,135674,5
65876,135671,4
65876,135655,5
65867,135639,5
65852,135623,5
65837,135608,5
65839,135593,4
65828,135574,5
65811,135542,6
65803,135528,4
65802,135517,5
65798,135514,4
65795,135520,5
65791,135506,5
65795,135511,5
65796,135507,4
65789,135510,4
65794,135526,5
65796,135519,5
65793,135521,5
65801,135538,4
65800,135544,5
65801,135552,5
65810,135558,5
65831,135588,5
65827,135589,4
65830,135598,5
65829,135608,5
65829,135584,5
65834,135576,5
65824,135581,4
65822,135569,5
65825,135568,5
65822,135579,5
65835,135591,5
65829,135596,4
65837,135607,5
65848,135617,5
65855,135628,5
65855,135631,4
65852,135636,4
65854,135645,5
65858,135650,5
65859,135648,5
65865,135650,4
65859,135653,5
65860,135657,5
65863,135645,5
65853,135626,5
65848,135620,4
65839,135602,12
65831,135589,7
