RED,IR,EKG,TIME
30992,57491,183542
30997,57500,1
30993,57494,3
41193,82646,5
41182,82613,4
41191,82615,5
41192,82620,5
41185,82622,5
41192,82624,5
41193,82616,6
41188,82612,3
41190,82619,5
41186,82611,5
41183,82611,5
41184,82602,4
41180,82594,5
41175,82585,5
41179,82586,5
41165,82580,5
41163,82578,4
41170,82573,5
41175,82583,5
41161,82574,5
41171,82578,4
41165,82572,4
41166,82568,5
41159,82581,5
41167,82579,5
41167,82590,4
41167,82603,5
41165,82587,5
41173,82606,5
41169,82596,5
41176,82604,4
41176,82603,6
41182,82607,4
41177,82618,5
41182,82633,5
41180,82612,4
41184,82632,5
41178,82622,5
41181,82625,5
41192,82641,5
41186,82646,4
41183,82641,5
41184,82639,5
41187,82647,5
41198,82661,4
41212,82687,4
41222,82721,5
41257,82767,5
41283,82820,5
41310,82870,4
41329,82903,5
41345,82940,5
41359,82955,5
41378,82990,5
41386,83002,4
41415,83047,5
41435,83113,5
41477,83175,5
41501,83202,5
41515,83215,4
41528,83270,5
41570,83334,5
41600,83368,5
41593,83351,5
41585,83334,4
41568,83316,5
41560,83330,5
41576,83330,5
41572,83333,5
41561,83295,4
41538,83268,5
41531,83251,5
41528,83250,5
41534,83264,5
41548,83288,4
41540,83288,5
41539,83262,5
41536,83253,6
41537,83261,3
41545,83277,5
41549,83282,5
41546,83272,5
41517,83223,5
41505,83215,4
41518,83236,5
41499,83251,5
41531,83254,5
41521,83229,5
41489,83173,4
41407,83110,5
41440,83070,5
41406,83041,5
41392,82997,5
41340,82974,4
41346,82919,5
41324,82886,5
41305,82846,5
41320,82832,4
41284,82832,5
41285,82832,4
41274,82808,5
41306,82765,5
41231,82729,6
41217,82709,3
41218,82706,5
41244,82692,5
41197,82670,5
41187,82647,4
41175,82641,5
41174,82625,5
41166,82604,5
41154,82593,5
41140,82573,4
41129,82538,5
41122,82546,5
41111,82533,5
41107,82523,5
41110,82473,4
41101,82511,5
41094,82500,5
41093,82485,5
41085,82437,4
41084,82482,4
41081,82466,6
41068,82468,4
41066,82458,5
41067,82441,4
41059,82445,7
41057,82438,3
41056,82478,5
41058,82433,5
41056,82432,4
41050,82434,5
41051,82479,5
41056,82441,5
41048,82440,5
41059,82436,4
41052,82463,5
41057,82445,5
41056,82454,5
41062,82460,5
41064,82463,4
41070,82457,5
41070,82462,5
41065,82458,5
41073,82464,4
41071,82473,4
41072,82470,5
41066,82466,6
41068,82459,4
41066,82462,4
41073,82464,5
41058,82469,5
41068,82463,5
41063,82480,5
41074,82475,4
41064,82469,5
41069,82472,5
41069,82457,5
41064,82463,5
41060,82470,4
41067,82463,5
41072,82471,5
41062,82463,5
41063,82477,5
41063,82478,4
41077,82478,5
41076,82490,5
41079,82489,5
41079,82501,5
41080,82495,4
41082,82498,5
41085,82491,5
41084,82494,6
41079,82498,3
41082,82500,5
41079,82511,5
41089,82499,5
41086,82516,5
41099,82520,4
41090,82524,5
41101,82538,5
41100,82532,5
41098,82535,5
41105,82530,4
41090,82531,5
41101,82528,5
41102,82536,5
41098,82518,5
41094,82523,4
41096,82528,5
41099,82526,5
41098,82533,5
41102,82541,4
41109,82541,5
41106,82545,4
41109,82540,5
41099,82546,5
41110,82548,6
41111,82554,3
41114,82560,5
41119,82560,5
41104,82546,5
41107,82539,4
41106,82534,5
41093,82523,5
41082,82512,5
41087,82510,5
41073,82480,4
41064,82480,5
41062,82465,5
41067,82471,5
41055,82468,5
41051,82456,4
41058,82460,5
41056,82452,5
41049,82455,5
41048,82443,5
41039,82447,4
41052,82440,6
41044,82439,4
41045,82441,5
41000,82435,4
41042,82427,5
41040,82436,5
41044,82425,5
41000,82422,5
41040,82430,4
41031,82423,5
41041,82420,5
41025,82421,5
41027,82413,5
41024,82400,4
41022,82403,5
41053,82406,5
41019,82401,5
41026,82402,5
41018,82397,4
41070,82390,5
41013,82389,5
41022,82397,5
41015,82383,5
41039,82396,4
41013,82384,5
41007,82380,6
41008,82386,4
41009,82371,4
41009,82387,4
41009,82383,5
41003,82385,5
41019,82353,5
41018,82384,4
41021,82382,5
41021,82394,5
41021,82351,5
41025,82392,5
41016,82398,5
41018,82392,4
41020,82376,5
41016,82401,5
41027,82410,5
41026,82409,4
41028,82440,5
41028,82404,5
41017,82404,5
41020,82399,5
41026,82452,4
41021,82396,5
41028,82403,5
41029,82401,6
41026,82427,3
41022,82401,4
41035,82399,5
41017,82412,5
41032,82413,5
41027,82401,4
41022,82400,5
41019,82398,5
41027,82389,5
41015,82394,5
41009,82381,4
41013,82372,5
41013,82376,5
40999,82372,5
41007,82369,5
41015,82368,4
41004,82378,5
41001,82384,5
41017,82382,5
41014,82382,5
41011,82398,5
41023,82404,4
41033,82413,5
41027,82411,5
41035,82418,4
41038,82428,4
41033,82429,5
41041,82428,5
41028,82422,5
41023,82420,4
41028,82409,5
41010,82396,5
41013,82368,5
41007,82362,5
40996,82359,4
40996,82358,5
40997,82347,5
40991,82356,5
40997,82356,5
40998,82361,4
40998,82359,5
41001,82355,5
40989,82351,5
40994,82365,5
40987,82352,4
40996,82354,6
40996,82364,4
40999,82367,5
40995,82372,5
41003,82369,4
41004,82364,5
40997,82368,5
40995,82361,5
41004,82361,4
40996,82363,5
40996,82353,5
40994,82355,5
40993,82346,5
40983,82354,4
40996,82356,5
40988,82358,5
40993,82358,5
40989,82355,5
40985,82363,4
40994,82370,5
40990,82353,5
40998,82362,5
40992,82355,5
40994,82360,4
40990,82360,5
40992,82361,6
40996,82361,4
41006,82375,5
40993,82369,4
41001,82375,5
41000,82383,5
41001,82384,5
41008,82390,4
41014,82396,4
41020,82398,5
41020,82391,5
41022,82393,5
41021,82411,4
41011,82398,5
41025,82403,5
41007,82414,5
41025,82413,5
41027,82407,5
41032,82423,4
40990,82417,5
41029,82427,5
41030,82413,5
41026,82425,4
40993,82423,5
41034,82425,5
41034,82425,5
41038,82427,5
41052,82418,4
41027,82434,5
41032,82424,5
41035,82428,5
41081,82437,4
41029,82433,4
41032,82440,5
41035,82442,5
41083,82434,5
41027,82430,4
41037,82442,5
41041,82440,5
41052,82444,5
41032,82444,5
41041,82447,4
41041,82447,5
41031,82424,5
41042,82436,5
41043,82438,5
41039,82431,5
41035,82386,4
41029,82414,5
41029,82411,5
41026,82410,5
41018,82355,4
41020,82396,5
41021,82404,5
41023,82404,5
41017,82406,5
41021,82411,4
41030,82437,5
41041,82437,5
41036,82478,5
41053,82455,4
41051,82467,4
41046,82460,5
41050,82518,5
41057,82469,5
41050,82466,4
41048,82469,5
41046,82486,5
41041,82457,5
41037,82461,5
41049,82443,4
41031,82428,6
41024,82409,4
41024,82415,5
41012,82406,5
41021,82407,4
41027,82413,5
41022,82414,5
41020,82410,5
41025,82412,5
41017,82398,4
41027,82411,5
41017,82410,5
41018,82407,5
41023,82411,4
41019,82395,4
41025,82401,5
41021,82397,5
41020,82394,5
41013,82406,4
41012,82393,5
41011,82390,5
41013,82376,6
41004,82386,4
40999,82370,4
41009,82379,5
41009,82390,5
41011,82390,5
40996,82386,5
41012,82385,4
41013,82397,5
41015,82396,5
41015,82394,5
41020,82395,5
41008,82393,4
41010,82400,5
41013,82392,5
41017,82397,5
41015,82387,5
41015,82394,4
41009,82389,5
41014,82389,5
41012,82385,5
41003,82399,5
41015,82400,4
41006,82398,5
41017,82401,5
41017,82397,6
41014,82387,3
41011,82393,5
41009,82397,5
41021,82402,5
41014,82405,5
41025,82412,4
41014,82412,5
41017,82421,5
41026,82422,5
41025,82431,5
41028,82430,4
41035,82436,5
41023,82427,5
41032,82430,5
41037,82429,5
41030,82438,4
41043,82438,5
41037,82436,5
41028,82448,5
41029,82435,4
41040,82434,5
41044,82452,4
41038,82448,5
41041,82451,5
41041,82461,6
41047,82451,3
41047,82448,5
41045,82450,5
41040,82452,5
41037,82443,4
41035,82451,5
41048,82456,5
41047,82455,5
41051,82458,5
41029,82448,4
41043,82448,5
41047,82452,5
41041,82462,5
41000,82466,5
41047,82455,4
41044,82452,5
41039,82461,5
41005,82455,5
41036,82451,5
41041,82445,4
41037,82436,6
41044,82434,4
41023,82426,5
41026,82426,4
41024,82425,5
41068,82422,5
41028,82422,5
41023,82420,5
41028,82436,4
41070,82424,5
41035,82441,5
41043,82442,5
41037,82448,5
41058,82461,4
41052,82479,5
41055,82488,5
41067,82496,5
41067,82484,5
41065,82502,4
41065,82501,5
41056,82489,5
41067,82460,5
41051,82480,5
41049,82462,4
41038,82453,5
41034,82385,6
41026,82428,4
41033,82423,5
41026,82419,4
41033,82416,5
41036,82430,5
41026,82438,5
41023,82428,4
41026,82460,5
41036,82438,5
41031,82443,5
41036,82434,5
41033,82483,4
41031,82427,5
41034,82445,5
41041,82436,5
41032,82461,5
41033,82432,4
41028,82432,5
41035,82424,5
41021,82441,5
41026,82430,5
41026,82412,4
41020,82423,5
41021,82421,5
41020,82410,6
41016,82416,4
41016,82412,4
41019,82419,5
41025,82423,5
41021,82418,5
41026,82416,4
41022,82419,5
41023,82417,5
41023,82413,5
41022,82412,5
41008,82408,4
41017,82410,5
41010,82407,5
41011,82400,5
41015,82397,5
41012,82415,4
41014,82412,5
41027,82419,5
41019,82414,5
41022,82425,5
41022,82416,5
41031,82426,4
41023,82424,5
41029,82436,5
41046,82437,6
41038,82443,3
41029,82448,5
41031,82448,5
41040,82449,5
41034,82454,4
41034,82455,4
41049,82460,5
41048,82464,5
41042,82463,5
41044,82471,4
41039,82463,5
41050,82467,5
41054,82470,5
41051,82465,5
41042,82466,4
41042,82470,5
41046,82474,5
41046,82470,5
41050,82478,5
41052,82469,4
41058,82477,6
41053,82480,4
41053,82472,5
41054,82471,5
41055,82472,4
41053,82478,5
41049,82481,5
41062,82490,5
41054,82475,4
41070,82481,4
41058,82486,5
41056,82490,5
41062,82492,5
41052,82494,4
41058,82488,5
41060,82488,5
41052,82484,5
41049,82475,5
41053,82466,4
41056,82468,5
41041,82456,5
41034,82454,5
41047,82445,5
41043,82458,4
41044,82452,5
41041,82463,6
41047,82462,4
41048,82466,5
41044,82473,4
41051,82475,5
41033,82475,5
41060,82490,5
41074,82503,5
41068,82504,4
41036,82511,5
41073,82526,5
41077,82533,5
41077,82536,4
41039,82539,4
41080,82532,5
41091,82538,5
41088,82525,5
41078,82513,4
41066,82504,5
41066,82497,5
41060,82480,5
41099,82480,5
41050,82473,4
41056,82468,5
41056,82483,5
41105,82478,6
41052,82478,4
41058,82491,4
41053,82482,5
41074,82478,5
41065,82477,5
41060,82496,5
41071,82490,4
41074,82498,5
41069,82502,5
41077,82499,5
41071,82498,4
41067,82462,4
41072,82499,5
41078,82502,5
41066,82491,5
41062,82449,4
41060,82490,5
41067,82493,5
41065,82496,5
41065,82472,5
41064,82506,5
41069,82516,4
41081,82501,5
41079,82546,5
41076,82511,5
41079,82510,4
41082,82523,5
41078,82565,5
41076,82517,5
41074,82504,5
41074,82508,4
41080,82551,5
41077,82518,5
41080,82520,5
41083,82520,5
41080,82533,4
41084,82534,5
41082,82527,5
41083,82535,5
41094,82536,4
41098,82555,4
41103,82549,5
41103,82565,5
41107,82568,5
41108,82576,4
41118,82572,7
41121,82578,3
41118,82596,5
41114,82591,5
41121,82600,4
41125,82601,5
41122,82608,5
41131,82602,5
41132,82611,5
41131,82612,4
41132,82614,5
41136,82615,5
41139,82618,5
41136,82624,5
41126,82618,4
41141,82621,5
41140,82618,5
41134,82620,5
41135,82618,4
41135,82613,4
41134,82616,5
41132,82614,5
41133,82613,5
41138,82621,4
41137,82610,5
41137,82625,6
41130,82616,4
41140,82618,5
41139,82628,4
41144,82637,5
41145,82635,5
41149,82646,5
41143,82656,5
41150,82657,4
41160,82654,5
41159,82651,5
41158,82651,5
41167,82664,5
41157,82665,4
41162,82671,5
41153,82667,5
41162,82659,5
41158,82669,5
41157,82661,4
41155,82664,5
41149,82666,5
41158,82670,5
41166,82668,4
41164,82669,5
41165,82676,5
41167,82676,7
41166,82677,3
41173,82687,4
41193,82683,5
41176,82691,5
41171,82704,5
41176,82707,5
41175,82701,4
41179,82698,5
41176,82696,5
41167,82681,5
41164,82666,5
41163,82647,4
41148,82644,5
41144,82638,5
41143,82624,5
41144,82625,5
41141,82628,4
41142,82635,5
41139,82639,5
41149,82638,5
41135,82639,5
41137,82636,4
41147,82633,5
41144,82640,5
41107,82633,5
41155,82640,4
41148,82644,5
41140,82643,5
41099,82636,5
41144,82627,5
41140,82623,4
41139,82621,5
41123,82618,5
41132,82613,5
41129,82605,5
41129,82610,4
41163,82610,5
41130,82613,5
41130,82615,5
41123,82614,5
41180,82616,4
41126,82617,6
41134,82615,4
41131,82610,5
41162,82603,5
41122,82601,6
41116,82596,3
41122,82595,5
41127,82598,5
41116,82592,4
41120,82585,4
41121,82584,5
41110,82567,5
41124,82588,5
41121,82585,4
41114,82588,5
41121,82560,5
41126,82599,5
41134,82608,5
41127,82610,4
41126,82571,5
41123,82611,5
41127,82620,5
41129,82632,5
41145,82645,4
41146,82645,5
41144,82654,6
41147,82649,4
41155,82698,5
41149,82661,4
41158,82652,5
41152,82661,5
41161,82718,5
41164,82672,4
41157,82671,4
41161,82671,5
41163,82683,5
41165,82668,5
41160,82672,4
41161,82666,5
41160,82661,5
41161,82663,5
41159,82661,5
41151,82655,4
41155,82656,5
41155,82650,5
41146,82643,5
41143,82640,5
41142,82631,4
41136,82631,5
41144,82622,5
41133,82621,6
41125,82623,4
41134,82616,4
41136,82633,5
41136,82633,5
41143,82629,5
41142,82641,5
41141,82646,4
41151,82666,5
41157,82661,5
41160,82682,5
41170,82675,4
41164,82687,4
41172,82686,5
41162,82691,5
41170,82686,5
41159,82686,4
41167,82667,5
41158,82663,5
41150,82651,5
41138,82639,5
41139,82632,5
41139,82631,4
41143,82641,5
41142,82635,5
41140,82641,6
41139,82637,3
41149,82647,5
41146,82646,5
41141,82636,5
41141,82640,5
41142,82648,4
41139,82635,5
41146,82638,5
41149,82642,5
41146,82643,5
41145,82636,4
41140,82630,5
41139,82642,5
41150,82633,5
41140,82635,4
41133,82628,5
41146,82625,5
41144,82633,5
41141,82638,5
41141,82636,4
41133,82637,6
41152,82639,4
41147,82638,5
41142,82646,5
41155,82641,6
41143,82639,3
41139,82638,5
41139,82632,5
41131,82632,5
41143,82630,4
41131,82624,5
41139,82619,5
41130,82621,5
41140,82628,5
41136,82618,4
41127,82626,5
41128,82614,5
41139,82634,5
41143,82633,4
41143,82636,4
41142,82647,5
41151,82644,5
41152,82655,5
41162,82659,4
41123,82675,5
41161,82673,6
41167,82675,4
41163,82683,5
41124,82685,4
41169,82692,5
41178,82694,5
41171,82696,5
41156,82699,5
41178,82699,4
41177,82696,5
41182,82701,5
41200,82703,5
41176,82696,5
41176,82695,4
41179,82686,5
41223,82695,5
41162,82684,5
41167,82679,5
41167,82672,4
41197,82668,5
41158,82664,5
41153,82659,5
41157,82657,4
41159,82640,5
41152,82640,5
41149,82646,6
41152,82651,4
41148,82636,4
41155,82664,5
41163,82666,5
41161,82680,5
41163,82642,5
41164,82691,4
41177,82692,5
41176,82714,5
41183,82656,5
41183,82710,5
41177,82704,5
41171,82696,4
41167,82705,5
41163,82683,5
41149,82669,5
41151,82665,4
41153,82711,5
41163,82666,5
41155,82669,5
41156,82669,5
41170,82718,4
41161,82678,5
41156,82668,5
41168,82671,6
41156,82690,3
41162,82684,5
41162,82678,5
41161,82683,5
41167,82686,5
41162,82675,4
41172,82683,5
41162,82680,5
41166,82674,5
41165,82668,5
41164,82665,4
41154,82666,5
41150,82667,5
41162,82665,5
41153,82669,5
41161,82665,4
41152,82670,5
41161,82676,5
41167,82671,5
41161,82670,4
41160,82681,5
41163,82666,4
41155,82682,5
41146,82666,5
41149,82658,4
41148,82670,5
41156,82664,5
41157,82674,5
41156,82664,5
41149,82669,4
41159,82672,5
41165,82669,5
41163,82671,5
41162,82672,5
41179,82691,4
41176,82682,5
41187,82695,5
41172,82694,5
41171,82707,5
41187,82707,4
41181,82721,5
41193,82726,5
41189,82728,5
41191,82731,5
41190,82730,4
41192,82740,6
41191,82737,4
41198,82738,5
41199,82745,4
41200,82738,4
41195,82739,5
41203,82745,5
41195,82738,5
41197,82737,4
41188,82742,5
41193,82724,5
41185,82729,5
41188,82724,5
41191,82714,4
41181,82707,5
41178,82724,5
41181,82722,5
41183,82705,5
41183,82713,4
41183,82705,5
41173,82713,5
41184,82708,5
41183,82705,5
41174,82719,4
41189,82729,5
41178,82725,6
41182,82723,4
41194,82716,4
41185,82726,4
41181,82709,5
41175,82714,5
41176,82696,5
41166,82695,4
41166,82694,5
41169,82698,5
41172,82698,5
41182,82702,5
41173,82697,4
41167,82695,5
41178,82711,5
41148,82710,5
41181,82709,5
41187,82712,5
41178,82709,4
41140,82722,5
41181,82703,5
41180,82711,5
41185,82705,4
41144,82711,5
41176,82707,5
41177,82703,5
41171,82697,5
41192,82686,4
41171,82687,5
41165,82687,5
41160,82681,5
41210,82680,4
41166,82681,4
41165,82688,5
41173,82685,5
41199,82687,5
41164,82700,4
41169,82697,5
41165,82693,5
41173,82687,5
41168,82693,5
41171,82698,4
41163,82684,5
41174,82676,5
41170,82688,5
41171,82696,5
41171,82699,5
41168,82666,4
41174,82708,5
41178,82707,5
41184,82711,5
41171,82669,4
41181,82721,5
41190,82726,5
41190,82729,5
41191,82731,4
41189,82736,4
41194,82728,5
41187,82733,5
41193,82777,5
41195,82732,4
41197,82734,5
41191,82738,5
41200,82793,5
41199,82744,5
41198,82742,4
41194,82734,5
41190,82750,5
41186,82728,5
41183,82728,5
41188,82711,4
41182,82718,6
41176,82717,4
41180,82712,5
41179,82724,5
41167,82718,4
41177,82710,5
41179,82717,5
41176,82720,5
41183,82715,5
41176,82712,4
41180,82716,5
41186,82710,5
41179,82706,5
41176,82711,4
41170,82692,4
41167,82690,5
41159,82683,5
41153,82663,5
41140,82659,4
41150,82649,5
41146,82657,5
41141,82651,5
41150,82657,5
41150,82654,4
41143,82656,5
41143,82660,5
41144,82662,5
41155,82662,5
41140,82656,4
41146,82665,5
41153,82669,5
41150,82666,5
41150,82670,5
41145,82673,4
41154,82671,5
41154,82668,5
41160,82666,5
41151,82661,5
41145,82655,4
41149,82653,5
41148,82653,5
41134,82640,5
41131,82649,5
41148,82640,4
41140,82643,5
41135,82652,5
41144,82657,6
41138,82655,3
41139,82650,5
41137,82640,5
41130,82645,5
41136,82630,5
41136,82638,4
41136,82632,5
41133,82627,5
41130,82625,5
41129,82624,5
41126,82619,4
41122,82616,5
41121,82616,5
41128,82624,5
41131,82626,5
41121,82619,4
41127,82627,5
41132,82627,5
41126,82626,5
41130,82623,4
41130,82617,5
41129,82627,4
41121,82618,5
41121,82617,5
41124,82609,6
41120,82610,3
41118,82609,5
41118,82611,5
41116,82603,5
41119,82603,4
41111,82602,5
41106,82579,5
41099,82573,5
41090,82563,5
41071,82548,4
41087,82542,5
41083,82539,5
41072,82539,5
41027,82522,5
41072,82513,4
41065,82525,5
41076,82523,5
41030,82522,5
41065,82530,5
41067,82522,4
41062,82510,6
41091,82532,4
41068,82516,5
41072,82520,4
41060,82517,7
41102,82512,3
41063,82510,5
41061,82511,5
41054,82501,4
41093,82516,5
41062,82523,5
41079,82532,5
41072,82544,5
41088,82534,4
41075,82539,5
41075,82544,5
41077,82542,5
41071,82531,5
41074,82534,4
41072,82551,5
41082,82562,5
41087,82522,5
41092,82573,5
41108,82596,4
41122,82642,5
41149,82627,6
41166,82691,4
41162,82692,5
41158,82678,4
41148,82669,5
41158,82692,5
41169,82710,5
41187,82743,4
41218,82833,5
41237,82834,5
41249,82843,5
41247,82844,5
41243,82908,4
41268,82910,5
41297,82948,5
41342,83011,5
41353,83067,5
41363,83041,4
41360,83029,5
41358,83029,5
41355,83037,5
41372,83052,5
41373,83063,4
41369,83062,5
41360,83045,5
41371,83060,6
41386,83099,4
41399,83124,4
41419,83142,5
41412,83131,5
41411,83112,5
41409,83113,4
41396,83114,4
41409,83115,5
41401,83112,5
41393,83098,5
41398,83101,4
41406,83126,5
41425,83169,5
41461,83225,5
41472,83259,5
41483,83265,4
41504,83284,5
41498,83292,5
41493,83265,5
41478,83238,5
41454,83208,5
41454,83213,4
41473,83238,5
41483,83258,5
41486,83258,6
41489,83241,3
41454,83169,5
41406,83061,5
41345,82956,5
41285,82885,4
41248,82816,4
41226,82781,5
41199,82749,5
41186,82702,5
41158,82660,4
41147,82639,5
41135,82626,5
41118,82597,5
41107,82583,5
41101,82556,4
41093,82562,5
41103,82565,5
41099,82561,5
41091,82556,5
41103,82563,4
41095,82556,6
41098,82554,4
41077,82549,5
41074,82534,5
41069,82525,4
41069,82522,5
41068,82503,5
41057,82480,5
41029,82453,5
41032,82444,4
41040,82444,5
41030,82441,5
41029,82439,5
41019,82443,4
41028,82442,5
41028,82443,5
41019,82440,5
41027,82441,5
41022,82437,4
41023,82454,5
41026,82446,5
41030,82458,5
41034,82455,5
41037,82458,4
41031,82454,5
41033,82461,6
41035,82459,4
41033,82450,5
41029,82447,4
41034,82447,5
41006,82450,5
41027,82445,5
41026,82451,5
41038,82449,4
40987,82445,5
41035,82443,5
41032,82448,5
41039,82447,4
41003,82457,4
41028,82457,5
41029,82459,5
41030,82464,5
41048,82460,4
41037,82462,5
41041,82467,5
41043,82462,5
41088,82476,5
41039,82473,4
41040,82474,5
41043,82478,5
41091,82476,6
41049,82482,4
41045,82483,4
41050,82490,5
41064,82486,5
41057,82497,5
41053,82502,5
41060,82490,4
41055,82488,5
41057,82507,5
41053,82501,5
41058,82504,5
41065,82484,4
41073,82525,5
41080,82524,5
41062,82521,5
41076,82485,4
41075,82525,5
41068,82531,5
41074,82537,5
41081,82530,5
41076,82540,5
41073,82550,4
41088,82547,5
41083,82579,5
41081,82548,5
41083,82545,4
41083,82540,5
41084,82600,5
41090,82545,5
41088,82540,5
41087,82554,4
41078,82574,5
41092,82550,5
41086,82540,5
41090,82546,5
41082,82550,4
41089,82549,5
41087,82554,5
41082,82551,5
41080,82547,4
41082,82548,4
41092,82555,5
41083,82546,5
41091,82544,5
41089,82545,4
41086,82548,6
41085,82554,3
41082,82549,5
41084,82540,5
41082,82538,4
41075,82534,5
41076,82527,5
41073,82531,5
41074,82524,5
41059,82519,4
41063,82516,5
41068,82514,5
41067,82522,5
41076,82509,5
41064,82518,4
41072,82528,5
41069,82537,5
41074,82541,5
41087,82550,5
41093,82573,4
41092,82583,5
41100,82580,5
41107,82580,5
41109,82597,4
41104,82596,4
41099,82592,6
41107,82589,4
41108,82584,5
41103,82570,4
41094,82564,5
41078,82532,5
41076,82525,5
41067,82524,5
41070,82523,4
41072,82527,5
41064,82527,5
41072,82533,5
41063,82532,5
41069,82538,4
41080,82528,5
41075,82531,5
41076,82535,5
41080,82529,5
41071,82535,4
41070,82530,5
41071,82538,5
41075,82538,5
41069,82529,5
41069,82524,4
41076,82521,5
41072,82515,5
41066,82516,5
41065,82521,4
41067,82503,5
41060,82499,5
41050,82506,5
41059,82485,5
41048,82495,4
41055,82498,5
41054,82496,5
41054,82494,5
41053,82505,5
41054,82502,4
41049,82486,5
41054,82498,5
41047,82486,5
41051,82483,5
41047,82488,4
41045,82502,5
41048,82487,5
41051,82493,5
41023,82495,5
41046,82501,4
41056,82494,5
41055,82496,5
41021,82502,5
41062,82502,4
41064,82507,4
41057,82509,5
41007,82510,5
41058,82517,5
41064,82518,4
41058,82518,5
41072,82524,5
41061,82520,5
41062,82522,5
41058,82522,4
41105,82524,5
41069,82519,5
41069,82521,5
41072,82523,5
41111,82519,4
41068,82523,5
41071,82523,5
41067,82526,5
41090,82528,5
41068,82522,5
41075,82531,4
41064,82535,5
41071,82509,5
41060,82520,5
41054,82524,4
41068,82520,5
41071,82490,5
41068,82529,5
41064,82528,5
41069,82532,4
41063,82480,5
41063,82523,5
41075,82531,5
41063,82524,4
41066,82513,5
41073,82518,5
41070,82520,5
41073,82516,5
41066,82557,4
41068,82532,5
41065,82522,6
41062,82512,4
41070,82575,5
41063,82521,4
41069,82520,7
41065,82510,3
41069,82551,5
41061,82521,5
41062,82521,4
41064,82512,5
41065,82519,5
41055,82506,5
41057,82507,4
41052,82509,4
41054,82509,5
41058,82507,5
41056,82502,5
41061,82509,4
41061,82516,5
41060,82514,5
41069,82520,5
41065,82526,5
41077,82541,4
41074,82552,5
41089,82564,5
41096,82564,6
41099,82585,4
41096,82589,4
41099,82587,5
41098,82586,5
41101,82589,5
41095,82584,5
41094,82561,4
41087,82553,5
41082,82542,5
41071,82525,5
41066,82512,5
41069,82524,4
41071,82519,5
41062,82524,5
41067,82524,5
41064,82523,4
41065,82524,4
41068,82534,5
41075,82535,5
41067,82538,5
41070,82544,5
41077,82540,4
41074,82538,5
41071,82534,5
41078,82537,6
41076,82535,3
41073,82533,5
41079,82536,5
41068,82524,5
41070,82526,5
41065,82520,4
41070,82523,5
41064,82515,5
41058,82517,5
41061,82518,5
41059,82522,4
41056,82518,5
41061,82514,5
41066,82520,5
41058,82517,4
41056,82512,4
41054,82507,5
41054,82499,5
41054,82510,5
41056,82505,4
41060,82516,6
41066,82511,4
41063,82517,5
41069,82515,5
41072,82523,6
41068,82531,3
41078,82533,5
41073,82540,5
41077,82559,7
41082,82562,3
41087,82571,4
41081,82579,5
41098,82585,5
41107,82593,5
41110,82603,4
41110,82603,5
41109,82611,5
41119,82617,5
41120,82631,5
41132,82643,4
41109,82639,5
41127,82650,5
41142,82654,5
41136,82651,4
41105,82658,4
41150,82663,6
41143,82672,4
41146,82672,5
41112,82682,4
41163,82695,5
41164,82706,5
41171,82709,5
41183,82716,5
41180,82716,4
41178,82711,5
41179,82719,5
41216,82715,5
41175,82726,5
41165,82712,4
41166,82704,5
41217,82706,5
41166,82707,5
41173,82708,5
41172,82715,4
41191,82716,5
41175,82725,5
41179,82711,5
41181,82722,4
41176,82713,4
41169,82715,5
41175,82720,6
41174,82708,4
41173,82680,4
41166,82707,5
41168,82710,5
41174,82708,5
41176,82664,5
41173,82700,4
41167,82712,5
41174,82714,5
41174,82698,5
41171,82717,5
41179,82713,4
41179,82721,5
41184,82759,5
41184,82721,5
41187,82740,5
41185,82734,4
41186,82796,5
41200,82747,5
41193,82759,5
41188,82747,5
41189,82782,4
41189,82730,5
41171,82729,5
41166,82708,6
41165,82718,3
41163,82698,4
41151,82670,5
41156,82679,5
41155,82683,5
41146,82673,4
41154,82671,5
41163,82669,5
41150,82672,5
41144,82671,5
41155,82679,4
41145,82664,5
41144,82660,5
41141,82657,5
41137,82660,5
41139,82661,4
41145,82654,5
41135,82646,5
41142,82639,5
41129,82647,5
41123,82638,5
41129,82618,4
41121,82622,5
41122,82617,5
41117,82611,5
41110,82607,4
41104,82596,5
41110,82607,5
41100,82588,5
41096,82594,4
41098,82580,4
41101,82573,5
41103,82568,5
41093,82573,5
41084,82562,4
41089,82557,5
41083,82561,5
41079,82547,5
41085,82546,5
41083,82539,4
41072,82538,5
41075,82538,5
41072,82537,5
41082,82540,5
41080,82534,4
41075,82535,6
41084,82541,4
41076,82546,5
41077,82541,5
41077,82536,4
41073,82528,5
41068,82526,5
41062,82523,5
41058,82513,4
41052,82513,4
41052,82507,5
41058,82504,5
41054,82497,5
41056,82498,4
41050,82500,5
41056,82494,5
41052,82489,5
41054,82497,5
41048,82488,4
41051,82488,5
41038,82467,5
41031,82465,5
41029,82452,5
41022,82450,4
41019,82439,5
41018,82440,6
41023,82443,4
41024,82448,5
41026,82458,4
41033,82455,5
41023,82454,5
41023,82458,5
41029,82444,5
41030,82454,4
41024,82452,5
41026,82458,5
41013,82443,5
41023,82450,4
41024,82447,4
41012,82434,5
40993,82445,5
41026,82446,5
41035,82459,4
41029,82457,4
40987,82472,5
41034,82475,5
41039,82473,5
41047,82482,4
41039,82494,5
41050,82497,5
41055,82494,6
41059,82515,4
41105,82510,4
41067,82523,5
41066,82529,5
41071,82539,5
41125,82545,5
41066,82549,4
41083,82543,5
41067,82534,5
41085,82526,5
41064,82523,5
41064,82515,4
41047,82504,5
41056,82493,5
41065,82504,5
41053,82502,4
41060,82498,5
41057,82484,5
41055,82507,5
41060,82504,5
41059,82509,5
41064,82470,4
41064,82517,5
41062,82510,5
41057,82509,5
41063,82487,4
41069,82525,5
41054,82515,5
41068,82516,5
41054,82528,5
41056,82507,4
41044,82497,5
41058,82502,5
41052,82534,5
41049,82486,5
41046,82484,4
41050,82482,5
41040,82535,5
41042,82495,5
41057,82502,4
41048,82510,4
41048,82519,5
41052,82501,5
41062,82502,5
41057,82500,4
41054,82506,6
41053,82501,4
41047,82504,5
41052,82497,5
41060,82496,4
41049,82513,5
41058,82511,5
41062,82508,5
41056,82507,5
41061,82516,4
41057,82514,5
41057,82520,5
41072,82520,5
41068,82524,5
41066,82534,4
41071,82530,5
41078,82533,5
41074,82548,5
41072,82542,5
41074,82542,4
41084,82555,5
41093,82567,5
41087,82563,5
41086,82566,4
41088,82571,4
41090,82573,6
41096,82582,4
41096,82578,5
41099,82578,4
41101,82590,5
41096,82586,5
41097,82582,5
41101,82589,5
41094,82576,4
41099,82582,5
41100,82582,5
41103,82589,5
41097,82583,5
41087,82585,4
41086,82579,5
41099,82580,5
41093,82580,5
41097,82581,5
41106,82585,4
41097,82594,5
41109,82589,5
41107,82592,5
41096,82596,5
41099,82589,4
41107,82603,5
41101,82614,5
41099,82608,5
41105,82601,4
41102,82595,5
41095,82585,5
41100,82582,5
41099,82578,5
41088,82563,4
41079,82560,5
41084,82557,5
41085,82560,5
41082,82571,5
41081,82563,4
41084,82566,5
41093,82576,5
41088,82573,5
41094,82573,5
41090,82575,5
41089,82580,4
41091,82576,5
41095,82579,5
41103,82581,6
41100,82585,3
41094,82585,5
41105,82588,5
41099,82583,5
41097,82590,4
41093,82592,4
41096,82589,5
41090,82581,5
41083,82580,5
41060,82567,4
41087,82575,5
41091,82574,5
41089,82577,5
41060,82581,5
41098,82571,4
41086,82577,5
41090,82573,5
41065,82578,5
41091,82578,5
41085,82579,4
41092,82570,6
41121,82582,4
41092,82579,5
41093,82577,5
41098,82579,6
41147,82586,3
41100,82590,5
41098,82599,5
41118,82609,5
41132,82602,4
41113,82607,5
41104,82611,5
41106,82613,5
41118,82602,4
41113,82602,5
41109,82614,5
41117,82613,5
41114,82598,5
41107,82619,4
41116,82615,5
41114,82615,5
41114,82569,5
41105,82604,5
41109,82613,5
41102,82599,4
41105,82563,6
41101,82604,4
41107,82611,5
41109,82600,4
41102,82595,5
41097,82587,5
41096,82577,5
41100,82586,5
41098,82616,4
41096,82579,5
41087,82574,5
41088,82579,5
41089,82629,5
41091,82572,4
41092,82581,5
41094,82588,5
41097,82612,5
41097,82600,4
41106,82600,5
41104,82604,5
41096,82600,5
41103,82592,5
41091,82590,4
41091,82567,5
41082,82563,5
41069,82554,6
41067,82532,4
41056,82526,4
41063,82517,5
41059,82515,5
41061,82522,5
41060,82517,5
41065,82527,4
41059,82520,5
41068,82520,5
41050,82519,5
41055,82512,5
41055,82512,4
41060,82502,5
41048,82507,5
41048,82500,5
41044,82495,4
41035,82492,4
41034,82484,5
41032,82472,5
41026,82464,5
41022,82456,5
41027,82469,4
41022,82474,5
41039,82488,5
41047,82510,6
41066,82535,3
41087,82595,5
41110,82632,5
41133,82673,5
41152,82705,5
41155,82713,4
41167,82733,5
41197,82770,5
41209,82811,5
41237,82874,5
41277,82928,4
41318,82999,5
41353,83065,5
41375,83105,5
41396,83134,5
41406,83175,4
41435,83205,5
41463,83247,5
41475,83267,5
41477,83293,4
41506,83312,6
41522,83372,4
41574,83466,5
41620,83533,5
41639,83554,4
41634,83521,5
41607,83486,5
41608,83491,5
41624,83552,5
41702,83688,4
41762,83786,5
41790,83816,5
41776,83797,5
41757,83739,5
41719,83675,4
41701,83651,5
41695,83644,5
41698,83647,5
41675,83614,5
41651,83556,4
41624,83511,5
41597,83475,5
41596,83480,5
41618,83515,4
41643,83567,4
41672,83606,6
41667,83603,4
41654,83580,5
41640,83538,4
41627,83511,5
41593,83525,5
41644,83576,5
41668,83617,5
41698,83654,4
41654,83655,5
41697,83643,5
41677,83609,5
41654,83590,5
41594,83551,4
41618,83518,5
41607,83480,5
41593,83455,5
41583,83416,5
41543,83367,4
41507,83284,5
41464,83200,5
41454,83116,5
41360,83045,5
41330,82973,4
41285,82902,5
41299,82847,6
41232,82807,4
41209,82771,4
41182,82737,4
41191,82726,5
41171,82697,5
41158,82687,5
41152,82680,4
41152,82647,5
41144,82652,5
41138,82646,5
41128,82632,5
41121,82593,4
41110,82607,5
41118,82606,5
41112,82617,5
41120,82574,5
41114,82614,4
41113,82595,5
41108,82594,5
41110,82584,5
41099,82592,5
41094,82574,4
41089,82563,5
41081,82589,5
41074,82557,6
41077,82552,3
41083,82548,4
41078,82617,5
41083,82556,5
41080,82542,5
41071,82542,4
41073,82552,5
41066,82530,5
41063,82520,5
41069,82535,5
41063,82533,4
41071,82539,5
41064,82532,5
41058,82516,5
41059,82509,5
41056,82497,4
41043,82493,5
41038,82485,5
41033,82484,5
41045,82484,5
41042,82500,5
41052,82496,4
41052,82497,5
41050,82501,5
41056,82510,5
41060,82511,4
41054,82518,5
41069,82531,5
41073,82519,5
41062,82519,4
41059,82529,4
41056,82525,5
41072,82527,5
41056,82514,5
41047,82503,4
41037,82504,5
41046,82485,5
41038,82475,5
41033,82463,5
41016,82446,4
41019,82431,5
41010,82432,5
41015,82427,5
41011,82425,5
41016,82427,4
41011,82433,6
41009,82440,4
41022,82459,5
41030,82464,5
41031,82460,4
41023,82470,5
41033,82475,5
41033,82480,5
41035,82469,5
41032,82473,4
41027,82471,5
41025,82461,5
41026,82456,5
41013,82439,4
41012,82428,5
41012,82439,5
41012,82429,5
41015,82430,5
41004,82439,4
41019,82444,5
41023,82457,5
41022,82457,5
41026,82460,5
41025,82458,4
41027,82453,5
41022,82453,6
41012,82453,4
41027,82453,5
41016,82458,4
41019,82457,5
41018,82463,5
41018,82457,5
41023,82472,5
41017,82457,4
41016,82454,5
41029,82458,5
41019,82456,5
41022,82447,4
41023,82451,4
41025,82463,5
41030,82466,5
41020,82459,5
41022,82458,4
41027,82463,5
41027,82478,5
41036,82468,5
41009,82472,5
41025,82465,4
41030,82469,5
41035,82477,5
40983,82474,5
41021,82469,5
41024,82467,4
41036,82471,5
40986,82480,5
41028,82466,5
41031,82474,5
41034,82476,4
41055,82473,5
41033,82474,5
41030,82482,5
41038,82487,5
41079,82486,4
41042,82489,5
41033,82481,5
41038,82489,5
41083,82496,4
41038,82507,5
41038,82488,5
41044,82498,5
41072,82496,5
41049,82501,5
41047,82506,4
41054,82511,5
41045,82492,5
41053,82515,5
41060,82513,4
41055,82511,5
41054,82476,5
41062,82528,5
41062,82520,5
41064,82526,4
41053,82480,5
41052,82521,5
41064,82517,5
41056,82524,5
41056,82517,4
41050,82513,5
41050,82514,5
41051,82511,5
41049,82545,4
41055,82503,4
41046,82508,6
41052,82499,4
41048,82541,5
41036,82488,4
41033,82479,7
41031,82484,3
41037,82520,5
41027,82474,5
41029,82487,4
41044,82488,5
41037,82500,5
41053,82515,5
41055,82513,5
41058,82512,4
41052,82521,5
41059,82520,5
41060,82528,5
41061,82524,5
41065,82533,4
41054,82526,5
41061,82521,5
41053,82508,5
41045,82493,5
41045,82494,4
41030,82477,5
41024,82457,6
41023,82462,4
41027,82457,4
41026,82455,4
41028,82464,5
41028,82470,5
41027,82454,5
41021,82466,4
41022,82454,5
41024,82451,5
41027,82451,5
41017,82455,5
41022,82461,4
41019,82462,5
41025,82460,5
41025,82455,5
41018,82469,5
41018,82466,4
41018,82451,5
41021,82447,5
41017,82443,5
41020,82442,5
41007,82448,4
41019,82436,5
41013,82439,5
41010,82436,6
41016,82433,3
41012,82437,4
41014,82433,5
41017,82438,5
41010,82429,5
41012,82431,4
41009,82438,5
41005,82423,5
41003,82424,5
41008,82421,5
41003,82416,4
40996,82416,5
41002,82417,5
41002,82424,5
40999,82427,5
40998,82422,4
40996,82420,5
41007,82419,5
41000,82420,5
40995,82426,5
41003,82416,5
40998,82429,4
41002,82423,5
41005,82429,5
40998,82425,6
41008,82430,3
41015,82435,5
41013,82430,5
41009,82436,5
41018,82438,4
41019,82441,4
41014,82443,5
41014,82447,5
41017,82442,5
41010,82445,4
41011,82433,5
41003,82431,5
41018,82430,5
41010,82436,5
41014,82435,4
40986,82431,5
41015,82437,5
41013,82430,5
41015,82444,5
40969,82440,4
41006,82445,6
41020,82438,4
41015,82441,5
40967,82441,5
41013,82437,6
41014,82445,3
41018,82440,5
41021,82437,5
41014,82449,4
41014,82444,4
41016,82453,5
41059,82444,5
41019,82443,5
41020,82431,4
41011,82450,5
41060,82451,5
41013,82434,5
41017,82457,5
41013,82450,4
41022,82442,5
41012,82437,5
41014,82437,5
41010,82431,5
41011,82416,4
41003,82404,5
40989,82417,6
40997,82410,4
40995,82372,5
40982,82400,4
40990,82387,5
40992,82399,5
40990,82354,5
40992,82416,5
40991,82421,5
41000,82424,4
41006,82422,5
41016,82438,5
41012,82454,4
41024,82467,4
41028,82499,5
41030,82464,5
41024,82473,5
41030,82482,4
41028,82517,5
41025,82469,5
41025,82463,5
41018,82465,5
41013,82473,4
41009,82432,5
41000,82413,5
40990,82409,6
40999,82424,4
40995,82406,4
41001,82413,5
41003,82408,5
40996,82400,5
40992,82405,5
40991,82405,4
40993,82398,5
40986,82404,5
40990,82409,5
40992,82401,4
40995,82402,4
40994,82405,5
40988,82404,5
40989,82399,5
40988,82390,4
40985,82390,5
40985,82385,5
40980,82393,5
40977,82379,5
40983,82373,5
40986,82387,4
40987,82378,5
40979,82379,5
40975,82376,6
40971,82371,3
40974,82372,5
40983,82384,5
40986,82385,5
40986,82391,5
40981,82384,4
40977,82382,5
40980,82390,5
40980,82374,5
40981,82390,5
40984,82390,4
40978,82379,5
40979,82378,5
40983,82379,5
40980,82391,4
40976,82391,4
40980,82387,5
40978,82391,5
40985,82398,5
40990,82400,4
41000,82411,6
40995,82413,4
40998,82423,5
41001,82426,5
41003,82424,4
41003,82429,5
41017,82431,5
41008,82441,5
41009,82446,5
41001,82450,4
41016,82449,5
41013,82451,5
41025,82462,5
41025,82456,5
41019,82455,4
41025,82470,5
41024,82469,5
41022,82463,5
41025,82461,5
41025,82474,4
41024,82461,5
41024,82457,5
41013,82451,5
41021,82457,4
41017,82456,5
41021,82458,6
41021,82458,4
41017,82460,5
41023,82450,4
41022,82458,5
41025,82453,5
41013,82464,5
41019,82461,5
41022,82470,7
41026,82472,3
41029,82470,4
40980,82476,5
41028,82470,5
41035,82475,4
41035,82479,5
40998,82483,5
41045,82481,5
41042,82490,5
41039,82482,4
40998,82482,5
41031,82490,5
41031,82487,5
41027,82476,4
41043,82482,4
41033,82482,5
41025,82477,6
41027,82463,4
41073,82472,4
41021,82466,5
41025,82465,5
41031,82476,5
41063,82484,5
41034,82487,4
41037,82480,5
41033,82499,5
41057,82500,5
41046,82509,5
41047,82516,4
41053,82522,5
41057,82514,5
41062,82527,5
41057,82530,5
41059,82528,4
41056,82486,5
41055,82515,5
41047,82511,5
41037,82491,5
41023,82424,4
41032,82466,5
41026,82458,5
41020,82463,5
41024,82455,4
41022,82460,4
41027,82464,5
41030,82471,5
41028,82508,5
41022,82469,4
41014,82470,5
41021,82461,5
41032,82517,5
41021,82467,5
41028,82471,4
41028,82474,5
41033,82496,5
41027,82474,5
41029,82482,5
41024,82476,4
41023,82477,5
41026,82468,5
41030,82464,5
41029,82457,5
41018,82452,5
41014,82464,4
41014,82445,5
41021,82460,5
41019,82454,4
41021,82452,4
41026,82470,5
41025,82462,5
41028,82458,5
41019,82458,4
41023,82461,5
41014,82459,5
41019,82462,5
41022,82448,5
41012,82450,4
41018,82443,5
41014,82448,5
41021,82454,5
41021,82448,5
41023,82455,4
41019,82457,5
41017,82463,5
41016,82468,5
41030,82465,5
41028,82461,4
41033,82464,6
41031,82477,4
41030,82482,5
41029,82484,5
41029,82490,4
41037,82500,5
41045,82505,5
41042,82503,5
41045,82512,4
41057,82520,4
41046,82509,5
41056,82521,5
41050,82521,5
41048,82515,4
41052,82520,5
41047,82518,5
41053,82518,5
41047,82516,5
41049,82512,4
41057,82517,5
41063,82523,5
41050,82519,5
41045,82511,5
41046,82512,4
41051,82518,5
41049,82523,5
41054,82517,5
41052,82522,5
41046,82518,4
41056,82523,5
41055,82517,5
41058,82519,5
41055,82525,5
41054,82531,4
41053,82523,5
41051,82523,5
41050,82519,5
41055,82516,4
41055,82524,5
41053,82511,5
41050,82525,5
41043,82513,5
41053,82521,4
41054,82507,5
41053,82514,5
41053,82519,5
41053,82517,5
41064,82528,4
41060,82519,5
41063,82543,5
41061,82549,5
41070,82543,5
41055,82549,4
41073,82559,5
41069,82549,5
41063,82543,5
41033,82545,5
41065,82532,4
41059,82530,5
41062,82525,5
41009,82524,5
41043,82509,4
41052,82505,4
41055,82516,5
41054,82518,5
41053,82523,5
41055,82522,4
41052,82519,6
41095,82512,4
41053,82512,5
41050,82519,5
41052,82512,6
41103,82512,3
41058,82518,5
41044,82516,5
41045,82507,5
41056,82497,4
41037,82493,5
41031,82485,5
41031,82470,5
41030,82456,5
41015,82458,4
41020,82448,5
41014,82441,5
41019,82420,5
41013,82457,5
41026,82464,4
41012,82464,5
41019,82426,5
41022,82470,5
41021,82463,5
41014,82456,4
41020,82434,6
41016,82458,4
41033,82476,5
41039,82491,4
41049,82535,7
41045,82492,3
41032,82499,5
41048,82515,5
41061,82591,4
41077,82574,5
41082,82582,5
41099,82611,5
41131,82698,5
41152,82712,4
41171,82750,5
41191,82800,5
41223,82827,5
41229,82839,5
41236,82865,4
41242,82860,5
41259,82897,5
41280,82949,5
41321,83036,4
41375,83111,4
41401,83148,5
41398,83147,6
41421,83173,4
41438,83243,4
41493,83331,5
41521,83372,5
41525,83389,5
41546,83412,5
41569,83469,4
41607,83506,5
41607,83509,5
41588,83458,5
41564,83431,5
41571,83473,4
41622,83589,5
41728,83741,5
41768,83796,5
41744,83736,5
41693,83648,4
41662,83615,5
41688,83666,5
41749,83795,5
41843,83959,5
41920,84092,4
41959,84123,5
41954,84102,5
41931,84073,6
41931,84073,3
41951,84130,4
42022,84265,5
42103,84404,5
42127,84424,5
42142,84462,4
42175,84526,5
42222,84585,5
42240,84625,5
42268,84672,5
42313,84775,4
42373,84880,5
42446,84964,5
42462,84997,5
42453,84964,5
42462,85033,4
42548,85191,5
42633,85310,5
42657,85330,5
42682,85371,5
42691,85382,5
42664,85321,4
42634,85268,5
42661,85336,5
42723,85446,6
42766,85508,3
42792,85554,5
42793,85556,5
42796,85565,5
42825,85636,4
42881,85722,5
42904,85732,5
42859,85649,5
42820,85569,5
42771,85484,4
42752,85478,5
42773,85525,5
42808,85582,5
42821,85615,5
42841,85617,4
42831,85615,5
42820,85595,5
42813,85569,5
42829,85603,5
42829,85617,4
42871,85675,6
42890,85767,4
42904,85717,5
42853,85597,5
42772,85486,4
42730,85520,5
42844,85677,5
42966,85910,5
43056,85991,4
42955,85875,4
42907,85699,5
42828,85561,5
42807,85572,5
42873,85713,4
42938,85819,5
42970,85841,5
42935,85779,5
42961,85745,5
42911,85749,4
42928,85774,5
42965,85878,5
43074,85928,5
42993,85872,5
42891,85655,4
42797,85548,5
42862,85661,6
42943,85841,4
43016,85937,5
43050,85998,4
43059,85984,5
43040,85964,5
43062,86011,5
43079,86049,5
43114,86066,4
43111,86058,5
43020,85897,5
42991,85886,5
43054,85981,4
43171,86259,4
43288,86425,5
43287,86381,5
43216,86212,5
43184,86208,4
43217,86281,5
43274,86383,5
43303,86439,5
43276,86357,5
43226,86282,4
43260,86371,5
43357,86602,5
43419,86587,6
43382,86506,4
43317,86425,4
43308,86447,5
43299,86413,5
43313,86410,5
43318,86425,5
43319,86439,4
43306,86414,5
43311,86414,5
43332,86466,5
43368,86516,5
43371,86511,4
43317,86400,5
43259,86318,5
43254,86327,5
43268,86349,4
43297,86379,4
43294,86362,5
43276,86335,5
43279,86363,5
43286,86384,5
43320,86432,4
43346,86483,5
43340,86449,5
43291,86341,5
43220,86240,4
43216,86257,5
43272,86395,5
43372,86534,5
43394,86536,5
43337,86415,4
43225,86200,5
43108,86039,5
43059,85969,5
43037,85938,5
43063,85999,4
43097,86056,5
43131,86088,5
43135,86117,5
43132,86088,4
43074,85975,4
42980,85796,5
42909,85684,5
42884,85664,5
42932,85782,4
43002,85900,6
43036,85942,4
43050,85949,5
43038,85931,5
43005,85854,4
42923,85691,5
42852,85581,5
42828,85574,5
42829,85569,5
42826,85557,4
42792,85509,5
42783,85476,5
42799,85546,5
42862,85671,5
42932,85787,4
42952,85777,5
42900,85695,5
42870,85630,5
42853,85619,5
42842,85608,4
42845,85593,5
42813,85523,5
42756,85414,5
42702,85322,4
42650,85245,5
42605,85167,6
42565,85113,4
42555,85108,5
42576,85165,4
42611,85218,5
42623,85239,5
42635,85241,5
42629,85214,5
42593,85153,4
42545,85059,5
42477,84937,5
42392,84807,5
42356,84759,5
42346,84741,4
42348,84726,5
42321,84681,5
42293,84655,5
42264,84634,5
42271,84619,4
42272,84614,5
42268,84614,5
42232,84625,5
42271,84604,4
42248,84561,4
42222,84509,5
42145,84472,6
42180,84444,4
42174,84457,4
42174,84448,5
42173,84424,5
42145,84376,5
42115,84333,5
42081,84273,4
42106,84246,5
42049,84226,5
42033,84200,5
42022,84172,5
42050,84125,4
41955,84060,5
41921,83979,5
41890,83926,5
41875,83865,5
41812,83792,4
41764,83717,5
41722,83627,5
41686,83550,5
41643,83500,5
41615,83469,4
41617,83464,5
41595,83398,5
41590,83425,5
41583,83404,5
41568,83402,4
41568,83360,5
41570,83392,5
41574,83387,5
41581,83398,4
41577,83381,5
41579,83398,5
41581,83391,5
41562,83382,5
41560,83403,4
41534,83338,5
41529,83302,5
41508,83288,5
41509,83318,5
41503,83263,4
41495,83258,5
41495,83248,5
41492,83279,5
41492,83253,5
41481,83243,6
41481,83236,3
41479,83235,5
41475,83219,5
41458,83199,5
41448,83185,4
41442,83169,5
41441,83161,5
41438,83155,5
41432,83148,4
41423,83147,5
41425,83139,5
41423,83128,5
41416,83123,5
41422,83140,4
41408,83141,5
41424,83133,5
41415,83132,5
41417,83121,5
41408,83119,4
41409,83110,5
41400,83106,5
41394,83085,5
41375,83063,5
41364,83041,4
41371,83037,6
41359,83027,4
41359,83017,5
41347,83014,5
41350,83016,4
41348,83017,5
41353,83025,5
41349,83025,5
41361,83025,4
41359,83029,4
41357,83035,5
41362,83032,5
41354,83034,5
41362,83026,4
41355,83019,5
41341,83010,5
41339,83005,5
41335,83010,5
41341,83005,4
41336,82992,5
41331,82987,5
41338,82980,6
41325,82990,4
41319,82981,4
41326,82978,5
41317,82966,5
41319,82966,5
41311,82961,5
41308,82963,4
41311,82969,5
41323,82968,5
41309,82965,5
41316,82967,5
41313,82971,4
41320,82968,5
41323,82980,5
41326,82977,5
41323,82978,4
41319,82984,4
41323,82980,5
41328,82979,5
41324,82983,5
41315,82975,5
41315,82977,4
41318,82969,5
41314,82973,5
41326,82974,6
41328,82977,3
41321,82981,5
41321,82983,5
41319,82980,5
41332,82988,5
41331,82989,4
41329,82989,5
41333,83000,5
41325,82991,5
41332,82999,5
41333,82998,4
41315,82989,5
41322,82984,5
41332,82985,5
41329,82989,4
41292,82988,4
41320,82993,5
41318,82989,5
41319,82986,5
41281,82978,4
41319,82972,6
41318,82979,4
41317,82971,5
41308,82968,5
41311,82966,6
41310,82964,3
41310,82959,5
41341,82964,5
41307,82948,5
41302,82955,4
41297,82948,5
41360,82964,5
41310,82973,5
41317,82978,5
41321,82980,4
41350,82993,5
41329,82998,5
41323,83008,5
41339,83007,5
41340,83017,4
41333,83011,5
41331,83006,5
41321,83000,5
41326,82958,4
41312,82982,4
41321,82969,6
41318,82965,4
41307,82909,5
41299,82939,4
41291,82935,5
41299,82940,5
41297,82908,5
41292,82946,5
41296,82944,5
41291,82940,4
41291,82959,5
41295,82933,5
41288,82933,5
41287,82938,4
41289,82981,5
41296,82940,5
41300,82931,5
41302,82936,5
41294,82978,4
41283,82924,5
41284,82921,5
41288,82922,5
41288,82938,5
41284,82925,4
41289,82921,5
41284,82918,6
41278,82912,4
41284,82915,4
41287,82913,5
41274,82915,5
41282,82911,5
41281,82904,5
41281,82913,4
41285,82914,5
41283,82915,5
41288,82919,5
41274,82919,5
41277,82916,4
41275,82921,5
41274,82912,5
41284,82920,5
41291,82920,5
41272,82920,4
41276,82924,5
41278,82921,5
41290,82919,5
41276,82912,5
41274,82913,4
41284,82915,5
41293,82930,5
41294,82924,6
41292,82920,3
41281,82942,4
41287,82927,5
41289,82936,5
41287,82921,5
41287,82933,4
41297,82935,5
41298,82932,5
41289,82939,5
41290,82932,5
41296,82942,4
41296,82952,5
41299,82957,5
41299,82949,5
41290,82954,5
41304,82947,4
41289,82952,5
41298,82958,5
41301,82953,5
41295,82948,5
41299,82951,5
41304,82957,4
41306,82952,5
41295,82949,5
41300,82950,6
41296,82935,3
41296,82946,5
41290,82943,5
41284,82934,5
41285,82931,4
41286,82919,5
41277,82923,5
41284,82915,5
41275,82907,5
41273,82901,4
41279,82908,5
41277,82903,5
41272,82905,5
41274,82917,5
41278,82915,4
41285,82938,5
41288,82936,5
41297,82936,5
41286,82948,5
41295,82939,4
41282,82942,6
41291,82937,4
41289,82936,5
41292,82937,5
41288,82934,4
41285,82912,5
41272,82911,5
41254,82897,5
41260,82870,4
41245,82868,4
41243,82863,5
41222,82863,5
41248,82862,5
41238,82856,4
41244,82863,5
41203,82855,5
41238,82846,5
41248,82859,5
41244,82857,4
41241,82870,5
41248,82860,5
41255,82865,5
41250,82869,5
41289,82870,4
41248,82866,5
41255,82866,6
41252,82860,4
41298,82863,5
41250,82863,4
41249,82866,5
41244,82864,5
41264,82861,5
41245,82861,5
41255,82858,4
41247,82854,5
41246,82862,5
41240,82857,5
41250,82864,4
41249,82859,4
41245,82839,5
41247,82864,5
41243,82869,5
41249,82865,4
41244,82822,5
41248,82863,5
41252,82865,5
41246,82861,5
41244,82819,4
41233,82854,5
41245,82858,5
41239,82855,6
41230,82865,4
41236,82837,4
41232,82839,5
41227,82837,5
41241,82897,5
41244,82854,5
41249,82863,4
41248,82873,5
41252,82912,5
41253,82887,5
41261,82890,4
41262,82888,4
41260,82906,5
41264,82906,5
41282,82901,5
41275,82916,4
41268,82908,5
41273,82930,5
41283,82922,5
41272,82921,5
41291,82923,5
41286,82923,4
41278,82920,5
41281,82931,5
41280,82935,5
41283,82931,4
41282,82917,5
41286,82930,5
41282,82930,5
41282,82930,5
41284,82925,4
41277,82933,5
41294,82932,5
41288,82929,5
41278,82928,5
41287,82929,4
41289,82924,5
41282,82917,5
41273,82916,5
41278,82913,4
41274,82917,4
41277,82920,5
41281,82918,5
41275,82916,5
41281,82917,4
41271,82920,6
41277,82916,4
41272,82923,5
41278,82924,5
41279,82926,4
41285,82936,5
41282,82942,5
41288,82944,5
41297,82954,5
41303,82957,4
41300,82967,5
41314,82971,5
41309,82977,5
41299,82971,5
41301,82967,4
41309,82953,5
41298,82940,5
41301,82947,5
41289,82929,5
41278,82916,4
41263,82905,5
41271,82907,5
41269,82905,5
41273,82908,4
41270,82914,4
41274,82913,6
41272,82902,4
41279,82913,5
41284,82906,4
41277,82905,5
41277,82912,5
41285,82910,5
41281,82912,5
41283,82916,4
41281,82912,5
41276,82916,5
41273,82905,5
41269,82908,5
41269,82907,4
41265,82905,5
41270,82915,5
41272,82904,5
41270,82907,5
41278,82902,4
41275,82914,5
41278,82920,5
41284,82920,5
41273,82926,5
41275,82925,4
41289,82929,5
41285,82929,5
41286,82929,5
41246,82923,4
41280,82929,5
41277,82930,5
41279,82927,5
41243,82925,5
41291,82932,4
41288,82938,8
41282,82942,3
41279,82944,4
41273,82946,5
41291,82951,4
41299,82957,5
41329,82958,5
41306,82970,5
41317,82979,5
41305,82985,4
41364,82991,5
41323,82993,5
41313,83001,5
41321,83000,5
41352,83014,4
41329,83012,5
41344,83021,5
41331,83022,5
41344,83036,4
41339,83035,4
41347,83032,5
41343,83033,5
41347,83014,5
41353,83049,4
41344,83044,5
41354,83038,5
41354,83014,5
41355,83051,5
41362,83062,5
41359,83064,4
41353,83018,5
41356,83067,5
41363,83061,5
41362,83069,4
41369,83094,6
41367,83083,4
41371,83085,5
41369,83095,5
41381,83140,6
41380,83097,3
41377,83095,5
41384,83098,5
41387,83152,5
41383,83107,4
41397,83112,5
41384,83110,5
41390,83128,5
41388,83113,4
41386,83115,4
41390,83120,5
41391,83110,5
41392,83118,5
41388,83125,4
41397,83121,5
41397,83124,5
41402,83138,5
41415,83147,5
41411,83154,4
41418,83172,5
41420,83185,6
41428,83189,4
41442,83202,5
41452,83217,4
41448,83240,5
41452,83227,5
41465,83240,5
41469,83248,5
41465,83241,4
41455,83229,5
41459,83230,5
41452,83222,5
41446,83204,5
41431,83185,4
41422,83163,5
41421,83165,5
41416,83152,5
41420,83158,4
41416,83153,5
41413,83158,5
41418,83159,5
41420,83156,5
41422,83159,4
41406,83141,5
41406,83150,5
41408,83150,6
41408,83143,4
41408,83138,4
41391,83126,5
41399,83114,5
41393,83108,5
41387,83108,5
41389,83095,4
41377,83096,5
41370,83083,5
41367,83066,5
41365,83059,5
41359,83043,4
41359,83053,5
41358,83048,5
41362,83048,5
41350,83038,4
41352,83036,4
41339,83036,5
41345,83029,5
41340,83014,5
41337,83006,5
41333,83002,4
41333,83002,5
41320,82987,5
41329,82985,6
41320,82989,3
41319,82971,5
41316,82973,5
41318,82962,5
41310,82959,5
41311,82960,4
41312,82964,5
41308,82957,5
41304,82965,5
41300,82947,5
41301,82945,4
41309,82954,5
41301,82966,5
41304,82957,5
41292,82945,5
41299,82945,4
41306,82950,5
41300,82948,5
41300,82945,5
41293,82966,4
41300,82949,5
41260,82938,4
41305,82945,5
41293,82943,5
41297,82948,6
41250,82936,3
41292,82941,5
41283,82943,5
41282,82938,5
41272,82939,4
41290,82930,5
41279,82929,5
41275,82919,5
41305,82908,5
41276,82905,4
41270,82909,5
41255,82902,5
41307,82892,5
41261,82880,5
41258,82875,4
41255,82874,5
41274,82865,5
41251,82875,5
41247,82861,5
41243,82874,4
41252,82872,6
41243,82869,4
41257,82865,5
41246,82867,4
41244,82849,5
41250,82878,5
41248,82872,5
41252,82880,5
41257,82825,4
41255,82868,5
41253,82867,5
41248,82871,5
41238,82799,5
41249,82841,4
41230,82842,5
41239,82856,4
41245,82880,5
41252,82857,5
41241,82863,4
41244,82847,5
41239,82897,5
41240,82860,5
41251,82880,5
41285,82931,4
41314,83028,5
41348,83056,6
41375,83102,4
41389,83126,4
41389,83136,4
41398,83128,5
41401,83171,5
41450,83242,5
41492,83315,4
41521,83361,5
41525,83369,5
41531,83368,5
41528,83383,5
41560,83436,4
41596,83516,5
41646,83623,5
41707,83696,5
41742,83754,5
41771,83813,4
41792,83855,5
41800,83845,5
41794,83845,5
41793,83814,5
41773,83806,4
41780,83794,5
41764,83793,5
41767,83774,6
41754,83770,4
41773,83804,4
41795,83856,5
41841,83918,5
41882,84004,5
41901,84034,4
41917,84049,4
41919,84058,5
41913,84050,5
41916,84055,5
41916,84060,4
41936,84098,5
41967,84140,5
41986,84192,5
42027,84254,5
42058,84310,4
42088,84364,5
42098,84360,5
42096,84377,5
42091,84361,5
42062,84312,5
42055,84298,4
42049,84280,5
42030,84218,5
41963,84094,5
41886,83965,4
41849,83881,5
41807,83841,5
41786,83793,5
41759,83734,5
41712,83654,4
41671,83569,5
41639,83517,5
41605,83482,5
41597,83459,4
41584,83440,4
41582,83429,5
41580,83426,5
41572,83404,5
41554,83389,4
41534,83361,5
41524,83325,5
41512,83299,5
41497,83275,5
41471,83253,4
41466,83228,6
41450,83204,4
41414,83162,5
41399,83116,5
41389,83080,4
41370,83048,5
41344,83032,5
41346,83018,5
41340,83011,5
41337,83002,4
41326,82985,5
41325,82972,5
41309,82961,5
41298,82947,5
41295,82931,4
41287,82926,5
41290,82914,5
41245,82894,5
41268,82879,4
41260,82872,5
41252,82858,5
41208,82846,5
41237,82837,5
41232,82813,4
41223,82809,5
41195,82779,6
41200,82770,4
41194,82765,5
41184,82752,4
41216,82754,5
41189,82744,5
41196,82753,5
41196,82756,5
41235,82756,4
41193,82762,5
41196,82765,5
41203,82756,5
41219,82757,5
41188,82759,4
41188,82757,5
41199,82745,5
41193,82749,5
41192,82733,4
41180,82740,4
41177,82730,5
41180,82701,5
41182,82722,5
41180,82728,4
41180,82737,5
41188,82698,5
41176,82736,5
41174,82734,5
41179,82730,4
41176,82687,5
41177,82731,5
41185,82728,5
41168,82740,5
41182,82753,4
41179,82741,5
41180,82740,5
41184,82755,5
41188,82801,5
41189,82763,4
41188,82759,5
41184,82753,5
41182,82806,5
41197,82754,5
41194,82755,4
41192,82757,5
41181,82777,5
41184,82757,5
41187,82749,6
41194,82749,3
41177,82755,5
41189,82737,5
41179,82748,5
41186,82744,4
41185,82743,5
41187,82737,5
41182,82741,5
41175,82739,5
41178,82741,4
41179,82731,5
41175,82738,5
41178,82739,5
41185,82744,5
41183,82737,4
41174,82727,5
41164,82723,5
41166,82716,5
41168,82727,5
41173,82745,4
41179,82745,5
41170,82744,5
41184,82739,5
41179,82740,4
41182,82758,5
41190,82786,4
41224,82847,5
41252,82894,5
41298,82971,4
41349,83072,5
41395,83149,5
41429,83205,5
41442,83218,5
41432,83187,4
41415,83165,5
41401,83137,5
41387,83129,5
41409,83146,5
41401,83141,4
41392,83119,5
41371,83098,5
41371,83076,5
41359,83071,5
41360,83074,4
41368,83080,5
41361,83056,5
41347,83034,5
41327,83005,5
41319,82981,4
41317,82980,6
41318,82995,3
41314,83005,5
41326,82994,4
41307,82987,4
41303,82971,5
41305,82964,5
41300,82961,5
41296,82951,4
41286,82938,5
41283,82912,5
41266,82894,5
41257,82882,5
41246,82848,4
41239,82839,5
41234,82850,5
41229,82839,5
41237,82844,5
41239,82833,4
41226,82838,5
41225,82829,5
41228,82818,6
41212,82802,4
41200,82786,4
41193,82773,5
41192,82758,5
41197,82752,5
41190,82763,5
41183,82750,4
41173,82755,5
41178,82738,5
41177,82726,5
41165,82716,4
41116,82707,5
41146,82689,5
41149,82692,5
41140,82680,5
41102,82674,4
41136,82679,5
41140,82682,5
41139,82683,5
41134,82688,5
41152,82703,5
41151,82703,4
41156,82706,5
41194,82710,5
41158,82715,5
41162,82708,4
41169,82720,5
41209,82718,5
41165,82707,5
41152,82701,5
41165,82700,4
41191,82702,5
41151,82701,5
41147,82696,5
41164,82708,4
41163,82691,4
41150,82699,5
41152,82689,5
41151,82689,5
41149,82670,4
41146,82689,5
41142,82691,5
41149,82702,5
41142,82643,5
41153,82695,4
41152,82697,6
41156,82697,4
41153,82666,5
41155,82700,5
41157,82701,6
41147,82707,3
41162,82726,5
41151,82701,5
41151,82706,5
41149,82701,4
41152,82755,5
41156,82710,5
41158,82728,5
41165,82716,5
41161,82767,4
41172,82729,5
41167,82716,5
41163,82723,5
41156,82736,4
41162,82721,5
41158,82717,5
41151,82708,5
41152,82703,5
41143,82691,4
41154,82693,5
41153,82692,6
41144,82691,4
41150,82689,5
41148,82686,4
41137,82683,5
41151,82683,5
41146,82692,5
41144,82705,5
41146,82696,4
41154,82700,5
41147,82696,5
41152,82711,5
41147,82708,5
41142,82702,4
41143,82686,5
41153,82686,5
41146,82694,5
41142,82696,4
41141,82685,4
41146,82683,5
41137,82673,5
41142,82679,5
41146,82681,4
41136,82690,5
41137,82682,5
41145,82685,6
41135,82682,4
41136,82683,4
41138,82680,5
41134,82692,5
41134,82686,5
41140,82690,5
41140,82689,4
41146,82689,5
41151,82690,5
41145,82693,5
41150,82699,5
41146,82703,4
41156,82710,5
41161,82734,5
41174,82740,5
41171,82749,5
41176,82768,4
41185,82761,5
41189,82768,5
41183,82772,5
41183,82767,5
41177,82762,4
41168,82742,5
41168,82731,5
41156,82719,6
41157,82717,3
41158,82722,5
41158,82716,5
41153,82709,5
41147,82715,5
41155,82715,4
41155,82729,5
41161,82720,5
41166,82727,5
41160,82732,5
41168,82745,4
41168,82736,5
41168,82746,5
41176,82736,5
41174,82738,5
41172,82746,4
41175,82748,5
41175,82746,5
41166,82737,5
41171,82740,5
41173,82734,5
41164,82740,4
41155,82740,5
41166,82738,5
41163,82717,4
41157,82727,4
41165,82723,5
41128,82727,5
41157,82715,5
41159,82721,4
41159,82722,5
41120,82725,5
41162,82716,5
41156,82705,5
41160,82717,4
41140,82721,5
41153,82723,5
41165,82722,5
41168,82727,5
41194,82725,4
41166,82732,5
41160,82722,5
41166,82719,5
41206,82726,5
41170,82719,4
41162,82736,6
41174,82731,4
41206,82739,5
41172,82734,4
41184,82749,4
41175,82754,5
41193,82751,5
41179,82753,5
41178,82746,4
41186,82753,4
41181,82741,5
41179,82750,5
41180,82755,5
41178,82757,4
41187,82718,5
41182,82766,5
41185,82767,5
41189,82769,5
41185,82721,4
41190,82769,5
41187,82771,5
41195,82770,5
41199,82782,5
41194,82773,4
41192,82772,5
41191,82777,6
41187,82815,4
41192,82772,5
41190,82769,4
41187,82767,5
41188,82820,5
41191,82768,5
41191,82763,4
41186,82771,4
41196,82788,5
41188,82773,5
41194,82771,5
41195,82759,4
41178,82754,5
41183,82753,5
41173,82749,5
41180,82744,5
41175,82737,4
41175,82745,5
41174,82744,5
41179,82747,5
41173,82750,5
41180,82765,4
41191,82775,5
41196,82782,5
41195,82781,6
41208,82790,4
41201,82808,4
41207,82805,5
41211,82807,5
41210,82806,5
41201,82810,5
41206,82801,4
41209,82798,5
41195,82780,5
41194,82781,5
41183,82761,4
41169,82758,5
41174,82759,5
41174,82757,5
41173,82748,5
41175,82749,4
41177,82751,5
41172,82754,5
41182,82758,5
41186,82756,5
41162,82742,55
41162,82742,5
41152,82731,2
41181,82731,5
41167,82728,4
41166,82736,4
41166,82727,5
41161,82729,5
41167,82734,5
41168,82734,4
41162,82721,5
41163,82725,5
41172,82736,5
41163,82732,5
41165,82736,4
41161,82722,6
41165,82737,4
41166,82730,5
41162,82731,5
41164,82726,4
41161,82728,5
41166,82720,5
41173,82732,5
41158,82729,5
41157,82732,4
41161,82731,5
41163,82736,5
41163,82735,5
41166,82736,5
41169,82738,4
41165,82743,5
41168,82738,5
41175,82736,5
41164,82737,4
41169,82745,4
41164,82734,5
41168,82739,5
41128,82725,5
41165,82730,4
41157,82717,5
41153,82717,6
41114,82706,4
41154,82713,5
41153,82714,4
41161,82709,5
41133,82723,5
41159,82720,5
41164,82734,5
41172,82743,4
41197,82745,5
41183,82764,5
41188,82791,5
41212,82814,5
41259,82838,4
41229,82852,5
41237,82861,5
41239,82858,5
41270,82857,5
41243,82885,4
41252,82899,5
41274,82934,5
41306,82992,5
41344,83062,4
41386,83119,5
41408,83186,5
41440,83213,5
41461,83263,5
41465,83283,4
41466,83277,5
41473,83245,5
41498,83325,5
41518,83377,5
41554,83425,5
41550,83388,4
41562,83429,5
41550,83432,5
41555,83434,5
41563,83451,4
41573,83449,5
41592,83503,5
41616,83552,5
41648,83648,5
41665,83617,4
41673,83643,4
41671,83617,5
41660,83658,5
41670,83621,5
41688,83669,3
41715,83717,5
41735,83773,5
41748,83754,5
41752,83778,4
41757,83792,5
41774,83819,5
41765,83790,5
41749,83763,5
41748,83754,4
41752,83777,5
41788,83854,5
41819,83903,5
41845,83915,5
41836,83919,4
41823,83888,5
41820,83884,5
41816,83874,5
41817,83900,5
41844,83921,4
41853,83948,6
41850,83917,4
41841,83934,5
41854,83943,5
41863,83976,6
41892,84016,3
41904,84037,5
41895,84001,5
41876,83966,4
41858,83958,4
41873,83980,5
41893,84030,5
41934,84097,5
41976,84151,4
41982,84161,5
41978,84157,5
41968,84141,5
41955,84114,5
41943,84094,4
41939,84101,5
41939,84086,5
41931,84070,5
41912,84029,5
41880,83993,4
41890,84014,5
41902,84013,6
41867,83966,4
41835,83867,5
41788,83791,4
41769,83776,5
41783,83825,5
41830,83927,5
41876,83990,4
41892,83970,4
41857,83922,5
41831,83869,5
41813,83861,5
41797,83840,4
41766,83774,5
41724,83696,5
41693,83621,5
41661,83596,5
41664,83580,4
41648,83572,5
41656,83579,5
41655,83570,5
41645,83569,5
41645,83574,4
41652,83580,5
41646,83557,5
41629,83519,6
41605,83476,4
41574,83415,4
41545,83366,5
41524,83336,5
41510,83328,5
41517,83324,5
41519,83332,4
41525,83347,5
41521,83344,5
41508,83319,5
41508,83313,4
41495,83285,4
41482,83263,5
41467,83246,5
41464,83239,5
41460,83235,4
41425,83231,5
41454,83216,5
41457,83219,5
41456,83222,5
41414,83232,5
41458,83241,4
41459,83231,5
41452,83221,5
41421,83213,6
41446,83198,3
41437,83188,5
41431,83175,5
41453,83154,5
41409,83143,5
41401,83130,4
41399,83119,5
41438,83100,5
41380,83076,5
41364,83066,5
41357,83045,4
41380,83032,8
41350,83027,3
41338,83041,4
41354,83036,4
41362,83041,5
41346,83040,5
41350,83046,5
41354,83035,5
41349,83018,4
41350,83049,6
41360,83057,4
41361,83063,5
41368,83026,5
41364,83069,6
41372,83078,3
41368,83084,5
41372,83044,5
41373,83085,5
41368,83086,4
41372,83077,5
41362,83075,5
41375,83065,5
41367,83072,5
41373,83085,4
41372,83124,5
41370,83079,5
41372,83100,5
41384,83104,4
41373,83143,4
41373,83104,5
41382,83089,5
41379,83086,5
41377,83104,4
41369,83082,5
41373,83071,6
41363,83064,4
41366,83077,5
41373,83071,4
41373,83086,5
41382,83091,5
41383,83107,5
41391,83109,5
41386,83111,4
41394,83117,5
41392,83119,5
41394,83131,5
41391,83125,5
41403,83133,4
41399,83132,5
41409,83138,5
41401,83142,5
41407,83136,5
41401,83145,4
41406,83147,5
41418,83155,5
41416,83170,5
41419,83171,4
41428,83170,4
41418,83162,5
41422,83172,6
41429,83186,4
41430,83201,4
41435,83193,5
41448,83218,5
41445,83238,5
41468,83257,5
41477,83281,4
41485,83287,5
41504,83310,5
41507,83322,5
41508,83341,5
41512,83346,4
41523,83356,5
41530,83365,5
41526,83362,5
41539,83372,5
41543,83393,4
41556,83402,5
41558,83413,5
41554,83413,5
41555,83424,5
41560,83418,4
41565,83419,5
41559,83420,5
41567,83434,6
41562,83435,3
41565,83438,4
41579,83442,5
41572,83452,5
41574,83452,5
41579,83446,4
41581,83451,5
41574,83452,5
41571,83458,5
41583,83482,5
41602,83498,4
41600,83500,5
41594,83501,5
41609,83501,5
41606,83507,5
41613,83519,4
41616,83527,5
41611,83516,5
41612,83513,5
41615,83499,5
41596,83488,5
41588,83483,4
41601,83480,5
41599,83499,5
41606,83506,4
41612,83521,4
41607,83510,5
41601,83494,5
41588,83476,5
41583,83460,4
41586,83458,5
41580,83463,5
41554,83470,5
41585,83460,5
41581,83455,4
41580,83451,5
41538,83445,5
41575,83452,5
41583,83458,5
41578,83453,4
41544,83446,5
41584,83461,5
41583,83463,5
41595,83472,5
41615,83476,4
41588,83483,6
41592,83479,4
41584,83470,5
41636,83481,5
41597,83510,4
41616,83532,5
41643,83583,5
41707,83631,5
41697,83672,4
41720,83736,4
41762,83806,5
41829,83889,5
41866,84000,5
41920,84091,4
41960,84131,5
41976,84163,5
42007,84241,5
42046,84301,5
42085,84379,4
42138,84446,5
42199,84604,5
42300,84770,5
42423,85004,5
42516,85103,4
42584,85232,5
42600,85238,6
42561,85169,4
42523,85106,5
42523,85129,4
42565,85226,5
42632,85341,5
42679,85442,5
42708,85433,4
42719,85464,4
42737,85496,5
42726,85522,5
42718,85476,5
42768,85564,4
42820,85624,5
42808,85619,5
42760,85485,5
42698,85373,5
42654,85333,4
42684,85426,5
42792,85631,5
42941,85894,5
43049,86055,6
43075,86050,3
43037,85954,5
42959,85820,5
42900,85721,5
42883,85724,5
42883,85708,4
42879,85694,5
42873,85704,5
42884,85743,5
42909,85768,5
42925,85800,4
42959,85876,5
43024,86002,5
43078,86069,5
43069,86035,4
43052,85998,4
43029,85964,5
43028,85958,5
43020,85936,5
42997,85898,4
42966,85840,5
42928,85775,5
42858,85640,5
42787,85501,5
42718,85398,5
42704,85404,4
42751,85487,5
42785,85535,5
42768,85499,5
42749,85472,4
42755,85465,5
42733,85404,5
42666,85294,5
42637,85270,5
42638,85263,4
42635,85276,5
42657,85292,5
42641,85282,5
42629,85240,4
42590,85154,4
42502,85009,5
42436,84897,5
42390,84830,5
42346,84748,4
42319,84716,5
42313,84717,5
42333,84739,5
42339,84751,5
42352,84780,4
42369,84777,6
42338,84743,4
42333,84746,5
42366,84811,5
42374,84783,4
42312,84686,5
42262,84595,5
42237,84568,5
42223,84544,5
42205,84521,4
42194,84512,5
42207,84546,5
42256,84601,5
42277,84667,5
42328,84739,4
42368,84813,5
42373,84801,5
42360,84766,5
42327,84723,4
42312,84697,5
42302,84679,5
42303,84701,5
42338,84770,4
42373,84822,4
42400,84886,5
42431,84915,5
42463,84991,5
42478,84988,5
42437,84965,4
42476,85010,5
42536,85102,5
42552,85136,5
42540,85203,5
42630,85286,4
42665,85339,5
42695,85374,5
42678,85401,5
42728,85439,5
42763,85510,4
42782,85518,5
42812,85524,5
42823,85604,5
42897,85733,5
42920,85791,4
43012,85840,5
42966,85847,5
42961,85825,6
42930,85773,3
42943,85721,5
42900,85713,5
42922,85765,5
42919,85753,5
42893,85674,4
42854,85658,5
42882,85726,5
42936,85781,5
42916,85726,5
42897,85707,4
42893,85710,5
42908,85734,5
42904,85685,5
42891,85688,5
42864,85654,4
42840,85608,5
42813,85525,5
42802,85538,5
42801,85567,4
42855,85655,5
42935,85786,4
42953,85811,5
42937,85765,5
42914,85742,6
42961,85881,3
43013,85932,5
43078,86037,5
43101,86066,5
43077,86073,4
43017,85887,5
42963,85820,5
42993,85887,5
43054,86024,5
43118,86131,4
43196,86244,5
43199,86213,5
43155,86135,5
43139,86130,5
43130,86110,4
43146,86144,5
43146,86127,5
43109,86069,5
43124,86124,5
43187,86233,4
43217,86269,6
43204,86224,4
43191,86195,5
43142,86102,4
43119,86090,4
43143,86136,5
43159,86168,5
43164,86171,5
43149,86103,4
43120,86103,5
43125,86085,5
43117,86094,5
43138,86114,5
43174,86193,4
43220,86259,5
43236,86271,5
43207,86214,5
43155,86138,5
43158,86161,4
43210,86286,5
43320,86478,5
43415,86615,5
43434,86618,5
43366,86485,4
43285,86362,5
43280,86331,6
43279,86357,4
43297,86406,5
43339,86479,4
43348,86472,5
43288,86351,5
43208,86224,5
43206,86224,4
43244,86341,5
43326,86468,5
43365,86507,5
43387,86545,5
43384,86545,4
43398,86546,5
43398,86557,5
43377,86514,5
43336,86416,5
43229,86212,4
43193,86205,5
43227,86280,5
43259,86309,5
43246,86303,5
43225,86239,4
43174,86168,5
43159,86146,5
43164,86148,6
43175,86178,4
43171,86164,4
43139,86102,5
43118,86073,5
43127,86078,5
43119,86087,4
43134,86101,4
43141,86119,5
43156,86155,5
43193,86231,5
43261,86349,4
43328,86465,5
43404,86611,5
43496,86750,5
43507,86726,5
43458,86626,4
43384,86509,5
43405,86580,5
43446,86642,5
43485,86746,5
43630,86997,5
43678,87015,4
43545,86818,5
43468,86641,5
43480,86713,6
43518,86750,3
43431,86649,5
43341,86368,5
43099,85920,5
42861,85537,5
42682,85298,4
42632,85196,5
42631,85209,5
42650,85257,5
42693,85258,4
42644,85219,4
42618,85175,5
42589,85112,5
42604,85038,5
42499,84942,4
42435,84866,5
42424,84828,5
42436,84792,5
42373,84740,5
42327,84675,4
42300,84631,6
42301,84609,4
42290,84597,5
42272,84583,5
42251,84540,5
42233,84482,4
42202,84461,5
42198,84459,5
42198,84470,5
42204,84431,4
42194,84454,5
42177,84429,5
42155,84386,5
42167,84361,4
42178,84454,4
42206,84481,5
42182,84427,5
42162,84378,5
42141,84344,4
42129,84336,5
42132,84347,5
42130,84409,5
42147,84375,5
42147,84398,4
42165,84404,5
42156,84442,6
42154,84405,4
42170,84425,5
42179,84440,4
42163,84443,5
42157,84402,5
42158,84415,5
42168,84447,5
42210,84502,4
42229,84519,5
42231,84515,5
42223,84499,5
42208,84489,5
42200,84471,4
42198,84475,5
42196,84448,5
42157,84389,5
42129,84328,4
42106,84302,4
42103,84293,5
42095,84286,5
42084,84272,5
42088,84262,4
42073,84279,5
42103,84311,5
42107,84304,6
42078,84256,4
42057,84203,4
42027,84162,5
42007,84130,5
41982,84075,5
41954,84028,5
41918,83971,4
41887,83911,5
41873,83884,5
41853,83844,5
41831,83818,5
41804,83778,4
41787,83738,5
41773,83736,5
41770,83728,5
41768,83724,5
41762,83711,4
41747,83688,5
41742,83672,5
41725,83642,5
41720,83610,5
41702,83599,4
41693,83595,5
41691,83566,5
41673,83554,5
41669,83543,4
41659,83528,5
41655,83524,5
41652,83502,5
41644,83502,5
41639,83487,4
41635,83477,5
41635,83473,5
41629,83472,5
41620,83474,5
41630,83474,4
41630,83482,5
41633,83474,5
41631,83489,5
41637,83479,5
41633,83481,4
41622,83462,5
41616,83456,5
41617,83460,5
41611,83448,4
41619,83451,5
41611,83461,4
41609,83462,5
41606,83442,5
41599,83429,4
41594,83433,5
41597,83423,5
41588,83419,5
41583,83408,5
41576,83399,4
41564,83385,5
41561,83367,5
41556,83355,5
41556,83352,5
41558,83350,4
41544,83341,5
41545,83327,5
41541,83333,5
41505,83320,5
41527,83312,4
41526,83300,5
41517,83285,5
41472,83289,5
41499,83267,5
41482,83242,4
41474,83224,6
41428,83223,4
41474,83219,5
41464,83222,4
41473,83218,4
41478,83212,5
41467,83198,5
41466,83193,5
41466,83201,4
41507,83196,5
41467,83191,5
41452,83179,5
41440,83163,5
41484,83166,4
41431,83165,5
41436,83155,5
41437,83153,5
41447,83151,5
41436,83147,4
41430,83139,5
41432,83142,5
41435,83125,5
41429,83143,5
41431,83148,4
41422,83150,5
41438,83120,5
41441,83153,5
41436,83155,5
41433,83156,4
41438,83112,5
41437,83152,5
41434,83149,5
41430,83153,5
41430,83135,4
41435,83158,5
41433,83151,5
41434,83159,5
41444,83210,4
41446,83179,5
41453,83187,5
41455,83192,5
41455,83247,5
41448,83199,4
41457,83200,5
41453,83209,5
41458,83221,5
41457,83203,5
41458,83199,4
41452,83201,5
41452,83209,5
41464,83205,5
41455,83216,5
41463,83218,4
41462,83219,5
41466,83224,5
41465,83218,5
41463,83226,4
41461,83217,4
41467,83220,5
41463,83217,5
41472,83215,5
41466,83224,4
41468,83225,5
41478,83235,5
41482,83246,5
41477,83262,5
41496,83267,4
41493,83270,5
41492,83265,4
41494,83280,5
41504,83283,5
41505,83288,6
41496,83282,3
41492,83280,5
41503,83279,5
41494,83268,5
41496,83278,4
41486,83273,5
41490,83267,5
41486,83256,5
41481,83260,5
41484,83258,4
41485,83251,5
41483,83254,5
41492,83252,5
41476,83267,4
41490,83269,5
41490,83279,5
41488,83279,5
41499,83285,5
41500,83280,4
41495,83289,5
41500,83291,6
41501,83289,4
41489,83289,5
41488,83275,4
41488,83268,7
41485,83255,3
41478,83238,5
41474,83229,5
41469,83221,4
41464,83225,5
41467,83225,5
41455,83227,5
41461,83219,5
41467,83221,4
41458,83227,5
41471,83221,5
41460,83216,5
41466,83215,4
41462,83225,4
41463,83206,5
41459,83216,5
41451,83212,5
41453,83216,4
41459,83216,5
41456,83205,5
41457,83205,6
41451,83210,4
41457,83206,4
41451,83203,5
41459,83202,5
41455,83202,5
41441,83193,5
41444,83197,4
41450,83192,5
41450,83193,5
41448,83201,5
41447,83202,5
41456,83206,4
41435,83221,5
41463,83214,5
41459,83217,5
41455,83219,5
41420,83214,4
41457,83208,5
41459,83209,5
41451,83197,5
41412,83200,5
41450,83199,4
41447,83202,5
41450,83201,5
41449,83195,6
41445,83194,3
41449,83200,5
41446,83201,5
41483,83194,5
41446,83196,5
41454,83203,4
41450,83210,5
41497,83214,5
41454,83217,5
41462,83216,5
41459,83227,4
41480,83220,5
41459,83222,5
41458,83224,5
41461,83231,5
41461,83233,4
41466,83232,5
41467,83240,5
41462,83247,5
41474,83205,5
41462,83239,5
41467,83242,4
41468,83236,5
41469,83209,5
41474,83256,6
41484,83262,3
41479,83265,5
41484,83238,5
41489,83268,5
41482,83267,4
41483,83263,5
41485,83295,5
41483,83255,5
41486,83255,5
41478,83256,4
41475,83307,5
41484,83240,5
41470,83237,5
41464,83234,5
41463,83255,4
41461,83223,5
41460,83217,5
41456,83215,5
41451,83210,5
41445,83210,4
41446,83199,6
41453,83205,4
41448,83207,5
41459,83213,4
41456,83224,4
41460,83227,5
41462,83229,5
41463,83232,5
41465,83228,4
41469,83237,5
41471,83231,5
41465,83241,5
41459,83250,5
41468,83243,4
41468,83247,5
41470,83241,5
41461,83228,5
41458,83222,5
41447,83209,4
41439,83206,5
41442,83196,5
41442,83189,5
41442,83194,5
41438,83195,4
41439,83194,5
41441,83189,6
41434,83185,4
41434,83184,5
41441,83179,4
41433,83185,5
41444,83186,5
41430,83190,5
41442,83189,4
41435,83198,5
41448,83195,5
41441,83200,5
41449,83202,5
41452,83200,4
41445,83203,5
41448,83201,5
41443,83196,5
41444,83194,5
41445,83195,4
41437,83186,5
41444,83188,5
41439,83183,5
41438,83185,5
41443,83189,4
41440,83188,5
41443,83196,5
41438,83186,6
41434,83178,4
41426,83176,4
41436,83178,5
41429,83167,5
41430,83171,5
41428,83166,4
41432,83156,4
41427,83165,5
41424,83161,5
41422,83167,5
41431,83174,4
41429,83181,5
41435,83195,5
41436,83198,5
41438,83197,5
41444,83206,4
41441,83211,5
41448,83201,5
41439,83208,5
41453,83207,5
41459,83214,5
41457,83218,4
41449,83236,5
41461,83217,5
41459,83235,5
41462,83229,4
41461,83224,5
41461,83224,5
41446,83224,5
41456,83225,5
41458,83226,4
41454,83223,5
41426,83224,5
41459,83226,5
41453,83216,4
41452,83223,4
41418,83222,5
41457,83215,5
41458,83218,5
41463,83231,4
41463,83234,5
41467,83240,5
41475,83241,5
41478,83248,5
41516,83250,4
41473,83255,6
41473,83252,4
41477,83256,5
41523,83260,5
41474,83257,4
41483,83252,5
41482,83264,5
41497,83261,5
41477,83258,5
41476,83259,4
41477,83258,5
41485,83266,5
41470,83258,5
41476,83267,5
41472,83263,4
41484,83231,5
41478,83268,8
41476,83265,3
41483,83282,3
41472,83223,4
41470,83262,5
41481,83256,5
41472,83252,5
41475,83221,4
41472,83241,5
41469,83244,6
41466,83251,4
41474,83276,5
41477,83259,4
41483,83262,5
41476,83278,5
41480,83328,5
41488,83277,5
41491,83293,4
41496,83306,5
41510,83349,5
41503,83326,5
41515,83334,5
41507,83339,4
41517,83342,5
41516,83338,5
41514,83325,5
41504,83316,4
41505,83310,4
41491,83295,5
41481,83269,5
41482,83256,5
41478,83247,4
41480,83256,5
41464,83251,5
41477,83256,7
41480,83273,3
41485,83272,4
41479,83269,5
41485,83268,5
41485,83267,5
41482,83282,5
41484,83276,4
41487,83279,5
41484,83282,5
41488,83288,5
41493,83303,5
41492,83298,4
41502,83302,5
41495,83306,5
41515,83312,5
41498,83305,5
41506,83323,4
41513,83320,5
41509,83323,5
41516,83338,5
41523,83336,5
41527,83348,4
41527,83347,5
41532,83365,5
41535,83371,5
41539,83367,4
41539,83380,5
41529,83371,5
41533,83388,5
41548,83389,5
41544,83398,4
41557,83402,5
41564,83420,5
41570,83420,5
41573,83426,5
41568,83440,4
41575,83450,5
41587,83449,5
41584,83466,5
41607,83478,5
41599,83469,4
41598,83484,5
41601,83485,5
41601,83496,5
41606,83497,5
41607,83486,5
41599,83491,4
41614,83483,5
41600,83487,5
41607,83491,4
41601,83484,4
41597,83492,5
41607,83486,5
41609,83486,5
41606,83501,4
41609,83500,5
41610,83500,5
41605,83499,5
41608,83502,5
41610,83503,4
41600,83506,5
41606,83499,5
41607,83500,5
41617,83491,5
41614,83509,4
41614,83505,5
41625,83517,5
41624,83512,5
41621,83517,5
41606,83522,4
41615,83513,6
41632,83523,4
41618,83525,5
41583,83505,4
41617,83518,4
41619,83514,5
41609,83507,5
41571,83504,5
41610,83505,4
41601,83485,5
41605,83482,5
41589,83485,5
41596,83477,5
41592,83465,4
41596,83470,5
41620,83469,5
41604,83481,5
41603,83478,5
41600,83478,4
41642,83486,5
41603,83483,5
41600,83479,5
41598,83486,4
41632,83482,4
41601,83488,5
41597,83476,5
41595,83474,5
41588,83462,5
41577,83448,4
41583,83437,5
41574,83424,5
41565,83384,5
41562,83410,4
41560,83407,4
41551,83407,5
41563,83367,5
41556,83407,5
41551,83400,4
41558,83405,5
41560,83372,5
41551,83402,5
41550,83396,5
41546,83394,5
41545,83403,4
41544,83383,5
41546,83382,5
41539,83382,6
41538,83423,3
41527,83359,5
41518,83357,5
41518,83347,5
41518,83372,5
41508,83321,4
41500,83317,5
41503,83311,5
41505,83327,5
41507,83304,5
41496,83306,4
41499,83316,5
41497,83317,5
41500,83308,5
41495,83303,4
41505,83303,4
41496,83298,5
41497,83301,5
41493,83290,5
41491,83297,4
41478,83290,6
41483,83275,4
41484,83280,5
41479,83275,5
41483,83280,6
41486,83276,3
41471,83271,5
41476,83265,5
41482,83272,5
41485,83276,4
41482,83281,5
41485,83288,5
41491,83282,5
41479,83295,5
41496,83313,4
41493,83301,5
41502,83318,5
41510,83320,5
41503,83323,5
41502,83328,4
41510,83333,5
41501,83336,5
41518,83334,5
41513,83339,4
41518,83335,5
41522,83341,6
41515,83335,4
41510,83337,5
41511,83332,4
41509,83338,5
41506,83334,5
41505,83326,5
41502,83320,5
41512,83327,4
41501,83318,5
41502,83325,5
41515,83312,5
41500,83311,5
41503,83316,4
41501,83320,5
41506,83311,5
41504,83309,5
41497,83305,5
41506,83313,4
41493,83300,5
41490,83305,5
41485,83300,5
41487,83305,4
41499,83295,4
41477,83298,5
41489,83283,6
41481,83296,4
41492,83290,4
41484,83296,5
41497,83291,5
41497,83304,5
41501,83315,5
41503,83313,4
41512,83329,5
41515,83342,5
41517,83352,5
41524,83357,5
41530,83361,4
41534,83374,5
41528,83376,5
41523,83367,5
41535,83370,5
41525,83345,4
41521,83349,5
41502,83329,5
41503,83314,5
41502,83314,5
41499,83316,4
41467,83323,5
41509,83323,5
41515,83318,6
41506,83320,3
41467,83331,4
41500,83324,5
41512,83332,5
41511,83335,5
41493,83327,4
41506,83339,5
41508,83340,5
41517,83339,5
41543,83344,5
41507,83341,4
41512,83342,5
41515,83345,5
41567,83332,5
41507,83327,5
41508,83333,4
41507,83329,5
41530,83328,5
41506,83326,5
41507,83333,5
41506,83322,5
41508,83323,4
41514,83342,5
41511,83332,5
41511,83331,6
41506,83297,3
41512,83319,5
41508,83322,5
41501,83318,5
41505,83275,4
41516,83336,4
41500,83331,5
41503,83323,5
41505,83287,5
41507,83321,4
41505,83335,5
41507,83344,5
41513,83364,5
41514,83357,5
41519,83363,4
41532,83372,5
41527,83421,5
41532,83386,5
41535,83386,5
41538,83386,4
41538,83438,6
41556,83395,4
41540,83400,5
41547,83395,5
41548,83412,4
41549,83407,5
41544,83400,5
41546,83406,5
41538,83395,5
41553,83401,4
41545,83396,5
41537,83394,5
41540,83396,5
41544,83397,4
41547,83400,5
41532,83399,5
41537,83394,5
41533,83387,5
41531,83388,4
41529,83382,5
41533,83375,5
41535,83376,5
41536,83369,5
41526,83378,4
41537,83384,5
41541,83376,6
41532,83386,4
41542,83383,5
41541,83391,4
41543,83394,5
41541,83392,5
41545,83403,5
41541,83400,5
41544,83391,4
41530,83383,5
41530,83370,5
41527,83358,5
41512,83343,4
41503,83330,4
41496,83313,5
41494,83304,5
41484,83295,5
41486,83300,4
41486,83299,5
41491,83297,5
41487,83298,5
41485,83282,5
41486,83289,4
41490,83287,5
41486,83281,5
41486,83273,6
41470,83276,4
41471,83287,4
41482,83284,5
41482,83275,5
41478,83280,5
41475,83269,5
41471,83277,4
41471,83274,5
41466,83259,5
41453,83232,5
41446,83216,5
41443,83209,4
41430,83201,5
41434,83192,5
41426,83197,5
41419,83191,4
41430,83193,4
41430,83197,5
41424,83177,5
41410,83158,5
41409,83142,5
41401,83135,4
41392,83121,5
41388,83106,5
41380,83097,5
41371,83098,4
41378,83111,5
41392,83139,5
41409,83161,5
41415,83171,5
41420,83188,4
41427,83191,5
41428,83178,5
41428,83187,5
41423,83189,5
41432,83201,4
41433,83208,5
41457,83231,5
41430,83262,5
41485,83293,5
41502,83335,4
41523,83352,6
41478,83368,4
41533,83365,5
41523,83371,4
41539,83404,9
41548,83429,5
41576,83480,5
41606,83473,5
41430,83197,10
41702,83621,9
41607,83511,7
41607,83511,8
41600,83493,5
41584,83487,7
41609,83477,8
41591,83484,5
41620,83475,7
41662,83640,8
41662,83640,5
41696,83670,7
41717,83720,8
41704,83680,5
41681,83641,7
41702,83562,8
41673,83643,12
41673,83643,8
41676,83625,7
41675,83618,8
41668,83634,5
41631,83563,7
41631,83563,8
41665,83572,5
41648,83602,7
41643,83637,8
41653,83585,5
41651,83579,7
41623,83554,8
41623,83554,5
41668,83550,7
41636,83551,8
41624,83551,5
41630,83565,7
41637,83579,8
41585,83465,7
41585,83465,5
41585,83472,8
41603,83508,7
41627,83557,5
41651,83602,8
41697,83634,7
41680,83614,5
41567,83457,8
41567,83457,7
41593,83500,5
41612,83494,8
41628,83528,7
41622,83539,5
41631,83570,8
41651,83624,7
41614,83511,7
41614,83511,10
41600,83514,5
41609,83527,5
41610,83567,8
41619,83547,7
41628,83542,10
41628,83542,9
41608,83501,10
41593,83480,9
41593,83480,5
41587,83464,8
41580,83449,7
41568,83429,9
41565,83428,10
41565,83428,9
41552,83431,10
41566,83422,9
41566,83422,10
41551,83384,5
41540,83390,5
41545,83377,10
41526,83350,5
41490,83301,5
41418,83176,10
41418,83176,5
41409,83150,7
41396,83132,8
41391,83123,5
41388,83115,7
41364,83073,8
41364,83073,5
41345,83072,7
41333,83068,8
41378,83074,5
41357,83071,7
41351,83007,8
41296,82994,9
41296,82994,8
41302,82956,5
41302,82951,5
41330,82946,2
41310,82939,0
41268,82940,4
41277,82923,4
41275,82919,5
41324,82913,5
41279,82910,5
41274,82914,5
41271,82911,4
41302,82918,5
41270,82919,5
41270,82919,5
41272,82926,5
41281,82918,4
41272,82926,5
41282,82913,5
41280,82916,5
41279,82910,5
41275,82920,4
41275,82915,5
41265,82923,5
41272,82882,5
41271,82916,5
41270,82917,4
41274,82918,5
41273,82868,5
41271,82918,6
41275,82919,3
41273,82916,6
41278,82931,4
41284,82944,5
41275,82942,5
41293,82956,4
41294,82994,5
41287,82962,5
41287,82949,5
41278,82947,5
41286,82988,4
41281,82923,5
41266,82915,5
41266,82906,5
41261,82915,5
41252,82891,4
41256,82879,5
41255,82884,5
41249,82879,5
41258,82886,5
41256,82879,5
41247,82879,4
41245,82866,5
41242,82871,5
41254,82880,6
41253,82882,3
41250,82883,5
41256,82882,5
41254,82887,5
41251,82880,4
41247,82884,5
41254,82876,5
41239,82879,5
41250,82875,5
41252,82871,4
41243,82877,5
41248,82878,5
41252,82878,5
41236,82878,5
41252,82885,4
41248,82884,5
41250,82894,5
41250,82897,5
41255,82909,5
41271,82903,4
41269,82904,6
41267,82919,4
41271,82922,5
41272,82927,5
41277,82931,4
41284,82934,5
41276,82931,5
41277,82937,5
41287,82937,4
41286,82944,4
41285,82951,5
41292,82949,5
41282,82959,5
41288,82953,4
41292,82963,5
41299,82972,5
41293,82963,5
41299,82959,5
41300,82969,4
41302,82967,5
41299,82975,5
41299,82982,5
41298,82985,5
41306,82989,4
41314,82981,5
41310,82993,6
41310,82984,4
41306,82988,5
41305,82986,4
41311,82985,5
41310,82991,5
41312,82996,5
41308,82993,5
41311,82990,4
41302,82993,5
41310,82990,5
41301,82988,5
41311,82982,4
41309,82982,4
41293,82971,5
41304,82973,5
41296,82974,5
41296,82968,4
41295,82971,5
41304,82985,5
41313,82991,5
41311,82990,5
41308,82994,4
41319,83010,5
41319,83014,5
41317,83008,6
41326,83005,4
41318,83007,4
41322,83014,5
41296,83016,5
41322,83016,5
41318,82998,5
41316,82999,4
41269,82985,5
41310,82983,5
41291,82962,5
41289,82943,5
41235,82948,4
41281,82945,5
41284,82940,5
41284,82951,5
41300,82945,4
41294,82951,4
41291,82958,5
41293,82961,5
41339,82961,5
41298,82966,5
41300,82960,4
41295,82957,5
41341,82974,5
41303,82969,6
41299,82972,3
41297,82967,5
41310,82970,5
41299,82973,5
41296,82970,5
41294,82960,4
41289,82941,5
41287,82952,5
41294,82952,5
41295,82958,5
41282,82916,4
41285,82950,5
41284,82955,5
41294,82957,5
41288,82904,5
41281,82952,4
41290,82962,5
41287,82964,5
41293,82948,5
41293,82958,4
41295,82959,5
41287,82958,4
41294,82998,5
41291,82956,5
41288,82952,4
41282,82950,5
41290,83009,5
41297,82958,5
41289,82959,5
41284,82963,4
41293,82987,5
41293,82967,5
41302,82969,5
41293,82957,5
41293,82973,4
41293,82973,5
41296,82968,5
41298,82970,5
41301,82974,5
41303,82973,4
41305,82973,5
41305,82983,5
41302,82984,5
41302,82982,4
41304,82984,4
41304,82979,6
41308,82981,4
41301,82986,5
41301,82972,4
41306,82982,5
41296,82974,5
41298,82969,5
41298,82962,5
41296,82971,4
41294,82970,5
41288,82963,5
41298,82963,5
41282,82957,5
41290,82959,4
41289,82954,5
41287,82958,5
41288,82955,5
41286,82968,5
41292,82972,4
41298,82973,5
41303,82983,5
41313,82986,5
41307,82989,5
41314,83004,4
41308,83001,5
41318,83006,6
41314,83011,4
41320,83003,4
41315,82998,4
41316,83005,5
41305,82988,5
41305,82973,5
41297,82970,4
41291,82957,5
41293,82942,5
41276,82940,5
41285,82946,5
41277,82949,4
41290,82954,5
41283,82942,5
41277,82948,5
41288,82951,5
41283,82946,4
41288,82951,5
41292,82940,5
41286,82947,5
41281,82943,5
41285,82946,4
41299,82950,5
41281,82951,5
41283,82945,5
41284,82942,5
41275,82929,4
41276,82938,5
41265,82938,5
41281,82931,5
41279,82930,4
41273,82936,4
41278,82936,5
41271,82938,5
41272,82948,5
41286,82939,4
41289,82950,5
41279,82945,5
41290,82951,5
41283,82946,5
41285,82942,4
41285,82947,5
41276,82949,5
41285,82938,5
41262,82947,5
41282,82950,5
41289,82953,4
41287,82955,5
41249,82947,5
41288,82951,5
41290,82947,4
41282,82951,5
41251,82960,5
41288,82959,5
41291,82960,5
41285,82952,4
41302,82963,5
41294,82957,5
41293,82959,5
41296,82965,4
41336,82975,4
41301,82971,5
41304,82981,5
41308,82979,5
41345,82989,4
41300,82980,5
41302,82990,5
41311,82996,5
41327,83001,5
41314,83006,4
41303,83002,6
41318,83001,4
41317,83003,5
41318,83007,5
41321,83004,4
41315,83003,5
41318,82978,5
41311,83007,5
41315,83010,5
41313,83006,4
41318,82966,5
41317,83010,5
41316,82999,5
41312,83008,5
41316,82993,4
41314,83013,5
41315,83011,8
41323,83001,3
41320,83061,3
41310,83003,5
41316,83003,5
41319,83000,6
41314,83048,4
41313,83006,4
41312,83001,5
41319,83000,5
41307,83027,5
41316,83004,5
41319,82999,4
41319,83007,5
41315,83015,5
41317,83007,5
41319,82995,5
41313,83006,4
41313,83002,5
41311,83003,5
41310,82991,5
41299,82985,5
41305,82976,4
41297,82976,5
41290,82960,5
41287,82949,5
41288,82946,5
41291,82946,4
41280,82945,5
41288,82951,5
41288,82965,6
41291,82953,3
41302,82966,5
41295,82976,5
41308,82989,5
41310,83007,5
41318,83023,4
41324,83020,5
41332,83030,5
41334,83028,5
41332,83032,5
41339,83042,4
41329,83024,5
41322,83024,5
41318,83008,5
41305,82993,5
41300,82983,4
41308,82984,5
41306,82980,5
41310,82998,5
41312,82987,5
41311,82995,5
41310,82982,4
41309,82988,5
41306,82988,5
41312,82996,6
41314,82997,3
41314,82999,5
41309,83009,5
41313,82999,5
41309,82999,4
41311,82999,5
41314,82997,5
41300,82992,5
41306,82994,5
41308,82993,4
41308,82991,5
41304,82981,5
41299,82977,5
41305,82978,5
41293,82980,4
41296,82975,5
41306,82974,5
41293,82978,5
41304,82969,5
41301,82977,4
41304,82974,6
41299,82973,4
41302,82973,5
41303,82980,5
41295,82979,6
41296,82980,3
41298,82984,5
41298,82965,5
41299,82978,4
41295,82979,4
41301,82977,5
41305,82985,5
41304,82989,5
41310,82983,4
41306,82993,5
41310,82994,5
41301,82992,5
41314,83000,5
41321,83006,4
41290,83003,5
41309,83016,5
41328,83027,5
41334,83026,5
41287,83031,4
41329,83039,5
41334,83041,6
41331,83036,4
41288,83034,5
41331,83039,4
41339,83052,5
41343,83046,5
41338,83060,5
41350,83054,5
41340,83075,4
41343,83064,5
41390,83062,5
41339,83051,5
41343,83062,4
41341,83060,4
41398,83060,5
41347,83058,5
41341,83065,5
41347,83046,4
41367,83054,5
41345,83060,5
41355,83057,5
41356,83070,5
41357,83066,4
41355,83068,5
41351,83059,5
41344,83052,6
41354,83024,4
41344,83061,4
41344,83058,5
41347,83045,5
41352,83014,5
41348,83060,5
41348,83057,4
41350,83059,5
41351,83042,5
41352,83068,5
41349,83063,5
41349,83064,5
41346,83100,4
41353,83068,5
41350,83072,5
41349,83075,4
41348,83122,4
41357,83072,5
41349,83070,5
41342,83066,5
41351,83106,5
41345,83062,4
41349,83062,5
41347,83055,5
41338,83066,6
41341,83047,3
41331,83037,5
41343,83038,5
41338,83042,5
41346,83037,5
41344,83047,4
41340,83052,5
41337,83061,5
41349,83072,5
41354,83070,5
41354,83082,4
41365,83099,5
41372,83104,5
41365,83106,5
41371,83112,5
41378,83116,4
41373,83113,5
41375,83115,5
41373,83105,5
41369,83102,4
41361,83091,6
41357,83065,4
41353,83069,5
41342,83072,5
41353,83073,4
41351,83078,5
41361,83081,5
41360,83086,5
41364,83092,5
41364,83092,4
41356,83101,5
41358,83101,5
41365,83101,5
41370,83097,5
41379,83110,4
41374,83102,5
41375,83107,5
41374,83102,5
41368,83099,5
41367,83107,4
41371,83095,5
41365,83096,5
41363,83097,5
41374,83103,4
41373,83095,4
41374,83106,6
41370,83114,4
41374,83125,5
41383,83129,4
41396,83130,5
41388,83143,5
41400,83157,5
41400,83159,5
41409,83183,4
41419,83182,5
41425,83190,5
41421,83198,5
41426,83214,5
41436,83224,4
41434,83221,5
41443,83231,5
41435,83228,5
41447,83236,5
41455,83250,4
41451,83253,5
41454,83257,5
41469,83276,5
41475,83294,5
41483,83300,4
41489,83323,5
41500,83325,6
41518,83340,4
41508,83352,4
41527,83370,4
41523,83377,5
41530,83385,5
41535,83394,5
41545,83406,4
41547,83423,5
41545,83438,5
41539,83428,5
41555,83430,5
41557,83417,4
41549,83425,5
41517,83420,5
41549,83437,5
41554,83445,5
41569,83461,4
41528,83478,5
41597,83496,5
41592,83503,5
41589,83478,5
41590,83476,4
41576,83468,5
41582,83492,5
41594,83518,5
41649,83540,5
41617,83555,4
41628,83552,5
41623,83548,5
41661,83528,5
41598,83516,4
41608,83536,5
41633,83573,5
41679,83636,5
41696,83678,5
41707,83721,4
41723,83714,5
41709,83696,5
41715,83714,5
41724,83726,5
41737,83765,4
41751,83777,5
41787,83852,5
41817,83911,5
41862,83975,5
41882,83972,5
41890,84011,4
41871,83988,5
41857,83960,5
41845,83936,5
41869,83991,4
41907,84079,5
41970,84209,5
42034,84324,5
42050,84311,5
42032,84287,4
42039,84304,5
42058,84392,5
42082,84359,5
42070,84338,4
42048,84281,5
42012,84253,5
41982,84178,5
41968,84188,5
42004,84234,4
42027,84288,5
42044,84304,5
42064,84336,5
42085,84364,5
42089,84383,9
42124,84426,8
42133,84491,5
42146,84467,7
42130,84428,8
