RED,IR,EKG,TIME
54182,114333,5
54189,114343,10
54200,114350,5
54200,114350,5
54193,114351,10
54192,114336,5
54190,114317,5
54183,114313,10
54186,114298,5
54182,114295,7
54174,114301,8
54174,114301,5
54176,114261,7
54181,114273,8
54180,114317,9
54186,114319,10
54186,114319,5
54190,114318,7
54181,114335,8
54180,114307,5
54179,114308,7
54166,114304,7
54168,114321,5
54116,114175,7
54116,114175,8
54071,114166,5
54098,114147,7
54103,114159,8
54090,114153,5
54094,114179,7
54100,114162,8
54100,114162,5
54076,114155,7
54096,114156,8
54089,114137,5
54086,114135,7
54085,114107,8
54059,114084,9
54059,114084,8
54062,114048,5
54072,114087,7
54093,114107,8
54098,114118,5
54076,114118,7
54118,114192,8
54118,114192,5
54132,114217,7
54137,114234,8
54147,114254,7
54160,114270,5
54170,114292,8
54183,114336,7
54183,114336,5
54183,114333,8
54197,114347,7
54197,114353,5
54197,114354,8
54193,114319,7
54191,114344,5
54204,114363,8
54204,114363,7
54202,114375,7
54212,114364,10
54205,114376,5
54196,114381,5
54228,114395,8
54228,114395,7
54224,114401,10
54229,114402,9
54225,114405,5
54228,114410,8
54228,114410,7
54192,114409,10
54227,114402,7
54214,114379,5
54220,114364,5
54161,114286,10
54161,114286,5
54160,114265,5
54166,114259,10
54166,114283,5
54155,114280,5
54169,114269,10
54149,114254,5
54128,114244,5
54146,114236,10
54142,114231,5
54134,114237,5
54113,114230,10
54127,114211,5
54116,114171,7
54118,114150,8
54109,114142,5
54093,114117,7
54045,114044,8
54045,114044,5
54034,113969,7
54068,114022,8
54043,114024,9
54012,113990,8
54012,113990,10
54028,113960,10
53997,113946,5
53964,113928,7
53939,113829,8
53939,113829,5
53933,113810,7
53937,113778,5
53921,113805,0
53914,113785,2
53908,113767,5
53898,113748,5
53899,113756,5
53908,113768,5
53906,113760,5
53903,113759,4
53904,113755,5
53894,113748,5
53897,113742,5
53886,113767,4
53895,113743,5
53892,113759,5
53892,113753,5
53892,113773,4
53897,113762,4
53907,113767,5
53904,113766,5
53900,113787,5
53907,113768,5
53907,113774,4
53908,113780,5
53908,113788,5
53910,113782,5
53913,113786,4
53917,113798,5
53916,113783,5
53916,113791,5
53909,113794,5
53914,113783,4
53919,113784,5
53911,113786,5
53909,113776,5
53916,113790,5
53918,113786,4
53917,113798,5
53924,113797,5
53913,113798,5
53921,113804,5
53928,113816,4
53930,113823,5
53924,113813,4
53933,113827,5
53934,113816,5
53940,113824,5
53935,113825,3
53931,113830,5
53934,113832,5
53942,113836,4
53943,113850,4
53957,113856,5
53938,113872,5
53948,113868,5
53954,113873,4
53954,113879,5
53965,113881,5
53962,113887,5
53964,113896,5
53965,113891,4
53965,113900,5
53975,113907,5
53980,113926,5
53979,113922,5
53985,113934,4
53988,113949,5
53997,113947,6
54004,113960,4
53998,113958,5
53993,113949,4
54000,113955,7
54001,113935,3
53988,113933,5
53979,113911,5
53966,113913,4
53975,113906,5
53975,113917,5
53976,113913,5
53983,113927,4
53989,113935,4
53986,113949,5
54002,113958,5
53998,113949,5
54002,113963,4
53997,113964,5
53995,113959,5
53991,113968,5
54001,113958,5
53998,113965,4
54005,113971,5
53997,113961,5
53991,113959,6
53993,113955,4
54002,113951,4
53990,113951,5
53992,113929,5
53990,113938,5
53990,113935,5
53997,113921,4
53987,113918,5
53983,113911,5
53974,113922,5
53974,113918,5
53981,113916,4
53969,113920,5
53989,113928,5
53977,113936,5
53984,113934,5
53967,113912,4
53970,113910,5
53965,113905,5
53962,113884,5
53941,113879,5
53956,113870,4
53953,113876,5
53960,113876,5
53949,113880,6
53963,113883,3
53960,113884,5
53963,113888,5
53984,113889,5
53961,113883,5
53967,113883,4
53963,113892,5
53990,113892,5
53969,113887,5
53962,113883,5
53962,113890,4
53988,113895,5
53971,113903,5
53973,113900,5
53964,113907,5
53978,113915,4
53980,113909,5
53981,113920,5
53968,113912,5
53979,113900,5
53987,113911,5
53978,113908,4
53971,113919,5
53979,113885,5
53977,113919,6
53971,113919,3
53973,113913,5
53968,113885,5
53964,113906,5
53977,113911,4
53979,113904,5
53966,113903,4
53973,113905,5
53968,113904,5
53972,113907,4
53963,113926,5
53968,113908,5
53972,113913,5
53974,113908,5
53968,113931,4
53973,113904,5
53972,113907,5
53963,113887,5
53963,113902,5
53961,113887,4
53959,113885,6
53951,113893,4
53961,113889,5
53959,113886,5
53973,113884,4
53964,113882,5
53959,113893,5
53962,113876,5
53961,113898,4
53963,113886,4
53963,113886,5
53956,113892,5
53954,113873,5
53950,113877,4
53955,113871,5
53952,113864,5
53949,113868,5
53952,113872,5
53954,113866,4
53949,113873,5
53956,113877,5
53952,113876,5
53962,113877,5
53954,113895,4
53953,113889,5
53959,113893,6
53963,113901,4
53970,113908,5
53971,113914,4
53979,113919,5
53970,113905,5
53963,113899,5
53954,113885,5
53952,113883,4
53949,113862,5
53936,113837,5
53921,113810,5
53920,113803,5
53916,113783,4
53912,113780,5
53910,113786,5
53919,113783,5
53915,113787,4
53918,113794,4
53920,113813,5
53923,113817,5
53931,113817,5
53924,113810,4
53919,113813,5
53926,113806,5
53915,113812,6
53921,113819,4
53932,113820,4
53927,113827,5
53936,113820,5
53923,113816,5
53920,113821,5
53925,113814,4
53916,113813,5
53925,113804,5
53926,113790,5
53910,113786,5
53913,113786,4
53913,113788,5
53911,113790,5
53908,113778,5
53908,113785,5
53904,113781,4
53910,113789,5
53908,113783,5
53910,113776,5
53905,113778,5
53904,113776,4
53902,113773,5
53898,113761,5
53902,113767,6
53896,113770,3
53893,113767,5
53902,113766,5
53898,113773,5
53901,113764,5
53908,113776,4
53901,113769,5
53903,113762,5
53895,113762,5
53891,113769,5
53892,113770,4
53885,113764,5
53893,113775,5
53894,113759,5
53901,113773,5
53870,113768,4
53896,113762,5
53899,113767,5
53903,113758,5
53896,113753,5
53894,113754,5
53885,113734,4
53895,113749,5
53896,113743,5
53885,113740,5
53887,113746,4
53887,113748,5
53910,113744,5
53883,113732,5
53888,113738,4
53880,113732,5
53887,113731,5
53879,113719,5
53881,113723,5
53879,113705,4
53873,113707,5
53866,113710,5
53867,113701,5
53864,113700,5
53867,113689,4
53866,113702,5
53870,113710,5
53858,113692,5
53865,113671,5
53854,113684,4
53857,113679,6
53853,113678,4
53852,113656,5
53847,113671,5
53849,113663,4
53852,113671,5
53849,113676,5
53855,113666,5
53858,113672,5
53862,113680,4
53857,113708,5
53856,113680,5
53866,113686,5
53863,113685,4
53855,113709,4
53861,113679,5
53856,113680,5
53856,113678,5
53851,113681,4
53856,113662,5
53844,113659,5
53847,113660,5
53849,113653,5
53833,113652,4
53838,113651,5
53842,113637,6
53842,113654,3
53838,113640,5
53829,113641,4
53832,113633,5
53833,113628,5
53828,113639,5
53835,113647,5
53835,113652,4
53839,113649,5
53843,113662,5
53844,113660,5
53851,113660,5
53851,113675,4
53846,113662,5
53834,113645,5
53840,113633,5
53826,113625,4
53821,113615,4
53811,113590,5
53797,113578,5
53794,113560,5
53798,113561,4
53797,113571,5
53791,113564,5
53798,113567,6
53801,113570,4
53799,113579,4
53803,113581,5
53807,113589,5
53813,113590,5
53816,113600,5
53807,113602,4
53811,113603,5
53808,113615,5
53808,113621,5
53824,113617,5
53820,113610,4
53820,113605,5
53820,113611,5
53822,113605,5
53819,113610,5
53820,113611,4
53819,113617,5
53817,113606,5
53819,113609,5
53817,113597,5
53805,113604,4
53817,113600,5
53814,113605,5
53823,113616,5
53823,113617,4
53824,113628,5
53817,113626,5
53828,113623,5
53828,113617,5
53818,113602,4
53814,113596,5
53806,113586,5
53811,113583,5
53796,113577,5
53804,113582,4
53797,113582,5
53805,113592,5
53801,113576,5
53804,113586,5
53806,113591,4
53803,113604,5
53808,113591,5
53820,113598,5
53804,113604,5
53811,113598,5
53829,113610,4
53829,113606,5
53813,113612,5
53822,113615,5
53821,113615,4
53820,113620,5
53806,113615,5
53819,113610,5
53816,113608,4
53809,113606,4
53794,113603,5
53815,113599,5
53809,113600,5
53817,113593,4
53789,113599,5
53805,113590,5
53804,113590,5
53809,113592,5
53800,113584,4
53810,113591,5
53805,113593,5
53805,113589,5
53826,113602,5
53805,113597,4
53805,113607,6
53811,113599,4
53824,113588,5
53803,113590,5
53807,113605,4
53802,113582,5
53816,113578,5
53811,113586,5
53804,113588,5
53800,113588,4
53793,113566,5
53794,113570,5
53801,113570,5
53791,113557,4
53792,113554,4
53792,113557,5
53790,113561,5
53793,113557,5
53800,113563,4
53800,113582,5
53798,113584,5
53801,113579,6
53799,113585,4
53806,113587,4
53801,113591,5
53806,113599,5
53805,113608,5
53804,113607,5
53813,113598,4
53817,113614,5
53822,113647,5
53818,113624,5
53830,113635,5
53828,113646,4
53831,113675,5
53836,113667,5
53843,113668,5
53839,113674,5
53847,113699,4
53843,113691,5
53851,113706,5
53863,113707,5
53859,113718,4
53865,113725,4
53867,113723,5
53867,113721,5
53860,113708,5
53857,113717,3
53848,113693,5
53842,113670,5
53837,113654,5
53827,113648,5
53832,113645,4
53823,113639,5
53820,113640,5
53820,113633,5
53813,113642,5
53820,113642,4
53827,113641,5
53816,113635,5
53825,113639,5
53812,113634,5
53812,113625,4
53814,113633,5
53811,113626,5
53801,113605,5
53796,113596,5
53790,113580,5
53791,113563,4
53783,113553,5
53772,113533,5
53770,113529,6
53766,113521,3
53754,113498,5
53739,113487,5
53743,113476,5
53736,113478,4
53738,113484,4
53738,113474,5
53741,113477,5
53732,113472,5
53744,113481,4
53751,113485,5
53736,113483,5
53741,113482,5
53735,113466,5
53727,113461,4
53723,113450,5
53730,113447,5
53722,113438,5
53721,113450,5
53726,113455,4
53731,113461,6
53731,113470,4
53727,113477,5
53727,113466,5
53732,113469,6
53731,113463,3
53723,113453,5
53718,113441,5
53713,113440,5
53715,113438,4
53707,113432,5
53709,113431,5
53715,113443,5
53715,113435,4
53714,113453,4
53721,113455,5
53721,113469,5
53726,113462,5
53728,113471,4
53721,113482,5
53748,113477,5
53736,113482,5
53742,113491,5
53741,113496,4
53747,113496,5
53742,113501,6
53758,113498,4
53744,113495,5
53746,113490,4
53744,113490,5
53742,113478,5
53728,113468,5
53740,113462,5
53726,113469,4
53728,113461,5
53717,113457,5
53736,113467,5
53733,113464,5
53742,113465,4
53717,113466,5
53728,113464,5
53726,113464,5
53734,113464,4
53738,113457,4
53732,113463,5
53729,113461,5
53728,113462,5
53757,113464,4
53736,113460,5
53740,113475,5
53738,113485,6
53766,113492,4
53752,113499,4
53765,113509,5
53771,113524,5
53786,113545,5
53788,113570,5
53797,113576,4
53795,113582,5
53796,113581,5
53795,113575,5
53786,113563,5
53789,113546,4
53785,113536,5
53771,113533,5
53757,113509,5
53761,113506,5
53757,113479,4
53752,113498,5
53758,113503,5
53760,113526,5
53772,113524,5
53782,113555,4
53785,113570,5
53801,113596,5
53813,113623,6
53812,113614,3
53819,113637,5
53822,113640,5
53832,113665,5
53830,113647,5
53840,113670,4
53844,113670,5
53842,113700,5
53851,113682,5
53858,113680,5
53854,113694,4
53861,113696,5
53859,113686,5
53858,113698,5
53849,113678,5
53839,113681,4
53856,113690,5
53856,113690,5
53848,113696,5
53862,113711,5
53867,113715,5
53869,113713,4
53864,113718,5
53858,113713,5
53865,113717,6
53867,113721,3
53857,113710,5
53862,113710,5
53860,113707,5
53859,113704,4
53857,113707,4
53858,113716,5
53865,113718,5
53867,113727,5
53873,113727,4
53869,113739,5
53878,113745,5
53880,113759,5
53887,113750,5
53885,113761,4
53893,113761,5
53893,113762,5
53896,113771,5
53893,113781,5
53899,113781,4
53900,113786,6
53903,113790,4
53906,113790,5
53902,113796,5
53914,113805,4
53909,113798,5
53903,113797,5
53905,113800,5
53907,113791,5
53902,113807,4
53911,113813,5
53902,113804,5
53922,113813,5
53916,113815,4
53918,113805,4
53916,113801,5
53907,113810,5
53909,113803,5
53913,113801,4
53914,113807,5
53912,113815,5
53918,113812,5
53908,113818,5
53920,113826,4
53921,113823,5
53921,113831,6
53920,113832,4
53929,113829,5
53928,113838,4
53931,113845,5
53923,113847,5
53934,113863,5
53943,113866,5
53945,113867,4
53945,113874,5
53952,113892,5
53955,113899,5
53956,113904,5
53955,113887,4
53945,113888,5
53954,113889,5
53951,113877,5
53943,113877,5
53949,113853,4
53939,113846,5
53933,113850,5
53933,113849,5
53929,113839,4
53929,113830,4
53927,113847,5
53933,113845,6
53922,113847,4
53931,113860,4
53935,113869,5
53955,113869,5
53930,113883,5
53941,113881,5
53954,113887,4
53958,113886,5
53931,113896,5
53958,113902,5
53958,113915,5
53965,113896,4
53973,113904,5
53950,113884,5
53949,113876,5
53952,113871,5
53963,113848,4
53923,113834,5
53921,113811,5
53916,113794,5
53917,113783,5
53903,113770,4
53888,113772,5
53887,113763,5
53897,113760,6
53889,113756,3
53872,113726,4
53876,113728,5
53870,113699,5
53859,113691,5
53842,113674,4
53840,113656,5
53826,113611,5
53824,113602,5
53808,113590,5
53796,113568,4
53784,113520,4
53767,113529,5
53761,113515,5
53760,113497,5
53750,113470,4
53746,113483,5
53744,113462,5
53731,113447,5
53725,113447,5
53718,113411,5
53706,113368,4
53675,113344,5
53676,113342,5
53651,113283,5
53637,113243,4
53633,113235,5
53627,113245,5
53623,113224,5
53610,113221,4
53613,113203,4
53596,113185,5
53595,113162,5
53585,113143,5
53572,113108,4
53548,113076,5
53537,113056,5
53525,113032,5
53507,112998,5
53497,112973,4
53483,112939,5
53469,112910,5
53457,112891,5
53443,112851,5
53428,112843,4
53430,112825,6
53418,112803,4
53415,112794,5
53403,112768,5
53382,112746,4
53382,112738,5
53379,112717,5
53379,112732,5
53380,112745,5
53383,112752,4
53384,112735,5
53376,112731,5
53379,112716,5
53366,112713,5
53359,112700,4
53365,112691,5
53366,112702,5
53371,112706,5
53372,112717,4
53372,112734,5
53392,112757,5
53395,112789,5
53421,112827,5
53444,112900,4
53469,112942,5
53495,112993,6
53532,113037,4
53556,113089,5
53575,113138,4
53604,113189,5
53617,113220,5
53645,113276,5
53664,113320,5
53680,113357,4
53706,113392,5
53728,113424,5
53740,113473,5
53764,113515,5
53782,113537,4
53794,113571,5
53803,113591,5
53822,113626,5
53836,113643,5
53841,113667,4
53847,113683,5
53868,113708,5
53875,113727,5
53885,113747,4
53896,113775,4
53911,113815,5
53914,113811,5
53929,113827,5
53931,113831,4
53927,113838,5
53933,113847,5
53940,113847,5
53940,113858,5
53948,113877,4
53964,113882,5
53962,113900,5
53974,113914,5
53983,113938,5
53987,113940,4
53990,113957,5
53991,113969,5
53999,113972,5
54003,113986,5
54003,114000,4
54027,114011,5
54024,114022,5
54029,114034,5
54016,114039,5
54029,114045,4
54043,114057,5
54045,114062,5
54021,114064,5
54052,114077,4
54055,114081,4
54060,114083,5
54050,114084,5
54064,114097,5
54061,114096,4
54065,114105,5
54073,114099,5
54079,114122,5
54075,114119,5
54081,114138,7
54109,114138,2
54111,114154,5
54094,114163,5
54100,114174,5
54125,114187,4
54115,114202,5
54118,114201,5
54120,114205,5
54134,114219,5
54121,114217,5
54121,114219,4
54135,114234,5
54137,114227,5
54143,114251,5
54144,114265,4
54152,114261,5
54159,114260,5
54158,114290,5
54160,114306,4
54176,114310,4
54163,114291,5
54174,114304,5
54171,114316,5
54171,114314,5
54181,114303,4
54161,114305,5
54165,114295,5
54151,114285,5
54161,114296,4
54156,114274,5
54159,114280,6
54168,114283,4
54175,114324,5
54174,114302,4
54174,114323,7
54184,114338,3
54182,114344,5
54190,114326,5
54188,114334,4
54190,114346,5
54192,114341,5
54185,114352,5
54197,114348,5
54187,114348,4
54193,114368,5
54198,114352,5
54194,114345,5
54192,114351,5
54184,114359,4
54186,114354,5
54197,114362,5
54188,114358,5
54192,114345,4
54185,114351,4
54196,114357,5
54197,114362,6
54203,114356,4
54204,114374,4
54214,114382,5
54206,114390,5
54212,114394,5
54212,114388,5
54201,114381,4
54210,114370,5
54205,114381,5
54207,114381,5
54204,114386,5
54209,114393,4
54208,114390,5
54218,114383,5
54215,114391,5
54210,114394,5
54212,114390,4
54207,114380,5
54208,114380,5
54202,114371,5
54193,114360,5
54191,114332,4
54182,114335,5
54176,114315,5
54179,114310,6
54168,114290,3
54164,114289,4
54164,114296,5
54159,114280,5
54160,114280,5
54146,114266,4
54155,114263,5
54147,114260,5
54142,114261,5
54133,114242,5
54130,114235,4
54128,114238,5
54141,114236,5
54127,114236,5
54130,114230,5
54129,114233,4
54131,114239,5
54123,114243,5
54127,114236,5
54132,114225,5
54134,114239,5
54134,114229,4
54132,114230,5
54129,114224,5
54118,114223,6
54131,114224,3
54134,114213,5
54118,114219,5
54130,114223,5
54126,114222,5
54116,114209,4
54120,114207,5
54120,114208,5
54108,114200,5
54111,114190,4
54120,114188,4
54116,114192,5
54112,114191,5
54117,114191,5
54108,114181,4
54098,114173,5
54097,114172,5
54092,114166,5
54100,114166,5
54092,114175,4
54105,114164,6
54095,114163,4
54093,114154,5
54078,114146,5
54080,114140,6
54073,114104,3
54046,114074,5
54023,114037,5
54017,114003,5
54011,113985,4
54001,113965,5
54010,113958,5
53992,113958,5
53995,113970,5
54001,113971,4
54023,113980,5
53995,113982,5
53997,113959,5
54001,113968,4
54034,113977,4
54008,113973,5
53995,113978,5
53998,113974,5
54006,113968,4
54003,113969,5
53999,113966,6
54003,113956,4
53991,113932,5
53987,113947,4
53982,113932,5
53985,113926,5
53970,113894,5
53967,113899,5
53961,113906,4
53962,113896,5
53971,113872,5
53971,113912,5
53971,113917,5
53969,113915,5
53971,113905,4
53966,113901,5
53963,113898,5
53963,113888,5
53957,113886,4
53946,113855,5
53946,113845,5
53937,113847,5
53930,113860,4
53928,113828,4
53934,113827,5
53929,113830,6
53931,113840,4
53936,113829,4
53935,113842,5
53923,113837,5
53932,113839,5
53922,113838,5
53931,113829,4
53923,113832,5
53933,113840,5
53934,113833,5
53924,113834,5
53931,113838,4
53929,113837,5
53936,113832,5
53931,113834,5
53933,113839,5
53929,113851,4
53932,113847,5
53934,113833,5
53932,113838,5
53943,113836,5
53936,113833,4
53924,113826,5
53926,113819,5
53926,113818,6
53932,113815,4
53925,113819,4
53927,113814,5
53921,113804,5
53923,113805,5
53922,113785,4
53901,113792,5
53899,113782,5
53911,113778,5
53907,113779,5
53900,113770,4
53899,113766,5
53904,113780,5
53902,113778,5
53895,113767,5
53902,113767,4
53900,113766,5
53899,113762,5
53893,113753,5
53893,113748,5
53886,113748,5
53885,113744,4
53890,113742,5
53879,113733,5
53874,113723,5
53877,113722,4
53876,113716,5
53871,113710,5
53870,113700,5
53857,113692,5
53856,113690,4
53857,113678,5
53859,113680,5
53854,113672,5
53852,113666,4
53855,113676,4
53856,113673,5
53853,113683,5
53852,113686,5
53858,113690,4
53857,113687,5
53860,113684,5
53856,113685,5
53866,113694,5
53865,113697,4
53865,113694,6
53873,113699,4
53862,113705,5
53858,113688,5
53857,113681,4
53853,113678,5
53852,113659,5
53843,113645,5
53834,113631,5
53821,113630,4
53824,113618,5
53823,113609,5
53817,113609,5
53823,113619,5
53827,113626,4
53827,113628,5
53837,113642,5
53834,113643,5
53835,113645,4
53821,113643,4
53842,113636,5
53832,113644,5
53836,113652,5
53822,113648,4
53836,113644,5
53838,113646,6
53835,113644,4
53832,113635,5
53836,113637,4
53830,113635,5
53827,113626,5
53843,113629,5
53835,113622,5
53828,113611,4
53831,113623,5
53842,113613,5
53828,113609,5
53823,113613,5
53818,113612,4
53837,113619,5
53827,113626,5
53836,113632,5
53832,113626,5
53835,113631,4
53830,113622,5
53827,113619,5
53823,113610,5
53815,113603,3
53824,113617,4
53818,113618,5
53826,113622,6
53820,113607,4
53829,113629,4
53830,113632,5
53832,113641,5
53830,113610,5
53824,113637,5
53827,113616,4
53827,113630,5
53825,113636,5
53839,113639,5
53832,113641,5
53831,113638,4
53832,113661,5
53833,113642,5
53829,113636,5
53838,113641,5
53836,113663,4
53840,113647,5
53847,113652,5
53844,113650,5
53840,113664,5
53843,113657,4
53835,113657,5
53845,113653,5
53841,113662,5
53839,113664,4
53842,113666,4
53843,113657,5
53838,113656,5
53840,113653,5
53836,113649,4
53840,113648,5
53849,113656,5
53835,113651,5
53839,113655,5
53842,113660,4
53841,113646,5
53838,113649,5
53846,113655,5
53839,113650,5
53846,113656,4
53845,113642,5
53844,113653,5
53839,113649,5
53830,113652,5
53826,113638,5
53827,113639,4
53833,113631,5
53829,113633,5
53826,113635,5
53838,113639,4
53837,113634,5
53827,113628,5
53823,113623,5
53827,113628,5
53833,113635,4
53813,113619,5
53821,113611,5
53825,113613,5
53823,113623,4
53819,113628,4
53828,113639,5
53834,113634,5
53825,113636,5
53832,113635,4
53845,113649,5
53838,113645,5
53841,113650,5
53846,113651,5
53839,113649,4
53836,113629,6
53823,113614,4
53823,113614,5
53812,113604,5
53802,113574,4
53796,113559,5
53785,113549,5
53777,113545,5
53782,113534,5
53780,113534,4
53783,113537,5
53788,113548,5
53787,113562,5
53798,113573,5
53809,113589,4
53800,113594,5
53811,113593,5
53814,113582,5
53812,113576,4
53800,113575,4
53807,113586,5
53807,113581,5
53801,113587,5
53805,113578,4
53797,113577,5
53801,113573,6
53802,113574,4
53797,113566,5
53787,113557,4
53796,113551,5
53783,113546,5
53788,113541,5
53785,113547,5
53789,113546,4
53792,113541,5
53785,113544,5
53787,113537,5
53793,113546,5
53789,113535,4
53763,113538,5
53778,113530,5
53773,113511,5
53773,113507,5
53745,113503,4
53760,113495,5
53764,113491,5
53763,113496,5
53756,113508,3
53762,113516,9
53777,113517,5
53764,113510,5
53783,113513,4
53763,113510,5
53765,113499,5
53767,113507,5
53779,113504,5
53762,113492,4
53767,113502,5
53768,113506,5
53787,113505,5
53773,113505,5
53769,113522,4
53774,113522,5
53783,113533,5
53777,113520,5
53772,113522,5
53771,113525,5
53773,113516,4
53778,113525,5
53774,113520,5
53777,113519,6
53779,113501,3
53773,113525,5
53779,113538,5
53768,113528,5
53783,113516,4
53787,113549,4
53790,113546,5
53790,113550,5
53796,113560,5
53799,113560,4
53785,113558,5
53792,113555,5
53790,113582,5
53787,113552,5
53790,113554,4
53788,113555,5
53791,113569,5
53789,113564,5
53791,113562,5
53793,113556,4
53793,113564,6
53793,113560,4
53790,113561,5
53788,113569,5
53798,113568,6
53797,113565,3
53794,113568,5
53791,113579,5
53792,113564,5
53788,113571,4
53784,113554,5
53794,113564,5
53786,113578,5
53794,113571,5
53789,113572,4
53791,113573,5
53790,113571,5
53799,113568,5
53797,113570,4
53796,113569,4
53796,113576,5
53801,113584,5
53804,113591,5
53798,113586,4
53801,113597,5
53801,113584,6
53809,113578,4
53798,113564,5
53789,113553,4
53792,113549,5
53774,113526,5
53758,113493,5
53755,113494,5
53756,113494,4
53745,113481,5
53756,113487,5
53764,113496,5
53758,113506,5
53755,113509,4
53759,113509,5
53775,113532,5
53774,113537,5
53780,113547,5
53783,113548,4
53779,113550,5
53787,113548,5
53784,113558,5
53787,113562,4
53790,113566,4
53790,113566,5
53787,113576,6
53786,113574,4
53797,113575,4
53795,113577,5
53800,113579,5
53812,113582,5
53799,113578,5
53799,113591,4
53794,113588,5
53805,113594,5
53807,113607,5
53805,113614,5
53814,113613,4
53823,113621,5
53807,113617,5
53809,113621,5
53810,113617,5
53813,113613,4
53812,113611,5
53808,113612,5
53811,113607,5
53811,113613,5
53813,113615,4
53816,113627,5
53821,113622,5
53822,113623,6
53816,113629,3
53815,113628,4
53821,113630,5
53821,113637,5
53821,113629,5
53818,113629,4
53812,113612,5
53810,113609,5
53810,113597,5
53791,113587,5
53804,113586,4
53796,113595,5
53800,113595,5
53783,113592,5
53806,113599,5
53800,113592,4
53799,113601,5
53781,113600,5
53798,113594,5
53800,113583,5
53805,113586,5
53801,113584,4
53805,113590,5
53804,113595,5
53797,113598,6
53812,113587,3
53799,113576,5
53790,113581,5
53790,113587,5
53814,113582,4
53795,113580,4
53799,113588,5
53804,113603,5
53818,113596,5
53804,113600,4
53818,113605,5
53810,113597,5
53820,113599,5
53806,113596,5
53803,113597,4
53802,113593,5
53799,113574,5
53803,113588,5
53798,113590,5
53799,113584,4
53797,113562,6
53796,113590,4
53800,113595,5
53799,113585,5
53802,113574,4
53814,113587,5
53798,113590,5
53800,113602,5
53800,113613,5
53806,113588,4
53808,113600,5
53803,113602,5
53810,113622,5
53806,113614,4
53815,113618,4
53822,113618,5
53823,113648,5
53823,113622,5
53822,113627,4
53817,113616,5
53807,113629,5
53814,113601,5
53800,113600,5
53800,113576,4
53791,113554,5
53788,113551,6
53784,113548,4
53787,113545,5
53787,113547,4
53787,113548,5
53798,113553,5
53784,113564,5
53797,113566,5
53795,113574,4
53791,113574,5
53795,113583,5
53800,113584,5
53793,113588,5
53810,113589,4
53808,113599,5
53812,113603,5
53820,113603,5
53821,113617,5
53816,113621,4
53821,113619,5
53817,113614,5
53817,113622,5
53812,113623,4
53815,113621,4
53814,113625,5
53819,113628,6
53821,113621,4
53815,113631,4
53823,113641,5
53835,113651,5
53834,113660,5
53830,113652,5
53830,113667,4
53842,113668,5
53838,113665,5
53833,113671,5
53842,113666,5
53844,113668,4
53842,113663,5
53836,113659,5
53841,113654,5
53841,113677,5
53843,113679,4
53846,113678,5
53849,113691,5
53841,113692,5
53845,113703,5
53851,113702,4
53859,113702,5
53856,113704,5
53874,113711,6
53859,113719,3
53871,113719,4
53865,113720,5
53881,113737,5
53876,113738,5
53884,113755,4
53887,113771,5
53899,113776,5
53900,113781,5
53894,113788,5
53906,113781,4
53907,113780,5
53898,113788,5
53911,113807,5
53904,113799,5
53904,113793,4
53909,113802,5
53910,113804,5
53916,113809,5
53913,113813,5
53916,113814,5
53915,113826,4
53914,113815,5
53915,113816,5
53919,113814,5
53914,113806,4
53913,113807,5
53912,113809,5
53911,113811,5
53899,113814,4
53906,113796,4
53906,113803,5
53920,113806,5
53886,113809,5
53909,113809,4
53917,113820,5
53925,113818,5
53909,113839,5
53941,113859,5
53940,113885,4
53949,113901,5
53965,113897,5
53963,113909,5
53966,113898,5
53962,113909,4
53987,113910,6
53962,113907,4
53964,113915,5
53960,113905,5
53986,113912,4
53963,113914,5
53962,113926,5
53970,113918,5
53976,113922,5
53981,113940,4
53984,113954,5
53993,113971,5
53993,113985,5
54013,114005,5
54014,114020,4
54026,114034,5
54017,114015,5
54020,114035,5
54034,114049,4
54033,114041,4
54035,114023,5
54040,114051,5
54040,114063,5
54037,114058,4
54040,114063,5
54044,114064,6
54043,114071,4
54053,114080,5
54048,114111,4
54062,114108,5
54063,114124,5
54068,114126,5
54073,114157,5
54081,114150,4
54090,114154,5
54077,114157,5
54086,114170,5
54093,114157,5
54081,114167,4
54092,114159,5
54092,114163,5
54087,114166,5
54092,114176,5
54097,114194,4
54108,114206,5
54122,114217,5
54128,114236,5
54118,114239,4
54133,114250,4
54135,114253,5
54137,114253,5
54145,114261,5
54141,114262,4
54137,114270,5
54134,114249,5
54143,114252,5
54141,114263,5
54150,114270,4
54152,114289,5
54157,114291,5
54155,114306,5
54162,114314,5
54177,114330,4
54170,114345,5
54184,114346,5
54188,114353,5
54190,114369,5
54198,114377,4
54198,114371,5
54202,114385,5
54198,114387,5
54207,114394,5
54200,114385,4
54193,114387,5
54200,114376,5
54202,114378,5
54206,114380,4
54201,114396,4
54204,114395,5
54205,114401,5
54210,114402,5
54215,114411,4
54214,114417,5
54213,114412,5
54213,114419,5
54225,114426,5
54230,114443,4
54226,114452,5
54236,114458,5
54245,114476,5
54242,114476,5
54250,114472,4
54247,114469,5
54236,114453,5
54240,114464,5
54236,114433,5
54230,114429,5
54218,114419,4
54215,114419,5
54218,114423,5
54223,114418,5
54227,114430,4
54235,114441,5
54240,114459,5
54239,114470,5
54243,114468,5
54252,114489,4
54252,114489,5
54250,114477,5
54257,114483,5
54247,114485,4
54265,114496,4
54269,114506,5
54265,114521,5
54272,114519,5
54276,114527,4
54276,114530,5
54272,114531,5
54274,114529,4
54279,114531,5
54273,114528,4
54282,114536,6
54272,114531,3
54277,114540,5
54286,114545,5
54271,114534,4
54280,114545,5
54294,114560,5
54296,114562,5
54272,114567,5
54302,114584,4
54301,114575,5
54294,114582,7
54280,114577,3
54312,114574,5
54311,114578,4
54299,114582,5
54298,114595,5
54306,114610,5
54307,114608,4
54320,114612,4
54348,114629,5
54330,114645,6
54334,114658,4
54335,114667,4
54368,114664,5
54347,114681,5
54359,114685,5
54359,114682,5
54365,114691,4
54358,114705,5
54365,114703,5
54363,114695,5
54357,114696,5
54368,114714,4
54366,114717,5
54366,114723,5
54376,114713,5
54376,114727,5
54378,114735,4
54386,114742,5
54384,114733,5
54388,114758,5
54394,114775,5
54395,114772,4
54402,114757,5
54401,114781,5
54403,114790,6
54404,114784,3
54411,114802,4
54410,114799,5
54412,114798,5
54419,114813,5
54425,114841,4
54431,114831,5
54432,114835,5
54428,114841,5
54434,114860,5
54438,114857,4
54442,114872,5
54455,114894,5
54462,114906,5
54470,114923,5
54476,114927,4
54484,114944,5
54481,114941,5
54491,114950,5
54479,114953,5
54494,114956,5
54480,114942,4
54492,114936,5
54474,114929,5
54471,114906,6
54466,114914,3
54478,114917,5
54482,114933,5
54474,114947,5
54489,114954,4
54486,114955,4
54491,114980,5
54500,114983,5
54510,114995,5
54515,114987,4
54513,114996,5
54518,115004,5
54514,115015,5
54516,115017,5
54528,115029,4
54532,115041,5
54530,115059,5
54539,115050,5
54538,115063,5
54537,115061,4
54543,115063,6
54538,115058,4
54543,115064,5
54550,115078,5
54552,115072,6
54548,115080,3
54557,115083,5
54551,115077,5
54559,115094,5
54568,115126,4
54576,115135,5
54575,115135,5
54586,115142,5
54573,115150,5
54577,115133,4
54572,115116,5
54572,115118,5
54567,115120,5
54572,115119,4
54581,115123,5
54570,115119,5
54581,115128,5
54579,115133,5
54581,115134,4
54576,115129,5
54584,115138,6
54578,115132,4
54575,115124,5
54582,115134,4
54574,115129,5
54580,115136,5
54581,115132,5
54577,115137,5
54578,115136,4
54578,115126,5
54583,115131,5
54577,115141,5
54576,115130,5
54575,115126,4
54577,115136,5
54583,115122,5
54579,115115,5
54575,115117,5
54567,115114,4
54569,115114,5
54566,115109,5
54562,115095,5
54558,115084,4
54550,115086,4
54550,115067,5
54545,115068,6
54548,115065,4
54551,115068,4
54532,115066,5
54544,115076,5
54554,115075,5
54535,115066,5
54526,115064,4
54534,115052,5
54533,115044,5
54534,115032,5
54517,115029,5
54523,115018,4
54519,115008,5
54512,115002,5
54521,114995,5
54508,114988,5
54496,114984,4
54501,114971,5
54523,114981,5
54499,114977,5
54500,114968,5
54492,114958,4
54505,114955,5
54481,114937,5
54473,114912,6
54459,114884,3
54448,114860,4
54432,114831,5
54425,114821,5
54420,114808,5
54415,114794,4
54419,114800,5
54421,114824,5
54420,114811,5
54424,114813,5
54413,114820,4
54422,114800,5
54417,114803,5
54413,114766,5
54399,114777,5
54397,114765,5
54397,114772,4
54396,114754,5
54394,114754,5
54393,114751,5
54386,114737,5
54373,114748,4
54375,114713,5
54365,114707,5
54363,114692,5
54353,114702,4
54346,114671,5
54343,114652,5
54326,114642,5
54328,114644,4
54324,114611,4
54313,114608,5
54321,114622,5
54318,114603,5
54315,114592,4
54306,114586,5
54305,114568,5
54294,114560,5
54291,114550,5
54285,114558,4
54288,114545,5
54281,114536,5
54281,114538,5
54284,114546,5
54277,114530,4
54280,114526,6
54274,114508,4
54266,114515,5
54268,114510,5
54257,114495,4
54253,114491,5
54256,114494,5
54251,114485,5
54245,114478,5
54250,114478,4
54249,114468,5
54242,114470,5
54243,114463,5
54248,114457,4
54243,114460,4
54239,114447,5
54238,114447,5
54237,114450,5
54235,114442,4
54233,114438,5
54233,114425,5
54219,114420,5
54214,114421,5
54217,114426,4
54229,114422,5
54222,114410,6
54219,114407,4
54214,114399,5
54213,114403,4
54207,114401,5
54199,114373,5
54199,114371,5
54198,114362,5
54189,114354,4
54186,114349,5
54186,114347,5
54181,114331,5
54185,114332,5
54177,114328,4
54176,114326,5
54168,114329,5
54174,114326,5
54172,114323,4
54168,114320,4
54162,114308,5
54159,114310,5
54157,114297,5
54146,114281,4
54153,114269,5
54156,114266,5
54145,114255,6
54141,114247,4
54140,114245,4
54131,114243,5
54133,114242,5
54126,114250,5
54134,114251,5
54138,114264,4
54143,114272,5
54154,114278,5
54152,114281,5
54146,114265,5
54134,114259,4
54134,114249,5
54128,114228,5
54111,114198,5
54100,114179,5
54089,114163,5
54093,114155,4
54072,114145,5
54076,114144,5
54080,114156,5
54083,114153,4
54068,114160,5
54088,114175,5
54087,114180,5
54102,114182,4
54075,114177,4
54096,114167,5
54088,114171,5
54091,114174,5
54077,114157,4
54093,114160,5
54091,114159,5
54098,114160,5
54108,114158,5
54088,114152,4
54080,114147,5
54080,114136,5
54104,114140,5
54084,114130,5
54073,114126,4
54073,114121,5
54084,114106,5
54069,114102,5
54063,114099,5
54060,114104,5
54059,114105,4
54064,114105,5
54054,114089,5
54044,114082,5
54047,114067,4
54035,114058,5
54034,114037,5
54021,114034,5
54022,114004,4
54019,114015,4
54016,114010,5
54012,114012,5
54012,113992,5
54015,114010,4
54011,114002,5
54011,114011,4
54013,114005,5
54005,114004,5
54009,114008,4
54003,114009,5
54006,114025,5
54010,113999,5
54019,114007,5
54008,114003,4
54013,114020,6
54003,114013,4
54007,114010,5
54016,114014,5
54011,114038,4
54013,114026,5
54016,114024,5
54018,114031,5
54016,114027,5
54027,114034,4
54032,114048,5
54025,114053,5
54027,114048,5
54047,114058,5
54042,114066,4
54043,114079,5
54044,114084,5
54045,114069,5
54041,114077,4
54038,114059,5
54035,114057,5
54035,114045,5
54018,114044,5
54021,114032,4
54030,114043,5
54026,114040,6
54039,114041,4
54033,114051,5
54037,114053,4
54032,114049,5
54027,114045,5
54031,114055,5
54036,114052,5
54036,114051,4
54028,114059,5
54037,114053,5
54026,114048,5
54032,114054,5
54022,114050,4
54032,114042,5
54039,114046,5
54029,114047,5
54030,114052,5
54033,114047,4
54025,114041,5
54033,114051,5
54027,114052,5
54027,114042,4
54028,114051,4
54022,114039,5
54016,114024,5
54013,114027,5
54023,114036,4
54018,114033,5
54016,114035,5
54022,114040,5
54014,114025,5
54015,114003,4
53993,113991,5
54001,113976,5
53986,113960,5
53965,113920,5
53954,113907,4
53954,113883,5
53948,113861,5
53938,113855,5
53926,113849,5
53942,113867,4
53944,113869,4
53943,113883,5
53952,113885,5
53946,113893,5
53943,113886,3
53941,113873,5
53946,113869,5
53943,113873,5
53938,113875,4
53942,113870,4
53940,113876,5
53951,113880,5
53942,113889,5
53945,113877,4
53933,113874,5
53938,113861,5
53939,113864,5
53930,113853,5
53932,113850,4
53926,113844,5
53937,113850,5
53926,113851,5
53936,113851,5
53936,113861,4
53933,113863,6
53934,113878,4
53944,113862,9
53941,113858,7
53929,113862,3
53917,113847,5
53927,113853,5
53935,113845,5
53929,113853,4
53928,113857,5
53934,113870,5
53935,113863,5
53939,113865,5
53961,113879,4
53945,113880,5
53952,113891,5
53952,113894,5
53980,113894,4
53946,113883,4
53953,113895,5
53953,113902,5
53959,113902,5
53956,113902,4
53953,113896,5
53962,113919,6
53965,113901,4
53956,113910,5
53959,113907,4
53961,113900,7
53968,113900,3
53956,113914,5
53956,113912,5
53965,113908,4
53962,113889,5
53958,113927,5
53966,113914,5
53970,113920,5
53957,113904,4
53968,113920,5
53967,113925,5
53971,113923,5
53974,113918,5
53969,113915,4
53963,113910,5
53961,113919,5
53962,113934,5
53968,113920,4
53955,113912,4
53966,113924,5
53958,113938,6
53968,113921,4
53965,113922,4
53955,113918,5
53964,113926,5
53961,113892,5
53960,113900,5
53959,113899,4
53958,113901,5
53957,113888,5
53948,113886,5
53948,113881,5
53947,113890,4
53941,113875,5
53944,113883,5
53948,113879,5
53943,113883,5
53952,113881,4
53941,113890,5
53944,113892,5
53947,113894,5
53947,113897,5
53955,113900,4
53962,113899,5
53952,113904,5
53952,113913,6
53961,113908,3
53953,113911,4
53957,113895,5
53950,113882,5
53939,113863,5
53930,113845,4
53911,113804,5
53906,113805,5
53907,113787,5
53890,113780,5
53897,113779,4
53897,113785,5
53886,113784,5
53899,113794,5
53910,113804,5
53911,113821,4
53919,113829,5
53922,113831,5
53926,113842,5
53933,113853,5
53926,113843,5
53925,113852,4
53929,113855,5
53927,113865,5
53936,113875,6
53942,113877,3
53948,113881,5
53941,113888,5
53940,113879,5
53938,113880,5
53945,113889,4
53944,113889,5
53943,113896,5
53939,113880,5
53954,113888,4
53955,113894,5
53952,113892,5
53959,113908,5
53953,113913,5
53965,113907,4
53960,113910,5
53960,113916,5
53960,113909,5
53956,113917,5
53961,113912,4
53958,113914,6
53955,113912,4
53959,113925,5
53972,113926,5
53968,113924,4
53963,113932,5
53969,113920,5
53964,113922,5
53970,113929,5
53971,113919,4
53971,113929,5
53971,113928,5
53968,113937,5
53968,113942,5
53982,113948,4
53972,113951,5
53976,113957,5
53970,113955,5
53978,113952,4
53987,113951,4
53975,113952,5
53983,113970,5
53968,113949,5
53974,113955,4
53969,113961,5
53976,113942,6
53958,113966,4
53976,113955,5
53974,113953,4
53975,113952,5
53959,113946,5
53967,113945,5
53977,113945,5
53985,113947,4
53981,113948,5
53969,113937,5
53975,113930,5
53973,113938,5
53983,113939,4
53967,113924,5
53963,113922,5
53956,113923,5
53984,113929,5
53956,113926,4
53960,113923,5
53958,113925,5
53958,113919,5
53952,113909,4
53953,113905,4
53951,113890,5
53939,113881,6
53937,113883,4
53933,113879,4
53922,113870,5
53926,113840,5
53915,113833,5
53908,113817,5
53911,113814,4
53902,113786,5
53896,113802,5
53896,113802,5
53892,113794,5
53889,113786,4
53891,113773,5
53888,113781,5
53893,113785,5
53895,113811,5
53896,113800,4
53893,113801,5
53899,113799,5
53896,113820,5
53894,113786,5
53888,113773,4
53881,113747,5
53860,113730,5
53843,113680,6
53830,113660,4
53815,113653,4
53817,113638,5
53819,113633,5
53827,113634,5
53825,113644,4
53825,113657,4
53840,113675,5
53834,113684,5
53838,113685,5
53845,113694,4
53849,113701,5
53846,113700,5
53847,113698,5
53846,113690,5
53847,113711,4
53851,113712,5
53857,113725,5
53856,113724,5
53866,113719,5
53862,113717,5
53861,113717,4
53857,113715,5
53858,113707,5
53854,113714,5
53855,113711,4
53853,113708,5
53853,113705,5
53858,113717,5
53858,113716,5
53867,113723,4
53877,113730,5
53863,113729,5
53867,113722,5
53858,113726,4
53863,113733,4
53863,113725,5
53857,113713,5
53853,113719,5
53858,113712,4
53852,113706,5
53863,113724,5
53866,113733,5
53862,113744,5
53869,113743,4
53874,113754,6
53877,113761,4
53874,113776,5
53888,113765,5
53882,113767,4
53887,113767,5
53879,113769,5
53883,113771,5
53891,113785,5
53890,113781,4
53894,113789,5
53893,113785,5
53896,113787,5
53900,113796,5
53900,113803,4
53906,113799,5
53900,113808,5
53902,113801,5
53907,113813,5
53906,113815,4
53912,113816,5
53921,113823,5
53919,113836,5
53919,113841,4
53921,113827,4
53919,113835,6
53918,113838,4
53926,113844,5
53919,113840,4
53921,113840,5
53921,113854,5
53926,113839,5
53923,113844,5
53920,113839,4
53918,113840,5
53925,113842,5
53927,113846,5
53922,113841,5
53921,113848,4
53922,113853,5
53927,113846,5
53918,113844,5
53914,113843,5
53919,113831,4
53917,113842,5
53921,113833,5
53912,113854,5
53923,113844,5
53922,113853,4
53927,113849,5
53912,113862,6
53928,113871,4
53931,113868,4
53942,113873,4
53944,113892,5
53949,113908,5
53960,113920,5
53977,113943,4
53997,113967,5
53990,113978,5
53987,113970,5
53989,113956,5
53998,113967,4
53977,113956,5
53975,113930,5
53961,113908,5
53956,113903,5
53951,113889,5
53939,113889,4
53946,113887,5
53952,113892,5
53959,113906,6
53961,113924,3
53971,113941,5
53978,113942,5
53983,113967,5
53986,113964,5
53984,113968,4
53992,113959,5
53989,113987,5
53996,113991,5
54004,114010,4
54000,113992,4
54006,114006,5
54009,114013,5
54011,114000,5
54011,114020,4
54000,114000,5
54006,113998,5
53999,114000,5
54013,114035,5
54006,114005,4
54007,114013,5
54008,114013,5
54014,114026,5
54018,114018,5
54018,114029,5
54014,114039,4
54016,114037,5
54027,114036,5
54023,114034,5
54020,114037,4
54019,114019,5
54002,114004,5
53997,113994,5
53995,113975,5
53994,113970,4
53996,113976,5
53987,113984,5
53988,113978,5
53988,113983,5
53997,113979,4
53992,113975,5
53984,113975,5
53991,113980,5
53981,113970,4
53991,113973,4
53988,113976,5
53990,113964,5
53976,113957,5
53967,113941,4
53969,113929,6
53962,113906,4
53951,113887,5
53939,113861,5
53933,113870,4
53933,113845,5
53921,113847,5
53925,113849,5
53932,113847,5
53932,113855,4
53929,113848,5
53927,113857,5
53932,113860,5
53934,113873,5
53932,113869,4
53939,113878,5
53946,113902,5
53952,113909,5
53948,113915,5
53956,113919,4
53970,113928,5
53966,113958,5
53990,113965,4
53987,113990,4
54000,113991,4
54000,114019,6
54012,114035,3
54029,114049,5
54037,114074,4
54042,114082,5
54052,114103,5
54060,114120,5
54078,114146,5
54085,114157,4
54090,114175,5
54095,114176,5
54091,114175,5
54100,114182,5
54100,114188,4
54097,114191,5
54093,114187,5
54085,114180,5
54095,114185,5
54090,114184,4
54098,114192,5
54100,114201,5
54100,114206,6
54110,114229,4
54119,114241,4
54126,114256,5
54133,114267,5
54139,114267,5
54130,114259,5
54135,114256,4
54127,114246,5
54134,114263,5
54133,114261,5
54131,114259,6
54133,114268,3
54135,114269,5
54138,114271,5
54144,114284,5
54133,114291,4
54146,114285,5
54146,114292,5
54161,114296,5
54140,114296,5
54158,114310,5
54161,114312,4
54167,114316,5
54143,114327,5
54173,114330,6
54177,114347,3
54186,114358,5
54192,114370,5
54193,114367,5
54195,114359,5
54185,114356,4
54205,114357,5
54186,114361,5
54185,114361,5
54182,114369,5
54211,114384,4
54195,114378,5
54201,114386,5
54199,114393,5
54215,114398,4
54212,114404,4
54218,114414,5
54212,114425,5
54219,114417,5
54222,114441,4
54226,114435,6
54230,114442,4
54235,114448,5
54239,114465,5
54242,114473,6
54252,114492,3
54255,114490,5
54258,114506,5
54268,114512,5
54267,114530,4
54265,114516,5
54275,114524,5
54266,114525,5
54276,114537,5
54277,114547,4
54278,114541,5
54279,114548,5
54283,114549,5
54285,114573,5
54291,114561,4
54292,114566,5
54285,114551,5
54281,114578,5
54283,114575,4
54294,114570,4
54299,114578,6
54288,114580,4
54292,114573,5
54298,114570,4
54290,114591,5
54306,114591,5
54315,114612,5
54319,114621,5
54330,114640,4
54338,114650,5
54344,114664,5
54335,114665,5
54329,114662,5
54342,114656,4
54338,114653,5
54336,114647,5
54328,114629,5
54321,114622,5
54318,114614,4
54315,114615,5
54312,114629,5
54314,114617,5
54323,114640,5
54324,114653,4
54349,114671,5
54348,114687,6
54359,114712,4
54364,114721,5
54377,114727,4
54376,114741,5
54379,114730,5
54376,114741,5
54387,114747,4
54371,114739,4
54373,114743,5
54378,114740,5
54378,114741,5
54379,114754,4
54387,114754,5
54381,114754,5
54390,114766,5
54395,114782,5
54408,114792,4
54403,114821,5
54422,114828,5
54429,114844,5
54439,114864,5
54453,114876,4
54460,114904,5
54470,114916,5
54474,114923,6
54472,114929,4
54473,114925,4
54474,114930,5
54468,114899,5
54461,114897,5
54447,114882,5
54460,114886,4
54453,114869,5
54453,114880,5
54446,114882,5
54447,114899,4
54460,114902,4
54460,114911,5
54465,114920,5
54486,114938,5
54495,114953,4
54498,114966,5
54498,114983,5
54517,115018,5
54524,115032,5
54528,115034,5
54541,115066,4
54547,115072,5
54548,115057,5
54542,115066,6
54537,115056,3
54537,115037,5
54525,115038,5
54535,115033,5
54528,115020,5
54524,115032,4
54533,115038,5
54540,115038,5
54541,115045,5
54544,115069,5
54543,115078,4
54554,115090,5
54564,115104,5
54571,115115,5
54559,115126,4
54569,115140,4
54592,115156,5
54596,115166,5
54568,115158,5
54594,115169,4
54589,115161,6
54596,115159,4
54599,115145,5
54578,115129,5
54575,115118,4
54566,115097,5
54584,115090,5
54559,115085,5
54547,115077,5
54553,115071,4
54581,115084,5
54550,115084,5
54560,115102,5
54564,115092,5
54574,115121,4
54574,115112,5
54576,115115,5
54574,115111,5
54574,115107,5
54567,115112,4
54571,115130,5
54576,115133,5
54585,115121,5
54595,115153,5
54600,115171,4
54605,115187,6
54605,115157,4
54614,115190,5
54606,115177,4
54597,115173,4
54593,115154,5
54591,115166,5
54586,115152,5
54583,115140,4
54581,115162,5
54583,115148,5
54585,115143,5
54590,115150,5
54588,115164,4
54594,115150,5
54594,115156,5
54591,115151,5
54598,115183,5
54592,115168,4
54587,115160,5
54580,115153,5
54581,115139,5
54574,115131,5
54579,115119,4
54576,115110,5
54562,115087,6
54550,115086,4
54547,115070,5
54542,115050,4
54543,115050,5
54532,115055,5
54531,115047,5
54527,115030,4
54528,115029,4
54520,115023,5
54525,115002,5
54506,114997,5
54503,114983,4
54502,114972,5
54496,114965,5
54490,114944,5
54484,114945,5
54482,114928,4
54472,114910,5
54476,114895,5
54456,114899,5
54456,114893,5
54452,114881,4
54448,114870,5
54446,114861,5
54438,114851,6
54436,114848,4
54427,114842,4
54433,114848,5
54422,114833,5
54430,114835,5
54421,114820,5
54419,114825,4
54419,114814,5
54407,114807,5
54411,114808,5
54419,114795,4
54419,114789,4
54410,114799,5
54415,114802,5
54410,114786,5
54401,114762,4
54390,114747,5
54383,114723,5
54365,114688,5
54347,114653,5
54325,114635,5
54314,114595,4
54297,114555,5
54268,114505,5
54252,114464,5
54229,114427,4
54211,114392,5
54204,114372,5
54187,114353,5
54180,114332,5
54177,114326,4
54174,114323,5
54185,114328,5
54182,114341,5
54179,114342,5
54188,114338,4
54184,114355,5
54200,114367,5
54191,114351,5
54186,114356,5
54182,114338,4
54184,114346,5
54187,114354,5
54175,114330,5
54172,114312,4
54162,114313,5
54165,114289,4
54156,114293,5
54158,114293,5
54154,114292,4
54164,114301,5
54172,114319,5
54181,114337,5
54191,114346,5
54198,114380,4
54205,114401,5
54213,114402,5
54219,114410,5
54225,114417,5
54201,114411,4
54215,114407,5
54221,114400,5
54210,114392,5
54193,114375,5
54200,114366,4
54180,114344,5
54186,114339,5
54183,114322,5
54162,114292,5
54152,114272,4
54144,114256,6
54167,114260,4
54137,114240,5
54125,114220,4
54116,114196,4
54126,114182,5
54107,114163,5
54081,114141,5
54079,114120,4
54069,114091,5
54057,114080,5
54056,114066,5
54056,114068,5
54051,114058,4
54053,114059,5
54054,114080,5
54052,114069,5
54044,114054,5
54051,114063,4
54035,114051,5
54042,114045,5
54036,114024,5
54048,114055,5
54034,114056,4
54049,114072,5
54047,114071,5
54052,114089,5
54057,114095,5
54066,114100,4
54058,114102,5
54060,114099,5
54064,114091,5
54065,114092,4
54054,114105,4
54059,114087,5
54063,114078,5
54062,114097,5
54064,114114,4
54066,114104,5
54077,114122,5
54077,114138,5
54092,114153,5
54105,114172,4
54106,114185,5
54120,114203,5
54118,114217,5
54132,114245,6
54136,114253,3
54151,114270,5
54149,114268,5
54157,114294,5
54167,114302,5
54178,114327,4
54178,114328,5
54181,114338,5
54189,114344,5
54195,114357,5
54204,114385,4
54211,114407,5
54227,114419,5
54234,114446,5
54238,114466,5
54250,114470,4
54247,114467,5
54259,114475,5
54254,114479,5
54255,114480,4
54251,114476,6
54254,114491,4
54271,114509,5
54281,114522,5
54281,114524,6
54280,114515,3
54272,114513,5
54264,114495,5
54261,114489,5
54250,114463,4
54246,114461,5
54241,114462,5
54245,114463,5
54249,114462,5
54254,114468,4
54250,114468,5
54252,114479,5
54265,114496,5
54273,114516,5
54280,114548,4
54299,114563,5
54311,114589,5
54316,114615,5
54320,114609,5
54316,114596,4
54312,114594,6
54292,114571,4
54300,114550,5
54288,114540,4
54286,114529,6
54262,114516,3
54256,114489,5
54257,114477,5
54251,114474,4
54238,114460,5
54241,114438,5
54232,114435,5
54231,114424,5
54230,114425,4
54226,114422,5
54225,114406,5
54216,114408,5
54217,114407,5
54212,114390,4
54205,114391,5
54213,114379,5
54201,114380,5
54199,114370,5
54208,114385,8
54217,114397,1
54223,114400,6
54228,114425,4
54226,114446,5
54229,114447,4
54237,114443,5
54237,114445,5
54242,114435,5
54232,114432,4
54230,114426,4
54208,114415,5
54213,114405,5
54219,114395,5
54209,114386,4
54187,114380,5
54195,114363,5
54184,114339,5
54181,114332,5
54156,114314,4
54167,114307,5
54161,114299,5
54164,114292,5
54177,114295,5
54173,114308,4
54169,114313,5
54176,114325,5
54200,114339,6
54183,114357,4
54196,114363,4
54197,114363,5
54216,114366,5
54198,114369,5
54196,114380,5
54195,114360,4
54197,114348,5
54184,114340,5
54176,114321,5
54176,114319,5
54180,114303,4
54163,114314,5
54160,114303,5
54160,114301,5
54157,114271,4
54160,114282,4
54144,114265,5
54138,114228,5
54122,114183,5
54103,114172,5
54098,114168,4
54079,114150,5
54095,114141,5
54087,114162,6
54101,114165,3
54103,114192,5
54109,114215,5
54122,114215,5
54131,114246,5
54139,114264,4
54152,114315,5
54163,114316,5
54186,114347,5
54199,114384,5
54217,114428,4
54232,114457,5
54254,114489,5
54264,114505,5
54267,114511,5
54262,114497,4
54258,114480,5
54246,114453,5
54222,114410,5
54197,114364,4
54187,114354,5
54178,114320,4
54167,114305,5
54157,114281,5
54142,114271,6
54148,114254,3
54135,114244,5
54141,114241,5
54143,114244,5
54144,114257,4
54144,114258,5
54157,114267,5
54145,114276,5
54157,114296,5
54164,114315,4
54180,114332,5
54188,114358,5
54189,114359,5
54197,114378,5
54208,114376,4
54197,114367,5
54201,114373,5
54198,114364,5
54187,114350,5
54186,114353,4
54179,114330,6
54177,114329,4
54176,114331,5
54171,114317,4
54164,114310,4
54168,114318,5
54163,114296,5
54162,114293,5
54158,114293,4
54158,114281,5
54150,114280,5
54145,114270,5
54153,114265,5
54144,114267,4
54154,114284,5
54166,114293,5
54166,114302,5
54169,114316,5
54167,114328,4
54178,114336,5
54188,114337,5
54185,114353,5
54186,114354,5
54193,114369,4
54196,114372,5
54199,114376,6
54201,114370,4
54200,114375,5
54201,114373,4
54194,114368,5
54189,114368,5
54197,114364,5
54191,114358,4
54191,114362,4
54191,114346,5
54190,114356,5
54187,114359,5
54196,114359,4
54198,114371,5
54199,114373,5
54198,114375,5
54202,114368,5
54196,114366,4
54188,114369,5
54194,114366,5
54202,114369,5
54200,114373,5
54202,114366,4
54196,114368,5
54194,114371,5
54196,114374,6
54204,114372,4
54197,114364,4
54193,114372,5
54179,114361,5
54188,114357,5
54189,114353,5
54182,114357,4
54171,114342,5
54175,114329,5
54168,114306,5
54158,114286,5
54127,114274,4
54152,114252,5
54139,114245,5
54129,114233,5
54135,114223,4
54120,114214,5
54118,114220,5
54120,114215,5
54133,114216,5
54123,114232,5
54123,114235,4
54134,114250,5
54161,114253,5
54143,114268,5
54151,114270,4
54149,114282,5
54167,114282,5
54158,114301,5
54156,114301,5
54166,114314,4
54164,114316,5
54169,114322,5
54159,114315,5
54172,114328,5
54169,114305,4
54172,114324,5
54178,114328,5
54177,114327,5
54177,114310,5
54164,114326,5
54163,114318,4
54159,114302,5
54158,114289,5
54146,114276,4
54139,114244,5
54127,114244,4
54125,114265,5
54120,114234,5
54129,114242,4
54131,114244,5
54127,114277,5
54134,114261,5
54145,114270,5
54145,114270,4
54145,114301,5
54161,114295,5
54158,114306,5
54163,114303,5
54167,114314,4
54155,114308,5
54167,114304,5
54152,114305,5
54164,114311,5
54160,114300,4
54161,114301,5
54162,114297,5
54148,114283,5
54146,114273,5
54141,114268,4
54132,114246,6
54131,114239,4
54126,114237,5
54120,114227,4
54121,114221,4
54121,114228,5
54117,114237,5
54131,114247,5
54133,114246,4
54135,114235,5
54133,114254,5
54128,114249,5
54126,114262,5
54133,114248,4
54133,114251,5
54138,114247,5
54133,114253,5
54144,114249,5
54141,114268,4
54134,114262,5
54139,114275,5
54136,114270,5
54145,114276,5
54143,114283,4
54152,114278,5
54151,114287,6
54152,114304,4
54155,114287,5
54156,114284,4
54151,114279,5
54139,114279,5
54136,114259,5
54129,114256,5
54126,114245,4
54130,114230,5
54123,114228,5
54120,114220,5
54120,114222,4
54112,114221,5
54126,114226,5
54126,114236,5
54117,114226,5
54119,114238,4
54122,114241,5
54128,114239,5
54121,114238,5
54121,114230,5
54124,114239,4
54128,114240,5
54125,114245,5
54120,114234,5
54116,114225,5
54110,114211,4
54103,114195,5
54098,114189,5
54102,114174,5
54079,114153,5
54081,114142,4
54064,114113,5
54062,114101,5
54043,114081,5
54041,114065,5
54026,114061,4
54026,114063,5
54034,114056,5
54035,114071,5
54038,114075,4
54054,114088,4
54058,114105,5
54073,114121,5
54068,114133,5
54079,114153,5
54091,114165,4
54093,114181,5
54091,114194,5
54111,114217,5
54110,114227,4
54130,114231,5
54105,114237,5
54128,114256,5
54128,114255,5
54133,114250,4
54131,114244,5
54134,114259,5
54140,114274,5
54154,114279,5
54162,114295,4
54154,114290,5
54149,114293,5
54148,114281,5
54159,114276,5
54137,114263,4
54134,114255,5
54121,114230,5
54137,114221,5
54121,114206,4
54114,114215,5
54105,114224,4
54111,114206,5
54123,114230,5
54118,114239,4
54126,114245,5
54138,114254,5
54141,114271,5
54146,114296,5
54153,114305,4
54154,114291,5
54167,114320,5
54166,114318,5
54168,114315,5
54164,114284,4
54170,114320,5
54163,114313,5
54162,114312,5
54166,114303,5
54148,114295,4
54157,114302,5
54157,114285,5
54143,114298,5
54139,114281,5
54148,114288,4
54149,114288,6
54148,114311,4
54149,114307,5
54162,114302,4
54162,114303,4
54151,114316,5
54174,114317,5
54163,114316,5
54163,114312,4
54153,114295,5
54164,114302,5
54145,114295,5
54156,114297,5
54150,114295,4
54164,114311,5
54159,114307,5
54162,114322,5
54166,114318,5
54162,114322,4
54168,114331,5
54169,114330,5
54155,114332,6
54161,114325,4
54163,114326,4
54165,114318,5
54162,114329,5
54164,114319,5
54170,114333,5
54177,114357,4
54189,114372,5
54196,114383,5
54200,114412,5
54215,114429,4
54224,114445,4
54233,114446,5
54232,114464,5
54236,114451,5
54247,114463,4
54234,114466,5
54232,114463,5
54237,114459,5
54228,114454,5
54233,114455,5
54232,114443,4
54226,114443,5
54224,114429,5
54215,114417,6
54217,114406,3
54213,114412,5
54208,114408,5
54212,114417,5
54215,114431,5
54220,114431,4
54228,114449,5
54234,114444,5
54230,114458,5
54246,114466,5
54244,114471,4
54245,114479,5
54253,114496,5
54250,114497,5
54248,114509,4
54257,114514,4
54259,114513,5
54262,114512,5
54272,114520,5
54279,114536,4
54274,114545,6
54277,114565,4
54279,114563,5
54279,114564,5
54279,114556,6
54278,114535,3
54272,114540,5
54261,114522,5
54257,114507,5
54242,114479,4
54245,114472,5
54244,114466,6
54241,114475,4
54244,114476,5
54250,114496,4
54249,114511,5
54263,114514,5
54266,114532,5
54275,114533,5
54283,114541,4
54278,114544,5
54280,114546,5
54282,114551,5
54271,114544,5
54295,114551,4
54293,114554,6
54292,114572,4
54286,114578,5
54304,114598,4
54308,114609,4
54319,114615,5
54303,114629,5
54318,114656,5
54331,114659,4
54329,114672,5
54342,114672,5
54346,114677,5
54341,114692,5
54354,114679,4
54367,114690,5
54352,114670,5
54342,114649,5
54329,114648,5
54340,114639,4
54314,114603,5
54299,114576,5
54294,114565,5
54290,114539,5
54270,114535,4
54267,114526,5
54270,114524,6
54279,114523,4
54276,114533,5
54270,114533,4
54278,114536,5
54284,114542,5
54282,114552,5
54282,114562,4
54292,114576,4
54300,114567,5
54311,114604,5
54312,114600,5
54313,114600,4
54319,114591,5
54316,114609,5
54314,114607,5
54313,114608,5
54317,114597,4
54310,114599,5
54307,114602,5
54313,114609,5
54312,114618,5
54313,114599,4
54308,114600,5
54313,114606,5
54309,114637,6
54311,114610,4
54316,114627,4
54310,114635,5
54317,114640,5
54334,114654,5
54340,114667,5
54348,114680,4
54360,114714,5
54368,114732,5
54383,114752,5
54391,114773,4
54398,114778,4
54401,114781,5
54399,114787,5
54401,114794,5
54395,114797,4
54400,114793,5
54399,114800,5
54401,114821,5
54411,114838,5
54431,114851,5
54441,114862,4
54439,114872,5
54441,114868,5
54445,114876,6
54444,114865,3
54432,114866,5
54437,114854,5
54430,114850,5
54427,114847,5
54421,114846,4
54428,114855,5
54435,114874,5
54449,114881,5
54467,114900,5
54470,114923,4
54470,114946,5
54481,114951,5
54492,114973,5
54487,114970,5
54495,114987,4
54492,114989,5
54499,114994,5
54515,114999,5
54514,115022,4
54519,115028,5
54524,115022,4
54518,115028,5
54528,115037,5
54530,115041,4
54527,115043,5
54531,115053,5
54537,115053,5
54535,115063,5
54549,115073,4
54550,115080,5
54546,115086,5
54553,115108,5
54569,115121,5
54584,115146,4
54584,115161,5
54596,115184,5
54615,115220,5
54616,115228,5
54633,115247,4
54630,115246,5
54635,115270,5
54640,115266,5
54635,115276,5
54650,115290,4
54653,115291,6
54647,115285,4
54653,115298,5
54651,115282,4
54655,115301,4
54652,115311,5
54663,115306,5
54674,115320,5
54671,115333,4
54674,115348,5
54687,115365,5
54695,115372,5
54700,115378,5
54701,115391,4
54710,115403,5
54706,115408,5
54704,115403,5
54708,115411,5
54709,115410,4
54716,115427,5
54711,115423,5
54713,115422,5
54720,115453,5
54731,115449,4
54733,115452,5
54743,115471,6
54730,115473,4
54736,115478,5
54753,115486,4
54756,115489,5
54759,115494,5
54760,115502,5
54767,115508,4
54771,115516,4
54783,115524,5
54774,115530,5
54783,115536,5
54779,115555,4
54812,115551,5
54788,115573,5
54794,115580,5
54816,115613,5
54836,115627,4
54827,115639,5
54832,115634,5
54824,115640,5
54829,115628,5
54828,115635,4
54823,115608,5
54808,115592,5
54786,115560,6
54797,115565,4
54797,115570,4
54796,115580,5
54802,115565,5
54804,115602,5
54811,115602,5
54816,115617,4
54827,115612,5
54824,115647,5
54835,115655,5
54834,115662,5
54846,115667,4
54842,115673,5
54844,115683,5
54855,115685,5
54864,115743,4
54876,115733,4
54874,115743,5
54882,115752,5
54879,115778,5
54888,115749,5
54884,115751,3
54895,115750,5
54893,115766,5
54885,115756,5
54881,115763,4
54889,115752,5
54894,115770,5
54888,115769,5
54895,115772,5
54902,115782,4
54905,115787,5
54903,115796,5
54903,115790,5
54902,115779,5
54894,115778,4
54894,115761,5
54884,115755,5
54888,115762,5
54889,115757,5
54888,115761,4
54897,115766,5
54887,115770,5
54891,115759,5
54890,115764,4
54890,115760,5
54888,115772,4
54890,115775,5
54892,115774,5
54894,115772,4
54900,115784,5
54898,115783,5
54907,115792,5
54907,115800,5
54910,115820,4
54916,115818,5
54913,115823,5
54923,115827,5
54918,115832,5
54915,115829,4
54916,115813,5
54913,115802,5
54910,115801,5
54904,115793,5
54895,115790,4
54897,115772,5
54890,115771,5
54887,115764,5
54882,115766,5
54880,115747,4
54892,115739,6
54877,115754,4
54884,115744,5
54873,115737,4
54880,115735,4
54876,115736,5
54867,115735,5
54874,115727,5
54871,115725,4
54869,115718,5
54866,115703,5
54862,115697,5
54853,115689,5
54844,115668,4
54839,115663,5
54832,115658,5
54834,115649,5
54833,115642,5
54829,115656,4
54834,115650,5
54838,115662,5
54836,115663,5
54829,115662,5
54839,115664,4
54844,115652,5
54833,115634,5
54818,115624,5
54814,115606,5
54789,115564,4
54777,115537,5
54770,115507,5
54744,115482,5
54738,115447,4
54731,115443,4
54728,115438,5
54724,115427,5
54717,115430,5
54730,115440,4
54726,115452,5
54740,115459,5
54734,115461,5
54735,115457,5
54722,115458,4
54737,115467,5
54731,115457,5
54731,115449,5
54717,115452,5
54727,115462,4
54738,115449,5
54737,115447,5
54730,115445,5
54719,115430,5
54717,115418,4
54717,115410,5
54735,115417,5
54716,115407,5
54719,115399,5
54707,115407,4
54745,115414,5
54715,115413,5
54716,115404,5
54720,115421,4
54731,115414,5
54702,115398,5
54703,115373,5
54685,115348,5
54674,115322,4
54672,115312,6
54663,115311,4
54654,115301,5
54659,115291,5
54653,115303,6
54652,115295,3
54646,115283,5
54642,115251,5
54637,115251,5
54629,115239,4
54631,115229,5
54618,115205,5
54623,115224,5
54609,115209,5
54610,115193,4
54606,115201,5
54602,115170,5
54597,115173,5
54587,115160,4
54587,115183,4
54588,115148,5
54583,115148,5
54577,115139,5
54579,115146,4
54575,115119,5
54571,115121,6
54563,115103,4
54560,115106,5
54561,115082,4
54556,115085,7
54547,115079,3
54541,115082,5
54556,115091,5
54555,115105,4
54551,115098,5
54562,115100,5
54550,115084,5
54545,115074,5
54550,115069,4
54532,115050,5
54533,115026,5
54515,115014,5
54507,114989,5
54499,114987,4
54500,114974,5
54494,114969,5
54499,114968,5
54498,114966,4
54485,114959,4
54477,114939,5
54474,114938,6
54471,114928,4
54472,114933,4
54477,114934,5
54478,114948,5
54482,114956,5
54478,114962,5
54490,114967,4
54499,114978,5
54499,114986,5
54501,114999,5
54503,114988,5
54505,114988,4
54492,114991,5
54493,114960,5
54490,114938,5
54485,114943,5
54471,114934,4
54475,114930,5
54477,114934,5
54479,114929,5
54470,114934,5
54476,114938,4
54483,114941,5
54486,114949,5
54482,114948,6
54485,114931,4
54474,114920,4
54463,114903,5
54458,114889,5
54448,114877,5
54445,114870,4
54439,114869,5
54437,114854,5
54440,114864,5
54452,114870,5
54439,114876,4
54446,114872,5
54436,114874,5
54443,114868,5
54448,114873,5
54440,114871,4
54436,114868,5
54442,114860,5
54434,114857,8
54432,114861,2
54431,114862,5
54439,114870,4
54430,114866,5
54434,114853,5
54436,114849,6
54420,114830,3
54414,114807,5
54410,114796,5
54396,114788,5
54391,114775,5
54389,114762,4
54368,114739,5
54361,114713,5
54347,114691,5
54337,114647,4
54317,114612,5
54278,114588,5
54280,114544,5
54272,114539,5
54275,114543,4
54251,114542,5
54277,114542,5
54279,114545,5
54276,114545,5
54262,114534,4
54269,114537,6
54276,114538,4
54272,114540,5
54281,114523,5
54269,114529,6
54259,114510,3
54257,114509,5
54279,114510,5
54250,114498,5
54242,114472,4
54217,114436,5
54227,114409,5
54209,114392,5
54192,114370,4
54177,114363,4
54171,114327,5
54153,114297,5
54130,114254,5
54112,114225,4
54112,114204,5
54105,114194,5
54098,114171,5
54074,114134,5
54053,114058,4
54017,114028,5
53990,113986,6
53981,113954,4
53969,113898,5
53945,113894,5
53943,113864,4
53924,113838,5
53926,113840,5
53916,113836,5
53917,113854,4
53929,113842,5
53915,113856,5
53919,113822,5
53902,113807,5
53892,113791,4
53890,113782,5
53868,113720,5
53848,113683,5
53823,113643,5
53807,113601,4
53767,113547,5
53757,113525,5
53759,113518,5
53758,113522,4
53745,113505,5
53754,113510,5
53754,113513,6
53754,113511,4
53760,113522,4
53769,113527,5
53760,113524,5
53766,113539,5
53763,113542,5
53773,113540,4
53769,113544,5
53774,113555,5
53783,113559,5
53781,113559,5
53783,113578,4
53795,113599,5
53810,113625,5
53805,113616,5
53808,113615,5
53800,113606,4
53797,113598,5
53795,113586,5
53788,113577,5
53786,113571,5
53799,113568,4
53789,113580,5
53780,113578,5
53792,113592,6
53796,113602,3
53800,113618,4
53817,113638,5
53813,113655,5
53835,113680,5
53843,113687,4
53846,113707,5
53854,113739,5
53872,113759,5
53882,113763,5
53885,113756,4
53870,113745,5
53879,113761,5
53881,113754,5
53872,113752,5
53876,113735,4
53865,113719,5
53860,113706,5
53849,113707,5
53855,113714,5
53852,113708,5
53850,113698,4
53832,113679,5
53839,113677,5
53826,113654,4
53813,113644,4
53807,113645,5
53820,113634,5
53816,113649,5
53815,113636,4
53821,113637,5
53803,113607,5
53795,113568,5
53778,113553,5
53761,113525,4
53752,113508,5
53740,113498,5
53741,113489,5
53735,113465,5
53711,113415,4
53670,113351,5
53644,113288,5
53611,113217,5
53572,113143,5
53545,113096,4
53532,113063,6
53520,113040,4
53502,113009,5
53487,112998,5
53492,112997,4
53491,112997,5
53492,112988,5
53476,112993,5
53492,112984,4
53484,112994,4
53491,112996,5
53460,112980,5
53481,112971,5
53473,112969,4
53477,112959,5
53455,112973,5
53475,112963,5
53474,112951,5
53456,112922,4
53441,112882,5
53405,112815,5
53380,112750,5
53328,112656,5
53310,112580,4
53266,112543,5
53259,112531,6
53247,112506,4
53276,112514,5
53250,112528,4
53255,112527,5
53246,112537,5
53267,112559,5
53275,112576,5
53282,112597,4
53298,112621,5
53294,112617,5
53303,112625,5
53297,112627,4
53300,112617,4
53301,112600,5
53286,112607,5
53290,112594,5
53285,112600,4
53283,112567,5
53274,112571,5
53269,112563,5
53251,112536,5
53241,112500,4
53220,112464,5
53212,112441,5
53189,112410,6
53185,112397,4
53169,112368,4
53173,112371,5
53177,112363,5
53169,112392,5
53177,112375,5
53181,112391,4
53180,112390,5
53176,112420,5
53194,112410,5
53193,112424,5
53197,112418,4
53193,112429,5
53194,112427,5
53197,112425,5
53195,112418,4
53196,112416,4
53189,112415,5
53194,112414,5
53201,112433,5
53205,112443,5
53213,112451,4
53212,112464,5
53229,112490,5
53236,112499,5
53244,112526,4
53266,112562,5
53281,112610,5
53299,112647,5
53324,112694,5
53349,112746,4
53373,112782,5
53391,112840,5
53421,112896,5
53452,112948,5
53478,112987,4
53496,113024,5
53513,113060,5
53518,113079,5
53533,113100,5
53542,113110,4
53547,113111,5
53545,113115,5
53541,113103,5
53537,113113,4
53538,113105,5
53527,113096,4
53533,113095,5
53531,113080,5
53522,113047,4
53497,113022,5
53472,112983,5
53462,112934,5
53430,112889,5
53410,112851,4
53382,112804,5
53361,112757,5
53346,112731,5
53322,112678,5
53285,112593,4
53237,112494,5
53168,112352,5
53103,112215,5
53022,112072,5
52956,111922,4
52864,111745,5
52786,111583,5
52707,111447,5
52648,111332,5
52591,111208,4
52545,111119,6
52493,111019,4
52453,110934,5
52412,110856,4
52365,110775,4
52337,110701,5
52312,110631,5
52273,110587,5
52249,110529,4
52229,110474,5
52196,110433,5
52180,110383,5
52151,110344,5
52146,110321,4
52122,110275,5
52107,110254,5
52091,110210,5
52086,110181,5
52068,110159,4
52051,110123,5
52028,110069,5
52011,110040,5
51995,109990,5
51963,109958,4
51958,109918,5
51948,109898,5
51917,109844,5
51871,109774,5
51862,109699,4
51833,109628,5
51786,109567,5
51741,109509,5
51722,109432,4
51685,109355,4
51643,109280,5
51608,109214,5
51577,109150,5
51560,109088,4
51514,109001,5
51467,108909,5
51408,108786,5
51347,108664,5
51281,108541,4
51235,108404,5
51142,108247,5
51058,108051,5
50944,107788,5
50823,107523,3
50670,107247,5
50589,107118,5
50541,106974,5
50465,106840,5
50405,106706,4
50328,106560,5
50242,106363,5
50143,106152,5
50061,105997,5
49991,105865,4
49919,105718,5
49831,105506,5
49725,105304,5
49621,105092,5
49538,104937,4
49468,104774,5
49416,104671,5
49362,104559,5
49299,104442,4
49243,104319,5
49182,104181,4
49116,104053,5
49064,103933,5
48991,103792,6
48909,103593,3
48802,103376,5
48691,103123,5
48551,102831,5
48385,102465,4
48199,102110,5
48024,101743,5
47862,101420,5
47719,101112,5
47546,100742,4
47367,100386,5
47196,100026,5
47045,99734,5
46924,99465,5
46780,99172,4
46659,98898,5
46516,98621,5
46387,98369,5
46276,98134,5
46173,98438,4
46051,98215,6
45939,97969,4
45819,97730,5
45705,97497,4
45580,97215,6
45456,96966,3
45344,96729,5
45241,96514,5
45123,96298,4
45008,96033,5
44884,95796,5
44785,95582,5
44674,95357,5
44577,95161,4
44485,94979,5
44396,94799,5
44312,94613,5
44222,94445,5
44147,94288,4
44079,94142,5
44037,94037,5
43982,93926,5
43908,93772,5
43843,93628,4
43779,93489,5
43723,93374,6
43692,93304,4
43672,93248,5
43626,93172,4
43596,93103,5
43566,93036,5
43530,92976,5
43515,92948,4
43509,92918,4
43497,92920,5
43507,92942,5
43523,92980,5
43533,93020,4
43566,93067,5
43580,93100,5
43595,93110,5
43603,93141,5
43607,93132,4
43607,93154,5
43617,93159,5
43622,93173,5
43639,93198,5
43658,93265,4
43696,93330,5
43734,93409,5
43786,93521,6
43857,93660,4
43918,93798,4
43987,93931,5
44060,94105,5
44165,94331,5
44266,94554,5
44379,94791,5
44511,95050,4
44667,95369,5
44826,95694,5
44988,96020,5
45122,96291,4
45250,96543,5
45361,96766,5
45462,96977,5
45565,97171,4
45639,97304,4
45689,97420,5
45751,97554,5
45805,97670,5
45853,97751,5
45907,97904,4
46002,98079,5
46080,98253,5
46193,98476,6
46308,98766,3
46462,99052,5
46606,99324,5
46712,99554,5
46804,99757,5
46942,100003,4
47066,100284,5
47194,100513,5
47272,100676,5
47367,100890,5
47463,101066,4
47538,101238,5
47659,101457,5
47781,101757,5
47943,102072,5
48090,102367,4
48259,102706,5
48413,103030,5
48557,103304,5
48704,103605,4
48846,103882,5
48967,104137,4
49060,104338,5
49148,104526,5
49271,104777,6
49386,105033,3
49516,105316,5
49670,105639,5
49823,105943,5
50010,106386,4
50254,106850,5
50405,107148,5
50508,107342,5
50590,107525,5
50695,107785,4
50824,108033,5
50915,108200,5
50993,108372,5
51105,108633,5
51239,108899,4
51381,109230,5
51547,109519,5
51618,109701,5
51719,109900,5
51821,110151,4
51929,110350,6
52076,110659,4
52238,110982,5
52384,111314,4
52571,111689,4
52804,112165,5
53012,112581,5
53188,112925,5
53286,113094,4
53352,113220,5
53392,113295,5
53458,113435,5
53526,113556,5
53605,113743,4
53726,113985,5
53841,114196,5
53916,114336,5
53968,114432,5
54005,114498,4
54067,114653,5
54180,114863,5
54236,114443,5
54308,114586,5
54373,114689,4
54399,114755,5
54428,114786,6
54411,114749,4
54431,114805,5
54426,114773,4
54397,114728,5
54400,114745,5
54401,114723,5
54362,114638,5
54345,114648,4
54413,114780,5
54429,114788,5
54434,114782,5
54388,114669,4
54335,114567,4
54326,114599,5
54485,114935,5
54561,115007,5
54489,114822,4
54469,114845,5
54478,114843,5
54512,114916,5
54465,114796,5
54496,114879,4
54538,114983,5
54551,114908,5
54354,114457,6
54226,114429,4
54366,114673,4
54520,114922,5
54493,114898,5
54549,114986,5
54536,114956,5
54557,114970,4
54511,114881,5
54389,114633,5
54255,114378,5
54257,114395,5
54015,113772,4
53761,113420,5
53778,113538,5
53889,113690,5
53906,113699,4
53916,113762,4
53961,113820,5
53913,113705,5
54046,114125,5
54294,114503,5
54338,114514,4
54311,114517,5
54436,114828,5
54549,114967,5
54602,115057,4
54633,115112,5
54743,115402,5
54898,115662,5
55019,115875,5
55134,116125,4
55231,116237,5
55047,115734,5
54550,114715,5
54250,114420,5
54450,114827,4
54433,114647,5
54134,114013,5
53856,113648,5
53981,113955,5
54229,114445,4
54334,114523,5
54133,114052,5
53755,113271,5
53348,112521,5
53090,112111,5
53054,112072,4
52998,111895,5
52845,111618,5
52747,111428,4
52693,111335,5
52699,111372,5
52744,111472,5
52773,111483,5
52674,111229,4
52627,111191,5
52622,111191,5
52593,111095,5
52534,110951,5
52358,110542,4
52107,110029,5
51945,109690,5
51791,109462,5
51708,109263,5
51680,109232,4
51629,109096,5
51592,109054,5
51486,108828,4
51451,108793,5
51440,108702,4
51330,108467,6
51146,108047,4
50929,107643,5
50800,107430,5
50764,107359,4
50721,107337,5
50759,107388,5
50718,107205,5
50564,106963,5
50509,106856,4
50428,106687,5
50354,106509,5
50250,106321,5
50168,106144,4
50005,105793,5
49834,105495,5
49796,105432,5
49799,105445,5
49858,105567,4
49884,105610,5
49830,105445,5
49777,105346,5
49738,105321,5
49811,105446,4
49791,105356,5
49644,104925,6
49010,103440,4
48219,101960,5
47754,101141,4
47579,100741,5
47303,100264,5
47172,99988,5
47079,99790,5
46942,99512,4
46905,99469,5
46991,99591,5
46977,99618,5
46986,99562,4
46922,99457,4
46867,99272,5
46642,98795,5
46497,98526,5
46386,98243,4
46167,98273,5
45929,97857,5
45936,97945,5
45920,97822,5
45862,97728,4
45876,97745,5
45893,97791,5
45942,97888,5
45961,97933,5
46096,98314,4
46410,98864,5
46469,98973,5
46696,99479,5
46827,99688,5
46968,100072,4
47243,100516,5
47281,100566,5
47443,101014,5
47657,101336,5
47748,101570,4
47957,101960,5
48039,102111,5
48186,102468,5
48443,102960,5
48509,103038,4
48464,102890,5
48408,102776,5
48310,102672,5
48408,102791,5
48216,102419,4
48182,102412,5
48143,102270,5
47907,101739,5
47737,101587,4
47946,102076,5
48165,102440,5
48146,102323,5
48219,102656,5
48715,103630,4
48836,103750,5
48888,103907,5
49216,104802,5
49974,106318,5
50239,106476,4
50076,106332,5
50375,107057,5
50771,107746,5
50778,107637,5
50799,107829,4
51129,108536,5
51407,109024,5
51557,109300,5
51694,109585,5
51847,109870,5
51954,110068,4
52024,110197,5
52086,110336,5
52148,110464,4
52213,110598,4
52293,110784,5
52385,110943,5
52447,111065,5
52480,111111,4
52496,111160,5
52521,111207,5
52554,111261,5
52592,111355,5
52624,111415,4
52631,111458,5
52662,111531,5
52686,111574,5
52705,111598,5
52714,111649,4
52741,111694,5
52767,111773,5
52808,111832,4
52843,111903,5
52841,111939,4
52892,112015,6
52927,112106,3
52983,112212,5
53025,112318,5
53072,112407,4
53120,112504,5
53172,112596,5
53215,112665,5
53251,112752,4
53302,112886,4
53364,113011,5
53432,113096,5
53458,113187,5
53501,113284,4
53551,113380,4
53603,113457,5
53632,113551,5
53672,113630,5
53717,113703,4
53765,113798,5
53803,113901,5
53868,114036,6
53921,114137,4
53966,114233,4
54018,114351,5
54071,114440,5
54100,114502,5
54126,114526,5
54167,114625,4
54208,114706,5
54257,114278,5
54299,114342,5
54346,114454,5
54388,114546,4
54428,114625,5
54487,114733,5
54551,114861,5
54599,114991,5
54669,115096,4
54719,115237,5
54770,115312,5
54819,115410,5
54857,115478,5
54873,115533,4
54884,115543,5
54895,115552,5
54909,115582,6
54912,115614,3
54932,115646,5
54950,115669,5
54979,115726,5
55006,115781,5
55037,115846,4
55061,115905,5
55078,115946,5
55089,115976,5
55119,115996,5
55114,116012,4
55121,116032,5
55138,116056,5
55137,116073,5
55159,116109,5
55177,116126,4
55188,116149,5
55183,116135,5
55169,116105,5
55151,116080,5
55132,116030,5
55119,115992,4
55095,115958,5
55077,115937,5
55068,115906,6
55055,115881,3
55050,115868,5
55028,115812,5
55009,115793,5
54998,115750,4
54973,115713,5
54953,115680,5
54929,115628,5
54914,115602,5
54903,115592,4
54906,115583,5
54902,115577,5
54900,115583,5
54919,115596,5
54925,115616,4
54932,115639,5
54941,115656,5
54946,115677,5
54962,115708,5
54976,115725,4
54984,115727,6
54986,115743,4
54994,115769,5
55001,115783,5
55023,115817,6
55039,115851,3
55054,115876,5
55069,115904,5
55087,115932,5
55102,115980,4
55131,116034,5
55153,116081,5
55177,116117,5
55194,116147,4
55212,116176,4
55229,116218,5
55253,116256,5
55257,116273,5
55275,116286,4
55274,116304,8
55284,116330,2
55306,116355,5
55324,116387,5
55316,116420,4
55353,116444,5
55375,116502,6
55404,116540,4
55410,116573,5
55424,116604,4
55429,116597,5
55412,116563,5
55402,116537,5
55393,116524,5
55375,116508,4
55387,116501,5
55382,116508,5
55400,116544,5
55426,116577,5
55446,116628,4
55465,116670,5
55488,116706,5
55495,116739,5
55516,116761,4
55528,116783,4
55518,116795,5
55545,116803,5
55560,116829,5
55561,116851,4
55547,116862,5
55589,116876,5
55588,116896,6
55589,116889,4
55582,116900,4
55588,116912,5
55588,116917,5
55597,116923,5
55621,116948,5
55623,116955,4
55624,116969,5
55626,116969,5
55652,116978,5
55644,116992,5
55638,116994,4
55633,116989,5
55650,116979,5
55632,116972,5
55620,116944,5
55607,116921,4
55610,116922,5
55603,116906,5
55595,116908,5
55592,116909,5
55591,116911,4
55597,116907,5
55603,116914,5
55600,116910,6
55605,116913,3
55619,116930,5
55616,116960,5
55623,116972,5
55625,116957,5
55634,116997,5
55644,116993,4
55641,116989,5
55649,117007,5
55650,117016,5
55660,117035,4
55669,117057,5
55684,117075,5
55689,117094,5
55701,117110,5
55708,117133,4
55722,117169,5
55730,117173,5
55742,117190,5
55746,117210,5
55764,117228,5
55768,117235,4
55770,117235,5
55774,117235,5
55778,117249,5
55769,117240,4
55763,117229,5
55766,117224,5
55758,117208,5
55754,117208,4
55750,117191,4
55745,117209,5
55759,117230,5
55788,117249,5
55789,117270,4
55805,117286,5
55794,117291,5
55799,117296,5
55795,117278,5
55783,117269,4
55779,117255,5
55778,117238,5
55763,117237,5
55771,117231,5
55767,117234,4
55774,117254,6
55777,117270,4
55793,117297,5
55806,117327,5
55821,117327,4
55821,117350,5
55824,117365,5
55839,117367,5
55836,117378,5
55846,117400,4
55857,117416,5
55865,117423,5
55864,117443,5
55873,117437,4
55877,117446,4
55867,117442,5
55871,117436,5
55873,117433,5
55865,117418,4
55862,117411,5
55849,117392,5
55849,117397,5
55838,117374,5
55835,117370,4
55838,117372,5
55843,117375,6
55833,117371,4
55830,117353,5
55829,117361,4
55828,117357,5
55831,117347,5
55821,117342,5
55813,117357,5
55826,117346,4
55824,117366,5
55824,117356,5
55840,117361,5
55827,117348,5
55827,117349,4
55824,117357,5
55825,117353,5
55821,117355,5
55837,117361,4
55825,117342,4
55825,117346,5
55818,117342,5
55821,117338,5
55819,117336,4
55813,117330,5
55813,117339,5
55806,117343,6
55813,117333,4
55814,117326,4
55821,117323,5
55806,117315,5
55809,117326,5
55806,117309,5
55805,117289,4
55798,117296,5
55790,117283,5
55784,117271,5
55774,117250,5
55760,117216,4
55744,117181,5
55726,117166,5
55730,117157,5
55721,117147,5
55714,117144,4
55697,117139,5
55710,117124,5
55697,117107,5
55699,117115,5
55688,117083,4
55681,117060,5
55661,117019,5
55634,116982,5
55622,116924,4
55579,116853,4
55548,116806,5
55523,116749,5
55522,116726,5
55498,116691,4
55501,116714,5
55506,116709,5
55521,116731,5
55501,116733,5
55513,116750,4
55519,116756,5
55526,116754,5
55519,116764,5
55518,116758,5
55517,116737,4
55512,116716,5
55493,116704,5
55474,116674,5
55459,116632,5
55442,116581,5
55428,116554,4
55418,116541,5
55400,116504,5
55394,116475,5
55379,116472,5
55380,116470,4
55383,116475,5
55388,116483,5
55385,116495,4
55389,116494,4
55401,116502,5
55402,116528,5
55405,116508,5
55399,116503,4
55383,116469,5
55370,116453,5
55346,116404,5
55348,116388,5
55335,116374,4
55332,116363,5
55314,116350,5
55311,116313,5
55294,116296,5
55280,116272,4
55256,116216,7
55251,116196,3
55232,116173,5
55228,116149,5
55208,116125,4
55199,116108,5
55189,116081,5
55186,116084,5
55185,116069,5
55169,116062,4
55164,116027,5
55155,116022,5
55150,116007,5
55140,115973,4
55128,115957,4
55109,115935,5
55106,115920,5
55106,115914,5
55098,115911,4
55100,115903,5
55094,115894,5
55076,115863,5
55080,115840,5
55058,115810,4
55051,115793,5
55039,115780,6
55025,115745,4
55019,115725,5
55007,115713,4
55000,115700,5
54981,115657,5
54964,115610,5
54937,115574,5
54927,115550,4
54906,115522,5
54884,115477,5
54867,115442,5
54858,115397,5
54840,115365,4
54824,115355,5
54815,115338,5
54814,115351,5
54821,115358,5
54832,115361,4
54831,115370,5
54835,115355,5
54822,115342,5
54815,115329,4
54813,115319,4
54800,115285,5
54774,115253,5
54763,115216,5
54747,115203,4
54735,115168,5
54721,115136,5
54700,115099,8
54685,115066,5
54665,115026,7
54593,114888,8
54593,114888,5
54570,114858,7
54549,114781,8
54524,114754,9
54507,114698,5
54384,114444,8
54384,114444,7
54392,114397,5
54330,114344,8
54296,114295,7
54272,114236,7
54245,114196,8
54057,113790,7
54057,113790,5
54012,113733,8
53976,113625,7
53927,113548,10
53800,113277,9
53800,113277,5
53778,113238,8
53763,113192,7
53720,113125,10
53585,112838,7
53585,112838,5
53514,112774,8
53526,112734,7
53522,112681,5
53473,112614,8
53441,112553,7
53403,112431,5
53235,112102,8
53235,112102,7
53180,112028,7
53147,111964,10
53116,111892,5
53048,111799,5
52899,111453,10
52899,111453,5
53875,113431,5
52865,111382,10
52866,111352,5
52842,111343,5
52825,111312,10
52815,111286,5
52796,111232,5
52664,110958,10
52645,110931,5
52628,110886,5
52604,110843,10
52580,110786,5
52556,110738,5
52563,110682,10
52512,110643,5
52457,110580,5
52344,110304,10
52344,110304,5
52309,110231,7
52288,110180,8
52252,110112,5
52215,110031,7
52181,109970,8
52158,109896,5
51935,109479,7
51935,109479,8
51898,109404,5
51846,109288,7
51809,109188,8
51750,109100,5
51706,108986,7
51370,108325,8
51370,108325,5
51312,108229,7
51244,108073,8
51167,107919,9
50876,107323,8
50876,107323,5
50818,107216,7
50790,107114,8
50730,107020,5
50674,106921,7
50606,106807,8
50571,106697,5
50321,106196,7
50321,106196,8
50264,106082,9
50214,105967,5
50161,105865,8
50114,105753,7
50056,105659,5
49812,105172,8
49812,105172,7
49789,105153,10
49766,105072,7
49605,104757,10
49605,104757,8
49581,104644,7
49547,104610,8
49545,104544,7
49329,104172,7
49329,104172,8
49292,104085,7
49226,103967,5
49196,103891,8
49167,103825,5
49126,103768,2
49090,103695,6
49070,103615,4
49038,103569,5
49011,103504,5
48983,103434,4
48937,103350,5
48895,103256,5
48851,103156,5
48799,103082,4
48777,103033,4
48756,102989,5
48735,102936,5
48700,102895,5
48693,102856,4
48673,102820,5
48657,102799,5
48638,102775,5
48637,102738,5
48634,102713,4
48609,102687,5
48602,102656,5
48585,102635,5
48575,102599,5
48546,102568,4
48557,102536,5
48526,102509,6
48510,102462,4
48491,102457,5
48508,102456,4
48498,102448,5
48503,102463,5
48506,102482,5
48517,102495,5
48531,102533,4
48548,102557,5
48572,102618,5
48597,102659,5
48623,102695,4
48638,102736,4
48660,102772,5
48683,102819,5
48712,102901,5
48771,103008,4
48835,103148,5
48909,103299,5
48987,103454,5
49055,103590,5
49112,103717,4
49194,103870,5
49282,104056,5
49373,104249,6
49480,104480,4
49605,104709,4
49708,104930,5
49827,105151,5
49926,105356,5
50015,105512,5
50071,105639,4
50141,105799,5
50222,105955,5
50302,106134,5
50400,106316,5
50482,106496,4
50568,106668,5
50649,106836,5
50739,107032,5
50830,107221,4
50927,107389,4
50999,107545,5
51079,107722,5
51166,107878,5
51243,108029,5
51316,108167,4
51369,108269,5
51420,108386,5
51483,108508,5
51544,108643,4
51601,108761,5
51665,108891,5
51735,109036,5
51821,109221,5
51901,109392,4
51976,109514,5
52033,109665,5
52101,109794,5
52157,109899,5
52214,110003,4
52270,110121,5
52312,110204,5
52356,110284,5
52402,110364,5
52434,110439,4
52475,110516,5
52516,110608,5
52552,110691,5
52595,110769,4
52631,110853,5
52686,110937,4
52731,111021,5
52762,111121,5
52803,111190,4
52842,111253,5
52865,111313,5
52898,111361,5
52925,111414,5
52942,111455,4
52961,111498,5
52979,111529,5
52996,111578,5
53002,111592,5
53021,111601,4
53027,111623,5
53051,111702,5
53079,111750,5
53116,111817,5
53161,111912,4
53211,111998,5
53237,112060,5
53249,112096,5
53285,112165,5
53330,112241,4
53378,112346,6
53431,112470,4
53489,112588,5
53548,112699,4
53607,112820,4
53672,112946,5
53728,113077,5
53799,113218,5
53863,113338,4
53925,113446,5
53973,113555,5
54020,113650,5
54065,113741,5
54112,113819,4
54146,113903,5
54198,113999,5
54253,114110,5
54308,114215,5
54363,114315,4
54388,114379,5
54409,114439,5
54454,114482,5
54454,114505,5
54479,114546,4
54494,114578,5
54519,114632,6
54540,114651,4
54566,114707,5
54563,114745,4
54614,114822,5
54653,114887,5
54673,114928,5
54694,114984,4
54733,115053,4
54766,115144,5
54811,115219,5
54858,115305,5
54889,115368,4
54928,115447,5
54953,115485,5
54999,115556,5
55018,115597,5
55024,115638,4
55055,115664,5
55081,115696,5
55064,115732,5
55086,115775,5
55116,115804,4
55152,115858,5
55166,115925,5
55194,115972,5
55208,115999,5
55214,116010,4
55231,116036,5
55233,116058,5
55250,116083,5
55272,116111,5
55290,116162,4
55297,116182,5
55317,116206,5
55331,116255,5
55371,116336,5
55387,116371,4
55423,116424,5
55455,116484,5
55471,116524,5
55477,116553,4
55497,116575,5
55505,116605,5
55508,116621,5
55537,116651,5
55550,116701,5
55578,116764,4
55602,116803,5
55625,116848,5
55635,116890,5
55661,116934,4
55673,116937,5
55682,116954,5
55696,116983,5
55705,117023,5
55729,117060,4
55743,117088,5
55754,117112,5
55756,117117,5
55760,117117,5
55760,117124,4
55765,117131,5
55771,117130,5
55768,117128,5
55767,117128,4
55769,117128,4
55771,117141,5
55768,117123,5
55761,117112,5
55757,117102,4
55754,117089,6
55745,117093,4
55751,117099,5
55755,117106,5
55761,117126,4
55775,117152,5
55782,117185,5
55792,117198,5
55810,117221,5
55818,117246,4
55833,117272,5
55851,117293,5
55856,117305,5
55852,117310,5
55859,117319,4
55855,117315,5
55845,117314,5
55850,117306,5
55843,117296,5
55845,117285,4
55840,117292,5
55834,117278,5
55837,117272,5
55829,117266,4
55826,117265,4
55829,117270,6
55831,117270,4
55828,117267,5
55834,117276,4
55826,117273,5
55827,117276,5
55825,117274,5
55827,117265,5
55820,117246,4
55823,117242,5
55821,117237,5
55816,117250,5
55811,117237,5
55801,117217,4
55794,117212,5
55794,117191,5
55772,117165,5
55770,117156,5
55747,117118,4
55737,117100,5
55733,117095,5
55734,117087,5
55740,117093,4
55739,117107,4
55740,117115,5
55751,117128,5
55754,117144,5
55761,117134,4
55762,117138,4
55769,117151,5
55768,117151,5
55771,117148,5
55761,117144,4
55770,117153,5
55769,117136,5
55759,117137,5
55755,117128,5
55754,117113,4
55741,117111,5
55747,117114,5
55738,117095,5
55731,117097,5
55739,117105,5
55738,117106,4
55736,117105,5
55740,117108,5
55740,117098,6
55739,117101,3
55716,117089,5
55731,117095,5
55734,117095,5
55737,117100,5
55722,117106,4
55741,117103,5
55739,117105,5
55758,117106,5
55755,117106,4
55742,117121,4
55740,117113,5
55741,117115,5
55757,117108,5
55736,117104,4
55731,117098,5
55736,117083,5
55749,117074,5
55727,117073,5
55721,117067,4
55713,117067,6
55714,117066,4
55713,117061,5
55717,117059,5
55715,117057,6
55721,117050,3
55717,117057,5
55712,117064,5
55713,117057,5
55708,117023,4
55694,117021,5
55691,117013,5
55693,116998,5
55672,116978,5
55677,116986,5
55675,116980,4
55683,116984,5
55681,116993,5
55675,116989,4
55678,116970,4
55661,116959,5
55659,116954,5
55666,116954,5
55654,116926,4
55643,116922,5
55641,116934,6
55646,116913,4
55647,116934,5
55664,116961,4
55676,116998,5
55681,117002,5
55687,117018,5
55698,117028,5
55706,117036,4
55702,117042,5
55705,117036,5
55707,117024,5
55698,117036,5
55706,117045,4
55709,117043,5
55705,117042,5
55703,117035,5
55712,117045,5
55706,117040,4
55708,117031,5
55697,117039,5
55711,117039,5
55703,117035,4
55706,117029,4
55697,117034,5
55703,117019,6
55685,117009,4
55683,116990,4
55673,116962,5
55659,116943,5
55656,116938,5
55665,116936,5
55657,116942,4
55658,116951,5
55659,116951,5
55662,116960,5
55660,116958,5
55672,116959,4
55670,116975,5
55683,116983,5
55687,116993,5
55692,117004,5
55691,117023,4
55703,117036,5
55704,117060,5
55718,117076,5
55722,117084,5
55736,117103,4
55739,117109,5
55749,117135,5
55754,117149,6
55765,117160,3
55763,117185,5
55778,117193,5
55794,117217,5
55796,117218,5
55799,117218,4
55799,117222,5
55797,117227,5
55786,117225,5
55793,117216,5
55793,117217,4
55791,117224,5
55795,117230,5
55796,117247,5
55815,117264,5
55825,117272,6
55812,117253,3
55804,117245,5
55795,117214,5
55786,117207,5
55765,117172,5
55772,117162,4
55756,117143,5
55757,117156,5
55771,117168,6
55784,117191,3
55794,117220,5
55797,117234,5
55807,117258,5
55814,117269,4
55810,117267,5
55814,117269,5
55816,117262,5
55818,117259,5
55815,117263,4
55813,117264,5
55816,117266,5
55812,117274,5
55812,117272,5
55821,117275,4
55813,117267,5
55820,117256,5
55798,117264,5
55823,117261,5
55805,117270,4
55811,117268,6
55798,117266,4
55826,117279,5
55822,117287,5
55826,117283,4
55823,117278,5
55813,117261,5
55811,117263,5
55822,117257,4
55834,117269,4
55820,117278,5
55829,117279,5
55823,117287,5
55850,117299,4
55835,117301,5
55841,117306,5
55836,117305,5
55836,117305,5
55833,117313,4
55832,117303,5
55834,117299,5
55831,117291,5
55829,117297,5
55834,117297,4
55823,117277,5
55821,117262,6
55817,117282,4
55822,117273,5
55831,117281,4
55826,117260,5
55821,117283,5
55819,117286,5
55824,117280,5
55816,117278,4
55820,117272,5
55808,117265,5
55813,117259,5
55811,117263,4
55811,117248,4
55805,117253,5
55807,117266,5
55815,117286,5
55829,117279,4
55814,117278,5
55806,117244,5
55790,117240,5
55786,117185,5
55759,117159,4
55750,117116,5
55731,117096,5
55720,117087,7
55714,117061,3
55722,117085,4
55732,117108,5
55738,117123,5
55751,117128,5
55757,117157,5
55765,117171,4
55772,117171,5
55776,117175,5
55764,117177,5
55772,117175,5
55772,117176,4
55766,117184,5
55771,117180,5
55770,117182,5
55771,117179,4
55770,117181,4
55770,117172,5
55763,117175,5
55773,117184,5
55773,117180,5
55771,117173,4
55777,117181,5
55770,117176,5
55773,117174,5
55767,117171,4
55769,117168,5
55769,117160,5
55757,117155,5
55752,117140,5
55743,117133,4
55738,117124,5
55739,117124,5
55740,117112,5
55735,117117,5
55732,117113,4
55744,117097,5
55738,117096,5
55728,117098,5
55729,117094,5
55724,117090,4
55716,117092,5
55718,117090,5
55729,117093,5
55727,117100,4
55737,117097,5
55732,117110,4
55738,117114,5
55734,117112,5
55733,117109,4
55731,117107,5
55733,117114,5
55732,117108,5
55740,117120,5
55739,117119,4
55729,117115,5
55742,117108,5
55735,117124,5
55743,117120,5
55731,117120,4
55735,117108,5
55740,117115,5
55736,117108,5
55731,117101,5
55722,117100,4
55732,117119,5
55736,117123,5
55748,117142,5
55757,117146,5
55756,117158,4
55763,117164,6
55758,117154,4
55735,117124,5
55730,117087,4
55717,117052,5
55699,117024,5
55669,116994,5
55670,116978,5
55668,116973,4
55663,116997,5
55688,117034,5
55692,117042,5
55703,117072,5
55693,117085,4
55719,117089,5
55734,117092,5
55726,117099,5
55718,117111,5
55733,117105,4
55727,117108,5
55730,117118,5
55738,117112,5
55733,117113,5
55738,117107,4
55737,117107,5
55742,117101,6
55735,117094,4
55721,117096,4
55728,117097,4
55740,117084,5
55717,117085,5
55722,117090,5
55717,117088,4
55737,117093,5
55720,117096,5
55724,117087,5
55722,117074,5
55721,117070,4
55712,117075,5
55715,117072,5
55713,117081,5
55719,117063,5
55711,117075,5
55716,117074,4
55709,117073,5
55712,117056,5
55712,117070,6
55712,117082,3
55715,117074,5
55718,117070,5
55713,117072,5
55721,117081,5
55717,117079,4
55713,117090,5
55722,117088,5
55728,117084,5
55728,117095,4
55725,117113,4
55732,117113,5
55734,117127,5
55737,117127,5
55747,117152,4
55744,117142,5
55745,117148,5
55752,117149,5
55747,117160,5
55752,117155,4
55760,117148,5
55750,117139,5
55754,117146,5
55756,117147,5
55751,117151,5
55759,117148,4
55756,117152,5
55750,117169,5
55760,117173,5
55765,117174,4
55760,117167,5
55755,117164,5
55761,117171,5
55751,117156,5
55754,117147,4
55744,117138,5
55751,117144,5
55754,117161,5
55753,117169,4
55766,117175,4
55759,117180,5
55762,117201,5
55771,117208,5
55777,117213,4
55773,117184,5
55755,117159,5
55724,117095,5
55707,117059,5
55690,117038,4
55685,117011,6
55678,117014,4
55678,117026,5
55690,117039,5
55693,117060,4
55705,117078,5
55707,117093,5
55723,117103,5
55732,117112,5
55734,117125,4
55746,117135,5
55742,117135,5
55747,117141,5
55740,117142,5
55750,117149,4
55739,117144,5
55745,117161,5
55751,117160,5
55756,117171,4
55761,117163,4
55760,117174,5
55770,117176,6
55764,117179,4
55762,117168,4
55760,117187,5
55763,117195,5
55777,117198,5
55779,117204,5
55776,117204,4
55771,117200,5
55774,117195,5
55768,117190,5
55763,117185,5
55765,117179,4
55763,117185,5
55764,117185,5
55767,117197,5
55771,117190,5
55782,117201,4
55772,117210,5
55779,117208,5
55775,117219,5
55787,117213,5
55777,117221,4
55783,117214,5
55784,117218,5
55790,117224,6
55788,117236,3
55790,117236,4
55791,117238,5
55791,117241,5
55789,117235,5
55790,117239,4
55788,117240,5
55778,117237,5
55798,117253,5
55793,117242,5
55794,117241,4
55782,117247,5
55804,117253,5
55798,117259,5
55803,117258,5
55799,117259,4
55802,117269,5
55813,117278,5
55811,117277,5
55825,117279,5
55819,117279,5
55814,117279,4
55805,117279,5
55835,117278,5
55822,117286,6
55816,117288,3
55821,117285,5
55827,117284,5
55809,117280,5
55804,117278,5
55808,117273,4
55812,117285,5
55816,117282,5
55807,117279,5
55820,117276,4
55811,117277,4
55824,117292,5
55820,117295,5
55820,117302,5
55820,117276,4
55818,117299,5
55820,117303,5
55818,117306,5
55819,117295,5
55827,117324,5
55846,117330,5
55842,117339,4
55848,117350,5
55843,117362,5
55862,117372,6
55853,117368,3
55842,117354,5
55821,117296,5
55792,117246,5
55774,117219,4
55765,117202,5
55751,117185,5
55760,117185,5
55771,117213,5
55785,117249,4
55803,117266,5
55810,117303,5
55827,117320,5
55841,117348,4
55852,117369,4
55861,117374,5
55864,117383,5
55860,117396,5
55865,117405,4
55872,117397,5
55865,117409,6
55871,117418,4
55878,117422,5
55881,117432,4
55892,117446,5
55895,117461,5
55901,117463,5
55901,117481,5
55906,117483,4
55903,117489,5
55907,117489,5
55919,117500,5
55921,117510,5
55929,117529,4
55934,117524,5
55937,117545,5
55939,117546,5
55941,117546,5
55939,117537,4
55934,117538,5
55947,117555,5
55947,117562,5
55953,117559,4
55959,117564,4
55956,117573,5
55969,117587,6
55969,117600,4
55963,117596,4
55972,117609,5
55973,117622,5
55979,117627,5
55982,117633,5
55986,117644,4
55984,117646,5
55996,117662,5
55989,117657,5
55996,117660,5
55995,117667,4
56002,117668,5
55995,117673,5
55998,117674,5
56001,117671,5
55995,117672,4
56006,117673,5
55999,117679,5
56007,117687,5
56005,117698,5
56020,117698,4
56019,117710,5
56016,117718,5
56018,117714,6
56020,117720,4
56024,117724,4
56023,117724,9
56025,117720,1
56021,117710,5
56017,117723,4
56022,117688,4
56022,117716,5
56019,117720,5
56027,117712,5
56017,117732,4
56019,117716,5
56015,117723,5
56022,117729,5
56023,117732,5
56027,117733,4
56023,117732,5
56022,117733,5
56025,117727,5
56028,117734,5
56036,117740,5
56035,117743,4
56036,117754,5
56029,117757,5
56034,117758,6
56042,117758,3
56042,117765,5
56025,117768,5
56048,117767,5
56039,117770,5
56046,117771,4
56026,117774,5
56048,117779,5
56051,117780,5
56040,117781,4
56055,117781,4
56046,117771,5
56049,117775,5
56049,117787,5
56059,117776,4
56053,117772,5
56049,117774,5
56046,117771,5
56056,117781,5
56055,117780,9
56066,117801,8
56066,117801,5
56067,117802,7
56042,117800,8
56062,117811,5
56079,117826,7
56090,117881,8
56054,117770,9
56054,117770,7
56026,117713,8
55997,117686,9
56007,117693,8
56007,117693,5
56020,117738,7
56036,117733,8
56039,117749,5
56048,117759,7
56031,117796,8
56055,117795,7
56070,117806,7
56070,117806,8
56064,117839,7
56066,117830,5
56064,117825,8
56071,117791,7
56068,117825,5
56075,117827,8
56075,117827,7
56076,117856,4
56080,117846,4
56082,117834,5
56078,117844,5
56087,117857,5
56087,117858,5
56081,117857,4
56083,117861,5
56081,117847,6
56085,117829,4
56085,117836,4
56079,117828,4
56079,117841,5
56085,117847,5
56095,117837,5
56085,117849,4
56082,117861,5
56087,117865,5
56092,117861,5
56093,117859,5
56085,117861,4
56088,117844,5
56087,117841,5
56081,117849,5
56076,117841,5
56084,117840,4
56077,117844,5
56075,117834,5
56076,117840,5
56078,117833,5
56077,117836,4
56075,117839,5
56079,117836,5
56079,117837,5
56082,117836,5
56069,117844,4
56078,117842,5
56070,117843,5
