RED,IR,EKG,TIME
55148,116502,183229
55148,116502,1
54451,114656,5
54449,114655,5
54451,114654,4
54448,114644,5
54443,114657,5
54444,114653,5
54442,114642,5
54433,114632,4
54433,114632,5
54430,114615,5
54423,114614,5
54415,114604,5
54429,114610,4
54424,114612,5
54418,114602,5
54409,114601,5
54413,114601,5
54421,114601,5
54421,114610,4
54418,114606,5
54411,114590,5
54410,114600,4
54405,114595,5
54399,114592,5
54401,114578,5
54404,114590,5
54399,114581,4
54405,114578,5
54391,114568,5
54388,114571,5
54396,114566,5
54387,114565,4
54394,114565,5
54386,114571,5
54391,114573,5
54386,114566,5
54387,114570,4
54396,114568,5
54385,114564,5
54380,114550,5
54378,114554,5
54388,114554,4
54374,114560,6
54377,114556,4
54363,114543,5
54373,114534,4
54377,114541,4
54378,114532,5
54345,114526,5
54371,114536,5
54359,114517,4
54360,114526,5
54342,114521,5
54350,114519,5
54356,114516,5
54350,114511,4
54361,114505,5
54349,114507,5
54343,114498,5
54346,114502,5
54370,114493,4
54340,114487,5
54336,114479,5
54336,114488,5
54353,114473,5
54329,114475,4
54328,114480,5
54332,114480,6
54331,114481,4
54325,114479,4
54327,114481,4
54319,114470,5
54325,114452,5
54321,114446,5
54324,114453,4
54314,114450,5
54315,114424,5
54308,114447,5
54307,114441,5
54315,114435,4
54301,114428,4
54313,114439,5
54306,114445,5
54312,114445,5
54313,114449,4
54321,114461,5
54319,114459,5
54312,114456,5
54322,114491,5
54335,114471,4
54331,114478,5
54322,114469,5
54316,114484,5
54319,114452,5
54303,114444,4
54305,114424,5
54278,114406,5
54283,114384,5
54266,114366,4
54262,114350,4
54267,114340,5
54256,114342,5
54254,114345,5
54266,114347,4
54271,114359,5
54264,114362,5
54275,114381,5
54276,114378,5
54266,114377,4
54272,114361,5
54266,114362,5
54264,114361,5
54273,114363,5
54272,114368,5
54265,114362,4
54260,114353,5
54265,114342,5
54262,114341,5
54248,114340,4
54239,114326,5
54242,114328,5
54249,114330,5
54247,114318,4
54241,114317,4
54243,114316,5
54238,114314,5
54239,114316,5
54239,114304,4
54242,114316,5
54240,114316,5
54227,114301,5
54234,114308,5
54240,114302,4
54236,114301,5
54227,114294,5
54226,114286,5
54228,114294,5
54222,114286,4
54220,114302,6
54229,114310,4
54233,114313,5
54232,114315,5
54226,114299,4
54232,114298,5
54221,114293,5
54225,114286,5
54220,114280,5
54217,114288,4
54223,114288,5
54230,114288,5
54225,114294,5
54220,114289,4
54221,114291,4
54229,114297,5
54219,114287,5
54224,114283,5
54213,114282,4
54224,114288,5
54225,114290,5
54229,114290,5
54222,114289,5
54227,114282,4
54224,114286,5
54217,114286,6
54217,114286,4
54212,114280,5
54220,114263,4
54214,114263,5
54211,114262,5
54205,114255,5
54214,114249,5
54201,114255,4
54201,114251,5
54201,114244,5
54202,114239,5
54194,114237,5
54193,114233,4
54194,114226,5
54186,114225,5
54187,114221,5
54188,114212,5
54167,114209,4
54181,114195,5
54178,114208,5
54169,114192,5
54155,114189,4
54168,114181,5
54158,114166,5
54157,114154,5
54134,114158,5
54156,114153,4
54151,114146,5
54151,114149,5
54158,114147,5
54144,114147,5
54147,114148,4
54145,114137,5
54164,114145,5
54145,114141,5
54132,114133,5
54141,114130,4
54158,114136,5
54139,114123,5
54130,114120,5
54126,114106,4
54133,114107,4
54119,114093,5
54121,114104,5
54119,114094,5
54120,114087,5
54116,114102,3
54120,114100,5
54121,114085,5
54118,114076,5
54119,114091,4
54119,114079,5
54112,114086,5
54115,114071,5
54130,114083,5
54125,114105,4
54120,114112,5
54121,114100,5
54129,114107,5
54113,114092,5
54115,114074,4
54107,114075,5
54087,114051,5
54082,114005,5
54055,113994,5
54055,114012,4
54064,113982,6
54052,113970,4
54059,113967,5
54058,113981,4
54060,113973,6
54055,113979,3
54064,113992,5
54068,114002,5
54075,113997,4
54072,114010,5
54068,114010,5
54066,114010,5
54071,114008,5
54073,113997,4
54071,114019,5
54079,114004,5
54078,114015,5
54076,114001,5
54068,114003,4
54063,114009,5
54062,113995,5
54064,113999,5
54057,113995,5
54066,113986,4
54060,113980,5
54054,113973,6
54061,113975,4
54056,113977,5
54070,113993,4
54058,113992,5
54062,113987,5
54062,113984,5
54063,113985,4
54059,113974,4
54057,113971,5
54048,113965,5
54037,113957,5
54049,113947,4
54053,113946,5
54051,113943,5
54049,113962,5
54052,113963,5
54055,113971,4
54053,113981,5
54064,113994,5
54060,113997,5
54064,113989,5
54061,113984,4
54061,113997,5
54055,113992,5
54054,113981,6
54048,113977,4
54055,113977,4
54047,113969,5
54049,113971,5
54047,113958,5
54047,113958,5
54043,113955,4
54043,113966,5
54036,113964,5
54045,113967,5
54050,113959,4
54056,113970,4
54052,113983,5
54063,113982,5
54062,113982,5
54059,113986,4
54056,113989,5
54062,113994,5
54060,113990,5
54057,113987,5
54061,113985,5
54061,113991,4
54057,113977,5
54055,113986,5
54068,113977,6
54056,113980,3
54060,113973,5
54054,113979,5
54063,113976,5
54054,113986,5
54052,113981,4
54057,113978,5
54044,113975,5
54053,113977,5
54045,113976,5
54055,113973,4
54046,113976,5
54040,113974,5
54052,113976,5
54047,113976,4
54055,113966,4
54029,113962,5
54049,113965,5
54049,113957,5
54047,113959,4
54014,113956,6
54033,113949,4
54043,113940,5
54030,113943,5
54035,113953,6
54029,113937,3
54035,113942,5
54026,113927,5
54044,113927,5
54025,113932,4
54024,113920,5
54033,113928,5
54048,113926,5
54029,113932,5
54028,113935,4
54036,113941,5
54051,113944,5
54041,113952,5
54029,113942,5
54033,113920,4
54022,113905,5
54011,113889,5
53999,113871,5
53979,113845,4
53979,113810,4
53971,113808,6
53967,113795,4
53947,113786,8
53959,113777,1
53959,113806,5
53955,113795,5
53965,113789,5
53970,113790,5
53973,113812,4
53968,113818,5
53969,113812,5
53964,113824,5
53976,113814,5
53971,113825,4
53967,113824,5
53969,113849,5
53970,113833,5
53985,113844,5
53984,113843,4
53982,113867,5
53979,113857,5
53986,113843,5
53978,113845,5
53981,113851,4
53983,113840,5
53975,113836,6
53978,113835,4
53973,113843,4
53974,113845,4
53978,113842,5
53986,113847,5
53972,113843,5
53974,113847,4
53980,113838,5
53973,113839,5
53972,113827,5
53969,113828,5
53957,113820,4
53965,113810,5
53956,113816,5
53963,113822,5
53957,113822,5
53966,113834,4
53970,113833,5
53968,113825,5
53975,113823,5
53971,113834,5
53978,113839,4
53974,113837,5
53968,113840,5
53961,113842,6
53963,113832,4
53965,113821,4
53968,113830,5
53968,113827,5
53971,113829,5
53968,113831,4
53967,113829,5
53974,113831,5
53971,113827,5
53964,113828,5
53957,113822,4
53965,113817,5
53954,113809,5
53964,113807,5
53953,113792,5
53950,113787,4
53942,113779,5
53945,113778,5
53929,113757,5
53932,113759,5
53922,113748,5
53919,113733,4
53917,113719,5
53912,113715,5
53907,113712,5
53905,113710,4
53901,113707,5
53900,113689,5
53894,113687,5
53901,113686,4
53892,113674,4
53888,113672,5
53892,113673,5
53899,113676,5
53886,113675,4
53885,113670,5
53882,113658,5
53882,113656,5
53878,113645,5
53880,113660,4
53883,113653,5
53888,113656,5
53881,113646,5
53887,113661,5
53884,113665,4
53895,113677,6
53895,113686,4
53897,113698,5
53911,113705,5
53911,113713,4
53912,113704,5
53903,113683,5
53902,113674,5
53884,113652,5
53865,113616,4
53850,113578,5
53841,113564,5
53821,113558,5
53830,113553,4
53825,113530,4
53822,113525,5
53801,113534,5
53819,113531,5
53818,113532,4
53823,113539,5
53818,113540,5
53827,113556,5
53825,113545,5
53832,113538,4
53828,113524,5
53820,113526,6
53814,113530,4
53821,113522,5
53832,113523,4
53809,113525,5
53810,113512,5
53810,113511,5
53821,113515,5
53809,113508,4
53811,113510,5
53812,113522,5
53814,113510,5
53810,113517,5
53821,113522,4
53824,113525,5
53826,113525,5
53830,113542,5
53827,113521,4
53822,113529,4
53822,113501,5
53812,113524,5
53812,113517,5
53803,113517,5
53804,113495,4
53803,113507,5
53806,113500,6
53801,113492,4
53796,113497,4
53806,113496,5
53802,113494,5
53806,113503,5
53802,113526,5
53808,113516,4
53813,113524,5
53815,113525,5
53810,113553,5
53815,113523,5
53826,113532,4
53820,113528,5
53817,113551,5
53833,113542,5
53824,113537,5
53825,113537,4
53829,113532,5
53816,113521,5
53815,113526,5
53818,113523,6
53807,113519,3
53819,113523,5
53817,113518,5
53820,113524,5
53824,113536,4
53822,113541,5
53823,113541,5
53833,113540,5
53825,113536,5
53834,113544,4
53818,113536,5
53816,113534,5
53815,113528,5
53819,113531,5
53817,113531,4
53817,113530,5
53823,113521,5
53823,113537,5
53821,113530,5
53829,113543,4
53821,113550,5
53823,113558,5
53835,113568,5
53853,113581,5
53849,113594,5
53854,113593,4
53849,113597,5
53849,113584,5
53836,113563,4
53834,113563,4
53821,113542,5
53823,113522,5
53806,113501,5
53811,113498,4
53807,113499,5
53804,113494,5
53803,113500,5
53813,113503,5
53813,113518,4
53815,113513,5
53816,113516,5
53817,113525,5
53822,113540,5
53828,113536,4
53825,113536,5
53826,113536,5
53827,113535,5
53823,113520,5
53807,113506,4
53809,113493,6
53799,113491,4
53801,113492,5
53793,113457,5
53775,113438,4
53777,113417,5
53768,113415,5
53761,113385,5
53739,113351,4
53714,113313,4
53699,113271,5
53682,113239,5
53658,113206,5
53650,113163,4
53631,113151,5
53615,113110,5
53600,113095,5
53604,113082,5
53599,113070,4
53582,113054,5
53582,113058,5
53579,113059,5
53584,113062,5
53586,113074,4
53604,113085,5
53610,113110,5
53627,113142,5
53634,113168,5
53649,113193,4
53665,113229,5
53668,113243,5
53687,113272,5
53688,113285,5
53701,113317,4
53714,113333,5
53726,113350,5
53719,113381,5
53755,113404,4
53764,113441,4
53790,113467,5
53793,113492,5
53808,113518,5
53821,113525,4
53817,113542,4
53853,113549,5
53828,113557,5
53842,113574,5
53846,113586,3
53868,113608,5
53859,113607,5
53868,113630,5
53871,113657,5
53904,113684,4
53916,113713,5
53924,113739,5
53930,113760,5
53950,113777,5
53960,113793,4
53972,113827,5
53975,113832,5
53989,113835,5
54001,113889,4
54016,113918,4
54031,113952,5
54046,113964,5
54054,114000,5
54056,113994,4
54060,114003,6
54060,113993,4
54077,114007,5
54052,113993,5
54049,113994,6
54048,113998,3
54051,113994,5
54054,114000,5
54057,114008,5
54065,114050,4
54074,114038,5
54084,114058,5
54106,114090,5
54112,114139,5
54121,114128,4
54125,114147,5
54136,114171,5
54146,114186,5
54149,114190,5
54159,114213,4
54164,114224,5
54178,114232,5
54181,114245,5
54184,114258,5
54184,114262,4
54189,114268,6
54188,114269,4
54193,114280,5
54197,114281,4
54205,114295,7
54203,114294,3
54205,114299,5
54211,114298,5
54219,114306,4
54208,114310,5
54221,114314,5
54224,114343,5
54231,114339,5
54222,114347,4
54228,114341,5
54227,114339,5
54240,114331,5
54231,114342,5
54228,114341,4
54223,114356,5
54229,114353,5
54240,114372,5
54241,114377,5
54251,114385,4
54252,114395,5
54259,114409,6
54259,114403,4
54259,114398,4
54268,114405,4
54257,114418,5
54270,114412,5
54263,114421,5
54266,114426,4
54269,114418,5
54276,114427,5
54281,114443,5
54281,114443,5
54281,114446,4
54280,114445,5
54274,114449,5
54285,114448,5
54288,114458,5
54285,114453,4
54286,114440,5
54278,114436,5
54278,114458,5
54289,114455,5
54288,114450,4
54278,114456,5
54290,114443,5
54289,114450,6
54283,114455,4
54285,114459,4
54290,114457,5
54285,114457,5
54293,114467,5
54287,114470,4
54293,114470,4
54299,114470,5
54293,114474,5
54294,114475,5
54287,114464,4
54293,114466,5
54294,114449,5
54290,114433,5
54268,114430,5
54265,114418,4
54266,114407,5
54258,114402,5
54253,114403,5
54249,114390,5
54259,114386,5
54253,114379,4
54247,114376,5
54242,114368,5
54236,114357,6
54237,114350,3
54214,114339,5
54227,114322,5
54213,114315,5
54211,114308,5
54190,114289,4
54203,114273,5
54193,114256,5
54184,114220,5
54146,114166,4
54129,114116,4
54096,114056,5
54062,113988,5
54039,113927,5
53998,113849,4
53966,113797,5
53941,113741,5
53938,113679,5
53884,113614,5
53849,113553,4
53813,113506,6
53811,113457,4
53763,113383,5
53714,113287,5
53673,113196,4
53615,113074,5
53552,112978,5
53517,112901,5
53488,112810,5
53435,112736,4
53409,112675,5
53369,112591,5
53319,112508,5
53287,112408,5
53249,112352,4
53203,112270,6
53161,112183,4
53123,112095,5
53079,112039,4
53046,111964,4
53009,111881,5
52986,111817,5
52947,111774,5
52928,111732,4
52919,111698,5
52895,111672,6
52886,111635,4
52873,111613,5
52854,111587,4
52835,111532,5
52794,111454,5
52772,111391,5
52734,111313,5
52701,111269,4
52686,111220,5
52673,111193,5
52644,111146,5
52638,111129,5
52617,111092,4
52601,111053,5
52586,111028,5
52565,110999,5
52565,110969,5
52544,110946,4
52534,110925,5
52521,110898,5
52502,110857,5
52491,110835,4
52476,110797,4
52464,110787,5
52464,110778,6
52447,110766,4
52444,110754,4
52447,110751,5
52442,110760,5
52435,110741,5
52435,110735,5
52424,110724,4
52421,110701,5
52416,110684,5
52390,110647,5
52369,110585,5
52344,110545,4
52329,110514,5
52308,110481,5
52302,110454,5
52304,110447,5
52300,110453,4
52300,110469,5
52307,110480,5
52307,110494,5
52307,110510,5
52323,110524,4
52329,110539,5
52350,110573,5
52376,110628,6
52405,110680,3
52422,110735,4
52461,110785,5
52479,110850,5
52508,110902,5
52533,110952,4
52564,111006,5
52564,111010,5
52562,111018,5
52572,111023,5
52568,111029,4
52576,111047,5
52594,111057,5
52594,111099,5
52617,111135,5
52644,111198,4
52672,111266,5
52714,111353,5
52767,111425,5
52805,111497,5
52829,111558,5
52848,111596,4
52864,111635,5
52889,111663,5
52902,111688,5
52909,111713,4
52928,111740,5
52938,111765,5
52948,111791,5
52956,111816,4
52965,111833,4
52987,111854,5
52981,111857,5
52992,111871,5
52993,111891,4
53013,111904,5
53008,111914,5
53018,111939,5
53022,111945,5
53034,111960,4
53039,111974,5
53046,111977,5
53031,111988,5
53052,111988,5
53054,112014,4
53063,112019,6
53043,112026,4
53068,112040,5
53078,112046,5
53081,112055,4
53066,112053,5
53091,112078,5
53091,112072,5
53094,112083,5
53100,112089,4
53108,112099,5
53103,112110,5
53107,112117,5
53134,112117,4
53116,112132,4
53132,112147,5
53134,112167,5
53170,112202,5
53164,112214,4
53186,112269,5
53199,112287,5
53216,112315,5
53223,112342,5
53236,112365,4
53249,112385,5
53262,112428,6
53272,112453,4
53304,112491,5
53329,112536,4
53335,112557,5
53355,112606,5
53366,112623,5
53379,112652,5
53390,112663,4
53401,112711,5
53428,112725,5
53434,112748,5
53440,112760,5
53443,112778,4
53445,112787,5
53441,112785,5
53456,112796,5
53439,112761,4
53440,112770,4
53439,112763,5
53447,112792,5
53435,112775,5
53442,112781,4
53458,112793,5
53464,112846,5
53496,112854,5
53500,112891,5
53515,112918,4
53516,112946,5
53528,112956,5
53539,112977,5
53539,112994,5
53561,113025,4
53576,113034,5
53573,113041,5
53579,113056,5
53585,113064,5
53593,113075,4
53597,113079,5
53601,113080,5
53598,113069,5
53605,113073,5
53599,113083,4
53603,113082,5
53603,113092,5
53605,113099,5
53616,113111,5
53615,113115,4
53620,113130,5
53631,113156,5
53637,113170,5
53648,113168,4
53649,113177,5
53651,113162,5
53641,113169,5
53642,113166,5
53639,113171,4
53644,113174,5
53655,113177,5
53636,113190,5
53657,113189,5
53668,113206,4
53656,113208,5
53659,113217,5
53666,113204,5
53661,113208,5
53654,113206,4
53660,113206,5
53661,113200,5
53652,113207,5
53653,113203,5
53655,113191,5
53647,113180,4
53639,113158,5
53640,113164,5
53635,113143,4
53630,113139,4
53631,113144,5
53625,113141,5
53627,113138,5
53626,113141,4
53627,113134,5
53628,113144,5
53626,113146,5
53622,113134,5
53627,113150,4
53634,113151,5
53630,113155,5
53640,113153,5
53633,113163,5
53633,113172,4
53641,113166,5
53634,113156,5
53636,113165,5
53633,113160,5
53631,113157,4
53637,113155,6
53630,113158,4
53631,113154,5
53634,113149,5
53630,113145,4
53642,113151,5
53625,113141,5
53626,113152,5
53630,113161,4
53637,113152,4
53629,113146,5
53626,113153,5
53634,113147,5
53626,113144,4
53632,113149,5
53623,113139,5
53621,113136,5
53608,113141,5
53627,113142,4
53618,113131,5
53616,113130,5
53606,113137,5
53622,113125,4
53619,113136,4
53615,113134,5
53612,113132,5
53622,113131,5
53623,113152,5
53628,113153,4
53629,113139,5
53620,113126,5
53630,113130,5
53618,113138,5
53641,113133,4
53618,113133,5
53618,113127,5
53630,113131,5
53636,113133,4
53623,113143,4
53619,113145,5
53620,113144,5
53632,113141,5
53626,113149,5
53630,113142,4
53614,113140,5
53616,113127,5
53625,113130,6
53614,113116,3
53614,113117,5
53601,113094,5
53605,113107,5
53609,113098,5
53603,113092,4
53604,113057,5
53599,113094,5
53595,113098,5
53595,113098,5
53603,113093,4
53597,113097,5
53611,113104,5
53604,113106,5
53613,113138,5
53614,113124,4
53611,113121,5
53620,113141,5
53630,113167,5
53627,113145,4
53616,113134,5
53613,113121,4
53613,113114,5
53604,113094,5
53590,113076,6
53586,113045,3
53570,113038,5
53569,113029,5
53563,113029,5
53558,113031,4
53568,113008,5
53557,113018,5
53561,113027,5
53566,113039,5
53573,113048,4
53582,113049,5
53582,113057,5
53583,113057,5
53584,113059,5
53589,113058,4
53577,113055,5
53583,113067,5
53587,113068,5
53582,113059,5
53582,113061,4
53580,113061,6
53577,113057,4
53582,113045,5
53579,113044,4
53570,113043,6
53572,113028,3
53559,113030,5
53567,113024,5
53567,113022,4
53560,113028,5
53569,113028,5
53565,113024,5
53568,113031,5
53575,113039,4
53583,113050,5
53571,113045,5
53584,113049,5
53567,113041,5
53576,113030,4
53570,113036,5
53570,113027,5
53560,113023,5
53560,113020,5
53567,113024,4
53570,113040,5
53575,113035,6
53570,113046,4
53583,113045,5
53578,113053,4
53582,113050,5
53582,113057,5
53588,113056,5
53589,113062,4
53577,113050,4
53579,113057,5
53574,113049,5
53584,113051,5
53575,113051,4
53578,113057,5
53580,113062,5
53581,113045,5
53585,113058,5
53576,113065,4
53579,113061,5
53581,113056,5
53571,113047,5
53575,113058,5
53575,113053,4
53577,113053,5
53579,113061,5
53583,113066,6
53592,113078,4
53585,113074,4
53596,113074,5
53593,113082,5
53589,113073,5
53589,113083,5
53591,113082,4
53590,113092,5
53584,113077,5
53589,113078,5
53594,113078,4
53585,113076,4
53590,113086,5
53595,113082,5
53583,113079,5
53570,113091,4
53596,113078,5
53588,113069,5
53585,113082,5
53573,113081,5
53597,113087,5
53586,113081,4
53594,113083,5
53592,113082,5
53596,113088,6
53589,113093,3
53588,113088,5
53612,113086,5
53596,113085,5
53589,113084,5
53587,113076,4
53602,113079,5
53582,113076,5
53591,113059,5
53593,113066,5
53596,113080,4
53584,113065,5
53578,113066,5
53590,113077,5
53594,113077,4
53587,113071,4
53583,113086,5
53587,113079,5
53597,113078,5
53603,113096,4
53602,113098,6
53609,113122,4
53614,113095,8
53612,113132,2
53611,113131,4
53612,113127,5
53607,113094,5
53593,113101,5
53604,113090,5
53585,113081,5
53573,113062,4
53564,113035,5
53566,113029,5
53563,113033,5
53565,113036,4
53552,113016,5
53561,113028,5
53559,113029,5
53562,113049,5
53577,113045,4
53575,113052,5
53574,113053,5
53577,113065,5
53579,113049,4
53576,113063,4
53584,113062,6
53581,113050,4
53571,113061,5
53579,113062,4
53570,113060,5
53581,113063,5
53577,113056,5
53570,113052,5
53581,113050,4
53568,113057,5
53570,113070,5
53572,113073,5
53572,113064,5
53580,113065,4
53581,113064,5
53589,113068,5
53588,113086,5
53590,113080,5
53592,113067,4
53577,113068,5
53576,113059,5
53577,113055,5
53573,113040,5
53563,113039,4
53569,113054,5
53573,113037,6
53573,113040,4
53573,113056,4
53581,113063,4
53577,113075,5
53585,113070,5
53588,113077,5
53591,113073,4
53584,113082,5
53590,113089,5
53593,113091,5
53587,113086,5
53588,113083,4
53585,113088,5
53587,113086,5
53590,113091,5
53587,113092,5
53593,113096,4
53594,113106,5
53596,113112,5
53612,113121,5
53604,113124,5
53608,113131,4
53613,113135,5
53612,113146,5
53614,113144,6
53613,113150,4
53620,113144,4
53616,113144,5
53611,113138,5
53614,113131,5
53611,113132,5
53612,113131,4
53614,113132,5
53605,113135,5
53607,113139,5
53619,113154,4
53609,113139,4
53621,113152,5
53619,113146,5
53617,113150,5
53624,113157,4
53614,113168,5
53615,113156,5
53612,113157,5
53613,113150,5
53614,113149,5
53627,113150,4
53621,113156,5
53614,113150,5
53623,113168,5
53620,113161,4
53620,113166,5
53621,113185,5
53630,113179,5
53635,113181,5
53629,113190,4
53630,113205,5
53647,113217,5
53644,113210,5
53651,113219,5
53636,113225,4
53653,113220,5
53653,113232,5
53656,113240,5
53635,113252,4
53659,113253,4
53666,113261,5
53677,113280,5
53679,113288,5
53678,113302,4
53690,113315,6
53694,113306,4
53707,113294,5
53675,113281,5
53671,113284,4
53668,113263,5
53689,113245,5
53646,113229,5
53649,113230,5
53661,113224,4
53657,113219,5
53648,113227,5
53650,113232,5
53659,113242,5
53662,113254,4
53669,113261,5
53671,113262,5
53665,113258,5
53673,113246,5
53663,113252,4
53669,113257,5
53657,113228,6
53652,113209,4
53653,113225,4
53652,113220,4
53646,113213,7
53636,113189,3
53628,113190,5
53626,113176,4
53625,113170,6
53609,113149,4
53608,113130,5
53600,113124,5
53596,113118,4
53599,113140,5
53591,113120,5
53596,113119,5
53599,113129,5
53610,113152,4
53614,113135,5
53608,113138,5
53614,113155,5
53613,113175,5
53625,113189,4
53629,113199,5
53627,113201,5
53638,113210,5
53642,113237,5
53658,113264,4
53664,113293,5
53677,113306,5
53689,113334,5
53702,113354,4
53702,113377,4
53710,113374,5
53716,113396,5
53728,113406,5
53721,113423,4
53730,113439,5
53744,113444,5
53754,113461,5
53760,113472,5
53761,113484,4
53770,113502,5
53768,113500,5
53768,113515,5
53777,113514,5
53785,113513,4
53783,113524,5
53784,113543,5
53784,113540,5
53799,113547,5
53796,113558,4
53802,113560,5
53799,113554,5
53797,113565,5
53808,113575,5
53817,113570,4
53820,113572,5
53814,113570,5
53814,113565,5
53812,113568,5
53805,113561,4
53806,113566,5
53805,113564,5
53809,113560,5
53811,113563,4
53805,113561,5
53800,113565,5
53803,113562,5
53804,113555,5
53802,113558,4
53804,113569,5
53808,113559,5
53819,113566,5
53825,113581,5
53821,113577,5
53814,113579,4
53827,113587,5
53828,113594,5
53833,113604,5
53829,113601,4
53833,113600,5
53838,113610,5
53830,113616,5
53840,113620,5
53844,113629,4
53854,113642,5
53860,113654,5
53861,113673,5
53866,113685,5
53874,113680,4
53879,113687,5
53878,113675,5
53871,113664,5
53860,113647,4
53855,113629,4
53835,113608,6
53836,113597,4
53841,113595,5
53833,113594,4
53837,113588,7
53844,113612,3
53844,113624,5
53861,113645,5
53864,113644,4
53860,113659,5
53861,113667,5
53871,113677,5
53878,113681,5
53880,113697,4
53871,113703,5
53888,113709,5
53888,113711,5
53900,113719,5
53877,113714,4
53897,113719,5
53891,113715,5
53901,113719,5
53903,113725,5
53891,113727,4
53906,113719,5
53907,113742,6
53924,113736,4
53909,113737,4
53901,113742,4
53916,113754,5
53933,113770,5
53917,113762,5
53917,113772,4
53912,113762,5
53924,113765,5
53915,113758,5
53909,113757,5
53908,113751,4
53910,113742,5
53908,113734,5
53912,113732,5
53907,113723,5
53902,113724,4
53923,113744,5
53907,113748,5
53915,113761,5
53914,113751,5
53921,113770,4
53925,113773,5
53930,113780,5
53929,113772,6
53934,113773,4
53924,113783,4
53933,113791,5
53934,113795,5
53939,113792,5
53936,113801,4
53932,113805,4
53930,113827,5
53939,113803,5
53951,113789,5
53947,113801,4
53937,113821,5
53955,113822,5
53961,113836,5
53970,113842,5
53968,113850,4
53963,113850,5
53964,113851,5
53960,113850,5
53969,113847,5
53957,113847,5
53965,113848,4
53962,113839,5
53964,113848,5
53960,113852,6
53967,113850,3
53966,113849,5
53971,113856,5
53972,113866,5
53976,113875,5
53981,113876,4
53979,113889,5
53988,113892,5
53997,113900,5
53995,113906,4
53994,113913,4
54007,113930,5
54014,113942,5
54029,113967,5
54025,113976,4
54033,113990,5
54038,113983,5
54024,113970,5
54026,113956,5
54020,113950,4
54012,113947,6
54010,113937,4
53997,113904,5
53997,113915,5
53992,113909,6
53989,113906,3
53993,113915,5
53997,113916,5
54005,113934,5
53998,113948,4
54015,113960,5
54030,113965,5
54021,113969,5
54034,113975,5
54031,113983,4
54033,113983,5
54029,113980,5
54031,113985,5
54035,113986,5
54038,113998,4
54036,113994,5
54042,113990,5
54042,113986,5
54041,113988,4
54037,113991,5
54035,113984,6
54034,113982,4
54038,113995,5
54035,113992,4
54041,113993,5
54042,114009,5
54048,114009,5
54054,114007,5
54050,114023,4
54049,114023,5
54048,114017,5
54055,114027,5
54049,114024,5
54055,114013,4
54055,114007,5
54047,114012,5
54037,114006,5
54046,114002,5
54053,114014,4
54049,114021,5
54057,114027,5
54048,114024,5
54067,114033,5
54061,114033,4
54052,114034,5
54061,114041,6
54060,114029,4
54056,114027,4
54053,114023,4
54053,114018,5
54041,114019,5
54052,114009,5
54046,114022,4
54052,114030,5
54037,114028,5
54064,114037,5
54058,114028,5
54058,114031,4
54026,114032,5
54053,114020,5
54046,114026,5
54050,114015,5
54060,114013,4
54058,114024,5
54054,114011,5
54046,114021,5
54078,114026,5
54060,114013,4
54064,114022,5
54057,114038,5
54081,114042,6
54056,114047,4
54062,114052,4
54064,114053,5
54079,114056,5
54082,114063,5
54068,114040,4
54077,114058,4
54073,114052,5
54072,114058,5
54076,114066,5
54071,114069,5
54084,114058,4
54086,114086,5
54082,114087,5
54090,114101,5
54106,114111,4
54122,114159,5
54123,114172,5
54135,114195,5
54143,114178,5
54136,114189,5
54135,114187,4
54140,114184,5
54140,114192,5
54127,114172,6
54130,114171,3
54116,114166,5
54128,114194,5
54125,114173,5
54132,114189,5
54141,114199,4
54157,114226,5
54148,114228,5
54162,114247,5
54170,114256,4
54182,114277,4
54186,114285,5
54184,114278,5
54188,114284,5
54192,114288,4
54194,114284,5
54189,114284,5
54196,114301,5
54201,114304,5
54197,114308,4
54196,114314,6
54211,114309,4
54198,114306,5
54204,114322,5
54200,114319,4
54201,114315,5
54205,114319,5
54204,114329,5
54208,114329,5
54218,114345,4
54216,114355,5
54228,114352,5
54225,114376,5
54237,114375,5
54238,114375,4
54231,114386,5
54234,114386,5
54227,114389,5
54229,114383,4
54235,114383,4
54230,114380,5
54234,114381,5
54245,114387,5
54238,114389,4
54238,114401,5
54245,114416,6
54248,114415,4
54255,114422,5
54267,114432,4
54256,114439,5
54255,114436,5
54265,114445,5
54266,114447,5
54262,114457,4
54274,114459,5
54282,114467,5
54265,114467,5
54283,114472,5
54279,114477,4
54287,114485,5
54284,114468,5
54286,114471,5
54293,114479,5
54282,114481,4
54284,114472,5
54281,114473,5
54287,114484,5
54291,114479,5
54298,114494,4
54289,114490,5
54299,114486,6
54300,114494,4
54297,114492,4
54295,114477,5
54292,114487,5
54287,114477,5
54283,114472,5
54277,114479,4
54283,114464,5
54287,114474,5
54286,114473,5
54281,114479,5
54277,114477,4
54283,114471,5
54284,114479,5
54281,114479,5
54286,114480,5
54288,114480,4
54284,114486,5
54285,114477,5
54286,114487,5
54287,114482,5
54293,114480,4
54288,114501,5
54295,114497,5
54280,114500,5
54292,114489,5
54293,114495,4
54297,114478,5
54269,114486,5
54291,114485,5
54281,114484,4
54293,114494,5
54274,114485,5
54296,114490,5
54291,114486,5
54294,114488,4
54293,114471,5
54281,114456,5
54278,114455,5
54264,114456,5
54281,114421,4
54244,114384,5
54235,114372,5
54226,114347,5
54232,114329,5
54209,114316,5
54203,114322,4
54200,114327,5
54206,114320,5
54209,114328,5
54207,114321,4
54206,114317,5
54207,114314,5
54199,114315,5
54192,114305,5
54199,114300,4
54196,114275,5
54189,114289,5
54183,114281,5
54182,114283,5
54195,114257,4
54178,114262,5
54182,114262,5
54175,114262,5
54171,114258,4
54168,114253,5
54165,114244,5
54165,114239,5
54168,114262,5
54162,114233,4
54175,114250,6
54163,114236,4
54163,114265,5
54168,114247,5
54175,114256,4
54176,114257,5
54168,114252,5
54166,114245,5
54164,114233,5
54157,114233,4
54153,114214,5
54147,114216,5
54145,114212,5
54147,114208,5
54143,114206,4
54141,114199,5
54141,114206,5
54155,114209,5
54156,114206,4
54154,114202,4
54147,114210,5
54149,114206,5
54150,114218,5
54157,114222,4
54150,114219,5
54156,114222,7
54162,114218,3
54156,114223,5
54150,114220,4
54153,114218,5
54155,114223,5
54146,114211,5
54152,114216,5
54145,114218,4
54158,114219,5
54152,114221,5
54144,114209,5
54153,114207,5
54141,114208,4
54150,114203,5
54144,114204,5
54148,114202,5
54146,114194,5
54141,114195,4
54128,114188,5
54138,114179,5
54134,114170,5
54134,114170,4
54132,114167,4
54135,114173,5
54134,114174,5
54132,114165,5
54133,114187,4
54142,114178,5
54142,114173,5
54138,114182,5
54134,114165,5
54129,114159,4
54128,114150,5
54125,114149,5
54121,114151,5
54124,114132,5
54119,114136,4
54119,114140,5
54111,114131,5
54113,114130,5
54106,114120,5
54108,114113,5
54099,114101,4
54100,114117,5
54099,114103,5
54096,114101,6
54090,114103,3
54094,114093,5
54095,114105,5
54089,114098,5
54096,114092,4
54088,114085,4
54097,114094,5
54094,114095,5
54088,114096,5
54084,114083,4
54097,114086,5
54102,114095,5
54089,114099,5
54097,114093,5
54102,114096,4
54085,114102,5
54097,114094,5
54087,114083,5
54083,114080,5
54066,114043,4
54058,114029,6
54050,114017,4
54038,113989,5
54014,113949,5
54015,113948,6
54003,113923,3
53996,113918,5
53988,113912,5
54001,113912,5
54004,113920,4
54005,113931,5
54010,113938,5
54019,113944,5
54018,113944,4
54020,113944,4
54040,113960,5
54025,113957,5
54024,113956,5
54021,113954,4
54042,113958,5
54024,113958,5
54026,113951,5
54019,113958,5
54024,113950,4
54010,113941,5
54022,113938,6
54013,113942,4
54012,113936,5
54024,113938,4
54007,113935,5
54011,113933,5
54007,113934,5
54012,113928,5
54008,113937,4
54016,113939,5
54005,113913,5
54007,113942,5
54010,113939,5
54010,113930,4
54008,113910,4
54002,113921,5
53998,113926,5
54005,113914,5
53998,113917,4
53998,113908,5
54006,113904,5
53995,113903,5
54001,113933,4
54001,113907,5
53996,113909,5
53998,113900,6
53990,113914,4
53993,113888,4
53985,113898,5
53986,113891,5
53985,113900,5
53987,113899,5
53987,113884,4
53985,113897,5
53981,113899,5
53989,113898,5
53999,113897,5
53990,113893,4
53996,113906,5
53984,113897,5
53992,113899,5
53994,113896,5
53992,113893,4
53992,113899,5
53992,113897,5
53994,113887,5
53982,113883,5
53981,113880,4
53977,113885,5
53970,113874,5
53981,113874,6
53979,113873,3
53977,113869,5
53973,113878,5
53978,113873,5
53977,113874,5
53973,113869,4
53982,113868,5
53976,113871,5
53978,113862,5
53972,113854,5
53981,113856,4
53976,113859,5
53969,113858,5
53969,113864,5
53966,113849,5
53970,113853,4
53964,113849,5
53960,113832,5
53956,113832,5
53958,113821,5
53949,113817,5
53948,113801,4
53929,113791,5
53930,113783,5
53934,113787,6
53936,113776,3
53936,113784,5
53923,113779,5
53927,113775,5
53931,113785,4
53934,113785,5
53930,113792,5
53934,113793,5
53938,113785,5
53929,113799,4
53942,113801,5
53941,113806,5
53951,113805,5
53944,113794,5
53943,113792,4
53925,113773,5
53913,113750,5
53903,113717,5
53898,113695,5
53878,113665,4
53859,113623,6
53846,113600,4
53837,113583,5
53827,113565,5
53809,113551,4
53809,113537,5
53806,113536,5
53806,113540,5
53815,113545,5
53815,113553,4
53819,113563,5
53828,113580,5
53822,113575,5
53827,113574,4
53825,113573,4
53822,113561,5
53822,113565,5
53816,113555,5
53819,113566,4
53802,113543,5
53807,113541,5
53812,113538,5
53801,113533,5
53775,113525,4
53801,113523,5
53788,113513,6
53792,113520,4
53775,113515,5
53785,113497,4
53791,113488,5
53774,113489,5
53779,113472,5
53762,113471,5
53768,113464,4
53765,113445,5
53775,113440,5
53750,113424,5
53735,113400,5
53733,113381,4
53751,113371,5
53720,113344,5
53705,113332,5
53692,113319,4
53692,113302,4
53692,113293,5
53670,113292,5
53681,113300,5
53684,113305,4
53697,113318,8
53692,113318,2
53683,113333,6
53698,113313,4
53698,113334,4
53704,113333,5
53703,113345,5
53705,113331,5
53707,113352,5
53706,113361,4
53715,113365,5
53720,113364,5
53709,113367,5
53715,113369,5
53726,113386,4
53714,113397,5
53724,113384,5
53721,113388,5
53724,113389,5
53734,113427,4
53742,113418,5
53737,113415,5
53737,113424,5
53746,113435,5
53742,113425,4
53743,113438,5
53743,113424,5
53754,113438,6
53746,113427,3
53746,113424,5
53743,113412,5
53747,113429,5
53745,113417,5
53740,113424,4
53745,113424,5
53740,113418,5
53750,113423,5
53740,113440,5
53745,113433,4
53743,113434,5
53756,113438,5
53756,113446,5
53759,113451,5
53759,113465,4
53762,113462,5
53765,113467,5
53771,113475,5
53774,113476,5
53778,113493,5
53767,113486,4
53771,113500,5
53772,113486,5
53783,113503,4
53782,113511,4
53796,113521,5
53789,113525,5
53788,113521,5
53781,113496,4
53787,113492,5
53777,113473,5
53766,113463,5
53752,113443,5
53751,113430,4
53742,113426,5
53745,113421,5
53735,113426,5
53742,113421,5
53755,113426,4
53752,113437,5
53756,113442,5
53753,113463,5
53766,113480,5
53779,113488,4
53779,113506,6
53781,113508,4
53783,113513,5
53786,113524,5
53790,113536,4
53800,113534,5
53810,113541,5
53802,113544,5
53809,113545,4
53805,113554,4
53807,113544,5
53805,113536,5
53811,113544,5
53805,113541,4
53795,113536,5
53794,113525,5
53798,113551,5
53808,113545,5
53809,113543,4
53807,113557,5
53803,113561,5
53811,113549,5
53811,113559,5
53816,113551,4
53815,113563,5
53802,113558,6
53809,113546,4
53810,113551,5
53808,113557,4
53811,113567,5
53810,113568,5
53821,113580,5
53825,113582,5
53825,113588,4
53831,113595,5
53817,113600,5
53838,113599,5
53834,113596,4
53834,113605,4
53812,113594,5
53827,113594,5
53835,113587,5
53820,113585,5
53813,113573,4
53818,113586,5
53825,113587,5
53817,113580,5
53817,113588,4
53826,113587,5
53818,113573,5
53826,113578,5
53834,113563,5
53811,113568,4
53814,113558,5
53805,113564,5
53834,113555,5
53797,113553,5
53808,113546,4
53805,113537,5
53810,113523,5
53789,113507,5
53787,113504,5
53783,113502,4
53779,113491,5
53784,113483,5
53761,113481,5
53766,113471,5
53755,113445,4
53764,113465,5
53751,113456,5
53754,113440,5
53753,113425,5
53757,113438,4
53763,113438,5
53757,113441,5
53759,113426,5
53757,113439,4
53759,113438,5
53752,113451,5
53756,113457,5
53762,113458,5
53762,113453,4
53759,113470,5
53767,113479,5
53760,113470,5
53759,113465,5
53765,113469,4
53761,113492,5
53765,113456,5
53764,113461,5
53761,113470,5
53767,113490,4
53782,113488,5
53795,113506,5
53779,113520,5
53793,113523,5
53789,113513,5
53784,113501,4
53779,113482,5
53775,113471,5
53761,113451,4
53746,113441,5
53751,113436,5
53757,113433,5
53749,113426,5
53761,113435,4
53753,113444,5
53754,113444,5
53750,113453,5
53757,113454,5
53759,113458,4
53770,113468,5
53762,113455,5
53765,113464,5
53762,113471,5
53766,113471,4
53765,113473,5
53771,113480,5
53770,113477,5
53776,113479,5
53779,113484,4
53775,113481,6
53777,113475,3
53776,113474,5
53768,113473,5
53771,113464,4
53759,113471,5
53772,113467,5
53766,113467,5
53769,113460,4
53773,113462,4
53772,113468,5
53775,113479,5
53771,113480,5
53764,113474,4
53777,113480,5
53771,113471,5
53772,113468,5
53772,113467,5
53766,113485,4
53776,113459,5
53777,113463,5
53767,113477,6
53781,113490,4
53778,113479,4
53782,113495,5
53781,113494,5
53785,113498,5
53787,113511,5
53793,113506,4
53787,113504,5
53787,113508,5
53794,113515,5
53789,113508,5
53791,113522,4
53789,113528,5
53799,113525,5
53798,113516,5
53801,113518,4
53797,113516,4
53801,113522,5
53792,113517,5
53792,113533,5
53797,113541,5
53803,113527,4
53799,113525,5
53788,113521,5
53789,113529,6
53798,113522,3
53789,113532,5
53787,113516,5
53786,113528,5
53800,113518,5
53795,113529,4
53791,113522,5
53797,113527,5
53784,113526,5
53792,113536,5
53801,113531,4
53802,113532,5
53778,113539,5
53804,113541,5
53800,113531,5
53794,113529,4
53786,113532,5
53798,113533,5
53797,113534,5
53807,113535,4
53806,113533,5
53801,113545,4
53811,113561,5
53819,113580,5
53846,113596,6
53833,113607,3
53837,113609,5
53832,113600,5
53865,113603,5
53833,113603,4
53824,113595,5
53823,113587,5
53825,113572,5
53821,113568,5
53813,113565,4
53810,113561,5
53820,113570,5
53811,113574,5
53824,113577,5
53829,113590,4
53833,113590,5
53829,113612,5
53839,113618,5
53850,113626,5
53852,113619,4
53848,113644,6
53855,113645,4
53859,113658,5
53865,113642,4
53860,113656,4
53859,113662,5
53855,113666,5
53866,113683,5
53871,113672,4
53866,113672,5
53859,113660,5
53863,113688,5
53864,113658,5
53868,113671,4
53863,113672,5
53860,113680,5
53874,113684,5
53875,113690,5
53882,113699,4
53873,113718,5
53889,113712,5
53890,113715,5
53898,113736,5
53895,113737,4
53894,113733,5
53896,113742,6
53904,113741,4
53904,113734,5
53904,113735,4
53897,113741,5
53901,113741,5
53912,113743,5
53909,113756,4
53915,113751,4
53906,113761,5
53919,113768,5
53916,113771,5
53916,113769,4
53922,113777,5
53915,113773,5
53915,113775,5
53924,113771,5
53922,113781,4
53926,113788,5
53925,113797,5
53939,113807,5
53938,113804,5
53939,113827,4
53945,113833,5
53958,113838,5
53951,113844,6
53944,113849,4
53954,113843,4
53951,113843,5
53953,113841,5
53953,113831,5
53940,113821,5
53944,113835,4
53953,113834,5
53951,113826,5
53952,113823,5
53943,113840,4
53951,113840,4
53953,113835,5
53961,113844,5
53961,113848,5
53965,113852,4
53962,113860,5
53970,113866,5
53975,113869,5
53970,113879,5
53978,113884,5
53977,113900,4
53984,113920,5
53997,113927,5
53997,113943,6
53998,113944,3
54003,113936,5
53996,113928,5
53991,113923,5
53997,113921,5
53994,113915,4
53986,113901,5
53984,113902,5
53988,113888,5
53981,113888,5
53980,113900,4
53986,113910,5
53986,113917,5
53997,113938,5
54007,113946,4
54016,113952,4
54011,113964,5
54010,113969,5
54020,113962,5
54016,113959,4
54017,113969,6
54016,113966,4
54021,113962,5
54028,113979,5
54019,113982,4
54029,113978,5
54021,113987,5
54031,113985,5
54018,113990,5
54026,113983,4
54023,113991,5
54027,113990,5
54011,113987,5
54029,113996,5
54038,114001,4
54036,114007,5
54020,114026,5
54038,114024,5
54044,114018,5
54042,114023,4
54047,114018,5
54042,114019,5
54042,114025,5
54048,114031,4
54061,114025,4
54040,114021,6
54040,114025,4
54055,114040,5
54078,114040,4
54057,114051,5
54063,114056,5
54068,114073,5
54082,114077,5
54072,114074,4
54081,114095,5
54069,114083,5
54081,114092,5
54077,114098,5
54085,114102,4
54080,114102,5
54087,114092,5
54093,114116,5
54099,114127,5
54103,114133,4
54102,114126,5
54104,114146,5
54108,114156,5
54108,114159,5
54099,114140,4
54110,114147,5
54113,114149,6
54110,114157,4
54117,114165,4
54101,114150,4
54115,114151,5
54112,114148,5
54113,114164,5
54104,114143,4
54118,114146,5
54110,114157,5
54109,114168,5
54107,114163,5
54110,114151,4
54107,114143,5
54108,114150,5
54112,114146,5
54101,114137,5
54105,114126,4
54095,114130,5
54092,114115,5
54090,114112,5
54076,114097,5
54077,114087,4
54080,114082,5
54075,114076,5
54073,114080,6
54068,114081,4
54070,114082,4
54076,114105,5
54085,114097,5
54080,114104,5
54085,114092,4
54083,114101,4
54074,114086,5
54075,114082,5
54070,114071,5
54072,114060,4
54059,114035,5
54042,114013,5
54034,113989,5
54021,113982,5
54022,113979,4
54025,113986,5
54028,113997,5
54034,114018,5
54049,114021,5
54051,114031,5
54061,114051,4
54064,114057,5
54055,114045,5
54057,114050,5
54068,114046,4
54048,114036,5
54043,114031,5
54049,114028,5
54048,114030,5
54050,114034,4
54055,114032,5
54055,114028,5
54046,114027,5
54053,114042,4
54050,114048,4
54052,114048,5
54057,114049,5
54052,114058,5
54066,114054,4
54066,114048,5
54066,114059,5
54066,114067,5
54065,114072,5
54073,114085,4
54082,114099,6
54078,114094,4
54079,114092,5
54077,114079,5
54081,114077,4
54072,114056,5
54058,114056,5
54067,114070,5
54066,114068,5
54073,114070,4
54078,114080,5
54086,114085,5
54086,114093,5
54082,114089,5
54089,114106,4
54090,114105,5
54085,114114,5
54094,114120,5
54089,114110,4
54096,114108,4
54092,114113,5
54094,114125,5
54098,114133,5
54104,114128,4
54098,114129,5
54103,114134,6
54103,114143,4
54106,114137,5
54086,114144,4
54111,114150,5
54103,114154,5
54113,114156,5
54083,114141,5
54111,114154,4
54118,114152,5
54116,114165,5
54111,114174,5
54124,114181,5
54128,114183,4
54133,114191,5
54138,114199,5
54146,114195,5
54141,114215,5
54141,114218,4
54180,114226,5
54160,114240,5
54158,114256,5
54166,114272,4
54190,114280,4
54187,114299,5
54195,114316,5
54193,114322,5
54209,114331,4
54203,114346,5
54211,114357,5
54217,114352,5
54211,114352,5
54211,114357,4
54215,114365,5
54215,114356,5
54215,114327,5
54207,114332,5
54203,114321,4
54196,114313,5
54188,114299,5
54195,114311,5
54196,114326,5
54204,114349,5
54210,114362,4
54223,114360,5
54222,114379,5
54225,114381,6
54230,114391,3
54224,114369,5
54227,114380,5
54228,114382,5
54222,114400,4
54221,114383,4
54235,114383,5
54234,114401,5
54234,114409,5
54233,114396,4
54229,114399,5
54235,114403,5
54229,114403,5
54234,114394,5
54239,114399,4
54233,114397,5
54233,114395,5
54228,114382,5
54233,114374,5
54238,114376,4
54218,114380,5
54228,114378,5
54223,114373,5
54225,114375,5
54206,114355,5
54212,114357,3
54203,114352,5
54212,114335,5
54209,114346,5
54207,114352,4
54224,114365,5
54227,114361,5
54222,114358,5
54213,114367,4
54222,114366,4
54217,114359,5
54221,114355,5
54213,114362,5
54223,114355,4
54213,114360,5
54209,114355,5
54210,114364,5
54217,114356,5
54212,114339,4
54204,114343,5
54200,114342,6
54195,114333,4
54202,114329,5
54197,114330,4
54201,114316,7
54203,114318,3
54190,114322,5
54194,114320,5
54195,114321,4
54195,114318,5
54192,114315,5
54196,114322,5
54202,114318,5
54194,114319,4
54191,114313,5
54189,114321,5
54196,114321,5
54191,114310,4
54192,114307,4
54191,114315,5
54194,114305,5
54190,114309,5
54189,114305,4
54194,114293,5
54179,114301,5
54181,114285,6
54178,114291,4
54185,114293,4
54187,114300,5
54183,114283,5
54180,114292,5
54183,114277,5
54177,114277,4
54172,114278,5
54178,114269,5
54173,114271,5
54176,114265,5
54164,114258,4
54160,114253,5
54162,114245,5
54163,114254,5
54160,114252,5
54155,114247,4
54163,114246,5
54163,114237,5
54153,114243,5
54150,114227,5
54156,114226,4
54130,114223,5
54147,114221,5
54145,114217,6
54139,114198,3
54120,114204,5
54135,114202,5
54135,114197,5
54131,114190,5
54117,114186,4
54129,114182,5
54127,114171,5
54126,114177,5
54120,114163,5
54117,114155,4
54106,114143,5
54106,114144,5
54124,114145,5
54109,114145,5
54106,114143,4
54106,114134,5
54130,114142,5
54106,114144,5
54114,114146,5
54107,114159,5
54116,114154,4
54119,114166,5
54116,114167,5
54117,114160,6
54124,114156,3
54127,114164,5
54114,114146,5
54107,114142,5
54091,114103,4
54095,114108,5
54078,114077,5
54073,114058,5
54059,114023,5
54051,114034,4
54059,114028,5
54046,114028,5
54056,114011,5
54047,114038,5
54061,114037,4
54063,114047,5
54069,114075,5
54081,114060,5
54069,114061,5
54062,114059,4
54059,114065,6
54062,114052,4
54055,114049,5
54057,114041,5
54059,114069,4
54066,114062,5
54068,114055,5
54065,114056,5
54065,114060,4
54069,114062,4
54066,114049,5
54058,114037,5
54059,114035,5
54053,114044,4
54051,114039,5
54062,114019,5
54054,114028,5
54058,114037,5
54056,114033,4
54044,114038,5
54055,114021,5
54045,114031,5
54040,114025,5
54035,114017,4
54036,114013,5
54023,113993,6
54031,113987,4
54030,113972,5
54022,113969,4
54019,113957,5
54012,113974,5
54028,113971,5
54026,113974,5
54027,113969,4
54020,113974,5
54031,113976,5
54021,113965,5
54024,113974,5
54023,113973,4
54026,113975,5
54026,113976,5
54029,113983,5
54031,113981,4
54024,113986,5
54028,113973,5
54030,113972,5
54019,113973,5
54026,113987,4
54028,113975,5
54021,113989,5
54033,113982,6
54020,113975,4
54025,113978,4
54022,113980,5
54022,113972,5
54019,113966,5
54023,113956,5
54012,113957,4
54016,113963,5
54016,113965,5
54015,113966,5
54019,113969,5
54011,113965,4
54016,113971,5
54016,113974,5
54025,113975,5
54016,113979,5
54021,113976,4
54025,113969,5
54026,113977,5
54018,113980,5
54017,113975,5
54016,113968,4
54011,113956,5
54003,113952,5
54013,113949,6
54006,113947,3
54000,113933,5
54000,113929,5
54006,113931,5
54004,113933,5
53994,113937,4
53996,113941,5
53998,113939,5
54001,113933,5
54004,113939,5
54005,113942,4
53998,113935,5
54003,113936,5
54003,113937,5
54006,113928,5
53997,113939,4
54006,113944,5
53997,113941,5
54007,113950,5
54008,113950,5
54006,113944,5
53979,113937,4
53994,113934,5
53985,113920,5
53989,113915,4
53979,113881,4
53979,113871,5
53971,113862,5
53963,113861,5
53972,113861,4
53967,113862,5
53960,113869,5
53959,113869,5
53986,113875,5
53962,113894,4
53973,113894,5
53970,113885,5
53994,113879,5
53978,113889,5
53977,113876,4
53971,113884,5
53975,113880,5
53972,113883,5
53972,113883,7
53966,113886,2
53994,113878,6
53968,113883,4
53977,113886,5
53976,113871,5
53971,113845,4
53965,113865,5
53961,113861,5
53964,113859,5
53964,113834,4
53971,113851,4
53957,113856,5
53970,113868,5
53960,113865,5
53969,113864,4
53952,113860,5
53957,113845,5
53955,113848,5
53946,113833,5
53940,113816,4
53935,113823,5
53936,113820,5
53931,113798,5
53932,113799,5
53930,113796,4
53927,113811,5
53935,113801,6
53937,113794,4
53930,113785,5
53916,113780,4
53915,113771,5
53920,113769,5
53907,113766,5
53904,113748,5
53911,113750,4
53913,113754,5
53912,113743,5
53900,113737,5
53908,113737,4
53897,113737,4
53893,113732,5
53898,113723,5
53893,113722,5
53886,113720,4
53886,113717,5
53891,113714,5
53891,113714,5
53879,113714,5
53888,113713,4
53885,113700,5
53890,113714,5
53889,113716,6
53890,113723,4
53891,113713,4
53893,113715,5
53888,113706,5
53888,113717,5
53893,113708,5
53891,113715,4
53890,113712,5
53881,113706,5
53883,113707,5
53891,113701,5
53880,113693,4
53881,113690,5
53886,113701,5
53880,113697,5
53877,113692,4
53877,113694,4
53879,113697,5
53882,113698,5
53882,113695,5
53878,113700,5
53879,113691,4
53883,113708,5
53883,113696,5
53876,113696,5
53873,113688,4
53878,113684,5
53869,113691,5
53884,113689,5
53882,113695,5
53867,113691,4
53877,113691,5
53876,113688,5
53880,113698,5
53879,113705,5
53887,113713,4
53889,113721,5
53890,113736,5
53899,113735,5
53900,113755,5
53900,113734,4
53901,113736,5
53892,113721,5
53880,113711,5
53878,113696,4
53869,113668,5
53874,113686,4
53861,113687,5
53863,113671,5
53865,113667,4
53865,113670,5
53874,113677,5
53868,113679,5
53878,113686,5
53879,113685,4
53881,113694,5
53876,113698,5
53883,113692,5
53869,113697,5
53885,113691,4
53874,113696,5
53877,113703,5
53863,113704,5
53879,113700,5
53876,113705,4
53878,113695,5
53862,113697,5
53870,113698,5
53876,113691,5
53875,113697,4
53874,113686,6
53877,113694,4
53876,113684,5
53876,113685,4
53886,113676,4
53870,113691,5
53877,113693,5
53871,113689,5
53895,113673,4
53873,113678,5
53866,113667,5
53864,113657,5
53858,113646,5
53861,113644,4
53848,113638,5
53852,113640,5
53851,113651,5
53857,113656,5
53862,113662,4
53861,113674,5
53871,113657,5
53867,113678,5
53880,113681,5
53867,113681,4
53865,113664,5
53867,113684,5
53879,113692,5
53861,113698,5
53869,113682,4
53869,113686,5
53873,113682,5
53872,113679,5
53869,113696,4
53866,113681,5
53871,113681,5
53871,113686,5
53874,113706,5
53876,113692,4
53873,113687,5
53877,113684,5
53878,113706,5
53875,113690,5
53874,113688,4
53868,113689,4
53877,113696,5
53876,113683,5
53878,113688,5
53878,113681,3
53869,113677,5
53873,113676,5
53859,113680,5
53869,113683,5
53870,113673,4
53860,113678,5
53863,113669,5
53869,113669,5
53874,113680,5
53866,113672,4
53861,113667,5
53861,113654,5
53853,113658,5
53849,113644,4
53850,113646,5
53852,113638,5
53843,113645,5
53838,113630,5
53851,113631,4
53844,113627,6
53844,113629,4
53836,113628,5
53836,113617,5
53842,113623,6
53839,113619,3
53842,113618,5
53840,113619,5
53835,113616,5
53834,113612,4
53833,113616,5
53825,113614,5
53840,113617,5
53831,113607,5
53838,113612,4
53828,113619,5
53834,113620,5
53844,113622,5
53836,113650,4
53845,113642,4
53848,113641,5
53852,113650,5
53858,113658,5
53843,113629,4
53847,113627,5
53835,113612,6
53824,113585,4
53811,113565,5
53802,113555,4
53802,113548,7
53801,113535,3
53793,113531,5
53791,113535,5
53804,113546,4
53803,113547,5
53801,113552,5
53810,113567,5
53813,113567,5
53818,113576,4
53813,113574,5
53809,113575,5
53821,113580,5
53822,113584,5
53814,113599,4
53821,113584,5
53821,113597,5
53824,113596,5
53821,113589,4
53821,113593,4
53822,113590,5
53814,113595,6
53819,113592,4
53820,113585,4
53826,113580,5
53817,113588,5
53808,113595,5
53810,113592,5
53823,113599,4
53808,113589,5
53827,113611,5
53822,113606,5
53826,113594,5
53804,113592,4
53821,113585,5
53820,113578,5
53818,113580,5
53794,113569,5
53817,113571,4
53809,113562,5
53812,113563,5
53817,113567,5
53798,113566,5
53809,113569,4
53807,113563,5
53825,113575,5
53812,113573,6
53810,113565,3
53808,113570,4
53833,113565,5
53813,113575,5
53815,113579,5
53817,113581,4
53815,113576,5
53809,113582,5
53812,113587,5
53819,113593,5
53821,113594,4
53823,113601,5
53818,113591,5
53824,113602,5
53825,113588,5
53826,113595,4
53829,113608,5
53824,113602,5
53824,113586,5
53820,113592,5
53820,113592,5
53825,113600,4
53820,113580,5
53818,113596,5
53817,113602,6
53823,113587,4
53825,113602,4
53830,113602,5
53823,113601,5
53829,113610,4
53820,113623,4
53828,113601,5
53833,113613,5
53834,113604,5
53837,113630,4
53839,113621,5
53838,113618,5
53834,113637,5
53846,113636,5
53836,113636,4
53835,113630,5
53840,113623,5
53842,113614,5
53836,113620,5
53829,113623,4
53837,113616,6
53839,113631,4
53829,113625,5
53838,113634,5
53837,113648,4
53850,113652,5
53848,113658,5
53851,113660,5
53859,113658,5
53857,113658,4
53858,113659,5
53848,113652,5
53842,113649,5
53843,113632,4
53835,113616,4
53827,113605,5
53830,113608,5
53827,113607,5
53816,113603,4
53828,113613,5
53830,113617,5
53835,113625,5
53839,113640,5
53839,113655,4
53846,113649,5
53847,113649,6
53851,113649,4
53852,113657,5
53850,113666,4
53848,113668,5
53859,113662,5
53858,113673,5
53865,113680,5
53863,113678,4
53864,113676,5
53861,113677,5
53858,113678,5
53860,113672,5
53864,113662,4
53858,113674,5
53862,113681,5
53857,113675,5
53863,113671,5
53862,113681,4
53865,113691,5
53870,113696,5
53876,113703,5
53873,113700,4
53874,113693,5
53877,113698,5
53875,113702,6
53872,113695,4
53874,113697,4
53877,113697,5
53868,113682,5
53868,113699,5
53878,113707,5
53881,113715,4
53881,113726,5
53883,113719,5
53892,113722,5
53896,113736,5
53894,113735,4
53892,113744,5
53893,113748,5
53898,113739,5
53895,113748,5
53894,113749,4
53894,113746,5
53893,113757,5
53895,113751,5
53899,113754,5
53891,113755,4
53902,113751,5
53892,113751,5
53906,113753,6
53900,113755,3
53900,113761,4
53882,113761,5
53904,113749,5
53893,113746,5
53895,113738,4
53871,113741,5
53897,113733,5
53886,113736,5
53894,113730,5
53874,113726,4
53889,113733,5
53883,113716,5
53884,113713,5
53885,113712,5
53875,113703,4
53867,113685,5
53865,113686,5
53883,113659,5
53865,113663,5
53847,113660,5
53847,113641,4
53862,113623,5
53839,113617,5
53848,113637,5
53847,113648,4
53850,113640,5
53853,113650,5
53847,113646,5
53850,113647,4
53840,113633,9
53837,113628,5
53834,113615,5
53825,113597,4
53812,113553,5
53798,113553,5
53799,113532,5
53790,113542,5
53790,113517,4
53791,113540,5
53789,113538,5
53803,113552,5
53802,113556,5
53806,113568,4
53813,113573,6
53812,113580,4
53824,113600,5
53811,113562,5
53813,113562,4
53814,113567,5
53809,113586,5
53805,113571,5
53801,113563,5
53803,113546,4
53793,113551,5
53791,113525,5
53784,113503,5
53767,113495,4
53769,113479,5
53752,113464,5
53750,113463,5
53750,113440,5
53744,113445,4
53745,113439,5
53747,113447,5
53754,113449,5
53754,113468,5
53759,113454,4
53749,113439,5
53748,113437,6
53734,113410,4
53728,113407,5
53710,113380,4
53700,113351,5
53692,113326,5
53697,113322,5
53687,113341,5
53703,113339,4
53696,113342,5
53690,113319,5
53690,113305,5
53675,113289,5
53671,113291,4
53667,113281,5
53661,113257,5
53654,113247,5
53649,113242,4
53652,113251,4
53648,113245,5
53660,113271,5
53665,113256,5
53668,113261,4
53667,113259,5
53650,113255,5
53653,113257,5
53640,113241,5
53642,113222,4
53633,113229,5
53637,113212,5
53629,113209,5
53637,113224,5
53647,113238,4
53643,113245,5
53661,113270,5
53660,113288,5
53675,113288,5
53669,113292,4
53668,113294,5
53674,113277,5
53675,113290,5
53680,113295,5
53674,113315,4
53687,113316,5
53688,113329,5
53688,113338,5
53692,113347,5
53708,113352,4
53717,113378,5
53721,113409,5
53745,113430,5
53765,113475,4
53776,113504,5
53791,113537,5
53797,113558,5
53806,113579,5
53821,113606,4
53834,113608,5
53839,113614,5
53838,113619,5
53841,113636,5
53856,113649,4
53849,113655,5
53861,113671,5
53876,113707,5
53892,113728,5
53909,113757,4
53924,113787,5
53931,113806,5
53942,113825,5
53945,113845,5
53962,113868,5
53972,113880,4
53979,113901,5
53971,113908,5
53993,113924,4
53991,113932,4
53997,113934,5
53983,113941,5
53998,113943,5
53996,113942,4
53995,113957,5
53998,113957,5
54009,113953,5
54004,113961,5
54015,113964,4
54029,113970,5
54019,113971,5
54021,113980,5
54021,113986,5
54051,113996,4
54036,114012,5
54034,114002,6
54033,114009,4
54049,114022,5
54042,114018,4
54044,114019,6
54042,114019,4
54038,114013,5
54032,114016,5
54040,114022,4
54044,114030,5
54052,114032,5
54048,114051,5
54060,114046,4
54053,114053,4
54052,114036,5
54056,114056,5
54060,114070,5
54065,114083,4
54065,114070,5
54077,114104,5
54074,114091,5
54086,114114,5
54100,114127,4
54099,114139,5
54100,114142,5
54105,114154,5
54107,114170,4
54107,114156,4
54113,114154,5
54115,114165,5
54103,114191,5
54108,114168,5
54109,114159,4
54117,114174,5
54113,114178,5
54123,114187,5
54119,114182,5
54124,114194,4
54131,114199,5
54124,114209,5
54123,114201,5
54142,114210,4
54139,114211,4
54141,114217,5
54143,114222,5
54149,114220,5
54144,114233,5
54146,114244,4
54146,114238,5
54151,114240,5
54157,114238,6
54151,114250,3
54162,114260,5
54166,114263,5
54167,114268,5
54160,114279,5
54182,114294,4
54181,114304,5
54170,114295,5
54177,114300,5
54179,114293,5
54175,114297,4
54170,114290,5
54176,114280,5
54158,114263,5
54171,114257,5
54157,114261,4
54155,114266,5
54169,114287,5
54186,114296,5
54187,114306,4
54192,114333,5
54206,114345,4
54217,114356,5
54217,114352,5
54224,114363,6
54221,114371,3
54215,114379,5
54216,114377,5
54225,114385,5
54222,114388,4
54232,114385,5
54235,114397,5
54237,114405,5
54239,114396,5
54234,114405,4
54239,114404,5
54234,114408,5
54227,114406,5
54236,114401,5
54231,114401,4
54236,114403,5
54233,114407,5
54236,114418,5
54237,114415,5
54255,114429,4
54252,114432,6
54261,114441,4
54263,114444,5
54255,114436,4
54251,114434,6
54252,114435,3
54252,114420,5
54253,114428,5
54246,114440,4
54258,114438,5
54256,114444,5
54256,114447,5
54261,114452,5
54259,114450,4
54262,114445,5
54261,114442,5
54249,114448,5
54261,114447,5
54255,114437,4
54252,114438,5
54252,114453,5
54253,114448,5
54241,114446,5
54246,114438,4
54260,114443,5
54254,114463,6
54263,114456,4
54248,114465,5
54257,114459,4
54269,114463,5
54274,114472,5
54247,114475,5
54269,114462,5
54269,114461,4
54266,114463,5
54271,114469,5
54264,114469,5
54272,114467,4
54272,114476,4
54291,114467,5
54266,114477,5
54273,114477,5
54271,114475,4
54293,114461,5
54264,114468,5
54267,114467,5
54262,114459,5
54273,114458,4
54263,114449,5
54253,114450,5
54258,114444,6
54263,114437,4
54250,114424,4
54244,114422,5
54247,114421,5
54239,114409,5
54237,114420,5
54243,114429,4
54246,114430,5
54241,114404,5
54249,114430,5
54238,114418,5
54243,114415,4
54241,114398,5
54239,114406,5
54239,114401,5
54225,114376,4
54224,114392,4
54223,114368,5
54216,114355,5
54199,114351,5
54202,114355,5
54190,114298,4
54159,114247,5
54154,114221,5
54121,114206,6
54113,114160,3
54118,114144,5
54105,114138,5
54095,114141,5
54109,114150,5
54111,114164,4
54115,114163,5
54125,114170,5
54116,114171,5
54109,114166,5
54111,114152,4
54102,114163,5
54103,114141,5
54102,114137,5
54102,114127,5
54104,114143,4
54099,114142,5
54100,114136,5
54092,114122,5
54087,114105,4
54076,114074,5
54079,114069,4
54045,114037,5
54046,114012,5
54026,113989,4
54017,113979,5
54019,113967,5
54022,113959,5
54016,113950,5
54001,113953,4
54009,113951,5
54003,113939,5
53998,113932,5
54003,113936,5
53987,113929,4
53987,113930,5
53995,113927,5
53994,113925,5
53998,113925,5
53990,113927,4
54002,113928,5
53992,113939,5
54001,113940,5
54001,113934,5
53998,113935,4
53999,113927,6
53987,113912,4
53981,113911,5
53976,113900,4
53985,113893,4
53975,113892,5
53976,113893,5
53978,113893,5
53982,113898,4
53981,113895,5
53976,113902,5
53985,113914,5
53990,113905,5
53986,113907,4
53982,113906,5
53985,113911,5
53986,113905,5
53983,113918,5
53993,113920,4
53991,113922,5
53990,113933,5
53993,113921,5
54001,113937,5
53997,113932,4
53995,113933,5
53992,113928,6
53993,113928,4
54003,113942,5
53998,113931,4
53998,113935,5
53997,113934,5
54009,113950,5
54005,113931,4
53995,113936,4
53993,113931,5
53988,113930,5
53994,113927,5
53993,113935,4
53995,113938,5
53995,113928,5
53991,113933,5
53996,113929,5
53989,113928,4
53986,113938,5
54008,113936,5
53995,113940,5
53999,113938,5
53972,113938,4
54001,113939,5
53995,113942,5
53999,113939,6
53971,113940,4
53996,113930,4
53987,113934,5
54003,113931,5
54013,113935,5
53992,113931,5
54003,113939,4
53998,113945,5
54022,113937,5
53992,113952,5
54000,113955,5
54012,113967,4
54029,113950,5
54004,113943,5
54002,113941,5
53992,113945,4
53993,113919,4
53988,113900,5
53973,113884,7
53959,113860,3
53959,113844,5
53953,113851,4
53945,113839,5
53947,113852,5
53952,113837,5
53960,113857,4
53961,113865,5
53967,113870,5
53975,113842,5
53963,113859,5
53954,113863,5
53955,113874,4
53962,113868,5
53966,113869,5
53963,113875,5
53963,113864,4
53966,113890,5
53962,113871,5
53968,113876,5
53966,113870,5
53957,113881,4
53960,113852,5
53955,113856,5
53946,113843,5
53955,113858,4
53948,113839,5
53938,113842,4
53953,113833,5
53948,113840,5
53945,113837,4
53942,113843,5
53950,113840,5
53951,113849,5
53944,113840,5
53942,113824,4
53933,113813,5
53930,113812,5
53928,113806,5
53934,113818,5
53934,113811,4
53941,113819,5
53936,113810,5
53934,113824,5
53939,113835,5
53933,113828,4
53948,113825,5
53947,113824,5
53941,113815,5
53938,113836,5
53940,113823,4
53941,113820,6
53944,113825,4
53939,113818,5
53937,113829,4
53934,113828,4
53937,113820,5
53942,113823,5
53934,113812,5
53937,113820,4
53929,113811,5
53937,113808,5
53930,113818,5
53924,113811,5
53926,113797,4
53930,113806,5
53930,113797,5
53928,113789,5
53913,113780,5
53915,113779,4
53914,113790,5
53911,113783,5
53913,113780,5
53919,113790,5
53926,113776,4
53919,113791,5
53914,113791,6
53926,113795,4
53923,113786,5
53922,113785,4
53921,113794,5
53919,113788,5
53921,113777,5
53920,113770,5
53912,113777,4
53913,113769,5
53917,113767,5
53900,113760,5
53907,113759,4
53905,113753,5
53902,113743,5
53902,113739,5
53893,113736,5
53900,113736,4
53895,113734,5
53894,113727,5
53895,113731,5
53898,113736,5
53891,113721,4
53882,113725,5
53890,113721,5
53886,113721,5
53890,113725,5
53893,113725,4
53893,113728,5
53890,113732,5
53894,113731,5
53890,113712,5
53885,113725,4
53891,113723,5
53877,113716,5
53885,113705,5
53882,113698,5
53875,113699,4
53861,113704,5
53871,113696,5
53882,113694,5
53883,113705,4
53855,113706,4
53876,113688,5
53872,113678,5
53870,113677,5
53854,113670,5
53861,113646,4
53843,113624,5
53832,113612,5
53855,113609,5
53836,113618,4
53835,113607,5
53840,113613,5
53864,113621,5
53844,113628,5
53839,113622,4
53837,113646,5
53861,113651,5
53853,113651,5
53857,113649,5
53851,113636,4
53852,113635,5
53848,113647,5
53844,113646,5
53851,113652,5
53854,113638,4
53855,113666,6
53846,113660,4
53856,113665,5
53863,113644,4
53858,113654,6
53859,113660,3
53855,113654,5
53856,113644,5
53853,113655,4
53853,113660,5
53851,113670,4
53856,113669,5
53854,113679,5
53862,113689,4
53857,113673,5
53866,113697,5
53862,113679,5
53858,113664,5
53849,113671,4
53855,113680,5
53861,113665,5
53853,113667,5
53862,113669,5
53864,113694,4
53865,113686,5
53864,113687,6
53865,113700,4
53873,113698,5
53876,113684,4
53868,113688,5
53867,113685,5
53865,113703,5
53874,113698,4
53876,113694,4
53885,113699,5
53874,113707,5
53880,113716,5
53891,113714,4
53881,113726,5
53876,113722,5
53878,113724,5
53878,113722,5
53888,113718,4
53882,113720,5
53878,113713,5
53882,113720,5
53882,113718,5
53882,113712,4
53878,113713,5
53882,113714,5
53879,113716,6
53874,113700,4
53874,113708,4
53868,113710,5
53877,113708,5
53878,113704,5
53876,113701,5
53872,113702,4
53869,113704,5
53870,113687,5
53868,113691,5
53877,113694,4
53860,113693,4
53866,113683,5
53863,113682,5
53865,113680,5
53867,113674,4
53858,113665,5
53863,113665,5
53853,113662,5
53847,113660,5
53860,113661,5
53853,113661,4
53853,113661,5
53855,113664,5
53842,113658,6
53856,113663,3
53849,113657,5
53859,113667,5
53859,113665,5
53850,113674,5
53850,113661,4
53844,113655,5
53840,113648,5
53838,113639,5
53838,113635,5
53833,113635,4
53844,113637,5
53838,113641,5
53843,113641,5
53840,113633,5
53837,113636,4
53845,113645,5
53839,113642,5
53842,113644,5
53843,113643,4
53844,113631,6
53840,113646,4
53845,113646,5
53849,113650,5
53843,113662,6
53851,113664,3
53851,113668,5
53856,113667,5
53863,113673,5
53850,113661,4
53850,113646,5
53840,113640,5
53830,113629,5
53822,113602,5
53809,113571,4
53818,113566,5
53786,113555,5
53795,113546,5
53789,113537,5
53792,113536,4
53764,113539,5
53791,113547,5
53794,113548,5
53791,113553,5
53802,113570,4
53799,113562,6
53804,113560,4
53804,113559,5
53821,113569,4
53800,113572,4
53799,113569,5
53797,113568,5
53828,113565,5
53808,113560,4
53795,113559,5
53792,113553,5
53798,113544,5
53790,113523,5
53774,113521,4
53776,113507,5
53771,113495,5
53772,113489,5
53756,113485,5
53758,113482,4
53755,113470,5
53758,113483,5
53753,113459,5
53746,113449,5
53738,113430,4
53734,113435,5
53732,113410,6
53725,113394,4
53711,113369,5
53708,113368,4
53695,113358,5
53696,113358,5
53699,113373,5
53703,113371,4
53703,113373,4
53699,113386,5
53713,113403,5
53716,113388,5
53716,113400,4
53715,113406,5
53721,113426,5
53727,113423,5
53736,113424,5
53732,113443,4
53729,113446,5
53736,113442,5
53742,113450,5
53751,113459,5
53740,113449,4
53738,113452,5
53744,113453,5
53747,113450,6
53746,113457,4
53744,113465,4
53760,113474,5
53760,113476,5
53764,113490,5
53757,113485,5
53760,113490,4
53767,113496,5
53764,113498,5
53754,113489,5
53766,113488,4
53764,113497,4
53768,113498,5
53761,113502,5
53770,113510,5
53774,113516,4
53763,113518,5
53778,113516,5
53771,113513,5
53783,113514,5
53789,113517,5
53782,113519,4
53776,113526,5
53788,113522,5
53782,113539,6
53774,113542,3
53788,113543,5
53791,113554,5
53792,113542,5
53794,113550,5
53794,113563,4
53795,113563,5
53801,113566,5
53802,113572,5
53806,113573,5
53804,113576,4
53809,113594,5
53817,113605,5
53820,113621,5
53833,113627,4
53832,113634,4
53829,113628,5
53835,113625,5
53825,113630,5
53831,113621,4
53820,113602,6
53811,113589,4
53805,113579,5
53816,113570,5
53807,113590,4
53800,113586,5
53808,113584,5
53812,113596,5
53819,113605,5
53825,113620,4
53832,113635,5
53825,113646,5
53842,113645,5
53835,113639,5
53845,113655,4
53839,113658,5
53848,113663,5
53857,113671,5
53859,113680,5
53867,113693,4
53868,113712,5
53865,113700,5
53865,113698,5
53872,113696,5
53871,113703,4
53863,113702,6
53864,113693,4
53861,113702,5
53869,113701,4
53874,113713,5
53882,113721,5
53880,113731,5
53873,113738,5
53888,113741,4
53893,113735,5
53898,113737,5
53880,113755,5
53906,113742,5
53896,113733,4
53899,113747,5
53875,113744,5
53891,113746,5
53896,113759,5
53904,113772,4
53909,113786,5
53908,113787,5
53917,113809,5
53922,113823,4
53956,113835,4
53937,113838,5
53936,113838,6
53938,113840,4
53972,113845,5
53932,113835,4
53938,113850,5
53952,113849,5
53960,113859,9
53955,113877,5
53964,113881,5
53966,113886,5
53962,113892,5
53969,113899,4
53972,113904,5
53971,113919,5
53981,113920,5
53984,113932,5
53994,113938,4
53991,113958,5
53998,113929,5
54002,113958,5
54003,113975,5
54010,113978,4
54003,113971,5
54007,113970,5
54005,113971,5
54001,113969,5
54008,113978,4
54002,113981,5
54015,113979,5
54013,113983,5
54017,114016,5
54023,113992,4
54021,114004,5
54019,114000,5
54018,114026,5
54021,114005,4
54029,114004,4
54020,114013,5
54030,114025,5
54040,114041,5
54038,114036,4
54047,114042,5
54047,114058,5
54054,114049,5
54053,114043,5
54049,114049,5
54046,114034,4
54044,114042,5
54042,114031,5
54032,114027,5
54033,114035,4
54039,114023,5
54036,114031,5
54043,114037,5
54048,114055,5
54051,114071,4
54053,114074,5
54061,114086,5
54068,114085,5
54073,114106,5
54078,114104,4
54086,114111,5
54076,114109,5
54070,114114,5
54088,114115,4
54081,114117,4
54086,114134,5
54086,114131,5
54085,114132,5
54090,114140,4
54095,114148,6
54086,114144,4
54092,114158,5
54100,114158,5
54102,114162,4
54100,114160,5
54107,114164,5
54107,114168,5
54111,114185,5
54117,114196,4
54110,114189,5
54117,114196,5
54119,114193,5
54114,114198,5
54122,114205,4
54127,114191,5
54124,114187,5
54119,114188,5
54121,114196,5
54116,114203,4
54128,114207,5
54131,114225,5
54138,114236,5
54144,114246,4
54145,114264,4
54154,114267,6
54161,114275,4
54159,114290,5
54173,114287,4
54162,114292,5
54175,114296,5
54176,114295,5
54180,114313,5
54176,114330,4
54187,114343,5
54198,114351,5
54205,114355,5
54204,114364,5
54203,114360,4
54211,114369,5
54202,114360,5
54210,114356,5
54201,114362,5
54205,114363,4
54209,114357,5
54208,114368,5
54216,114380,5
54215,114384,5
54215,114397,4
54221,114401,5
54232,114402,5
54236,114428,5
54239,114439,5
54239,114443,4
54250,114452,5
54251,114460,5
54264,114473,5
54244,114481,4
54268,114482,4
54270,114489,5
54277,114495,5
54267,114508,5
54284,114525,4
54291,114532,5
54284,114529,5
54299,114525,5
54283,114516,5
54286,114521,5
54281,114509,4
54295,114494,5
54279,114489,5
54273,114482,6
54268,114493,3
54296,114496,5
54280,114503,5
54284,114520,5
54284,114532,5
54300,114543,4
54288,114550,5
54301,114546,5
54296,114551,5
54311,114554,5
54309,114561,4
54315,114577,5
54320,114582,5
54317,114579,5
54331,114611,5
54333,114610,4
54343,114629,5
54341,114613,5
54338,114624,5
54347,114630,4
54350,114642,6
54344,114632,4
54350,114645,5
54346,114636,5
54348,114637,6
54355,114666,3
54352,114658,5
54362,114666,5
54373,114681,5
54379,114716,4
54375,114699,5
54383,114700,5
54379,114708,5
54381,114712,5
54373,114694,4
54375,114690,5
54377,114692,5
54381,114709,5
54384,114713,5
54389,114716,4
54390,114749,5
54398,114751,5
54406,114761,5
54408,114764,4
54412,114774,4
54413,114765,6
54414,114768,4
54414,114766,5
54409,114767,4
54407,114770,7
54408,114766,3
54412,114766,5
54412,114782,5
54417,114783,4
54421,114795,5
54429,114803,5
54423,114803,5
54424,114803,5
54433,114808,4
54424,114811,5
54431,114805,5
54430,114799,5
54430,114805,5
54423,114807,4
54421,114810,5
54431,114816,5
54439,114821,5
54431,114821,5
54437,114825,4
54451,114836,5
54454,114855,6
54457,114860,4
54458,114869,5
54470,114870,4
54461,114879,5
54468,114883,5
54467,114883,5
54468,114886,4
54483,114890,4
54478,114899,5
54471,114901,5
54479,114914,5
54471,114905,4
54473,114912,5
54473,114905,5
54481,114897,5
54480,114899,5
54485,114901,4
54475,114891,5
54462,114874,5
54459,114867,5
54460,114865,5
54455,114851,4
54457,114863,5
54457,114866,5
54460,114871,6
54461,114883,4
54477,114890,4
54464,114889,5
54476,114899,5
54479,114892,5
54475,114901,5
54486,114911,4
54488,114923,5
54484,114923,5
54495,114940,5
54497,114942,4
54502,114943,4
54497,114955,5
54499,114938,5
54486,114937,5
54495,114931,4
54490,114930,5
54491,114918,5
54484,114914,5
54482,114912,5
54473,114892,5
54474,114902,4
54482,114907,5
54493,114918,5
54486,114919,6
54487,114928,3
54481,114931,5
54495,114941,5
54491,114934,5
54489,114928,5
54478,114927,4
54485,114918,5
54489,114932,5
54488,114921,5
54470,114935,5
54495,114925,4
54492,114932,5
54491,114924,5
54499,114929,5
54489,114925,4
54496,114925,4
54484,114921,5
54511,114919,5
54485,114909,5
54483,114912,4
54483,114909,6
54502,114905,4
54483,114909,5
54478,114912,5
54473,114904,4
54480,114905,5
54482,114903,5
54476,114900,5
54488,114903,5
54470,114905,4
54477,114901,5
54473,114895,5
54478,114892,5
54474,114871,5
54472,114882,4
54466,114886,5
54466,114877,5
54468,114853,5
54463,114878,5
54463,114877,4
54467,114863,5
54465,114854,5
54451,114842,5
54443,114847,5
54449,114834,4
54453,114845,6
54432,114810,4
54434,114795,5
54432,114799,4
54428,114824,4
54431,114804,5
54432,114801,5
54426,114797,5
54426,114809,4
54426,114800,5
54422,114796,5
54418,114786,5
54421,114795,5
54416,114799,4
54425,114788,5
54415,114774,5
54423,114776,5
54413,114779,5
54417,114775,4
54418,114772,5
54418,114782,5
54410,114767,5
54407,114765,5
54411,114752,4
54403,114747,5
54392,114738,6
54382,114701,4
54372,114673,5
54362,114652,4
54350,114626,5
54342,114624,5
54345,114613,5
54341,114628,4
54348,114631,4
54349,114640,5
54344,114637,5
54353,114642,5
54343,114636,4
54339,114620,5
54334,114601,5
54338,114588,5
54313,114587,5
54314,114579,4
54317,114579,5
54313,114578,5
54313,114579,5
54313,114569,5
54302,114563,4
54291,114546,5
54294,114530,5
54290,114519,6
54282,114508,4
54281,114502,4
54274,114490,5
54279,114492,5
54274,114485,5
54273,114487,5
54269,114483,4
54268,114488,5
54276,114492,5
54270,114485,5
54272,114477,4
54273,114476,4
54262,114474,5
54260,114470,5
54269,114464,5
54264,114459,4
54258,114463,5
54266,114462,5
54260,114469,5
54265,114471,5
54269,114468,5
54265,114467,4
54264,114471,5
54256,114467,5
54260,114458,5
54248,114457,4
54252,114450,5
54258,114453,5
54250,114442,5
54246,114442,5
54252,114441,4
54244,114435,5
54244,114421,5
54240,114424,5
54243,114435,5
54234,114416,4
54243,114416,5
54240,114413,5
54239,114417,5
54239,114413,4
54233,114416,4
54246,114409,5
54235,114414,5
54230,114407,5
54238,114410,4
54225,114411,6
54218,114414,4
54239,114404,5
54238,114409,5
54232,114398,4
54218,114399,5
54218,114401,5
54226,114394,5
54223,114391,5
54208,114385,4
54223,114389,5
54211,114379,5
54216,114369,5
54227,114367,5
54219,114359,4
54211,114355,5
54211,114356,5
54232,114358,5
54205,114344,5
54203,114364,6
54212,114355,3
54217,114340,5
54207,114348,5
54206,114338,4
54197,114341,4
54204,114336,6
54195,114333,4
54195,114328,5
54197,114326,4
54194,114312,5
54192,114323,5
54181,114317,5
54179,114313,5
54185,114302,4
54187,114314,5
54183,114321,5
54191,114309,5
54188,114289,5
54179,114311,5
54173,114304,4
54181,114309,5
54184,114310,5
54188,114309,5
54178,114307,4
54179,114311,5
54175,114323,5
54178,114305,6
54184,114307,4
54178,114295,4
54173,114322,5
54174,114302,7
54182,114292,3
54170,114293,4
54169,114307,4
54164,114285,5
54169,114289,5
54167,114279,5
54170,114295,4
54172,114286,5
54166,114291,5
54165,114269,5
54164,114269,5
54163,114271,4
54164,114255,5
54147,114253,5
54151,114250,5
54145,114235,5
54134,114233,4
54134,114238,5
54135,114228,5
54134,114223,5
54144,114237,5
54139,114244,4
54151,114251,5
54161,114263,5
54155,114254,5
54159,114260,5
54162,114257,4
54153,114241,5
54145,114228,5
54129,114202,5
54114,114174,5
54106,114161,4
54106,114143,5
54090,114128,5
54083,114115,5
54086,114117,4
54075,114113,4
54082,114107,5
54087,114117,5
54091,114124,5
54091,114120,4
54084,114127,5
54078,114114,5
54087,114109,5
54083,114100,5
54072,114103,5
54085,114115,4
54070,114091,5
54075,114093,5
54077,114088,5
54074,114093,4
54067,114077,5
54071,114083,5
54059,114083,5
54061,114079,5
54061,114077,4
54060,114070,5
54062,114068,5
54053,114067,5
54047,114059,5
54056,114042,4
54050,114040,5
54050,114040,5
54043,114048,5
54042,114045,4
54045,114047,4
54044,114037,5
54040,114024,5
54034,114012,5
54035,114021,4
54031,114018,6
54023,114012,4
54035,114008,5
54033,114018,5
54035,114018,4
54030,114022,5
54032,114024,5
54034,114021,5
54036,114011,5
54032,114021,4
54031,114015,5
54035,114015,5
54031,114021,5
54035,114021,5
54029,114026,4
54035,114010,5
54036,114010,5
54032,114018,5
54036,114020,5
54037,114015,4
54039,114033,5
54011,114019,6
54039,114015,4
54043,114018,4
54034,114028,4
54010,114025,5
54036,114018,5
54035,114026,5
54035,114026,4
54029,114025,5
54040,114011,5
54039,114018,5
54037,114025,5
54040,114012,4
54037,114014,5
54033,113997,5
54027,114006,5
54046,113998,5
54018,114002,4
54017,113995,5
54026,113991,5
54037,113986,5
54020,113992,5
54018,113986,4
54022,113987,5
54027,113995,5
54009,113983,6
54027,113979,4
54016,113978,4
54005,113965,5
54012,113964,5
54003,113959,5
54006,113961,5
54001,113922,4
53992,113939,5
53985,113933,5
53994,113932,5
53985,113907,4
53989,113942,5
53992,113929,4
53981,113931,5
53989,113938,5
53988,113932,4
53988,113918,5
53986,113919,5
53985,113941,5
53986,113911,5
53980,113916,5
53986,113918,4
53979,113941,5
53980,113913,5
53983,113911,6
53985,113917,3
53978,113914,5
53978,113913,5
53980,113917,5
53978,113910,5
53977,113921,4
53976,113914,5
53987,113916,5
53981,113917,5
53985,113913,5
53982,113914,4
53985,113914,5
53985,113925,5
53982,113934,5
53998,113938,4
53996,113932,4
53992,113946,5
53993,113937,5
53981,113930,5
53977,113912,4
53979,113897,6
53965,113895,4
53953,113856,5
53939,113826,5
53935,113831,6
53931,113819,3
53928,113818,5
53924,113811,5
53927,113807,5
53927,113825,4
53930,113831,5
53941,113843,5
53950,113853,5
53936,113848,5
53948,113838,4
53935,113824,5
53928,113830,5
53933,113815,5
53930,113819,5
53936,113816,4
53930,113828,5
53941,113830,5
53938,113821,5
53930,113832,4
53931,113817,4
53927,113821,6
53929,113815,4
53926,113824,5
53936,113819,4
53924,113818,5
53927,113806,5
53925,113809,5
53932,113814,5
53932,113813,4
53939,113821,5
53937,113827,5
53932,113810,5
53920,113816,5
53919,113818,4
53922,113811,5
53922,113809,5
53917,113800,5
53914,113778,5
53918,113769,4
53904,113779,5
53903,113774,5
53905,113780,5
53911,113781,5
53909,113777,4
53909,113779,5
53909,113777,6
53908,113788,4
53908,113781,4
53914,113791,4
53918,113792,5
53928,113812,5
53928,113814,5
53935,113811,4
53934,113832,5
53935,113839,5
53941,113837,5
53941,113858,5
53944,113857,4
53958,113871,5
53958,113876,5
53959,113882,5
53953,113893,5
53965,113879,4
53958,113894,5
53959,113887,5
53950,113897,5
53969,113898,5
53957,113885,4
53963,113893,5
53935,113885,5
53972,113887,6
53970,113894,4
53959,113903,4
53964,113900,5
53965,113896,5
53969,113893,5
53964,113894,5
53986,113903,4
53973,113899,5
53963,113906,8
53967,113902,5
53983,113906,5
53963,113893,7
53969,113904,8
53969,113904,5
53957,113857,7
53969,113864,8
53958,113891,9
53956,113889,10
53956,113889,5
53969,113883,7
53956,113869,8
53960,113876,5
53962,113889,7
53969,113896,8
53973,113926,5
53973,113926,7
53966,113914,8
53973,113921,5
53974,113909,7
53984,113953,8
53987,113933,5
53988,113941,7
53962,113896,8
53962,113896,7
53957,113855,10
53941,113840,5
53928,113843,7
53921,113831,8
53921,113831,5
53943,113824,7
53933,113822,8
53914,113832,5
53927,113824,7
53919,113833,8
53919,113837,5
53894,113772,7
53894,113772,8
53898,113761,7
53887,113762,5
53890,113747,8
53912,113748,7
53907,113740,5
53854,113701,8
53854,113701,7
53848,113690,5
53861,113658,8
53854,113678,7
53860,113697,5
53872,113706,8
53852,113697,7
53855,113675,7
53855,113675,10
53836,113675,5
53851,113672,5
53856,113698,8
53859,113700,7
53864,113706,10
53864,113706,9
53864,113688,9
53868,113703,10
53868,113703,5
53867,113707,8
53871,113718,7
53871,113717,9
53883,113741,10
53883,113741,9
53879,113745,10
53877,113744,5
53895,113744,5
53884,113748,10
53884,113748,5
53889,113741,5
53887,113724,10
53871,113709,5
53868,113713,7
53866,113701,8
53866,113701,5
53892,113707,7
53885,113716,8
53871,113716,5
53872,113720,7
53865,113712,8
53864,113718,5
53874,113714,7
53874,113714,8
53861,113702,5
53857,113699,7
53854,113689,8
53867,113699,5
53892,113703,7
53853,113688,8
53853,113688,5
53876,113686,7
53850,113681,13
53845,113664,7
53879,113741,8
53879,113741,7
53891,113751,8
53882,113735,5
53877,113722,7
53870,113647,8
53826,113612,9
53826,113612,7
53824,113603,8
53819,113606,3
53816,113602,1
53817,113584,6
53806,113607,4
53822,113604,5
53821,113622,5
53827,113636,4
53831,113637,5
53835,113643,5
53836,113650,5
53834,113670,5
53847,113650,4
53841,113666,5
53849,113664,5
53853,113690,5
53845,113668,5
53842,113665,4
53849,113634,5
53841,113661,5
53835,113641,5
53838,113638,5
53833,113634,4
53837,113638,5
53839,113627,5
53834,113640,5
53837,113645,4
53835,113651,4
53835,113656,6
53846,113657,4
53838,113629,5
53839,113639,4
53842,113631,5
53826,113627,5
53834,113632,5
53833,113630,5
53833,113627,4
53834,113633,5
53834,113629,5
53836,113635,5
53840,113642,5
53825,113644,4
53846,113648,5
53836,113645,5
53846,113650,5
53849,113659,5
53846,113660,4
53845,113666,5
53852,113658,5
53841,113660,5
53844,113650,5
53834,113637,4
53828,113638,5
53836,113628,5
53837,113630,5
53840,113628,4
53827,113626,4
53827,113605,5
53814,113580,5
53810,113567,5
53799,113555,4
53789,113539,5
53785,113529,5
53782,113528,5
53788,113533,5
53790,113535,4
53784,113547,5
53796,113549,5
53795,113570,5
53798,113565,5
53799,113564,4
53797,113562,4
53799,113562,5
53800,113562,5
53802,113557,5
53801,113571,4
53811,113569,5
53804,113589,5
53809,113602,5
53817,113603,5
53812,113604,4
53832,113614,5
53834,113630,5
53847,113636,5
53847,113659,4
53843,113662,4
53854,113670,5
53860,113676,5
53862,113681,5
53857,113674,4
53851,113654,5
53841,113655,5
53852,113643,5
53847,113644,5
53852,113644,4
53847,113661,6
53853,113669,4
53864,113687,5
53873,113701,5
53877,113716,6
53893,113734,3
53891,113744,5
53910,113766,5
53906,113768,5
53909,113771,4
53920,113788,5
53922,113790,5
53927,113813,5
53915,113816,5
53934,113813,4
53938,113819,5
53936,113826,5
53919,113834,5
53946,113833,5
53946,113845,4
53943,113841,5
53943,113846,5
53956,113851,5
53958,113870,4
53969,113883,4
53985,113888,6
53975,113897,4
53976,113908,5
53985,113915,4
54012,113941,7
53992,113947,3
53999,113942,5
53992,113949,5
54006,113941,4
53997,113947,5
53985,113945,5
53996,113941,5
54008,113960,5
54007,113979,4
54019,114000,5
54024,114013,5
54039,114010,5
54036,114035,5
54032,114036,4
54039,114049,5
54042,114026,5
54044,114048,5
54049,114054,5
54055,114057,4
54047,114051,5
54064,114088,6
54078,114109,4
54084,114130,4
54099,114155,4
54106,114162,5
54125,114186,5
54123,114196,5
54124,114230,4
54128,114211,5
54140,114218,5
54140,114230,5
54145,114261,5
54150,114248,4
54160,114264,5
54169,114279,5
54169,114299,5
54176,114304,5
54175,114301,4
54188,114326,5
54196,114336,5
54202,114342,5
54206,114363,5
54210,114374,4
54216,114378,5
54216,114384,5
54220,114390,6
54234,114408,4
54238,114421,4
54243,114438,5
54243,114438,5
54250,114450,5
54256,114464,4
54260,114475,4
54266,114472,5
54265,114464,5
54262,114470,5
54255,114454,4
54255,114447,5
54246,114453,5
54249,114446,5
54242,114435,5
54246,114443,4
54255,114452,5
54256,114459,5
54275,114474,5
54279,114483,5
54281,114501,5
54278,114517,4
54287,114523,5
54302,114520,5
54294,114534,6
54293,114534,3
54296,114536,5
54287,114535,5
54309,114540,5
54298,114540,5
54305,114547,4
54305,114549,5
54298,114560,5
54307,114562,5
54306,114561,4
54310,114562,4
54310,114571,5
54310,114581,5
54316,114569,5
54320,114577,4
54313,114582,5
54317,114590,5
54319,114590,5
54324,114593,5
54332,114592,4
54320,114596,6
54322,114595,4
54323,114583,5
54322,114592,5
54325,114584,4
54311,114583,5
54322,114593,5
54334,114591,5
54325,114598,5
54325,114602,4
54331,114593,5
54318,114582,5
54320,114573,5
54310,114558,5
54309,114558,4
54310,114555,5
54300,114548,5
54299,114533,5
54301,114534,4
54291,114529,4
54288,114518,5
54282,114517,5
54289,114515,5
54279,114498,4
54279,114507,5
54275,114503,6
54287,114499,4
54277,114511,5
54280,114507,4
54274,114518,5
54285,114512,5
54281,114510,5
54288,114511,5
54263,114507,4
54280,114509,5
54286,114500,5
54275,114498,5
54259,114495,5
54261,114499,4
54278,114479,5
54264,114480,5
54267,114475,5
54266,114461,5
54249,114451,4
54249,114438,5
54266,114422,5
54234,114414,5
54231,114411,4
54223,114410,4
54250,114392,5
54231,114397,6
54225,114394,4
54221,114395,4
54225,114375,5
54209,114376,5
54219,114367,5
54211,114367,5
54211,114353,4
54209,114355,5
54195,114352,5
54197,114339,5
54198,114332,5
54197,114334,4
54196,114331,5
54181,114325,5
54190,114306,5
54184,114319,5
54182,114301,5
54169,114284,4
54159,114247,5
54155,114253,5
54156,114232,5
54133,114193,4
54112,114196,5
54109,114139,5
54087,114119,6
54075,114107,4
54078,114117,4
54079,114094,5
54079,114087,5
54082,114103,5
54084,114132,4
54085,114118,4
54080,114120,5
54080,114118,5
54076,114126,5
54079,114096,4
54086,114097,5
54071,114093,5
54066,114085,5
54064,114082,5
54065,114070,4
54064,114072,5
54055,114062,5
54056,114058,5
54046,114055,5
54056,114050,5
54052,114039,4
54052,114038,5
54045,114036,5
54045,114026,5
54039,114029,4
54036,114032,5
54046,114023,5
54055,114031,5
54042,114044,5
54059,114051,4
54051,114058,5
54045,114053,5
54049,114054,5
54044,114046,4
54049,114053,4
54051,114057,5
54054,114057,5
54053,114065,5
54056,114078,4
54068,114091,5
54075,114094,5
54077,114112,5
54075,114115,5
54087,114115,4
54092,114125,6
54090,114137,4
54086,114126,5
54088,114125,5
54102,114147,4
54092,114142,5
54093,114149,5
54099,114153,5
54092,114147,5
54095,114150,4
54105,114141,5
54103,114147,5
54111,114154,5
54102,114151,5
54097,114154,4
54097,114154,5
54104,114168,5
54100,114151,5
54098,114152,4
54100,114150,4
54106,114158,5
54107,114163,5
54099,114156,5
54107,114166,4
54098,114146,5
54098,114155,6
54103,114146,4
54099,114137,5
54095,114135,4
54093,114130,5
54084,114135,5
54080,114125,5
54089,114121,5
54088,114126,4
54095,114127,5
54086,114132,5
54091,114131,5
54092,114134,5
54087,114127,4
54085,114135,5
54092,114126,5
54084,114141,5
54090,114130,5
54092,114132,4
54089,114144,5
54087,114144,5
54102,114155,5
54099,114151,4
54098,114143,4
54091,114155,5
54096,114170,6
54105,114170,4
54110,114168,4
54090,114160,5
54106,114168,5
54107,114154,5
54097,114142,5
54079,114148,4
54087,114121,5
54071,114101,5
54070,114103,5
54070,114088,5
54065,114072,4
54057,114064,5
54061,114063,5
54088,114078,6
54063,114082,4
54076,114096,5
54077,114105,4
54103,114110,5
54078,114105,5
54081,114108,6
54078,114111,3
54091,114104,5
54080,114101,5
54072,114106,5
54075,114099,5
54080,114098,4
54074,114098,5
54076,114097,5
54080,114105,5
54086,114083,4
54071,114101,4
54077,114100,5
54077,114098,5
54071,114067,5
54067,114095,4
54066,114086,5
54070,114095,5
54071,114087,5
54071,114089,5
54067,114081,4
54068,114087,5
54066,114097,5
54067,114073,5
54062,114065,5
54062,114061,5
54052,114085,4
54055,114058,5
54065,114066,5
54061,114074,5
54062,114095,4
54066,114089,5
54066,114095,5
54075,114102,5
54072,114102,5
54067,114106,4
54074,114097,5
54070,114096,5
54065,114094,5
54072,114096,4
54079,114099,4
54078,114093,5
54079,114095,5
54074,114094,5
54066,114094,4
54069,114085,5
54067,114084,5
54068,114100,5
54069,114088,5
54073,114094,4
54071,114093,6
54074,114101,4
54072,114092,5
54067,114083,5
54069,114085,4
54058,114090,5
54068,114089,5
54063,114089,5
54067,114078,5
54069,114074,4
54059,114067,5
54055,114065,5
54053,114059,5
54046,114046,5
54052,114057,4
54047,114048,5
54044,114043,5
54043,114054,5
54048,114045,4
54048,114053,5
54052,114048,5
54051,114056,5
54046,114048,4
54048,114045,4
54042,114044,5
54042,114039,5
54049,114040,5
54044,114043,5
54044,114052,4
54055,114048,5
54046,114049,5
54039,114046,5
54045,114053,5
54049,114043,4
54044,114038,5
54054,114036,5
54044,114029,5
54043,114036,5
54033,114043,4
54047,114029,5
54038,114035,5
54034,114030,5
54035,114025,5
54035,114021,4
54037,114019,5
54035,114014,5
54035,114020,6
54026,114030,3
54036,114016,5
54031,114025,5
54032,114017,5
54024,114012,5
54027,114005,4
54033,114017,5
54022,114012,5
54025,113995,5
54027,114006,5
54017,113999,4
54020,114003,5
54019,113998,5
54018,114003,5
54017,113997,5
54022,113989,4
54020,113984,5
54021,113982,5
54004,113980,5
54010,113963,5
54010,113963,5
54003,113947,4
53970,113936,5
53987,113936,5
53987,113920,6
53994,113925,3
53969,113924,5
53978,113919,5
53986,113910,5
53972,113910,4
53974,113912,5
53979,113909,5
53969,113904,5
53975,113901,5
53994,113911,4
53980,113924,5
53982,113931,5
53984,113940,5
54012,113942,5
53990,113932,4
53986,113921,5
53977,113912,5
53979,113906,5
53964,113873,5
53945,113856,4
53939,113826,6
53946,113822,4
53927,113819,5
53925,113811,5
53921,113815,6
53930,113807,3
53927,113819,5
53930,113826,5
53938,113828,4
53942,113820,4
53935,113843,5
53932,113833,5
53934,113841,5
53943,113821,4
53936,113839,5
53938,113835,5
53932,113830,5
53936,113843,5
53943,113826,4
53929,113840,5
53931,113825,5
53927,113856,5
53938,113833,5
53935,113826,4
53922,113816,5
53920,113826,6
53927,113816,4
53921,113806,5
53922,113810,4
53927,113816,5
53917,113807,5
53924,113806,5
53928,113813,5
53924,113823,4
53930,113804,5
53922,113813,5
53924,113809,5
53920,113806,4
53922,113800,4
53920,113797,5
53920,113792,5
53918,113798,5
53919,113799,4
53922,113807,5
53926,113804,5
53922,113805,5
53923,113813,5
53935,113820,4
53926,113807,5
53928,113815,5
53932,113801,6
53927,113802,4
53928,113811,4
53927,113814,5
53926,113818,5
53930,113813,5
53930,113819,5
53932,113819,4
53923,113816,5
53928,113816,5
53936,113822,5
53922,113820,5
53934,113818,4
53936,113825,5
53939,113837,5
53937,113815,5
53933,113831,4
53937,113833,4
53940,113835,5
53934,113829,5
53941,113835,5
53942,113835,5
53940,113844,4
53934,113835,5
53940,113837,5
53936,113826,6
53942,113828,3
53934,113815,5
53931,113815,5
53930,113809,5
53915,113802,5
53915,113803,4
53920,113800,5
53915,113796,5
53928,113805,5
53919,113802,5
53927,113800,4
53925,113807,5
53929,113808,5
53922,113805,5
53921,113815,5
53921,113821,4
53931,113807,5
53929,113806,5
53928,113819,5
53931,113803,4
53933,113811,6
53924,113814,4
53927,113818,5
53931,113811,5
53926,113813,4
53930,113805,5
53917,113807,5
53919,113803,5
53916,113802,5
53918,113804,4
53917,113796,5
53920,113806,5
53925,113807,5
53914,113808,5
53915,113813,4
53924,113824,5
53928,113813,5
53933,113818,5
53914,113819,5
53923,113827,4
53933,113827,5
53943,113844,5
53927,113846,5
53940,113844,5
53944,113826,4
53930,113836,6
53930,113827,4
53933,113813,5
53919,113801,4
53905,113771,5
53916,113765,5
53902,113751,5
53897,113754,5
53885,113748,4
53918,113749,5
53902,113765,5
53897,113771,5
53905,113786,5
53924,113797,4
53918,113810,5
53914,113807,5
53919,113793,5
53925,113815,5
53925,113798,4
53934,113795,5
53915,113811,5
53921,113791,5
53921,113803,5
53923,113806,4
53928,113802,5
53921,113793,6
53920,113810,4
53921,113809,5
53923,113804,4
53923,113781,5
53927,113813,5
53917,113811,5
53922,113814,4
53925,113841,5
53935,113828,5
53930,113825,5
53932,113836,5
53920,113850,4
53936,113841,5
53930,113815,5
53922,113813,5
53927,113826,5
53916,113819,4
53908,113815,5
53919,113803,5
53920,113804,5
53927,113799,5
53918,113817,4
53916,113804,5
53910,113806,5
53926,113809,6
53926,113816,4
53921,113811,4
53915,113808,5
53912,113803,5
53923,113800,5
53926,113813,4
53915,113790,4
53916,113804,5
53923,113802,5
53920,113805,5
53915,113804,4
53923,113812,5
53919,113804,5
53910,113798,5
53923,113805,5
53922,113806,4
53920,113812,5
53926,113810,5
53917,113801,5
53923,113803,5
53919,113800,5
53914,113812,4
53917,113801,5
53917,113800,5
53915,113801,5
53919,113803,4
53919,113800,5
53916,113797,5
53917,113788,5
53913,113781,5
53907,113783,4
53903,113767,5
53898,113773,5
53905,113765,5
53899,113772,4
53891,113758,4
53889,113755,5
53889,113746,5
53887,113738,5
53886,113744,4
53887,113739,5
53884,113741,5
53879,113730,5
53875,113729,5
53880,113736,4
53870,113718,6
53880,113725,4
53868,113709,5
53878,113709,5
53872,113711,4
53864,113699,5
53865,113715,5
53870,113712,5
53867,113698,5
53868,113702,4
53871,113710,5
53865,113693,5
53857,113690,5
53866,113691,5
53854,113693,4
53857,113691,5
53861,113680,5
53853,113666,5
53850,113668,4
53848,113666,5
53841,113657,5
53840,113652,5
53838,113641,5
53833,113640,4
53841,113644,5
53830,113634,6
53829,113628,4
53822,113628,5
53831,113618,4
53830,113624,5
53818,113622,5
53830,113630,5
53829,113628,5
53829,113628,4
53812,113626,5
53823,113612,5
53831,113612,5
53822,113591,5
53785,113577,4
53798,113550,5
53774,113516,5
53766,113496,5
53756,113498,4
53757,113497,4
53764,113497,5
53771,113491,5
53775,113503,5
53768,113509,4
53777,113526,5
53775,113538,5
53812,113555,5
53787,113561,5
53797,113573,8
53799,113579,1
53825,113583,5
53810,113608,5
53808,113601,5
53818,113602,4
53817,113616,5
53822,113599,5
53828,113606,5
53817,113599,5
53813,113588,4
53808,113601,5
53808,113593,5
53804,113591,5
53809,113571,5
53803,113585,4
53805,113585,5
53815,113589,5
53811,113575,5
53809,113591,5
53807,113586,5
53817,113586,4
53793,113576,5
53789,113559,5
53791,113559,4
53794,113545,5
53782,113549,5
53768,113509,5
53763,113493,5
53754,113479,4
53752,113497,5
53751,113475,5
53746,113476,5
53751,113488,5
53762,113501,4
53764,113496,5
53758,113496,5
53758,113496,5
53758,113504,5
53759,113495,4
53757,113499,5
53762,113490,5
53753,113488,5
53756,113491,5
53743,113469,6
53746,113460,3
53744,113467,5
53746,113467,5
53745,113458,4
53740,113458,4
53749,113457,5
53750,113468,5
53752,113470,5
53744,113465,4
53745,113472,5
53746,113474,5
53755,113472,5
53743,113461,5
53738,113449,4
53746,113462,5
53743,113469,5
53748,113464,5
53743,113450,5
53747,113463,4
53746,113466,5
53745,113462,5
53743,113459,4
53756,113475,5
53748,113476,4
53755,113482,7
53753,113478,3
53752,113479,5
53757,113491,5
53753,113488,4
53754,113499,5
53761,113505,5
53767,113510,5
53779,113510,4
53770,113520,4
53781,113535,5
53784,113548,5
53796,113552,5
53807,113577,4
53808,113582,5
53816,113605,5
53822,113597,5
53812,113604,5
53818,113597,4
53819,113594,5
53800,113594,5
53804,113591,6
53797,113563,4
53785,113550,4
53780,113541,5
53784,113531,5
53782,113517,5
53770,113526,5
53772,113531,4
53788,113531,5
53782,113540,5
53793,113553,5
53792,113558,5
53788,113553,4
53799,113564,5
53803,113559,5
53797,113560,5
53800,113568,4
53807,113570,5
53802,113572,5
53802,113575,5
53797,113564,5
53798,113556,5
53803,113556,4
53789,113561,5
53789,113547,5
53784,113539,6
53782,113534,3
53775,113529,5
53780,113526,5
53762,113523,5
53784,113518,5
53768,113519,4
53774,113514,5
53759,113530,5
53774,113509,5
53772,113505,5
53767,113504,4
53745,113504,5
53759,113490,5
53760,113495,5
53763,113487,4
53778,113501,4
53776,113497,5
53757,113485,5
53757,113470,5
53769,113455,4
53739,113425,6
53724,113406,4
53715,113385,5
53736,113381,5
53696,113362,6
53699,113363,3
53698,113361,5
53703,113366,5
53696,113365,5
53707,113389,4
53714,113393,5
53718,113406,5
53727,113424,5
53741,113444,5
53744,113465,4
53758,113448,5
53754,113485,5
53766,113513,5
53779,113524,5
53781,113515,4
53789,113551,5
53801,113570,5
53812,113586,5
53826,113609,4
53830,113634,4
53847,113664,6
53864,113682,4
53861,113725,5
53872,113709,4
53882,113722,5
53885,113737,5
53888,113769,5
53890,113747,5
53896,113749,4
53896,113751,5
53901,113774,5
53905,113772,5
53907,113781,5
53908,113791,4
53919,113808,5
53923,113822,5
53933,113839,5
53940,113865,5
53954,113886,4
53971,113907,5
53969,113911,5
53978,113924,5
53989,113934,5
53986,113945,4
54000,113961,5
54008,113968,6
54004,113956,4
54002,113957,4
54001,113966,4
54000,113965,5
54012,113966,5
54024,113985,5
54022,114016,4
54027,114026,5
54047,114045,5
54048,114055,5
54052,114057,5
54058,114073,4
54063,114068,5
54068,114074,5
54064,114081,5
54059,114081,5
54064,114086,4
54058,114085,5
54067,114104,5
54079,114109,5
54079,114114,5
54080,114114,4
54077,114122,5
54077,114116,5
54086,114123,6
54074,114120,4
54081,114113,4
54081,114118,5
54082,114116,5
54080,114120,5
54084,114132,4
54086,114128,4
54077,114122,5
54081,114129,5
54088,114120,5
54089,114124,4
54080,114126,5
54087,114126,5
54084,114130,5
54083,114126,5
54088,114126,4
54088,114131,5
54097,114150,5
54100,114163,5
54102,114157,5
54106,114169,5
54104,114167,4
54112,114174,5
54107,114176,5
54112,114178,6
54112,114180,3
54112,114181,5
54120,114182,5
54109,114190,5
54112,114196,5
54129,114209,4
54131,114220,5
54125,114221,5
54138,114229,5
54133,114228,4
54132,114231,4
54137,114251,5
54148,114250,5
54143,114256,5
54153,114264,4
54153,114264,5
54147,114274,5
54160,114265,5
54164,114278,5
54149,114281,4
54167,114275,6
54160,114273,4
54158,114273,5
54129,114273,5
54154,114262,4
54153,114275,10
54156,114281,9
54136,114279,5
54173,114298,10
54173,114298,5
54180,114319,5
54170,114310,10
54193,114332,5
