RED,IR,EKG,TIME
56009,117923,9
56010,117914,8
55997,117920,5
56004,117920,5
56013,117918,8
56010,117934,5
56008,117930,5
56021,117948,8
56021,117948,5
56023,117910,5
56026,117954,5
56027,117962,8
56035,117981,5
56040,117978,5
56021,117987,8
56045,117995,5
56048,118009,5
56051,118007,5
56056,118003,8
56059,118011,5
56056,118021,5
56091,118087,8
56091,118087,5
56106,118092,5
56100,118100,8
56088,118087,5
56091,118082,5
56096,118099,5
56093,118120,8
56092,118080,5
56084,118035,5
56088,118053,8
56096,118050,5
56089,118062,5
56089,118062,5
56099,118100,8
56093,118085,5
56093,118083,5
56097,118099,8
56101,118105,5
56092,118091,5
56100,118059,5
56102,118077,8
56099,118115,5
56113,118112,5
56100,118129,8
56100,118129,5
56110,118133,5
56112,118108,8
56115,118131,5
56095,118126,5
56120,118140,5
56117,118142,8
56109,118121,5
56112,118123,5
56118,118119,8
56122,118129,5
56125,118136,5
56126,118129,5
56123,118140,8
56123,118140,5
56120,118158,5
56141,118145,8
56161,118167,5
56128,118170,5
56136,118169,8
56148,118195,5
56148,118193,5
56152,118187,5
56134,118184,8
56136,118181,5
56136,118176,5
56138,118167,8
56138,118167,5
56172,118176,5
56153,118190,5
56129,118186,8
56153,118222,5
56166,118229,5
56182,118257,8
56189,118284,5
56198,118294,5
56203,118313,8
56211,118325,5
56219,118357,5
56217,118348,5
56245,118375,8
56245,118375,5
56232,118384,5
56254,118395,8
56252,118399,5
56249,118384,5
56248,118360,5
56247,118365,8
56235,118376,5
56264,118385,5
56244,118376,8
56231,118353,5
56237,118371,4
56236,118376,2
56248,118379,3
56232,118371,5
56230,118374,4
56257,118377,5
56233,118369,5
56231,118371,5
56231,118378,4
56239,118370,4
56244,118362,5
56238,118366,5
56243,118361,5
56237,118368,4
56238,118368,5
56239,118367,5
56240,118365,5
56242,118385,5
56235,118371,5
56246,118376,4
56241,118374,5
56241,118371,5
56236,118368,5
56235,118359,4
56235,118362,5
56233,118358,5
56234,118348,5
56215,118323,5
56212,118314,4
56196,118292,5
56189,118275,5
56193,118278,5
56194,118278,5
56202,118278,4
56196,118304,5
56211,118314,5
56211,118322,5
56212,118307,4
56217,118324,4
56213,118318,5
56216,118320,5
56210,118316,5
56228,118326,4
56212,118326,6
56225,118329,4
56214,118320,5
56216,118334,5
56222,118330,4
56215,118317,5
56214,118317,5
56213,118321,5
56204,118326,5
56213,118308,4
56202,118305,5
56207,118309,5
56203,118311,5
56210,118296,5
56203,118293,4
56195,118282,5
56198,118296,5
56196,118289,5
56199,118287,5
56186,118267,4
56192,118256,5
56186,118242,5
56174,118227,5
56168,118220,4
56154,118209,5
56143,118195,6
56154,118185,4
56145,118195,5
56141,118186,4
56137,118180,5
56144,118171,5
56143,118170,5
56130,118153,5
56112,118152,4
56134,118153,5
56130,118153,5
56120,118153,5
56119,118145,5
56128,118140,4
56121,118137,5
56115,118126,5
56111,118118,5
56112,118112,5
56108,118120,4
56114,118119,5
56113,118112,5
56097,118099,5
56099,118098,5
56103,118090,4
56122,118088,5
56089,118078,5
56089,118080,5
56085,118074,4
56101,118077,5
56087,118070,5
56080,118071,5
56086,118070,5
56090,118062,4
56084,118070,5
56078,118070,5
56082,118063,5
56080,118041,5
56081,118057,4
56083,118050,5
56065,118060,5
56074,118037,5
56073,118039,5
56069,118036,4
56075,118032,5
56060,118014,5
56065,118028,5
56066,118022,5
56065,118030,4
56063,118038,5
56057,118017,5
56068,118022,5
56054,118007,4
56058,118023,4
56051,118000,5
56054,117992,5
56048,117995,5
56048,118010,4
56045,117989,5
56047,117983,5
56040,117981,5
56045,117982,5
56042,117966,4
56045,117967,5
56045,117962,5
56031,117955,5
56030,117960,5
56030,117951,4
56029,117962,6
56030,117956,4
56031,117956,5
56023,117957,5
56030,117952,6
56036,117965,3
56031,117963,5
56026,117960,5
56031,117952,5
56030,117949,4
56022,117949,5
56022,117942,5
56026,117940,5
56014,117936,4
56014,117929,4
56015,117921,5
56013,117916,5
56009,117930,5
56017,117928,4
56015,117922,5
56012,117917,5
56015,117924,5
56010,117909,5
56009,117917,4
56005,117913,5
55996,117903,6
55999,117889,4
55998,117890,5
55987,117881,4
55985,117878,7
55990,117875,3
55977,117863,5
55974,117856,5
55984,117853,4
55979,117851,5
55971,117840,5
55978,117857,5
55979,117861,5
55979,117860,4
55988,117872,5
55985,117872,5
55997,117890,5
55998,117886,4
55999,117901,4
56003,117890,5
55994,117885,5
55987,117876,5
55984,117868,4
55973,117837,5
55958,117831,5
55958,117807,6
55947,117809,4
55945,117798,4
55939,117799,5
55951,117791,5
55946,117804,5
55951,117808,5
55953,117825,4
55969,117838,5
55974,117825,5
55968,117834,5
55964,117836,5
55969,117834,4
55966,117831,5
55967,117839,5
55967,117829,5
55973,117829,5
55969,117832,4
55975,117830,5
55970,117828,5
55965,117830,5
55971,117819,5
55969,117827,4
55963,117826,5
55955,117817,5
55965,117824,6
55962,117824,3
55959,117825,5
55943,117816,5
55953,117808,5
55962,117804,5
55950,117808,4
55930,117804,5
55958,117811,5
55949,117796,5
55943,117804,5
55943,117792,4
55944,117790,5
55938,117794,5
55939,117774,5
55950,117770,5
55938,117771,4
55943,117774,5
55941,117767,5
55945,117762,5
55933,117769,5
55935,117759,5
55930,117757,4
55939,117754,5
55927,117751,5
55927,117744,6
55925,117746,3
55922,117748,5
55931,117752,5
55927,117739,5
55921,117751,4
55918,117734,5
55927,117748,5
55920,117750,5
55920,117742,5
55924,117735,4
55929,117758,5
55916,117742,5
55928,117745,5
55921,117733,5
55923,117743,4
55920,117749,5
55922,117742,5
55914,117748,5
55921,117744,5
55916,117729,4
55911,117724,6
55908,117740,4
55917,117718,5
55907,117716,5
55899,117710,4
55901,117726,5
55903,117706,5
55910,117719,5
55899,117712,4
55908,117711,5
55902,117715,5
55910,117722,5
55915,117713,5
55908,117712,4
55903,117711,5
55912,117708,5
55897,117701,5
55902,117704,5
55898,117692,4
55908,117689,5
55889,117681,5
55883,117678,5
55880,117663,5
55871,117668,4
55869,117651,5
55876,117644,6
55872,117642,6
55872,117642,3
55871,117633,4
55862,117632,5
55864,117633,5
55864,117638,5
55855,117628,5
55855,117626,4
55861,117624,5
55851,117631,5
55860,117614,5
55853,117624,4
55852,117618,5
55851,117627,5
55856,117634,5
55861,117623,5
55860,117627,4
55858,117625,5
55853,117619,5
55861,117629,5
55845,117624,5
55857,117617,4
55854,117620,5
55859,117616,5
55853,117618,6
55852,117614,4
55858,117616,4
55845,117610,5
55845,117614,5
55851,117618,5
55850,117618,5
55853,117607,4
55853,117605,5
55850,117613,5
55855,117605,5
55849,117604,4
55851,117626,4
55857,117615,5
55862,117625,5
55847,117618,5
55849,117600,4
55839,117585,5
55841,117569,5
55823,117551,5
55819,117528,5
55801,117501,5
55793,117492,4
55794,117478,5
55775,117470,5
55781,117462,6
55769,117460,3
55779,117463,5
55770,117470,5
55772,117472,5
55783,117478,5
55779,117481,4
55786,117472,5
55788,117480,5
55777,117472,5
55785,117476,5
55787,117477,4
55777,117483,5
55781,117475,5
55790,117472,5
55776,117469,5
55782,117478,4
55780,117470,5
55773,117466,5
55763,117459,5
55772,117460,4
55774,117452,6
55771,117442,4
55751,117440,5
55762,117435,5
55774,117441,4
55769,117443,5
55770,117451,5
55775,117452,5
55774,117458,5
55782,117467,4
55786,117473,5
55774,117467,5
55786,117477,5
55779,117467,5
55801,117459,4
55777,117454,5
55770,117450,5
55769,117444,5
55774,117447,5
55764,117434,4
55762,117435,5
55759,117425,5
55755,117424,5
55752,117423,5
55756,117433,4
55752,117429,6
55757,117415,4
55759,117443,5
55766,117445,4
55769,117451,4
55774,117439,5
55775,117452,5
55774,117462,5
55781,117450,4
55779,117451,5
55780,117467,5
55787,117483,5
55786,117485,5
55785,117489,4
55790,117482,5
55793,117497,5
55790,117490,5
55794,117530,5
55785,117506,4
55786,117501,5
55790,117494,5
55793,117510,5
55792,117493,5
55796,117491,4
55798,117498,5
55789,117506,6
55795,117504,4
55793,117514,5
55794,117519,4
55798,117524,5
55809,117529,5
55815,117541,5
55807,117536,4
55812,117537,4
55816,117534,5
55812,117540,5
55814,117550,5
55816,117532,4
55812,117527,5
55813,117528,5
55809,117532,5
55801,117532,5
55806,117521,4
55804,117525,5
55798,117518,5
55801,117530,5
55799,117526,5
55807,117530,4
55805,117544,5
55807,117538,5
55810,117536,5
55805,117537,5
55806,117551,4
55819,117540,5
55809,117545,5
55811,117548,5
55811,117542,5
55808,117543,4
55798,117534,5
55801,117543,5
55816,117537,5
55812,117542,5
55822,117559,4
55817,117560,5
55824,117569,5
55834,117594,5
55845,117598,4
55846,117627,5
55862,117650,5
55873,117669,5
55875,117670,5
55874,117656,5
55862,117662,4
55872,117658,5
55852,117658,5
55848,117619,5
55843,117602,4
55836,117595,5
55832,117587,5
55828,117566,5
55831,117569,5
55825,117580,4
55821,117586,5
55830,117592,5
55836,117590,5
55833,117612,5
55845,117613,4
55847,117622,5
55853,117634,5
55855,117625,5
55845,117628,5
55848,117639,4
55855,117637,5
55856,117627,5
55852,117629,5
55844,117627,4
55845,117615,5
55843,117601,4
55838,117600,5
55836,117600,5
55826,117588,4
55827,117570,5
55823,117583,5
55826,117583,5
55815,117570,5
55823,117567,4
55821,117564,5
55819,117573,5
55834,117569,5
55822,117573,5
55804,117563,4
55823,117577,5
55824,117559,5
55827,117564,5
55801,117562,5
55823,117557,4
55820,117557,5
55824,117555,5
55795,117553,5
55814,117560,5
55824,117570,4
55828,117582,6
55839,117584,4
55828,117592,5
55833,117593,4
55837,117593,4
55847,117589,5
55834,117585,5
55829,117587,5
55822,117593,4
55848,117597,5
55835,117580,5
55825,117580,5
55828,117571,5
55835,117567,4
55822,117559,5
55820,117568,5
55823,117564,5
55824,117557,5
55819,117555,4
55814,117565,5
55807,117556,5
55812,117542,5
55816,117552,4
55809,117549,4
55806,117538,5
55811,117528,5
55808,117536,5
55813,117542,5
55809,117536,4
55803,117544,5
55808,117537,5
55810,117535,5
55814,117530,5
55807,117547,4
55800,117520,5
55795,117519,5
55794,117520,5
55799,117547,4
55804,117529,4
55803,117522,5
55802,117532,5
55799,117538,5
55802,117526,5
55792,117520,4
55795,117517,5
55801,117529,5
55803,117522,6
55808,117534,3
55809,117548,5
55810,117540,5
55808,117529,5
55813,117543,5
55809,117548,4
55807,117533,5
55811,117542,5
55817,117548,5
55826,117568,5
55826,117574,4
55829,117572,5
55826,117575,5
55816,117574,5
55819,117565,5
55819,117554,4
55815,117536,5
55812,117532,5
55797,117513,5
55789,117514,4
55801,117509,5
55794,117505,4
55790,117504,5
55787,117516,5
55796,117523,6
55803,117528,3
55806,117539,5
55817,117550,5
55815,117559,5
55819,117571,4
55821,117561,5
55819,117564,5
55813,117556,5
55823,117560,5
55822,117558,4
55825,117558,5
55818,117569,5
55819,117567,5
55814,117558,5
55819,117558,4
55818,117554,5
55818,117563,5
55822,117556,5
55819,117555,5
55832,117566,4
55822,117562,6
55824,117558,4
55822,117568,5
55834,117583,4
55828,117591,6
55845,117603,3
55842,117605,5
55835,117602,5
55853,117612,4
55836,117602,5
55848,117601,5
55836,117588,5
55832,117596,5
55832,117579,4
55831,117571,5
55828,117565,5
55818,117558,5
55819,117569,5
55835,117569,4
55830,117560,5
55820,117568,5
55826,117560,5
55825,117567,5
55824,117571,4
55829,117575,5
55831,117564,6
55831,117579,4
55830,117582,5
55826,117583,4
55839,117582,5
55837,117595,5
55834,117598,5
55838,117595,5
55840,117611,4
55840,117600,5
55856,117608,5
55849,117608,5
55848,117611,4
55826,117608,5
55841,117612,5
55842,117611,5
55850,117615,5
55831,117604,4
55861,117628,5
55863,117639,5
55865,117634,5
55863,117638,5
55862,117640,4
55866,117656,5
55862,117664,5
55885,117674,6
55867,117668,4
55885,117678,4
55883,117677,5
55903,117680,5
55888,117692,5
55893,117690,5
55891,117706,4
55908,117724,5
55902,117739,5
55917,117752,5
55919,117762,5
55929,117777,4
55927,117769,5
55930,117766,5
55924,117779,5
55930,117770,4
55939,117775,4
55928,117755,5
55915,117750,5
55921,117734,5
55916,117745,5
55919,117736,4
55919,117748,5
55919,117739,5
55926,117770,6
55929,117776,3
55927,117785,5
55929,117793,5
55938,117793,5
55943,117787,5
55940,117787,4
55942,117805,5
55935,117793,5
55939,117784,5
55935,117786,5
55940,117804,4
55939,117792,5
55939,117796,5
55939,117780,5
55928,117791,5
55928,117778,4
55934,117779,5
55935,117772,5
55930,117782,5
55941,117793,4
55945,117793,5
55953,117795,4
55946,117803,5
55952,117810,5
55946,117810,4
55957,117805,5
55942,117799,5
55938,117794,5
55944,117793,5
55938,117768,4
55932,117763,5
55920,117757,5
55923,117751,5
55923,117752,9
55922,117746,0
55915,117765,5
55922,117765,5
55930,117731,5
55921,117759,5
55929,117754,4
55926,117756,5
55931,117760,5
55924,117759,5
55921,117763,5
55932,117755,4
55933,117778,6
55922,117773,4
55939,117769,5
55930,117762,4
55928,117772,4
55927,117772,5
55938,117778,5
55926,117765,5
55934,117776,4
55928,117774,5
55938,117770,5
55925,117767,5
55928,117762,5
55931,117762,4
55931,117763,5
55935,117774,5
55933,117770,5
55928,117781,5
55943,117776,4
55931,117791,5
55939,117795,5
55938,117797,5
55951,117794,5
55948,117794,4
55946,117806,5
55953,117808,6
55948,117799,4
55950,117802,5
55946,117809,4
55952,117821,5
55957,117832,5
55964,117837,5
55961,117820,4
55961,117822,4
55966,117827,5
55964,117812,5
55959,117819,5
55945,117787,4
55950,117794,5
55933,117773,5
55930,117761,5
55929,117754,5
55930,117764,4
55929,117791,5
55948,117793,5
55955,117824,5
55970,117849,5
55974,117863,4
55978,117872,5
55989,117875,5
55987,117883,6
55989,117882,4
55988,117893,4
55993,117890,5
55986,117895,5
55992,117901,5
56009,117901,5
55999,117901,4
55984,117898,5
56000,117896,5
55997,117887,5
55991,117885,4
55991,117899,4
55993,117900,5
55996,117904,5
56005,117908,5
56011,117912,4
56010,117925,5
56008,117934,5
56018,117936,5
56043,117956,5
56027,117961,5
56028,117973,4
56033,117956,5
56051,117963,5
56030,117955,5
56033,117951,4
56022,117959,5
56035,117968,5
56034,117967,5
56043,117985,5
56044,117979,4
56055,117995,5
56059,118007,5
56059,118004,5
56062,118007,5
56051,118000,4
56064,118028,5
56053,118023,5
56067,118026,5
56070,118017,4
56066,118033,4
56076,118033,5
56067,118030,5
56073,118040,5
56072,118039,4
56078,118045,6
56072,118042,4
56079,118067,5
56083,118053,5
56087,118057,4
56080,118061,5
56088,118081,5
56084,118071,5
56094,118077,5
56089,118079,4
56093,118090,5
56099,118102,5
56100,118101,5
56107,118108,5
56108,118112,4
56109,118110,5
56109,118125,5
56117,118132,5
56112,118133,5
56125,118148,4
56132,118166,5
56139,118165,5
56145,118185,5
56149,118189,4
56156,118211,4
56164,118215,6
56169,118233,4
56164,118227,5
56160,118228,4
56167,118229,5
56171,118219,5
56160,118217,5
56163,118205,5
56156,118191,4
56145,118184,5
56147,118175,5
56135,118178,5
56141,118188,5
56148,118206,4
56164,118227,5
56170,118230,5
56175,118238,5
56186,118267,5
56182,118264,4
56183,118269,5
56195,118276,5
56188,118266,5
56185,118263,5
56183,118258,4
56188,118270,5
56191,118276,5
56197,118270,5
56182,118269,4
56185,118265,4
56180,118261,5
56181,118255,5
56194,118257,5
56183,118264,4
56188,118265,5
56183,118258,5
56182,118247,5
56184,118252,5
56190,118261,4
56190,118264,5
56195,118272,5
56196,118278,5
56193,118261,5
56188,118264,4
56191,118255,5
56183,118247,5
56181,118247,5
56184,118248,5
56184,118242,4
56184,118252,5
56180,118241,5
56182,118240,5
56183,118234,5
56170,118229,4
56179,118222,5
56168,118225,5
56161,118216,5
56165,118215,4
56161,118211,5
56159,118200,5
56149,118199,5
56158,118193,5
56149,118183,4
56149,118189,5
56151,118178,5
56146,118174,5
56132,118170,5
56130,118156,4
56130,118161,5
56137,118140,5
56126,118127,5
56096,118117,5
56105,118107,5
56106,118099,4
56098,118077,5
56071,118066,5
56088,118054,5
56072,118047,4
56075,118033,5
56066,118035,5
56080,118025,5
56070,118016,5
56060,118009,4
56069,118020,5
56055,118005,5
56065,118004,5
56057,118005,4
56077,118009,5
56056,118001,5
56058,117991,5
56051,117990,5
56065,117994,4
56040,117993,5
56042,117984,5
56043,117971,4
56033,117965,5
56029,117951,4
56023,117944,6
56025,117931,3
56023,117915,5
56026,117918,5
56016,117920,4
56025,117926,5
56008,117900,5
56013,117916,5
56012,117908,5
56001,117907,4
55994,117875,5
55986,117873,5
55986,117872,5
55977,117858,5
55978,117864,4
55977,117841,5
55973,117840,5
55984,117846,5
55982,117851,4
55971,117841,5
55971,117837,5
55966,117842,6
55983,117854,4
55979,117840,4
55977,117840,5
55980,117834,5
55975,117848,5
55971,117829,5
55965,117799,4
55944,117764,5
55920,117730,5
55901,117695,5
55885,117666,5
55876,117641,4
55866,117628,5
55855,117609,5
55854,117621,5
55862,117627,5
55865,117640,4
55879,117644,5
55885,117658,5
55874,117648,5
55879,117652,5
55879,117656,4
55888,117657,5
55874,117646,5
55884,117661,6
55881,117660,3
55878,117653,5
55883,117649,5
55872,117640,5
55872,117625,5
55868,117641,4
55868,117630,5
55877,117624,5
55874,117637,5
55867,117624,5
55865,117622,4
55860,117630,5
55873,117615,5
55859,117626,5
55858,117623,5
55859,117626,4
55865,117627,5
55860,117609,5
55860,117599,5
55852,117595,5
55838,117579,5
55845,117573,4
55843,117583,5
55841,117578,5
55848,117571,6
55840,117576,3
55836,117572,5
55843,117575,5
55835,117580,5
55837,117577,4
55844,117589,5
55846,117586,5
55840,117598,5
55840,117585,5
55847,117588,4
55843,117601,5
55857,117600,5
55842,117603,5
55850,117600,5
55842,117606,4
55854,117595,5
55841,117595,5
55846,117609,5
55857,117600,5
55857,117608,4
55854,117604,6
55852,117615,4
55842,117598,5
55841,117595,5
55841,117591,6
55840,117591,3
55843,117588,5
55846,117574,5
55846,117592,5
55840,117575,4
55844,117585,5
55836,117587,5
55843,117582,5
55842,117597,4
55844,117580,4
55850,117593,5
55840,117594,5
55847,117596,5
55843,117594,4
55839,117599,5
55855,117598,5
55853,117605,5
55844,117608,5
55832,117598,4
55854,117591,5
55851,117603,6
55850,117595,4
55837,117593,5
55834,117586,4
55838,117592,5
55833,117582,5
55854,117591,5
55837,117578,5
55848,117574,4
55838,117570,5
55852,117575,5
55838,117576,5
55843,117583,5
55838,117569,4
55852,117577,5
55832,117570,5
55841,117582,5
55844,117579,4
55844,117570,4
55842,117574,5
55836,117567,5
55834,117582,5
55837,117570,4
55833,117586,5
55846,117576,5
55838,117572,6
55834,117548,4
55843,117578,4
55840,117578,5
55834,117565,5
55825,117550,5
55827,117552,5
55825,117539,4
55811,117531,5
55802,117502,5
55786,117473,5
55779,117459,5
55776,117452,4
55769,117456,5
55771,117448,5
55768,117437,5
55772,117446,5
55764,117471,4
55768,117445,5
55765,117448,5
55770,117453,5
55776,117459,5
55775,117451,4
55773,117443,5
55769,117454,5
55776,117459,6
55774,117451,3
55778,117447,5
55772,117454,5
55771,117454,5
55770,117449,5
55771,117441,4
55771,117431,5
55775,117437,5
55755,117438,5
55767,117434,5
55775,117433,4
55767,117431,5
55754,117436,5
55770,117427,5
55770,117431,5
55763,117433,4
55764,117448,5
55761,117441,5
55768,117439,5
55766,117438,5
55753,117436,5
55763,117419,6
55764,117417,3
55764,117415,5
55765,117416,5
55755,117424,4
55761,117430,5
55759,117408,5
55759,117420,5
55757,117423,4
55756,117418,4
55757,117408,5
55757,117418,5
55749,117412,5
55747,117404,4
55762,117409,5
55753,117416,5
55753,117417,5
55759,117415,5
55753,117415,4
55761,117400,5
55745,117410,5
55747,117405,5
55756,117410,5
55759,117405,4
55752,117410,6
55748,117414,4
55747,117398,5
55754,117403,5
55753,117402,4
55748,117385,5
55741,117386,5
55731,117371,5
55733,117366,5
55722,117355,4
55709,117344,5
55710,117336,5
55708,117312,5
55697,117305,4
55695,117311,4
55703,117313,5
55698,117304,5
55702,117309,5
55696,117316,4
55704,117303,5
55698,117306,5
55695,117306,5
55704,117313,5
55695,117306,4
55689,117299,5
55690,117287,6
55696,117292,4
55697,117299,5
55685,117288,4
55699,117300,5
55695,117300,5
55700,117306,5
55698,117310,5
55706,117317,4
55709,117330,5
55705,117329,5
55718,117333,5
55720,117341,5
55710,117339,4
55692,117332,5
55707,117338,5
55714,117341,5
55710,117329,5
55688,117334,4
55712,117327,5
55705,117324,5
55710,117321,5
55714,117325,4
55711,117338,5
55711,117336,5
55711,117331,6
55729,117338,4
55711,117330,4
55707,117344,5
55715,117348,5
55743,117351,5
55726,117359,5
55726,117369,4
55723,117371,5
55734,117375,5
55726,117370,5
55734,117371,5
55723,117361,4
55736,117383,5
55734,117366,5
55732,117374,5
55725,117375,5
55725,117359,4
55735,117370,5
55722,117375,5
55736,117375,5
55733,117363,5
55732,117377,4
55739,117381,5
55734,117391,5
55740,117395,5
55751,117404,4
55750,117400,4
55739,117411,5
55745,117417,5
55738,117376,5
55728,117369,4
55730,117369,5
55721,117369,5
55715,117323,5
55705,117318,5
55708,117310,4
55700,117312,5
55683,117296,5
55688,117279,5
55682,117288,5
55695,117297,4
55689,117300,5
55701,117309,5
55701,117320,5
55694,117316,5
55701,117321,5
55708,117318,4
55705,117327,5
55705,117328,5
55708,117335,5
55710,117325,4
55708,117327,5
55712,117341,5
55709,117340,5
55706,117331,5
55704,117322,4
55702,117330,5
55704,117327,5
55701,117330,5
55696,117312,4
55696,117313,5
55708,117330,5
55704,117331,5
55696,117324,5
55706,117341,4
55711,117355,5
55720,117352,5
55720,117359,5
55728,117365,5
55722,117368,4
55721,117381,6
55727,117368,4
55722,117363,5
55715,117355,5
55712,117357,4
55721,117366,5
55733,117371,5
55739,117377,5
55733,117397,5
55740,117397,4
55744,117409,5
55744,117402,5
55744,117407,5
55749,117404,5
55747,117414,4
55755,117415,5
55756,117425,5
55757,117433,5
55757,117433,4
55752,117423,4
55763,117438,5
55759,117438,5
55764,117440,5
55762,117446,4
55770,117451,5
55772,117451,6
55772,117461,4
55766,117452,5
55771,117476,4
55777,117455,5
55778,117461,5
55764,117467,5
55781,117462,5
55771,117465,4
55777,117471,5
55780,117480,5
55782,117487,5
55784,117492,5
55786,117499,4
55791,117500,5
55787,117508,5
55795,117505,5
55793,117494,5
55793,117507,4
55784,117505,5
55782,117508,5
55797,117503,5
55789,117506,4
55788,117503,4
55787,117514,5
55796,117514,5
55796,117518,5
55803,117516,4
55795,117506,5
55789,117514,5
55786,117522,5
55807,117530,5
55810,117543,4
55805,117538,5
55789,117542,5
55813,117537,5
55804,117552,5
55816,117557,4
55807,117557,5
55809,117550,5
55814,117568,5
55818,117571,5
55823,117563,4
55824,117572,4
55822,117580,5
55822,117582,5
55848,117569,6
55830,117575,3
55825,117576,5
55828,117586,5
55840,117587,5
55823,117581,5
55828,117577,4
55824,117588,5
55838,117591,5
55827,117599,5
55839,117620,4
55845,117606,5
55839,117598,5
55836,117598,5
55835,117585,5
55814,117573,4
55820,117540,5
55804,117528,5
55793,117511,5
55784,117498,5
55779,117476,4
55773,117471,6
55755,117465,4
55764,117447,5
55757,117459,5
55757,117452,6
55767,117452,3
55766,117462,5
55767,117476,5
55764,117450,5
55767,117457,4
55758,117443,5
55764,117461,5
55754,117435,5
55748,117432,5
55751,117424,4
55734,117415,5
55739,117410,5
55735,117399,5
55736,117391,4
55728,117382,4
55727,117381,5
55720,117370,5
55723,117376,5
55722,117373,4
55712,117359,5
55719,117355,6
55717,117354,4
55705,117359,5
55720,117358,4
55711,117345,7
55714,117349,3
55713,117362,5
55717,117348,5
55713,117342,4
55713,117345,5
55705,117344,5
55718,117340,5
55704,117340,5
55704,117327,4
55706,117340,5
55706,117340,5
55700,117332,5
55706,117329,5
55704,117336,4
55696,117337,5
55697,117324,5
55704,117337,5
55713,117338,4
55699,117337,4
55699,117339,5
55709,117343,6
55711,117334,4
55711,117350,4
55714,117358,5
55716,117378,5
55713,117374,5
55727,117377,5
55726,117374,4
55727,117382,5
55726,117370,5
55732,117361,5
55716,117364,5
55717,117365,4
55717,117367,5
55717,117369,5
55712,117356,5
55727,117354,5
55723,117362,4
55713,117349,5
55721,117355,5
55713,117356,5
55721,117368,5
55718,117375,4
55726,117384,5
55719,117382,5
55727,117387,6
55727,117392,3
55734,117385,4
55728,117380,5
55732,117389,5
55733,117399,5
55730,117394,4
55734,117408,5
55745,117404,5
55734,117404,5
55743,117411,5
55740,117406,4
55740,117414,5
55748,117416,5
55745,117419,5
55746,117425,5
55750,117442,4
55754,117445,5
55756,117444,5
55767,117442,5
55754,117440,5
55756,117436,5
55747,117423,4
55748,117421,5
55745,117409,5
55723,117398,6
55723,117370,3
55721,117363,5
55707,117355,5
55689,117342,5
55713,117335,5
55704,117336,4
55708,117336,5
55700,117349,5
55715,117361,5
55720,117361,4
55728,117384,4
55735,117378,5
55722,117377,5
55724,117381,5
55732,117389,4
55747,117382,5
55736,117389,5
55737,117384,5
55734,117393,5
55747,117395,4
55742,117389,6
55729,117383,4
55730,117386,5
55732,117378,5
55734,117399,4
55730,117382,5
55724,117382,5
55729,117379,5
55724,117376,5
55725,117388,4
55729,117396,5
55735,117381,5
55740,117394,5
55738,117394,5
55742,117402,4
55737,117387,5
55744,117406,5
55745,117410,5
55745,117423,4
55753,117420,4
55744,117432,5
55756,117428,5
55759,117447,5
55759,117455,4
55769,117453,5
55780,117468,6
55782,117477,4
55785,117490,5
55785,117485,4
55781,117486,5
55784,117483,5
55777,117494,5
55785,117489,5
55780,117481,4
55775,117490,5
55790,117494,5
55785,117489,5
55796,117510,5
55795,117510,4
55807,117531,5
55808,117534,5
55811,117540,5
55807,117545,5
55818,117546,4
55815,117557,5
55819,117565,5
55818,117562,5
55825,117573,4
55822,117579,4
55828,117569,5
55821,117568,6
55829,117569,4
55828,117564,4
55824,117570,5
55819,117555,5
55826,117559,5
55819,117549,5
55820,117553,4
55824,117550,5
55813,117561,9
55813,117554,1
55822,117561,5
55827,117566,4
55827,117593,5
55820,117569,5
55833,117578,5
55826,117597,5
55836,117590,4
55840,117605,5
55839,117614,5
55849,117609,5
55851,117624,5
55856,117629,4
55864,117644,5
55864,117662,5
55873,117675,6
55886,117694,4
55892,117704,4
55890,117691,5
55889,117695,5
55895,117693,5
55893,117694,4
55894,117699,5
55887,117679,5
55887,117689,5
55879,117683,5
55886,117675,4
55873,117672,5
55880,117676,5
55880,117685,5
55889,117692,5
55896,117698,4
55897,117728,5
55912,117738,5
55911,117747,5
55922,117753,5
55923,117752,5
55928,117762,4
55928,117769,5
55927,117774,5
55931,117767,5
55931,117779,4
55939,117788,5
55944,117790,5
55944,117789,5
55938,117795,5
55942,117805,4
55946,117805,5
55953,117808,5
55953,117809,5
55949,117824,4
55955,117818,4
55954,117812,5
55954,117827,5
55961,117829,5
55959,117835,4
55963,117856,5
55967,117841,5
55966,117849,5
55969,117843,5
55958,117841,4
55968,117850,6
55963,117850,4
55974,117849,5
55946,117854,5
55969,117863,4
55972,117874,5
55981,117884,5
55996,117902,5
55997,117913,5
55999,117915,4
56001,117927,5
56028,117934,5
56010,117934,5
56014,117932,5
56016,117927,4
56028,117930,5
56009,117927,5
56014,117940,5
56015,117922,4
56022,117937,4
56008,117927,5
56010,117940,5
56019,117959,5
56027,117960,4
56023,117967,5
56029,117969,6
56041,117975,4
56045,117979,5
56049,118007,4
56053,118013,5
56059,118024,5
56053,118010,5
56066,118031,5
56061,118027,4
56064,118028,5
56068,118013,5
56056,118032,5
56063,118032,5
56065,118037,4
56064,118043,5
56065,118042,5
56068,118052,5
56069,118037,5
56061,118072,4
56071,118053,5
56072,118057,5
56069,118062,5
56070,118085,4
56083,118067,4
56089,118078,5
56081,118073,6
56090,118095,4
56089,118104,4
56098,118100,5
56098,118102,5
56109,118110,5
56102,118123,5
56107,118128,4
56112,118134,5
56118,118137,5
56114,118145,5
56121,118141,5
56118,118160,4
56127,118159,5
56119,118156,5
56121,118146,5
56120,118141,5
56121,118149,4
56111,118133,5
56106,118120,5
56109,118112,5
56093,118098,5
56095,118097,4
56090,118105,5
56099,118103,5
56111,118114,5
56115,118128,5
56116,118144,4
56128,118156,5
56129,118157,5
56132,118165,5
56128,118169,4
56134,118166,5
56132,118164,5
56137,118172,5
56134,118163,5
56130,118164,4
56134,118167,5
56139,118169,5
56125,118182,5
56136,118168,5
56129,118179,4
56128,118176,5
56129,118175,5
56137,118179,5
56142,118186,5
56135,118193,5
56136,118189,4
56150,118197,5
56146,118196,5
56142,118207,5
56146,118203,4
56150,118204,5
56158,118223,5
56161,118220,5
56166,118232,5
56161,118226,4
56161,118220,5
56162,118232,5
56158,118227,5
56156,118225,4
56169,118230,4
56167,118229,5
56173,118234,5
56172,118242,5
56175,118248,4
56175,118239,5
56171,118253,5
56168,118262,5
56176,118261,5
56189,118266,4
56189,118273,6
56189,118286,4
56187,118284,5
56194,118281,5
56198,118286,4
56191,118287,5
56194,118291,5
56188,118285,5
56194,118270,5
56202,118279,4
56185,118282,5
56189,118279,5
56188,118274,5
56189,118275,5
56193,118279,4
56185,118285,5
56183,118278,5
56195,118284,5
56191,118290,4
56171,118274,4
56188,118278,5
56183,118271,5
56182,118273,4
56172,118275,4
56180,118257,5
56187,118262,5
56184,118269,5
56188,118265,5
56178,118259,4
56185,118261,5
56184,118265,5
56191,118264,5
56183,118253,5
56184,118262,4
56191,118267,5
56211,118276,5
56189,118275,5
56187,118274,5
56189,118284,4
56194,118275,5
56189,118270,5
56185,118276,5
56190,118278,5
56181,118269,4
56176,118266,5
56177,118255,5
56167,118257,6
56172,118236,4
56172,118241,4
56157,118230,5
56156,118204,5
56140,118161,5
56139,118168,4
56129,118158,4
56128,118162,5
56137,118149,5
56142,118174,5
56142,118185,4
56145,118178,5
56148,118200,5
56146,118194,5
56139,118181,5
56145,118183,4
56144,118203,5
56141,118179,5
56144,118172,5
56138,118178,5
56139,118189,5
56141,118180,4
56132,118169,5
56137,118177,5
56121,118165,6
56135,118166,3
56122,118154,5
56122,118138,5
56119,118147,5
56121,118137,5
56111,118115,4
56103,118124,5
56106,118110,5
56103,118110,5
56106,118117,4
56106,118109,4
56100,118101,5
56100,118089,5
56094,118089,5
56090,118064,4
56079,118057,5
56076,118047,5
56074,118036,5
56065,118033,5
56068,118027,4
56059,118017,6
56060,118019,4
56052,118011,5
56050,118016,5
56051,118012,6
56056,118007,3
56044,118001,5
56055,117992,5
56048,118001,5
56049,117989,4
56053,117987,5
56041,117977,5
56040,117973,5
56032,117964,5
56032,117964,4
56022,117952,5
56028,117946,5
56021,117930,5
56014,117916,5
56009,117912,4
56010,117917,5
56011,117916,5
56004,117907,5
56001,117897,4
56003,117901,4
55996,117898,6
55992,117895,4
55997,117885,5
55993,117867,4
55997,117875,5
55976,117861,5
55984,117868,5
55979,117852,5
55970,117848,4
55964,117847,5
55967,117842,5
55962,117824,5
55960,117831,5
55955,117835,4
55964,117832,5
55958,117826,5
55960,117839,5
55962,117819,5
55961,117828,4
55955,117815,5
55957,117825,5
55961,117812,5
55964,117826,5
55961,117819,4
55966,117827,5
55951,117829,6
55958,117822,4
55960,117825,4
55957,117833,4
55951,117826,5
55969,117828,5
55967,117833,5
55963,117831,4
55963,117827,5
55960,117829,5
55962,117829,5
55961,117825,5
55958,117826,4
55953,117813,5
55941,117823,5
55958,117813,5
55948,117815,5
55955,117809,4
55938,117815,5
55952,117815,5
55956,117822,5
55944,117822,5
55937,117813,4
55950,117817,5
55953,117806,5
55952,117812,6
55964,117816,4
55953,117815,4
55949,117805,5
55961,117814,5
55976,117823,5
55956,117817,5
55944,117814,4
55959,117828,5
55965,117814,5
55954,117815,5
55960,117819,4
55961,117828,5
55961,117827,5
55954,117815,5
55958,117816,5
55958,117822,4
55960,117821,5
55966,117821,5
55962,117828,5
55965,117842,5
55957,117809,5
55956,117833,4
55965,117832,5
55956,117818,5
55956,117802,6
55956,117813,3
55961,117817,5
55951,117819,5
55960,117818,5
55954,117814,5
55952,117820,4
55956,117811,5
55959,117826,5
55959,117817,5
55961,117829,5
55957,117834,4
55960,117866,5
55963,117846,5
55981,117854,5
55978,117865,4
55979,117880,4
55970,117863,5
55973,117853,5
55980,117847,5
55964,117832,4
55963,117815,6
55943,117796,4
55943,117785,5
55932,117781,5
55932,117758,4
55929,117758,5
55926,117753,5
55919,117762,5
55924,117762,5
55929,117769,4
55931,117772,5
55929,117767,5
55941,117765,5
55933,117769,5
55929,117766,4
55922,117766,5
55928,117761,5
55925,117759,5
55921,117755,5
55916,117754,4
55915,117751,5
55923,117741,5
55921,117742,6
55922,117742,4
55914,117740,4
55911,117732,6
55913,117723,4
55905,117718,5
55900,117717,4
55896,117717,5
55902,117714,5
55905,117719,5
55903,117723,5
55902,117712,4
55908,117725,5
55910,117718,5
55904,117724,5
55906,117711,5
55901,117718,4
55900,117712,5
55906,117703,5
55901,117693,5
55891,117686,5
55887,117681,4
55893,117668,5
55885,117683,5
55882,117681,5
55885,117670,5
55888,117678,4
55886,117677,5
55890,117681,6
55890,117682,4
55876,117680,5
55891,117676,4
55887,117684,5
55889,117680,5
55880,117686,5
55877,117685,4
55885,117683,4
55879,117680,5
55881,117678,5
55886,117677,5
55883,117678,4
55877,117671,5
55884,117674,5
55885,117673,5
55876,117670,5
55883,117674,4
55887,117669,5
55879,117671,5
55870,117668,5
55874,117658,5
55874,117648,4
55870,117655,5
55869,117647,5
55865,117651,6
55872,117653,4
55868,117636,4
55859,117643,5
55869,117642,5
55853,117635,5
55859,117634,5
55861,117624,4
55861,117616,5
55845,117614,5
55856,117622,5
55847,117618,4
55854,117611,4
55832,117615,5
55848,117603,5
55848,117607,5
55848,117594,4
55843,117592,5
55840,117602,5
55846,117599,5
55837,117584,5
55845,117582,5
55824,117574,4
55828,117568,5
55824,117563,5
55850,117560,5
55827,117573,4
55829,117570,5
55821,117566,5
55835,117562,5
55824,117570,5
55820,117563,4
55825,117551,5
55829,117553,5
55824,117560,5
55824,117559,5
55819,117550,4
55817,117538,5
55813,117527,5
55803,117529,5
55811,117515,4
55799,117487,4
55800,117511,5
55800,117510,5
55797,117518,5
55798,117497,4
55794,117517,6
55794,117514,4
55805,117525,5
55808,117531,5
55810,117532,4
55802,117532,5
55808,117528,5
55796,117542,5
55812,117520,5
55806,117524,4
55799,117518,5
55795,117539,5
55798,117527,5
55797,117517,5
55806,117512,4
55799,117531,5
55810,117527,5
55809,117524,5
55808,117516,5
55798,117515,4
55795,117500,5
55789,117494,5
55786,117489,5
55784,117479,5
55787,117478,4
55773,117474,6
55774,117464,4
55774,117446,5
55769,117469,4
55768,117463,4
55778,117480,5
55774,117478,5
55779,117472,5
55785,117482,4
55783,117486,5
55783,117484,5
55786,117479,5
55778,117492,5
55783,117475,4
55778,117478,5
55784,117478,5
55779,117474,5
55779,117470,5
55779,117470,4
55779,117467,5
55769,117466,5
55775,117454,5
55777,117450,5
55776,117458,4
55772,117464,5
55767,117450,5
55767,117456,5
55772,117464,5
55781,117458,4
55772,117449,5
55774,117459,5
55773,117450,5
55773,117453,4
55775,117462,4
55773,117462,5
55770,117464,5
55772,117453,5
55767,117453,4
55755,117425,5
55745,117417,5
55749,117412,5
55740,117402,5
55740,117407,4
55747,117402,5
55741,117413,5
55754,117411,5
55740,117405,5
55740,117411,4
55750,117400,5
55754,117405,5
55740,117405,5
55740,117400,5
55739,117395,4
55738,117387,5
55732,117391,5
55743,117385,5
55733,117392,5
55734,117383,4
55731,117387,5
55734,117381,5
55730,117387,5
55732,117388,5
55727,117378,4
55736,117393,5
55739,117393,5
55730,117394,5
55735,117381,4
55737,117384,6
55737,117387,4
55738,117386,5
55731,117391,5
55733,117386,6
55730,117377,3
55729,117382,5
55730,117380,5
55721,117381,5
55731,117366,4
55727,117366,5
55717,117360,5
55704,117361,5
55721,117370,5
55717,117362,4
55726,117363,5
55704,117369,5
55717,117359,5
55721,117369,5
55717,117362,4
55722,117373,5
55718,117366,5
55718,117362,5
55714,117363,5
55741,117366,4
55714,117359,6
55726,117359,4
55723,117363,5
55738,117357,4
55720,117377,6
55718,117373,3
55719,117379,5
55733,117365,5
55723,117365,4
55726,117371,5
55731,117376,5
55731,117372,5
55728,117398,5
55732,117390,4
55744,117403,5
55740,117388,5
55732,117395,5
55731,117394,5
55727,117395,4
55721,117352,5
55708,117353,5
55705,117327,5
55703,117336,5
55700,117322,4
55711,117319,5
55693,117313,6
55695,117329,4
55701,117352,5
55697,117337,4
55705,117347,5
55714,117360,5
55722,117391,5
55725,117382,4
55734,117381,4
55721,117378,5
55733,117399,5
55730,117387,5
55731,117403,4
55735,117409,5
55732,117400,5
55734,117402,5
55729,117400,5
55735,117412,4
55737,117403,5
55739,117405,5
55737,117409,5
55733,117409,5
55738,117414,4
55747,117409,5
55740,117417,5
55751,117415,6
55747,117425,4
55749,117438,4
55752,117443,5
55746,117429,5
55754,117431,5
55756,117437,5
55753,117443,4
55754,117440,5
55751,117436,5
55746,117431,5
55751,117430,5
55748,117427,4
55752,117438,5
55755,117444,5
55756,117443,5
55765,117456,4
55761,117472,5
55760,117467,5
55767,117471,5
55769,117481,5
55777,117479,5
55780,117482,4
55780,117485,5
55779,117490,5
55775,117497,6
55781,117500,3
55786,117503,5
55785,117496,5
55783,117505,5
55791,117517,5
55798,117525,4
55794,117525,5
55798,117526,5
55792,117532,5
55798,117530,5
55792,117516,4
55783,117513,5
55793,117514,5
55782,117502,5
55780,117502,5
55783,117508,4
55786,117501,5
55782,117493,5
55784,117496,5
55788,117503,4
55782,117492,6
55769,117491,4
55782,117480,5
55784,117488,5
55774,117490,6
55782,117480,3
55775,117482,5
55769,117467,5
55761,117459,5
55759,117461,4
55758,117441,5
55757,117438,5
55758,117421,5
55746,117419,5
55735,117406,4
55737,117401,5
55729,117394,5
55733,117381,5
55726,117370,5
55722,117379,4
55716,117364,5
55720,117358,5
55712,117353,5
55712,117349,5
55694,117345,4
55711,117353,6
55710,117347,4
55705,117343,5
55688,117331,4
55699,117328,4
55698,117319,5
55705,117312,5
55671,117316,5
55680,117315,4
55684,117290,5
55675,117294,5
55685,117301,5
55686,117293,5
55676,117304,4
55681,117300,5
55695,117286,5
55674,117287,5
55675,117275,5
55671,117263,4
55675,117248,5
55646,117228,5
55639,117214,5
55636,117218,5
55651,117211,4
55629,117210,5
55629,117197,6
55631,117206,4
55636,117215,5
55637,117216,4
55641,117218,5
55650,117234,5
55644,117232,5
55646,117245,4
55661,117256,4
55655,117249,5
55658,117233,5
55658,117240,5
55647,117245,4
55645,117246,5
55658,117232,5
55652,117249,5
55650,117248,5
55652,117254,4
55654,117260,5
55651,117255,5
55662,117246,5
55655,117261,5
55657,117262,4
55659,117247,5
55669,117255,5
55651,117246,6
55658,117247,4
55657,117249,4
55649,117247,5
55659,117248,5
55644,117247,5
55659,117254,5
55656,117243,4
55650,117242,5
55655,117244,5
55651,117242,5
55647,117243,5
55647,117245,4
55651,117248,5
55655,117249,5
55660,117251,5
55658,117257,4
55662,117267,4
55665,117259,5
55659,117260,5
55670,117266,5
55666,117262,5
55664,117271,4
55660,117267,5
55665,117268,5
55662,117260,5
55662,117260,4
55665,117256,5
55665,117252,5
55662,117256,5
55664,117250,8
55664,117270,1
55653,117252,5
55651,117246,5
55639,117254,5
55659,117255,5
55656,117244,4
55649,117242,5
55655,117239,5
55652,117247,5
55655,117244,5
55651,117241,4
55651,117244,5
55652,117246,5
55651,117249,5
55655,117242,4
55654,117252,5
55658,117248,4
55655,117250,5
55652,117251,5
55657,117257,4
55664,117250,5
55660,117258,5
55664,117254,5
55660,117260,5
55666,117262,4
55663,117267,5
55671,117272,5
55666,117273,5
55666,117275,5
55669,117274,4
55663,117272,5
55673,117281,5
55673,117275,5
55680,117297,5
55686,117299,4
55696,117321,5
55702,117335,5
55703,117343,5
55697,117331,5
55700,117336,4
55700,117318,6
55699,117328,4
55696,117318,5
55679,117302,5
55693,117310,4
55683,117310,5
55682,117288,5
55675,117298,5
55681,117295,4
55687,117296,5
55681,117309,5
55691,117317,5
55697,117333,5
55702,117332,4
55704,117342,5
55699,117334,5
55703,117335,5
55702,117341,5
55705,117351,4
55698,117345,5
55710,117344,5
55700,117340,5
55702,117339,5
55685,117359,4
55714,117354,5
55713,117359,6
55718,117364,4
55706,117363,5
55719,117365,4
55718,117363,5
55723,117377,5
55733,117382,5
55724,117382,5
55729,117385,4
55736,117398,5
55752,117404,5
55731,117410,5
55729,117403,4
55727,117399,4
55743,117372,5
55727,117364,5
55706,117367,5
55711,117356,4
55706,117349,5
55706,117340,5
55710,117352,5
55712,117354,5
55723,117361,4
55718,117367,5
55724,117372,5
55727,117382,5
55733,117382,5
55738,117404,4
55745,117405,5
55736,117402,5
55736,117398,5
55726,117392,5
55727,117380,4
55731,117392,5
55729,117380,5
55731,117383,5
55717,117385,5
55726,117388,4
55730,117399,5
55725,117395,5
55733,117392,5
55728,117391,5
55723,117415,4
55734,117392,5
55732,117398,5
55731,117413,5
55742,117443,5
55749,117426,4
55748,117429,5
55761,117438,5
55759,117446,5
55750,117431,4
55758,117449,5
55761,117451,5
55770,117466,5
55766,117458,5
55756,117462,4
55761,117460,5
55754,117466,5
55772,117466,5
55761,117460,5
55770,117458,4
55768,117462,5
55765,117452,5
55767,117466,5
55761,117466,5
55764,117455,4
55765,117462,5
55781,117488,5
55781,117495,5
55784,117506,5
55785,117502,5
55792,117501,4
55788,117485,5
55785,117479,5
55779,117466,4
55768,117448,4
55761,117454,5
55760,117443,5
55761,117445,5
55758,117441,4
55753,117427,5
55759,117444,5
55757,117436,5
55766,117450,5
55759,117458,4
55772,117475,5
55775,117479,5
55768,117474,5
55778,117477,5
55778,117471,4
55780,117481,5
55783,117487,5
55779,117481,5
55789,117497,5
55787,117486,4
55784,117484,6
55785,117495,4
55779,117497,5
55784,117487,5
55774,117491,4
55780,117484,5
55772,117487,5
55780,117492,5
55773,117482,5
55784,117490,4
55784,117504,5
55787,117500,5
55786,117499,5
55790,117508,4
55796,117523,5
55793,117515,5
55802,117524,5
55801,117535,5
55800,117526,4
55796,117523,5
55797,117523,5
55793,117522,6
55807,117529,4
55804,117526,4
55811,117532,5
55813,117538,5
55813,117543,5
55817,117543,5
55817,117552,4
55813,117556,5
55809,117548,5
55811,117548,5
55813,117559,5
55811,117546,4
55814,117547,5
55806,117557,5
55814,117552,5
55815,117553,5
55815,117563,4
55808,117555,5
55820,117561,5
55824,117566,5
55825,117558,5
55803,117562,4
55811,117562,5
55821,117559,5
55812,117551,6
55811,117553,3
55816,117547,5
55811,117542,5
55819,117557,5
55834,117554,5
55821,117556,4
55815,117564,5
55815,117568,5
55847,117573,5
55829,117581,5
55835,117581,4
55840,117589,5
55846,117600,5
55832,117606,5
55838,117602,5
55851,117602,4
55841,117612,5
55845,117627,5
55846,117624,5
55848,117628,5
55864,117637,5
55863,117648,4
55862,117647,5
55868,117656,5
55871,117636,6
55863,117643,3
55862,117635,5
55860,117636,5
55855,117602,5
55847,117612,4
55849,117593,5
55842,117598,5
55835,117585,5
55830,117561,5
55820,117559,4
55816,117553,5
55819,117585,5
55827,117569,5
55829,117587,5
55844,117597,4
55837,117618,5
55842,117609,5
55850,117606,5
55855,117611,5
55854,117627,4
55856,117616,6
55851,117632,4
55861,117640,5
55857,117633,5
55862,117624,6
55857,117624,3
55858,117618,5
55851,117619,5
55846,117597,5
55834,117596,4
55837,117576,5
55828,117570,5
55817,117548,5
55814,117525,4
55802,117519,4
55794,117508,5
55791,117495,5
55789,117497,5
55787,117487,4
55785,117481,5
55771,117465,5
55776,117465,5
55768,117457,5
55764,117439,4
55755,117437,5
55759,117418,6
55746,117415,4
55750,117412,5
55752,117407,4
55751,117411,5
55742,117409,5
55743,117406,5
55741,117402,5
55742,117392,4
55732,117391,5
55748,117405,5
55755,117420,5
55758,117445,5
55767,117472,4
55776,117488,5
55791,117514,5
55803,117541,5
55815,117555,5
55838,117591,4
55841,117608,5
55855,117646,5
55875,117676,5
55882,117704,4
55895,117737,5
55912,117762,5
55936,117775,6
55938,117792,4
55949,117815,4
55953,117822,5
55962,117819,5
55954,117832,5
55944,117836,5
55965,117835,4
55958,117839,5
55964,117837,5
55966,117841,5
55966,117848,5
55968,117852,4
55963,117849,5
55976,117860,5
55978,117861,5
55974,117864,5
55980,117865,4
55980,117861,5
55972,117867,5
55982,117881,5
55987,117881,5
55986,117883,4
55988,117894,5
55988,117892,5
55982,117878,6
55983,117870,3
55972,117865,4
55970,117864,5
55975,117857,5
55964,117843,5
55960,117853,4
55968,117840,5
55964,117834,5
55951,117831,5
55955,117839,5
55963,117837,4
55968,117838,5
55940,117818,5
55948,117804,5
55951,117803,5
55946,117796,4
55909,117763,5
55920,117757,5
55918,117734,5
55909,117727,5
55896,117706,5
55904,117699,4
55904,117696,5
55894,117715,5
55922,117713,6
55914,117718,3
55914,117740,5
55915,117723,5
55932,117729,5
55905,117721,5
55900,117722,4
55898,117727,5
55906,117715,5
55905,117710,5
55907,117713,4
55904,117712,5
55897,117698,5
55891,117702,5
55886,117687,5
55882,117682,4
55882,117648,5
55882,117659,5
55863,117656,5
55867,117647,5
55864,117616,4
55860,117641,6
55861,117642,4
55862,117623,5
55859,117619,5
55854,117624,4
55856,117636,5
55865,117620,5
55850,117630,5
55850,117614,5
55855,117600,4
55836,117580,5
55836,117592,5
55833,117568,5
55825,117555,5
55824,117545,4
55820,117565,5
55820,117547,5
55819,117541,5
55821,117545,4
55807,117543,4
55806,117537,5
55820,117535,5
55816,117527,5
55811,117517,4
55815,117523,5
55799,117526,6
55800,117517,4
55800,117512,5
55801,117501,4
55787,117511,5
55786,117503,5
55786,117498,5
55793,117481,5
55775,117485,4
55784,117481,5
55791,117472,5
55782,117471,5
55773,117469,5
55776,117463,4
55775,117451,5
55765,117453,5
55763,117448,5
55763,117442,5
55759,117440,5
55763,117444,4
55752,117435,5
55756,117439,5
55756,117431,5
55760,117426,4
55755,117425,5
55758,117416,6
55748,117421,4
55751,117420,4
55745,117409,5
55752,117409,5
55742,117405,5
55745,117405,5
55734,117400,4
55731,117398,5
55750,117400,5
55743,117403,5
55739,117402,5
55738,117406,4
55742,117395,5
55731,117386,5
55737,117393,5
55731,117387,5
55728,117401,4
55738,117390,5
55739,117379,5
55732,117387,5
55735,117390,5
55735,117388,4
55732,117379,5
55738,117378,5
55733,117387,5
55737,117375,5
55723,117383,4
55729,117374,5
55728,117383,5
55732,117372,5
55727,117365,4
55727,117358,5
55715,117363,5
55724,117359,5
55722,117371,5
55720,117360,4
55723,117359,5
55734,117365,5
55724,117366,5
55725,117368,5
55719,117373,4
55723,117370,5
55721,117372,5
55723,117364,5
55719,117364,5
55721,117359,5
55719,117347,4
55707,117344,5
55711,117342,5
55705,117330,5
55702,117337,4
55700,117320,5
55700,117327,5
55690,117331,5
55712,117330,5
55706,117326,4
55707,117327,5
55687,117328,5
55706,117338,5
55699,117321,4
55701,117318,4
55689,117317,5
55693,117305,5
55694,117305,5
55690,117302,4
55690,117296,5
55679,117288,5
55684,117287,5
55688,117280,5
55701,117282,4
55685,117279,6
55680,117281,4
55681,117280,5
55693,117276,5
55681,117276,4
55683,117295,5
55690,117296,5
55705,117320,5
55694,117317,5
55696,117319,4
55703,117312,5
55689,117294,5
55684,117293,5
55682,117273,5
55665,117267,4
55661,117233,5
55670,117229,5
55657,117225,5
55649,117221,5
55645,117188,4
55646,117204,5
55641,117210,5
55651,117210,5
55648,117209,4
55652,117223,5
55646,117212,6
55655,117224,4
55657,117235,5
55657,117215,4
55645,117208,5
55643,117217,5
55646,117239,5
55648,117209,5
55639,117206,4
55644,117200,5
55645,117215,5
55641,117202,5
55633,117185,5
55635,117179,4
55626,117177,5
55626,117174,5
55636,117178,5
55633,117182,5
55624,117177,4
55635,117184,5
55631,117171,5
55621,117163,5
55627,117160,5
55618,117158,4
55615,117164,5
55622,117165,5
55623,117165,5
55627,117167,4
55621,117174,5
55627,117177,5
55618,117168,5
55621,117151,5
55609,117159,4
55621,117165,5
55618,117163,5
55620,117171,5
55624,117166,5
55625,117174,4
55625,117169,5
55625,117169,5
55627,117170,5
55624,117175,5
55624,117172,4
55628,117177,5
55629,117180,5
55628,117191,5
55635,117189,5
55634,117187,4
55644,117197,5
55636,117203,5
55636,117197,5
55645,117215,5
55644,117202,4
55646,117212,5
55642,117214,5
55636,117204,5
55647,117207,4
55633,117203,4
55646,117193,5
55645,117188,5
55636,117188,5
55634,117186,4
55627,117181,5
55624,117180,5
55621,117170,5
55626,117165,5
55616,117161,4
55616,117156,6
55614,117157,4
55627,117146,5
55615,117151,5
55611,117145,6
55610,117150,3
55613,117135,5
55609,117135,5
55607,117147,5
55599,117135,4
55605,117128,5
55604,117118,5
55599,117116,5
55592,117101,5
55590,117111,4
55594,117108,5
55586,117096,5
55589,117090,5
55579,117087,5
55581,117076,4
55574,117066,5
55572,117061,5
55567,117071,5
55571,117063,4
55564,117061,4
55572,117068,6
55569,117067,4
55563,117066,5
55559,117056,4
55572,117069,7
55569,117066,3
55569,117073,5
55560,117070,5
55579,117072,4
55571,117068,5
55576,117065,5
55554,117066,5
55562,117058,5
55567,117044,4
55559,117027,5
55556,117011,5
55535,117000,5
55541,116992,5
55530,116967,4
55541,116960,5
55522,116965,5
55518,116956,5
55518,116968,5
55540,116965,4
55526,116978,5
55524,116976,6
55521,116986,4
55548,116990,4
55524,117002,4
55533,116989,5
55540,116993,5
55534,116986,5
55531,116978,4
55522,116983,5
55523,116986,5
55532,116964,5
55532,116984,5
55527,116966,4
55520,116972,5
55525,116958,5
55522,116967,5
55520,116973,5
55527,116952,4
55524,116944,5
55525,116964,5
55516,116960,5
55520,116964,5
55530,116983,4
55525,116966,5
55520,116977,5
55521,116967,6
55515,116978,4
55517,116960,4
55520,116954,5
55519,116949,5
55522,116956,5
55505,116938,5
55494,116929,4
55506,116926,5
55499,116950,5
55498,116941,5
55514,116937,4
55513,116938,4
55505,116948,5
55508,116939,5
55505,116938,5
55510,116945,4
55508,116933,5
55510,116937,5
55518,116948,5
55504,116944,5
55508,116946,5
55512,116938,4
55500,116950,5
55510,116935,5
55510,116934,6
55497,116929,3
55498,116922,5
55498,116920,5
55487,116903,5
55484,116906,5
55489,116908,4
55488,116901,5
55495,116907,5
55492,116921,5
55489,116929,5
55500,116929,4
55498,116929,5
55507,116932,5
55496,116924,5
55496,116918,4
55503,116928,4
55491,116926,5
55506,116909,5
55486,116917,5
55491,116918,4
55495,116912,6
55496,116909,4
55485,116902,5
55487,116896,5
55485,116901,6
55490,116896,3
55481,116894,5
55488,116902,5
55486,116903,5
55483,116902,4
55490,116913,5
55487,116917,5
55489,116914,5
55496,116925,5
55498,116918,4
55496,116929,5
55500,116939,5
55513,116936,5
55508,116949,5
55501,116950,4
55509,116946,5
55502,116948,5
55509,116963,5
55516,116955,5
55517,116961,4
55505,116974,6
55521,116977,4
55535,116985,5
55521,116976,4
55529,116993,4
55522,116998,5
55535,116990,5
55530,116998,5
55533,117005,4
55539,117014,5
55530,117007,5
55543,117021,5
55547,117042,5
55552,117052,4
55559,117061,5
55565,117060,5
55571,117069,5
55552,117058,5
55557,117046,4
55540,117031,5
55535,117018,5
55522,117002,5
55532,117000,5
55522,116990,4
55526,116986,5
55525,116968,6
55518,116973,4
55499,116980,5
55526,116982,4
55525,116995,5
55524,117004,5
55526,117009,5
55536,117013,4
55544,117029,4
55539,117014,5
55552,117026,5
55545,117030,5
55545,117040,4
55546,117038,5
55572,117041,5
55550,117040,5
55549,117051,5
55552,117034,4
55573,117048,5
55565,117052,5
55564,117060,5
55558,117068,5
55565,117057,4
55558,117063,5
55559,117064,5
55571,117071,6
55570,117071,4
55571,117077,4
55566,117081,5
55566,117090,5
55565,117074,5
55563,117078,5
55562,117067,4
55557,117066,5
55559,117040,5
55556,117045,5
55551,117044,5
55533,117035,4
55540,117014,5
55533,117008,5
55537,117003,5
55532,116995,4
55531,117010,5
55527,116991,5
55517,116989,5
55522,116998,5
55524,117010,5
55521,116984,4
55518,116981,5
55516,116972,5
55512,116986,5
55511,116957,4
55502,116961,5
55506,116956,5
55502,116940,5
55503,116941,5
55500,116939,4
55501,116942,5
55494,116933,5
55491,116933,5
55497,116933,5
55489,116923,4
55498,116934,5
55492,116926,5
55492,116925,5
55498,116927,5
55487,116926,4
55494,116925,5
55488,116921,5
55486,116912,5
55476,116916,4
55479,116897,6
55476,116899,4
55470,116892,5
55472,116890,5
55475,116883,4
55479,116889,8
55474,116889,2
55471,116889,5
55470,116891,5
55473,116890,4
55467,116885,5
55467,116883,5
55476,116892,5
55472,116901,5
55482,116892,4
55474,116907,5
55484,116909,5
55484,116906,5
55480,116910,5
55490,116908,4
55488,116908,5
55489,116915,5
55493,116926,5
55491,116926,5
55497,116930,4
55490,116933,6
55501,116930,4
55505,116949,5
55503,116965,4
55519,116965,4
55508,116962,5
55511,116958,5
55514,116951,5
55504,116952,4
55502,116931,5
55484,116922,5
55482,116902,5
55481,116889,5
55471,116879,4
55470,116877,5
55464,116865,5
55467,116865,5
55472,116887,5
55469,116882,4
55478,116890,5
55482,116907,5
55490,116905,5
55492,116916,5
55490,116918,4
55489,116930,5
55495,116926,6
55497,116934,4
55494,116922,5
55493,116922,4
55489,116929,5
55487,116932,5
55496,116933,5
55491,116930,4
55493,116923,4
55488,116928,5
55487,116927,5
55496,116924,5
55494,116933,4
55489,116935,5
55491,116933,5
55495,116958,5
55495,116957,5
55503,116947,4
55493,116957,5
55522,116944,5
55503,116951,5
55507,116942,5
55480,116950,4
55511,116956,5
55513,116951,5
55508,116946,5
55504,116945,5
55499,116945,4
55511,116963,5
55510,116970,5
55536,116974,5
55513,116984,5
55522,116997,4
55534,117000,5
55553,117010,5
55534,117024,5
55535,117007,4
55542,117022,4
55545,117018,5
55545,117010,5
55535,117006,5
55542,117020,4
55542,117022,5
55547,117029,5
55545,117029,5
55546,117043,5
55549,117021,5
55552,117053,4
55559,117051,5
55564,117059,5
55571,117050,5
55576,117081,4
55570,117089,5
55573,117089,5
55574,117091,5
55574,117094,5
55580,117095,4
55583,117106,5
55584,117112,5
55582,117102,5
55578,117109,5
55583,117112,4
55582,117136,5
55590,117122,5
55593,117121,5
55593,117121,5
55591,117134,4
55597,117125,5
55603,117126,5
55605,117129,5
55602,117137,4
55600,117144,5
55606,117163,4
55614,117172,5
55622,117176,5
55618,117172,4
55615,117166,5
55620,117169,5
55611,117169,5
55611,117163,5
55608,117156,4
55601,117147,5
55606,117150,5
55611,117157,5
55615,117158,5
55603,117143,4
55609,117155,5
55620,117160,5
55616,117172,5
55623,117178,5
55629,117189,4
55629,117198,5
55633,117193,5
55633,117208,5
55635,117195,5
55638,117206,4
55637,117214,6
55647,117215,4
55642,117231,5
55644,117235,4
55650,117221,4
55649,117228,5
55648,117226,5
55653,117222,5
55640,117229,4
55656,117232,5
55645,117237,5
55649,117239,5
55657,117228,5
55646,117239,4
55654,117243,5
55660,117252,5
55655,117253,5
55663,117276,5
55671,117267,4
55673,117275,5
55675,117277,5
55682,117281,6
55675,117284,4
55667,117284,4
55684,117291,5
55685,117285,5
55682,117285,5
55689,117299,5
55690,117302,4
55693,117319,5
55696,117323,5
55696,117337,5
55698,117335,5
55701,117344,4
55704,117350,5
55706,117350,5
55710,117355,5
55710,117374,4
55716,117374,4
55721,117375,5
55716,117376,5
55735,117370,5
55727,117386,5
55729,117384,4
55728,117389,5
55729,117385,5
55727,117391,6
55730,117390,3
55736,117389,5
55726,117400,5
55736,117397,5
55731,117405,5
55747,117410,4
55735,117415,5
55731,117422,5
55749,117422,5
55736,117420,5
55752,117431,4
55754,117438,5
55741,117442,5
55759,117451,5
55763,117448,5
55767,117462,4
55749,117464,5
55767,117477,5
55775,117475,5
55773,117486,4
55771,117490,5
55776,117496,4
55795,117514,5
55798,117519,5
55807,117520,6
55796,117515,3
55795,117519,5
55794,117517,5
55808,117507,5
55794,117498,4
55782,117489,5
55784,117493,5
55785,117484,5
55781,117491,5
55782,117476,4
55784,117486,5
55781,117496,5
55787,117514,5
55795,117527,5
55804,117532,4
55810,117543,5
55816,117567,5
55813,117570,5
55821,117566,5
55817,117560,4
55818,117591,6
55824,117586,4
55827,117592,5
55829,117580,4
55838,117602,6
55843,117599,3
55831,117608,5
55847,117623,5
55847,117621,4
55855,117622,5
55853,117633,5
55857,117653,5
55849,117633,5
55861,117649,4
55866,117649,5
55876,117694,5
55885,117677,5
55893,117695,5
55896,117711,4
55894,117713,5
55899,117723,5
55896,117713,5
55891,117711,5
55904,117709,4
55889,117711,5
55898,117707,6
55902,117726,4
55900,117727,5
55906,117736,4
55904,117737,5
55908,117728,5
55908,117746,5
55901,117733,5
55914,117737,4
55910,117724,5
55908,117735,5
55914,117752,5
55916,117749,4
55911,117751,4
55919,117759,5
55916,117760,5
55934,117768,5
55933,117773,4
55930,117783,5
55928,117783,5
55929,117781,5
55933,117793,5
55937,117783,4
55927,117794,5
55928,117784,5
55931,117788,6
55932,117784,4
55933,117783,4
55938,117786,5
55936,117780,5
55930,117802,5
55940,117807,5
55948,117820,4
55949,117835,5
55959,117842,5
55966,117867,5
55983,117894,5
56010,117935,4
56025,117970,5
56041,117996,5
56050,118026,5
56071,118054,5
56082,118092,4
56084,118096,5
56094,118101,5
56100,118109,5
56090,118118,5
56093,118103,4
56094,118102,5
56090,118094,5
56088,118086,6
56082,118079,3
56069,118056,5
56070,118050,5
56057,118042,5
56046,118019,5
56043,118001,4
56046,118007,5
56039,118010,5
56044,118012,5
56047,118020,5
56055,118028,4
56061,118033,5
56060,118041,5
56051,118039,5
56063,118042,5
56066,118038,4
56056,118031,5
56058,118034,5
56066,118043,5
56065,118050,5
56071,118047,5
56066,118053,4
56071,118048,5
56068,118044,5
56057,118035,4
56060,118035,4
56064,118048,5
56053,118039,5
56055,118035,5
56059,118042,4
56063,118044,5
56056,118037,5
56039,118035,5
56066,118041,5
56061,118049,4
56072,118045,5
56048,118027,5
56060,118028,5
56047,118023,5
56046,118013,4
56045,117996,5
56032,117985,5
56031,117989,5
56036,117983,5
56056,117974,4
56034,117981,6
56033,117981,4
56035,117984,5
56047,117979,5
56033,117980,4
56034,117974,5
56025,117976,5
56040,117967,5
56028,117971,5
56023,117969,4
56021,117975,5
56021,117966,5
56026,117965,5
56027,117959,4
56027,117959,5
56025,117950,5
56021,117951,5
56024,117959,5
56021,117953,4
56011,117933,5
56018,117948,5
56015,117954,5
56019,117949,5
56017,117941,4
56022,117952,5
56029,117959,6
56025,117964,4
56028,117986,5
56027,117973,4
56025,117963,5
56039,117968,5
56031,117995,5
56032,117984,5
56040,117980,4
56042,117987,5
56038,118008,5
56034,117994,5
56042,117988,5
56037,117993,4
56051,117990,5
56035,117980,5
56036,117972,5
56041,117957,4
56029,117965,4
56025,117957,5
56015,117950,5
56015,117940,5
56013,117935,4
56016,117935,5
56014,117935,5
56013,117938,6
56001,117933,4
56000,117930,4
56010,117924,5
56004,117926,5
56002,117913,5
56006,117905,5
56002,117911,4
55990,117897,5
55997,117906,5
55994,117915,5
55999,117900,5
56006,117904,4
55996,117897,5
55986,117887,6
55982,117895,4
55984,117884,5
55991,117875,4
55986,117880,5
55974,117868,5
55968,117851,5
55973,117847,5
55965,117834,4
55947,117808,5
55945,117782,5
55930,117768,5
55921,117743,4
55908,117732,5
55896,117719,5
55905,117707,5
55897,117719,5
55904,117732,4
55914,117734,5
55915,117743,5
55901,117725,5
55898,117716,5
55893,117708,4
55890,117687,5
55888,117690,5
55878,117673,5
55882,117682,5
55874,117674,4
55885,117673,5
55879,117670,5
55878,117675,5
55881,117678,5
55880,117660,5
55880,117660,4
55862,117637,5
55862,117638,5
55849,117632,5
55856,117612,4
55845,117614,5
55849,117597,5
55841,117596,5
55837,117594,4
55844,117601,4
55849,117608,5
55840,117611,5
55845,117594,5
55834,117599,4
55835,117592,5
55830,117588,5
55837,117592,5
55834,117581,5
55839,117589,4
55829,117570,5
55826,117573,5
55831,117573,5
55818,117560,5
55813,117564,4
55813,117551,6
55814,117550,4
55827,117544,5
55797,117541,5
55817,117544,4
55805,117548,5
55821,117539,5
55791,117538,5
55816,117534,5
55813,117526,4
55809,117535,5
55805,117534,5
55816,117539,5
55804,117535,4
55807,117536,4
55822,117543,5
55807,117537,5
55817,117537,5
55808,117545,4
55834,117541,5
55809,117542,5
55813,117536,5
55812,117539,5
55830,117534,4
55809,117532,5
55806,117535,6
55808,117534,4
55816,117539,5
55803,117543,4
55806,117534,5
55803,117529,5
55794,117505,5
55806,117531,5
55803,117528,4
55802,117518,5
55799,117506,5
55797,117518,5
55801,117512,5
55801,117510,4
55796,117487,5
55798,117507,5
55790,117494,5
55789,117493,5
55789,117502,4
55791,117501,5
55786,117501,5
55790,117503,5
55793,117517,4
55790,117516,5
55779,117507,5
55789,117495,5
55779,117525,5
55785,117489,4
55786,117498,5
55790,117503,5
55795,117505,5
55785,117496,5
55793,117494,4
55785,117484,5
55783,117493,5
55784,117492,5
55781,117486,5
55785,117472,4
55773,117477,5
55769,117465,5
55785,117472,5
55765,117463,5
55772,117460,4
55772,117463,5
55766,117456,5
55770,117452,5
55773,117461,5
55765,117449,3
55762,117437,5
55764,117445,5
55755,117450,5
55762,117457,4
55766,117451,4
55771,117463,5
55772,117462,5
55776,117474,5
55770,117463,4
55772,117472,5
55767,117465,5
55769,117469,5
55773,117469,5
55771,117461,4
55774,117463,5
55776,117460,5
55771,117456,5
55768,117452,5
55760,117445,4
55750,117424,6
55742,117399,4
55735,117403,5
55729,117367,5
55718,117359,6
55717,117343,3
55704,117327,5
55703,117328,5
55689,117314,5
55694,117313,4
55694,117318,5
55703,117322,5
55710,117327,5
55709,117326,5
55712,117328,4
55705,117333,5
55699,117327,5
55705,117323,5
55694,117334,4
55696,117330,5
55690,117330,5
55699,117328,5
55708,117332,5
55699,117329,4
55707,117336,5
55709,117329,6
55705,117339,4
55706,117338,5
55704,117327,4
55708,117329,7
55702,117336,3
55704,117332,5
55696,117330,5
55712,117332,4
55702,117324,5
55697,117324,5
55706,117324,5
55705,117331,5
55705,117331,4
55708,117330,5
55697,117321,5
55708,117332,5
55697,117311,5
55691,117304,4
55694,117308,5
55693,117312,5
55695,117308,5
55694,117312,4
55689,117326,4
55702,117323,5
55701,117322,6
55711,117336,4
55693,117330,4
55712,117335,5
55699,117340,5
55705,117336,5
55690,117325,5
55704,117328,4
55697,117331,5
55703,117333,5
55708,117321,5
55705,117323,5
55699,117318,4
55697,117325,5
55714,117318,5
55698,117318,5
55704,117313,5
55699,117311,4
55708,117310,5
55697,117306,5
55690,117307,5
55696,117314,5
55699,117297,4
55696,117310,5
55688,117299,5
55681,117302,6
55693,117291,3
55689,117288,4
55686,117297,5
55685,117293,5
55680,117278,5
55683,117282,4
55681,117276,5
55684,117282,5
55674,117273,5
55674,117278,5
55685,117281,4
55674,117278,5
55680,117272,5
55671,117288,5
55677,117269,5
55683,117289,4
55682,117295,5
55683,117300,5
55682,117301,5
55691,117297,5
55688,117318,5
55686,117288,4
55683,117281,5
55686,117289,5
55676,117296,6
55685,117293,3
55684,117307,5
55681,117294,5
55683,117306,5
55688,117295,5
55681,117303,4
55693,117300,5
55688,117303,5
55686,117295,5
55695,117306,4
55692,117306,5
55682,117302,5
55678,117283,5
55678,117278,5
55677,117292,4
55675,117279,5
55677,117282,5
55669,117273,5
55676,117274,5
55674,117277,4
55666,117280,6
55678,117274,4
55674,117267,5
55670,117269,5
55667,117265,4
55681,117269,5
55669,117285,5
55676,117272,5
55680,117287,5
55676,117274,4
55677,117286,5
55683,117294,5
55692,117290,5
55681,117284,5
55677,117289,4
55686,117290,5
55682,117286,5
55675,117254,5
55665,117244,4
55660,117230,4
55645,117224,5
55642,117187,5
55621,117171,5
55615,117164,4
55620,117147,5
55605,117128,6
55594,117128,4
55598,117132,5
55596,117122,4
55591,117120,5
55598,117132,5
55605,117130,5
55596,117136,5
55608,117140,4
55605,117134,5
55590,117131,5
55599,117128,5
55601,117132,5
55603,117118,4
55602,117112,5
55600,117123,5
55584,117110,5
55589,117109,5
55587,117099,4
55580,117095,5
55581,117089,5
55571,117082,5
55572,117074,4
55570,117082,4
55569,117077,5
55577,117077,6
55579,117073,4
55577,117075,4
55584,117082,5
55580,117084,5
55577,117077,5
55582,117085,5
55577,117091,4
55569,117076,5
55573,117067,5
55566,117061,5
55561,117050,5
55555,117042,4
55558,117053,5
55557,117051,5
55566,117054,5
55563,117070,5
55564,117065,4
55545,117061,5
55576,117068,5
55561,117068,5
55565,117063,5
55553,117064,4
55566,117066,5
55568,117071,5
55571,117073,6
55565,117065,4
55568,117072,4
55574,117082,5
55571,117081,5
55578,117083,5
55569,117072,4
55573,117068,4
55582,117083,5
55590,117078,5
55576,117075,5
55561,117067,4
55567,117074,5
55584,117059,5
55559,117066,5
55564,117064,5
55566,117050,4
55565,117056,5
55556,117049,5
55551,117041,5
55548,117032,5
55557,117037,5
55552,117031,4
55551,117036,5
55549,117033,5
55551,117016,5
55546,117037,4
55554,117033,5
55551,117043,5
55558,117008,5
55554,117034,5
55549,117039,4
55544,117032,5
55552,117040,5
55552,117036,5
55556,117041,4
55551,117033,4
55552,117054,5
55551,117039,5
55556,117045,5
55556,117043,4
55554,117064,5
55560,117048,5
55556,117047,5
55562,117051,5
55561,117064,4
55558,117057,6
55557,117071,4
55563,117067,5
55566,117073,5
55567,117075,4
55569,117074,5
55565,117073,5
55569,117069,5
55568,117086,5
55577,117089,4
55570,117102,5
55575,117097,5
55586,117114,5
55588,117122,5
55599,117142,4
55600,117151,5
55611,117154,5
55611,117155,5
55608,117147,5
55604,117145,4
55602,117141,5
55586,117129,5
55582,117119,5
55571,117088,4
55571,117079,4
55571,117078,6
55556,117066,6
55562,117068,3
55565,117069,4
55570,117078,5
55569,117085,5
55574,117090,5
55576,117103,5
55577,117122,4
55593,117119,5
55596,117140,5
55597,117144,5
55602,117146,5
55610,117158,4
55601,117158,5
55612,117169,5
55609,117175,5
55613,117165,5
55612,117169,4
55612,117175,5
55620,117178,5
55618,117181,5
55616,117184,5
55617,117192,4
55615,117190,5
55625,117203,6
55629,117210,4
55625,117211,4
55630,117220,4
55635,117220,5
55645,117232,5
55638,117233,5
55639,117230,4
55637,117233,5
55633,117233,5
55644,117239,5
55637,117220,5
55642,117230,4
55635,117213,5
55626,117212,5
55629,117218,5
55625,117212,5
55631,117207,4
55623,117210,5
55630,117208,5
55615,117188,5
55626,117191,5
55628,117188,4
55616,117179,5
55610,117177,5
55611,117179,5
55610,117172,5
55605,117168,4
55613,117172,5
55611,117158,5
55606,117160,5
55602,117137,5
55597,117133,4
55596,117126,5
55579,117125,5
55587,117114,5
55582,117109,4
55575,117095,5
55569,117094,5
55576,117089,5
55567,117097,5
55565,117085,4
55559,117083,5
55569,117082,5
55571,117076,5
55573,117071,5
55568,117075,5
55557,117064,4
55564,117060,5
55554,117052,5
55575,117055,5
55554,117051,4
55551,117052,5
55555,117052,5
55566,117042,5
55546,117030,5
55538,117029,4
55539,117020,5
55546,117024,5
55543,117015,5
55530,117021,5
55529,117013,4
55537,117015,5
55529,116999,5
55530,117005,5
55528,117008,4
55529,116985,4
55523,117002,5
55522,116998,5
55531,116999,5
55527,116983,4
55529,116997,6
55538,117023,4
55532,117025,5
55543,116996,5
55524,117003,4
55520,116983,5
55521,116983,5
55513,116970,5
55505,116945,5
55496,116920,4
55486,116918,5
55480,116926,5
55481,116905,5
55479,116901,5
55476,116900,4
55474,116919,5
55481,116908,5
55478,116908,5
55487,116915,5
55493,116932,4
55483,116933,5
55498,116931,5
55500,116925,5
55497,116933,4
55495,116939,4
55501,116954,6
55506,116952,3
55509,116951,5
55503,116951,4
55501,116959,5
55507,116953,5
55502,116953,5
55506,116948,5
55502,116949,4
55504,116944,5
55507,116943,5
55509,116951,5
55496,116947,5
55505,116954,4
55507,116950,5
55499,116952,5
55506,116965,5
55507,116950,5
55505,116957,4
55514,116961,5
55506,116965,5
55521,116970,6
55507,116980,4
55518,116973,4
55517,116968,5
55515,116965,5
55514,116974,5
55515,116976,4
55514,116974,4
55528,116984,5
55527,117000,5
55536,117004,5
55538,117007,4
55532,117023,5
55548,117014,5
55530,117024,5
55532,117013,5
55537,117024,4
55535,117021,5
55546,117018,5
55548,117022,5
55544,117031,5
55546,117027,5
55551,117038,4
55549,117031,5
55551,117034,5
55547,117038,6
55547,117033,3
55548,117029,5
55542,117026,5
55552,117020,5
55542,117016,5
55537,117018,4
55539,117001,5
55538,117002,5
55535,116996,5
55531,116977,5
55509,116942,4
55488,116889,5
55453,116821,5
55401,116739,5
55368,116668,4
55336,116618,4
55318,116564,5
55294,116528,5
55287,116512,5
55282,116490,4
55264,116470,6
55260,116468,4
55260,116461,5
55258,116467,5
55267,116474,6
55279,116494,3
55282,116507,5
55284,116511,5
55288,116519,5
55293,116536,4
55295,116543,5
55303,116558,5
55296,116553,5
55309,116573,5
55325,116587,4
55325,116596,5
55306,116599,5
55331,116618,5
55336,116642,5
55355,116663,4
55359,116696,5
55392,116731,5
55408,116754,5
55422,116782,4
55438,116811,4
55447,116829,6
55460,116864,4
55479,116896,5
55509,116924,4
55498,116943,5
55525,116981,5
55533,117004,5
55567,117039,5
55554,117069,4
55574,117089,5
55595,117105,5
55607,117140,5
55613,117158,5
55630,117183,4
55636,117208,5
55651,117225,5
55658,117253,5
55675,117273,5
55684,117281,4
55690,117314,5
55701,117317,5
55703,117341,5
55720,117358,5
55728,117361,4
55735,117394,5
55737,117407,6
55734,117415,4
55742,117424,5
55759,117432,4
55762,117449,5
55769,117479,5
55784,117509,5
55794,117503,4
55799,117522,4
55807,117538,5
55806,117570,5
55813,117565,5
55818,117569,4
55816,117560,5
55814,117574,5
55821,117557,5
55820,117562,5
55832,117574,4
55824,117589,5
55845,117608,5
55844,117597,5
55843,117605,5
55840,117608,4
55844,117613,5
55848,117619,5
55844,117616,6
55847,117620,4
55852,117615,4
55852,117623,5
55858,117622,5
55838,117623,5
55844,117611,5
55851,117609,4
55845,117614,5
55838,117619,5
55848,117613,5
55846,117618,4
55843,117607,4
55842,117603,5
55839,117607,5
55842,117607,5
55842,117621,4
55856,117627,5
55855,117632,5
55871,117656,5
55873,117665,5
55874,117670,5
55883,117678,4
55881,117664,5
55870,117671,5
55871,117668,6
55858,117647,3
55865,117649,5
55858,117641,5
55857,117646,5
55859,117628,5
55846,117607,4
55847,117614,5
55837,117614,5
55839,117626,5
55854,117631,5
55859,117636,4
55866,117645,5
55867,117647,5
55863,117650,5
55861,117653,5
55865,117654,4
55865,117657,5
55873,117660,5
55880,117653,5
55870,117661,4
55872,117661,5
55878,117675,4
55882,117679,5
55877,117679,5
55880,117674,4
55876,117668,5
55874,117681,5
55871,117670,5
55874,117677,5
55878,117677,4
55874,117676,5
55875,117678,5
55880,117680,5
55879,117682,5
55886,117697,4
55889,117711,5
55897,117715,5
55893,117725,5
55903,117721,5
55894,117724,4
55894,117712,5
55894,117710,5
55892,117721,5
55898,117720,5
55887,117726,4
55904,117724,6
55898,117731,4
55916,117740,5
55908,117746,4
55915,117758,4
55924,117766,5
55923,117773,5
55919,117779,5
55933,117792,4
55931,117801,5
55947,117817,5
55925,117821,5
55952,117831,5
55964,117833,4
55965,117846,5
55953,117852,5
55968,117868,5
55966,117869,5
55967,117871,4
55981,117867,5
55980,117888,5
55982,117889,5
55981,117880,5
56006,117890,4
55981,117892,5
55980,117903,6
55985,117908,4
55996,117893,5
55983,117897,4
55989,117900,5
55984,117895,5
56002,117895,5
55986,117899,5
55989,117904,4
55985,117899,5
55989,117899,5
55994,117904,5
55992,117909,4
56001,117908,4
55997,117907,5
56002,117924,5
55999,117933,5
56004,117933,4
56007,117925,5
56011,117933,5
56002,117937,5
56003,117933,5
56005,117931,4
55998,117933,5
55999,117918,5
55989,117908,6
55992,117907,4
55977,117882,4
55978,117870,5
55979,117871,5
55985,117902,5
55986,117901,5
55990,117910,4
55997,117924,5
56012,117943,5
56006,117931,5
56010,117933,5
56010,117931,4
56006,117936,5
56012,117938,5
56016,117940,5
56012,117940,5
56019,117947,4
56013,117944,5
56029,117953,5
56028,117967,5
56026,117964,5
56026,117946,4
56016,117958,5
56030,117957,5
56028,117960,5
56029,117967,4
56023,117971,5
56019,117968,5
56031,117973,5
56026,117978,5
56030,117981,4
56037,117987,5
56041,118003,5
56041,117994,9
56045,117986,1
56037,117981,4
56022,117972,5
56022,117990,5
56034,117978,5
56032,117994,5
56031,117987,4
56044,118002,5
56044,118001,5
56052,118005,5
56052,118008,5
56041,118008,5
56047,118003,4
56045,118000,5
56040,118008,5
56046,118010,4
56044,118002,4
56051,118017,5
56050,118006,5
56050,118007,5
56049,118006,4
56046,118003,5
56039,117992,5
56042,118001,5
56038,117989,5
56037,117991,4
56038,117976,5
56035,117983,5
56036,117984,5
56033,117986,5
56031,117978,4
56029,117983,5
56034,117976,5
56036,117979,5
56043,117987,5
56038,117984,4
56034,117979,5
56027,117967,5
56023,117974,5
56027,117965,5
56025,117958,4
56021,117951,5
56013,117935,5
56009,117932,5
56004,117931,4
56008,117928,4
56007,117920,5
56002,117916,5
55991,117901,5
55995,117907,4
55991,117902,5
55998,117898,5
55987,117895,5
55995,117900,5
55996,117902,4
55999,117903,5
55991,117893,5
55989,117890,5
55983,117875,5
55976,117891,4
55978,117867,5
55982,117878,6
55979,117883,4
55968,117877,5
55977,117865,4
55967,117863,5
55977,117863,5
55958,117866,5
55972,117861,5
55974,117852,4
55970,117835,5
55955,117829,5
55950,117809,5
55944,117798,5
55932,117772,4
55933,117743,5
55906,117723,5
55896,117706,5
55883,117694,4
55911,117689,4
55892,117694,5
55903,117706,5
55905,117704,5
55912,117729,4
55907,117710,5
55909,117728,5
55908,117715,5
55902,117719,5
55893,117709,4
55903,117710,5
55897,117699,5
55899,117682,5
55892,117695,5
55890,117683,4
55885,117698,5
55880,117664,5
55874,117650,5
55872,117649,5
55866,117646,4
55865,117613,5
55862,117629,5
55858,117621,5
55848,117616,5
55854,117615,4
55849,117611,4
55843,117597,5
55838,117600,5
55832,117609,5
55833,117596,3
55840,117590,5
55826,117589,5
55834,117600,5
55830,117584,4
55827,117573,5
55827,117571,5
55828,117587,5
55824,117583,5
55827,117575,4
55831,117577,5
55841,117584,5
55834,117590,5
55832,117585,5
55840,117583,4
55846,117589,5
55836,117589,5
55839,117589,5
55839,117590,5
55840,117596,4
55831,117589,6
55833,117598,4
55841,117593,5
55837,117585,5
55839,117582,6
55832,117585,3
55833,117578,5
55835,117579,5
55834,117579,5
55840,117585,4
55834,117593,5
55829,117588,5
55831,117583,5
55824,117583,4
55836,117587,4
55827,117571,5
55836,117569,5
55824,117572,5
55824,117563,4
55821,117562,5
55818,117559,5
55819,117545,5
55815,117557,5
55813,117545,4
55812,117566,5
55811,117556,6
55809,117552,4
55814,117550,5
55812,117547,4
55816,117539,7
55814,117544,3
55811,117552,5
55815,117545,5
55816,117534,4
55804,117532,5
55807,117537,5
55806,117538,5
55797,117530,5
55814,117534,4
55803,117527,5
55804,117533,5
55808,117530,5
55808,117526,4
55811,117521,4
55797,117533,5
55800,117520,5
55806,117522,5
55804,117537,4
55799,117528,5
55808,117537,5
55805,117526,6
55797,117521,4
55806,117529,4
55804,117529,5
55809,117534,5
55808,117520,5
55804,117534,5
55808,117529,4
55810,117532,5
55804,117528,5
55810,117533,5
55801,117539,5
55807,117532,4
55804,117531,5
55803,117528,5
55804,117529,5
55812,117531,5
55812,117543,4
55803,117547,5
55798,117526,5
55799,117535,5
55804,117532,5
55797,117530,4
55804,117516,5
55797,117508,5
55786,117504,6
55776,117511,3
55802,117506,4
55799,117507,5
55791,117522,5
55777,117508,5
55796,117507,4
55787,117516,5
55796,117516,5
55800,117515,5
55793,117509,5
55803,117519,4
55799,117506,5
55818,117502,5
55789,117489,5
55785,117489,5
55777,117493,4
55803,117496,5
55783,117494,5
55788,117495,5
55780,117488,5
55790,117488,5
55782,117485,4
55777,117492,5
55782,117493,5
55790,117494,6
55794,117506,3
55791,117519,5
55798,117533,5
55804,117512,5
55794,117513,4
55789,117502,4
55782,117497,5
55776,117451,5
55767,117455,5
55768,117450,4
55757,117445,5
55755,117430,5
55746,117433,5
55757,117424,5
55757,117423,4
55758,117450,5
55762,117443,5
55764,117452,5
55765,117451,5
55767,117469,4
55761,117444,6
55756,117438,4
55759,117440,5
55757,117445,5
55756,117434,4
55763,117433,5
55751,117427,5
55752,117428,5
55757,117425,5
55747,117423,4
55755,117415,5
55747,117405,5
55750,117410,5
55743,117404,5
55731,117393,4
55736,117384,5
55731,117380,5
55727,117381,5
55730,117384,4
55730,117385,5
55730,117377,5
55737,117389,5
55727,117378,5
55727,117381,4
55719,117371,5
55721,117369,6
55720,117360,4
55711,117360,5
55704,117342,4
55705,117334,5
55704,117326,5
55705,117327,5
55697,117324,5
55706,117327,4
55697,117321,5
55689,117301,5
55693,117313,5
55689,117316,5
55686,117296,4
55675,117291,5
55679,117289,5
55682,117292,5
55676,117287,5
55684,117290,4
55678,117291,5
55683,117286,5
55683,117282,5
55682,117287,4
55682,117283,4
55686,117286,5
55685,117291,6
55690,117294,4
55688,117299,4
55682,117304,5
55689,117299,5
55691,117290,5
55693,117289,5
55678,117298,4
55690,117286,5
55677,117276,5
55674,117278,5
55671,117263,5
55673,117262,4
55672,117260,5
55668,117258,5
55663,117248,5
55659,117246,5
55656,117244,4
55664,117239,5
55657,117240,5
55649,117234,5
55653,117223,5
55653,117232,4
55660,117224,5
55658,117218,5
55641,117209,6
55646,117221,4
55650,117213,4
55640,117211,5
55647,117212,5
55646,117198,5
55630,117203,4
55642,117191,4
55633,117194,5
55636,117183,5
55627,117191,5
55633,117186,4
55628,117174,5
55626,117183,5
55622,117176,5
55619,117163,5
55616,117170,4
55607,117161,5
55621,117168,5
55620,117160,5
55614,117159,5
55596,117146,5
55606,117159,4
55616,117138,5
55609,117138,5
55596,117135,5
55600,117131,4
55598,117124,5
55596,117120,5
55594,117117,5
55595,117108,5
55589,117108,4
55602,117116,5
55622,117121,5
55592,117133,5
55596,117129,4
55594,117133,4
55612,117141,5
55603,117135,5
55607,117141,5
55607,117144,4
55616,117157,5
55622,117165,5
55615,117165,5
55613,117175,5
55619,117172,4
55615,117169,6
55612,117162,4
55607,117137,5
55607,117121,5
55596,117123,4
55588,117102,5
55584,117098,5
55576,117063,5
55574,117086,5
55567,117076,4
55570,117073,5
55567,117072,5
55576,117085,5
55575,117087,5
55575,117089,4
55585,117102,5
55580,117102,5
55587,117095,5
55585,117102,5
55581,117111,4
55577,117088,5
55581,117087,5
55580,117086,5
55571,117081,4
55574,117083,5
55567,117063,6
55559,117058,4
55558,117059,5
55556,117057,4
55565,117040,5
55561,117046,5
55552,117033,5
55546,117035,5
55561,117043,4
55561,117051,5
55557,117057,5
55559,117061,5
55562,117056,5
55560,117055,4
55556,117042,5
55554,117049,5
55553,117038,5
55546,117022,5
55542,117012,4
55533,117008,5
55541,117005,5
55535,117001,5
55535,117011,6
55529,117013,3
55539,117025,5
55542,117030,6
55546,117040,4
55551,117033,4
55552,117034,4
55553,117042,5
55545,117037,5
55551,117040,5
55556,117039,4
55553,117051,5
55556,117039,5
55552,117032,5
55550,117039,5
55548,117046,4
55553,117051,5
55564,117056,5
55559,117059,5
55563,117062,5
55568,117078,4
55575,117081,5
55571,117084,5
55582,117101,5
55586,117107,5
55592,117119,4
55590,117121,5
55594,117134,5
55587,117122,5
55598,117136,5
55598,117141,4
55592,117137,5
55590,117137,5
55598,117129,5
55599,117135,4
55602,117139,4
55598,117143,5
55596,117137,5
55599,117133,5
55596,117135,4
55597,117140,5
55603,117132,5
55598,117139,5
55597,117151,5
55599,117147,4
55603,117145,5
55595,117144,5
55607,117141,5
55602,117147,5
55606,117142,5
55612,117140,4
55591,117139,5
55586,117133,5
55596,117139,5
55596,117141,4
55600,117137,5
55600,117137,5
55592,117149,5
55598,117142,5
55599,117144,4
55603,117157,5
55595,117159,5
55603,117141,5
55600,117165,5
55605,117164,4
55597,117160,5
55608,117160,5
55607,117150,5
55616,117169,4
55604,117185,5
55626,117192,5
55626,117191,5
55628,117202,5
55623,117173,4
55618,117175,6
55616,117162,4
55599,117150,5
55611,117133,5
55577,117102,4
55577,117093,5
55577,117076,5
55586,117071,5
55556,117063,5
55567,117069,4
55571,117076,5
55575,117086,5
55574,117093,5
55579,117114,5
55576,117104,4
55584,117110,5
55585,117119,5
55587,117119,5
55597,117132,5
55597,117123,4
55594,117135,5
55598,117142,6
55601,117135,4
55593,117127,4
55601,117136,4
55595,117133,5
55594,117119,5
55593,117109,5
55589,117120,4
55582,117108,5
55584,117103,5
55581,117119,5
55578,117102,5
55575,117103,4
55578,117109,5
55579,117132,5
55582,117110,5
55583,117106,5
55579,117100,4
55578,117111,5
55566,117087,5
55570,117076,5
55563,117063,5
55563,117060,4
55553,117031,5
55541,117018,5
55537,117016,6
55527,117007,4
55540,117007,4
55528,117007,5
55532,117006,5
55525,116994,5
55515,116987,4
55519,116986,4
55521,116977,5
55506,116964,5
55505,116967,5
55504,116953,4
55492,116948,5
55491,116936,5
55486,116933,5
55490,116940,5
55482,116927,4
55481,116923,5
55477,116930,5
55478,116907,5
55472,116909,5
55466,116894,5
55462,116887,4
55469,116886,5
55460,116871,5
55457,116877,6
55473,116889,3
55464,116880,5
55467,116890,5
55465,116900,5
55469,116903,5
55468,116901,4
55477,116901,5
55476,116904,5
55471,116889,5
55475,116905,5
55473,116896,4
55477,116902,5
55482,116903,5
55472,116896,5
55486,116913,4
55474,116902,4
55478,116899,5
55480,116910,5
55481,116909,5
55475,116904,4
55470,116905,6
55473,116910,4
55481,116908,5
55482,116930,5
55488,116924,6
55493,116931,3
55497,116942,5
55500,116947,5
55502,116958,5
55502,116947,4
55501,116954,5
55498,116960,5
55498,116962,5
55504,116959,5
55508,116969,4
55514,116976,5
55522,116993,5
55521,117003,5
55523,117001,5
55517,116994,4
55521,116977,5
55514,116974,5
55511,116973,5
55508,116955,5
55497,116948,4
55488,116925,6
55487,116917,4
55483,116921,5
55480,116905,4
55476,116897,5
55479,116916,5
55477,116919,5
55476,116925,5
55485,116928,4
55489,116934,5
55497,116943,5
55485,116931,5
55496,116944,5
55494,116945,4
55499,116950,5
55483,116945,5
55497,116943,5
55494,116944,5
55501,116942,4
55488,116948,5
55489,116940,5
55487,116936,5
55488,116935,5
55491,116918,4
55488,116927,5
55488,116914,10
55484,116908,5
55511,116960,9
55511,116960,8
55503,116930,5
55508,116944,5
55511,116968,5
55517,116968,8
55523,116966,5
55492,116957,5
55499,116947,8
55500,116943,5
55501,116947,5
55497,116937,5
55515,116964,8
55515,116964,5
55516,116912,5
55509,116964,8
55521,116993,5
55526,116996,5
55519,117005,8
55507,117012,5
55520,117012,5
55533,117018,5
55530,117051,8
55542,117023,5
55544,117019,5
55572,117075,8
55572,117075,5
55571,117094,5
55578,117093,5
55589,117109,8
55575,117097,5
55579,117104,5
55569,117097,8
55579,117106,5
55580,117119,5
55578,117101,8
55587,117109,5
55579,117111,5
55587,117138,5
55587,117138,8
55596,117129,5
55593,117139,5
55585,117144,8
55592,117139,5
55597,117137,5
55593,117172,5
55601,117153,8
55600,117110,5
55608,117161,5
55613,117191,8
55613,117177,5
55613,117177,5
55615,117170,8
55615,117152,5
55594,117144,5
55600,117135,5
55605,117139,8
55605,117143,5
55593,117145,5
55579,117106,8
55608,117156,5
55618,117166,5
55618,117187,5
55631,117215,8
55631,117215,5
55632,117188,5
55632,117209,8
55633,117218,5
55654,117242,5
55653,117242,5
55635,117236,8
55652,117248,5
55659,117258,5
55662,117267,8
55670,117270,5
55672,117272,5
55681,117289,8
55681,117289,5
55688,117311,5
55688,117312,5
55701,117322,8
55674,117309,5
55689,117319,5
55693,117321,8
55688,117322,5
55686,117323,5
55670,117316,5
55686,117304,8
55686,117316,5
55691,117326,5
55697,117342,8
55697,117342,5
55697,117362,5
55677,117370,8
55712,117383,5
55722,117385,5
55716,117403,5
55718,117392,8
55726,117378,5
55722,117400,5
55726,117398,8
55724,117408,5
55739,117411,5
55735,117406,5
55739,117403,8
55739,117403,5
55735,117416,5
55735,117419,8
55729,117436,5
55737,117403,5
55743,117400,8
55741,117422,5
55748,117421,5
55748,117435,5
55759,117425,8
55754,117431,5
55753,117450,5
55766,117474,8
55766,117474,5
55774,117499,5
55782,117494,5
55781,117467,7
55793,117514,1
55799,117520,1
55820,117527,5
55798,117525,5
55794,117528,5
55793,117501,5
55791,117519,4
55791,117508,5
55781,117510,5
55775,117489,5
55780,117502,4
55777,117493,5
55771,117496,5
55778,117517,5
55800,117506,5
55790,117522,5
55806,117543,4
55815,117576,5
55820,117564,5
55819,117572,5
55825,117579,4
55825,117599,5
55832,117577,5
55825,117589,5
55830,117597,5
55832,117594,4
55837,117604,5
55841,117601,5
55831,117602,5
55838,117592,5
55836,117600,4
55845,117593,5
55837,117600,5
55836,117596,5
55839,117597,5
55834,117606,4
55830,117602,5
55833,117600,5
55842,117605,5
55835,117619,4
55839,117623,5
55850,117619,4
55846,117624,5
55849,117629,5
55844,117613,4
55846,117627,5
55838,117618,5
55839,117624,5
55844,117627,5
55848,117633,8
55856,117645,1
55844,117645,5
55869,117649,5
55857,117649,5
55867,117663,4
55857,117650,5
55855,117648,5
55870,117649,5
55864,117658,5
55861,117657,4
55867,117672,5
55874,117660,5
55864,117668,5
55878,117677,5
55879,117688,4
55882,117698,6
55882,117704,4
55895,117708,5
55889,117717,4
55896,117718,4
55900,117725,5
55896,117730,5
55891,117722,5
55896,117728,4
55894,117730,5
55905,117730,5
55907,117730,5
55899,117735,5
55901,117729,4
55899,117737,5
55909,117739,5
55908,117746,5
55919,117752,5
55921,117763,4
55922,117761,5
55922,117774,5
55937,117792,5
55940,117796,5
55943,117803,4
55949,117816,5
55941,117817,5
55945,117827,5
55946,117840,5
55958,117841,4
55956,117839,5
55958,117837,5
55951,117836,5
55962,117834,5
55962,117828,4
55944,117832,5
55956,117814,5
55943,117807,5
55935,117798,4
55924,117790,5
55925,117778,5
55923,117774,5
55929,117788,5
55941,117799,4
55950,117819,5
55945,117816,5
55945,117828,5
55949,117826,5
55950,117829,4
55947,117819,5
55938,117817,5
55948,117829,5
55945,117830,5
55952,117824,4
55946,117840,5
55959,117827,5
55960,117837,5
55953,117835,5
55961,117830,4
55949,117821,5
55957,117825,5
55954,117834,5
55970,117823,5
55949,117828,4
55947,117827,5
55954,117831,5
55964,117826,5
55959,117833,4
55960,117832,4
55951,117829,4
55950,117834,5
55960,117832,5
55952,117829,6
55945,117812,3
55942,117815,5
55947,117810,5
55945,117825,5
55951,117825,4
55959,117813,5
55955,117832,5
55947,117824,5
55961,117832,5
55963,117823,4
55956,117832,5
55949,117829,5
55948,117838,5
55953,117836,5
55968,117858,4
55962,117860,5
55970,117853,5
55968,117875,5
55968,117861,5
55967,117863,4
55968,117858,6
55965,117864,4
55962,117867,5
55971,117859,4
55974,117854,6
55969,117858,3
55957,117848,5
55967,117842,5
55965,117831,4
55953,117844,5
55954,117831,5
55962,117838,5
55953,117823,5
55945,117831,4
55949,117819,5
55944,117820,5
55946,117795,5
55932,117802,5
55934,117804,4
55935,117799,5
55940,117799,5
55940,117796,5
55943,117796,5
55937,117795,4
55934,117789,5
55933,117783,6
55929,117788,4
55922,117771,5
55920,117780,4
55922,117764,5
55913,117758,5
55918,117754,5
55908,117746,5
55911,117745,4
55898,117730,5
55898,117720,5
55888,117709,5
55896,117716,4
55891,117713,4
55883,117696,5
55891,117701,5
55887,117696,5
55880,117685,4
55875,117674,5
55875,117660,5
55867,117651,5
55864,117664,5
55864,117649,4
55860,117631,5
55846,117620,5
55842,117606,6
55822,117578,4
55822,117555,4
55803,117520,5
55787,117489,5
55774,117470,5
55756,117425,5
55752,117417,4
55740,117400,5
55736,117402,5
55740,117401,5
55739,117394,5
55732,117405,4
55744,117400,5
55743,117397,5
55733,117398,5
55730,117388,4
55732,117380,4
55726,117371,5
55720,117361,5
55721,117366,5
55711,117355,5
55719,117348,4
55713,117338,5
55715,117348,5
55706,117329,6
55700,117317,3
55704,117322,5
55695,117307,5
55688,117303,5
55684,117302,5
55684,117290,4
55691,117290,5
55684,117292,5
55684,117280,5
55678,117288,5
55682,117280,4
55682,117290,5
55679,117290,5
55684,117283,5
55671,117280,5
55666,117274,4
55672,117257,5
55664,117253,5
55649,117246,5
55655,117238,5
55650,117226,5
55649,117230,4
55638,117238,5
55662,117234,5
55648,117238,6
55658,117246,3
55663,117245,5
55662,117250,5
55665,117240,5
55656,117251,4
55677,117258,5
55661,117259,5
55669,117262,5
55664,117251,5
55679,117256,4
55665,117250,5
55662,117251,5
55662,117254,5
55671,117245,5
55659,117259,4
55657,117247,5
55653,117245,5
55658,117239,5
55662,117251,5
55648,117242,4
55656,117238,6
55649,117231,4
55657,117239,5
55656,117248,5
55663,117259,4
55662,117240,5
55660,117261,5
55668,117261,5
55665,117251,4
55662,117241,4
55667,117259,5
55656,117250,5
55662,117252,5
55656,117249,4
55656,117244,5
55652,117233,5
55647,117219,5
55643,117239,5
55647,117223,4
55639,117210,5
55637,117221,5
55640,117221,5
55633,117211,5
55645,117208,4
55637,117204,5
55642,117207,6
55639,117221,4
55642,117206,5
55643,117216,4
55648,117215,5
55645,117211,5
55641,117227,5
55648,117223,5
55653,117228,4
55645,117216,5
55648,117229,5
55656,117234,5
55652,117226,4
55645,117235,4
55662,117230,5
55643,117225,5
55649,117236,5
55649,117241,4
55654,117227,5
55636,117231,5
55638,117225,5
55648,117232,5
55641,117216,4
55646,117228,5
55652,117225,5
55642,117229,6
55649,117225,4
55644,117212,4
55637,117216,5
55639,117225,5
55649,117209,5
55641,117204,5
55637,117207,4
55636,117204,5
55633,117219,5
55635,117205,5
55639,117200,5
55627,117194,4
55627,117196,5
55636,117192,5
55633,117189,5
55635,117196,5
55632,117195,4
55624,117195,5
55631,117196,5
55639,117201,5
55629,117210,5
55641,117202,4
55641,117210,5
55647,117217,5
55639,117221,6
55641,117227,3
55644,117229,5
55636,117205,5
55631,117193,5
55622,117176,5
55622,117164,4
55603,117154,5
55601,117139,5
55594,117124,5
55593,117120,5
55586,117098,4
55575,117105,5
55588,117104,5
55580,117111,5
55583,117112,5
55596,117118,4
55596,117116,5
55595,117115,5
55602,117121,5
55590,117108,5
55597,117104,5
55584,117113,4
55590,117115,5
55593,117105,5
55585,117103,4
55583,117094,4
55592,117094,5
55576,117100,5
55578,117090,5
55582,117097,4
55570,117087,5
55575,117080,5
55577,117078,5
55575,117087,5
55560,117069,4
55572,117072,5
55564,117076,5
55569,117070,5
55549,117077,5
55576,117072,4
55579,117079,5
55576,117079,5
55562,117075,5
55569,117076,5
55559,117070,4
55563,117069,6
55572,117050,4
55556,117042,5
55559,117059,5
55560,117056,4
55588,117063,5
55561,117057,5
55568,117064,5
55570,117073,4
55574,117061,4
55564,117068,5
55564,117066,5
55570,117065,5
55566,117071,4
55569,117069,5
55566,117075,5
55565,117076,5
55571,117063,5
55566,117066,4
55569,117068,5
55559,117060,5
55556,117043,5
55571,117063,5
55565,117065,4
55567,117061,5
55567,117056,6
55571,117066,4
55567,117070,5
55561,117071,4
55573,117075,5
55573,117065,5
55571,117074,5
55560,117065,5
55562,117079,4
55565,117052,5
55562,117044,5
55565,117047,5
55553,117074,5
55566,117047,4
55557,117057,5
55560,117061,5
55553,117060,5
55556,117057,4
55549,117053,5
55558,117051,5
55562,117051,5
55547,117051,5
55554,117042,4
55556,117056,5
55554,117041,5
55554,117051,5
55546,117035,5
55553,117040,4
55553,117039,5
55547,117033,5
55547,117033,5
55544,117030,5
55547,117030,4
55541,117025,5
55544,117015,5
55539,117026,5
55544,117027,5
55541,117022,4
55531,117019,5
55533,117029,5
55548,117024,5
55548,117026,5
55549,117036,4
55546,117036,6
55554,117039,4
55551,117041,5
55547,117031,5
55556,117036,4
55555,117037,5
55546,117038,5
55557,117036,5
55551,117047,4
55557,117050,5
55566,117052,5
55567,117057,5
55562,117064,5
55559,117052,4
55563,117055,5
55560,117044,5
55551,117026,5
55541,117018,5
55523,117001,4
55528,116992,5
55520,116971,5
55510,116962,5
55508,116959,5
55508,116943,4
55509,116953,5
55502,116947,5
55508,116954,5
55515,116965,5
55515,116972,5
55517,116959,4
55508,116961,5
55508,116963,5
55506,116963,4
55506,116968,4
55511,116962,5
55525,116961,5
55515,116977,5
55516,116968,4
55520,116976,5
55522,116976,5
55516,116971,5
55517,116965,5
55520,116971,4
55512,116966,5
55511,116968,5
55515,116974,5
55507,116972,5
55518,116972,4
55518,116969,5
55519,116964,5
55510,116963,5
55507,116959,5
55507,116940,4
55509,116949,6
55491,116941,4
55495,116932,5
55489,116925,5
55493,116920,4
55474,116911,5
55483,116917,5
55497,116919,5
55491,116940,4
55480,116940,4
55507,116945,5
55506,116951,5
55514,116969,5
55493,116968,4
55521,116982,5
55521,116984,5
55524,116991,5
55533,116994,5
55528,116998,4
55524,117005,5
55534,117007,5
55549,117007,6
55527,117009,4
55537,117014,4
55527,117012,5
55552,117000,5
55534,117009,5
55539,117010,5
55532,117001,4
55542,117014,5
55524,117001,5
55522,116995,5
55530,117013,5
55537,117004,4
55529,117004,5
55542,117013,5
55535,117016,5
55543,117011,5
55539,117018,4
55538,117023,5
55541,117018,5
55548,116999,5
55535,117022,5
55546,117014,4
55534,117026,5
55537,117016,5
55533,117029,6
55548,117036,3
55544,117034,5
55543,117045,5
55552,117048,5
55553,117042,5
55539,117039,4
55552,117063,5
55549,117033,5
55544,117042,5
55546,117041,5
55545,117038,4
55545,117028,5
55537,117029,5
55541,117033,5
55542,117026,5
55545,117020,4
55533,117028,5
55532,117039,5
55537,117015,5
55531,117033,5
55541,117032,5
55539,117030,4
55539,117045,5
55544,117041,5
55538,117033,6
55542,117043,3
55543,117048,5
55553,117074,5
55560,117077,5
55562,117081,4
55558,117083,5
55557,117079,5
55554,117077,5
55555,117064,5
55552,117048,4
55545,117033,5
55535,117022,5
55519,116995,5
55521,117001,5
55514,116979,4
55508,116977,5
55515,116978,5
55515,116988,5
55520,116987,5
55526,116997,4
55532,117018,6
55536,117014,4
55538,117026,5
55538,117035,5
55532,117023,6
55535,117032,3
55533,117026,5
55540,117026,5
55532,117035,4
55539,117035,4
55536,117034,5
55545,117037,5
55543,117033,5
55536,117035,4
55538,117028,5
55542,117021,5
55536,117015,5
55534,117025,5
55533,117008,4
55533,117014,5
55533,117015,5
55530,117027,5
55542,117029,5
55530,117023,4
55538,117024,5
55536,117025,6
55539,117026,4
55539,117032,5
55539,117032,4
55538,117029,5
55539,117020,5
55533,117021,5
55535,117019,5
55532,117011,4
55537,117018,5
55536,117010,5
55527,117012,5
55537,117013,5
55533,117012,4
55534,117010,5
55522,117013,5
55537,117008,5
55533,117005,4
55531,117000,5
55525,117007,5
55532,117006,5
55530,117009,5
55524,117012,4
55527,117018,5
55532,117008,5
55528,117013,6
55530,117000,4
55515,116995,4
55517,116983,5
55492,116971,5
55515,116959,5
55501,116947,5
55497,116950,4
55475,116941,5
55479,116914,5
55478,116901,5
55475,116894,5
55458,116876,4
55448,116861,5
55450,116853,5
55444,116842,5
55449,116827,5
55427,116823,4
55432,116824,5
55430,116820,5
55445,116829,5
55433,116824,5
55435,116813,4
55420,116806,5
55441,116815,5
55436,116811,6
