RED,IR,EKG,TIME
84295,131726,12
84299,131682,5
84328,131691,5
84320,131693,7
84329,131814,8
84335,131719,5
84348,131713,7
84343,131725,8
84343,131725,5
84345,131755,7
84339,131738,8
84337,131719,7
84325,131697,8
84305,131671,5
84296,131680,7
84296,131680,8
84340,131688,5
84323,131698,7
84326,131724,8
84348,131743,5
84380,131773,7
84491,131936,8
84491,131936,5
84535,131935,7
84505,131924,8
84482,131917,5
84474,131905,7
84445,131900,8
84454,131892,5
84327,131708,7
84327,131708,8
84329,131701,7
84315,131703,5
84337,131724,8
84380,131731,7
84363,131738,5
84066,131334,8
84066,131334,7
83983,131225,5
83900,131080,8
83845,131019,7
83825,130998,5
83777,130948,8
83729,130875,7
83603,130704,7
83603,130704,10
83619,130712,5
83618,130720,5
83622,130752,8
83609,130706,7
83595,130686,10
83595,130686,9
83606,130686,9
83610,130720,10
83610,130720,5
83641,130739,8
83660,130767,7
83685,130788,9
83690,130796,10
83690,130796,9
83674,130792,10
83591,130668,9
83591,130668,10
83555,130639,5
83538,130591,5
83512,130536,10
83461,130498,5
83373,130467,5
83248,130190,10
83230,130162,5
83217,130168,5
83159,130160,10
83228,130167,5
83228,130162,7
83263,130188,2
83318,130206,2
83258,130212,5
83252,130237,4
83291,130255,5
83403,130262,5
83300,130277,5
83297,130274,5
83301,130273,5
83385,130263,4
83292,130245,5
83273,130219,5
83218,130143,6
83195,130070,3
83107,129982,5
83034,129897,5
82973,129805,5
82926,129696,4
82864,129659,5
82819,129594,5
82751,129508,5
82716,129390,5
82714,129477,4
82713,129455,5
82695,129450,5
82706,129360,5
82721,129480,5
82729,129509,5
82750,129515,4
82734,129472,5
82680,129383,5
82560,129211,5
82446,129064,4
82364,129004,6
82259,128806,4
82167,128695,5
82103,128588,5
82038,128619,10
81988,128423,5
81942,128363,7
81893,128298,5
81860,128344,8
81888,128326,7
81888,128326,5
81912,128351,8
81939,128369,7
81948,128405,5
81971,128430,8
82006,128427,7
82022,128484,5
82089,128578,8
82089,128578,7
82087,128613,10
82103,128608,7
82118,128628,5
82219,128745,8
82219,128745,7
82213,128752,5
82190,128727,8
82186,128703,7
82172,128700,5
82116,128662,8
82131,128634,7
81955,128376,7
81955,128376,8
81907,128313,7
81865,128265,5
81848,128236,8
81816,128170,7
81765,128129,13
81763,128128,5
81770,128171,5
81783,128176,8
81807,128161,7
81838,128227,9
81971,128404,10
81971,128404,5
81999,128454,5
82050,128535,10
82095,128590,5
82131,128631,5
82158,128678,10
82247,128784,5
82247,128784,7
82242,128782,8
82228,128771,5
82184,128678,7
82115,128596,8
82032,128470,5
81929,128311,7
81339,127501,13
81280,127450,7
81267,127380,8
81273,127427,5
81284,127467,7
81319,127509,8
81340,127555,5
81647,127957,7
81647,127957,8
81670,128010,5
81696,128014,7
81597,127965,8
81586,127855,7
81320,127493,8
81320,127493,5
81260,127455,7
81234,127424,8
81252,127406,5
81242,127404,7
81248,127368,8
81459,127564,9
81459,127564,5
81409,127588,8
81459,127706,7
81515,127785,5
81642,127873,8
81635,127959,7
81874,128273,10
81874,128273,5
81908,128325,7
81936,128293,5
81926,128348,2
81934,128341,3
81924,128297,4
81960,128253,5
81946,128369,5
81941,128348,5
81937,128349,5
81935,128230,4
81928,128336,5
81927,128319,5
81911,128310,5
81896,128321,5
81893,128289,4
81863,128248,5
81844,128221,5
81829,128292,5
81806,128173,5
81783,128128,4
81752,128099,5
81732,128179,5
81720,128050,6
81707,128036,3
81711,128039,5
81713,128083,5
81724,128047,5
81735,128079,5
81755,128106,4
81772,128138,5
81819,128196,5
81859,128253,5
81899,128306,5
81939,128363,4
81978,128426,5
82022,128492,5
82064,128559,5
82116,128621,5
82155,128671,4
82200,128728,5
82228,128780,5
82277,128831,5
82292,128873,4
82319,128904,5
82354,128944,4
82367,128964,5
82388,128993,5
82400,129021,4
82423,129031,5
82428,129036,5
82431,129043,5
82417,129035,5
82417,129037,4
82403,129014,5
82392,129000,5
82388,128997,5
82378,128963,5
82356,128948,4
82342,128917,5
82317,128890,5
82289,128850,5
82255,128806,5
82215,128750,4
82172,128681,5
82124,128626,5
82092,128564,5
82017,128475,4
81943,128367,4
81855,128230,6
81748,128069,4
81607,127864,5
81440,127659,4
81342,127517,5
81251,127395,5
81173,127310,5
81137,127260,5
81131,127250,4
81136,127253,5
81138,127249,5
81130,127268,5
81141,127277,5
81169,127312,4
81201,127362,5
81248,127418,5
81284,127467,5
81333,127542,5
81378,127609,4
81421,127653,5
81413,127639,5
81395,127607,5
81309,127468,4
81206,127346,5
81140,127270,5
81109,127202,6
81047,127130,4
80990,127055,4
80955,127010,5
80935,126970,5
80925,126948,5
80888,126895,5
80818,126793,4
80732,126662,5
80651,126557,5
80614,126516,5
80597,126499,5
80603,126520,4
80628,126560,5
80673,126612,5
80726,126690,5
80786,126764,5
80787,126845,4
80895,126920,5
80957,127008,5
81026,127098,5
80996,127182,5
81147,127285,4
81226,127369,5
81287,127467,5
81249,127546,5
81408,127626,4
81448,127680,5
81499,127751,5
81569,127828,5
81614,127903,5
81603,127891,4
81614,127896,5
81699,127877,5
81598,127862,5
81562,127821,5
81518,127763,4
81585,127706,5
81445,127651,5
81395,127586,5
81345,127521,4
81341,127463,4
81259,127402,5
81227,127358,5
81203,127328,5
81198,127288,4
81185,127321,6
81198,127315,4
81197,127341,5
81221,127280,5
81259,127399,4
81280,127451,5
81309,127512,5
81361,127472,5
81402,127636,5
81463,127716,5
81527,127795,4
81578,127842,5
81633,127934,5
81672,128002,5
81712,128054,4
81739,128152,5
81751,128106,5
81768,128120,5
81775,128137,4
81768,128231,4
81761,128123,5
81775,128137,6
81771,128135,4
81783,128198,4
81778,128147,5
81783,128154,7
81791,128161,3
81797,128194,5
81808,128174,4
81807,128187,5
81816,128190,5
81806,128192,5
81802,128179,5
81787,128151,4
81756,128111,5
81705,128024,5
81620,127919,5
81523,127775,5
81416,127624,4
81322,127484,5
81226,127360,5
81134,127246,5
81075,127156,4
81013,127088,4
80975,127039,5
80957,127007,5
80949,127000,5
80949,127013,3
80948,127014,5
80965,127024,5
80984,127047,5
80996,127089,5
81028,127132,4
81055,127155,5
81070,127172,5
81068,127156,5
81037,127103,5
80940,126955,4
80832,126794,5
80719,126663,5
80629,126531,5
80532,126393,5
80451,126281,4
80368,126191,5
80337,126135,5
80327,126125,5
80321,126137,4
80356,126184,6
80407,126270,4
80493,126393,5
80585,126542,5
80719,126702,6
80830,126871,3
80952,127030,5
81068,127191,5
81168,127320,5
81254,127435,4
81319,127519,5
81356,127573,5
81384,127604,5
81417,127642,5
81421,127645,4
81419,127655,5
81424,127658,5
81431,127653,5
81421,127640,5
81423,127658,4
81428,127664,5
81445,127687,5
81441,127679,5
81440,127670,4
81426,127647,5
81422,127637,6
81413,127637,4
81394,127600,5
81377,127578,4
81351,127539,7
81317,127501,3
81296,127457,5
81245,127396,5
81208,127342,4
81171,127288,5
81129,127239,5
81099,127198,5
81090,127186,5
81086,127182,4
81079,127180,5
81088,127182,5
81076,127198,5
81110,127226,4
81129,127253,4
81170,127302,5
81134,127364,5
81250,127429,5
81313,127512,4
81368,127595,5
81340,127700,5
81504,127806,6
81595,127919,4
81673,128031,4
81735,128153,5
81855,128273,5
81921,128380,5
81994,128469,5
82121,128551,4
82097,128612,5
82131,128657,5
82150,128672,5
82265,128686,5
82158,128673,4
82153,128669,5
82133,128637,5
82164,128592,5
82050,128519,4
81982,128433,4
81911,128323,5
81821,128180,5
81699,128031,5
81606,127899,5
81513,127778,4
81439,127626,5
81378,127586,5
81342,127538,6
81318,127509,3
81307,127414,5
81299,127511,5
81304,127500,5
81304,127494,5
81313,127406,4
81310,127514,5
81304,127522,5
81316,127520,5
81321,127553,5
81321,127534,4
81320,127515,5
81301,127493,5
81256,127518,5
81140,127230,4
80983,127019,4
80875,126889,5
80800,126885,5
80722,126682,5
80653,126597,4
80625,126556,6
80617,126591,4
80612,126558,5
80641,126578,5
80659,126635,6
80711,126704,3
80773,126781,5
80840,126886,5
80901,126986,5
80991,127102,4
81067,127210,5
81166,127345,5
81254,127451,5
81325,127564,5
81408,127671,4
81470,127759,5
81534,127837,5
81585,127910,5
81629,127970,4
81655,127996,5
81657,128007,5
81668,128019,5
81673,128021,5
81677,128028,4
81697,128056,5
81723,128084,6
81710,128068,4
81699,128060,5
81698,128034,4
81671,128012,5
81648,127968,5
81604,127909,5
81549,127832,5
81485,127731,4
81393,127610,5
81296,127480,5
81206,127356,5
81113,127237,5
81052,127137,4
81000,127070,5
80974,127033,5
80956,127034,5
80975,127060,4
80991,127084,5
81028,127139,5
81089,127220,5
81151,127311,5
81232,127423,4
81309,127532,5
81385,127660,5
81478,127770,6
81551,127879,4
81629,127996,4
81719,128104,5
81798,128212,5
81867,128311,5
81940,128411,5
82004,128499,4
82077,128590,5
82147,128698,5
82198,128768,5
82265,128851,4
82309,128908,4
82352,128958,5
82380,129004,5
82396,129015,5
82397,129034,4
82406,129027,5
82394,129025,5
82376,128990,5
82359,128981,5
82340,128941,5
82315,128905,8
82277,128844,1
82214,128764,5
82153,128642,6
82069,128558,3
81969,128410,5
81852,128265,5
81755,128102,5
81634,127950,5
81530,127801,4
81427,127666,5
81354,127584,5
81320,127534,5
81298,127527,4
81260,127548,4
81328,127562,5
81359,127613,5
81390,127664,5
81353,127722,4
81481,127766,5
81518,127822,5
81563,127891,5
81494,127907,5
81599,127930,4
81587,127909,6
81575,127878,4
81521,127744,5
81379,127598,5
81310,127505,4
81272,127456,5
81329,127406,5
81216,127382,5
81220,127411,5
81247,127446,4
81373,127506,5
81359,127610,5
81451,127742,5
81554,127892,4
81723,128070,4
81813,128260,5
81942,128441,5
82079,128621,5
82197,128754,4
82313,128919,5
82401,129052,5
82486,129173,5
82551,129183,5
82607,129337,4
82662,129397,5
82696,129445,6
82733,129394,4
82770,129540,5
82806,129587,5
82829,129637,4
82858,129637,5
82894,129714,5
82929,129774,5
82979,129849,4
83035,129980,5
83048,129913,5
83047,129922,5
83042,129914,4
83028,130014,4
83021,129875,5
82992,129841,5
82968,129788,5
82913,129786,4
82853,129646,5
82794,129573,5
82746,129494,5
82685,129444,5
82640,129369,4
82610,129322,5
82600,129311,5
82602,129327,6
82614,129336,4
82636,129371,4
82679,129428,5
82731,129518,5
82798,129614,5
82888,129719,5
82978,129865,4
83067,129999,5
83166,130129,5
83263,130259,5
83350,130367,4
83422,130464,4
83476,130535,5
83530,130623,5
83573,130672,5
83618,130738,4
83653,130795,5
83697,130869,5
83750,130923,5
83796,130994,5
83837,131056,5
83868,131090,4
83874,131102,5
83884,131094,5
83881,131091,5
83870,131069,4
83839,131031,5
83813,130991,5
83784,130941,5
83731,130885,5
83682,130812,4
83644,130769,5
83608,130732,5
83590,130706,5
83575,130696,4
83562,130674,5
83568,130671,5
83584,130676,5
83584,130693,5
83595,130706,4
83598,130713,5
83604,130724,5
83605,130720,5
83563,130665,5
83495,130538,4
83410,130445,6
83338,130337,4
83260,130221,5
83192,130146,5
83149,130086,4
83112,130048,5
83102,130026,5
83073,130001,5
83075,129994,5
83077,129999,4
83078,130005,5
83103,130035,5
83125,130065,5
83147,130094,4
83185,130144,5
83225,130211,5
83268,130262,5
83305,130310,5
83356,130380,4
83394,130424,5
83419,130470,5
83434,130497,5
83460,130527,5
83477,130549,4
83492,130562,5
83493,130575,5
83504,130588,5
83511,130593,5
83526,130614,4
83543,130634,5
83565,130660,5
83537,130644,5
83534,130632,4
83521,130625,4
83522,130603,5
83405,130529,5
83414,130441,5
83312,130308,4
83229,130175,5
83016,130025,5
83016,129886,5
82932,129763,5
82839,129641,4
82724,129532,5
82689,129439,5
82643,129391,5
82635,129374,5
82693,129368,4
82631,129380,5
82647,129402,5
82663,129421,5
82813,129484,5
82746,129542,4
82792,129615,5
82847,129701,5
82972,129783,5
82982,129867,4
83032,129960,4
83088,130031,5
83166,130106,5
83202,130186,5
83253,130246,4
83296,130297,5
83331,130295,5
83357,130386,5
83385,130422,5
83401,130433,4
83414,130378,6
83436,130508,4
83468,130527,5
83479,130545,5
83486,130470,6
83486,130567,3
83486,130566,5
83488,130557,5
83471,130583,5
83457,130528,4
83429,130496,5
83404,130442,5
83347,130461,5
83274,130259,4
83183,130127,5
83067,129966,5
82935,129879,5
82800,129591,5
82675,129429,4
82577,129285,5
82486,129199,5
82431,129113,5
82416,129073,5
82404,129067,4
82389,129047,5
82380,129045,6
82379,129042,4
82385,129061,5
82401,129073,4
82422,129099,5
82451,129144,5
82483,129177,5
82497,129205,4
82496,129199,4
82451,129116,5
82380,129040,5
82356,128979,5
82294,128906,4
82235,128820,5
82181,128758,5
82155,128707,5
82127,128664,5
82103,128642,4
82088,128624,5
82092,128628,5
82089,128636,5
82102,128648,5
82123,128647,4
82129,128677,5
82138,128711,5
82164,128736,6
82198,128790,4
82245,128844,4
82288,128902,5
82337,128954,5
82362,129016,5
82414,129092,4
82451,129122,4
82477,129165,5
82484,129164,5
82473,129141,5
82447,129109,4
82404,129036,5
82358,128981,5
82315,128910,5
82285,128871,5
82259,128847,4
82263,128857,5
82262,128865,5
82255,128859,5
82265,128862,5
82269,128874,5
82284,128898,4
82307,128914,5
82323,128934,5
82337,128962,6
82351,128973,3
82348,128972,5
82335,128967,5
82331,128944,5
82301,128921,4
82277,128856,5
82225,128803,5
82185,128741,5
82156,128713,5
82149,128687,4
82123,128655,5
82117,128655,5
82110,128657,5
82127,128680,5
82145,128702,4
82185,128756,5
82227,128831,5
82283,128903,5
82344,128990,5
82414,129100,4
82508,129213,6
82579,129325,4
82656,129425,5
82717,129520,4
82787,129590,4
82818,129653,5
82868,129702,5
82896,129739,5
82916,129758,4
82856,129778,5
82944,129811,5
82963,129814,5
82954,129821,5
82856,129807,4
82942,129803,5
82954,129793,5
82936,129795,5
82890,129786,5
82928,129767,4
82892,129729,5
82852,129669,5
82878,129610,5
82778,129552,5
82700,129446,4
82615,129320,5
82619,129170,6
82381,128990,4
82234,128789,4
82119,128628,5
82069,128481,5
81928,128361,5
81869,128299,5
81826,128245,4
81827,128224,5
81798,128198,5
81788,128188,5
81784,128190,5
81788,128142,4
81783,128199,5
81797,128218,5
81817,128239,5
81826,128170,5
81844,128283,4
81876,128319,5
81897,128332,5
81901,128245,5
81880,128318,5
81811,128192,5
81666,127982,4
81540,127853,5
81450,127689,6
81337,127533,3
81227,127402,5
81143,127385,5
81094,127222,5
81074,127193,5
81060,127183,4
81057,127283,5
81065,127195,5
81089,127235,5
81117,127272,5
81158,127368,4
81209,127401,5
81270,127494,5
81330,127582,5
81407,127687,5
81469,127766,4
81537,127838,5
81587,127913,5
81621,127971,5
81651,128007,4
81686,128050,6
81706,128068,4
81711,128077,5
81716,128094,5
81726,128084,4
81722,128087,5
81712,128090,5
81715,128079,5
81724,128090,5
81724,128105,4
81743,128126,5
81754,128123,5
81741,128122,5
81734,128113,5
81722,128087,4
81710,128059,5
81678,128031,5
81655,127980,5
81625,127941,5
81581,127875,4
81533,127818,5
81483,127729,5
81417,127667,5
81371,127595,4
81332,127541,5
81285,127482,6
81266,127458,4
81250,127442,5
81256,127431,4
81252,127450,5
81250,127463,5
81289,127495,5
81314,127530,5
81335,127569,4
81368,127624,5
81408,127682,5
81453,127734,5
81490,127781,5
81529,127838,4
81579,127890,5
81611,127957,5
81661,128022,5
81704,128072,4
81744,128129,4
81787,128199,5
81843,128245,5
81874,128317,5
81910,128365,4
81927,128382,5
81931,128382,5
81925,128374,6
81917,128355,4
81880,128301,4
81851,128252,5
81810,128208,5
81763,128137,5
81715,128076,5
81690,128017,4
81654,127990,5
81622,127963,5
81609,127949,5
81610,127941,5
81615,127928,4
81603,127923,5
81599,127903,7
81574,127877,3
81549,127850,4
81528,127785,5
81470,127728,5
81433,127672,5
81381,127596,5
81319,127532,5
81280,127469,4
81227,127392,5
81191,127340,5
81098,127297,5
81128,127256,4
81084,127213,5
81059,127161,5
80922,127098,5
80958,127017,5
80896,126918,4
80821,126824,5
80664,126715,5
80657,126607,5
80604,126519,4
80557,126462,4
80564,126415,5
80504,126404,5
80501,126408,5
80532,126423,4
80634,126444,5
80562,126501,5
80608,126551,5
80667,126633,5
80802,126714,4
80782,126787,6
80822,126845,4
80855,126884,5
80896,126894,5
80860,126874,4
80830,126822,5
80711,126643,5
80583,126438,5
80486,126344,5
80407,126221,4
80300,126076,5
80193,125866,5
80130,125845,5
80089,125806,5
80070,125795,4
80066,125705,5
80096,125821,5
80111,125857,5
80151,125916,4
80197,125964,5
80259,126068,5
80324,126170,6
80394,126263,4
80471,126436,4
80543,126452,5
80601,126544,7
80660,126623,3
80724,126816,5
80788,126789,4
80834,126862,5
80893,126951,5
80945,127065,5
80983,127063,5
81019,127107,4
81032,127126,5
81041,127144,5
81040,127127,5
81031,127113,4
81032,127116,5
81028,127114,5
81023,127099,5
80993,127060,5
80969,127031,4
80941,126990,5
80926,126965,5
80888,126928,5
80865,126877,5
80833,126828,4
80794,126774,5
80745,126711,5
80711,126652,5
80662,126595,5
80624,126537,4
80582,126493,5
80548,126428,5
80524,126392,5
80504,126376,4
80494,126370,4
80490,126351,5
80492,126371,5
80506,126381,5
80517,126410,4
80527,126437,5
80569,126475,5
80606,126534,5
80655,126612,5
80709,126678,4
80759,126760,5
80815,126833,5
80864,126909,5
80919,126983,5
80974,127052,5
81007,127102,4
81047,127151,5
81082,127188,5
81088,127209,5
81090,127208,4
81097,127201,5
81083,127191,5
81078,127176,5
81057,127168,4
81047,127141,4
81015,127094,5
80985,127057,5
80955,127007,5
80916,126947,4
80875,126903,5
80844,126853,5
80800,126802,5
80768,126743,5
80722,126691,4
80692,126627,5
80654,126575,5
80616,126530,4
80579,126474,5
80542,126421,4
80485,126357,7
80426,126257,3
80352,126149,5
80279,126042,5
80200,125937,4
80134,125853,5
80083,125774,5
80046,125742,5
80014,125708,4
80004,125694,4
80005,125705,5
80014,125705,5
80024,125734,5
80052,125754,4
80071,125773,5
80083,125803,5
80101,125830,5
80112,125834,5
80107,125840,4
80117,125833,5
80084,125828,5
80105,125811,6
80080,125777,4
80043,125736,4
79897,125603,5
79821,125388,5
79689,125208,5
79603,125119,5
79454,125028,4
79489,124938,5
79442,124895,5
79434,124883,5
79419,124902,4
79450,124922,5
79469,124955,5
79508,125007,5
79632,125094,5
79645,125202,4
79709,125306,5
79802,125423,5
79989,125547,5
79962,125648,5
80040,125751,5
80109,125851,4
80236,125947,5
80245,126017,5
80285,126089,6
80327,126152,3
80390,126220,5
80403,126255,5
80442,126284,5
80462,126326,4
80469,126304,4
80489,126369,5
80500,126385,5
80500,126391,5
80520,126310,4
80530,126426,5
80551,126424,5
80528,126407,5
80509,126290,5
80490,126350,4
80462,126320,5
80433,126265,5
80378,126234,5
80342,126147,5
80288,126070,4
80234,125985,6
80173,125998,4
80116,125843,5
80087,125799,5
80072,125788,6
80067,125856,3
80068,125781,5
80078,125806,5
80098,125824,4
80126,125889,4
80146,125896,5
80201,125969,5
80241,126036,5
80301,126108,4
80339,126173,5
80402,126263,5
80460,126339,5
80518,126424,5
80586,126516,4
80644,126604,5
80708,126682,5
80763,126760,5
80813,126836,5
80855,126895,4
80902,126940,5
80943,127007,6
80962,127040,4
80972,127056,5
80980,127063,4
80990,127063,5
80989,127066,5
80982,127060,5
80981,127043,4
80956,127033,5
80950,126999,5
80908,126951,5
80865,126886,5
80797,126782,4
80725,126665,5
80609,126514,5
80493,126352,5
80368,126185,5
80244,126000,4
80123,125848,5
80033,125734,5
79979,125657,5
79947,125620,5
79938,125615,4
79933,125621,5
79937,125624,5
79944,125643,6
79973,125662,3
80000,125700,4
80014,125715,5
80025,125737,5
80033,125747,5
80043,125756,4
80055,125761,5
80035,125752,5
80028,125738,5
80012,125712,5
79980,125638,4
79862,125462,5
79693,125232,5
79573,125082,5
79489,124960,5
79397,124819,4
79295,124714,5
79249,124655,5
79243,124648,5
79254,124664,5
79268,124697,5
79316,124775,4
79391,124870,5
79481,125002,5
79590,125157,6
79716,125331,3
79850,125522,5
79959,125680,5
80087,125848,5
80199,125992,4
80305,126136,5
80389,126249,5
80459,126356,5
80521,126438,5
80573,126501,4
80609,126561,5
80654,126614,5
80673,126654,5
80696,126680,5
80724,126709,4
80749,126748,5
80773,126779,5
80791,126816,5
80763,126839,5
80806,126825,4
80773,126786,6
80734,126718,4
80599,126635,5
80612,126534,4
80523,126409,4
80419,126264,5
80233,126126,5
80213,125987,5
80117,125833,4
80024,125707,5
79966,125620,5
79901,125563,5
79892,125561,5
79897,125576,4
80011,125611,5
79953,125645,5
79976,125695,5
80028,125749,5
80182,125848,4
80156,125943,5
80236,126056,5
80314,126172,5
80440,126284,5
80479,126398,4
80565,126520,5
80648,126612,6
80716,126670,4
80752,126770,4
80797,126834,5
80827,126884,5
80853,126836,5
80882,126929,5
80886,126945,4
80895,126949,5
80880,126829,5
80857,126898,5
80820,126841,5
80760,126750,4
80676,126596,5
80585,126491,5
80477,126349,5
80372,126200,5
80276,126127,4
80179,125949,5
80116,125870,5
80069,125804,5
80039,125879,5
80023,125765,4
80036,125747,5
80018,125748,5
80023,125813,5
80024,125744,4
80017,125737,5
80005,125733,5
79994,125723,5
79959,125647,5
79923,125588,4
79868,125521,5
79818,125451,5
79724,125285,5
79574,125086,5
79485,124989,4
79450,124934,5
79415,124890,5
79381,124844,5
79359,124835,5
79374,124837,4
79388,124859,5
79402,124884,5
79429,124925,5
79476,124999,4
79550,125106,5
79633,125224,4
79748,125384,5
79866,125555,5
80014,125772,4
80174,125991,5
80338,126229,5
80493,126444,5
80650,126641,5
80770,126831,4
80885,126966,5
80980,127094,5
81037,127194,5
81113,127260,5
81153,127322,4
81191,127388,5
81225,127413,5
81246,127459,5
81280,127484,5
81315,127558,4
81362,127635,5
81382,127631,5
81371,127634,5
81373,127610,4
81360,127605,5
81345,127571,6
81301,127523,4
81273,127487,5
81230,127432,4
81183,127355,5
81134,127283,5
81067,127187,5
81009,127096,5
80949,127036,4
80922,126998,5
80904,126984,5
80908,127002,5
80920,127017,5
80950,127054,4
80997,127114,5
81060,127214,5
81135,127329,5
81237,127471,4
81335,127625,4
81455,127778,5
81575,127946,5
81689,128108,5
81791,128248,4
81882,128369,5
81965,128467,5
82036,128559,5
82079,128623,5
82117,128684,4
82153,128722,5
82154,128735,5
82164,128744,5
82165,128733,5
82161,128717,4
82144,128711,5
82121,128669,5
82090,128637,5
82063,128593,5
82037,128548,4
82012,128524,5
81965,128493,5
81976,128465,5
81961,128471,4
81952,128456,4
81867,128450,5
81944,128456,5
81964,128469,5
81970,128474,5
81871,128477,4
81972,128466,5
81967,128463,5
81920,128381,5
81786,128195,4
81694,128061,5
81614,127981,5
81540,127867,5
81554,127776,5
81448,127735,4
81436,127727,5
81443,127742,5
81574,127769,5
81502,127837,5
81564,127927,4
81639,128055,5
81815,128209,5
81875,128366,5
82020,128563,4
82154,128760,5
82320,128976,5
82471,129194,5
82624,129418,5
82772,129599,4
82881,129703,6
82993,129897,4
83086,130018,5
83140,130098,5
83192,130072,4
83247,130238,5
83300,130296,5
83322,130346,5
83346,130286,5
83368,130402,4
83386,130430,5
83419,130481,5
83474,130610,5
83527,130617,4
83539,130654,4
83557,130671,5
83568,130781,5
83554,130646,5
83543,130624,4
83506,130579,5
83473,130631,5
83438,130491,5
83399,130454,4
83374,130411,4
83340,130399,5
83315,130327,5
83289,130300,5
83275,130291,5
83283,130294,4
83282,130293,5
83301,130299,5
83302,130314,5
83309,130343,5
83339,130369,4
83365,130410,5
83396,130447,5
83428,130491,5
83460,130531,4
83486,130586,4
83506,130607,5
83527,130627,5
83532,130648,5
83554,130658,5
83549,130654,4
83542,130653,5
83537,130630,5
83523,130622,6
83516,130602,3
83500,130587,5
83485,130555,5
83470,130540,5
83456,130527,5
83446,130509,4
83445,130514,5
83449,130498,5
83438,130497,5
83447,130506,5
83438,130517,4
83441,130522,5
83463,130546,5
83487,130567,5
83497,130583,4
83510,130613,5
83524,130619,5
83500,130581,5
83432,130478,5
83378,130411,4
83329,130339,6
83268,130246,4
83198,130140,5
83136,130076,5
83093,130017,6
83054,129965,3
83021,129936,5
83011,129912,5
83004,129915,5
83008,129930,4
83020,129944,5
83044,129967,5
83078,130019,5
83111,130071,5
83145,130117,4
83192,130187,5
83230,130233,5
83272,130281,5
83297,130318,4
83309,130343,5
83331,130366,5
83345,130369,5
83359,130398,5
83364,130411,4
83367,130415,5
83380,130421,6
83383,130439,4
83402,130450,5
83401,130454,4
83414,130474,5
83437,130523,5
83451,130532,5
83454,130533,5
83451,130527,4
83441,130504,5
83416,130483,5
83397,130440,5
83363,130393,4
83307,130334,4
83278,130284,5
83235,130218,5
83190,130167,5
83093,130102,4
83092,130018,5
83049,129962,5
82996,129891,5
82844,129816,5
82885,129747,4
82842,129685,5
82797,129644,5
82678,129590,6
82748,129564,4
82737,129547,4
82728,129524,5
82748,129524,5
82721,129526,5
82724,129537,5
82734,129559,4
82838,129562,5
82752,129583,5
82769,129607,5
82775,129622,4
82879,129627,4
82807,129640,5
82812,129651,5
82812,129653,5
82843,129656,4
82812,129656,5
82804,129637,5
82781,129617,5
82765,129549,5
82706,129474,5
82603,129345,4
82489,129169,5
82368,128935,5
82258,128844,6
82147,128704,3
82078,128629,5
82033,128467,5
82019,128527,5
82003,128515,5
82004,128514,4
81999,128501,5
82020,128556,5
82033,128576,5
82068,128619,4
82109,128754,5
82159,128759,5
82205,128804,5
82224,128830,5
82213,128898,4
82151,128714,5
82112,128661,5
82085,128625,5
82044,128628,5
82000,128506,4
81970,128452,6
81946,128437,4
81938,128440,5
81920,128410,5
81927,128401,4
81915,128400,5
81917,128414,5
81926,128424,5
81938,128438,4
81968,128469,4
81988,128493,5
82015,128530,5
82036,128557,5
82067,128600,4
82097,128628,5
82109,128667,5
82122,128685,5
82144,128717,5
82177,128762,4
82208,128796,5
82247,128863,5
82290,128911,5
82321,128963,5
82360,129021,4
82398,129063,5
82423,129103,6
82465,129146,4
82489,129199,5
82540,129251,4
82545,129258,5
82538,129246,5
82541,129247,5
82534,129229,4
82509,129197,4
82480,129162,5
82460,129135,5
82432,129113,5
82416,129073,4
82396,129045,5
82366,129013,5
82334,128975,5
82318,128944,5
82301,128906,4
82276,128886,5
82260,128860,5
82248,128848,5
82246,128852,5
82246,128854,4
82250,128849,5
82250,128842,5
82245,128837,6
82250,128848,4
82232,128835,4
82234,128837,5
82234,128840,5
82246,128848,5
82242,128848,4
82247,128843,5
82246,128855,5
82254,128870,5
82261,128876,5
82278,128897,4
82287,128908,5
82292,128924,5
82324,128952,5
82328,128980,5
82357,129001,4
82366,129021,5
82376,129034,5
82391,129049,5
82399,129067,5
82404,129073,5
82411,129075,4
82421,129077,5
82404,129082,5
82410,129076,5
82400,129074,4
82405,129056,5
82388,129052,5
82381,129044,5
82366,129008,4
82339,128983,5
82321,128941,5
82265,128903,5
82268,128866,5
82235,128821,4
82192,128773,5
82071,128694,5
82067,128573,5
81957,128402,5
81812,128198,4
81543,127956,5
81454,127700,5
81299,127498,5
81181,127356,5
81093,127289,4
81086,127243,6
81066,127211,4
81061,127202,5
81127,127192,4
81056,127193,4
81064,127206,5
81073,127235,5
81225,127291,5
81166,127355,4
81217,127429,5
81274,127503,5
81417,127621,5
81439,127736,5
81498,127820,4
81535,127848,5
81541,127835,5
81478,127727,5
81354,127557,5
81243,127423,4
81175,127261,5
81055,127151,5
80942,127002,6
80846,126873,4
80774,126680,4
80727,126712,5
80702,126678,5
80678,126666,5
80687,126577,4
80709,126693,5
80721,126741,5
80764,126794,5
80820,126868,5
80883,126956,4
80946,127050,5
81021,127149,5
81103,127336,5
81172,127357,5
81246,127461,4
81315,127547,5
81384,127747,5
81444,127726,5
81520,127821,5
81573,127909,4
81626,128004,5
81665,128018,5
81689,128056,5
81723,128096,5
81737,128124,4
81745,128135,5
81755,128152,5
81776,128175,5
81818,128212,4
81814,128205,5
81800,128196,5
81787,128170,5
81764,128142,5
81742,128102,4
81711,128056,5
81673,128012,5
81637,127967,5
81590,127900,5
81553,127842,4
81505,127767,5
81458,127712,5
81411,127650,5
81386,127614,5
81366,127587,4
81352,127602,5
81362,127599,5
81367,127620,5
81391,127626,4
81409,127661,5
81440,127691,4
81448,127729,5
81476,127754,5
81498,127782,4
81523,127821,5
81553,127862,5
81579,127910,5
81621,127965,5
81663,128029,4
81715,128080,5
81748,128164,5
81793,128198,5
81838,128252,5
81878,128301,4
81897,128353,5
81924,128368,5
81930,128387,5
81933,128394,5
81927,128371,4
81914,128351,5
81900,128337,5
81868,128290,5
81835,128241,4
81802,128201,5
81767,128144,6
81728,128102,4
81703,128065,5
81685,128031,4
81657,127988,5
81623,127951,5
81595,127898,5
81562,127855,5
81515,127793,4
81464,127728,5
81402,127631,5
81321,127519,5
81225,127381,5
81119,127216,4
80998,127063,5
80906,126939,5
80819,126842,5
80762,126755,4
80714,126694,4
80701,126663,5
80662,126636,5
80657,126623,5
80660,126619,8
80652,126617,1
80659,126625,5
80665,126606,5
80681,126648,5
80696,126671,4
80710,126699,5
80735,126727,5
80773,126771,5
80791,126820,5
80768,126863,4
80848,126875,5
80840,126869,5
80827,126835,5
80653,126692,5
80593,126484,4
80474,126318,5
80349,126148,5
80125,125954,5
80057,125753,4
79949,125591,5
79858,125474,4
79817,125375,5
79742,125325,5
79724,125307,6
79728,125320,3
79848,125349,5
79793,125417,5
79850,125506,5
79930,125620,4
80126,125762,5
80131,125901,5
80244,126062,5
80335,126188,5
80453,126293,4
80502,126403,5
80559,126478,5
80606,126540,5
80638,126544,5
80642,126585,4
80635,126577,5
80631,126570,5
80629,126488,5
80617,126546,4
80604,126536,5
80601,126533,6
80592,126427,4
80594,126515,5
80594,126513,5
80557,126440,6
80510,126372,3
80458,126311,5
80404,126250,5
80359,126182,4
80302,126159,5
80240,126015,5
80177,125910,5
80107,125827,5
80055,125866,4
80016,125694,5
79980,125659,5
79961,125651,5
79958,125691,4
79949,125631,4
79972,125645,5
79968,125660,5
79996,125700,5
80032,125738,4
80065,125804,5
80115,125876,5
80164,125938,6
80229,126032,4
80287,126108,4
80350,126196,5
80404,126268,5
80464,126343,5
80516,126423,5
80552,126477,4
80591,126531,5
80619,126585,5
80657,126625,5
80691,126653,5
80713,126689,4
80720,126702,5
80718,126699,5
80719,126690,5
80698,126672,4
80691,126646,5
80661,126611,5
80629,126550,5
80586,126515,5
80556,126452,5
80507,126404,4
80468,126350,5
80435,126285,5
80396,126239,6
80356,126179,3
80311,126124,5
80263,126053,5
80234,126010,5
80199,125976,5
80176,125928,4
80137,125885,5
80105,125829,5
80083,125793,5
80047,125744,4
80025,125709,4
79990,125653,5
79944,125613,5
79891,125538,5
79836,125449,4
79765,125347,5
79694,125238,5
79608,125121,5
79519,125000,5
79428,124878,4
79355,124771,6
79292,124701,4
79268,124659,5
79254,124644,5
79258,124656,4
79273,124665,5
79293,124709,5
79315,124734,5
79339,124791,5
79400,124848,4
79432,124905,5
79469,124951,5
79490,124983,5
79497,124977,4
79484,124971,5
79477,124924,5
79357,124747,5
79228,124562,5
79112,124416,4
79007,124257,5
78870,124086,5
78753,123920,5
78682,123831,5
78649,123785,4
78637,123777,5
78652,123809,6
78680,123841,4
78710,123910,5
78772,123988,4
78839,124066,5
78903,124174,5
78946,124288,5
79068,124397,4
79158,124519,4
79248,124670,5
79261,124789,5
79425,124906,5
79508,125017,4
79579,125106,5
79534,125192,5
79688,125252,5
79728,125319,5
79762,125352,4
79781,125400,5
79799,125407,5
79817,125430,5
79822,125449,5
79911,125451,4
79836,125444,5
79847,125468,5
79828,125431,6
79902,125389,4
79765,125336,4
79712,125264,5
79661,125181,5
79640,125093,5
79515,124985,4
79436,124872,4
79360,124749,5
79305,124654,5
79209,124573,5
79174,124516,4
79139,124469,5
79116,124396,5
79123,124442,5
79125,124467,5
79145,124483,4
79160,124423,5
79196,124551,5
79229,124620,5
79281,124682,5
79342,124708,5
79397,124863,4
79472,124971,5
79556,125089,5
79632,125253,5
79709,125297,4
79781,125396,5
79836,125474,5
79886,125643,5
79929,125596,4
79972,125661,5
80006,125701,5
80044,125834,5
80071,125805,5
80100,125825,4
80105,125842,5
80114,125872,5
80119,125851,5
80115,125826,5
80108,125827,4
80096,125825,5
80079,125789,5
80055,125757,5
80033,125725,5
79997,125669,4
79947,125608,6
79903,125528,4
79835,125447,5
79770,125342,4
79697,125244,4
79642,125156,5
79574,125072,5
79510,124978,5
79444,124895,4
79381,124814,5
79316,124727,5
79253,124628,5
79186,124538,5
79123,124456,4
79064,124364,5
78999,124282,5
78928,124188,5
78875,124113,5
78823,124028,4
78768,123969,5
78742,123937,5
78728,123908,5
78728,123909,5
78721,123913,4
78731,123925,5
78731,123923,6
78740,123940,4
78742,123944,4
78748,123935,5
78743,123921,5
78732,123918,5
78724,123894,5
78696,123857,4
78655,123793,5
78600,123724,5
78470,123504,5
78276,123241,5
78141,123071,4
78047,122956,5
77978,122848,5
77915,122768,5
77872,122718,5
77847,122693,4
77854,122707,5
77882,122726,5
77910,122786,5
77960,122859,5
78038,122974,4
78126,123112,5
78244,123284,5
78387,123479,5
78537,123691,4
78685,123905,5
78838,124117,5
78989,124330,5
79137,124516,5
79257,124695,4
79370,124849,5
79465,124981,5
79536,125075,5
79591,125143,5
79651,125212,4
79677,125242,5
79687,125254,5
79688,125254,5
79690,125265,5
79684,125260,4
79689,125258,5
79712,125272,5
79678,125252,5
79669,125235,4
79641,125186,5
79584,125146,4
79585,125099,5
79526,125012,5
79462,124917,4
79322,124843,5
79332,124744,5
79264,124645,5
79206,124571,5
79075,124522,4
79151,124508,5
79144,124500,5
79147,124496,5
79132,124513,5
79162,124512,4
79166,124526,5
79173,124546,5
79267,124569,5
79221,124626,5
79273,124693,4
79346,124792,5
79530,124907,5
79514,125052,5
79618,125202,4
79724,125337,5
79885,125503,6
79943,125651,4
80041,125785,5
80135,125905,4
80213,125996,5
80255,126066,5
80289,126098,5
80292,126100,5
80288,126012,4
80266,126048,5
80222,125978,5
80155,125882,5
80070,125676,5
79975,125632,4
79857,125470,5
79738,125299,5
79629,125068,5
79524,125015,4
79460,124933,5
79414,124868,4
79384,124887,5
79382,124836,5
79383,124833,4
79377,124827,5
79380,124933,5
79367,124811,5
79347,124787,5
79321,124761,4
79319,124835,5
79299,124722,5
79276,124688,5
79251,124649,5
79217,124629,4
79196,124551,5
79126,124429,5
78981,124232,5
78856,124064,5
78789,123995,4
78739,123925,5
78691,123874,5
78666,123827,5
78663,123839,4
78680,123866,5
78710,123898,4
78759,123970,5
78824,124060,5
78901,124184,6
79000,124339,3
79118,124498,5
79253,124667,5
79372,124863,5
79519,125058,4
79642,125240,5
79779,125422,5
79904,125592,5
80022,125749,5
80114,125882,4
80204,126010,5
80302,126140,5
80390,126256,5
80466,126376,4
80545,126469,4
80602,126554,5
80644,126603,5
80678,126641,5
80697,126665,4
80731,126723,5
80740,126720,6
80732,126714,4
80704,126686,5
80704,126671,4
80681,126644,7
80651,126592,3
80613,126545,5
80577,126495,5
80523,126420,4
80460,126317,5
80375,126204,5
80304,126096,5
80224,125982,5
80162,125911,4
80122,125864,5
80094,125830,5
80093,125824,5
80082,125825,4
80099,125845,4
80124,125888,5
80164,125942,5
80231,126046,5
80314,126170,4
80409,126311,5
80520,126460,5
80630,126616,6
80739,126754,4
80835,126886,4
80934,127024,5
81011,127129,5
81070,127206,5
81108,127236,5
81101,127254,4
81105,127229,5
81076,127192,5
81048,127153,5
80995,127078,5
80948,127018,4
80895,126950,5
80853,126885,5
80825,126849,5
80800,126820,4
80776,126791,5
80768,126770,7
80754,126754,3
80752,126755,5
80738,126741,5
80744,126751,4
80729,126724,5
80727,126703,5
80646,126700,6
80691,126658,3
80659,126616,5
80601,126528,5
80431,126432,5
80474,126335,5
80340,126129,4
80195,125944,5
80045,125835,5
80069,125785,5
80031,125743,4
80009,125732,4
80079,125751,5
80049,125790,5
80073,125831,5
80133,125896,4
80296,126002,5
80283,126125,5
80390,126271,5
80500,126447,5
80697,126610,4
80760,126807,6
80911,127030,4
81070,127236,5
81242,127447,5
81380,127665,6
81528,127884,3
81681,128075,5
81814,128223,5
81938,128437,5
82046,128576,4
82132,128709,5
82235,128745,5
82303,128935,5
82373,129026,5
82419,129092,4
82473,129051,5
82503,129204,5
82573,129286,5
82583,129311,4
82587,129321,5
82588,129302,5
82573,129286,5
82565,129272,5
82532,129312,4
82506,129180,5
82457,129122,6
82416,129059,4
82356,129078,5
82289,128871,4
82219,128781,5
82144,128672,5
82091,128646,5
82034,128549,5
82006,128499,4
81989,128475,5
81980,128465,5
81982,128476,5
81993,128482,4
82002,128507,4
82028,128536,5
82049,128578,5
82094,128642,5
82147,128706,4
82186,128785,5
82249,128847,5
82289,128917,5
82333,128961,5
82358,128997,4
82361,128997,5
82366,129007,5
82362,128991,6
82363,128984,4
82349,128960,4
82313,128929,5
82288,128882,5
82262,128862,5
82232,128830,4
82217,128802,4
82209,128770,5
82190,128760,5
82190,128758,5
82186,128770,4
82213,128785,5
82232,128826,5
82257,128879,5
82311,128958,5
82378,129028,4
82419,129086,5
82445,129120,5
82447,129119,5
82418,129066,5
82360,128965,5
82306,128906,4
82250,128829,5
82177,128718,5
82115,128628,6
82056,128577,3
82029,128541,5
82028,128519,5
82019,128529,5
82039,128545,4
82048,128582,4
82094,128648,5
82146,128708,5
82207,128807,5
82295,128919,4
82375,129035,5
82458,129154,5
82536,129249,5
82607,129345,5
82676,129439,4
82724,129521,5
82778,129584,5
82828,129647,5
82860,129691,5
82886,129731,4
82907,129752,6
82931,129779,4
82943,129802,5
82952,129825,5
82989,129864,4
83014,129907,5
83050,129958,5
83110,130045,5
83135,130057,4
83137,130075,5
83140,130077,5
83135,130063,5
83118,130047,5
83095,130012,4
83065,129964,5
83024,129910,5
82991,129853,5
82948,129808,5
82906,129740,4
82848,129661,5
82740,129581,5
82735,129497,5
82693,129444,5
82658,129408,4
82553,129388,5
82640,129378,6
82633,129378,4
82638,129391,4
82562,129411,4
82670,129431,5
82689,129461,5
82710,129492,5
82748,129522,4
82745,129542,5
82764,129556,5
82780,129574,5
82885,129586,5
82790,129597,4
82804,129618,5
82817,129624,5
82916,129634,5
82816,129627,5
82812,129624,4
82817,129626,5
82863,129625,5
82820,129637,5
82824,129638,5
82821,129636,4
82832,129619,5
82810,129624,5
82800,129599,6
82763,129558,3
82709,129400,4
82638,129349,5
82518,129176,5
82389,129004,5
82252,128704,4
82130,128639,5
82041,128538,5
81993,128491,5
81981,128417,5
81975,128454,4
81966,128452,5
81972,128466,5
81980,128537,5
81995,128487,5
82022,128540,4
82053,128582,5
82083,128738,5
82118,128686,5
82169,128740,5
82200,128782,5
82210,128860,4
82210,128778,5
82145,128669,5
82062,128566,4
82004,128515,4
81959,128432,5
81909,128351,5
81851,128277,5
81828,128228,4
81809,128220,5
81795,128224,5
81800,128205,5
81806,128211,5
81804,128217,4
81819,128235,5
81827,128254,5
81829,128276,5
81861,128295,5
81874,128320,4
81896,128346,5
81916,128381,5
81946,128409,5
81978,128457,5
81998,128501,4
82040,128558,6
82081,128630,4
82129,128682,5
82179,128738,4
82213,128816,4
82267,128866,5
82312,128927,5
82346,128978,5
82391,129024,4
82419,129080,5
82456,129123,5
82502,129188,5
82547,129261,5
82593,129300,4
82591,129305,5
82594,129292,5
82578,129271,5
82573,129258,5
82550,129226,4
82518,129204,5
82498,129165,5
82479,129134,5
82452,129100,5
82432,129056,4
82369,128993,5
82316,128908,6
82250,128817,4
82191,128725,4
82121,128641,4
82066,128568,5
82030,128521,5
81989,128478,5
81978,128463,4
81986,128470,5
81988,128473,5
81995,128503,5
82027,128537,5
82064,128599,4
82118,128664,5
82174,128743,5
82233,128824,5
82292,128905,5
82341,128963,4
82371,129010,5
82391,129034,5
82403,129048,5
82411,129048,5
82413,129063,4
82403,129049,5
82421,129058,5
82411,129048,5
82400,129049,4
82396,129038,5
82391,129033,5
82389,129025,5
82374,129005,5
82371,128990,4
82349,128960,5
82309,128918,5
82266,128836,5
82197,128729,5
82097,128585,4
81969,128413,5
81833,128213,5
81682,128003,5
81479,127801,5
81408,127638,4
81327,127534,6
81289,127498,4
81190,127486,5
81268,127464,5
81269,127492,5
81291,127496,4
81214,127504,5
81303,127520,5
81309,127558,4
81348,127598,5
81416,127635,5
81395,127650,5
81417,127682,5
81445,127728,4
81568,127761,5
81500,127771,5
81480,127751,5
81436,127701,5
81419,127533,4
81217,127373,5
81123,127263,5
81053,127153,5
80992,127022,5
80889,126924,4
80834,126857,5
80818,126837,5
80795,126814,4
80816,126829,5
80824,126856,4
80838,126884,7
80861,126859,3
80912,126979,5
80957,127054,5
81012,127129,4
81070,127108,5
81137,127303,5
81192,127394,5
81263,127486,4
81348,127563,5
81414,127682,5
81473,127774,5
81518,127840,5
81572,127960,4
81612,127952,5
81653,128003,5
81685,128038,5
81721,128195,5
81735,128121,4
81743,128139,5
81748,128143,5
81764,128229,6
81789,128198,3
81824,128243,4
81840,128259,5
81837,128264,5
81833,128227,5
81818,128226,4
81807,128200,5
81779,128177,5
81766,128162,5
81743,128122,5
81715,128083,4
81684,128035,5
81635,127977,5
81603,127911,5
81554,127865,5
81517,127806,4
81479,127751,5
81431,127691,5
81407,127653,5
81379,127624,5
81366,127601,5
81362,127602,4
81366,127607,5
81376,127626,5
81400,127656,6
81419,127680,3
81455,127740,5
81488,127784,5
81536,127848,5
81586,127914,4
81629,127979,5
81660,128033,5
81700,128067,5
81722,128104,5
81737,128126,4
81747,128145,5
81752,128145,5
81754,128151,5
81754,128150,5
81757,128139,4
81743,128126,5
81741,128118,5
81729,128108,5
81714,128084,5
81696,128061,4
81675,128023,6
81647,127994,4
81628,127957,5
81600,127911,4
81557,127864,6
81536,127828,3
81497,127790,5
81452,127735,5
81434,127701,4
81409,127656,5
81381,127621,5
81345,127567,5
81284,127480,5
81221,127371,4
81125,127245,5
81045,127126,5
80952,127027,5
80887,126927,5
80814,126851,4
80775,126777,5
80744,126737,5
80727,126718,5
80718,126713,5
80726,126712,4
80736,126728,5
80737,126733,6
80749,126753,4
80763,126784,4
80790,126797,4
80796,126820,5
80816,126858,5
80839,126872,5
80855,126903,4
80863,126919,5
80865,126920,5
80863,126904,5
80832,126874,5
80781,126758,4
80627,126544,5
80441,126317,5
80343,126175,5
80259,126057,5
80158,125906,4
79990,125785,5
80007,125703,5
79967,125673,5
79956,125652,5
79855,125644,4
79950,125653,5
79969,125671,5
79977,125705,6
79985,125751,3
80068,125816,5
80121,125887,5
80179,125981,5
80318,126081,5
80321,126170,4
80391,126272,5
80457,126369,5
80627,126451,5
80572,126537,5
80630,126601,4
80671,126662,5
80760,126700,5
80730,126737,5
80752,126765,5
80761,126783,4
80794,126790,5
80781,126793,5
80790,126802,5
80777,126815,5
80796,126767,5
80815,126845,4
80812,126833,5
80790,126815,5
80774,126689,4
80746,126748,5
80711,126697,5
80665,126628,5
80619,126466,5
80578,126511,4
80525,126437,5
80482,126368,4
80427,126343,5
80396,126265,5
80364,126224,4
80342,126204,5
80334,126273,5
80329,126164,5
80324,126168,5
80329,126170,4
80328,126282,5
80345,126205,5
80368,126231,5
80400,126280,5
80441,126373,4
80473,126395,6
80534,126457,4
80577,126525,5
80636,126606,4
80672,126668,5
80722,126730,5
80755,126761,5
80776,126795,5
80793,126830,4
80803,126842,5
80807,126841,5
80805,126838,5
80800,126841,5
80798,126817,4
80775,126803,5
80770,126775,5
80743,126742,5
80731,126716,5
80705,126681,4
80665,126632,5
80609,126543,5
80538,126453,5
80477,126354,4
80379,126211,4
80269,126064,5
80161,125899,6
80046,125745,4
79926,125603,4
79844,125472,5
79765,125394,5
79716,125314,5
79681,125260,5
79654,125229,4
79651,125232,5
79641,125233,5
79649,125230,5
79646,125238,5
79660,125252,4
79659,125250,5
79668,125244,5
79667,125254,5
79652,125230,5
79646,125215,4
79633,125188,5
79602,125138,5
79547,125055,5
79477,124958,5
79335,124736,4
79135,124443,5
78981,124247,5
78869,124116,5
78794,123986,4
78702,123866,5
78641,123805,5
78638,123801,5
78638,123812,5
78656,123830,4
78685,123863,5
78717,123935,5
78772,124005,5
78846,124109,5
78930,124230,4
79032,124374,5
79139,124527,5
79248,124696,5
79361,124819,5
79442,124956,4
79527,125070,5
79604,125163,5
79650,125230,5
79683,125280,4
79713,125313,5
79738,125348,4
79778,125379,5
79781,125412,5
79803,125426,4
79812,125443,5
79818,125456,5
79825,125467,5
79845,125488,5
79856,125512,4
79866,125511,5
79841,125488,5
79823,125451,5
79731,125412,5
79756,125349,4
79697,125267,5
79638,125184,5
79479,125077,5
79495,124964,5
79419,124863,4
79336,124752,5
79170,124666,5
79210,124588,5
79163,124542,4
79150,124521,5
79162,124508,6
79137,124507,4
79154,124519,5
79171,124557,4
79289,124602,5
79221,124634,5
79265,124697,5
79331,124778,5
79490,124872,4
79449,124960,5
79520,125062,5
79608,125174,5
79723,125268,5
79760,125379,4
79830,125482,5
79895,125559,5
79943,125613,5
79988,125690,5
80016,125747,4
80034,125754,5
80049,125704,5
80043,125758,5
80030,125736,5
80016,125710,4
79999,125595,5
79979,125645,5
79933,125592,5
79897,125554,4
79861,125457,5
79813,125423,5
79772,125367,5
79718,125314,5
79680,125310,4
79642,125190,5
79598,125140,5
79572,125100,5
79548,125175,5
79540,125055,4
79537,125057,5
79530,125060,5
79531,125120,5
79530,125048,5
79533,125033,4
79516,125021,5
79502,125029,5
79494,124988,5
79474,124963,6
79445,124931,3
79417,124878,5
79382,124847,5
79350,124791,5
79312,124737,4
79222,124593,5
79084,124378,5
78973,124254,5
78920,124198,5
78887,124133,4
78844,124071,5
78815,124052,5
78819,124054,5
78833,124079,5
78856,124113,4
78904,124180,5
78964,124274,5
79043,124374,5
79135,124529,4
79253,124690,4
79389,124877,5
79514,125060,5
79641,125238,5
79757,125382,4
79856,125521,6
79940,125627,4
79997,125720,5
80050,125775,5
80104,125842,4
80139,125905,5
80173,125967,5
80233,126042,5
80296,126118,5
80350,126191,4
80397,126270,5
80466,126353,5
80508,126420,5
80551,126483,5
80599,126536,4
80589,126508,5
80564,126479,5
80523,126413,5
80470,126336,4
80391,126210,4
80290,126073,5
80179,125924,5
80062,125766,4
79949,125603,4
79839,125464,5
79761,125335,5
79694,125263,5
79649,125220,5
79639,125189,4
79637,125196,5
79650,125220,5
79671,125244,5
79698,125282,5
79724,125322,4
79749,125383,5
79803,125437,5
79844,125501,5
79892,125574,5
79959,125666,4
80032,125761,5
80106,125867,5
80171,125962,5
80245,126059,5
80312,126152,4
80375,126234,5
80427,126323,5
80478,126397,6
80533,126455,3
80562,126488,5
80592,126542,5
80616,126558,5
80620,126561,5
80607,126554,4
80596,126538,5
80554,126507,5
80535,126441,5
80481,126356,5
80422,126270,4
80277,126176,5
80264,126049,5
80169,125907,5
80063,125782,5
79870,125642,4
79885,125514,5
79808,125414,5
79735,125325,5
79646,125253,4
79643,125199,5
79608,125159,4
79572,125112,5
79619,125076,5
79532,125049,6
79519,125034,3
79509,125029,5
79619,125034,5
79506,125023,5
79519,125040,4
79519,125051,5
79579,125054,5
79547,125074,5
79555,125096,5
79554,125095,4
79564,125095,5
79561,125086,5
79547,125059,5
79468,124931,5
79342,124700,4
79250,124644,5
79201,124568,5
79134,124492,5
79087,124343,4
79083,124420,4
79077,124448,6
79103,124472,4
79160,124462,5
79227,124655,4
79327,124824,5
79442,124973,4
79590,125193,5
79749,125395,5
79915,125632,4
80083,125876,5
80260,126199,5
80413,126327,5
80550,126511,5
80675,126676,4
80775,126931,5
80885,126971,5
80972,127087,5
81054,127194,5
81115,127327,4
81184,127378,5
81237,127445,5
81277,127495,5
81294,127524,4
81313,127540,4
81320,127553,5
81345,127574,6
81360,127603,4
81353,127595,4
81341,127566,5
81326,127550,5
81297,127525,5
81274,127493,5
81244,127444,4
81205,127385,5
81152,127303,5
81096,127236,5
81030,127146,5
80976,127064,4
80909,126970,5
80857,126906,5
80828,126872,5
80814,126840,5
80807,126839,4
80796,126842,5
80810,126860,5
80833,126879,5
80863,126932,5
80911,127000,4
80974,127080,5
81052,127210,5
81138,127324,6
81229,127461,3
81333,127599,5
81422,127735,5
81523,127878,5
81629,128010,5
81723,128148,4
81807,128264,5
81888,128360,5
81940,128429,5
81973,128462,5
81981,128469,4
81977,128458,5
81941,128415,5
81908,128360,5
81855,128295,5
81804,128209,4
81735,128127,5
81677,128042,5
81607,127956,5
81569,127913,4
81543,127875,6
81541,127862,4
81529,127872,5
81554,127888,5
81556,127893,4
81576,127918,5
81596,127939,5
81610,127967,5
81629,127990,5
81634,128002,4
81646,128005,5
81626,127982,5
81604,127951,5
81544,127845,5
81407,127638,4
81271,127455,5
81158,127310,5
81056,127173,5
80966,127052,5
80899,126984,4
80888,126972,5
80905,126979,5
80914,127008,5
80940,127046,4
80985,127125,5
81068,127247,6
81168,127377,7
81280,127555,2
81416,127749,4
81559,127964,5
81715,128161,5
81881,128376,5
81986,128575,5
82170,128778,4
82324,128991,5
82462,129179,5
82500,129344,5
82692,129479,5
82773,129599,4
82846,129695,5
82798,129770,5
82952,129833,5
82993,129895,5
83018,129940,4
83065,129977,5
83093,130040,5
83146,130117,5
83162,130121,4
83250,130123,5
83153,130103,5
83146,130086,6
83121,130052,4
83203,130014,4
83062,129963,5
83027,129915,5
82986,129855,5
82974,129786,5
82868,129696,4
82806,129616,5
82747,129524,5
82701,129462,5
82656,129414,5
82638,129400,4
82644,129404,5
82656,129346,5
82668,129449,5
82700,129491,5
82740,129548,4
82796,129531,5
82863,129733,5
82933,129833,5
83021,129950,5
83112,130008,4
83201,130202,5
83281,130324,5
83371,130439,5
83447,130576,4
83520,130623,5
83562,130685,5
83594,130727,5
83617,130867,5
83619,130755,4
83617,130762,5
83612,130744,5
83592,130810,5
83568,130702,5
83557,130673,4
83525,130637,5
83505,130633,5
83475,130570,5
83455,130534,4
83423,130488,4
83387,130449,5
83363,130427,5
83360,130414,5
83368,130420,4
83359,130426,6
83373,130440,4
83382,130448,5
83391,130465,5
83390,130454,4
83342,130373,5
83273,130285,5
83227,130217,5
83181,130139,5
83102,130049,4
83049,129983,5
83014,129923,5
82992,129897,5
82962,129864,5
82950,129835,4
82943,129824,5
82949,129843,5
82962,129863,5
82972,129877,4
82988,129913,4
83026,129959,5
83049,129982,5
83088,130025,5
83112,130065,4
83124,130104,5
83166,130152,6
83193,130188,4
83227,130240,5
83257,130282,4
83304,130322,5
83328,130364,5
83356,130397,5
83372,130425,5
83383,130438,4
83397,130447,5
83395,130458,5
83396,130458,5
83410,130475,5
83442,130518,4
83440,130511,5
83436,130516,5
83432,130518,5
83442,130513,4
83434,130509,4
83432,130507,5
83428,130503,5
83423,130500,5
83424,130475,4
83391,130447,5
83357,130393,5
83324,130329,5
83263,130241,5
83187,130168,4
83137,130090,5
83086,130011,5
83034,129949,5
83006,129913,5
82975,129876,4
82964,129864,5
82955,129852,5
82958,129856,5
82960,129859,5
82962,129861,4
82973,129882,5
82989,129907,5
83010,129919,5
83024,129961,4
83050,129984,4
83065,130013,5
83075,130028,5
83103,130029,5
83087,130045,5
83073,130023,4
83059,129996,5
83038,129944,5
82992,129875,5
82921,129784,4
82763,129651,5
82731,129495,5
82603,129329,5
82481,129153,5
82276,129012,4
82281,128897,5
82227,128806,5
82166,128742,5
82064,128706,5
82121,128706,4
82138,128715,5
82154,128741,5
82218,128772,5
82215,128826,4
82246,128883,4
82291,128924,5
82407,128964,5
82335,128975,5
82310,128951,4
82257,128852,6
82274,128758,4
82135,128694,5
82063,128587,5
81987,128475,4
81947,128391,5
81870,128334,5
81840,128284,5
81817,128275,5
81826,128245,4
81833,128279,5
81846,128313,5
81872,128353,5
81900,128291,5
81916,128418,4
81945,128454,5
81970,128492,5
82008,128440,5
82035,128571,4
82064,128603,4
82088,128630,4
82098,128655,5
82118,128672,5
82142,128701,4
82153,128731,5
82180,128834,5
82208,128794,5
82229,128824,5
82239,128844,4
82263,128986,5
82284,128912,5
82314,128947,5
82341,128993,5
82395,129128,4
82414,129093,5
82427,129110,5
82437,129113,5
82441,129132,5
82430,129103,4
82414,129088,5
82409,129072,5
82401,129061,5
82398,129054,5
82380,129029,4
82368,129019,5
82355,128983,5
82330,128966,6
82310,128918,3
82273,128876,5
82252,128862,5
82233,128831,5
82216,128807,5
82209,128805,4
82208,128795,5
82198,128801,5
82203,128800,5
82213,128811,5
82225,128828,4
82248,128858,5
82268,128890,5
82297,128950,5
82346,129007,5
82389,129069,4
82436,129127,5
82472,129171,5
82502,129203,5
82526,129245,4
82551,129271,5
82559,129284,4
82560,129286,5
82571,129300,5
82587,129320,6
82579,129322,3
82584,129327,5
82585,129315,5
82588,129321,5
82575,129296,4
82549,129259,5
82507,129200,5
82433,129109,5
82352,128968,5
82239,128808,4
82114,128619,5
81988,128470,5
81877,128319,5
81800,128217,5
81744,128154,4
81709,128115,5
81688,128094,5
81686,128074,5
81683,128072,4
81702,128093,4
81731,128137,6
81764,128196,4
81801,128243,5
81859,128338,4
81930,128431,5
81996,128532,5
82048,128579,5
82071,128603,5
82057,128570,4
81978,128455,5
81896,128339,5
81828,128237,5
81745,128120,5
81650,127995,4
81561,127877,5
81491,127777,5
81425,127697,5
81378,127642,5
81350,127605,4
81340,127589,5
81348,127605,5
81364,127617,5
81377,127654,4
81415,127696,5
81466,127775,5
81526,127863,6
81584,127987,4
81695,128110,4
81786,128227,5
81865,128347,5
81882,128461,5
82032,128562,5
82096,128658,4
82151,128740,5
82102,128801,5
82251,128845,5
82266,128884,5
82277,128892,4
82264,128903,5
82285,128893,5
82291,128895,5
82290,128913,5
82385,128946,4
82329,128970,5
82329,128959,5
82322,128943,5
82433,128940,5
82296,128916,4
82281,128880,5
82257,128842,5
82278,128816,6
82191,128772,3
82155,128710,5
82127,128656,5
82089,128595,5
82027,128518,5
81977,128457,4
81926,128383,5
81873,128285,5
81850,128306,5
81848,128289,5
81852,128289,4
81836,128192,5
81834,128284,5
81845,128301,5
81849,128303,4
81852,128215,4
81881,128337,5
81901,128378,5
81939,128422,5
81965,128515,4
82019,128544,6
82062,128606,4
82108,128665,5
82150,128822,5
82196,128785,4
82238,128858,5
82289,128914,5
82331,129071,5
82352,129006,5
82371,129020,4
82383,129039,5
82378,129063,5
82382,129031,5
82378,129017,5
82361,128996,4
82340,128968,5
82313,128923,5
82287,128890,5
82254,128841,4
82211,128791,4
82170,128722,5
82124,128664,5
82069,128584,5
81997,128479,4
81916,128368,5
81808,128222,6
81694,128055,4
81569,127879,5
81456,127708,4
81350,127582,5
81276,127506,5
81238,127440,5
81207,127406,5
81182,127375,4
81174,127363,5
81171,127360,5
81166,127344,5
81159,127350,5
81159,127355,4
81184,127377,5
81202,127405,5
81213,127413,5
81229,127444,4
81264,127483,4
81278,127513,5
81288,127526,5
81280,127496,5
81252,127451,4
81140,127270,5
80973,127033,5
80847,126871,6
80743,126723,4
80613,126555,4
80516,126415,5
80442,126321,5
80402,126271,5
80373,126245,5
80375,126248,4
80372,126252,5
80390,126280,5
80429,126340,5
80473,126398,5
80528,126473,4
80602,126578,5
80684,126705,5
80766,126833,5
80866,126960,4
80955,127076,4
81043,127192,5
81108,127267,5
81157,127352,5
81207,127421,5
81266,127483,4
81305,127542,5
81346,127586,5
81381,127634,5
81408,127667,4
81422,127712,5
81453,127736,5
81469,127752,5
81488,127795,5
81521,127839,4
81558,127869,5
81552,127852,5
81536,127841,5
81497,127795,5
81474,127747,4
81418,127677,5
81354,127587,5
81297,127504,6
81218,127403,3
81152,127299,4
81083,127197,5
80996,127106,5
80944,127023,5
80909,126979,4
80835,126942,6
80868,126921,4
80860,126918,5
80864,126931,5
80784,126930,4
80889,126962,5
80899,126990,5
80932,127018,5
80871,127067,5
80992,127121,4
81027,127159,5
81078,127230,5
81132,127286,5
81161,127353,5
81209,127414,4
81257,127465,5
81377,127526,5
81318,127555,5
81331,127586,4
81357,127607,4
81466,127605,5
81363,127618,5
81369,127616,5
81352,127609,4
81395,127592,5
81340,127576,6
81322,127555,4
81294,127521,5
81282,127481,4
81242,127453,5
81220,127407,5
81195,127375,5
81169,127277,5
81147,127319,4
81129,127287,5
81103,127253,5
81077,127118,5
81061,127181,5
81027,127130,4
80985,127085,4
80946,126974,5
80902,126958,5
80852,126894,5
80816,126840,4
80763,126827,5
80703,126699,5
80650,126612,6
80585,126504,3
80497,126488,5
80397,126247,5
80292,126107,5
80202,125967,5
80112,125906,4
80008,125724,5
79944,125628,5
79904,125580,5
79877,125581,5
79887,125560,4
79898,125565,5
79911,125600,5
79939,125637,5
79965,125675,5
80000,125708,4
80016,125740,5
80027,125752,5
80036,125776,5
80041,125774,4
80039,125768,5
80038,125767,5
80038,125748,5
80024,125731,5
79992,125697,5
79945,125615,4
79804,125390,5
79608,125125,5
79460,124929,5
79358,124795,4
79273,124666,5
79185,124547,5
79128,124482,5
79101,124468,5
79115,124467,4
79125,124486,5
79139,124518,5
79173,124575,5
79234,124657,5
79310,124764,4
79388,124894,5
79510,125047,5
79613,125210,5
79737,125367,4
79846,125509,5
79941,125645,5
80009,125748,5
80079,125829,5
80122,125884,4
80147,125922,6
80173,125949,4
80185,125969,5
80198,125982,5
80197,125995,4
80203,125994,5
80204,125986,5
80203,125992,5
80214,125985,5
80202,125987,4
80222,126024,5
80242,126043,5
80233,126041,5
80232,126020,5
80227,126016,4
80215,126000,5
80192,125983,5
80169,125929,5
80131,125885,4
80100,125832,5
80053,125774,5
80011,125710,5
79961,125645,5
79923,125572,4
79880,125513,5
79840,125466,5
79821,125447,5
79809,125429,5
79795,125420,4
79791,125415,5
79801,125430,5
79808,125441,5
79829,125467,5
79839,125501,4
79864,125533,5
79908,125586,5
79956,125664,5
80008,125721,5
80058,125804,4
80113,125892,5
80170,125975,5
80241,126052,5
80288,126132,5
80350,126198,4
80397,126267,5
80369,126302,5
80455,126355,6
80479,126378,3
80490,126383,5
80386,126385,5
80485,126369,5
80467,126343,5
80451,126331,4
80357,126291,5
80386,126233,5
80353,126196,5
80325,126136,5
80335,126080,4
80234,126017,5
80172,125933,5
80116,125839,5
80133,125732,5
79944,125607,4
79839,125462,5
79735,125317,5
79724,125201,5
79575,125104,4
79525,125041,6
79492,124991,4
79498,124979,5
79475,124981,5
79480,125000,6
79500,125015,3
79521,125024,5
79551,125103,5
79581,125146,5
79603,125160,4
79604,125091,5
79613,125177,5
79609,125162,5
79607,125147,5
79589,125038,4
79561,125094,5
79523,125034,5
79466,124963,5
79370,124788,4
79166,124500,4
79014,124304,5
78912,124190,5
78844,124152,5
78773,123966,4
78716,123901,5
78695,123880,6
78692,123988,4
78709,123903,5
78733,123937,4
78759,123989,5
78806,124121,5
78886,124172,5
78966,124304,5
79082,124457,4
79192,124623,5
79310,124769,5
79429,124943,5
79531,125095,5
79638,125225,4
79724,125344,5
79792,125428,5
79844,125500,5
79892,125565,4
79939,125616,4
79958,125656,5
79990,125700,5
80024,125738,5
80039,125763,4
80050,125775,5
80078,125821,5
80109,125858,6
80151,125907,4
80144,125892,4
80124,125878,5
80111,125840,5
80089,125823,5
80066,125760,5
80001,125703,4
79957,125634,5
79910,125550,5
79842,125455,5
79779,125371,5
79711,125283,4
79661,125225,5
79628,125160,5
79604,125153,5
79591,125121,4
79598,125142,4
79599,125156,5
79626,125180,5
79648,125213,5
79677,125268,5
79729,125330,4
79788,125420,5
79849,125498,5
79909,125604,6
79986,125704,3
80064,125810,5
80138,125904,5
80200,126003,5
80273,126103,5
80334,126175,4
80382,126246,5
80429,126312,5
80465,126358,5
80497,126407,5
80525,126433,4
80536,126459,5
80550,126475,5
80551,126473,5
80542,126462,4
80532,126454,5
80532,126440,5
80501,126407,5
80489,126383,5
80456,126344,4
80424,126290,6
80388,126231,4
80351,126201,5
80328,126158,5
80286,126106,4
80261,126066,5
80236,126021,5
80187,125960,5
80136,125873,5
80060,125779,4
79976,125663,5
79898,125552,5
79817,125434,5
79724,125298,5
79634,125173,4
79540,125063,5
79480,124971,5
79430,124898,5
79388,124839,4
79317,124819,5
79353,124805,5
79347,124798,5
79345,124803,5
79278,124811,4
79371,124837,5
79379,124847,6
79390,124856,4
79307,124872,5
79403,124877,4
79403,124882,5
79411,124888,5
79413,124889,5
79394,124865,5
79378,124814,4
79289,124678,5
79231,124488,5
79051,124371,5
79015,124325,4
78973,124276,4
79050,124236,5
78925,124218,5
78938,124233,5
78948,124251,4
79007,124275,5
78988,124310,5
79031,124365,5
79067,124424,5
79119,124493,4
79171,124594,5
79261,124705,5
79349,124846,6
79449,124922,4
79564,125153,4
79678,125308,5
79801,125467,5
79917,125543,5
80025,125791,5
80126,125932,4
80248,126061,4
80324,126132,5
80392,126274,5
80443,126342,4
80490,126394,4
80512,126487,5
80514,126432,5
80533,126450,5
80513,126436,4
80524,126544,5
80484,126370,5
80446,126310,5
80380,126228,5
80312,126184,5
80219,125985,4
80107,125829,5
80001,125683,5
79889,125559,5
79792,125411,4
79704,125293,5
79637,125203,5
79598,125147,5
79581,125131,5
79588,125140,4
79595,125155,5
79630,125204,5
79673,125268,5
79725,125334,4
79776,125424,4
79855,125528,5
79936,125641,5
80018,125761,5
80097,125874,4
80172,125962,5
80227,126062,5
80293,126138,5
80352,126216,5
80393,126274,4
80434,126334,6
80469,126391,4
80508,126424,5
80535,126471,5
80570,126517,4
80608,126560,5
80630,126594,5
80633,126601,5
80640,126588,5
80624,126576,4
80603,126547,5
80571,126484,5
80505,126422,5
80457,126322,4
80386,126229,5
80303,126124,5
80227,126029,5
80174,125940,5
80112,125871,4
80079,125827,5
80056,125787,5
80047,125791,5
80054,125791,5
80047,125792,4
80039,125764,5
80030,125758,6
80018,125756,4
80004,125727,5
79987,125690,4
79954,125655,5
79904,125581,5
79864,125533,5
79761,125342,5
79598,125125,4
79514,125014,5
79466,124971,5
79423,124904,5
79381,124854,4
79365,124838,5
79376,124860,5
79399,124894,5
79427,124950,5
79495,125032,4
79563,125137,5
79641,125256,5
79736,125379,5
79827,125512,5
79918,125638,4
80021,125777,5
80118,125919,5
80208,126041,5
80312,126174,5
80397,126317,4
80506,126452,5
80616,126591,5
80728,126765,5
80845,126917,5
80971,127094,4
81085,127279,5
81224,127447,5
81328,127582,5
81405,127706,4
81481,127781,5
81525,127844,5
81499,127904,5
81554,127865,5
81526,127827,4
81468,127747,5
81328,127668,5
81341,127566,5
81241,127428,5
81153,127302,5
80998,127179,4
80967,127050,5
80893,126922,5
80791,126812,5
80773,126727,4
80662,126629,5
80618,126582,5
80581,126555,5
80677,126548,5
80587,126549,4
80591,126564,5
80621,126596,5
80722,126635,5
80681,126694,4
80724,126755,5
80792,126842,5
80873,126930,5
80929,127030,5
81000,127139,4
81072,127242,5
81154,127331,5
81240,127467,5
81313,127571,5
81359,127621,4
81376,127563,6
81380,127643,4
81363,127623,5
81347,127588,5
81311,127443,4
81259,127481,5
81221,127410,5
81186,127359,5
81141,127299,4
81119,127296,4
81121,127290,5
81124,127306,5
81143,127415,5
81180,127383,4
81214,127438,5
81269,127495,5
81306,127675,5
81356,127633,5
81388,127667,4
81405,127680,5
81403,127735,5
81397,127645,5
81338,127552,5
81216,127393,4
81120,127294,5
81058,127174,5
80988,127089,5
80926,127017,5
80896,126976,4
80887,126980,5
80896,126984,5
80908,127003,5
80928,127029,4
80964,127080,4
81021,127161,5
81086,127261,5
81180,127386,5
81285,127540,4
81398,127711,5
81546,127923,5
81710,128132,5
81884,128379,5
82038,128608,5
82208,128829,4
82345,129036,5
82490,129224,5
82610,129377,6
82720,129523,3
82825,129666,5
82914,129781,5
82984,129879,5
83022,129928,5
83048,129967,4
83071,129994,5
83097,130031,5
83095,130023,5
83072,129988,4
83044,129934,4
82992,129882,5
82946,129825,5
82886,129741,5
82832,129649,4
82772,129577,5
82732,129520,5
82703,129458,5
82659,129424,5
82636,129385,4
82615,129363,6
82599,129339,4
82599,129347,5
82605,129347,5
82607,129357,6
82616,129365,3
82622,129370,5
82627,129379,5
82636,129386,5
82633,129393,4
82637,129396,5
82645,129404,5
82657,129427,5
82675,129445,4
82677,129452,4
82679,129472,5
82682,129466,5
82677,129457,5
82670,129445,4
82664,129423,5
82638,129393,5
82622,129377,5
82611,129352,5
82599,129340,4
82595,129343,5
82590,129335,6
82589,129345,4
82609,129359,5
82598,129369,4
82620,129394,5
82645,129416,5
82664,129472,5
82724,129524,5
82752,129583,4
82785,129611,5
82796,129627,5
82795,129603,5
82743,129523,4
82649,129432,4
82636,129367,5
82586,129316,5
82532,129234,5
82405,129168,4
82459,129128,5
82436,129107,5
82407,129083,5
82302,129068,5
82395,129062,4
82403,129069,5
82419,129101,5
82415,129149,6
82485,129199,4
82537,129268,4
82591,129356,5
82736,129457,5
82729,129540,5
82799,129632,5
82864,129719,4
83029,129789,5
82969,129850,5
83001,129907,5
83027,129933,4
83114,129960,4
83062,129977,5
83068,129994,5
83075,130002,5
83108,130015,4
83096,130026,5
83108,130043,5
83141,130104,5
83190,130102,5
83200,130168,5
83226,130201,4
83236,130229,5
83271,130172,5
83271,130276,6
83279,130273,3
83277,130280,4
83281,130182,5
83283,130282,5
83277,130266,5
83261,130250,4
83258,130248,5
83227,130198,5
83200,130164,5
83185,130146,4
83163,130214,4
83157,130113,5
83139,130110,5
83144,130098,5
83138,130206,4
83145,130099,5
83156,130100,5
83139,130103,5
83140,130139,5
83143,130091,4
83143,130090,6
83131,130079,4
83122,130067,5
83089,130012,5
83045,129946,4
82984,129864,5
82917,129782,5
82879,129723,5
82839,129681,5
82816,129643,4
82810,129640,5
82793,129628,5
82805,129638,5
82812,129634,4
82824,129656,4
82835,129700,5
82869,129729,5
82892,129754,5
82895,129770,4
82896,129759,5
82865,129688,5
82784,129576,5
82713,129482,5
82641,129406,4
82579,129313,5
82510,129216,6
82462,129150,4
82430,129113,5
82407,129082,4
82398,129063,5
82381,129043,5
82376,129048,5
82377,129060,5
82389,129072,4
82406,129089,5
82435,129130,5
82465,129177,5
82509,129233,4
82556,129307,4
82607,129377,5
82648,129434,5
82689,129480,5
82726,129521,4
82746,129569,5
82770,129588,5
82783,129604,5
82792,129603,5
82789,129603,4
82789,129607,5
82791,129612,5
82798,129615,6
82799,129611,4
82798,129625,4
82810,129645,5
82810,129625,5
82804,129626,5
82795,129620,5
82804,129611,4
82803,129606,5
82785,129593,5
82779,129588,5
82782,129591,4
82767,129571,4
82765,129560,5
82749,129543,5
82732,129520,5
82704,129468,4
82669,129429,5
82638,129393,5
82614,129356,5
82590,129311,5
82556,129280,5
82537,129236,4
82504,129198,5
82485,129169,5
82476,129160,5
82464,129150,4
82456,129143,5
82468,129149,5
82462,129163,5
82477,129171,5
82489,129185,4
82500,129197,5
82465,129208,5
82520,129214,5
82506,129221,4
82504,129209,4
82409,129180,5
82462,129156,5
82422,129081,5
82362,128998,4
82200,128882,5
82201,128775,5
82142,128678,5
82070,128585,5
82013,128504,4
81959,128426,6
81918,128376,4
81899,128349,5
81990,128369,5
81917,128386,4
81931,128419,5
81972,128469,5
82121,128515,5
82037,128562,5
82048,128553,4
82010,128492,5
82014,128436,5
81933,128398,5
81894,128341,4
81846,128254,4
81777,128144,5
81708,128081,5
81668,128015,5
81617,127967,4
81598,127864,5
81572,127913,5
81597,127928,5
81592,127952,5
81636,127904,4
81684,128074,5
81740,128159,6
81822,128283,3
81908,128304,5
81980,128494,4
82056,128605,5
82122,128678,5
82176,128788,5
82212,128784,5
82243,128842,4
82264,128853,5
82284,128989,5
82298,128905,5
82297,128907,4
82308,128927,4
82317,129013,5
82327,128968,5
82357,128978,5
82383,129037,4
82419,129111,5
82409,129081,5
82423,129077,5
82419,129080,5
82411,129084,4
82404,129064,5
82412,129047,5
82390,129029,5
82371,129012,5
82361,128985,4
82325,128946,5
82313,128911,5
82278,128873,5
82236,128820,5
82205,128763,4
82172,128710,5
82133,128675,5
82106,128623,5
82066,128589,4
82052,128565,4
82045,128550,5
82031,128543,5
82042,128544,5
82037,128559,4
82051,128567,5
82075,128614,5
82101,128637,5
82134,128686,5
82168,128746,5
82216,128810,4
82248,128848,5
82280,128892,5
82303,128918,5
82312,128942,4
82320,128944,5
82327,128954,5
82323,128964,5
82335,128969,5
82341,128976,4
82347,128984,5
82347,128989,5
82361,128991,5
82366,129001,4
82363,129014,4
82356,129003,5
82352,128994,5
82332,128949,5
82273,128875,4
82214,128749,5
82106,128605,5
81976,128404,5
81815,128209,5
81684,128016,4
81551,127855,6
81458,127739,4
81407,127679,5
81377,127636,5
81352,127606,4
81330,127577,5
81324,127572,5
81340,127590,5
81353,127612,5
81367,127636,4
81386,127662,5
81426,127701,5
81467,127760,5
81493,127798,4
81503,127805,4
81478,127762,5
81392,127628,5
81293,127509,5
81226,127409,4
81143,127287,5
81057,127169,5
80966,127056,5
80911,126978,7
80867,126926,2
80850,126902,5
80843,126887,5
80846,126893,5
80857,126917,5
80879,126961,4
80922,127022,5
80977,127098,5
81049,127195,5
81080,127292,5
81206,127401,4
81277,127504,5
81359,127623,5
81352,127730,5
81504,127810,4
81557,127886,4
81610,127943,5
81558,128004,5
81686,128063,5
81725,128092,5
81746,128125,4
81786,128160,5
81781,128188,5
81799,128195,5
81817,128214,3
81916,128234,5
81851,128288,5
81882,128301,5
81874,128288,5
81978,128299,4
81870,128293,5
81875,128298,5
81862,128281,5
81881,128254,5
81814,128219,4
81794,128173,5
81755,128139,5
81732,128067,5
81683,128023,4
81649,127983,4
81611,127938,5
81603,127851,5
81596,127910,5
81595,127914,4
81594,127919,6
81602,127832,4
81611,127947,5
81612,127960,5
81633,127984,6
81662,127941,3
81674,128050,5
81696,128064,5
81730,128097,5
81735,128173,4
81756,128154,5
81783,128187,5
81804,128212,5
81830,128357,5
81866,128320,4
81917,128386,5
81968,128443,5
82021,128606,5
82067,128604,4
82127,128683,4
82191,128760,5
82243,128846,5
82280,128892,5
82316,128930,4
82346,128971,5
82357,128987,6
82363,128997,4
82357,128968,5
82352,128974,4
82346,128955,5
82334,128942,5
82295,128889,5
82254,128827,5
82177,128734,4
82100,128598,5
81995,128440,5
81850,128247,5
81714,128061,5
81587,127879,4
81464,127726,5
81376,127594,5
81299,127511,5
81265,127474,4
81265,127454,4
81262,127462,5
81269,127477,5
81280,127504,5
81316,127544,4
81343,127591,5
81384,127644,5
81412,127693,6
81462,127776,4
81534,127862,4
81582,127922,5
81588,127924,5
81588,127881,5
81496,127744,5
81363,127594,4
81280,127473,5
81216,127373,5
81133,127263,5
81033,127142,5
80976,127062,4
80950,127030,5
80933,127010,5
80924,127003,5
80935,127024,4
80971,127077,4
81025,127145,5
81092,127247,5
81172,127359,5
81254,127480,5
81341,127607,4
81436,127722,5
81514,127826,5
81581,127918,6
81626,127980,3
81648,128019,5
81684,128055,5
81708,128080,5
81734,128122,5
81744,128163,4
81782,128200,5
81812,128237,5
81831,128268,5
81859,128293,5
81885,128333,4
81909,128373,5
81937,128419,5
81978,128469,5
82003,128493,4
81996,128475,4
81976,128467,5
81969,128426,5
81940,128395,5
81897,128342,4
81863,128272,6
81803,128210,4
81757,128139,5
81710,128070,5
81656,127999,4
81606,127936,5
81550,127843,5
81505,127773,5
81457,127725,5
81423,127690,4
81367,127668,5
81397,127653,5
81400,127653,5
81397,127645,5
81322,127670,4
81413,127680,5
81422,127702,5
81437,127729,5
81378,127758,4
81507,127819,4
81555,127885,5
81607,127954,5
81675,128027,5
81712,128096,4
81756,128164,5
81802,128238,6
81943,128304,4
81897,128377,5
81954,128430,4
81986,128481,5
82122,128534,5
82057,128574,5
82089,128622,5
82132,128679,4
82208,128739,5
82206,128772,5
82218,128798,5
82224,128810,5
82235,128792,4
82236,128809,5
82218,128799,5
82205,128757,5
82178,128670,4
82149,128678,4
82091,128596,5
82022,128494,5
81924,128265,5
81830,128211,4
81704,128064,5
81597,127891,5
81497,127698,6
81410,127639,4
81341,127565,5
81303,127521,4
81280,127554,5
81283,127501,5
81281,127508,5
81299,127534,4
81309,127648,5
81321,127578,5
81362,127599,5
81381,127644,5
81397,127739,4
81413,127669,5
81411,127674,5
81403,127669,5
81362,127605,4
81236,127382,4
81078,127171,5
80954,127021,5
80857,126888,5
80767,126761,5
80687,126659,4
80633,126589,5
80610,126559,5
80595,126555,6
80607,126569,3
80638,126607,5
80677,126676,5
80741,126763,5
80832,126880,5
80929,127034,4
81037,127200,5
81155,127330,5
81251,127473,5
81342,127594,5
81411,127673,4
81460,127735,5
81498,127786,5
81526,127827,5
81544,127854,4
81550,127875,4
81573,127889,5
81580,127899,5
81598,127943,5
81618,127961,4
81643,128008,6
81694,128080,4
81745,128151,5
81818,128253,5
81872,128315,4
81883,128330,5
81886,128346,5
81898,128335,5
81885,128324,5
81879,128301,4
81856,128271,5
81823,128226,5
81767,128156,5
81717,128079,5
81646,127989,4
81580,127888,5
81506,127797,5
81450,127715,5
81398,127644,4
81360,127607,4
81342,127585,5
81334,127564,5
81340,127586,5
81346,127585,4
81358,127611,5
81385,127652,6
81417,127693,4
81464,127767,5
81531,127853,4
81593,127950,5
81673,128067,5
81761,128188,5
81861,128329,5
81953,128464,4
82062,128619,5
82159,128730,5
82239,128848,5
82313,128965,5
82387,129049,4
82435,129118,5
82469,129170,5
82508,129209,5
82528,129225,4
82524,129222,4
82514,129212,5
82504,129198,5
82491,129175,5
82455,129140,4
82422,129081,5
82371,129019,5
82316,128924,6
82234,128812,4
82147,128688,4
82046,128544,5
81948,128417,5
81821,128285,5
81788,128194,5
81736,128122,4
81689,128077,5
81585,128051,5
81655,128042,5
81658,128049,5
81670,128058,4
81580,128059,5
81682,128061,5
81688,128073,5
81686,128081,4
81692,128081,4
81687,128079,5
81686,128064,5
81657,128025,5
81696,127943,5
81456,127707,4
81277,127474,5
81157,127329,5
81182,127217,5
80996,127101,4
80926,127013,5
80892,126962,5
80915,126940,5
80859,126942,5
80873,126952,4
80874,126968,5
80932,127028,5
80972,127102,5
81052,127224,5
81152,127371,4
81275,127476,5
81407,127732,5
81549,127928,5
81682,128113,4
81814,128185,4
81908,128414,5
81998,128522,5
82065,128605,5
82100,128597,4
82155,128732,6
82189,128776,4
82202,128788,5
82213,128840,5
82212,128811,4
82218,128824,5
82229,128843,5
82252,128978,5
82273,128891,5
82264,128879,4
82244,128851,5
82232,128933,5
82220,128825,5
82189,128773,5
82154,128707,4
82106,128679,5
82051,128567,5
81986,128476,5
81919,128384,4
81845,128286,4
81782,128204,5
81724,128128,5
81697,128086,5
81677,128074,4
81670,128073,5
81683,128084,7
81695,128094,3
81710,128114,5
81732,128165,4
81777,128219,5
81813,128275,5
81869,128365,5
81930,128440,5
82006,128552,4
82072,128661,5
82167,128790,5
82261,128904,5
82364,129041,5
82452,129169,4
82544,129318,5
82657,129457,5
82745,129591,5
82835,129715,4
82913,129814,4
82978,129899,5
83023,129953,5
83038,129960,5
83020,129942,3
82985,129891,5
82951,129832,5
82878,129714,5
82795,129609,5
82707,129473,4
82605,129343,5
82518,129222,5
82445,129131,5
82388,129064,5
82359,129028,4
82347,129019,5
82348,129022,5
82349,129032,5
82365,129046,5
82378,129052,4
82395,129095,5
82421,129133,5
82450,129167,5
82472,129180,4
82468,129185,5
82462,129165,4
82387,129034,5
82267,128856,5
82148,128722,6
82057,128587,3
81947,128422,5
81834,128286,5
81752,128190,5
81719,128143,4
81699,128111,5
81710,128138,5
81720,128169,5
81772,128251,5
81839,128342,4
81927,128458,5
82040,128617,5
82151,128772,5
82261,128944,5
82387,129092,4
82492,129244,5
82595,129389,5
82684,129486,5
82746,129585,4
82806,129666,4
82847,129728,6
82895,129762,4
82912,129807,5
82943,129838,4
82980,129889,7
82996,129931,3
83026,129962,5
83061,130008,5
83063,130077,4
83127,130094,5
83111,130096,5
83113,130070,5
83016,130059,5
83077,130007,4
83034,129941,5
82974,129870,5
82812,129771,5
82837,129676,5
82757,129561,4
82668,129451,5
82569,129323,5
82507,129218,5
82433,129131,4
82386,129069,4
82446,129038,5
82352,129032,6
82358,129048,4
82375,129060,4
82486,129082,5
82412,129118,5
82447,129171,5
82492,129221,5
82582,129297,4
82591,129377,5
82678,129484,5
82750,129596,5
82860,129729,5
82934,129877,4
83031,129990,5
83124,130117,5
83211,130186,5
83295,130374,5
83399,130513,4
83500,130634,5
83591,130673,5
83657,130845,5
83695,130893,5
83702,130906,4
83683,130771,5
83664,130843,5
83620,130788,6
83565,130701,3
83482,130605,5
83380,130438,5
83283,130287,5
83172,130149,5
83078,130118,4
82993,129932,5
82945,129847,5
82904,129808,5
82907,129910,5
82903,129809,4
82917,129836,5
82937,129875,5
82964,129926,5
82984,129920,5
83001,129948,4
83034,129998,5
83055,130022,5
83064,130027,5
83062,130020,4
83038,129974,5
82949,129825,4
82820,129661,5
82709,129502,5
82600,129345,6
82473,129177,3
82388,129058,5
82331,128997,5
82300,128951,5
82292,128944,4
82282,128945,5
82300,128972,5
82336,129009,5
82367,129068,5
82435,129166,4
82500,129265,5
82587,129381,5
82684,129524,5
82793,129667,5
82901,129812,4
82986,129936,5
83062,130043,5
83135,130125,5
83191,130194,4
83227,130231,4
83237,130255,6
83242,130264,4
83260,130266,5
83247,130269,4
83236,130236,5
83217,130220,5
83211,130208,5
83208,130207,5
83202,130213,4
83203,130219,5
83203,130200,5
83201,130194,5
83188,130197,5
83189,130179,4
83170,130145,5
83145,130116,5
83112,130092,5
83099,130055,5
83064,130025,4
83042,129963,5
82986,129898,5
82941,129823,5
82863,129723,4
82796,129633,4
82733,129553,5
82686,129475,6
82657,129426,4
82616,129389,4
82590,129360,5
82584,129347,5
82590,129353,5
82594,129375,5
82622,129402,4
82643,129431,5
82666,129480,5
82707,129521,5
82747,129593,5
82801,129671,4
82859,129749,5
82911,129822,5
82961,129874,5
83002,129920,5
83026,129961,4
83039,129983,5
83047,129989,5
83048,129984,5
83031,129964,5
83007,129934,4
82981,129891,5
82938,129829,5
82873,129739,6
82810,129641,3
82741,129546,5
82635,129447,5
82605,129356,5
82549,129289,5
82518,129228,4
82392,129185,5
82447,129148,5
82430,129147,5
82444,129149,5
82347,129163,4
82472,129184,5
82483,129212,5
82492,129217,5
82481,129220,5
82477,129185,4
82394,129047,5
82271,128861,5
82233,128726,5
82064,128589,5
81974,128457,5
81890,128341,4
81923,128266,5
81773,128205,5
81740,128149,4
81716,128128,5
81774,128116,5
81709,128121,5
81735,128151,5
81760,128192,4
81814,128248,5
81843,128312,5
81893,128391,5
81954,128473,5
82011,128507,4
82069,128628,5
82119,128687,5
82152,128740,5
82182,128681,5
82208,128821,4
82235,128840,5
82245,128869,5
82264,128782,5
82268,128888,5
82281,128904,5
82283,128900,5
82285,128929,4
82286,128919,5
82297,128934,4
82295,128934,5
82285,129004,5
82274,128885,5
82247,128843,5
82224,128814,4
82187,128882,5
82164,128744,5
82151,128716,5
82138,128703,5
82133,128736,4
82129,128693,5
82124,128696,5
82118,128692,5
82118,128688,5
82107,128665,4
82110,128653,5
82092,128659,5
82100,128650,5
82097,128643,5
82093,128639,4
82081,128633,5
82087,128644,6
82082,128638,4
82090,128645,4
82101,128657,5
82119,128680,5
82136,128715,5
82160,128751,5
82186,128790,4
82227,128849,5
82270,128910,5
82323,128973,5
82373,129041,5
82417,129121,4
82477,129183,5
82513,129255,5
82567,129315,5
82586,129350,5
82604,129352,4
82601,129344,5
82584,129329,5
82556,129265,5
82493,129188,5
82412,129067,4
82305,128913,5
82202,128761,5
82087,128604,5
81991,128475,4
81929,128395,5
81874,128339,5
81862,128317,5
81848,128306,5
81854,128309,4
81854,128337,5
81890,128357,5
81911,128402,5
81955,128459,5
81994,128528,4
82024,128557,5
82047,128582,5
82036,128556,5
81968,128441,5
81882,128333,4
81821,128269,5
81779,128195,5
81713,128124,5
81674,128058,5
81640,128018,5
81631,127998,4
81626,127993,5
81620,127997,5
81632,128006,4
81648,128025,4
81659,128053,5
81693,128093,5
81725,128139,5
81764,128198,4
81810,128264,5
81860,128332,5
81921,128419,5
81980,128498,5
82042,128583,4
82106,128675,5
82163,128759,5
82229,128846,5
82290,128932,5
82354,129005,4
82396,129073,5
82440,129113,5
82456,129145,5
82459,129150,5
82456,129137,4
82461,129138,6
82448,129130,4
82420,129133,5
82423,129091,4
82401,129056,4
82359,129000,5
82231,128934,5
82266,128865,5
82212,128783,4
82161,128714,5
82010,128648,5
82058,128583,5
82024,128524,5
81966,128461,4
81900,128386,5
81865,128312,5
81817,128244,5
81776,128185,5
81827,128162,4
81737,128136,5
81725,128125,5
81718,128121,5
81830,128140,5
81740,128161,4
81760,128190,5
81803,128240,5
81885,128281,5
81867,128344,4
81905,128392,4
81933,128438,5
81989,128487,5
82010,128531,5
82028,128555,4
82047,128591,5
82075,128574,5
82085,128650,5
82110,128662,5
82125,128673,4
82137,128618,5
82165,128749,5
82196,128791,5
82221,128824,5
82250,128773,5
82282,128913,4
82305,128940,5
82327,128973,5
82353,129013,6
82350,129008,3
82350,129003,5
82346,128980,5
82332,129043,5
82302,128912,4
82256,128854,4
82174,128746,5
82091,128723,5
81972,128428,5
81831,128228,4
81677,128030,5
81514,127821,5
81335,127547,5
81172,127332,5
81059,127179,4
80980,127085,5
80923,127017,5
80889,126961,5
80870,126928,5
80859,126915,4
80861,126926,6
80874,126945,4
80880,126961,5
80912,127020,5
80955,127075,6
80999,127118,3
81044,127199,5
81092,127275,5
81137,127334,4
81158,127342,4
81159,127326,5
81093,127222,5
80978,127061,5
80884,126955,4
80825,126859,5
80748,126743,5
80661,126626,5
80595,126542,5
80538,126485,4
80520,126436,5
80493,126423,5
80498,126422,5
80504,126440,5
80528,126471,4
80572,126527,5
80617,126612,6
80691,126717,4
80773,126836,5
80873,126969,4
80977,127116,5
81077,127250,5
81172,127383,5
81271,127512,4
81352,127630,4
81419,127723,5
81482,127801,5
81536,127875,5
81587,127925,4
81612,127979,5
81655,128016,5
81673,128039,5
81685,128061,5
81701,128081,4
81704,128108,5
81721,128127,5
81744,128174,5
81764,128167,5
81760,128171,4
81740,128137,5
81713,128104,5
81690,128067,6
81656,128013,4
81610,127941,4
81560,127876,5
81511,127808,5
81457,127733,8
81396,127665,1
81348,127588,4
81293,127523,5
81252,127452,5
81207,127406,5
81183,127373,4
81175,127361,5
81175,127365,5
81177,127370,5
81179,127370,5
81193,127392,4
81211,127413,5
81230,127442,5
81250,127472,5
81284,127509,5
81311,127563,5
81341,127602,4
81381,127651,5
81412,127706,5
81449,127761,6
81443,127793,3
81511,127827,5
81539,127877,5
81572,127925,5
81533,127980,4
81648,128030,4
81687,128081,5
81713,128125,5
81652,128158,5
81768,128191,4
81789,128209,5
81800,128231,5
81796,128233,5
81789,128226,5
81801,128208,4
81783,128210,5
81843,128181,5
81756,128158,5
81746,128132,5
81715,128092,4
81803,128056,6
81663,128020,4
81619,127970,5
81569,127906,5
81575,127818,4
81437,127702,5
81349,127575,5
81239,127421,5
81138,127250,4
80999,127103,4
80903,126971,5
80825,126866,5
80769,126735,5
80741,126767,4
80736,126761,5
80741,126763,5
80740,126670,5
80742,126766,5
80735,126772,5
80742,126766,4
80753,126684,5
80752,126788,5
80758,126784,5
80757,126791,4
80767,126835,5
80771,126789,6
80759,126784,4
80723,126744,5
80659,126715,4
80483,126361,5
80355,126195,5
80272,126105,5
80211,126098,4
80150,125925,4
80085,125848,5
80069,125823,5
80051,125852,5
80068,125821,4
80077,125848,5
80105,125879,5
80144,125942,5
80202,126030,5
80272,126134,4
80375,126273,5
80493,126436,5
80604,126605,5
80731,126785,5
80862,126945,4
80978,127121,5
81087,127254,5
81174,127366,6
81240,127462,4
81307,127532,4
81335,127607,5
81380,127645,5
81412,127682,5
81437,127714,4
81454,127744,4
81468,127766,5
81484,127787,5
81505,127816,5
81540,127856,4
81573,127938,5
81627,127973,5
81618,127981,5
81627,127970,5
81624,127968,4
81616,127959,5
81601,127930,5
81580,127906,5
81558,127872,5
81519,127837,5
81488,127786,4
81447,127724,5
81395,127645,5
81354,127592,5
81301,127519,4
81251,127450,5
81204,127390,5
81172,127337,5
81133,127298,4
81107,127261,4
81102,127256,5
81096,127257,5
81111,127266,5
81128,127298,4
81161,127353,5
81209,127436,5
81283,127533,5
81380,127663,5
81478,127813,4
81595,127967,5
81692,128121,5
81810,128291,5
81937,128452,5
82039,128583,4
82136,128707,6
82203,128813,4
82258,128886,5
82309,128935,5
82319,128958,4
82324,128952,5
82309,128923,5
82288,128889,5
82255,128844,4
82202,128768,4
82141,128685,5
82060,128562,5
81968,128439,5
81875,128301,4
81760,128151,5
81663,128024,5
81577,127915,5
81505,127824,5
81458,127745,4
81423,127705,5
81420,127700,5
81416,127701,5
81419,127729,5
81446,127750,4
81454,127760,5
81435,127790,6
81505,127819,4
81520,127850,5
81546,127881,4
81475,127892,5
81554,127891,5
81546,127886,5
81533,127849,4
81380,127754,4
81324,127536,5
81173,127326,5
81049,127174,5
80955,127028,4
80843,126875,5
80760,126761,5
80686,126676,5
80729,126638,5
80641,126613,4
80644,126635,5
80656,126669,5
80801,126716,5
80750,126796,5
80827,126906,4
80918,127051,5
81076,127202,5
81160,127384,5
81297,127570,5
81423,127742,4
81549,127907,5
81649,128043,5
81749,128178,5
81818,128272,4
81875,128294,4
81932,128427,5
81971,128469,5
81994,128489,5
81994,128410,4
82006,128526,5
82017,128527,5
82019,128547,5
82031,128489,5
82059,128588,4
82056,128580,6
82040,128556,4
82024,128567,5
81992,128479,5
81958,128455,6
81919,128381,3
81877,128433,5
81828,128264,5
81792,128203,5
81740,128141,4
81689,128158,5
81641,128003,5
81586,127936,5
81554,127889,4
81539,127900,4
81528,127860,5
81538,127873,5
81544,127868,5
81552,127900,4
81578,127942,5
81616,128007,5
81680,128090,5
81747,128188,5
81831,128292,4
81895,128388,5
81966,128485,5
82048,128595,5
82113,128692,5
82204,128814,4
82277,128927,6
82368,129048,4
82448,129161,5
82520,129263,5
82599,129357,4
82666,129455,5
82731,129555,5
82792,129636,5
82830,129691,4
82858,129723,4
82866,129730,5
82868,129700,5
82833,129686,5
82806,129628,4
82742,129519,5
82639,129388,5
82523,129209,5
82383,129020,5
82242,128825,4
82105,128629,5
81980,128470,5
81871,128335,5
81801,128233,5
81752,128169,4
81719,128132,5
81714,128125,5
81705,128130,5
81715,128147,5
81736,128151,4
81731,128166,5
81743,128180,5
81756,128186,5
81765,128204,4
81770,128221,4
81772,128210,5
81768,128198,5
81747,128173,5
81670,128036,4
81517,127810,5
81380,127642,5
81282,127503,5
81185,127377,5
81095,127260,5
81041,127180,4
81016,127169,5
81019,127167,5
81027,127172,6
81044,127224,3
81089,127284,5
81159,127374,5
81236,127509,5
81347,127660,5
81476,127838,4
81609,128035,5
81749,128224,5
81890,128408,5
82020,128580,4
82137,128752,4
82244,128891,5
82332,129019,5
82428,129152,5
82500,129234,4
82557,129309,5
82593,129357,5
82610,129375,5
82618,129382,5
82621,129379,4
82609,129368,6
82602,129352,4
82610,129369,5
82559,129371,5
82605,129358,6
82588,129326,3
82581,129331,5
82477,129324,5
82572,129315,5
82562,129297,4
82549,129273,5
82427,129263,5
82511,129226,5
82492,129196,4
82442,129141,4
82429,129072,5
82353,129004,5
82297,128919,5
82255,128863,4
82301,128811,5
82188,128780,5
82171,128777,5
82180,128776,5
82292,128799,4
82213,128827,5
82235,128887,6
82297,128954,4
82404,129045,5
82431,129149,4
82521,129271,5
82618,129404,5
82734,129555,5
82852,129748,5
82987,129943,4
83113,130137,5
83246,130244,5
83376,130469,5
83477,130610,5
83547,130713,4
83609,130670,5
83637,130797,5
83638,130795,5
83620,130766,4
83590,130660,5
83532,130640,5
83443,130522,5
83330,130372,5
83217,130256,4
83089,130013,5
82978,129866,5
82884,129765,6
82832,129815,4
82812,129671,4
82804,129666,5
82812,129685,5
82824,129781,5
82847,129741,5
82881,129780,4
82921,129836,5
82959,129917,5
82997,129943,5
83031,129981,4
83038,129988,5
83028,129977,5
82990,129907,5
82882,129749,5
82792,129626,4
82715,129520,5
82616,129383,5
82527,129252,5
82457,129165,5
82419,129116,5
82390,129088,4
82376,129066,5
82372,129071,5
82389,129100,7
82404,129119,2
82448,129183,5
82518,129273,5
82605,129403,5
82712,129571,5
82850,129764,4
82998,129963,5
83134,130153,5
83264,130333,5
83377,130470,4
83469,130579,5
83528,130672,5
83561,130707,5
83575,130731,5
83589,130743,4
83605,130755,5
83590,130734,5
83584,130748,5
83592,130761,5
83616,130780,4
83650,130833,6
83730,130953,4
83789,131029,5
83817,131071,5
83851,131105,4
83866,131123,5
83869,131114,5
83853,131095,5
83824,131058,4
83805,131023,4
83746,130968,5
83699,130892,5
83648,130811,5
83578,130713,4
83511,130630,5
83456,130553,5
83414,130483,5
83388,130456,5
83374,130446,4
83376,130445,5
83383,130455,5
83389,130483,5
83414,130516,6
83445,130549,3
83481,130600,5
83509,130645,6
83545,130698,4
83589,130753,5
83638,130813,4
83692,130885,5
83736,130959,5
83783,131029,5
83828,131088,4
83870,131127,4
83885,131163,5
83901,131172,5
83898,131171,5
83894,131172,4
83890,131147,5
83865,131118,5
83845,131092,5
83810,131055,5
83792,131023,4
83761,130972,5
83714,130940,5
83702,130897,5
83682,130869,5
83678,130856,4
83612,130856,5
83675,130861,5
83690,130886,6
83712,130923,4
83646,130962,4
83753,130983,5
83781,131006,5
83773,131002,5
83670,130912,4
83664,130851,4
83614,130762,5
83550,130673,5
83543,130579,5
83434,130523,4
83400,130490,5
83380,130446,5
83462,130417,5
83351,130418,5
83339,130403,4
83339,130400,5
83422,130413,5
83349,130433,5
83373,130441,5
83393,130480,5
83435,130510,4
83443,130555,5
83472,130592,5
83507,130642,5
83536,130639,4
83572,130731,5
83601,130764,5
83620,130782,5
83647,130732,4
83670,130837,5
83668,130845,5
83687,130872,5
83697,130777,5
83688,130886,4
83693,130877,5
83699,130890,5
83714,130935,5
83726,130925,5
83721,130920,4
83717,130917,5
83720,130994,5
83712,130884,5
83674,130846,5
83642,130799,4
83625,130901,6
83605,130742,4
83573,130707,5
83554,130674,4
83517,130670,4
83474,130564,5
83439,130510,5
83383,130443,5
83341,130387,4
83306,130335,5
83269,130300,5
83243,130261,5
83234,130248,5
83229,130243,4
83225,130239,5
83241,130249,5
83242,130263,5
83259,130276,5
83274,130315,4
83284,130327,5
83306,130354,5
83320,130375,5
83349,130418,5
83363,130436,4
83396,130471,5
83416,130500,6
83447,130543,4
83455,130556,4
83475,130590,4
83481,130598,5
83488,130597,5
83487,130579,5
83472,130570,4
83447,130528,5
83398,130462,5
83325,130361,5
83246,130231,5
83123,130065,4
82996,129870,5
82851,129683,5
82725,129523,5
82626,129392,5
82529,129257,4
82460,129166,5
82416,129113,5
82409,129109,5
82420,129124,5
82431,129143,4
82460,129174,5
82492,129232,5
82528,129297,5
82575,129349,4
82605,129383,5
82604,129382,5
82561,129288,5
82478,129180,5
82414,129103,4
82349,129007,5
82269,128879,5
82198,128778,5
82134,128716,5
82103,128667,4
82063,128618,5
82052,128588,5
82037,128575,5
82053,128586,5
82048,128609,4
82065,128641,5
82118,128676,5
82153,128750,5
82201,128814,5
82260,128897,5
82309,128967,4
82365,129044,5
82417,129111,5
82468,129177,4
82525,129270,5
82574,129329,5
82621,129402,5
82664,129453,5
82701,129506,4
82729,129562,5
82771,129585,5
82793,129615,5
82801,129640,5
82816,129667,4
82842,129691,5
82874,129732,5
82871,129735,5
82820,129723,5
82856,129706,4
82842,129691,5
82828,129667,5
82722,129634,5
82782,129599,4
82757,129561,4
82729,129515,6
82607,129482,4
82654,129425,5
82604,129344,4
82551,129280,5
82512,129182,5
82432,129107,5
82392,129045,5
82344,128996,4
82421,128963,5
82313,128947,5
82300,128941,5
82306,128957,5
82412,128957,4
82326,128984,5
82348,129019,5
82377,129065,5
82452,129115,5
82463,129200,4
82529,129269,5
82576,129332,5
82621,129375,5
82665,129460,4
82712,129504,4
82739,129560,5
82771,129523,5
82786,129629,5
82812,129661,4
82822,129672,4
82833,129587,5
82841,129689,5
82846,129694,5
82856,129692,4
82847,129660,5
82844,129693,5
82839,129692,5
82840,129685,5
82819,129719,4
82805,129620,5
82753,129548,5
82677,129441,5
82572,129408,5
82461,129125,4
82317,128925,4
82176,128732,5
82045,128625,5
81931,128403,5
81861,128299,3
81801,128237,5
81773,128213,5
81735,128149,5
81727,128149,4
81722,128139,5
81739,128161,5
81759,128179,5
81778,128202,5
81793,128240,4
81826,128283,5
81857,128346,5
81891,128382,5
81902,128372,5
81867,128312,4
81774,128183,5
81679,128072,5
81622,127979,5
81547,127863,5
81458,127742,4
81374,127632,6
81312,127569,4
81284,127529,5
81266,127495,4
81256,127489,7
81257,127486,3
81273,127513,5
81297,127554,5
81339,127620,4
81401,127705,5
81478,127818,5
81572,127949,5
81695,128119,5
81812,128286,4
81925,128434,5
82033,128586,5
82115,128696,5
82178,128771,5
82221,128819,4
82250,128852,5
82262,128874,5
82270,128880,5
82272,128886,4
82272,128883,4
82274,128881,5
82277,128881,6
82272,128892,4
82303,128928,4
82351,129005,5
82383,129047,5
82412,129082,5
82436,129118,5
82450,129133,4
82447,129138,5
82443,129124,5
82427,129097,5
82389,129042,5
82351,128979,4
82290,128905,5
82233,128819,5
82164,128721,5
82098,128619,5
82022,128537,4
81957,128447,5
81920,128389,5
81887,128348,5
81874,128337,5
81869,128329,4
81870,128333,5
81884,128347,5
81891,128365,6
81902,128393,3
81936,128420,5
81952,128458,5
82004,128509,5
82042,128568,5
82088,128639,4
82132,128709,5
82187,128777,5
82224,128847,5
82272,128913,5
82316,128961,4
82364,129030,5
82381,129075,5
82433,129132,5
82469,129170,5
82497,129196,4
82442,129219,5
82521,129231,5
82523,129247,5
82510,129224,4
82414,129229,5
82504,129215,4
82492,129197,5
82475,129178,5
82416,129149,6
82439,129135,3
82419,129093,5
82394,129056,5
82422,129015,5
82331,128974,4
82308,128924,5
82246,128839,5
82302,128769,5
82114,128641,5
82013,128509,4
81893,128335,5
81823,128156,5
81634,127974,5
81508,127793,5
81406,127674,4
81364,127593,5
81310,127548,5
81278,127526,5
81267,127511,4
81278,127467,5
81288,127527,6
81289,127531,4
81296,127532,5
81311,127474,4
81328,127589,5
81355,127622,5
81372,127650,5
81394,127585,5
81412,127705,4
81425,127731,5
81444,127722,5
81411,127711,5
81355,127587,5
81200,127358,4
81027,127136,5
80916,127072,5
80797,126829,5
80696,126676,4
80590,126545,4
80527,126561,5
80484,126418,5
80462,126379,5
80457,126392,4
80478,126449,5
80496,126434,5
80529,126482,6
80568,126542,4
80628,126636,4
80701,126737,5
80796,126866,5
80886,126989,5
80973,127113,5
81070,127232,4
81144,127346,5
81230,127446,5
81293,127551,5
81357,127628,5
81415,127703,4
81458,127766,5
81501,127835,5
81542,127874,5
81564,127918,4
81586,127939,4
81595,127945,5
81599,127961,5
81605,127954,5
81608,127982,5
81634,127991,4
81618,127978,5
81599,127958,5
81595,127926,6
81572,127910,3
81539,127872,5
81521,127835,5
81483,127787,5
81454,127749,5
81419,127697,4
81376,127638,5
81342,127578,5
81292,127525,5
81263,127464,5
81222,127425,4
81187,127383,5
81176,127370,5
81171,127360,5
81175,127347,4
81167,127365,5
81178,127369,5
81182,127382,5
81201,127400,5
81212,127419,4
81239,127458,6
81249,127477,4
81270,127527,5
81310,127569,5
81341,127609,4
81375,127667,5
81411,127707,5
81464,127769,5
81498,127822,5
81532,127874,4
81574,127936,5
81604,127991,9
81644,128033,5
81706,128101,13
81706,128101,7
81697,128087,8
81679,128041,7
