RED,IR,EKG,TIME
26922,49924,10
26920,49968,5
26916,49912,7
26916,49912,8
26911,49906,5
26910,49908,7
26906,49933,8
26906,49890,5
26889,49894,7
26905,49896,8
26905,49896,5
26904,49890,7
26906,49895,8
26906,49898,5
26911,49890,7
26869,49884,8
26880,49890,5
26891,49882,7
26882,49858,8
26882,49858,9
26894,49864,5
26887,49868,8
26890,49889,12
26890,49889,8
26893,49877,7
26903,49890,10
26909,49902,7
26909,49902,5
26916,49920,8
26915,49933,7
26915,49893,5
26908,49907,8
26905,49883,7
26894,49895,5
26905,49894,8
26905,49894,7
26902,49913,7
26899,49894,10
26902,49888,5
26906,49899,5
26900,49888,8
26900,49888,7
26940,49888,10
26903,49893,9
26898,49882,9
26898,49882,10
26900,49847,5
26892,49886,8
26897,49877,7
26904,49881,8
26904,49881,10
26897,49905,5
26884,49878,5
26894,49895,10
26893,49866,5
26894,49865,5
26890,49863,10
26890,49863,5
26893,49874,5
26876,49852,10
26887,49865,5
26889,49871,7
26883,49857,8
26883,49857,5
26911,49857,7
26826,49847,8
26874,49853,5
26873,49850,7
26884,49875,8
26824,49878,5
26853,49824,7
26853,49824,8
26849,49819,5
26847,49806,6
26893,49809,8
26842,49804,5
26838,49803,7
26848,49829,8
26908,49812,5
26843,49799,7
26843,49799,8
26838,49799,5
26822,49777,7
26831,49765,8
26826,49761,5
26892,49880,7
26828,49769,8
26828,49769,7
26822,49748,8
26819,49770,5
26814,49763,7
26815,49736,5
26821,49720,8
26825,49783,3
26825,49800,1
26839,49802,6
26839,49833,3
26849,49807,5
26840,49810,5
26835,49806,5
26837,49877,4
26848,49821,5
26863,49848,5
26870,49866,5
26877,49947,5
26887,49902,4
26902,49903,5
26900,49907,5
26894,49924,5
26878,49883,5
26880,49885,4
26884,49887,5
26891,49900,5
26899,49911,5
26902,49923,4
26906,49933,4
26916,49945,6
26935,49965,4
26941,49989,5
26943,49988,4
26923,49974,5
26933,49973,5
26939,49970,5
26940,49976,5
26937,49979,4
26936,49968,5
26923,49964,5
26927,49962,5
26930,49966,5
26919,49963,4
26924,49948,5
26907,49931,5
26894,49903,5
26885,49873,5
26881,49879,4
26877,49875,5
26867,49862,5
26868,49854,5
26859,49847,4
26865,49840,4
26852,49820,5
26835,49804,6
26833,49790,4
26826,49775,4
26810,49763,5
26812,49754,5
26804,49749,5
26806,49739,5
26799,49739,4
26802,49731,5
26792,49719,5
26796,49724,5
26800,49720,5
26799,49733,4
26793,49728,5
26793,49724,5
26793,49730,5
26798,49730,5
26798,49728,4
26794,49735,5
26800,49734,5
26796,49738,5
26796,49732,5
26801,49736,4
26796,49727,5
26786,49711,5
26788,49713,6
26786,49710,3
26782,49699,4
26779,49705,5
26777,49692,5
26767,49696,5
26769,49683,4
26765,49682,5
26771,49682,5
26771,49691,5
26762,49684,5
26762,49672,4
26756,49666,5
26759,49672,5
26764,49661,5
26756,49665,5
26752,49657,4
26754,49654,5
26750,49653,5
26751,49654,5
26752,49647,5
26750,49650,5
26745,49643,4
26746,49644,5
26736,49637,5
26746,49642,4
26750,49640,4
26707,49644,5
26738,49637,5
26734,49635,5
26743,49652,4
26691,49638,5
26740,49640,5
26750,49633,5
26743,49645,5
26703,49628,4
26743,49635,5
26730,49624,5
26730,49615,5
26748,49610,5
26718,49602,4
26716,49599,5
26717,49592,5
26778,49598,5
26714,49598,5
26713,49588,4
26713,49594,6
26760,49586,4
26713,49589,5
26706,49581,5
26703,49567,4
26708,49565,5
26699,49562,5
26699,49571,5
26689,49559,4
26698,49540,5
26696,49566,5
26687,49552,5
26689,49552,5
26679,49500,4
26687,49535,5
26674,49533,5
26672,49534,5
26669,49472,5
26673,49535,5
26680,49536,4
26673,49535,5
26682,49539,5
26680,49551,5
26679,49543,4
26676,49536,5
26681,49588,6
26679,49528,4
26681,49531,5
26675,49524,4
26670,49590,5
26675,49530,5
26666,49528,5
26665,49522,4
26671,49549,4
26667,49518,5
26665,49510,5
26664,49511,5
26666,49527,4
26672,49516,5
26661,49523,5
26669,49510,5
26665,49516,5
26665,49518,4
26659,49506,5
26663,49513,5
26670,49521,5
26665,49527,5
26665,49520,4
26668,49519,5
26665,49520,5
26672,49510,6
26659,49507,4
26661,49517,4
26659,49522,5
26665,49535,5
26666,49519,5
26666,49525,5
26663,49523,4
26659,49517,5
26666,49519,5
26663,49507,5
26667,49514,4
26668,49519,5
26669,49540,5
26683,49545,5
26692,49557,5
26681,49557,4
26690,49557,5
26685,49566,5
26682,49564,5
26683,49567,5
26695,49562,5
26698,49588,4
26712,49619,5
26730,49638,5
26737,49653,5
26732,49645,4
26737,49641,5
26731,49651,5
26735,49659,5
26747,49677,5
26759,49687,4
26769,49707,5
26776,49717,5
26771,49733,5
26789,49770,4
26798,49782,4
26804,49785,5
26814,49787,5
26815,49795,5
26830,49818,4
26841,49825,5
26833,49830,5
26850,49846,5
26856,49869,5
26874,49904,4
26878,49916,7
26890,49928,3
26898,49943,5
26906,49949,5
26904,49947,4
26909,49942,5
26911,49952,5
26917,49956,5
26922,49978,5
26925,49979,4
26927,49990,5
26923,49980,5
26925,49973,5
26926,49968,5
26914,49966,4
26925,49973,5
26922,49969,5
26924,49967,5
26933,49964,4
26915,49955,5
26924,49952,5
26913,49957,5
26891,49947,5
26919,49947,4
26906,49936,5
26904,49921,6
26853,49916,4
26897,49915,5
26896,49923,4
26903,49923,5
26848,49921,5
26892,49914,5
26882,49905,5
26891,49893,4
26881,49882,5
26883,49875,5
26875,49870,5
26858,49864,5
26910,49850,4
26854,49841,5
26853,49828,5
26845,49821,5
26903,49804,4
26839,49806,4
26835,49801,5
26829,49800,5
26860,49784,5
26837,49790,4
26833,49787,5
26825,49785,5
26839,49784,5
26828,49792,5
26835,49792,4
26844,49797,5
26829,49766,5
26847,49805,5
26844,49796,5
26845,49807,4
26847,49763,5
26847,49806,5
26853,49810,5
26847,49813,5
26850,49769,4
26842,49819,5
26854,49817,5
26853,49815,5
26844,49840,5
26851,49817,5
26850,49812,4
26842,49811,5
26849,49864,5
26840,49809,6
26849,49789,3
26836,49785,5
26826,49828,5
26827,49778,5
26826,49761,4
26821,49770,5
26822,49780,5
26820,49763,5
26817,49758,5
26808,49753,4
26807,49755,5
26812,49743,5
26814,49749,5
26818,49747,5
26814,49746,4
26799,49745,5
26799,49738,5
26791,49729,5
26792,49715,5
26786,49706,4
26778,49694,6
26772,49696,4
26770,49678,5
26774,49690,4
26775,49682,6
26763,49677,3
26766,49671,5
26766,49666,8
26760,49678,1
26768,49674,5
26767,49669,5
26751,49671,5
26767,49676,5
26770,49680,4
26770,49688,5
26774,49691,5
26774,49690,5
26773,49678,5
26764,49673,4
26770,49666,5
26754,49673,5
26762,49664,5
26754,49662,5
26753,49663,4
26760,49668,5
26760,49671,6
26767,49672,4
26766,49671,4
26762,49674,4
26771,49683,5
26771,49682,5
26765,49689,5
26764,49677,4
26769,49678,5
26765,49682,5
26775,49686,5
26778,49691,5
26782,49692,4
26789,49707,5
26783,49717,5
26788,49719,5
26790,49703,5
26791,49707,4
26784,49705,5
26786,49711,5
26787,49717,5
26791,49713,5
26795,49714,4
26798,49727,5
26793,49722,5
26796,49725,6
26785,49720,3
26791,49720,4
26791,49722,5
26791,49729,5
26797,49732,5
26799,49745,4
26812,49746,5
26803,49744,5
26802,49744,5
26800,49740,5
26797,49740,4
26802,49729,5
26802,49729,5
26799,49727,5
26797,49728,5
26805,49737,4
26800,49730,5
26802,49734,5
26801,49737,5
26805,49737,5
26765,49747,5
26809,49749,4
26807,49745,5
26803,49750,5
26752,49742,6
26802,49752,3
26808,49753,5
26811,49756,5
26789,49757,5
26818,49753,4
26813,49760,5
26819,49770,5
26865,49775,5
26822,49772,5
26826,49768,4
26822,49761,5
26877,49760,5
26816,49767,5
26816,49760,5
26816,49762,4
26852,49758,5
26813,49759,5
26813,49752,5
26823,49763,5
26826,49762,4
26821,49779,6
26826,49772,4
26833,49772,5
26828,49751,5
26830,49773,4
26826,49782,5
26825,49778,5
26820,49725,5
26826,49779,5
26827,49780,4
26826,49767,5
26826,49715,5
26827,49769,5
26823,49772,4
26823,49772,5
26831,49791,5
26831,49790,5
26839,49794,5
26833,49796,4
26836,49853,5
26835,49799,5
26838,49798,5
26837,49802,5
26842,49859,4
26841,49800,5
26843,49800,6
26847,49810,4
26850,49830,5
26850,49817,4
26852,49821,5
26853,49814,5
26852,49827,5
26855,49820,4
26857,49832,4
26859,49831,5
26864,49836,5
26859,49845,5
26871,49843,4
26870,49848,5
26871,49847,5
26873,49852,5
26877,49850,5
26878,49864,4
26884,49871,5
26879,49868,5
26885,49876,5
26888,49882,5
26892,49889,4
26899,49900,5
26890,49900,5
26906,49906,6
26908,49907,4
26912,49906,4
26908,49903,5
26915,49917,5
26912,49910,5
26910,49914,4
26919,49919,4
26911,49920,5
26917,49913,5
26918,49917,5
26917,49918,4
26906,49921,5
26920,49912,5
26918,49918,5
26912,49913,5
26910,49923,4
26915,49929,5
26922,49925,5
26917,49928,5
26919,49915,5
26916,49919,5
26917,49930,4
26922,49925,5
26919,49930,5
26920,49925,5
26917,49921,4
26919,49928,5
26913,49928,5
26910,49929,5
26924,49924,5
26912,49922,4
26923,49925,5
26916,49931,5
26922,49924,5
26917,49940,4
26915,49925,5
26923,49930,5
26916,49932,5
26925,49935,5
26928,49942,4
26927,49948,5
26943,49948,5
26943,49966,5
26945,49970,5
26943,49969,4
26949,49975,6
26946,49978,4
26949,49980,5
26952,49979,5
26948,49982,4
26949,49971,5
26940,49964,5
26948,49967,5
26941,49962,5
26940,49964,4
26939,49953,5
26931,49958,5
26932,49955,5
26941,49958,4
26940,49971,4
26942,49968,5
26917,49966,5
26944,49973,5
26942,49962,4
26940,49956,5
26896,49965,5
26939,49965,5
26940,49964,5
26947,49971,4
26893,49965,5
26935,49966,6
26944,49960,4
26942,49964,5
26957,49972,4
26943,49959,5
26944,49958,5
26943,49957,5
26982,49961,5
26942,49952,4
26937,49966,5
26938,49958,5
26991,49959,5
26932,49956,5
26936,49971,4
26937,49960,5
26967,49964,5
26945,49964,5
26934,49960,4
26942,49962,5
26941,49950,5
26942,49964,5
26941,49957,5
26943,49950,4
26945,49917,5
26938,49956,5
26939,49951,6
26935,49957,4
26934,49903,4
26937,49961,5
26938,49957,5
26935,49962,5
26941,49936,5
26943,49961,4
26942,49957,5
26944,49962,5
26947,50004,5
26950,49964,5
26948,49979,4
26945,49961,5
26952,50033,5
26943,49978,5
26940,49965,4
26955,49971,4
26949,50017,5
26945,49973,5
26950,49970,5
26950,49968,5
26949,49980,4
26948,49973,5
26949,49968,5
26945,49970,5
26950,49971,4
26949,49974,5
26947,49980,5
26949,49974,5
26950,49981,5
26953,49980,4
26953,49970,5
26956,49982,5
26950,49970,5
26956,49972,5
26957,49968,4
26946,49969,5
26949,49970,5
26947,49972,5
26955,49972,4
26948,49982,4
26943,49976,5
26950,49976,5
26951,49977,5
26944,49972,4
26950,49969,6
26949,49978,4
26953,49965,5
26955,49976,5
26950,49971,4
26944,49970,5
26944,49977,5
26947,49978,5
26956,49981,5
26943,49983,4
26952,49973,5
26962,49972,5
26951,49980,5
26950,49980,5
26952,49987,4
26963,49985,5
26961,49983,5
26956,49991,5
26958,49991,5
26955,49995,4
26962,49997,5
26963,49998,5
26958,49989,5
26958,49983,4
26960,49980,4
26949,49988,6
26955,49982,4
26952,49974,5
26952,49974,4
26953,49981,5
26945,49963,5
26952,49966,5
26946,49975,5
26939,49971,4
26939,49959,5
26942,49963,5
26941,49962,5
26937,49971,5
26949,49970,4
26946,49973,5
26939,49974,5
26953,49979,5
26954,49974,5
26947,49983,4
26949,49994,5
26947,49992,5
26955,49980,5
26954,49984,4
26947,49978,4
26948,49977,5
26944,49971,5
26943,49971,5
26933,49966,4
26940,49963,5
26935,49978,5
26942,49974,5
26943,49980,5
26935,49976,4
26944,49984,5
26951,49986,5
26956,49997,5
26917,49996,5
26959,50007,4
26961,49994,5
26958,50006,5
26910,50008,5
26964,50008,5
26958,50010,5
26955,50009,4
26939,50011,5
26966,50008,5
26961,50009,6
26958,50007,3
26994,50010,5
26952,50013,5
26949,50005,5
26951,50002,4
27014,49997,4
26950,49995,5
26949,49998,5
26949,49988,5
26976,50000,4
26946,50000,5
26957,50002,5
26950,50000,5
26964,50007,5
26954,50004,4
26959,50006,5
26953,50009,5
26961,49994,5
26956,50018,5
26962,50013,4
26962,50016,6
26964,49975,4
26966,50021,5
26957,50027,5
26962,50027,6
26965,49972,3
26963,50021,5
26962,50026,5
26973,50034,4
26975,50047,4
26970,50032,5
26977,50040,5
26976,50049,5
26981,50104,4
26982,50050,5
26981,50056,5
26977,50062,5
26977,50125,5
26987,50061,4
26988,50058,5
26993,50070,5
26998,50082,5
26991,50064,5
26991,50066,4
26986,50060,5
26986,50071,6
26990,50064,4
26994,50065,5
26989,50070,4
26991,50065,5
26983,50059,5
26983,50071,5
26997,50066,5
26990,50061,4
26985,50065,5
26987,50055,5
26977,50055,5
26982,50051,4
26983,50047,4
26972,50045,5
26974,50040,5
26980,50036,5
26975,50044,4
26970,50036,5
26969,50029,5
26972,50030,6
26971,50030,4
26972,50035,4
26966,50029,5
26972,50032,5
26970,50031,6
26972,50038,4
26968,50037,4
26971,50027,5
26968,50032,5
26975,50028,5
26967,50035,5
26981,50037,4
26977,50044,5
26976,50041,5
26971,50041,5
26976,50041,4
26979,50047,4
26980,50046,5
26986,50050,5
26990,50052,5
27000,50069,4
26995,50066,5
27003,50074,5
27002,50076,5
27011,50084,5
27005,50079,5
26999,50082,4
27007,50076,5
27003,50081,5
27006,50065,6
27001,50066,3
27003,50064,5
26999,50054,5
27006,50051,5
26987,50054,5
26983,50048,4
26993,50041,5
26996,50048,5
26986,50045,5
26983,50043,5
26995,50037,4
26992,50034,5
26984,50050,5
26986,50045,5
26989,50041,4
26977,50040,5
26979,50037,5
26984,50034,5
26985,50035,5
26994,50025,4
26976,50029,6
26979,50024,4
26972,50017,5
26981,50028,5
26986,50012,4
26968,50012,5
26971,50012,5
26970,50010,5
26969,50004,5
26979,50015,4
26949,50008,5
26973,50007,5
26971,50004,5
26972,50000,5
26920,50006,4
26970,49993,5
26967,49991,5
26961,50007,5
26916,49995,4
26961,49991,4
26954,49985,5
26964,49997,5
26977,49976,5
26960,49988,4
26951,49986,5
26965,49984,6
27017,49974,4
26952,49979,5
26958,49983,4
26956,49984,5
27009,49988,5
26960,49985,5
26962,49988,5
26961,49988,4
26983,49983,5
26969,49984,5
26960,49991,5
26964,49994,5
26972,49982,4
26969,49993,5
26962,50002,5
26963,49997,5
26959,49948,4
26957,49998,4
26971,49991,5
26960,49990,5
26964,49933,5
26966,49998,5
26965,49997,4
26965,49994,5
26964,49980,6
26964,49992,4
26962,49997,4
26966,49994,5
26956,50033,5
26963,49990,5
26957,49985,5
26964,49991,4
26957,50045,5
26948,49974,5
26957,49979,5
26956,49966,5
26953,50012,4
26943,49979,5
26951,49971,5
26946,49966,5
26950,49976,5
26939,49964,4
26947,49951,5
26941,49960,5
26932,49947,5
26930,49949,5
26936,49946,4
26931,49947,5
26929,49938,5
26925,49943,5
26932,49939,4
26934,49938,5
26938,49935,5
26939,49940,5
26930,49941,5
26938,49943,4
26931,49947,5
26940,49951,5
26941,49957,5
26940,49952,5
26939,49959,4
26941,49956,5
26945,49958,5
26944,49962,5
26945,49956,5
26939,49948,4
26945,49960,5
26941,49953,5
26930,49949,5
26934,49940,4
26931,49936,5
26931,49940,4
26933,49939,5
26925,49950,5
26931,49935,4
26934,49939,5
26934,49949,5
26938,49945,5
26931,49940,5
26934,49938,4
26935,49942,5
26936,49949,5
26939,49950,5
26936,49946,5
26941,49949,4
26938,49948,5
26937,49944,5
26932,49949,5
26932,49944,5
26939,49938,4
26936,49946,5
26935,49943,5
26935,49939,5
26932,49943,5
26934,49938,4
26934,49937,6
26929,49933,4
26932,49937,5
26927,49943,4
26933,49947,5
26927,49957,5
26930,49936,5
26931,49937,5
26931,49947,4
26930,49938,5
26929,49936,5
26929,49930,5
26917,49932,5
26929,49931,4
26928,49928,5
26915,49929,5
26928,49925,5
26922,49925,5
26923,49926,4
26922,49922,5
26921,49923,5
26918,49924,5
26927,49933,5
26929,49929,4
26925,49933,5
26926,49943,6
26917,49929,4
26924,49938,4
26920,49935,4
26920,49932,5
26884,49931,5
26920,49925,5
26926,49925,4
26923,49933,5
26875,49936,5
26920,49928,5
26929,49934,5
26929,49925,4
26909,49936,5
26923,49935,5
26925,49933,5
26917,49927,5
26956,49922,4
26923,49930,5
26924,49926,5
26923,49930,5
26982,49930,5
26923,49928,4
26915,49930,5
26923,49926,5
26961,49925,5
26919,49922,5
26912,49909,4
26909,49909,5
26923,49902,5
26910,49900,5
26904,49904,4
26896,49893,5
26908,49868,5
26902,49903,5
26902,49907,5
26904,49903,4
26916,49863,5
26914,49908,5
26915,49921,5
26917,49913,5
26914,49864,4
26914,49923,6
26922,49925,4
26924,49927,5
26925,49933,5
26925,49926,6
26926,49930,3
26925,49927,5
26925,49973,5
26922,49921,5
26909,49923,4
26915,49923,5
26924,49995,5
26925,49930,5
26928,49930,4
26927,49931,4
26931,49948,5
26916,49918,5
26921,49927,5
26925,49929,4
26914,49925,5
26917,49920,5
26916,49928,5
26920,49907,5
26912,49912,4
26908,49917,5
26912,49915,5
26917,49911,4
26908,49909,5
26912,49900,4
26908,49902,6
26902,49897,3
26902,49906,5
26901,49899,5
26903,49892,4
26909,49894,5
26908,49890,5
26902,49891,5
26899,49891,4
26894,49889,4
26899,49887,5
26897,49882,5
26903,49893,5
26903,49891,4
26905,49890,5
26900,49884,5
26891,49881,5
26893,49885,5
26901,49879,4
26898,49882,5
26899,49889,5
26889,49881,6
26891,49890,4
26898,49880,4
26892,49886,5
26903,49885,5
26892,49882,5
26899,49876,5
26891,49881,4
26891,49881,5
26897,49878,5
26897,49885,5
26887,49875,5
26887,49876,4
26890,49874,5
26888,49877,5
26885,49875,5
26886,49871,4
26887,49865,4
26891,49864,5
26883,49866,5
26887,49870,5
26876,49857,5
26877,49870,4
26881,49866,5
26893,49872,5
26890,49868,6
26887,49865,3
26873,49858,5
26875,49857,5
26884,49853,5
26880,49846,5
26876,49855,4
26873,49847,5
26883,49846,5
26876,49846,5
26874,49844,5
26878,49857,4
26879,49850,5
26876,49848,5
26880,49855,5
26877,49856,4
26872,49855,4
26880,49855,5
26875,49851,5
26884,49850,5
26870,49858,4
26882,49852,6
26882,49853,4
26871,49848,5
26884,49849,5
26845,49847,6
26871,49843,3
26872,49835,5
26870,49844,5
26824,49837,5
26872,49840,4
26875,49845,5
26872,49834,5
26817,49833,5
26868,49840,5
26869,49828,4
26862,49831,5
26884,49827,5
26872,49839,5
26861,49838,5
26869,49832,4
26910,49825,5
26858,49820,5
26859,49823,5
26861,49819,4
26910,49810,4
26851,49819,6
26860,49816,4
26857,49808,5
26879,49807,4
26854,49816,5
26851,49814,5
26855,49803,5
26850,49801,5
26858,49806,4
26847,49810,5
26862,49809,5
26855,49772,5
26864,49807,5
26852,49808,4
26852,49801,5
26856,49764,5
26857,49813,5
26858,49812,5
26860,49816,4
26853,49798,5
26860,49812,5
26859,49820,5
26863,49820,4
26874,49863,4
26859,49816,5
26861,49817,6
26865,49827,4
26861,49895,4
26869,49824,5
26866,49833,5
26869,49840,5
26875,49880,5
26877,49834,4
26870,49839,5
26875,49852,5
26879,49865,5
26884,49849,5
26873,49848,4
26878,49854,5
26878,49850,5
26881,49858,5
26883,49851,5
26889,49854,4
26885,49854,5
26881,49858,5
26889,49855,5
26881,49854,5
26889,49859,4
26884,49860,5
26876,49855,5
26882,49856,6
26889,49845,3
26878,49843,4
26884,49846,5
26879,49847,5
26879,49851,5
26882,49855,4
26876,49843,9
26875,49854,1
26874,49855,5
26886,49855,5
26876,49856,4
26895,49854,5
26889,49865,5
26883,49864,5
26887,49864,5
26889,49872,4
26899,49867,5
26895,49885,5
26893,49878,5
26898,49880,5
26897,49871,5
26892,49876,4
26895,49873,5
26895,49871,5
26894,49870,4
26897,49869,4
26896,49868,5
26900,49875,5
26894,49864,5
26896,49872,4
26889,49867,5
26888,49874,5
26890,49872,5
26891,49869,5
26892,49867,4
26895,49873,5
26894,49874,5
26888,49865,5
26887,49871,5
26889,49866,4
26894,49868,5
26889,49865,5
26886,49871,5
26888,49871,5
26890,49874,4
26901,49870,6
26884,49863,4
26888,49866,5
26898,49867,5
26887,49871,4
26894,49862,5
26891,49866,5
26889,49877,5
26895,49876,4
26901,49871,4
26899,49877,5
26900,49887,5
26900,49874,5
26901,49880,4
26894,49881,5
26900,49872,5
26903,49876,5
26897,49875,5
26897,49881,4
26896,49879,5
26892,49878,5
26899,49873,5
26895,49885,5
26898,49873,4
26857,49876,5
26900,49879,6
26903,49873,4
26891,49874,5
26841,49883,4
26902,49873,5
26893,49885,5
26901,49879,5
26890,49885,4
26898,49895,4
26896,49886,5
26898,49884,5
26944,49886,5
26903,49889,4
26905,49899,5
26904,49885,5
26967,49898,5
26905,49892,5
26910,49900,4
26919,49892,5
26941,49903,5
26917,49897,5
26914,49902,5
26919,49891,4
26920,49896,5
26913,49893,5
26917,49905,6
26913,49904,4
26910,49874,4
26921,49906,5
26911,49903,5
26907,49904,5
26912,49853,5
26909,49911,4
26916,49902,5
26918,49895,5
26912,49851,5
26914,49902,5
26911,49902,4
26910,49899,5
26912,49917,5
26910,49897,5
26914,49902,4
26911,49892,5
26910,49953,5
26919,49907,5
26917,49909,5
26911,49903,5
26918,49961,4
26920,49909,5
26912,49900,5
26912,49910,5
26908,49922,4
26915,49893,5
26916,49900,5
26911,49892,5
26911,49903,5
26915,49893,4
26902,49886,5
26909,49891,5
26912,49893,5
26905,49891,4
26903,49883,4
26903,49887,5
26907,49894,5
26908,49897,5
26910,49908,4
26915,49916,5
26919,49912,5
26920,49920,5
26932,49923,5
26924,49922,4
26923,49928,6
26927,49918,4
26928,49928,5
26926,49924,5
26926,49912,4
26920,49912,5
26928,49908,5
26914,49910,5
26914,49923,5
26911,49904,4
26916,49913,5
26916,49914,5
26923,49910,5
26912,49914,5
26916,49908,4
26911,49913,5
26921,49906,5
26921,49917,5
26919,49907,4
26916,49911,5
26913,49906,5
26915,49912,5
26917,49907,5
26918,49910,4
26926,49909,5
26918,49903,6
26910,49904,4
26916,49909,5
26918,49898,4
26906,49899,5
26914,49898,5
26919,49907,5
26908,49898,5
26912,49902,4
26916,49895,5
26915,49905,5
26915,49895,5
26902,49902,5
26912,49906,4
26917,49900,5
26909,49903,5
26912,49904,5
26910,49910,4
26917,49910,4
26920,49905,5
26925,49907,5
26924,49907,5
26918,49896,4
26903,49905,5
26920,49908,5
26912,49907,5
26923,49901,5
26914,49907,4
26921,49912,5
26918,49909,5
26912,49909,5
26918,49909,5
26920,49905,4
26922,49914,5
26911,49905,5
26925,49909,5
26914,49911,5
26927,49910,4
26923,49917,5
26923,49920,5
26887,49922,5
26922,49925,5
26923,49925,4
26923,49924,5
26875,49922,5
26927,49915,5
26928,49922,5
26931,49920,3
26883,49920,5
26920,49928,5
26934,49937,5
26928,49924,4
26955,49922,5
26928,49925,5
26933,49929,5
26923,49922,5
26987,49931,4
26922,49922,5
26927,49929,5
26927,49926,5
26982,49932,5
26932,49928,4
26928,49933,5
26932,49928,5
26945,49925,5
26933,49919,5
26930,49924,4
26930,49929,6
26931,49916,4
26935,49932,5
26931,49934,4
26928,49929,6
26929,49885,3
26936,49935,5
26925,49929,5
26924,49935,4
26927,49873,5
26928,49936,5
26930,49923,5
26932,49934,5
26924,49922,4
26928,49931,5
26924,49930,5
26926,49929,5
26933,49969,5
26927,49926,4
26926,49922,5
26914,49914,5
26926,49972,5
26922,49923,5
26919,49914,4
26914,49909,5
26918,49936,6
26921,49917,4
26923,49910,4
26913,49908,4
26928,49927,5
26929,49920,5
26916,49922,5
26930,49926,4
26925,49925,5
26929,49922,5
26931,49934,5
26931,49934,5
26925,49926,4
26934,49933,5
26931,49929,5
26930,49926,5
26919,49927,5
26919,49922,4
26932,49913,5
26924,49915,5
26921,49917,5
26917,49917,5
26914,49918,4
26916,49917,5
26913,49927,5
26928,49928,6
26919,49918,4
26928,49922,4
26929,49918,5
26927,49931,5
26927,49929,5
26929,49928,4
26922,49931,4
26916,49928,5
26929,49926,5
26919,49931,5
26923,49922,4
26933,49931,5
26934,49922,5
26926,49929,5
26930,49923,5
26928,49918,4
26929,49923,5
26918,49920,5
26926,49923,5
26920,49920,5
26924,49929,5
26920,49922,4
26926,49932,5
26922,49925,5
26929,49930,6
26918,49931,3
26924,49929,5
26929,49925,5
26926,49924,5
26925,49924,4
26921,49931,4
26914,49918,5
26919,49916,5
26924,49915,5
26928,49917,4
26922,49920,5
26918,49925,5
26923,49920,5
26925,49919,5
26922,49916,4
26921,49916,5
26922,49918,5
26927,49920,5
26927,49926,5
26920,49912,4
26929,49916,6
26931,49919,4
26926,49921,5
26930,49929,5
26922,49925,4
26933,49935,5
26935,49931,5
26929,49937,5
26932,49932,5
26934,49933,4
26936,49939,5
26932,49936,5
26934,49937,5
26937,49931,4
26916,49929,4
26933,49934,5
26929,49936,5
26933,49925,5
26883,49932,4
26922,49923,5
26924,49923,5
26933,49934,5
26874,49936,5
26932,49926,4
26934,49932,5
26936,49937,6
26935,49941,4
26931,49942,5
26928,49931,4
26929,49949,5
26974,49941,5
26939,49951,5
26939,49950,5
26942,49944,4
26996,49948,5
26931,49939,5
26929,49936,5
26932,49937,4
26959,49934,4
26936,49942,5
26937,49936,5
26933,49940,5
26939,49934,4
26927,49936,5
26941,49930,5
26933,49937,5
26925,49897,5
26925,49934,4
26933,49920,5
26922,49926,5
26917,49874,6
26927,49922,4
26918,49920,4
26926,49929,5
26932,49879,5
26922,49925,5
26925,49931,5
26926,49935,4
26923,49958,5
26926,49938,5
26931,49943,5
26931,49948,5
26936,49999,4
26940,49947,5
26928,49940,5
26931,49945,5
26940,49991,4
26935,49943,4
26933,49935,5
26928,49934,5
26928,49951,5
26923,49939,5
26928,49943,4
26926,49935,5
26926,49935,5
26934,49942,6
26934,49945,3
26930,49943,5
26933,49943,5
26937,49950,5
26929,49945,5
26939,49954,4
26941,49944,5
26930,49947,5
26941,49960,5
26944,49957,5
26934,49953,4
26935,49959,5
26943,49954,5
26942,49952,5
26939,49958,5
26943,49953,4
26942,49952,5
26932,49953,5
26937,49949,5
26938,49946,6
26938,49954,4
26942,49951,4
26932,49955,5
26931,49947,5
26930,49948,4
26933,49953,5
26930,49948,5
26933,49952,5
26928,49949,5
26929,49942,4
26929,49946,5
26930,49943,5
26924,49941,5
26929,49935,5
26922,49930,4
26917,49928,5
26917,49931,5
26920,49926,5
26921,49927,5
26913,49922,4
26916,49933,5
26914,49927,5
26912,49927,5
26910,49926,4
26914,49921,4
26918,49927,6
26923,49936,4
26918,49935,5
26918,49934,4
26918,49944,5
26925,49937,5
26923,49944,5
26923,49936,5
26931,49948,4
26931,49951,5
26926,49954,5
26930,49963,5
26933,49958,5
26936,49959,4
26938,49958,5
26941,49960,5
26935,49962,5
26946,49964,5
26936,49970,4
26938,49971,5
26932,49968,5
26944,49958,5
26943,49971,5
26932,49972,4
26944,49966,5
26944,49985,6
26941,49968,4
26946,49974,4
26945,49980,5
26945,49978,5
26939,49978,5
26936,49969,5
26928,49960,4
26936,49963,5
26905,49959,5
26935,49957,5
26929,49953,5
26926,49951,4
26874,49949,5
26919,49950,5
26922,49944,5
26917,49937,5
26879,49939,4
26919,49935,5
26921,49941,5
26918,49929,5
26939,49927,5
26906,49925,4
26915,49924,5
26908,49926,5
26961,49913,5
26896,49913,4
26901,49906,4
26904,49908,5
26951,49912,5
26905,49903,5
26904,49914,4
26907,49921,5
26927,49919,5
26915,49930,5
26908,49920,5
26917,49924,4
26908,49906,5
26914,49937,5
26909,49924,5
26917,49926,5
26906,49877,4
26910,49921,6
26904,49913,4
26912,49912,5
26908,49866,5
26911,49920,6
26918,49932,3
26913,49931,5
26922,49918,5
26922,49939,5
26927,49942,4
26923,49940,5
26923,49987,5
26923,49950,5
26923,49947,4
26932,49952,5
26935,50014,5
26936,49957,5
26946,49969,5
26939,49973,4
26948,50000,5
26945,49968,5
26943,49974,5
26937,49978,5
26940,49984,4
26940,49975,5
26951,49975,5
26946,49975,5
26948,49970,5
26942,49981,4
26948,49977,6
26946,49990,4
26951,49976,5
26947,49984,5
26951,49980,4
26951,49975,5
26949,49980,5
26944,49980,5
26948,49971,4
26944,49973,4
26942,49976,5
26949,49971,5
26945,49981,5
26948,49967,4
26946,49963,5
26936,49972,5
26939,49963,5
26944,49968,5
26938,49969,4
26939,49970,5
26941,49977,5
26934,49976,5
26949,49979,4
26946,49973,4
26957,49992,5
26955,49997,5
26959,49999,5
26956,50005,5
26955,50005,4
26960,50015,5
26961,50012,5
26962,50006,5
26963,50011,5
26965,50014,4
26967,50005,5
26970,50008,5
26967,50016,5
26966,50011,4
26970,50012,4
26967,50014,5
26963,50018,5
26967,50015,5
26961,50012,5
26964,50003,4
26957,50001,5
26953,49995,5
26950,49993,6
26955,49984,3
26953,49980,5
26945,49985,5
26942,49988,5
26949,49986,5
26951,49983,4
26951,49979,5
26948,49969,5
26940,49974,5
26946,49968,5
26929,49960,4
26935,49951,5
26930,49945,5
26922,49941,5
26923,49941,4
26920,49929,4
26920,49926,5
26924,49940,5
26915,49933,5
26912,49934,4
26918,49934,6
26913,49932,4
26921,49929,5
26915,49937,5
26913,49935,6
26919,49925,3
26904,49923,5
26909,49917,5
26897,49924,5
26916,49918,4
26904,49920,5
26918,49925,5
26869,49919,5
26912,49911,5
26902,49911,4
26910,49914,5
26854,49915,5
26917,49916,5
26902,49919,5
26902,49914,4
26899,49920,5
26911,49917,5
26910,49911,5
26910,49924,4
26951,49919,4
26917,49921,6
26912,49912,4
26908,49928,5
26982,49930,4
26905,49924,5
26912,49923,5
26916,49929,5
26941,49921,5
26909,49923,4
26916,49921,5
26914,49913,5
26915,49901,5
26900,49912,5
26894,49911,4
26905,49901,5
26896,49861,5
26899,49903,5
26901,49905,5
26905,49910,4
26909,49855,5
26902,49903,5
26908,49910,5
26904,49916,4
26902,49858,4
26904,49909,5
26904,49907,6
26901,49911,4
26899,49927,4
26903,49906,5
26899,49898,5
26904,49894,5
26900,49952,5
26890,49895,4
26894,49888,5
26901,49890,5
26895,49951,5
26900,49891,5
26901,49894,4
26900,49898,5
26895,49916,5
26901,49894,5
26897,49891,5
26903,49894,4
26894,49904,5
26904,49895,5
26901,49892,5
26896,49897,5
26899,49895,4
26894,49891,5
26898,49898,5
26904,49888,6
26900,49893,3
26890,49885,4
26896,49886,5
26894,49890,5
26902,49887,5
26898,49890,4
26890,49892,5
26902,49888,5
26889,49880,5
26893,49877,5
26886,49875,4
26887,49869,5
26880,49865,5
26890,49858,5
26879,49860,5
26879,49854,4
26870,49853,5
26873,49861,5
26880,49844,5
26868,49847,5
26866,49844,5
26862,49847,4
26873,49845,5
26866,49848,5
26879,49843,6
26872,49843,3
26873,49844,5
26873,49838,5
26870,49844,5
26859,49833,4
26857,49832,5
26865,49833,5
26861,49834,5
26857,49828,5
26868,49833,4
26867,49834,5
26865,49834,5
26863,49832,5
26867,49839,5
26867,49841,4
26868,49847,5
26875,49844,5
26877,49846,5
26867,49844,5
26868,49842,4
26868,49851,6
26870,49847,4
26874,49841,5
26875,49840,5
26878,49848,4
26878,49831,5
26863,49848,5
26865,49846,5
26873,49851,4
26874,49842,4
26865,49847,5
26874,49849,5
26880,49842,5
26877,49846,4
26874,49841,5
26866,49850,5
26875,49841,5
26880,49849,5
26891,49855,4
26891,49860,5
26883,49855,5
26886,49856,5
26878,49850,5
26884,49855,4
26883,49851,5
26878,49838,6
26871,49844,4
26877,49828,5
26841,49828,4
26866,49816,5
26870,49817,5
26867,49815,5
26822,49820,5
26864,49811,4
26871,49809,5
26870,49814,5
26806,49821,5
26871,49813,4
26869,49809,4
26869,49815,5
26871,49814,5
26856,49807,5
26864,49807,4
26858,49811,5
26905,49801,5
26860,49814,5
26854,49811,5
26853,49809,4
26915,49809,5
26852,49794,5
26852,49804,6
26854,49803,4
26870,49800,4
26844,49802,5
26849,49796,5
26850,49791,5
26851,49784,5
26844,49788,4
26833,49785,5
26829,49780,5
26840,49746,5
26849,49794,5
26847,49799,4
26850,49813,5
26859,49762,5
26861,49803,5
26846,49800,4
26847,49811,5
26853,49781,5
26851,49806,5
26846,49802,5
26847,49798,5
26841,49824,4
26847,49797,5
26845,49799,5
26848,49785,5
26846,49852,4
26847,49800,5
26838,49796,5
26845,49803,5
26851,49846,5
26851,49802,4
26842,49800,5
26851,49802,5
26844,49818,5
26856,49804,5
26856,49808,4
26852,49815,5
26851,49815,5
26856,49819,5
26864,49817,4
26857,49821,4
26854,49816,5
26861,49810,5
26859,49818,5
26855,49817,4
26851,49812,6
26853,49806,4
26853,49812,5
26849,49819,5
26858,49804,4
26844,49812,5
26849,49823,5
26853,49818,5
26856,49819,5
26855,49822,4
26858,49820,5
26855,49820,9
26856,49821,1
26871,49810,5
26859,49817,4
26861,49839,5
26853,49822,5
26854,49819,5
26860,49815,5
26860,49826,4
26864,49824,5
26860,49828,5
26861,49821,5
26850,49827,4
26860,49820,5
26856,49823,6
26868,49827,4
26863,49820,5
26854,49819,4
26859,49819,5
26856,49815,5
26863,49817,5
26861,49825,5
26855,49819,4
26858,49825,5
26854,49819,5
26851,49815,5
26848,49802,5
26857,49818,4
26861,49810,5
26857,49814,5
26853,49814,5
26849,49812,5
26848,49812,4
26852,49821,5
26857,49814,5
26857,49824,5
26861,49822,4
26858,49810,4
26856,49814,5
26852,49812,5
26852,49818,5
26846,49810,4
26850,49822,5
26857,49820,5
26846,49812,5
26861,49821,5
26853,49827,4
26850,49820,5
26863,49824,5
26852,49820,5
26862,49826,5
26859,49821,4
26848,49820,5
26856,49816,5
26855,49813,5
26853,49822,5
26851,49811,4
26848,49804,5
26845,49795,5
26849,49795,5
26854,49799,5
26840,49792,4
26797,49800,5
26846,49801,5
26845,49802,5
26842,49802,4
26794,49798,4
26851,49799,5
26848,49798,5
26843,49806,5
26801,49802,4
26848,49804,5
26853,49807,5
26851,49799,5
26876,49803,5
26839,49804,4
26848,49801,5
26846,49802,5
26900,49800,5
26839,49802,5
26844,49797,4
26844,49794,5
26882,49795,4
26840,49781,5
26843,49793,5
26834,49783,5
26854,49779,3
26836,49784,5
26839,49788,5
26834,49777,4
26835,49768,4
26842,49784,5
26837,49786,5
26835,49787,5
26825,49740,4
26836,49781,5
26831,49786,5
26836,49780,5
26821,49723,5
26833,49789,5
26837,49778,4
26831,49781,5
26831,49775,5
26836,49779,5
26829,49768,4
26837,49776,5
26838,49815,6
26832,49777,4
26839,49780,5
26826,49785,4
26846,49837,5
26832,49785,5
26834,49773,5
26837,49776,5
26835,49814,4
26837,49769,5
26832,49775,5
26834,49772,5
26831,49778,4
26834,49776,4
26826,49766,5
26828,49777,5
26830,49768,5
26834,49774,4
26831,49772,5
26830,49769,5
26825,49775,5
26832,49774,5
26832,49777,4
26839,49781,5
26826,49781,5
26824,49772,6
26822,49765,4
26823,49774,4
26822,49764,5
26826,49767,5
26829,49768,5
26828,49767,5
26819,49763,4
26817,49752,5
26822,49756,5
26814,49756,5
26817,49742,5
26812,49742,4
26812,49749,5
26814,49748,5
26806,49758,5
26815,49759,4
26818,49765,4
26815,49761,5
26814,49766,5
26821,49765,5
26823,49777,5
26829,49775,4
26830,49771,5
26829,49790,5
26841,49786,6
26846,49798,3
26840,49808,5
26846,49806,5
26842,49805,5
26847,49809,5
26846,49818,4
26847,49816,5
26844,49818,5
26846,49814,5
26851,49808,5
26840,49814,4
26843,49811,5
26850,49806,5
26844,49809,5
26851,49810,4
26850,49822,4
26859,49815,5
26852,49831,5
26859,49832,5
26856,49840,4
26861,49843,6
26868,49833,4
26863,49833,5
26864,49838,5
26871,49836,6
26860,49842,3
26864,49833,5
26869,49849,5
26868,49841,5
26869,49851,4
26872,49849,5
26872,49852,5
26876,49864,5
26887,49871,5
26880,49873,4
26894,49874,5
26890,49883,5
26893,49883,5
26893,49884,5
26897,49877,4
26896,49884,5
26895,49885,5
26882,49889,5
26897,49899,4
26901,49898,4
26907,49897,6
26863,49902,4
26898,49908,5
26912,49916,4
26912,49924,5
26861,49926,5
26920,49927,5
26924,49926,5
26917,49931,4
26911,49928,5
26914,49931,5
26918,49923,5
26926,49919,5
26955,49928,4
26921,49931,5
26913,49925,5
26912,49923,5
26978,49928,5
26918,49922,4
26914,49921,5
26926,49930,5
26953,49925,5
26922,49929,4
26919,49924,4
26921,49925,5
26927,49930,6
26920,49931,4
26915,49937,4
26925,49931,5
26921,49906,5
26914,49937,5
26930,49936,5
26927,49925,4
26926,49889,5
26926,49934,5
26927,49930,5
26920,49936,5
26926,49880,4
26929,49937,5
26920,49933,5
26930,49927,5
26926,49952,5
26923,49930,4
26914,49929,5
26918,49926,5
26923,49989,5
26925,49929,5
26917,49930,4
26913,49926,5
26926,49983,5
26913,49930,6
26918,49922,3
26918,49929,4
26914,49941,5
26907,49918,5
26910,49913,5
26909,49901,4
26909,49907,5
26906,49900,5
26893,49895,5
26899,49903,5
26903,49889,4
26899,49895,5
26902,49906,5
26909,49908,5
26907,49909,5
26906,49916,4
26916,49913,5
26910,49911,5
26909,49918,5
26901,49911,5
26905,49907,5
26903,49906,4
26899,49887,5
26895,49896,5
26896,49896,4
26897,49893,4
26900,49900,5
26904,49901,5
26904,49903,5
26904,49913,4
26902,49906,5
26896,49900,5
26897,49893,5
26900,49893,5
26896,49897,4
26886,49893,5
26898,49888,5
26897,49892,5
26896,49887,5
26891,49894,4
26899,49890,5
26896,49893,5
26895,49900,5
26903,49903,5
26904,49915,4
26902,49911,6
26905,49914,4
26907,49913,5
26900,49919,5
26905,49914,4
26911,49909,5
26902,49914,5
26903,49913,5
26906,49919,4
26910,49911,4
26912,49917,5
26905,49925,5
26908,49927,5
26911,49926,4
26919,49931,5
26918,49937,5
26918,49941,5
26913,49927,5
26918,49935,4
26920,49933,5
26918,49935,5
26908,49933,5
26911,49938,5
26919,49930,4
26923,49948,5
26932,49942,6
26926,49944,4
26929,49955,5
26932,49953,4
26934,49955,5
26929,49954,5
26927,49955,5
26932,49955,4
26936,49955,4
26940,49959,5
26943,49956,5
26936,49972,5
26941,49972,4
26938,49971,5
26949,49972,5
26944,49976,5
26949,49973,5
26913,49978,4
26945,49978,5
26952,49981,5
26950,49975,5
26909,49984,5
26954,49992,4
26958,49999,5
26963,50001,5
26929,49991,5
26967,50007,5
26965,50009,4
26969,50001,5
26996,49999,5
26969,50007,5
26962,50007,5
26968,50013,4
27027,50001,5
26969,50014,5
26972,50020,5
26972,50017,4
27015,50013,4
26974,50011,5
26980,50008,5
26977,50014,5
26982,50009,4
26964,50012,6
26968,50007,4
26967,50008,5
26964,49987,5
26958,49999,6
26968,50002,3
26964,49998,5
26964,49950,5
26963,49996,5
26957,49995,4
26956,49995,5
26960,49939,5
26956,49996,5
26953,49988,5
26963,50002,4
26968,49996,5
26968,49999,5
26970,49997,5
26970,50011,5
26972,50052,4
26961,50005,5
26970,50004,5
26969,50004,5
26972,50067,4
26967,50009,5
26961,50002,5
26961,49997,5
26960,50020,5
26960,49987,4
26952,49982,6
26963,49979,4
26950,49980,5
26947,49977,5
26951,49981,4
26958,49977,5
26951,49979,5
26956,49981,5
26958,49974,5
26957,49978,4
26944,49978,5
26953,49980,5
26950,49975,5
26959,49973,5
26947,49970,4
26944,49976,5
26951,49973,5
26953,49975,5
26960,49979,4
26950,49984,4
26951,49970,5
26941,49973,5
26943,49971,5
26953,49978,4
26950,49983,7
26948,49980,4
26955,49985,4
26954,49984,5
26949,49981,4
26957,49990,5
26961,49984,5
26958,49977,5
26947,49979,5
26955,49983,4
26951,49985,5
26953,49973,5
26946,49980,5
26954,49976,5
26947,49968,4
26948,49977,5
26955,49979,5
26941,49971,5
26951,49962,5
26952,49957,4
26951,49971,5
26944,49964,5
26946,49974,6
26953,49981,3
26950,49981,5
26951,49978,5
26952,49979,5
26957,49973,5
26959,49978,4
26955,49975,5
26955,49988,5
26956,49981,5
26956,49974,5
26948,49981,4
26951,49978,5
26952,49977,5
26959,49979,5
26949,49982,5
26957,49992,4
26952,49985,5
26957,49990,5
26959,49982,5
26953,49982,5
26954,49986,5
26961,49987,4
26948,49988,5
26957,49994,5
26960,49990,6
26963,49990,3
26963,49995,5
26954,49992,5
26962,49996,5
26957,49994,4
26959,49993,5
26971,49997,5
26964,49992,5
26959,49993,5
26968,50006,4
26967,50003,5
26943,50006,5
26968,50009,5
26969,50007,5
26966,50012,4
26918,50015,5
26967,50014,5
26966,50026,5
26963,50013,5
26914,50023,4
26969,50027,6
26961,50013,4
26971,50009,5
26976,50019,5
26972,50012,6
26968,50012,3
26960,50008,5
27008,50003,5
26961,50010,4
26967,50011,5
26958,50005,5
27024,50001,5
26958,50005,5
26962,50005,4
26963,50002,5
26989,49997,5
26956,50005,5
26955,49998,5
26963,49995,4
26967,50010,5
26955,49993,5
26960,50002,5
26956,49997,5
26958,49971,4
26953,50008,5
26961,50007,6
26964,50018,4
26969,49971,5
26968,50027,4
26976,50018,5
26970,50021,5
26963,49975,5
26961,50020,5
26970,50013,4
26958,50003,5
26958,50021,5
26965,50005,5
26954,50013,4
26954,50006,5
26956,50061,5
26955,49996,5
26955,50001,5
26951,50000,4
26954,50051,5
26943,50004,5
26949,49990,5
26953,49998,5
26945,50017,4
26941,50000,5
26954,49998,5
26943,49995,6
26939,49992,4
26943,49993,4
26940,49987,5
26941,49985,5
26936,49987,5
26944,49978,5
26940,49981,4
26930,49969,5
26930,49967,5
26933,49964,5
26919,49976,4
26927,49963,5
26921,49968,5
26927,49964,5
26931,49966,5
26926,49967,4
26931,49963,5
26931,49968,5
26925,49966,5
26936,49959,5
26930,49967,5
26925,49956,4
26917,49957,5
26923,49952,5
26914,49956,6
26913,49944,3
26915,49949,5
26916,49947,5
26917,49951,5
26921,49942,5
26926,49947,4
26918,49953,5
26930,49959,5
26928,49972,5
26924,49960,4
26924,49967,4
26930,49971,5
26936,49978,5
26947,49982,5
26944,49991,4
26948,49992,5
26943,49989,5
26954,50003,5
26952,50002,5
26959,50003,4
26954,50001,6
26945,50006,4
26954,50002,5
26953,50003,5
26949,50008,4
26960,50001,5
26960,50011,5
26949,50002,5
26955,50013,5
26954,50013,4
26958,50007,5
26960,50008,5
26958,50011,5
26964,50007,5
26951,50004,4
26951,49996,5
26950,50001,5
26949,49990,5
26949,49992,4
26949,49987,4
26949,49992,5
26951,49992,5
26941,49988,5
26954,49989,4
26945,49991,5
26946,49989,6
26948,49976,4
26949,49981,5
26936,49987,4
26941,49974,5
26941,49970,5
26937,49959,5
26927,49958,5
26931,49958,4
26924,49953,5
26922,49934,5
26892,49939,5
26921,49946,5
26920,49940,4
26921,49950,5
26871,49944,5
26919,49944,5
26924,49943,4
26912,49947,4
26879,49933,5
26919,49927,5
26917,49923,5
26912,49915,4
26931,49905,5
26900,49906,5
26891,49899,6
26893,49893,4
26946,49892,4
26891,49887,5
26881,49878,5
26879,49869,5
26915,49855,5
26873,49862,4
26870,49858,5
26876,49852,5
26875,49848,5
26868,49840,5
26859,49847,4
26865,49835,5
26868,49809,5
26865,49829,5
26861,49816,5
26855,49825,4
26845,49772,5
26851,49817,5
26845,49814,5
26842,49807,5
26845,49754,4
26850,49814,5
26849,49805,5
26844,49803,5
26841,49812,4
26844,49807,5
26840,49806,5
26844,49805,5
26839,49846,5
26836,49791,4
26839,49790,5
26830,49791,5
26837,49851,5
26834,49779,5
26831,49791,4
26838,49795,5
26829,49813,5
26830,49780,5
26829,49781,5
26832,49770,4
26812,49767,5
26820,49765,5
26823,49760,5
26821,49773,4
26818,49772,5
26819,49770,4
26817,49759,5
26814,49768,5
26812,49761,4
26817,49765,5
26812,49761,5
26822,49764,5
26819,49760,5
26822,49764,4
26818,49769,5
26812,49761,5
26818,49757,5
26808,49749,5
26805,49725,4
26792,49712,5
26786,49700,5
26780,49691,5
26784,49692,5
26785,49690,4
26778,49704,5
26787,49701,5
26781,49698,5
26785,49705,5
26786,49699,4
26787,49692,6
26782,49686,4
26779,49691,5
26771,49683,4
26778,49687,4
26776,49688,5
26774,49690,5
26782,49686,5
26776,49693,4
26780,49688,5
26773,49696,5
26773,49692,5
26765,49679,5
26764,49680,4
26766,49679,5
26769,49682,5
26760,49681,5
26768,49675,5
26774,49676,4
26769,49672,5
26767,49663,5
26759,49646,5
26744,49640,5
26745,49642,4
26750,49632,5
26742,49624,6
26732,49640,4
26738,49627,4
26732,49624,4
26744,49631,5
26739,49627,5
26735,49626,5
26732,49618,4
26728,49625,5
26729,49619,5
26727,49620,5
26734,49616,5
26731,49610,4
26725,49612,5
26724,49595,5
26710,49594,5
26711,49589,5
26712,49591,4
26718,49585,5
26717,49582,5
26724,49594,5
26710,49595,5
26712,49594,4
26710,49585,5
26709,49580,5
26713,49580,5
26719,49582,5
26689,49573,4
26704,49580,5
26710,49577,5
26716,49578,5
26655,49570,4
26704,49566,4
26700,49549,5
26689,49549,5
26631,49537,5
26688,49541,4
26687,49533,5
26697,49546,5
26703,49541,5
26697,49546,5
26699,49561,4
26701,49558,5
26748,49560,5
26707,49571,5
26711,49575,5
26711,49581,5
26782,49591,4
26724,49598,5
26728,49606,5
26731,49612,5
26751,49613,4
26740,49619,5
26730,49625,5
26738,49616,5
26736,49614,5
26742,49623,4
26741,49622,5
26731,49615,5
26734,49576,5
26735,49616,5
26736,49618,4
26740,49619,5
26740,49569,5
26743,49622,5
26733,49622,4
26726,49612,5
26735,49596,5
26729,49614,4
26728,49615,5
26733,49609,4
26741,49649,7
26738,49611,3
26731,49613,5
26730,49599,5
26732,49669,4
26730,49600,5
26723,49598,5
26721,49612,5
26731,49626,5
26723,49603,4
26718,49593,5
26721,49591,5
26721,49595,5
26720,49576,4
26711,49571,4
26709,49567,5
26707,49553,5
26698,49555,5
26703,49554,4
26684,49549,5
26697,49541,5
26695,49543,6
26690,49542,4
26680,49540,4
26682,49534,5
26687,49541,5
26678,49528,5
26672,49525,5
26671,49517,4
26669,49510,5
26663,49505,5
26657,49488,5
26655,49497,5
26659,49490,4
26649,49481,5
26651,49477,5
26645,49477,9
26641,49477,1
26649,49477,4
26645,49480,5
26650,49467,5
26659,49478,5
26650,49478,5
26651,49481,4
26660,49490,5
26660,49494,5
26660,49493,6
26665,49508,3
26667,49507,5
26664,49513,5
26670,49507,5
26669,49517,5
26665,49515,4
26667,49518,5
26668,49514,5
26669,49509,5
26666,49508,5
26667,49506,4
26674,49500,5
26663,49508,5
26662,49502,5
26662,49506,5
26662,49492,4
26664,49509,5
26661,49501,5
26661,49501,5
26657,49498,4
26660,49499,5
26651,49506,4
26658,49505,5
26660,49508,5
26658,49506,6
26663,49506,3
26658,49500,5
26661,49503,5
26665,49490,5
26656,49489,4
26656,49490,5
26648,49484,5
26657,49493,5
26645,49482,5
26648,49482,4
26647,49489,5
26646,49481,5
26654,49479,5
26657,49479,5
26650,49487,4
26654,49482,5
26654,49482,5
26649,49482,5
26648,49485,5
26646,49482,4
26643,49480,6
26626,49488,4
26640,49477,5
26651,49482,4
26647,49481,5
26601,49477,5
26641,49463,5
26632,49441,5
26620,49431,4
26559,49414,5
26605,49409,5
26599,49409,5
26597,49403,5
26586,49397,4
26598,49392,5
26589,49404,5
26598,49405,5
26641,49416,5
26598,49412,4
26603,49411,5
26602,49425,5
26665,49430,5
26606,49430,5
26603,49430,4
26624,49436,5
26636,49440,6
26614,49428,4
26609,49420,4
26618,49429,4
26626,49422,5
26610,49427,5
26604,49428,5
26613,49424,4
26612,49392,5
26611,49432,5
26610,49428,5
26610,49420,5
26613,49375,4
26604,49423,5
26604,49433,5
26616,49428,5
26611,49396,5
26610,49425,5
26611,49421,4
26604,49420,5
26610,49455,5
26611,49425,5
26608,49426,4
26601,49421,5
26610,49478,5
26605,49411,7
26602,49422,3
26607,49414,4
26606,49469,5
26624,49421,5
26608,49425,5
26607,49422,4
26604,49440,5
26614,49427,5
26609,49428,5
26600,49423,5
26607,49424,4
26606,49412,5
26601,49411,5
26601,49416,5
26606,49412,5
26600,49405,4
26589,49412,5
26595,49408,5
26600,49403,5
26597,49400,5
26592,49396,5
26590,49389,4
26590,49403,5
26589,49399,5
26594,49393,5
26586,49388,4
26582,49398,5
26589,49393,5
26589,49393,5
26581,49387,4
26587,49395,4
26585,49380,5
26587,49395,5
26587,49394,5
26581,49388,4
26584,49388,5
26580,49391,5
26578,49383,5
26582,49379,5
26575,49368,4
26568,49371,5
26565,49347,5
26557,49345,5
26547,49335,5
26547,49332,4
26539,49324,6
26542,49328,4
26550,49329,5
26541,49327,5
26536,49328,4
26544,49323,5
26548,49310,5
26532,49303,5
26526,49294,4
26514,49275,4
26520,49273,5
26508,49277,5
26503,49274,5
26512,49272,4
26519,49260,5
26501,49249,5
26493,49246,5
26497,49235,5
26491,49244,4
26489,49245,5
26494,49252,5
26506,49262,5
26498,49261,5
26501,49260,4
26495,49255,5
26502,49256,6
26498,49256,4
26500,49247,5
26486,49245,4
26490,49247,5
26489,49246,5
26490,49235,5
26485,49234,5
26488,49240,4
26488,49245,5
26478,49246,5
26491,49243,5
26498,49260,4
26503,49262,4
26510,49266,5
26515,49269,5
26507,49278,5
26487,49259,4
26494,49266,5
26502,49261,5
26498,49265,5
26456,49263,5
26494,49255,4
26497,49254,5
26508,49254,5
26443,49261,6
26500,49248,4
26494,49251,4
26501,49254,5
26490,49262,5
26503,49264,5
26511,49269,5
26506,49275,4
26557,49280,5
26509,49286,5
26523,49284,5
26529,49297,4
26594,49306,4
26535,49319,5
26538,49330,5
26549,49337,5
26583,49342,4
26558,49354,6
26575,49371,4
26579,49379,5
26587,49396,5
26591,49404,6
26602,49427,3
26604,49423,5
26615,49407,5
26613,49442,5
26623,49461,4
26624,49465,5
26637,49426,5
26640,49487,5
26645,49490,5
26655,49500,4
26656,49454,5
26661,49524,5
26671,49522,5
26671,49526,5
26672,49548,4
26673,49523,5
26667,49524,5
26665,49530,5
26663,49591,4
26682,49537,4
26675,49542,5
26681,49548,5
26688,49607,5
26688,49554,4
26694,49553,6
26690,49565,4
26696,49585,5
26689,49566,5
26694,49565,4
26696,49577,5
26705,49584,5
26695,49575,5
26697,49581,5
26700,49588,4
26706,49573,5
26707,49586,5
26701,49586,5
26704,49584,5
26719,49591,4
26711,49585,5
26704,49586,5
26711,49584,5
26711,49592,4
26715,49595,4
26708,49598,5
26718,49588,5
26715,49597,5
26715,49589,4
26713,49601,5
26721,49598,6
26712,49608,4
26732,49597,5
26722,49602,4
26722,49595,5
26719,49596,5
26718,49594,5
26714,49596,5
26719,49600,4
26720,49593,5
26715,49597,5
26716,49600,5
26716,49602,5
26718,49605,4
26720,49608,5
26729,49611,5
26732,49613,5
26732,49610,5
26730,49617,4
26727,49620,5
26736,49628,5
26733,49635,5
26741,49636,4
26740,49636,4
26739,49632,5
26743,49634,5
26750,49636,5
26746,49630,4
26747,49639,5
26746,49631,5
26743,49632,5
26750,49633,5
26746,49641,4
26747,49648,5
26748,49643,5
26747,49646,5
26745,49648,5
26756,49644,4
26751,49643,5
26753,49638,5
26756,49650,5
26755,49651,5
26759,49657,5
26762,49661,4
26759,49661,5
26762,49661,5
26764,49658,6
26764,49665,3
26760,49658,5
26764,49658,5
26758,49662,5
26761,49662,4
26757,49661,5
26770,49659,5
26766,49662,5
26766,49663,5
26766,49663,4
26765,49664,5
26760,49669,5
26765,49668,5
26765,49670,5
26765,49662,4
26730,49668,5
26770,49667,5
26764,49673,5
26764,49668,5
26716,49665,4
26763,49666,6
26772,49675,4
26769,49682,5
26737,49675,5
26779,49692,6
26776,49698,3
26779,49695,5
26802,49702,5
26787,49699,4
26783,49703,4
26790,49708,5
26842,49714,5
26799,49710,5
26788,49715,4
26793,49714,5
26839,49719,5
26789,49718,5
26798,49716,5
26785,49716,4
26805,49701,5
26786,49705,5
26784,49712,5
26791,49704,5
26788,49683,4
26798,49695,5
26787,49701,6
26792,49706,4
26792,49663,5
26781,49698,4
26782,49697,5
26785,49706,5
26783,49655,5
26786,49705,5
26787,49706,4
26784,49714,5
26800,49718,5
26801,49727,5
26807,49734,4
26807,49749,5
26811,49795,5
26811,49747,5
26810,49750,5
26809,49752,4
26815,49805,5
26810,49742,5
26810,49735,5
26799,49733,5
26800,49767,4
26800,49737,5
26800,49736,5
26810,49743,6
26814,49742,4
26809,49744,4
26811,49741,5
26807,49737,5
26802,49736,5
26811,49738,4
26819,49743,4
26814,49741,5
26812,49757,5
26813,49742,5
26819,49747,4
26823,49750,5
26811,49756,5
26818,49749,5
26817,49754,5
26822,49760,4
26823,49769,5
26820,49756,5
26828,49760,5
26819,49761,5
26826,49765,5
26820,49760,4
26818,49760,5
26824,49768,5
26826,49759,6
26822,49764,3
26819,49763,5
26818,49763,7
26825,49765,3
26824,49769,5
26830,49767,4
26828,49763,5
26823,49767,5
26827,49768,5
26824,49760,4
26832,49767,5
26826,49764,5
26823,49755,5
26825,49753,5
26826,49765,4
26825,49770,5
26826,49765,5
26827,49768,5
26832,49766,5
26825,49773,4
26820,49767,6
26828,49780,4
26825,49779,5
26839,49780,5
26835,49781,4
26829,49790,5
26837,49790,5
26839,49788,5
26843,49795,5
26841,49788,4
26849,49796,5
26854,49796,5
26844,49790,5
26841,49796,4
26850,49792,4
26849,49802,5
26848,49789,5
26849,49801,5
26836,49796,4
26839,49800,5
26845,49792,5
26840,49799,5
26842,49799,5
26843,49798,4
26858,49803,5
26851,49800,6
26848,49798,4
26845,49804,5
26840,49797,4
26855,49805,5
26843,49800,5
26850,49797,5
26844,49806,5
26844,49811,4
26849,49807,5
26847,49806,5
26817,49800,5
26842,49799,4
26858,49807,4
26850,49812,5
26805,49802,5
26852,49815,5
26860,49810,4
26843,49811,5
26798,49808,5
26852,49812,5
26848,49817,5
26849,49815,4
26874,49818,5
26860,49815,5
26852,49806,6
26857,49809,4
26912,49822,4
26857,49820,5
26861,49812,5
26854,49814,5
26899,49818,5
26861,49816,4
26855,49820,5
26858,49816,5
26876,49809,5
26852,49807,5
26854,49813,4
26847,49810,5
26851,49793,5
26846,49797,5
26838,49801,4
26848,49801,4
26848,49747,5
26837,49791,5
26846,49785,5
26840,49786,5
26835,49740,4
26839,49789,5
26843,49788,5
26844,49792,5
26842,49789,4
26840,49803,5
26842,49806,5
26852,49806,5
26853,49851,5
26849,49815,4
26859,49823,5
26855,49805,5
26860,49878,5
26849,49809,5
26848,49808,4
26843,49804,5
26851,49838,5
26855,49812,5
26848,49809,4
26859,49814,4
26861,49817,5
26853,49801,5
26851,49819,5
26859,49819,4
26850,49818,6
26848,49810,4
26862,49808,5
26853,49826,5
26851,49825,4
26857,49820,5
26856,49834,5
26863,49830,5
26865,49832,5
26854,49834,4
26866,49827,5
26856,49828,5
26861,49820,5
26855,49828,5
26870,49830,4
26867,49831,5
26861,49823,5
26863,49835,5
26861,49835,5
26859,49842,4
26870,49839,5
26872,49850,5
26875,49858,5
26876,49872,4
26875,49873,5
26886,49884,6
26889,49879,4
26891,49883,5
26880,49887,4
26882,49896,5
26892,49886,5
26892,49887,5
26888,49881,5
26878,49880,4
26879,49879,5
26877,49869,5
26875,49860,5
26860,49862,5
26868,49861,4
26862,49854,5
26865,49844,5
26850,49835,5
26851,49850,5
26849,49843,4
26854,49838,5
26848,49839,5
26850,49836,5
26853,49842,4
26848,49849,4
26861,49859,5
26865,49858,6
26866,49867,4
26864,49874,4
26872,49877,5
26865,49871,5
26866,49868,5
26864,49863,5
26867,49861,4
26870,49857,5
26857,49853,5
26858,49861,5
26860,49861,5
26857,49852,4
26857,49864,5
26856,49856,5
26861,49853,5
26853,49852,5
26858,49859,4
26864,49851,5
26846,49849,5
26846,49841,5
26853,49855,5
26856,49848,4
26846,49843,5
26849,49857,5
26854,49857,5
26862,49866,4
26841,49862,5
26856,49855,5
26846,49852,5
26844,49843,5
26801,49831,4
26841,49831,5
26845,49843,5
26844,49838,5
26790,49837,5
26839,49833,4
26836,49817,5
26828,49811,5
26815,49808,5
26816,49805,5
26823,49812,4
26827,49811,5
26877,49825,5
26841,49833,5
26831,49834,5
26836,49842,5
26901,49842,4
26842,49845,5
26839,49838,5
26832,49839,4
26866,49833,4
26843,49835,5
26842,49831,5
26838,49839,5
26844,49830,4
26841,49832,5
26838,49838,5
26841,49842,5
26842,49808,5
26836,49845,4
26852,49850,5
26845,49854,5
26852,49806,5
26855,49862,5
26850,49844,4
26847,49851,5
26848,49810,5
26846,49851,5
26853,49858,5
26853,49855,4
26846,49877,6
26849,49858,3
26856,49859,5
26852,49863,4
26855,49928,4
26862,49880,5
26862,49876,5
26877,49893,5
26868,49947,4
26877,49906,5
26878,49891,5
26879,49900,5
26874,49915,5
26881,49905,4
26885,49911,5
26888,49902,5
26884,49917,5
26888,49914,5
26891,49919,4
26890,49919,5
26894,49921,5
26900,49918,6
26896,49924,4
26892,49923,4
26892,49921,5
26895,49925,5
26901,49926,5
26898,49920,5
26898,49925,4
26904,49920,5
26898,49934,5
26905,49933,5
26905,49932,4
26901,49936,5
26907,49940,5
26908,49941,5
26920,49953,5
26916,49953,4
26911,49946,5
26921,49954,5
26919,49948,5
26928,49963,5
26923,49962,5
26923,49958,4
26924,49966,5
26914,49948,5
26927,49963,6
26925,49954,3
26918,49944,5
26919,49949,5
26919,49954,5
26920,49938,5
26925,49943,4
26923,49939,5
26922,49940,5
26911,49941,5
26917,49936,4
26916,49933,4
26926,49937,5
26917,49936,5
26922,49929,5
26908,49925,4
26910,49922,5
26907,49923,5
26909,49911,5
26900,49908,5
26889,49902,4
26895,49888,6
26887,49890,4
26890,49894,5
26885,49887,5
26889,49890,6
26891,49888,3
26889,49896,5
26897,49892,5
26899,49902,5
26902,49912,4
26895,49908,5
26900,49904,5
26889,49907,5
26896,49900,5
26903,49906,4
26895,49897,5
26894,49896,5
26886,49896,5
26892,49900,4
26893,49902,5
26896,49894,5
26893,49897,5
26893,49897,5
26888,49882,4
26884,49890,5
26892,49898,6
26887,49890,4
26890,49888,5
26884,49888,4
26887,49894,5
26864,49896,5
26896,49903,5
26898,49884,5
26886,49881,4
26838,49889,5
26895,49886,5
26889,49887,5
26890,49896,5
26854,49899,4
26893,49884,5
26891,49896,5
26884,49887,5
26917,49888,4
26880,49889,4
26893,49889,5
26884,49883,5
26947,49889,5
26893,49890,4
26884,49885,5
26890,49879,5
26933,49886,6
26879,49882,4
26888,49886,4
26893,49885,5
26902,49876,5
26883,49865,5
26889,49878,5
26883,49878,4
26886,49854,5
26882,49877,5
26882,49870,5
26883,49875,5
26877,49832,4
26876,49876,5
26885,49868,5
26885,49874,5
26886,49822,5
26886,49880,5
26877,49874,4
26890,49882,5
26888,49874,5
26879,49878,5
26892,49874,4
26892,49884,5
26890,49930,5
26888,49877,6
26890,49885,3
26892,49887,5
26892,49953,5
26885,49889,5
26884,49880,5
26884,49878,4
26890,49916,5
26881,49883,5
26886,49881,5
26879,49887,5
26888,49885,4
26887,49877,5
26877,49880,5
26878,49875,5
26889,49882,5
26884,49869,4
26879,49864,5
26877,49861,5
26864,49865,5
26869,49854,4
26865,49858,5
26861,49851,4
26858,49846,5
26866,49851,5
26869,49847,4
26866,49847,5
26859,49845,5
26860,49844,5
26863,49842,5
26863,49828,4
26848,49820,5
26843,49824,5
26845,49816,5
26847,49806,5
26845,49799,4
26837,49793,5
26819,49779,5
26817,49773,5
26826,49772,5
26813,49766,9
26804,49773,1
26815,49759,4
26810,49771,5
26807,49746,5
26798,49763,4
26809,49750,6
26800,49749,4
26792,49748,5
26790,49742,4
26789,49740,5
26790,49728,5
26780,49723,5
26788,49708,5
26774,49697,4
26769,49701,5
26762,49688,5
26748,49677,5
26745,49662,5
26737,49641,4
26723,49637,5
26713,49617,5
26705,49596,5
26700,49586,5
26696,49561,4
26687,49551,5
26672,49564,5
26679,49554,5
26686,49556,5
26678,49561,4
26681,49563,5
26687,49564,6
26690,49561,4
26674,49554,4
26680,49563,4
26691,49560,5
26693,49584,5
26702,49589,5
26697,49593,4
26701,49606,5
26705,49605,5
26704,49601,5
26703,49599,5
26703,49587,4
26693,49586,5
26698,49578,5
26695,49584,5
26686,49579,5
26685,49584,4
26687,49577,5
26693,49595,5
26708,49592,5
26682,49588,5
26696,49587,4
26701,49589,5
26693,49589,5
26652,49587,5
26699,49587,5
26696,49584,4
26694,49585,5
26648,49589,5
26702,49586,5
26692,49575,4
26701,49579,5
26694,49575,5
26688,49581,5
26698,49577,5
26699,49584,4
26745,49589,5
26696,49586,5
26699,49595,5
26693,49591,5
26768,49602,4
26707,49591,6
26706,49592,4
26707,49589,5
26720,49582,5
26702,49580,6
26694,49576,3
26693,49578,5
26692,49555,5
26680,49563,5
26675,49540,4
26670,49538,5
26665,49477,5
26658,49517,5
26663,49522,4
26655,49514,4
26662,49468,5
26671,49521,5
26663,49516,5
26654,49509,4
26658,49480,5
26644,49503,5
26654,49496,5
26655,49500,5
26647,49539,4
26654,49517,5
26662,49510,5
26658,49515,5
26655,49576,5
26659,49509,4
26665,49502,6
26655,49504,4
26653,49549,5
26655,49506,5
26653,49487,4
26652,49498,5
26654,49504,5
26642,49485,5
26644,49484,4
26649,49482,4
26637,49477,5
26632,49479,5
26640,49480,5
26635,49475,4
26634,49479,5
26633,49480,5
26638,49476,5
26639,49474,5
26632,49461,4
26635,49469,5
26628,49469,5
26628,49466,5
26633,49462,5
26633,49460,4
26630,49467,5
26626,49456,6
26623,49463,4
26623,49462,5
26622,49464,4
26627,49458,5
26630,49463,5
26617,49452,5
26623,49458,5
26626,49452,4
26622,49448,5
26618,49453,5
26610,49453,5
26609,49448,4
26620,49437,4
26611,49440,5
26605,49427,5
26607,49432,5
26607,49434,4
26609,49435,5
26606,49434,5
26613,49429,5
26609,49422,5
26610,49430,4
26599,49423,5
26603,49413,5
26609,49413,5
26600,49417,5
26606,49413,4
26606,49426,5
26596,49414,5
26602,49423,5
26598,49420,5
26598,49410,4
26599,49416,5
26596,49420,5
26597,49414,5
26593,49404,4
26593,49391,4
26589,49384,5
26586,49373,5
26577,49387,5
26581,49383,4
26575,49379,5
26574,49373,5
26576,49371,5
26572,49366,5
26576,49364,5
26561,49361,4
26571,49353,5
26562,49360,5
26561,49344,5
26568,49357,4
26561,49347,5
26556,49353,5
26560,49351,5
26560,49341,5
26560,49339,4
26559,49339,5
26544,49330,5
26547,49337,5
26549,49333,5
26552,49333,4
26536,49340,5
26550,49334,5
26555,49329,5
26553,49329,4
26509,49336,4
26552,49335,6
26552,49340,4
26551,49336,5
26501,49340,4
26556,49343,7
26553,49339,3
26548,49335,5
26534,49331,5
26553,49334,4
26553,49330,5
26564,49337,5
26590,49330,5
26548,49334,5
26554,49350,4
26558,49352,5
26617,49337,5
26557,49342,5
26559,49333,5
26559,49336,4
26575,49338,5
26555,49350,5
26548,49335,5
26553,49341,4
26568,49336,4
26554,49351,5
26558,49338,6
26554,49347,4
26559,49314,4
26555,49355,5
26553,49348,5
26561,49348,5
26560,49287,5
26551,49346,5
26562,49355,4
26560,49355,5
26561,49308,5
26562,49351,5
26561,49347,4
26559,49354,5
26558,49374,5
26556,49357,5
26559,49344,5
26569,49346,4
26559,49406,5
26556,49353,5
26560,49343,5
26562,49335,5
26554,49402,4
26557,49345,5
26555,49360,5
26573,49339,6
26562,49366,3
26561,49348,5
26562,49347,5
26558,49347,5
26558,49341,5
26558,49332,4
26553,49330,5
26549,49335,5
26557,49326,5
26552,49333,5
26550,49330,4
26547,49325,5
26550,49334,5
26552,49330,5
26549,49331,5
26546,49332,4
26548,49329,5
26550,49328,5
26547,49329,5
26538,49319,5
26539,49323,5
26537,49327,4
26545,49327,5
26542,49325,5
26545,49327,6
26551,49326,3
26543,49323,5
26547,49331,5
26548,49323,5
26555,49323,4
26544,49332,5
26549,49324,5
26545,49326,5
26549,49333,5
26543,49339,4
26552,49343,5
26555,49345,5
26553,49349,5
26560,49356,5
26564,49367,4
26571,49367,5
26577,49375,5
26577,49374,5
26578,49383,5
26583,49384,4
26593,49390,6
26601,49400,4
26593,49410,5
26605,49414,4
26601,49422,4
26609,49417,5
26609,49429,5
26611,49427,5
26611,49440,4
26616,49442,5
26621,49446,5
26621,49456,5
26620,49453,5
26628,49449,4
26630,49447,5
26626,49455,5
26626,49458,5
26634,49469,5
26643,49467,4
26638,49477,5
26643,49487,5
26643,49488,5
26646,49487,5
26649,49504,4
26651,49497,5
26657,49508,6
26650,49507,4
26653,49500,4
26655,49506,4
26651,49513,5
26664,49510,5
26658,49517,5
26666,49518,4
26657,49515,5
26668,49516,5
26671,49523,5
26675,49529,5
26678,49534,4
26679,49541,5
26686,49535,5
26639,49546,5
26679,49553,5
26680,49551,4
26679,49548,5
26635,49554,5
26688,49561,5
26678,49556,5
26691,49558,4
26653,49562,5
26697,49575,5
26701,49580,6
26701,49589,4
26730,49588,4
26705,49589,5
26718,49602,5
26714,49599,5
26770,49596,4
26714,49602,4
26714,49605,5
26711,49603,5
26765,49597,5
26714,49598,4
26705,49592,5
26708,49583,5
26727,49582,5
26714,49586,5
26710,49598,4
26708,49592,5
26712,49572,5
26717,49593,5
26718,49594,5
26711,49591,5
26716,49544,4
26702,49593,5
26711,49590,5
26710,49588,5
26711,49535,4
26710,49588,5
26719,49593,5
26709,49597,5
26707,49579,5
26705,49582,4
26717,49592,5
26709,49593,5
26706,49628,5
26707,49586,4
26706,49584,5
26705,49580,5
26696,49646,5
26707,49590,5
26707,49592,4
26715,49601,5
26712,49636,5
26715,49595,5
26707,49599,5
26691,49584,4
26704,49590,6
26696,49575,4
26694,49578,5
26696,49569,5
26694,49565,4
26689,49564,5
26697,49562,5
26689,49565,5
26697,49569,5
26697,49572,4
26700,49569,5
26700,49576,5
26703,49593,5
26703,49601,4
26714,49597,4
26715,49601,5
26716,49609,5
26718,49617,5
26722,49623,4
26732,49617,5
26726,49629,5
26734,49627,5
26730,49637,5
26738,49631,4
26743,49643,5
26742,49650,6
26741,49649,4
26741,49663,5
26739,49657,4
26743,49661,5
26750,49658,5
26753,49652,5
26749,49657,7
26752,49661,2
26757,49658,5
26755,49666,5
26756,49661,5
26757,49662,4
26749,49665,4
26758,49663,5
26750,49662,5
26758,49667,5
26761,49677,4
26767,49670,5
26756,49677,5
26773,49677,5
26771,49682,5
26761,49687,4
26780,49680,5
26770,49683,5
26762,49698,5
26772,49689,5
26770,49700,4
26778,49699,5
26777,49696,5
26779,49700,5
26786,49704,5
26782,49710,4
26779,49706,5
26781,49709,5
26783,49709,5
26789,49702,5
26783,49710,4
26779,49698,5
26779,49702,5
26777,49691,5
26776,49696,4
26779,49701,5
26785,49694,5
26777,49686,5
26770,49686,5
26772,49693,5
26774,49694,4
26769,49685,5
26775,49687,5
26765,49692,5
26773,49690,4
26783,49697,5
26783,49703,5
26780,49698,5
26779,49704,5
26762,49710,4
26775,49707,5
26785,49710,5
26793,49715,5
26739,49721,5
26793,49713,4
26784,49710,5
26784,49704,5
26734,49704,5
26786,49708,4
26779,49705,4
26780,49705,5
26781,49702,5
26781,49701,5
26781,49705,4
26775,49714,6
26824,49710,4
26778,49695,5
26781,49699,5
26778,49700,4
26838,49700,5
26779,49702,5
26780,49701,5
26787,49697,5
26813,49709,4
26781,49707,5
26782,49702,5
26789,49704,5
26778,49695,5
26779,49696,4
26775,49698,5
26775,49700,5
26775,49676,5
26786,49701,5
26779,49711,4
26789,49713,5
26787,49658,5
26780,49719,5
26786,49710,4
26784,49713,5
26790,49676,6
26779,49705,4
26787,49713,5
26791,49711,4
26788,49739,5
26785,49710,5
26782,49700,5
26780,49710,5
26779,49767,4
26788,49704,5
26783,49706,5
26784,49711,5
26789,49758,5
26785,49703,4
26782,49710,5
26782,49706,5
26777,49726,5
26789,49709,5
26782,49712,4
26792,49713,5
26780,49721,5
26795,49720,6
26786,49720,3
26786,49716,4
26789,49715,5
26785,49708,5
26783,49716,5
26787,49708,4
26788,49710,5
26781,49709,5
26789,49712,5
26791,49727,5
26795,49716,4
26793,49718,5
26795,49723,5
26789,49723,5
26792,49722,5
26796,49735,4
26807,49728,5
26799,49733,5
26799,49727,5
26794,49727,5
26797,49736,5
26800,49741,4
26804,49736,5
26806,49737,5
26808,49740,6
26809,49739,3
26802,49736,5
26811,49747,5
26801,49734,5
26798,49741,4
26804,49747,5
26801,49749,5
26802,49746,5
26804,49741,5
26802,49738,4
26800,49739,5
26802,49749,5
26807,49743,5
26804,49748,5
26810,49746,4
26804,49748,5
26800,49752,5
26812,49749,5
26803,49751,5
26811,49749,4
26802,49759,6
26816,49756,4
26814,49759,5
26812,49750,5
26802,49756,6
26813,49758,3
26804,49748,5
26808,49745,5
26810,49736,4
26813,49751,5
26804,49743,5
26801,49744,5
26804,49745,5
26801,49731,4
26793,49733,5
26801,49727,5
26800,49734,5
26799,49731,5
26792,49737,4
26807,49735,5
26796,49745,5
26791,49749,5
26811,49749,5
26806,49756,4
26805,49750,5
26814,49753,6
26811,49762,4
26811,49759,5
26813,49761,4
26813,49759,5
26796,49754,5
26799,49748,5
26805,49756,4
26803,49739,4
26765,49741,5
26806,49741,5
26804,49747,5
26799,49740,4
26756,49741,5
26805,49753,5
26803,49738,5
26803,49736,5
26779,49739,4
26805,49736,5
26805,49741,5
26804,49746,5
26843,49749,5
26808,49748,4
26801,49758,5
26805,49750,5
26862,49741,6
26803,49749,4
26803,49745,4
26801,49736,5
26838,49741,5
26795,49725,5
26800,49734,4
26800,49738,4
26803,49732,5
26791,49730,5
26788,49725,5
26791,49724,4
26780,49704,5
26790,49722,5
26789,49723,5
26786,49726,5
26783,49678,4
26786,49729,5
26791,49717,5
26782,49720,5
26778,49666,5
26794,49722,5
26789,49721,4
26789,49731,5
26784,49731,5
26779,49729,6
26782,49719,3
26784,49726,5
26778,49779,5
26783,49730,5
26779,49740,5
26789,49746,4
26791,49810,5
26793,49753,5
26794,49751,5
26807,49759,4
26804,49783,4
26809,49762,5
26807,49765,5
26797,49767,5
26811,49777,4
26806,49768,5
26801,49768,5
26811,49778,5
26806,49783,5
26812,49778,4
26802,49782,6
26816,49787,4
26815,49787,5
26806,49786,5
26815,49794,4
26812,49794,5
26814,49800,5
26812,49799,5
26820,49795,5
26815,49794,4
26820,49787,5
26806,49785,5
26808,49777,5
26804,49789,4
26801,49788,4
26807,49785,5
26809,49789,5
26809,49795,5
26815,49800,4
26813,49801,5
26809,49794,5
26825,49801,5
26815,49800,5
26819,49789,4
26819,49791,5
26810,49794,6
26821,49796,4
26811,49794,5
26816,49789,4
26805,49787,5
26819,49784,5
26811,49781,5
26810,49781,5
26808,49784,4
26803,49777,5
26806,49777,5
26799,49782,5
26810,49788,5
26808,49773,4
26798,49784,5
26804,49781,5
26808,49779,5
26797,49787,4
26803,49781,4
26806,49781,5
26813,49786,5
26818,49802,5
26821,49798,4
26823,49817,5
26831,49818,5
26832,49823,6
26834,49822,4
26833,49820,4
26844,49820,5
26828,49823,5
26841,49817,5
26833,49820,5
26836,49823,4
26831,49817,5
26837,49826,5
26827,49824,5
26833,49821,5
26836,49824,4
26840,49820,5
26833,49815,5
26841,49837,5
26840,49826,4
26841,49825,4
26839,49824,5
26831,49823,5
26837,49828,5
26834,49835,5
26853,49828,4
26847,49828,5
26841,49816,5
26823,49817,5
26838,49807,4
26831,49801,5
26834,49793,5
26780,49790,5
26827,49794,5
26826,49793,4
26820,49792,5
26761,49793,5
26815,49787,5
26824,49791,5
26826,49792,4
26813,49794,5
26816,49787,5
26819,49789,5
26827,49781,5
26869,49782,4
26819,49777,5
26821,49770,5
26807,49770,5
26877,49768,4
26810,49768,5
26808,49765,4
26813,49765,5
26837,49758,5
26803,49761,4
26806,49758,5
26808,49754,5
26810,49759,5
26797,49757,5
26804,49757,4
26805,49766,5
26810,49729,5
26804,49755,5
26811,49761,5
26815,49772,4
26810,49705,5
26819,49766,5
26809,49767,5
26806,49771,5
26820,49740,4
26813,49770,5
26814,49776,5
26811,49772,5
26813,49801,4
26821,49770,4
26815,49772,6
26816,49774,4
26812,49828,5
26821,49766,4
26812,49766,5
26814,49762,5
26808,49816,5
26814,49776,5
26816,49765,4
26807,49772,5
26802,49787,5
26815,49765,5
26811,49760,5
26811,49768,4
26813,49764,5
26808,49764,5
26800,49767,5
26818,49754,5
26804,49762,4
26807,49759,5
26811,49758,5
26806,49761,5
26802,49758,5
26802,49757,4
26809,49758,5
26811,49763,6
26815,49764,4
26810,49778,4
26820,49764,5
26820,49773,5
26824,49773,5
26819,49781,5
26816,49771,4
26827,49775,5
26825,49773,5
26816,49770,5
26820,49774,5
26820,49769,4
26821,49766,5
26825,49772,5
26811,49764,5
26820,49760,5
26812,49764,4
26813,49771,5
26808,49768,5
26813,49772,6
26817,49765,4
26815,49763,4
26819,49763,5
26815,49769,5
26818,49771,5
26810,49775,4
26807,49762,4
26816,49766,5
26814,49765,5
26813,49782,5
26810,49774,4
26809,49765,5
26809,49771,5
26814,49766,5
26816,49770,5
26820,49770,4
26818,49768,5
26816,49776,5
26812,49764,5
26822,49772,5
26812,49767,4
26818,49767,5
26811,49768,5
26805,49768,5
26812,49758,5
26813,49760,5
26804,49757,4
26811,49756,5
26813,49756,5
26814,49751,4
26806,49746,4
26800,49746,5
26805,49746,5
26806,49741,5
26799,49739,4
26805,49751,5
26797,49744,5
26811,49741,5
26804,49737,5
26803,49747,4
26809,49744,5
26798,49740,5
26807,49747,5
26803,49742,5
26797,49745,4
26791,49741,5
26803,49746,5
26798,49745,4
26817,49747,5
26757,49743,4
26806,49744,6
26805,49743,3
26810,49748,5
26751,49742,5
26805,49738,4
26802,49742,5
26800,49736,5
26782,49736,5
26785,49731,4
26784,49726,4
26790,49733,5
26830,49722,5
26789,49713,5
26784,49719,4
26786,49722,5
26848,49718,5
26786,49722,5
26780,49715,5
26784,49727,4
26827,49728,5
26790,49724,5
26794,49723,6
26792,49725,4
26802,49718,4
26795,49720,5
26786,49727,5
26794,49717,5
26790,49688,5
26788,49715,4
26787,49710,5
26777,49718,5
26783,49650,5
26781,49700,5
26778,49698,4
26775,49698,5
26774,49643,5
26776,49703,5
26780,49704,4
26774,49695,5
26783,49723,5
26784,49707,5
26772,49706,5
26773,49702,5
26776,49757,4
26772,49697,5
26775,49700,5
26771,49703,6
26779,49747,3
26781,49691,5
26769,49705,5
26769,49697,5
26776,49711,5
26774,49694,4
26770,49684,5
26772,49701,5
26773,49690,5
26773,49694,5
26770,49699,4
26775,49701,5
26769,49693,5
26772,49694,5
26768,49703,4
26769,49685,5
26768,49681,5
26772,49693,5
26766,49688,5
26773,49685,4
26765,49685,6
26769,49683,4
26767,49691,5
26769,49685,5
26778,49689,6
26774,49684,3
26763,49685,5
26770,49683,5
26757,49678,5
26763,49679,4
26762,49684,5
26768,49680,5
26762,49680,5
26770,49672,5
26761,49685,4
26767,49675,5
26760,49684,5
26769,49689,5
26766,49672,4
26766,49682,4
26759,49686,5
26766,49679,5
26766,49680,5
26766,49682,4
26768,49684,5
26773,49680,6
26769,49684,4
26769,49684,5
26767,49681,4
26771,49688,5
26766,49691,5
26773,49674,5
26765,49694,5
26770,49681,4
26768,49685,5
26760,49690,5
26758,49681,5
26762,49686,5
26767,49685,4
26760,49678,5
26757,49673,5
26769,49683,5
26767,49686,4
26764,49681,4
26766,49678,5
26761,49677,5
26764,49678,5
26766,49674,4
26773,49677,5
26758,49672,5
26763,49665,6
26763,49671,4
26756,49666,4
26757,49665,5
26748,49661,5
26748,49655,5
26753,49661,5
26750,49654,4
26753,49663,5
26755,49666,5
26753,49660,5
26758,49661,5
26742,49661,4
26747,49661,5
26754,49669,5
26737,49658,5
26752,49661,5
26752,49659,4
26752,49660,5
26715,49655,5
26742,49651,5
26756,49646,5
26749,49644,4
26691,49652,5
26752,49650,5
26737,49654,6
26744,49661,3
26706,49648,5
26747,49646,5
26738,49643,5
26748,49653,5
26776,49654,4
26752,49660,5
26748,49659,5
26744,49654,5
26808,49651,5
26750,49663,4
26747,49664,5
26745,49658,5
26787,49668,5
26752,49659,5
26755,49664,4
26747,49658,5
26769,49649,5
26746,49653,5
26736,49651,4
26743,49650,5
26749,49632,4
26746,49649,5
26747,49652,5
26746,49653,4
26750,49607,5
26755,49665,5
26736,49649,5
26743,49659,5
26747,49603,4
26751,49651,5
26754,49653,5
26745,49661,5
26742,49652,5
26754,49662,4
26750,49675,5
26752,49662,5
26751,49701,5
26743,49660,5
26750,49661,4
26746,49664,5
26752,49720,5
26743,49663,5
26749,49661,5
26751,49657,4
26748,49680,6
26745,49653,4
26753,49655,5
26748,49653,4
26752,49661,5
26752,49657,5
26747,49659,5
26752,49670,5
26755,49661,4
26744,49661,5
26745,49661,5
26755,49661,5
26755,49660,5
26755,49675,4
26761,49677,5
26754,49675,5
26758,49665,5
26745,49664,5
26748,49661,4
26750,49653,5
26748,49652,5
26752,49656,5
26749,49655,5
26749,49651,4
26749,49652,5
26741,49654,6
26748,49650,4
26732,49647,4
26743,49641,4
26744,49646,5
26743,49644,5
26733,49645,5
26740,49639,4
26742,49646,5
26742,49645,5
26747,49648,5
26743,49649,5
26744,49648,4
26740,49662,5
26739,49642,5
26746,49649,5
26751,49653,5
26752,49650,4
26741,49653,5
26752,49651,5
26740,49653,5
26740,49655,5
26752,49655,4
26751,49660,5
26745,49666,5
26754,49662,5
26749,49661,4
26760,49663,4
26754,49666,5
26749,49665,5
26750,49671,5
26745,49668,4
26760,49670,5
26752,49668,5
26753,49670,5
26760,49675,5
26749,49671,4
26753,49675,5
26758,49673,5
26767,49673,5
26759,49677,5
26761,49681,4
26756,49683,5
26768,49682,5
26775,49689,5
26763,49690,5
26771,49694,5
26775,49690,4
26768,49696,5
26780,49707,5
26776,49689,5
26780,49701,4
26775,49703,5
26777,49700,5
26782,49712,5
26779,49710,4
26772,49697,4
26781,49711,5
26788,49705,5
26778,49713,5
26765,49713,4
26781,49705,5
26785,49716,5
26784,49703,5
26733,49705,5
26782,49712,4
26784,49715,5
26784,49708,5
26729,49706,5
26779,49711,5
26776,49712,4
26777,49705,6
26783,49702,4
26779,49704,5
26787,49714,5
26785,49707,4
26829,49705,5
26777,49699,5
26780,49702,5
26780,49708,4
26835,49697,4
26783,49705,5
26787,49705,5
26785,49707,5
26810,49707,4
26790,49709,5
26788,49712,5
26792,49719,5
26795,49721,5
26789,49720,4
26788,49727,5
26795,49725,5
26797,49694,5
26792,49728,5
26789,49707,4
26792,49716,5
26787,49667,6
26781,49708,4
26782,49716,5
26780,49714,4
26781,49677,5
26787,49720,5
26786,49718,5
26783,49719,5
26796,49746,4
26785,49716,5
26798,49718,5
26785,49719,5
26787,49780,4
26792,49717,4
26788,49712,5
26788,49716,5
26796,49765,5
26789,49720,4
26791,49724,5
26800,49723,5
26797,49739,5
26798,49729,6
26792,49734,3
26794,49733,5
26794,49725,5
26795,49728,5
26799,49727,5
26790,49730,4
26797,49732,5
26801,49736,5
26806,49742,5
26799,49741,5
26802,49742,4
26801,49742,5
26799,49736,5
26807,49751,5
26810,49751,4
26813,49755,4
26815,49746,5
26809,49753,5
26806,49747,5
26809,49756,4
26806,49753,5
26812,49764,4
26805,49752,5
26816,49753,5
26812,49760,5
26813,49761,3
26813,49753,5
26815,49760,5
26815,49765,5
26816,49760,4
26816,49765,5
26822,49771,5
26818,49763,5
26812,49770,5
26818,49768,4
26829,49762,8
26827,49766,2
26826,49762,5
26824,49779,5
26853,49772,4
26825,49767,5
26828,49774,5
26829,49768,5
26826,49779,4
26818,49776,5
26827,49781,6
26830,49775,4
26825,49772,5
26824,49771,4
26825,49775,7
26821,49783,3
26825,49787,5
26824,49777,5
26843,49780,4
26829,49789,5
26827,49778,5
26823,49784,5
26832,49781,5
26837,49786,4
26822,49774,5
26827,49776,5
26830,49782,5
26834,49780,5
26825,49780,4
26826,49781,5
26822,49785,5
26832,49783,5
26822,49778,4
26824,49774,4
26832,49782,5
26826,49780,6
26830,49772,4
26831,49779,4
26833,49771,5
26833,49780,5
26830,49786,5
26837,49777,5
26829,49781,4
26820,49788,5
26825,49789,5
26825,49779,5
26825,49783,5
26828,49780,4
26791,49788,5
26832,49785,5
26825,49782,5
26836,49790,5
26782,49785,4
26833,49777,5
26828,49788,5
26831,49779,5
26806,49783,5
26829,49790,4
26841,49791,5
26834,49793,5
26862,49792,6
26840,49791,3
26833,49793,5
26839,49789,5
26892,49794,5
26827,49799,5
26836,49792,4
26833,49788,5
26869,49787,5
26840,49784,5
26838,49791,5
26826,49788,4
26845,49786,5
26826,49786,5
26828,49788,5
26832,49782,5
26828,49764,4
26829,49786,5
26828,49777,5
26825,49776,5
26821,49721,5
26819,49765,5
26815,49766,4
26820,49752,5
26811,49690,5
26812,49755,6
26811,49754,3
26804,49740,5
26800,49751,5
26803,49754,5
26811,49765,4
26814,49765,5
26823,49826,5
26822,49775,5
26823,49784,5
26823,49790,4
26834,49856,5
26828,49785,5
26839,49788,5
26834,49792,5
26834,49810,4
26836,49780,5
26825,49786,5
26837,49788,5
26828,49789,5
26825,49783,4
26830,49791,6
26833,49785,4
26832,49784,5
26834,49794,4
26831,49798,4
26828,49794,5
26836,49798,5
26842,49802,5
26838,49795,4
26837,49795,5
26839,49795,5
26837,49788,5
26834,49796,5
26837,49789,4
26839,49800,5
26834,49795,5
26845,49799,5
26839,49802,5
26843,49798,4
26840,49802,5
26845,49801,5
26834,49799,5
26833,49800,5
26837,49801,4
26835,49799,5
26834,49796,6
26845,49802,4
26840,49787,5
26840,49799,4
26841,49797,5
26835,49796,5
26844,49797,5
26846,49796,4
26842,49806,4
26839,49793,5
26837,49799,5
26842,49795,5
26831,49788,4
26843,49802,5
26834,49801,5
26835,49793,5
26832,49792,5
26837,49792,4
26843,49794,5
26835,49795,5
26841,49802,5
26838,49798,5
26834,49795,4
26837,49796,5
26838,49805,5
26839,49808,6
26844,49816,4
26844,49813,4
26846,49806,5
26848,49819,5
26839,49815,5
26844,49809,4
26842,49805,4
26846,49813,5
26842,49815,5
26853,49812,5
26836,49818,4
26841,49821,5
26848,49814,5
26844,49812,5
26854,49815,5
26847,49813,4
26850,49810,5
26846,49818,5
26852,49811,5
26846,49812,5
26848,49816,5
26853,49813,4
26846,49812,5
26849,49815,5
26846,49816,5
26855,49810,4
26851,49819,5
26845,49820,5
26829,49821,5
26850,49822,5
26847,49825,4
26852,49830,5
26806,49826,5
26857,49819,5
26848,49815,4
26856,49821,5
26798,49821,5
26847,49816,5
26852,49820,5
26847,49819,4
26850,49821,5
26844,49811,5
26846,49825,5
26848,49818,5
26897,49815,4
26851,49801,6
26847,49807,4
26839,49805,5
26889,49804,5
26830,49781,4
26825,49787,5
26827,49787,5
26857,49784,5
26815,49786,5
26828,49784,4
26831,49789,5
26832,49793,5
26832,49804,5
26833,49806,4
26829,49808,4
26834,49773,5
26829,49821,5
26843,49821,5
26844,49822,4
26849,49775,5
26844,49836,5
26842,49841,5
26843,49833,5
26838,49799,4
26846,49842,5
26845,49850,5
26847,49834,4
26843,49860,5
26835,49821,4
26831,49812,5
26828,49806,5
26835,49874,5
26832,49809,5
26821,49810,4
26834,49825,5
26837,49859,5
26833,49824,5
26834,49818,4
26826,49814,4
26825,49829,5
26837,49824,5
26831,49824,5
26834,49830,4
26839,49828,5
26834,49829,5
26829,49836,5
26838,49828,5
26833,49828,4
26832,49831,5
26829,49817,5
26835,49833,5
26825,49827,5
26823,49812,4
26828,49818,5
26822,49826,5
26828,49822,5
26832,49826,5
26834,49819,4
26833,49814,5
26826,49806,5
26819,49807,5
26816,49804,4
26808,49790,4
26810,49788,5
26799,49778,5
26798,49790,5
26810,49782,4
26806,49786,5
26808,49779,5
26805,49781,5
26808,49781,5
26799,49768,5
26799,49764,4
26789,49766,5
26790,49763,5
26794,49758,5
26796,49765,4
26791,49759,5
26785,49764,5
26789,49760,5
26802,49770,5
26795,49781,4
26818,49793,5
26816,49791,5
26818,49801,5
26823,49801,5
26819,49813,4
26824,49805,5
26820,49821,5
26824,49820,5
26832,49828,4
26846,49837,5
26852,49841,5
26841,49842,5
26852,49852,5
26851,49848,4
26843,49847,6
26845,49847,4
26854,49843,5
26845,49841,5
26839,49838,4
26840,49823,5
26838,49834,5
26838,49829,5
26850,49834,5
26842,49825,4
26839,49829,5
26840,49823,5
26842,49830,5
26842,49824,5
26827,49824,4
26835,49825,5
26839,49821,5
26836,49813,5
26829,49803,4
26821,49807,4
26824,49791,5
26818,49787,5
26809,49780,5
26812,49779,4
26796,49774,5
26807,49761,5
26799,49760,5
26795,49758,5
26763,49760,4
26793,49739,5
26791,49748,5
26783,49738,5
26727,49725,5
26777,49731,4
26775,49726,5
26770,49725,5
26756,49722,5
26780,49726,5
26774,49720,4
26778,49707,5
26806,49706,5
26764,49705,5
26777,49714,5
26772,49700,4
26830,49698,5
26758,49697,5
26760,49695,6
26768,49709,3
26804,49699,5
26767,49695,5
26756,49700,5
26770,49696,5
26780,49696,4
26771,49700,5
26778,49710,5
26770,49696,5
26770,49679,5
26759,49699,4
26762,49697,5
26765,49698,5
26764,49646,5
26763,49693,5
26754,49687,4
26760,49693,5
26761,49633,5
26751,49676,5
26757,49684,5
26756,49687,5
26757,49691,4
26751,49684,5
26757,49689,5
26757,49686,6
26757,49742,3
26763,49697,5
26767,49691,5
26769,49697,5
26763,49763,4
26765,49697,5
26771,49702,5
26765,49699,5
26772,49736,5
26770,49710,4
26781,49706,5
26773,49704,5
26778,49714,5
26772,49712,5
26780,49707,4
26777,49714,5
26778,49719,5
26794,49724,5
26785,49726,5
26779,49728,4
26791,49718,6
26784,49726,4
26789,49731,5
26796,49733,4
26791,49726,6
26797,49740,3
26794,49735,5
26791,49736,5
26791,49744,4
26799,49739,5
26804,49740,5
26802,49734,5
26796,49740,5
26799,49740,4
26803,49747,5
26805,49753,5
26798,49741,5
26800,49749,5
26803,49748,4
26795,49739,5
26804,49743,5
26798,49738,5
26800,49742,5
26801,49737,4
26797,49735,5
26797,49743,6
26794,49738,4
26799,49745,5
26803,49736,5
26808,49742,4
26805,49752,5
26803,49757,5
26807,49756,4
26811,49756,4
26809,49759,5
26808,49752,5
26821,49758,5
26804,49751,4
26806,49750,5
26802,49740,5
26805,49737,5
26808,49753,5
26809,49752,4
26806,49746,5
26804,49742,5
26809,49744,5
26800,49756,5
26800,49749,4
26805,49749,5
26801,49748,5
26794,49753,6
26804,49748,4
26805,49749,4
26799,49743,5
26797,49740,5
26799,49748,5
26802,49742,4
26799,49737,4
26796,49730,5
26793,49739,5
26792,49730,5
26798,49735,4
26793,49734,5
26796,49734,5
26801,49732,5
26787,49731,5
26788,49731,4
26794,49731,5
26795,49742,5
26800,49741,5
26796,49737,5
26793,49736,5
26799,49742,4
26775,49740,5
26795,49739,5
26800,49743,6
26797,49740,3
26754,49739,5
26810,49740,5
26804,49732,5
26798,49743,5
26748,49744,4
26795,49733,5
26797,49745,5
26798,49741,5
26804,49748,4
26804,49743,4
26801,49734,5
26796,49741,5
26840,49740,5
26798,49737,4
26799,49746,5
26803,49739,5
26857,49749,5
26798,49750,5
26808,49740,4
26798,49739,6
26827,49746,4
26802,49749,5
26795,49739,5
26801,49746,4
26803,49749,5
26797,49743,5
26793,49733,5
26802,49745,5
26797,49715,4
26791,49746,5
26801,49739,5
26794,49743,5
26797,49688,4
26796,49741,4
26798,49749,5
26802,49741,5
26801,49694,5
26795,49741,5
26795,49741,4
26791,49737,5
26785,49759,5
26793,49737,5
26797,49729,4
26784,49733,5
26785,49783,6
26796,49731,4
26793,49727,5
26796,49731,4
26800,49789,5
26796,49740,5
26797,49738,5
26797,49738,5
26799,49750,4
26796,49744,5
26801,49743,5
26803,49737,5
26798,49733,5
26790,49724,4
26784,49728,5
26791,49722,5
26788,49718,5
26781,49718,4
26785,49720,4
26776,49719,5
26786,49717,5
26777,49718,5
26790,49718,4
26787,49727,5
26787,49714,5
26779,49717,6
26778,49713,4
26774,49706,4
26771,49708,5
26770,49715,5
26775,49711,5
26776,49709,5
26775,49704,4
26771,49699,5
26765,49695,5
26768,49688,5
26769,49696,5
26771,49680,4
26769,49694,5
26762,49688,5
26765,49688,5
26767,49691,4
26760,49691,4
26768,49690,5
26762,49690,5
26765,49689,5
26771,49693,5
26767,49694,4
26766,49694,5
26760,49688,5
26759,49694,5
26761,49689,4
26755,49686,5
26759,49688,5
26769,49687,5
26770,49696,5
26759,49703,4
26763,49691,5
26767,49690,5
26766,49692,5
26768,49696,5
26770,49693,4
26775,49695,5
26777,49709,5
26775,49695,5
26774,49697,5
26773,49712,4
26769,49701,5
26773,49704,5
26762,49700,5
26775,49714,4
26780,49709,6
26785,49707,4
26779,49716,5
26783,49716,5
26778,49706,4
26774,49702,5
26776,49700,5
26777,49702,5
26777,49699,5
26777,49699,4
26772,49700,5
26775,49699,5
26777,49700,5
26769,49692,5
26770,49705,4
26779,49705,5
26773,49697,5
26767,49703,5
26769,49699,5
26771,49699,4
26773,49692,5
26762,49698,5
26735,49696,5
26767,49701,4
26765,49690,4
26766,49697,10
26723,49698,5
26771,49702,7
26771,49702,5
26766,49689,8
26771,49691,7
26793,49693,5
26763,49687,8
26796,49689,7
26774,49689,5
26813,49692,8
26813,49692,7
26766,49689,5
26765,49688,8
26765,49691,7
26777,49690,10
26764,49689,7
26764,49689,5
26718,49682,5
26740,49684,10
26763,49626,5
26768,49689,5
26764,49691,10
26759,49645,5
26760,49612,5
26764,49686,10
26764,49686,5
26769,49700,5
26763,49711,10
26771,49749,5
26765,49697,5
26772,49692,10
26772,49692,5
26774,49698,5
26788,49735,10
26793,49709,5
26777,49709,5
26763,49706,10
26781,49717,5
26784,49727,7
26784,49727,8
26791,49726,9
26792,49732,10
26787,49734,5
26794,49735,7
26794,49735,8
26799,49745,5
26794,49744,7
26801,49756,8
26799,49750,5
26767,49744,7
26793,49743,8
26793,49743,5
26807,49745,7
26824,49752,8
26803,49757,5
26804,49757,7
26790,49768,8
26798,49766,5
26815,49771,7
26815,49771,8
26813,49765,9
26816,49775,8
26815,49781,5
26817,49773,7
26832,49807,8
26832,49807,5
26833,49838,7
26836,49815,8
26830,49797,5
26829,49800,7
26826,49788,8
26834,49788,5
26822,49792,7
26822,49792,8
26822,49788,7
26816,49775,5
26822,49791,8
26818,49780,7
26818,49812,5
26827,49788,8
26827,49788,7
26805,49787,10
26818,49781,7
26827,49791,5
26833,49794,5
26829,49799,10
26829,49799,5
26830,49823,5
26829,49803,8
26826,49769,7
26836,49798,8
26864,49802,4
26836,49799,2
26826,49804,4
26799,49805,5
26817,49800,5
26830,49797,5
26833,49807,5
26799,49805,5
26843,49814,4
26849,49807,5
26838,49808,5
26788,49814,6
26831,49807,3
26842,49814,5
26845,49817,5
26835,49814,5
26848,49819,5
26844,49820,4
26851,49822,5
26882,49826,5
26848,49828,5
26842,49823,5
26846,49828,4
26908,49827,5
26853,49830,5
26850,49832,5
26847,49833,4
26877,49833,4
26849,49829,5
26853,49833,5
26852,49833,5
26859,49840,4
26858,49842,6
26854,49833,4
26855,49839,5
26852,49805,5
26855,49841,6
26854,49846,3
26859,49845,5
26858,49792,5
26859,49840,5
26862,49842,4
26862,49837,5
26856,49778,5
26861,49839,5
26856,49842,5
26858,49839,4
26858,49850,5
26857,49835,5
26856,49832,5
26859,49841,5
26859,49885,4
26853,49841,5
26860,49836,5
26848,49853,5
26856,49904,4
26863,49848,5
26870,49855,6
26872,49844,4
26865,49867,5
26866,49852,4
26864,49847,5
26861,49852,5
26861,49858,5
26866,49854,5
26867,49857,4
26865,49854,5
26871,49864,5
26870,49862,5
26874,49867,5
26876,49863,4
26877,49860,5
26866,49865,5
26870,49872,5
26879,49868,5
26871,49863,4
26877,49864,5
26875,49871,5
26869,49876,5
26878,49879,4
26879,49882,4
26889,49877,5
26886,49886,6
26887,49883,4
26882,49879,4
26879,49877,5
26878,49888,5
26884,49877,5
26880,49880,5
26886,49883,4
26878,49883,5
26887,49891,5
26889,49897,5
26889,49887,5
26882,49883,4
26886,49880,5
26886,49876,5
26881,49875,8
26878,49883,2
26876,49868,4
26874,49866,5
26859,49856,5
26857,49855,5
26872,49853,5
26861,49861,4
26869,49860,5
26864,49859,5
26874,49863,6
26870,49875,3
26871,49875,5
26884,49885,5
26894,49890,5
26894,49898,5
26896,49909,4
26901,49908,5
26894,49904,5
26892,49898,5
26895,49902,5
26895,49900,4
26890,49894,5
26900,49905,5
26893,49898,5
26894,49908,5
26889,49911,4
26895,49903,5
26904,49910,5
26906,49908,5
26903,49910,5
26904,49910,5
26904,49920,4
26900,49912,5
26903,49910,5
26908,49914,4
26898,49919,4
26908,49912,5
26908,49908,5
26907,49917,5
26904,49912,4
26907,49918,5
26902,49904,5
26900,49911,5
26900,49916,5
26894,49910,4
26899,49907,5
26866,49912,5
26901,49914,5
26903,49910,5
26907,49909,4
26847,49913,5
26898,49912,5
26901,49902,5
26895,49910,5
26849,49909,4
26899,49905,6
26892,49904,4
26891,49902,5
26909,49897,4
26911,49908,4
26899,49901,5
26890,49914,5
26953,49901,5
26907,49902,4
26896,49905,5
26901,49900,5
26948,49911,5
26898,49909,5
26892,49907,4
26895,49910,5
26918,49904,5
26900,49906,5
26902,49908,5
26904,49911,4
26906,49891,5
26904,49909,5
26900,49911,5
26905,49921,5
26907,49875,4
26910,49922,5
26907,49919,6
26907,49932,4
26911,49878,5
26919,49937,5
26919,49933,4
26912,49933,5
26916,49919,5
26916,49936,4
26918,49935,4
26916,49941,5
26919,49983,5
26921,49936,5
26921,49936,4
26919,49945,5
26921,49986,5
26920,49928,5
26921,49934,5
26919,49936,4
26921,49970,5
26918,49940,5
26916,49938,5
26923,49937,5
26920,49944,4
26919,49942,5
26917,49953,5
26922,49944,5
26928,49956,5
26917,49944,4
26916,49946,5
26926,49952,5
26924,49944,5
26922,49943,4
26918,49942,4
26916,49938,5
26924,49945,5
26926,49941,5
26921,49937,4
26916,49939,5
26920,49931,5
26920,49936,5
26909,49931,5
26915,49920,4
26910,49925,5
26902,49918,5
26898,49922,5
26907,49916,5
26897,49920,5
26899,49914,4
26904,49911,5
26893,49912,5
26905,49908,5
26907,49926,4
26912,49913,5
26917,49921,5
26912,49933,5
26909,49921,5
26904,49918,4
26913,49934,5
26911,49920,5
26905,49920,5
26908,49925,4
26902,49912,5
26903,49916,5
26901,49908,5
26904,49911,5
26900,49914,4
26906,49912,5
26905,49920,5
26908,49923,5
26906,49918,5
26901,49917,4
26911,49917,6
26901,49914,4
26902,49919,5
26904,49918,5
26906,49928,4
26908,49929,5
26902,49917,5
26911,49916,5
26910,49917,5
26901,49922,4
26909,49917,5
26907,49911,5
26898,49915,5
26896,49920,4
26905,49919,4
26910,49913,5
26907,49918,5
26897,49909,10
26905,49917,9
26905,49917,5
26910,49868,10
26899,49897,5
26907,49919,5
26903,49913,10
26907,49914,5
26891,49911,5
26906,49918,10
26906,49918,5
26896,49909,5
26905,49908,10
26860,49913,5
26901,49913,7
26900,49906,8
26900,49906,5
26895,49912,7
26900,49905,8
26913,49924,3
26897,49921,2
26902,49866,5
26946,49920,4
26907,49924,5
26910,49922,5
26908,49927,5
26969,49931,5
26912,49932,4
26913,49935,5
26911,49924,5
26937,49936,5
26919,49927,5
26914,49930,4
26906,49928,5
26912,49931,5
