RED,IR,EKG,TIME
29719,55025,11
29724,55020,7
29720,55022,5
29719,55022,10
29680,55019,5
29711,55021,5
29722,55032,10
29722,55032,5
29717,55018,5
29723,55021,10
29714,55025,5
29719,55017,5
29715,55009,10
29719,55016,5
29719,55016,7
29718,55017,8
29723,55025,5
29714,55010,7
29719,55017,8
29711,55022,5
29715,55015,7
29712,55008,8
29712,55008,5
29710,55001,7
29713,54980,8
29712,55007,9
29711,55019,8
29711,55019,5
29743,55013,7
29725,55018,8
29717,55013,5
29708,55011,7
29705,54998,8
29668,54998,5
29695,54974,7
29695,54974,8
29695,54968,5
29679,54960,7
29653,54965,8
29692,54960,5
29718,54956,7
29688,54953,8
29688,54953,5
29738,54964,7
29688,54956,8
29685,54953,7
29690,54957,5
29747,54951,8
29688,54951,7
29682,54941,7
29682,54941,8
29653,54930,7
29676,54919,5
29684,54933,8
29678,54965,7
29679,54924,5
29684,54895,8
29684,54895,7
29671,54945,5
29684,54947,8
29680,54936,12
29680,54936,10
29675,54987,7
29669,54932,8
29676,54932,7
29688,54953,5
29675,54956,8
29675,54956,7
29666,54964,7
29677,54928,10
29663,54931,5
29657,54928,5
29676,54917,8
29676,54917,7
29690,54928,11
29678,54936,7
29679,54921,5
29664,54931,8
29664,54931,7
29668,54927,5
29662,54914,10
29669,54917,9
29669,54914,8
29669,54914,7
29689,54927,9
29663,54926,10
29672,54916,5
29673,54918,7
29673,54918,8
29668,54912,5
29669,54926,7
29670,54920,8
29669,54922,5
29657,54919,7
29668,54912,3
29664,54921,2
29672,54912,4
29664,54878,5
29634,54914,5
29661,54909,5
29661,54910,5
29661,54919,4
29659,54910,5
29658,54911,5
29665,54901,5
29670,54922,4
29663,54912,4
29652,54909,5
29664,54906,5
29659,54924,5
29664,54924,4
29673,54925,5
29662,54922,5
29664,54914,5
29661,54913,5
29656,54914,4
29658,54901,5
29667,54912,5
29665,54909,6
29661,54918,4
29654,54913,4
29668,54917,5
29660,54907,5
29654,54901,5
29660,54909,5
29656,54901,4
29655,54894,5
29654,54893,5
29648,54878,5
29645,54885,5
29643,54879,4
29643,54881,5
29646,54882,5
29653,54874,5
29648,54884,4
29648,54888,5
29645,54878,5
29643,54887,5
29640,54891,5
29650,54884,5
29610,54890,4
29649,54893,5
29645,54892,5
29640,54890,6
29596,54880,3
29642,54887,5
29646,54889,5
29642,54887,5
29617,54880,5
29643,54888,4
29639,54877,5
29648,54874,5
29671,54879,5
29644,54875,5
29640,54871,4
29644,54868,5
29702,54884,5
29644,54881,5
29643,54873,4
29642,54882,4
29685,54881,5
29649,54886,5
29645,54881,5
29641,54881,4
29652,54887,6
29644,54887,4
29646,54883,5
29643,54881,5
29650,54861,4
29651,54886,5
29650,54873,5
29647,54883,5
29646,54838,5
29650,54880,4
29649,54895,4
29651,54889,5
29650,54838,5
29645,54887,5
29643,54884,4
29646,54890,5
29654,54900,5
29652,54890,5
29648,54893,4
29650,54884,4
29649,54934,5
29645,54879,5
29648,54883,5
29646,54878,4
29641,54940,5
29643,54884,6
29644,54878,4
29643,54887,5
29641,54905,4
29648,54878,5
29651,54889,5
29645,54881,5
29640,54885,5
29642,54883,4
29643,54868,5
29635,54876,5
29638,54871,5
29630,54860,5
29638,54862,4
29631,54865,5
29632,54869,5
29637,54867,5
29628,54862,5
29635,54868,4
29636,54863,5
29636,54866,5
29641,54869,5
29636,54862,4
29645,54866,5
29640,54869,5
29638,54867,6
29639,54871,4
29631,54872,4
29641,54871,5
29639,54862,5
29637,54860,5
29630,54873,5
29634,54868,4
29637,54853,5
29628,54855,5
29630,54855,5
29624,54855,5
29620,54848,4
29631,54854,5
29628,54853,5
29630,54855,5
29628,54862,5
29626,54853,4
29641,54848,5
29632,54852,5
29625,54845,5
29623,54848,5
29627,54855,4
29626,54846,5
29634,54853,5
29627,54856,6
29625,54856,3
29628,54855,5
29624,54856,5
29620,54850,5
29625,54855,5
29621,54849,4
29623,54847,5
29629,54837,5
29618,54840,5
29622,54840,5
29615,54832,4
29619,54838,5
29614,54829,5
29618,54822,5
29619,54820,5
29614,54832,4
29611,54822,5
29612,54825,5
29613,54805,5
29612,54815,5
29609,54814,5
29607,54805,4
29603,54803,5
29609,54800,5
29609,54801,4
29604,54801,4
29595,54808,5
29597,54789,5
29604,54796,5
29597,54799,4
29596,54794,5
29588,54786,5
29601,54796,5
29595,54783,5
29601,54791,4
29595,54789,5
29592,54785,5
29549,54777,5
29592,54774,5
29589,54779,4
29583,54774,5
29543,54765,5
29588,54774,5
29586,54782,5
29585,54774,4
29564,54778,6
29587,54774,4
29582,54780,5
29589,54779,4
29620,54776,4
29589,54771,5
29585,54777,5
29595,54771,5
29638,54769,4
29582,54779,5
29588,54777,5
29590,54780,5
29629,54784,5
29585,54780,4
29596,54780,5
29588,54784,5
29601,54777,5
29593,54788,5
29588,54798,4
29590,54786,5
29588,54770,5
29594,54788,6
29595,54795,4
29595,54797,4
29600,54762,5
29603,54805,5
29608,54799,5
29597,54808,5
29600,54759,4
29609,54816,5
29605,54818,5
29598,54806,5
29605,54806,4
29598,54793,4
29606,54799,5
29614,54809,5
29606,54844,5
29610,54815,4
29606,54819,5
29607,54825,5
29613,54873,5
29600,54826,5
29611,54820,4
29612,54830,5
29615,54855,5
29609,54825,5
29606,54824,5
29613,54829,4
29619,54831,5
29623,54845,5
29627,54851,5
29616,54846,5
29616,54851,4
29629,54853,5
29633,54849,5
29628,54853,5
29635,54864,4
29639,54867,4
29630,54870,5
29634,54874,5
29644,54873,5
29642,54881,4
29642,54891,5
29649,54897,5
29654,54897,5
29648,54910,5
29654,54909,4
29658,54908,5
29654,54912,5
29656,54914,5
29669,54911,5
29663,54909,5
29658,54931,4
29663,54927,5
29664,54929,5
29661,54940,5
29674,54937,4
29677,54940,5
29684,54950,5
29682,54955,5
29680,54962,5
29684,54965,4
29691,54969,5
29694,54975,5
29702,54980,5
29694,54995,4
29695,54988,4
29702,54985,5
29708,55002,5
29705,54997,5
29700,55001,4
29712,55007,5
29707,55008,5
29709,55009,5
29710,55008,5
29706,55006,4
29717,55014,6
29710,55006,4
29710,55014,5
29717,55017,5
29716,55008,4
29710,55013,5
29709,55010,5
29707,55018,5
29712,55016,5
29709,55016,4
29713,55015,5
29712,55016,5
29721,55020,5
29709,55019,4
29721,55030,4
29720,55022,5
29711,55022,5
29721,55030,5
29719,55024,4
29719,55033,5
29728,55029,5
29729,55034,6
29725,55037,4
29726,55026,4
29723,55042,5
29721,55040,5
29722,55034,5
29725,55044,5
29722,55034,4
29729,55045,5
29720,55043,5
29721,55036,5
29721,55036,5
29689,55036,4
29738,55047,5
29735,55042,5
29732,55049,5
29688,55040,5
29728,55043,4
29731,55045,5
29735,55039,5
29705,55044,5
29729,55042,5
29725,55042,4
29719,55033,5
29759,55036,5
29721,55036,6
29725,55036,3
29730,55031,5
29778,55036,5
29716,55032,5
29720,55038,5
29733,55027,4
29761,55036,5
29723,55032,5
29727,55038,5
29721,55027,5
29739,55029,4
29722,55030,5
29724,55039,5
29715,55043,5
29727,55021,5
29725,55026,4
29718,55034,5
29726,55026,5
29727,54988,5
29719,55033,5
29722,55040,5
29721,55031,4
29715,54983,5
29718,55028,5
29722,55023,6
29725,55033,3
29724,55037,5
29718,55024,5
29715,55035,5
29720,55027,4
29725,55086,5
29723,55030,5
29723,55035,6
29719,55029,4
29720,55093,4
29722,55038,5
29731,55028,5
29722,55032,5
29725,55051,5
29724,55039,4
29717,55035,5
29728,55024,5
29725,55038,5
29717,55033,5
29721,55034,4
29724,55034,6
29719,55026,4
29722,55035,5
29719,55023,4
29722,55038,4
29733,55036,5
29725,55037,5
29723,55034,5
29724,55042,4
29722,55035,5
29730,55030,5
29727,55038,5
29721,55038,5
29727,55036,4
29724,55043,5
29724,55040,5
29730,55041,5
29728,55040,5
29722,55034,4
29721,55042,5
29718,55048,5
29722,55039,5
29725,55035,5
29731,55046,4
29721,55043,5
29729,55047,6
29728,55034,4
29723,55040,4
29730,55046,4
29727,55039,5
29731,55037,5
29727,55042,5
29723,55041,4
29717,55041,5
29728,55033,5
29728,55040,5
29732,55037,5
29731,55045,4
29725,55047,5
29731,55044,5
29731,55044,5
29729,55044,5
29730,55050,4
29731,55048,5
29730,55049,5
29727,55046,5
29734,55047,5
29728,55054,4
29727,55051,5
29733,55055,5
29734,55052,6
29729,55052,4
29734,55049,4
29732,55057,5
29739,55050,5
29735,55056,5
29738,55058,4
29738,55046,5
29731,55044,5
29736,55051,5
29736,55050,5
29732,55039,4
29729,55047,5
29732,55042,5
29731,55040,5
29721,55044,5
29736,55044,4
29729,55043,5
29722,55045,5
29733,55052,5
29736,55046,5
29732,55048,5
29732,55046,4
29735,55049,5
29723,55047,5
29734,55051,6
29725,55045,3
29724,55041,5
29700,55045,5
29728,55048,5
29726,55042,4
29729,55043,4
29682,55049,5
29723,55047,5
29725,55039,5
29717,55039,4
29696,55042,5
29729,55036,5
29735,55030,5
29723,55043,5
29753,55044,4
29731,55043,5
29729,55040,5
29735,55045,5
29779,55049,5
29730,55052,4
29729,55038,6
29732,55046,4
29764,55045,5
29730,55044,5
29736,55047,4
29727,55041,5
29738,55038,5
29728,55043,5
29725,55044,5
29724,55040,4
29729,55021,5
29729,55041,5
29730,55040,5
29723,55038,4
29729,54996,4
29733,55039,5
29728,55039,5
29721,55049,5
29724,54993,4
29736,55041,5
29727,55039,4
29730,55039,5
29730,55046,5
29734,55043,4
29729,55043,5
29730,55045,6
29733,55093,4
29734,55047,5
29729,55039,4
29731,55037,5
29731,55103,5
29730,55040,5
29731,55046,5
29731,55042,4
29735,55062,5
29725,55042,5
29732,55049,5
29724,55042,4
29734,55044,4
29733,55044,5
29723,55045,5
29729,55039,5
29727,55036,4
29733,55036,5
29727,55044,5
29723,55043,5
29724,55044,5
29732,55042,4
29721,55042,5
29730,55037,5
29730,55042,6
29735,55041,4
29732,55048,4
29730,55049,5
29726,55047,5
29735,55044,5
29727,55046,5
29727,55048,4
29732,55048,5
29731,55051,5
29737,55046,5
29737,55041,5
29728,55052,4
29736,55052,5
29739,55051,5
29727,55041,5
29736,55042,4
29732,55054,4
29727,55051,5
29734,55044,5
29731,55043,5
29726,55043,5
29731,55045,4
29729,55044,5
29725,55040,5
29719,55038,5
29731,55036,4
29725,55044,5
29728,55032,5
29726,55032,5
29728,55042,5
29727,55028,4
29718,55027,5
29718,55045,5
29723,55033,5
29723,55032,5
29723,55037,4
29715,55025,5
29716,55034,5
29717,55025,5
29720,55026,4
29714,55029,4
29722,55022,5
29718,55020,5
29723,55029,5
29712,55018,4
29721,55025,6
29718,55026,4
29722,55028,5
29722,55024,5
29715,55022,4
29721,55023,5
29723,55020,5
29718,55022,5
29713,55023,5
29718,55019,4
29718,55026,5
29711,55020,5
29718,55012,5
29710,55015,5
29716,55019,4
29717,55016,5
29718,55014,5
29710,55018,5
29705,55012,5
29709,55010,4
29715,55017,5
29716,55012,5
29712,55008,5
29668,55012,4
29717,55013,5
29708,55012,6
29712,55007,4
29667,55009,5
29706,55011,4
29710,55007,5
29708,55017,5
29695,55007,5
29712,55011,5
29706,55006,4
29709,55014,5
29751,54999,5
29706,55002,5
29716,54996,5
29702,55010,4
29759,55002,5
29712,55000,5
29707,55004,5
29700,54999,5
29729,54990,4
29702,54990,5
29705,54996,5
29696,54995,5
29713,54987,4
29705,54985,4
29698,54975,5
29698,54969,5
29689,54931,5
29692,54942,4
29682,54936,5
29667,54926,5
29664,54858,5
29648,54886,5
29651,54878,4
29630,54861,5
29626,54794,5
29619,54819,5
29605,54805,5
29601,54777,4
29584,54783,5
29576,54753,5
29576,54745,5
29572,54732,5
29566,54770,4
29551,54710,5
29555,54697,5
29535,54675,5
29531,54720,5
29535,54671,4
29525,54658,5
29517,54650,5
29525,54660,5
29511,54639,4
29503,54632,5
29506,54625,5
29504,54631,5
29504,54625,5
29507,54624,4
29496,54614,5
29502,54624,5
29504,54620,5
29502,54614,5
29506,54629,4
29500,54632,5
29507,54624,5
29504,54639,5
29514,54638,5
29508,54634,4
29518,54634,6
29511,54653,4
29512,54652,5
29525,54651,5
29522,54654,6
29521,54658,3
29523,54651,5
29520,54653,5
29526,54650,4
29523,54652,4
29524,54662,5
29527,54656,5
29524,54664,5
29528,54665,4
29528,54658,5
29525,54666,5
29535,54669,5
29526,54665,5
29525,54659,4
29536,54670,5
29528,54669,5
29533,54671,5
29537,54681,5
29531,54683,4
29537,54675,5
29535,54679,6
29536,54682,4
29535,54678,5
29538,54677,4
29535,54685,5
29532,54689,5
29537,54696,5
29541,54687,5
29536,54692,4
29542,54689,5
29542,54687,5
29544,54692,5
29544,54686,4
29543,54692,5
29543,54693,5
29538,54687,5
29546,54695,5
29542,54690,4
29543,54692,5
29544,54698,5
29544,54695,5
29548,54695,5
29537,54697,4
29539,54702,5
29548,54692,5
29549,54691,6
29545,54687,4
29540,54700,4
29545,54699,5
29549,54702,5
29550,54694,5
29547,54708,5
29552,54700,4
29553,54704,5
29541,54707,5
29550,54696,5
29557,54716,4
29557,54709,4
29557,54720,5
29540,54723,5
29561,54726,5
29558,54726,4
29566,54726,5
29527,54727,5
29562,54736,5
29570,54744,5
29575,54744,5
29517,54751,4
29573,54745,5
29574,54742,5
29565,54737,6
29568,54747,3
29576,54746,5
29571,54740,5
29577,54747,5
29605,54736,5
29572,54735,4
29565,54744,5
29559,54737,5
29615,54736,5
29568,54745,4
29560,54740,4
29564,54743,5
29593,54743,5
29565,54737,5
29570,54739,4
29566,54749,5
29577,54741,5
29570,54744,5
29577,54751,5
29570,54753,4
29574,54716,6
29577,54753,4
29575,54743,5
29570,54755,5
29579,54699,6
29576,54745,3
29571,54745,5
29565,54743,5
29569,54724,5
29571,54745,4
29574,54741,5
29572,54745,5
29569,54765,5
29571,54738,5
29570,54739,4
29576,54742,5
29566,54796,5
29575,54743,5
29578,54739,4
29572,54735,4
29569,54769,5
29569,54736,5
29564,54742,5
29573,54740,4
29573,54748,7
29573,54730,4
29570,54734,4
29566,54732,5
29574,54734,4
29568,54735,5
29565,54734,5
29575,54736,5
29569,54735,5
29569,54731,4
29561,54733,5
29566,54730,5
29563,54726,5
29561,54731,5
29565,54734,4
29563,54742,5
29574,54738,5
29563,54739,5
29570,54730,4
29562,54731,4
29567,54738,5
29565,54734,5
29559,54737,5
29564,54734,4
29564,54731,5
29568,54740,5
29558,54725,6
29567,54725,4
29572,54730,4
29571,54725,5
29561,54738,5
29565,54729,5
29561,54728,5
29570,54740,4
29566,54735,5
29568,54739,5
29570,54744,5
29585,54742,5
29573,54743,4
29565,54744,5
29575,54750,5
29577,54746,5
29573,54750,5
29577,54751,4
29579,54757,5
29580,54754,5
29577,54757,5
29581,54759,5
29574,54755,4
29582,54761,5
29577,54759,5
29588,54758,6
29572,54756,3
29581,54757,5
29576,54756,5
29584,54752,5
29571,54748,5
29578,54756,4
29578,54747,5
29576,54758,5
29583,54754,5
29583,54761,5
29583,54755,4
29577,54767,5
29580,54756,5
29578,54771,5
29577,54765,5
29578,54761,4
29579,54764,5
29579,54764,5
29575,54751,5
29574,54766,4
29575,54760,5
29584,54763,4
29580,54761,5
29580,54766,5
29572,54755,4
29572,54750,5
29581,54759,5
29581,54758,5
29576,54754,5
29551,54767,4
29588,54767,5
29578,54763,5
29576,54771,5
29537,54773,5
29592,54776,4
29587,54779,5
29595,54785,5
29538,54786,5
29588,54784,5
29588,54798,4
29590,54789,5
29614,54799,5
29596,54795,5
29599,54807,4
29598,54799,4
29651,54817,6
29605,54812,4
29615,54824,5
29604,54827,4
29664,54831,5
29613,54833,5
29622,54831,5
29624,54841,5
29644,54855,4
29634,54853,5
29627,54863,5
29635,54859,5
29631,54859,5
29636,54873,4
29636,54869,5
29640,54882,5
29632,54839,5
29637,54879,5
29638,54889,4
29651,54882,5
29643,54841,5
29652,54901,5
29644,54898,4
29648,54902,4
29653,54898,5
29657,54922,7
29653,54912,3
29657,54913,4
29668,54964,4
29665,54927,5
29666,54926,5
29670,54930,5
29662,55003,4
29666,54933,5
29670,54939,5
29675,54939,5
29678,54985,5
29671,54957,4
29677,54958,5
29686,54960,5
29688,54970,5
29687,54973,5
29690,54974,4
29686,54971,5
29690,54984,5
29697,54974,5
29699,54974,5
29691,54980,4
29696,54978,5
29695,54989,5
29690,54981,5
29695,54981,4
29689,54975,4
29692,54977,5
29692,54999,5
29697,54988,5
29692,54987,4
29705,54999,5
29703,54993,5
29704,54990,5
29706,54999,5
29710,54996,4
29703,54998,5
29695,55000,5
29708,54992,5
29704,55002,5
29704,54997,4
29704,54997,5
29700,55003,5
29703,54998,5
29703,55008,5
29699,55006,5
29703,55004,4
29702,55001,5
29702,55004,5
29706,55004,5
29706,55007,4
29708,55007,5
29699,55009,5
29700,55008,5
29710,55019,4
29711,55013,5
29709,55022,5
29708,55011,5
29715,55010,5
29707,55018,4
29710,55016,5
29715,55010,5
29709,55017,5
29712,55016,5
29707,55024,4
29714,55022,5
29715,55016,5
29724,55018,5
29713,55014,5
29716,55026,4
29712,55029,6
29718,55029,4
29717,55025,5
29712,55023,5
29717,55024,4
29710,55029,5
29715,55029,5
29718,55033,5
29716,55028,4
29714,55022,4
29711,55025,5
29721,55023,5
29719,55024,5
29714,55025,4
29712,55026,5
29716,55032,5
29720,55023,5
29715,55030,5
29719,55032,4
29720,55027,5
29719,55023,5
29719,55029,5
29724,55020,5
29720,55028,4
29712,55024,5
29684,55026,5
29718,55023,5
29714,55023,5
29719,55032,4
29671,55030,5
29721,55032,5
29714,55029,5
29723,55027,5
29680,55020,4
29721,55023,5
29717,55031,5
29726,55026,5
29744,55029,4
29710,55033,5
29711,55028,5
29720,55029,5
29764,55033,5
29713,55027,5
29718,55032,4
29721,55036,5
29758,55029,5
29723,55032,6
29714,55032,3
29720,55023,5
29742,55043,5
29715,55033,5
29727,55033,5
29720,55029,4
29722,55022,5
29718,55029,5
29720,55026,5
29714,55029,5
29708,54985,4
29706,55017,5
29716,55017,5
29720,55016,5
29715,54973,4
29708,55014,5
29712,55018,4
29714,55018,5
29710,55021,5
29702,55026,4
29714,55016,6
29703,55018,4
29715,55060,5
29710,55012,5
29715,55021,6
29719,55021,3
29708,55082,5
29712,55018,5
29711,55018,5
29704,55019,4
29702,55050,5
29708,55018,5
29711,55018,5
29712,55025,5
29719,55024,4
29715,55025,5
29722,55024,5
29717,55028,5
29721,55020,4
29715,55027,4
29716,55021,5
29713,55027,5
29712,55022,5
29713,55026,4
29705,55014,5
29712,55010,6
29709,55013,4
29712,55011,5
29713,55017,4
29712,55010,5
29711,55020,5
29706,55014,5
29709,55015,5
29711,55020,4
29706,55022,5
29712,55015,5
29716,55027,5
29717,55026,5
29713,55021,4
29712,55026,5
29709,55021,5
29718,55024,5
29711,55025,5
29728,55019,4
29720,55031,5
29709,55033,5
29720,55032,5
29710,55028,4
29719,55025,5
29715,55024,5
29705,55037,6
29710,55029,4
29715,55031,4
29719,55023,5
29712,55023,5
29712,55019,5
29723,55023,5
29719,55026,4
29716,55021,5
29708,55019,5
29712,55021,5
29713,55024,5
29714,55022,4
29708,55020,5
29714,55032,5
29716,55016,5
29712,55022,5
29710,55027,4
29711,55025,5
29718,55022,5
29706,55018,5
29708,55022,5
29712,55024,4
29718,55024,5
29713,55025,5
29718,55019,6
29713,55022,3
29705,55019,5
29712,55022,5
29725,55022,5
29720,55025,5
29718,55022,4
29718,55022,5
29717,55008,5
29718,55019,5
29720,55016,5
29721,55025,4
29716,55020,5
29716,55017,5
29716,55021,5
29716,55026,5
29712,55023,4
29711,55028,5
29712,55034,5
29715,55036,5
29686,55036,4
29715,55026,5
29713,55028,4
29714,55020,5
29673,55025,5
29722,55033,6
29722,55039,3
29729,55032,5
29702,55036,5
29727,55033,5
29726,55038,4
29727,55041,5
29765,55040,5
29716,55043,5
29730,55042,5
29730,55037,4
29775,55036,5
29727,55034,5
29721,55028,5
29726,55024,5
29747,55029,4
29720,55034,5
29720,55026,5
29719,55029,5
29728,55028,5
29714,55034,4
29725,55038,6
29716,55029,4
29710,54998,5
29718,55023,4
29714,55026,4
29720,55021,5
29719,54982,5
29715,55029,5
29723,55023,4
29718,55030,5
29718,54983,5
29712,55031,5
29721,55022,5
29722,55034,4
29718,55046,5
29715,55034,5
29722,55029,5
29727,55028,5
29724,55083,4
29723,55033,5
29711,55033,5
29716,55021,5
29723,55071,5
29716,55031,4
29721,55029,5
29717,55026,6
29724,55034,4
29721,55022,4
29720,55025,4
29712,55027,5
29732,55032,5
29722,55029,5
29717,55028,4
29722,55039,5
29720,55033,5
29722,55022,5
29723,55027,5
29720,55025,4
29712,55039,5
29720,55025,5
29724,55027,5
29717,55025,5
29722,55015,4
29720,55022,5
29717,55028,5
29719,55031,5
29718,55027,5
29725,55033,4
29724,55030,5
29719,55027,5
29718,55034,6
29723,55027,3
29714,55033,4
29718,55019,5
29725,55024,5
29717,55035,5
29721,55018,4
29725,55026,5
29722,55023,5
29718,55029,5
29724,55026,5
29719,55024,4
29713,55026,5
29720,55023,5
29719,55020,5
29714,55022,5
29717,55019,4
29714,55025,5
29717,55019,5
29715,55015,5
29715,55021,5
29710,55018,5
29712,55015,4
29706,55017,5
29716,55011,5
29714,55011,5
29709,55015,4
29708,55003,5
29711,55011,5
29707,55010,5
29716,55009,4
29705,55006,5
29705,55009,5
29708,55011,5
29708,55002,5
29711,55009,4
29695,55005,5
29705,55000,5
29713,55001,5
29708,55003,5
29705,54999,4
29698,55007,5
29708,55001,5
29704,55013,5
29717,54997,5
29709,55008,4
29706,55013,6
29711,55001,4
29709,55006,5
29707,54999,5
29708,54994,4
29700,55001,5
29705,54994,5
29700,54985,5
29699,54991,4
29701,54982,4
29698,54976,5
29676,54982,5
29690,54971,5
29689,54976,4
29689,54978,5
29644,54976,5
29694,54976,5
29687,54984,5
29688,54978,4
29648,54975,5
29696,54969,5
29692,54967,5
29693,54979,5
29699,54978,4
29689,54975,5
29697,54978,6
29687,54972,4
29735,54975,5
29698,54963,4
29690,54977,5
29686,54963,5
29740,54972,5
29690,54967,4
29690,54973,4
29691,54964,5
29703,54961,5
29692,54965,5
29685,54972,4
29684,54970,5
29692,54956,5
29689,54959,5
29684,54968,5
29684,54963,4
29692,54917,5
29675,54968,5
29679,54961,5
29685,54965,5
29689,54908,4
29684,54962,5
29677,54971,5
29685,54957,5
29683,54947,5
29678,54962,4
29679,54956,5
29691,54966,5
29685,55003,5
29686,54952,5
29684,54957,4
29683,54960,5
29680,55018,5
29679,54963,5
29686,54960,4
29673,54962,4
29678,54997,5
29687,54966,5
29677,54953,5
29683,54953,4
29683,54971,5
29683,54949,5
29678,54948,5
29682,54952,5
29683,54951,5
29682,54948,4
29673,54945,5
29674,54951,5
29677,54956,5
29678,54958,4
29681,54946,5
29680,54945,5
29672,54946,5
29678,54939,5
29674,54932,4
29679,54941,5
29673,54933,5
29675,54938,5
29677,54934,4
29665,54942,4
29670,54938,5
29670,54935,5
29663,54939,5
29674,54931,4
29671,54941,5
29668,54935,5
29669,54939,4
29666,54931,5
29669,54926,4
29671,54933,6
29669,54928,3
29671,54938,5
29671,54933,5
29668,54928,4
29671,54933,5
29659,54925,5
29672,54923,5
29663,54916,5
29665,54915,4
29659,54922,5
29668,54914,5
29657,54904,5
29657,54910,5
29648,54901,4
29654,54901,5
29652,54894,5
29654,54893,5
29653,54891,4
29651,54882,4
29645,54902,5
29645,54895,6
29638,54891,4
29653,54890,4
29635,54896,5
29645,54891,5
29640,54886,5
29646,54879,5
29640,54885,4
29645,54886,5
29646,54881,5
29641,54874,5
29638,54871,5
29643,54872,4
29634,54856,5
29629,54860,5
29627,54857,5
29638,54867,5
29634,54861,4
29626,54856,5
29630,54858,5
29626,54857,5
29633,54858,5
29631,54850,4
29623,54851,5
29630,54859,5
29624,54845,6
29615,54849,3
29626,54854,5
29625,54846,5
29628,54848,5
29630,54849,5
29591,54844,4
29624,54850,5
29623,54849,5
29625,54838,5
29577,54840,5
29622,54836,4
29625,54844,5
29625,54837,5
29585,54835,5
29620,54835,5
29624,54835,4
29613,54837,5
29636,54837,5
29619,54834,5
29614,54823,5
29612,54824,5
29665,54826,4
29610,54816,5
29606,54817,5
29606,54810,6
29639,54795,3
29592,54795,5
29593,54787,5
29596,54778,5
29597,54773,4
29594,54776,5
29596,54775,5
29588,54776,5
29582,54747,5
29585,54761,4
29584,54763,5
29582,54760,5
29581,54722,5
29579,54749,5
29577,54754,4
29577,54753,5
29578,54694,5
29574,54750,5
29572,54748,5
29566,54739,4
29570,54750,6
29582,54748,4
29573,54750,5
29569,54753,4
29570,54790,4
29581,54753,5
29574,54752,5
29567,54758,5
29574,54804,4
29574,54745,5
29574,54753,5
29578,54747,5
29578,54776,5
29573,54743,4
29569,54741,5
29572,54731,5
29558,54736,5
29559,54719,5
29558,54719,4
29544,54714,5
29552,54711,5
29550,54696,5
29546,54708,5
29549,54701,4
29548,54705,5
29556,54702,6
29550,54700,4
29541,54705,5
29542,54698,4
29545,54700,5
29546,54698,5
29543,54701,5
29549,54698,4
29551,54705,5
29546,54707,5
29557,54702,5
29557,54717,5
29550,54718,4
29548,54707,5
29550,54708,5
29551,54711,5
29555,54710,5
29565,54706,4
29541,54704,5
29553,54704,5
29547,54700,5
29551,54704,5
29545,54701,4
29538,54711,5
29543,54708,5
29547,54706,6
29555,54706,4
29552,54710,4
29543,54704,5
29546,54693,5
29537,54700,5
29546,54697,4
29538,54684,4
29543,54696,5
29541,54697,5
29541,54692,5
29541,54698,4
29549,54696,5
29546,54700,5
29541,54692,5
29542,54688,5
29533,54705,4
29538,54701,5
29545,54699,5
29545,54698,5
29536,54700,5
29545,54693,5
29546,54695,4
29540,54699,5
29542,54702,5
29546,54696,6
29545,54693,3
29541,54697,5
29537,54686,5
29543,54691,5
29541,54680,5
29539,54680,4
29542,54684,5
29535,54688,5
29532,54681,5
29540,54676,4
29530,54680,5
29529,54678,5
29535,54676,5
29536,54671,5
29538,54671,4
29525,54673,5
29534,54672,5
29526,54675,5
29531,54672,5
29524,54667,4
29524,54666,6
29500,54660,4
29527,54661,5
29521,54673,5
29524,54671,4
29476,54666,5
29529,54663,5
29523,54662,5
29526,54669,5
29485,54665,4
29522,54665,5
29526,54658,5
29522,54663,5
29543,54666,4
29517,54662,4
29523,54658,5
29517,54653,5
29563,54652,5
29515,54651,4
29516,54633,5
29503,54633,5
29552,54629,5
29503,54629,5
29496,54633,4
29507,54635,5
29531,54639,6
29512,54641,4
29503,54627,5
29503,54635,4
29508,54614,5
29505,54629,5
29502,54627,5
29508,54620,5
29507,54585,4
29504,54638,5
29505,54634,5
29508,54628,5
29508,54584,5
29510,54636,5
29497,54636,4
29513,54637,5
29508,54638,5
29510,54639,4
29507,54630,4
29504,54639,5
29506,54686,5
29512,54645,5
29518,54636,4
29512,54635,5
29515,54703,5
29517,54646,6
29517,54648,4
29524,54661,4
29527,54689,5
29517,54675,5
29528,54674,5
29528,54681,5
29529,54686,4
29538,54682,5
29526,54697,5
29543,54705,5
29539,54704,5
29551,54702,4
29549,54708,5
29553,54714,5
29555,54725,5
29562,54727,4
29567,54741,4
29562,54743,5
29564,54743,5
29563,54752,5
29569,54758,5
29575,54766,4
29583,54773,5
29585,54776,7
29578,54781,3
29591,54782,4
29589,54796,5
29614,54803,5
29603,54798,5
29594,54812,5
29602,54812,4
29602,54816,5
29599,54819,5
29614,54827,5
29610,54839,5
29619,54835,4
29618,54846,5
29626,54851,5
29623,54858,5
29616,54860,5
29625,54856,4
29628,54877,5
29634,54875,5
29634,54884,5
29648,54886,4
29648,54891,5
29652,54889,4
29652,54897,5
29650,54906,5
29650,54904,4
29653,54906,5
29657,54913,5
29658,54920,5
29659,54926,5
29652,54918,4
29661,54932,5
29659,54923,5
29666,54931,5
29670,54945,5
29664,54934,4
29667,54935,5
29664,54943,5
29669,54931,5
29672,54935,5
29667,54937,4
29666,54934,5
29670,54943,5
29669,54947,5
29675,54941,4
29663,54936,4
29672,54945,6
29681,54953,4
29675,54951,5
29677,54957,4
29675,54952,5
29668,54950,5
29678,54953,5
29677,54951,5
29676,54951,4
29679,54952,5
29680,54950,5
29667,54940,5
29670,54952,5
29681,54953,4
29669,54945,5
29681,54954,5
29669,54957,5
29651,54961,5
29672,54962,4
29675,54952,5
29675,54949,5
29627,54962,5
29675,54952,5
29685,54961,4
29682,54961,5
29646,54957,5
29684,54978,5
29685,54981,4
29685,54969,4
29713,54971,5
29682,54972,5
29682,54966,5
29697,54988,4
29739,54970,5
29687,54968,5
29685,54973,5
29682,54967,5
29735,54975,4
29688,54972,5
29690,54977,5
29686,54966,5
29691,54966,5
29689,54969,5
29690,54968,4
29685,54966,5
29683,54955,5
29694,54976,6
29685,54972,3
29685,54977,5
29689,54941,5
29688,54976,5
29692,54980,4
29700,54978,4
29690,54933,5
29692,54979,5
29688,54980,5
29698,54982,4
29690,54986,5
29694,54986,5
29691,54984,5
29691,54984,5
29693,55036,4
29687,54979,5
29704,54980,5
29696,54977,5
29691,55042,5
29700,54983,4
29689,54988,6
29696,54984,4
29693,55002,5
29700,54986,5
29687,54978,6
29694,54978,3
29695,54984,5
29705,54984,5
29692,54990,5
29702,54986,4
29697,54992,5
29702,54990,5
29702,54990,5
29696,54985,4
29696,54998,4
29703,54983,5
29701,54987,5
29694,54993,5
29697,54991,4
29701,54997,5
29695,54982,5
29695,54983,5
29706,54987,5
29698,54983,4
29698,54985,5
29693,54987,6
29701,54990,4
29705,54996,5
29705,54996,4
29708,54995,5
29700,55000,5
29703,54992,5
29698,54989,5
29697,54989,4
29695,54986,5
29699,54987,5
29698,54986,5
29700,54983,5
29687,54985,4
29687,54990,5
29692,54983,5
29700,54982,5
29700,54984,4
29685,54977,5
29694,54981,5
29696,54974,5
29689,54974,5
29693,54988,4
29698,54984,5
29698,54974,5
29693,54976,6
29690,54986,4
29701,54980,4
29692,54981,5
29692,54986,5
29690,54983,5
29701,54987,5
29697,54985,4
29687,54979,5
29697,54984,5
29690,54980,5
29693,54977,5
29689,54980,4
29689,54980,5
29686,54992,5
29694,54983,5
29691,54993,4
29695,54981,4
29695,54985,5
29697,54983,5
29695,54981,5
29696,54985,5
29694,54976,4
29694,54983,5
29694,54987,5
29699,54982,6
29693,54984,3
29696,54980,5
29693,54986,5
29690,54987,5
29692,54980,5
29695,54984,4
29698,54987,5
29695,54979,5
29693,54984,5
29695,54992,5
29696,54987,4
29672,54991,5
29702,54990,5
29696,54991,5
29699,54988,4
29651,54988,4
29699,54993,5
29696,54996,5
29695,54997,5
29665,54993,4
29694,54996,6
29699,54990,4
29698,54991,5
29722,54990,5
29699,54985,6
29703,54990,3
29696,54990,5
29752,54989,5
29696,54993,5
29694,54994,4
29698,54999,5
29739,54996,5
29703,54988,5
29698,54996,5
29703,54999,4
29712,54988,5
29703,54988,5
29703,54995,5
29697,54986,5
29704,54980,4
29701,54998,5
29703,54995,5
29711,54994,5
29703,54961,4
29699,54995,4
29705,54999,6
29706,54997,4
29702,54951,5
29702,54999,5
29709,54993,4
29707,54999,5
29698,55003,5
29705,54998,5
29705,54996,4
29701,55004,5
29706,55046,5
29700,54995,5
29699,54991,5
29701,54987,4
29703,55055,5
29706,54994,5
29708,55002,5
29703,55007,5
29705,55030,4
29699,54993,5
29709,55003,5
29698,54997,5
29700,55005,5
29710,54998,4
29708,55001,5
29705,54995,7
29700,54995,3
29706,54994,4
29705,54998,5
29698,54996,5
29696,54996,5
29699,55003,5
29703,54997,4
29700,54993,5
29695,54992,5
29699,54994,5
29693,54981,5
29692,54983,4
29695,54986,5
29690,54985,5
29697,54981,5
29691,54980,5
29685,54982,4
29688,54980,5
29692,54981,5
29686,54985,5
29689,54979,5
29696,54973,4
29689,54978,5
29686,54979,5
29700,54982,6
29691,54973,3
29695,54979,4
29696,54984,5
29695,54983,5
29694,54984,5
29692,54982,4
29689,54985,5
29695,54978,5
29696,54979,5
29695,54976,5
29690,54976,4
29687,54970,5
29689,54965,5
29684,54963,5
29687,54967,5
29679,54962,4
29689,54964,5
29683,54954,5
29680,54961,5
29683,54957,5
29680,54947,5
29675,54957,4
29677,54958,5
29680,54958,5
29681,54943,5
29678,54953,4
29678,54956,5
29672,54954,5
29683,54954,5
29674,54958,4
29687,54955,4
29676,54961,5
29688,54953,5
29672,54960,5
29682,54950,4
29681,54951,5
29678,54964,5
29682,54955,5
29680,54949,5
29685,54955,4
29683,54955,5
29682,54963,5
29680,54961,5
29680,54956,5
29680,54960,4
29680,54963,6
29688,54963,4
29678,54951,5
29673,54956,5
29677,54958,4
29687,54953,5
29685,54955,5
29645,54960,5
29691,54962,4
29682,54958,4
29688,54963,5
29639,54968,5
29681,54960,5
29686,54959,4
29683,54963,5
29657,54964,5
29690,54964,5
29689,54966,5
29689,54969,4
29721,54971,5
29686,54973,5
29686,54966,5
29695,54969,5
29742,54969,4
29689,54967,5
29689,54971,6
29683,54978,4
29714,54967,5
29686,54974,4
29682,54975,5
29684,54964,5
29696,54965,5
29692,54975,5
29683,54976,4
29690,54981,5
29696,54944,5
29688,54982,5
29687,54977,4
29685,54966,4
29686,54920,5
29694,54973,5
29690,54967,5
29680,54968,4
29683,54912,5
29681,54961,5
29682,54958,5
29675,54954,5
29686,54970,4
29682,54953,5
29686,54967,5
29681,54958,5
29684,55010,5
29673,54966,4
29678,54960,5
29683,54953,5
29679,55003,5
29686,54958,5
29680,54956,4
29677,54957,5
29680,54972,5
29678,54959,5
29689,54961,4
29678,54947,4
29670,54957,5
29679,54948,5
29680,54948,5
29681,54949,4
29671,54953,5
29679,54951,5
29681,54947,5
29684,54944,5
29677,54951,5
29683,54956,4
29676,54949,5
29681,54951,5
29674,54962,5
29675,54958,4
29684,54957,5
29681,54957,5
29676,54958,5
29678,54950,5
29680,54956,4
29690,54951,5
29683,54953,5
29678,54962,5
29675,54955,5
29682,54958,4
29681,54948,5
29675,54955,5
29674,54953,5
29674,54952,4
29676,54949,4
29685,54957,5
29679,54946,5
29678,54948,5
29683,54960,4
29681,54958,6
29676,54944,4
29679,54957,5
29679,54961,5
29682,54947,4
29679,54952,5
29677,54952,5
29677,54959,5
29679,54951,5
29678,54956,4
29682,54954,5
29674,54953,5
29672,54951,5
29676,54946,5
29680,54953,4
29677,54953,5
29673,54949,5
29675,54946,5
29673,54948,5
29676,54948,4
29677,54951,5
29670,54941,5
29669,54943,4
29676,54941,4
29673,54944,5
29667,54937,5
29668,54942,5
29677,54947,5
29672,54939,4
29668,54938,5
29677,54941,5
29668,54941,5
29674,54936,5
29672,54931,4
29677,54932,5
29665,54936,5
29669,54940,5
29669,54942,5
29669,54936,4
29672,54942,5
29668,54942,5
29673,54948,5
29663,54946,5
29672,54934,4
29668,54937,5
29666,54936,5
29666,54931,6
29657,54928,3
29629,54930,4
29676,54932,5
29665,54939,5
29665,54929,5
29620,54929,4
29666,54925,5
29665,54924,5
29666,54924,5
29643,54925,5
29667,54919,4
29663,54926,5
29659,54922,5
29701,54914,5
29663,54921,5
29654,54919,4
29662,54917,5
29711,54918,5
29654,54923,5
29652,54914,5
29654,54910,5
29692,54913,4
29663,54911,5
29646,54910,5
29661,54908,6
29654,54899,3
29655,54904,5
29654,54911,5
29650,54903,5
29647,54881,4
29653,54901,4
29646,54890,5
29652,54895,5
29645,54844,5
29641,54887,5
29636,54880,4
29634,54880,5
29630,54834,5
29642,54881,5
29640,54878,4
29636,54874,5
29641,54897,5
29636,54879,5
29641,54881,5
29639,54882,4
29632,54930,6
29637,54879,4
29643,54885,5
29643,54885,5
29641,54928,6
29638,54870,3
29638,54880,5
29647,54875,5
29639,54891,4
29639,54873,4
29639,54879,5
29636,54877,5
29640,54880,5
29631,54871,4
29639,54875,5
29638,54874,5
29631,54878,5
29639,54876,5
29644,54866,4
29630,54880,5
29637,54868,5
29641,54869,5
29633,54869,5
29635,54876,4
29637,54878,5
29633,54876,6
29642,54873,4
29639,54870,5
29643,54869,4
29637,54869,5
29637,54875,5
29640,54867,5
29635,54871,5
29634,54861,4
29632,54870,5
29635,54870,5
29630,54874,5
29632,54868,4
29630,54863,4
29638,54858,5
29636,54862,5
29629,54862,5
29635,54867,4
29636,54861,5
29632,54872,5
29637,54863,5
29637,54864,5
29634,54864,4
29637,54855,5
29634,54851,5
29626,54855,6
29624,54862,4
29629,54859,4
29631,54854,5
29635,54865,5
29622,54859,5
29628,54866,5
29638,54855,4
29624,54862,5
29629,54859,5
29624,54865,5
29638,54865,5
29628,54862,4
29635,54865,5
29636,54855,5
29634,54859,5
29632,54862,4
29636,54861,4
29632,54869,5
29636,54862,5
29632,54864,5
29628,54865,5
29641,54860,4
29631,54871,5
29632,54852,5
29633,54862,6
29633,54856,3
29638,54850,5
29624,54848,5
29627,54852,5
29624,54850,5
29622,54851,4
29615,54838,5
29618,54840,5
29618,54846,5
29618,54845,5
29624,54844,4
29616,54845,5
29619,54843,5
29609,54849,5
29613,54836,4
29620,54839,4
29620,54839,5
29578,54841,5
29623,54827,5
29610,54834,4
29616,54833,6
29575,54838,4
29615,54832,5
29614,54838,5
29612,54830,4
29611,54826,5
29615,54836,5
29615,54840,5
29610,54829,5
29651,54827,4
29613,54832,5
29611,54829,5
29618,54836,5
29674,54821,5
29614,54828,4
29619,54830,5
29616,54827,5
29645,54833,5
29623,54825,5
29619,54834,4
29618,54821,5
29617,54828,5
29616,54829,5
29615,54828,4
29616,54827,4
29617,54801,6
29615,54826,4
29614,54829,5
29605,54838,4
29609,54784,5
29617,54836,5
29615,54834,5
29614,54834,5
29611,54791,4
29618,54835,6
29608,54838,4
29620,54832,5
29612,54850,5
29618,54845,4
29611,54833,5
29627,54831,5
29610,54893,5
29620,54828,5
29613,54835,4
29620,54833,5
29617,54868,5
29608,54833,5
29621,54841,5
29623,54835,4
29615,54861,5
29616,54841,6
29617,54838,4
29621,54843,4
29627,54841,4
29618,54844,5
29621,54848,5
29625,54853,5
29629,54853,4
29617,54854,5
29622,54853,5
29627,54857,5
29631,54857,5
29626,54851,4
29628,54858,5
29626,54852,5
29622,54858,5
29620,54852,5
29628,54857,4
29623,54862,5
29637,54853,5
29632,54860,5
29640,54864,5
29632,54870,4
29631,54871,5
29639,54866,5
29636,54876,5
29634,54866,5
29634,54879,4
29634,54884,5
29645,54885,5
29641,54883,5
29649,54897,4
29648,54887,4
29643,54887,5
29642,54888,5
29649,54892,5
29650,54894,4
29643,54881,5
29644,54882,5
29640,54881,5
29639,54889,5
29643,54891,4
29637,54890,5
29644,54885,5
29644,54888,5
29637,54889,5
29640,54891,5
29641,54883,4
29641,54889,5
29640,54887,5
29643,54884,5
29641,54896,4
29645,54893,5
29647,54890,5
29643,54888,5
29639,54886,5
29644,54901,4
29649,54898,5
29647,54892,5
29649,54896,5
29653,54892,4
29647,54897,5
29653,54902,5
29657,54899,5
29659,54910,5
29653,54918,4
29656,54904,5
29651,54914,5
29655,54914,5
29656,54920,5
29665,54920,4
29659,54915,6
29661,54925,4
29656,54918,5
29655,54921,5
29655,54920,4
29661,54933,5
29665,54935,5
29660,54926,5
29670,54932,5
29653,54934,4
29675,54928,5
29671,54940,5
29666,54937,5
29630,54939,4
29677,54937,4
29677,54947,5
29680,54948,5
29626,54948,5
29675,54943,4
29674,54947,5
29682,54958,5
29679,54950,5
29671,54957,5
29677,54954,4
29676,54958,5
29715,54954,6
29682,54945,4
29686,54959,5
29682,54958,4
29736,54958,5
29682,54959,5
29685,54957,5
29691,54966,5
29705,54954,4
29686,54967,5
29685,54957,5
29682,54959,5
29686,54949,5
29680,54965,4
29679,54954,5
29677,54953,5
29677,54914,5
29682,54950,5
29672,54950,4
29680,54955,5
29677,54902,5
29686,54952,6
29687,54961,3
29674,54953,5
29682,54915,5
29675,54950,5
29680,54950,5
29686,54953,4
29672,54978,5
29687,54954,5
29681,54958,5
29675,54964,5
29683,55016,4
29676,54967,5
29678,54968,5
29680,54954,5
29686,55001,5
29683,54965,4
29685,54968,5
29695,54968,5
29694,54989,5
29684,54986,5
29702,54981,4
29702,54983,4
29702,54990,5
29696,54991,5
29699,54987,6
29693,54990,3
29701,54985,5
29693,55001,5
29706,54987,5
29704,54992,4
29699,54990,5
29696,55006,5
29705,55003,5
29700,54997,5
29699,55008,4
29703,55004,5
29706,55015,5
29713,55017,5
29723,55025,5
29712,55016,4
29719,55027,5
29712,55020,5
29717,55026,5
29717,55023,5
29708,55013,4
29719,55021,6
29722,55009,4
29714,55014,5
29710,55012,4
29703,55013,6
29709,55004,3
29718,55013,5
29708,55010,7
29712,55009,2
29709,55008,5
29713,55005,5
29721,55006,5
29702,55008,5
29703,55008,4
29707,55007,5
29701,55001,5
29700,55003,5
29702,55000,5
29702,55010,4
29712,55012,5
29707,55004,5
29701,54999,5
29712,55007,5
29704,55007,4
29704,55006,5
29705,55000,6
29709,54999,4
29697,55005,5
29709,55004,4
29704,55004,5
29700,55009,5
29714,55009,5
29708,55008,4
29708,55013,4
29704,55008,5
29705,55020,5
29716,55008,5
29711,55010,4
29709,55007,5
29709,55006,5
29701,55009,5
29712,55019,5
29711,55011,4
29712,55007,5
29715,55013,5
29705,55017,5
29707,55022,5
29716,55021,4
29711,55024,5
29711,55028,5
29718,55018,6
29713,55017,4
29722,55024,4
29719,55015,5
29695,55017,5
29715,55020,5
29714,55020,5
29711,55020,4
29670,55022,5
29712,55025,5
29715,55023,5
29718,55026,4
29670,55026,4
29711,55023,5
29720,55021,5
29717,55023,5
29720,55021,4
29717,55035,5
29715,55018,5
29723,55018,5
29761,55027,5
29719,55037,5
29718,55032,4
29721,55029,5
29778,55034,5
29718,55036,6
29713,55036,3
29718,55031,5
29751,55035,5
29732,55028,5
29718,55033,5
29726,55026,4
29730,55031,5
29722,55031,5
29723,55030,5
29723,55025,4
29725,55003,4
29722,55028,5
29721,55022,5
29716,55020,5
29711,54980,4
29716,55019,5
29714,55026,5
29716,55026,5
29722,54990,5
29722,55028,5
29707,55013,5
29719,55025,4
29709,55035,5
29719,55007,5
29711,55018,4
29706,55014,5
29716,55076,5
29719,55019,5
29707,55017,5
29714,55002,4
29704,55048,5
29711,55001,5
29698,54994,5
29706,54990,5
29700,55001,4
29701,54995,5
29698,54991,5
29698,54983,5
29697,54987,4
29700,54991,4
29694,54991,5
29695,54997,5
29698,55001,5
29704,54995,4
29706,54996,5
29706,54999,6
29711,54997,4
29709,55010,5
29700,55004,4
29702,55004,5
29705,55007,5
29707,55007,5
29706,55006,5
29708,55014,4
29699,55005,5
29709,55013,5
29709,55016,5
29710,55016,5
29703,55015,4
29707,55015,5
29709,55016,5
29708,55018,5
29708,55017,5
29713,55018,4
29719,55014,5
29721,55017,5
29707,55029,5
29706,55009,4
29719,55019,5
29716,55021,5
29712,55020,6
29719,55018,4
29715,55024,4
29717,55021,5
29705,55019,5
29705,55012,5
29708,55019,5
29710,55025,4
29717,55022,5
29709,55012,5
29723,55016,5
29716,55016,5
29703,55016,4
29723,55014,5
29712,55018,5
29717,55017,5
29707,55008,5
29714,55005,4
29714,55020,5
29708,55018,5
29718,55011,5
29706,55011,5
29711,55025,4
29719,55020,5
29717,55021,5
29714,55019,6
29716,55018,3
29720,55027,5
29722,55026,5
29705,55022,5
29715,55017,5
29722,55028,4
29710,55019,5
29725,55025,5
29726,55025,5
29724,55025,5
29722,55027,4
29715,55021,5
29713,55019,5
29713,55021,5
29717,55025,5
29720,55019,4
29724,55031,5
29723,55026,5
29726,55027,5
29704,55037,5
29723,55024,5
29724,55031,4
29721,55030,5
29680,55035,5
29725,55025,4
29720,55029,5
29720,55028,5
29683,55026,5
29725,55031,5
29725,55019,4
29720,55025,5
29724,55034,5
29718,55030,5
29713,55030,5
29716,55024,4
29761,55026,5
29725,55028,5
29723,55032,5
29715,55028,5
29771,55028,4
29719,55035,5
29727,55039,5
29729,55031,5
29742,55038,5
29721,55036,4
29716,55037,6
29716,55036,4
29729,55027,5
29723,55036,4
29723,55029,4
29728,55027,5
29718,54990,5
29717,55035,5
29717,55024,4
29719,55034,5
29725,54987,5
29727,55030,5
29715,55031,5
29722,55018,4
29717,54999,5
29723,55029,5
29726,55017,5
29719,55013,5
29720,55042,4
29703,55012,5
29708,55010,5
29712,55014,5
29715,55064,5
29711,55011,4
29715,55015,5
29713,55019,6
29719,55057,4
29715,55024,5
29725,55017,4
29714,55025,5
29717,55028,5
29720,55018,5
29719,55026,4
29709,55022,4
29712,55028,5
29718,55024,5
29716,55024,5
29712,55027,4
29720,55028,5
29726,55033,5
29712,55025,5
29721,55028,5
29715,55029,4
29719,55016,5
29711,55018,5
29713,55015,5
29721,55018,5
29715,55016,4
29707,55013,5
29710,55012,5
29711,55016,5
29722,55012,5
29717,55017,4
29716,55020,5
29716,55011,5
29709,55018,5
29712,55016,4
29709,55012,4
29709,55013,5
29712,55016,5
29713,55016,5
29717,55021,4
29717,55021,5
29714,55033,5
29707,55022,5
29714,55016,5
29718,55019,4
29711,55009,5
29714,55009,5
29717,55018,5
29715,55015,5
29715,55007,5
29713,55004,4
29714,55016,5
29710,55011,5
29708,55012,5
29708,55009,4
29715,55019,5
29712,55021,5
29716,55020,5
29714,55017,5
29718,55012,4
29720,55021,5
29712,55016,5
29708,55019,5
29713,55018,4
29719,55023,5
29714,55019,5
29706,55013,5
29713,55013,5
29718,55021,4
29715,55024,5
29713,55021,5
29723,55027,5
29712,55022,5
29719,55017,4
29719,55011,6
29720,55025,4
29724,55025,5
29724,55016,5
29720,55022,4
29725,55019,5
29716,55021,5
29719,55029,5
29711,55020,5
29716,55024,4
29723,55028,5
29717,55022,5
29719,55027,5
29720,55028,4
29723,55021,4
29702,55034,5
29712,55030,5
29716,55022,5
29716,55030,4
29683,55035,5
29721,55030,5
29727,55030,5
29725,55023,4
29674,55034,4
29728,55021,5
29721,55024,5
29727,55032,5
29728,55037,5
29731,55040,4
29727,55040,5
29724,55037,5
29771,55040,5
29728,55039,5
29732,55043,4
29724,55039,5
29775,55034,5
29720,55020,5
29713,55031,5
29713,55017,4
29736,55029,5
29723,55030,5
29722,55027,5
29721,55030,5
29716,55026,4
29714,55029,5
29718,55028,5
29719,55023,6
29713,54988,3
29719,55024,5
29721,55018,5
29712,55030,5
29717,54981,5
29718,55028,5
29714,55028,4
29720,55019,5
29723,55007,5
29721,55019,5
29713,55022,4
29715,55025,5
29715,55049,5
29721,55026,5
29721,55024,5
29719,55023,4
29709,55092,5
29718,55029,5
29712,55031,5
29721,55026,5
29721,55055,5
29716,55028,4
29725,55027,5
29718,55018,5
29723,55032,6
29712,55016,3
29714,55029,5
29709,55022,5
29719,55025,5
29713,55031,4
29722,55027,5
29714,55015,5
29717,55019,5
29717,55021,5
29711,55014,4
29720,55024,5
29716,55022,5
29723,55022,5
29714,55017,5
29717,55020,4
29725,55025,5
29716,55028,5
29722,55027,5
29718,55031,5
29719,55031,4
29714,55028,6
29717,55032,4
29728,55028,5
29718,55041,4
29717,55032,6
29720,55025,3
29729,55027,5
29728,55028,5
29728,55029,4
29720,55037,5
29722,55030,5
29716,55033,5
29720,55029,5
29717,55033,4
29722,55031,5
29718,55026,5
29711,55021,5
29722,55031,5
29721,55030,4
29723,55031,5
29719,55021,5
29723,55032,5
29722,55021,5
29725,55026,4
29723,55029,5
29731,55026,6
29723,55029,4
29721,55025,5
29724,55027,4
29714,55020,5
29716,55027,5
29722,55026,5
29727,55024,4
29726,55021,4
29710,55019,5
29721,55026,5
29723,55023,5
29720,55025,4
29723,55023,5
29712,55029,5
29711,55036,5
29727,55018,5
29717,55026,4
29717,55029,5
29721,55024,5
29717,55027,5
29722,55017,5
29723,55028,4
29713,55027,5
29716,55026,5
29721,55033,6
29723,55034,4
29728,55036,4
29732,55035,5
29725,55041,5
29722,55041,5
29729,55046,5
29727,55045,4
29731,55048,5
29738,55048,5
29710,55042,5
29729,55033,4
29721,55030,5
29720,55032,5
29682,55035,5
29721,55043,5
29723,55023,4
29721,55027,5
29681,55030,5
29720,55031,5
29714,55032,5
29722,55030,5
29728,55024,4
29710,55034,5
29719,55024,5
29721,55023,6
29760,55026,3
29719,55020,5
29718,55025,5
29711,55018,5
29766,55019,5
29725,55024,4
29718,55023,5
29716,55014,5
29739,55026,5
29714,55021,4
29716,55019,4
29718,55022,5
29716,55006,5
29712,55015,5
29718,55019,4
29719,55024,5
29714,54982,5
29718,55021,5
29721,55022,5
29722,55026,4
29719,54969,6
29718,55020,4
29721,55021,5
29720,55020,5
29710,55011,4
29728,55021,5
29723,55021,5
29719,55023,5
29724,55063,5
29719,55019,4
29717,55020,5
29716,55021,5
29711,55077,5
29716,55024,5
29722,55022,4
29722,55023,5
29712,55051,5
29713,55026,5
29720,55023,4
29720,55033,4
29716,55031,5
29717,55024,5
29716,55018,5
29721,55029,4
29718,55021,5
29716,55031,6
29716,55028,4
29722,55030,5
29713,55026,4
29722,55035,5
29711,55028,5
29727,55027,5
29729,55029,5
29717,55030,4
29723,55024,5
29724,55029,5
29722,55028,5
29717,55027,5
29722,55029,4
29732,55033,5
29719,55025,5
29726,55026,5
29725,55028,4
29721,55021,4
29723,55018,5
29720,55026,5
29719,55021,5
29712,55016,4
29719,55018,5
29716,55023,5
29713,55025,6
29721,55021,4
29721,55019,4
29729,55033,5
29718,55021,5
29713,55025,5
29716,55016,5
29730,55031,4
29717,55030,5
29712,55024,5
29719,55043,5
29717,55024,5
29717,55023,4
29719,55032,5
29717,55024,5
29727,55033,5
29713,55028,5
29715,55036,4
29727,55033,5
29722,55034,5
29726,55042,5
29725,55043,5
29729,55029,4
29727,55033,5
29731,55041,5
29724,55031,5
29720,55037,4
29722,55023,5
29719,55029,5
29721,55023,5
29719,55028,5
29723,55029,4
29725,55021,5
29715,55031,5
29718,55023,5
29717,55026,5
29721,55032,4
29720,55030,5
29719,55030,5
29719,55017,5
29720,55026,5
29719,55024,4
29725,55021,5
29724,55027,5
29718,55026,5
29720,55024,5
29716,55019,5
29723,55021,4
29726,55019,5
29715,55016,5
29721,55022,4
29690,55022,4
29713,55013,5
29718,55027,5
29720,55016,5
29673,55007,4
29714,55017,5
29711,55017,5
29724,55013,5
29661,55021,5
29714,55009,4
29706,55010,5
29719,55015,5
29726,55016,5
29711,55014,5
29706,55012,4
29721,55008,5
29761,55012,5
29718,55009,5
29710,55014,5
29713,55014,4
29752,55005,6
29714,55005,4
29714,55011,5
29716,55010,4
29722,55006,4
29717,55016,5
29717,55017,5
29716,55012,5
29706,54998,4
29711,55014,5
29713,55008,5
29710,55005,5
29715,54974,5
29714,55012,4
29710,55008,4
29702,54998,5
29710,54959,5
29710,55000,5
29703,55007,4
29705,55006,5
29704,54999,5
29722,54992,6
29706,55000,4
29707,54997,4
29704,55060,5
29710,55013,5
29714,55008,5
29710,55001,5
29709,55061,4
29710,55008,5
29713,55004,5
29709,55005,5
29713,55049,4
29708,55014,4
29715,55014,5
29710,55006,5
29711,55012,5
29709,55006,4
29709,55012,5
29711,54999,5
29707,55010,5
29708,55014,5
29704,54998,4
29701,55001,5
29712,55005,5
29709,55003,5
29703,54998,5
29703,55000,4
29706,54999,5
29709,55004,5
29706,55003,5
29709,55007,5
29707,55005,4
29713,55008,5
29710,55009,5
29702,55008,5
29713,55007,5
29707,55007,4
29714,55002,5
29699,54992,5
29708,55010,5
29709,54996,4
29711,55005,4
29714,54988,5
29699,55001,5
29708,55001,5
29707,55000,4
29711,54994,5
29705,54998,4
29705,54995,5
29702,54996,5
29700,54991,6
29705,55000,3
29702,55006,5
29704,54997,5
29701,55003,5
29707,54996,4
29695,54998,5
29699,54986,5
29704,54996,5
29699,54992,5
29706,54990,4
29700,54996,5
29706,54991,5
29704,54997,5
29706,54997,5
29703,54990,4
29700,55002,5
29697,54993,5
29700,54996,5
29707,54993,4
29703,54991,4
29698,54995,6
29703,54996,4
29703,54995,5
29707,54989,4
29709,55006,7
29707,55000,3
29704,54997,5
29709,54996,5
29707,54999,4
29706,55003,5
29712,55002,5
29702,55004,5
29709,55003,5
29701,54998,4
29712,55003,5
29713,55001,5
29706,55001,5
29708,55006,5
29706,55002,4
29708,54997,5
29707,54997,5
29700,55003,5
29706,54994,4
29704,55007,4
29710,55002,5
29682,55000,6
29712,55008,4
29713,55003,4
29706,54999,5
29664,55015,5
29712,55013,5
29713,55009,5
29705,55005,4
29664,55006,5
29703,55010,5
29711,55009,5
29710,55005,5
29719,55009,4
29710,55013,5
29718,55011,5
29720,55011,5
29772,55013,5
29710,55013,4
29714,55007,5
29709,55010,5
29762,55011,5
29712,55011,5
29714,55012,4
29716,55015,5
29733,55007,5
29710,55004,6
29707,55007,3
29716,55017,4
29714,55014,5
29706,55010,5
29713,55018,5
29715,55019,4
29717,54982,5
29719,55024,5
29707,55024,5
29710,55017,5
29722,54966,4
29721,55024,5
29719,55026,5
29713,55017,5
29718,55010,5
29714,55035,4
29716,55030,5
29722,55031,5
29722,55065,5
29718,55025,5
29719,55022,5
29716,55024,4
29715,55077,5
29710,55007,5
29717,55019,6
29705,55016,3
29708,55041,5
29714,55004,5
29711,55015,5
29706,55020,4
29706,55021,5
29710,55019,5
29715,55008,5
29712,55005,5
29716,55006,4
29714,55002,5
29706,55011,5
29715,55008,5
29712,55015,5
29710,55011,4
29719,55010,5
29710,55016,5
29712,55009,5
29713,55011,5
29714,55018,4
29708,55005,6
29709,55005,4
29707,55012,5
29709,55009,5
29703,55011,4
29710,55013,5
29712,55009,5
29711,55005,5
29706,55017,4
29705,55020,4
29717,55004,5
29717,55020,5
29716,55025,5
29713,55017,4
29711,55027,5
29723,55015,5
29714,55014,5
29712,55014,5
29710,55010,4
29710,55021,5
29713,55019,5
29713,55013,5
29712,55015,5
29716,55017,4
29719,55019,5
29707,55014,6
29712,55009,4
29712,55021,5
29715,55012,4
29715,55017,5
29717,55018,5
29715,55012,5
29717,55017,7
29717,55017,2
29718,55021,5
29712,55021,5
29712,55022,5
29718,55026,4
29724,55029,4
29718,55019,5
29710,55025,5
29718,55020,5
29719,55019,4
29722,55024,5
29717,55023,5
29717,55027,5
29722,55030,5
29719,55024,4
29724,55029,5
29723,55028,5
29728,55021,6
29716,55019,4
29717,55019,4
29721,55023,5
29719,55020,5
29708,55022,5
29714,55028,5
29726,55020,4
29719,55021,5
29718,55021,5
29718,55028,5
29718,55015,5
29718,55021,4
29712,55026,5
29723,55029,5
29716,55026,5
29702,55027,4
29720,55022,4
29721,55026,5
29714,55021,5
29675,55024,5
29719,55020,5
29720,55028,4
29719,55031,5
29672,55036,5
29714,55022,5
29718,55027,4
29719,55025,5
29729,55030,5
29724,55030,5
29720,55027,5
29719,55043,4
29772,55031,5
29725,55035,5
29715,55028,5
29733,55025,5
29775,55028,4
29711,55029,5
29713,55022,5
29717,55023,5
29739,55029,4
29721,55026,4
29720,55036,5
29723,55036,5
29730,55030,5
29734,55033,4
29726,55034,6
29730,55033,4
29722,54997,5
29719,55033,5
29736,55035,4
29725,55038,5
29718,54982,5
29710,55028,5
29725,55024,5
29718,55032,4
29719,55014,5
29718,55022,5
29717,55030,5
29721,55027,5
29723,55062,4
29724,55043,5
29723,55025,5
29719,55026,5
29717,55086,5
29723,55032,4
29714,55024,5
29717,55031,5
29721,55066,5
29711,55022,4
29724,55024,4
29720,55029,6
29712,55037,4
29716,55009,5
29715,55013,4
29719,55025,5
29710,55019,5
29719,55019,5
29715,55011,5
29715,55018,4
29719,55020,5
29713,55017,5
29718,55018,5
29719,55025,5
29720,55022,4
29714,55023,5
29711,55030,5
29713,55022,5
29721,55022,5
29713,55021,4
29710,55017,5
29712,55017,5
29718,55015,5
29712,55017,5
29714,55020,4
29718,55008,5
29718,55019,6
29706,55018,4
29719,55014,4
29710,55010,5
29715,55017,5
29709,55020,5
29708,55016,5
29708,55016,4
29710,55023,5
29715,55017,5
29720,55025,5
29723,55020,5
29724,55022,4
29717,55021,5
29709,55029,5
29725,55019,5
29714,55028,5
29721,55024,4
29719,55029,5
29715,55027,5
29719,55023,5
29715,55028,5
29725,55025,4
29716,55028,5
29722,55033,5
29727,55023,5
29729,55022,4
29723,55024,4
29717,55025,5
29720,55030,5
29723,55027,5
29716,55028,4
29720,55026,5
29727,55031,5
29728,55030,5
29716,55022,5
29717,55031,4
29725,55021,5
29711,55019,5
29717,55026,5
29723,55028,5
29720,55026,4
29716,55031,5
29715,55019,5
29725,55027,5
29725,55023,5
29728,55033,5
29716,55033,4
29726,55023,5
29721,55038,5
29716,55026,5
29722,55025,4
29719,55035,5
29725,55030,5
29721,55027,5
29721,55023,4
29718,55026,5
29702,55026,5
29717,55034,5
29726,55030,5
29718,55030,4
29683,55022,5
29720,55023,5
29716,55032,5
29725,55031,5
29669,55025,4
29724,55039,5
29717,55030,5
29725,55033,5
29727,55032,5
29728,55034,4
29728,55035,6
29726,55036,4
29773,55041,5
29725,55038,5
29721,55027,4
29732,55031,5
29778,55033,5
29726,55034,5
29729,55045,4
29732,55039,4
29751,55044,5
29718,55035,5
29738,55046,5
29722,55040,4
29725,55030,5
29723,55033,5
29727,55024,5
29716,55019,5
29715,54989,4
29725,55024,5
29721,55014,5
29722,55023,6
29717,54967,4
29720,55025,5
29714,55027,4
29715,55022,5
29715,55006,5
29716,55034,5
29718,55030,4
29720,55032,5
29725,55062,5
29720,55027,5
29725,55038,5
29719,55032,4
29722,55078,5
29717,55026,5
29726,55024,5
29718,55029,4
29713,55059,4
29721,55026,5
29718,55029,5
29720,55024,5
29713,55030,5
29719,55022,4
29723,55032,5
29715,55022,5
29717,55016,6
29717,55011,3
29719,55024,5
29713,55013,5
29719,55020,5
29722,55023,5
29714,55029,4
29711,55024,5
29713,55023,5
29711,55023,5
29713,55018,5
29717,55015,4
29708,55009,5
29711,55024,5
29721,55022,5
29709,55018,4
29707,55013,4
29718,55020,5
29721,55019,5
29717,55026,5
29717,55015,4
29720,55025,6
29710,55013,4
29715,55014,5
29717,55026,5
29714,55018,6
29709,55012,3
29714,55015,5
29716,55008,5
29715,55014,5
29717,55021,4
29718,55016,5
29721,55015,5
29714,55020,5
29721,55025,5
29705,55023,4
29708,55024,5
29719,55014,5
29720,55018,5
29718,55019,5
29716,55012,4
29707,55018,5
29708,55013,5
29713,55015,5
29719,55014,4
29709,55014,4
29705,55013,6
29708,55014,4
29710,55015,5
29706,55024,4
29708,55007,5
29699,55005,5
29714,55012,5
29721,55017,5
29708,55012,4
29716,55010,5
29713,55010,5
29717,55014,5
29716,55017,5
29714,55015,4
29712,55022,5
29714,55021,5
29713,55014,5
29716,55014,5
29713,55010,4
29707,55009,5
29716,55005,5
29710,55005,5
29721,55006,5
29704,55009,4
29714,55012,5
29704,55005,6
29707,55009,4
29711,55008,4
29711,55010,5
29700,55008,5
29705,55008,5
29675,55006,5
29714,55015,4
29707,55009,5
29714,55010,5
29662,55006,5
29709,54999,5
29700,54998,4
29701,54993,5
29657,54991,5
29694,54994,5
29702,54982,5
29693,54978,4
29710,54980,5
29700,54977,5
29705,54989,5
29697,54979,5
29752,54984,4
29692,54978,5
29693,54975,5
29696,54970,6
29741,54976,3
29702,54973,4
29696,54978,5
29690,54975,5
29706,54983,5
29695,54977,4
29692,54970,5
29695,54979,5
29692,54956,5
29693,54968,5
29679,54968,4
29693,54965,5
29690,54924,5
29696,54958,5
29686,54965,5
29689,54965,4
29683,54915,5
29686,54965,5
29682,54960,5
29686,54956,5
29687,54961,5
29687,54959,4
29680,54953,5
29678,54967,5
29685,54999,6
29683,54960,3
29685,54951,5
29677,54957,5
29681,55012,5
29693,54953,4
29688,54954,4
29675,54956,5
29685,54975,5
29682,54951,5
29675,54953,4
29681,54949,5
29674,54946,5
29684,54953,5
29681,54952,5
29670,54948,4
29684,54951,5
29682,54940,5
29686,54942,5
29671,54948,5
29679,54951,4
29675,54941,6
29674,54942,4
29671,54944,5
29675,54940,5
29671,54937,4
29677,54937,5
29676,54938,5
29673,54938,5
29667,54934,4
29664,54931,4
29669,54929,5
29674,54932,5
29668,54926,5
29673,54931,4
29666,54916,5
29663,54925,5
29666,54930,5
29671,54914,5
29668,54917,4
29658,54928,5
29666,54921,5
29667,54909,5
29662,54907,5
29652,54912,4
29656,54913,5
29658,54905,6
29654,54902,4
29648,54897,5
29648,54904,4
29657,54900,5
29649,54903,5
29655,54903,5
29664,54906,5
29655,54896,4
29645,54904,5
29652,54896,5
29654,54903,5
29650,54893,4
29652,54896,4
29649,54896,5
29651,54904,5
29655,54896,5
29658,54899,4
29658,54898,5
29660,54901,5
29655,54892,5
29652,54899,5
29641,54892,4
29641,54894,5
29642,54883,5
29640,54878,6
29637,54874,4
29631,54873,4
29638,54880,5
29640,54879,5
29642,54874,5
29629,54875,5
29635,54865,4
29639,54869,5
29630,54858,5
29628,54865,5
29636,54858,5
29626,54861,4
29629,54851,5
29629,54848,5
29632,54856,5
29626,54854,4
29632,54854,5
29623,54856,5
29618,54849,5
29624,54842,5
29621,54848,5
29589,54845,4
29628,54844,5
29619,54841,5
29621,54852,5
29571,54843,4
29625,54840,5
29621,54842,5
29629,54838,5
29590,54840,5
29627,54840,4
29617,54834,5
29624,54831,5
29640,54826,5
29619,54838,5
29620,54826,4
29614,54835,5
29672,54842,5
29622,54834,5
29623,54832,4
29621,54843,4
29665,54833,5
29612,54846,5
29621,54834,5
29622,54834,4
29629,54834,6
29619,54837,4
29613,54830,5
29621,54827,5
29615,54807,4
29616,54835,5
29620,54820,5
29618,54837,5
29615,54790,5
29615,54834,4
29617,54831,4
29616,54833,5
29615,54786,5
29614,54833,5
29611,54838,4
29617,54836,5
29609,54833,5
29612,54828,5
29619,54831,5
29616,54819,4
29617,54868,5
29608,54829,6
29612,54816,4
29605,54823,4
29613,54868,5
29606,54817,7
29610,54811,3
29618,54812,5
29623,54837,4
29613,54806,5
29608,54808,5
29612,54815,5
29610,54816,5
29613,54819,4
29611,54813,5
29607,54814,5
29613,54817,5
29612,54817,5
29607,54815,4
29610,54817,5
29610,54814,5
29609,54815,5
29612,54816,5
29599,54817,4
29607,54821,5
29606,54827,5
29608,54816,5
29607,54827,4
29607,54813,4
29611,54814,5
29612,54818,5
29613,54809,5
29615,54810,4
29600,54805,5
29595,54807,5
29595,54797,5
29596,54803,5
29598,54798,4
29596,54798,5
29588,54792,5
29602,54800,5
29599,54797,5
29598,54800,4
29603,54801,5
29599,54806,5
29603,54797,5
29590,54790,5
29604,54789,4
29598,54797,5
29596,54799,5
29605,54800,5
29592,54806,5
29600,54799,4
29593,54788,5
29595,54792,5
29594,54792,5
29594,54793,4
29592,54796,4
29594,54786,5
29595,54789,5
29597,54791,5
29590,54789,4
29598,54779,5
29593,54785,5
29592,54786,5
29587,54792,5
29596,54781,4
29596,54785,5
29595,54788,5
29593,54791,5
29593,54796,5
29590,54793,4
29594,54788,6
29594,54789,4
29596,54779,5
29591,54784,5
29586,54774,6
29596,54788,3
29591,54784,5
29590,54772,5
29589,54781,4
29592,54781,4
29590,54784,5
29589,54777,5
29592,54774,5
29589,54779,4
29590,54789,5
29592,54783,5
29590,54781,5
29582,54790,5
29592,54790,4
29592,54789,5
29589,54787,5
29555,54785,5
29586,54788,5
29589,54784,4
29592,54785,5
29534,54786,6
29593,54777,4
29592,54788,5
29587,54775,4
29566,54783,5
29584,54778,5
29582,54778,5
29594,54781,5
29618,54778,4
29588,54776,5
29580,54775,5
29593,54776,5
29648,54780,4
29589,54785,4
29589,54786,5
29590,54788,5
29625,54790,5
29588,54788,4
29590,54799,5
29592,54786,5
29605,54800,5
29596,54798,5
29593,54796,4
29595,54793,5
29594,54768,5
29609,54808,6
29604,54801,4
29602,54807,4
29608,54760,5
29597,54794,5
29606,54804,5
29601,54808,5
29601,54750,4
29610,54799,5
29593,54807,5
29600,54802,5
29603,54822,4
29598,54807,4
29599,54799,5
29604,54814,5
29602,54867,5
29614,54822,4
29610,54819,5
29604,54823,5
29615,54874,5
29618,54833,5
29623,54841,5
29616,54851,4
29627,54864,5
29624,54845,5
29624,54844,6
29633,54845,3
29622,54855,5
29625,54863,5
29635,54860,5
29625,54869,5
29629,54870,4
29635,54877,5
29632,54877,5
29638,54884,5
29640,54887,5
29649,54885,4
29656,54884,5
29645,54891,5
29650,54903,5
29653,54912,4
29658,54904,4
29659,54919,5
29665,54913,5
29662,54920,5
29675,54927,4
29673,54935,6
29669,54943,4
29666,54942,5
29672,54949,5
29677,54942,6
29681,54953,3
29680,54961,5
29678,54966,5
29686,54965,5
29692,54968,4
29694,54969,5
29690,54978,5
29695,54979,5
29695,54982,5
29688,54991,4
29686,54990,5
29700,54991,5
29700,54991,5
29694,54987,5
29704,54999,4
29703,54993,5
29699,55001,5
29707,55005,5
29704,55007,4
29705,55000,5
29714,55001,6
29703,55012,4
29708,55009,5
29713,55003,4
29712,55004,5
29714,55016,5
29708,55006,5
29703,55013,5
29706,55012,4
29709,55007,5
29709,55003,5
29712,55012,5
29712,55015,5
29712,55017,4
29714,55014,5
29711,55006,5
29700,55003,5
29710,55007,5
29710,55008,4
29705,55002,5
29707,55010,5
29714,55018,5
29714,55020,4
29707,55024,4
29711,55015,5
29716,55029,6
29709,55025,4
29723,55026,4
29714,55015,5
29718,55022,5
29718,55030,5
29718,55023,5
29712,55028,4
29703,55024,5
29713,55023,5
29720,55026,5
29719,55023,5
29684,55022,4
29723,55018,5
29704,55029,5
29715,55027,5
29670,55024,5
29721,55028,4
29719,55029,5
29717,55032,5
29712,55035,5
29726,55033,5
29728,55033,4
29719,55035,5
29768,55030,5
29728,55044,6
29720,55029,3
29718,55038,5
29773,55026,5
29716,55027,5
29719,55036,5
29721,55032,4
29747,55034,5
29722,55031,5
29711,55030,5
29719,55031,5
29716,55035,4
29721,55036,5
29718,55028,5
29719,55033,5
29720,54999,5
29720,55032,4
29724,55029,5
29715,55038,5
29716,54976,5
29715,55030,5
29718,55032,5
29714,55029,4
29720,54998,5
29716,55022,5
29717,55037,4
29719,55027,4
29715,55060,5
29715,55032,5
29717,55023,5
29721,55036,4
29726,55089,5
29720,55033,5
29722,55033,5
29721,55027,5
29716,55075,4
29722,55039,5
29720,55039,5
29726,55031,5
29717,55040,5
29716,55034,4
29721,55028,5
29718,55031,5
29720,55031,5
29719,55033,5
29722,55036,4
29729,55038,6
29723,55039,4
29720,55046,5
29724,55044,5
29723,55040,4
29729,55039,5
29723,55037,5
29720,55052,5
29725,55042,4
29725,55049,5
29735,55042,5
29723,55057,5
29727,55051,5
29731,55040,4
29724,55037,5
29731,55046,5
29728,55041,5
29723,55047,5
29728,55041,4
29733,55038,5
29728,55044,5
29724,55036,5
29729,55047,5
29730,55047,4
29729,55048,5
29728,55051,6
29729,55045,4
29732,55051,5
29727,55047,4
29734,55053,5
29725,55054,5
29742,55044,5
29732,55060,4
29735,55053,4
29729,55053,5
29738,55065,5
29737,55057,5
29736,55062,4
29735,55069,5
29727,55061,5
29734,55062,5
29744,55060,5
29734,55057,4
29730,55066,5
29736,55062,5
29733,55051,5
29733,55060,5
29729,55057,4
29739,55061,5
29734,55058,5
29738,55055,5
29731,55054,5
29736,55065,4
29726,55058,5
29730,55055,5
29738,55055,5
29733,55061,5
29734,55060,7
29735,55053,2
29736,55055,5
29727,55054,5
29713,55047,4
29723,55053,4
29732,55050,5
29730,55052,5
29723,55041,5
29733,55037,4
29724,55049,5
29728,55049,5
29728,55044,5
29726,55051,5
29726,55040,5
29731,55046,4
29730,55051,5
29708,55050,5
29732,55037,5
29730,55046,4
29722,55049,5
29684,55039,5
29722,55038,5
29724,55041,5
29724,55036,4
29669,55039,5
29724,55040,5
29722,55044,5
29723,55038,5
29720,55039,4
29722,55033,5
29723,55037,5
29725,55036,5
29761,55035,4
29721,55035,4
29732,55036,5
29723,55032,5
29775,55040,5
29712,55027,4
29714,55036,6
29719,55032,4
29744,55029,5
29716,55025,5
29723,55033,4
29719,55035,5
29722,55018,5
29718,55028,5
29724,55020,5
29710,55015,4
29712,54977,5
29716,55014,5
29705,55015,5
29711,55016,5
29712,54964,4
29709,55006,5
29697,55001,5
29700,54986,5
29697,54959,5
29700,54983,5
29697,55000,4
29700,54990,5
29701,55018,5
29694,54976,4
29687,54980,5
29686,54980,6
29692,55034,4
29691,54968,5
29683,54968,4
29682,54972,5
29680,55005,5
29684,54962,5
29679,54961,5
29681,54960,4
29687,54968,5
29684,54964,5
29687,54966,5
29685,54961,5
29684,54956,4
29683,54961,5
29680,54965,5
29671,54955,5
29684,54957,5
29680,54948,4
29673,54959,5
29680,54953,5
29675,54961,6
29677,54949,3
29679,54954,4
29675,54949,5
29686,54951,5
29682,54953,5
29671,54951,4
29672,54950,5
29681,54940,5
29679,54942,5
29671,54947,5
29678,54948,4
29680,54952,5
29675,54953,5
29674,54958,5
29683,54956,5
29678,54956,4
29684,54953,5
29686,54956,5
29680,54950,5
29679,54961,5
29683,54959,5
29685,54963,4
29678,54960,5
29688,54969,5
29687,54967,6
29685,54969,3
29688,54982,5
29684,54970,5
29679,54982,5
29694,54966,4
29696,54966,5
29684,54969,5
29690,54969,5
29694,54974,5
29683,54970,4
29680,54972,5
29680,54969,5
29697,54973,5
29693,54977,5
29690,54977,4
29687,54981,5
29690,54971,5
29691,54977,5
29692,54969,5
29688,54983,4
29690,54969,6
29692,54973,4
29686,54973,5
29694,54974,5
29696,54980,6
29692,54965,3
29695,54978,5
29691,54972,5
29691,54969,4
29694,54971,4
29690,54968,5
29691,54972,5
29683,54974,5
29676,54969,4
29694,54966,5
29681,54961,5
29682,54954,5
29684,54963,5
29677,54957,4
29680,54963,5
29683,54957,5
29683,54951,5
29682,54955,5
29656,54954,4
29677,54948,5
29679,54953,6
29673,54958,4
29640,54959,5
29673,54952,4
29683,54959,5
29680,54953,5
29630,54966,5
29679,54956,5
29679,54965,4
29680,54945,5
29672,54962,5
29677,54953,5
29679,54954,4
29673,54956,4
29721,54953,5
29673,54936,5
29675,54940,5
29678,54933,4
29716,54934,5
29676,54929,5
29661,54926,5
29659,54924,5
29685,54923,4
29663,54918,5
29660,54916,5
29664,54921,6
29660,54918,4
29669,54918,4
29655,54916,5
29661,54918,5
29666,54882,5
29662,54923,5
29654,54922,4
29670,54919,5
29662,54871,5
29663,54912,5
29658,54917,5
29658,54918,4
29658,54887,5
29661,54912,5
29659,54906,5
29656,54893,4
29650,54933,5
29648,54895,5
29645,54895,5
29645,54885,5
29647,54951,5
29644,54884,4
29649,54886,5
29645,54889,5
29644,54917,6
29638,54891,3
29634,54883,5
29640,54879,5
29641,54899,5
29635,54880,5
29641,54880,4
29639,54885,5
29638,54892,5
29642,54876,5
29647,54875,5
29634,54874,4
29642,54875,5
29636,54877,5
29635,54869,5
29637,54874,4
29630,54865,4
29630,54870,5
29632,54866,5
29636,54869,5
29634,54867,4
29629,54863,6
29629,54860,4
29626,54860,5
29629,54861,5
29629,54851,4
29632,54863,5
29636,54859,5
29620,54860,5
29633,54856,5
29624,54852,4
29620,54853,5
29632,54855,5
29623,54860,5
29618,54843,5
29625,54843,4
29617,54847,5
29622,54846,5
29615,54837,5
29621,54843,5
29624,54839,4
29625,54839,5
29622,54835,5
29624,54843,5
29631,54844,4
29621,54830,4
29617,54833,6
29616,54840,4
29616,54827,5
29618,54833,4
29619,54834,5
29619,54835,5
29618,54826,5
29618,54833,5
29622,54826,4
29612,54832,5
29618,54829,5
29617,54831,5
29612,54836,5
29613,54829,4
29623,54832,5
29617,54827,5
29610,54829,5
29617,54833,5
29606,54821,4
29613,54822,5
29616,54829,5
29618,54829,5
29610,54828,5
29604,54824,4
29608,54820,5
29605,54816,6
29612,54821,4
29603,54817,4
29615,54823,5
29617,54823,5
29610,54822,5
29607,54817,5
29609,54813,4
29608,54809,5
29602,54813,5
29609,54813,5
29611,54799,5
29608,54811,4
29605,54802,5
29581,54798,5
29594,54797,5
29594,54799,5
29601,54793,4
29548,54787,5
29595,54786,5
29589,54787,5
29584,54781,5
29541,54786,4
29588,54781,5
29584,54785,5
29598,54786,5
29597,54790,4
29591,54780,4
29600,54784,5
29591,54781,5
29637,54783,5
29592,54783,4
29589,54779,5
29580,54774,5
29640,54777,5
29581,54770,5
29582,54772,4
29580,54778,5
29609,54781,5
29582,54769,5
29579,54777,5
29585,54769,4
29587,54761,5
29578,54771,5
29579,54765,5
29585,54763,5
29582,54727,5
29590,54769,4
29578,54773,5
29585,54757,5
29577,54705,5
29579,54754,4
29574,54755,4
29571,54758,5
29575,54722,5
29575,54754,5
29571,54751,4
29568,54746,5
29566,54780,5
29574,54751,5
29569,54752,4
29567,54748,5
29572,54805,5
29565,54739,5
29563,54736,5
29569,54740,4
29561,54776,5
29567,54738,5
29564,54739,5
29563,54731,5
29560,54746,4
29558,54737,7
29567,54733,3
29563,54737,5
29565,54729,5
29561,54733,4
29566,54734,5
29560,54737,5
29559,54732,5
29562,54735,5
29559,54723,4
29557,54737,5
29564,54731,5
29561,54741,5
29557,54723,4
29564,54735,5
29559,54724,5
29567,54736,5
29561,54728,5
29564,54732,4
29565,54733,5
29570,54731,5
29569,54738,5
29564,54736,5
29568,54734,4
29572,54739,5
29560,54739,6
29562,54739,4
29564,54742,5
29570,54747,4
29570,54746,5
29571,54750,5
29572,54749,5
29570,54744,5
29573,54753,4
29571,54743,5
29565,54743,5
29570,54738,5
29566,54738,4
29567,54741,4
29561,54729,5
29569,54731,5
29568,54750,5
29557,54749,4
29565,54737,5
29568,54734,5
29561,54738,5
29581,54739,5
29557,54729,4
29567,54744,5
29564,54739,5
29566,54736,5
29560,54732,5
29556,54730,4
29557,54734,5
29557,54735,5
29556,54732,5
29557,54732,5
29554,54722,4
29555,54730,5
29570,54725,5
29555,54726,5
29554,54723,5
29563,54722,4
29563,54726,5
29552,54728,5
29564,54729,5
29563,54737,4
29565,54731,4
29566,54745,5
29562,54742,5
29570,54737,5
29565,54738,5
29575,54744,4
29569,54748,5
29562,54752,5
29572,54749,5
29565,54748,4
29575,54758,5
29579,54761,5
29579,54767,5
29569,54768,5
29579,54775,4
29589,54779,5
29589,54787,5
29555,54792,5
29596,54796,5
29599,54806,4
29604,54812,5
29551,54805,5
29607,54813,5
29614,54826,5
29613,54819,4
29608,54829,6
29615,54834,4
29618,54841,5
29623,54850,4
29661,54852,7
29622,54859,3
29631,54854,5
29629,54853,5
29682,54864,4
29632,54866,5
29639,54877,5
29647,54874,5
29662,54873,5
29642,54878,4
29654,54878,5
29641,54883,5
29652,54888,5
29649,54895,5
29643,54897,4
29641,54899,5
29653,54869,5
29647,54899,5
29657,54902,5
29658,54917,4
29654,54861,5
29660,54921,6
29662,54916,4
29662,54915,4
29669,54886,4
29656,54923,5
29660,54919,5
29660,54922,5
29667,54946,4
29656,54921,5
29658,54927,5
29664,54929,5
29670,54990,5
29674,54939,4
29679,54942,5
29663,54944,5
29677,54987,5
29676,54940,5
29675,54943,4
29675,54948,5
29668,54956,5
29673,54934,5
29662,54937,5
29662,54932,4
29664,54936,5
29665,54941,5
29670,54932,6
29663,54932,4
29659,54936,4
29666,54935,5
29666,54939,5
29662,54935,5
29660,54944,4
29666,54940,4
29671,54934,5
29670,54938,5
29666,54931,5
29664,54936,4
29666,54937,5
29670,54934,5
29667,54927,5
29665,54937,5
29668,54922,4
29667,54937,5
29669,54935,5
29661,54935,5
29673,54938,5
29661,54936,5
29660,54936,4
29665,54930,5
29663,54940,5
29668,54939,6
29658,54937,3
29670,54942,5
29661,54940,5
29675,54943,5
29668,54942,5
29671,54948,4
29671,54938,5
29663,54947,5
29666,54944,5
29668,54941,4
29672,54946,4
29673,54959,5
29670,54943,5
29669,54957,5
29667,54952,4
29672,54940,5
29670,54950,5
29667,54943,5
29672,54947,5
29669,54950,4
29675,54948,6
29672,54942,4
29664,54951,5
29664,54957,5
29668,54948,4
29678,54951,5
29662,54949,5
29671,54938,5
29661,54933,5
29676,54945,4
29665,54937,5
29667,54940,5
29675,54933,5
29665,54928,5
29668,54925,4
29668,54925,5
29660,54934,5
29657,54930,5
29664,54929,4
29663,54933,5
29663,54927,5
29655,54917,5
29656,54923,5
29643,54920,4
29656,54921,5
29655,54914,6
29653,54914,4
29649,54922,5
29662,54917,4
29638,54906,5
29651,54908,5
29655,54907,5
29654,54914,5
29613,54907,4
29653,54914,5
29654,54905,5
29653,54915,5
29601,54909,5
29647,54913,4
29652,54915,5
29649,54910,5
29648,54911,5
29649,54904,4
29651,54914,4
29662,54915,5
29699,54915,5
29658,54918,5
29651,54923,4
29658,54926,5
29725,54918,5
29654,54924,6
29664,54926,4
29669,54927,4
29682,54922,5
29662,54926,5
29655,54920,5
29650,54918,5
29656,54912,4
29656,54919,5
29649,54918,5
29657,54917,5
29650,54882,5
29656,54912,4
29658,54918,5
29649,54918,5
29650,54868,5
29659,54919,5
29659,54917,4
29650,54911,5
29656,54878,5
29652,54908,5
29650,54907,5
29637,54907,4
29643,54935,5
29655,54898,5
29650,54903,6
29651,54908,3
29651,54967,5
29648,54915,5
29646,54912,5
29651,54908,5
29642,54945,4
29655,54906,5
29661,54907,5
29656,54913,5
29648,54915,5
29643,54909,4
29645,54912,5
29646,54916,5
29648,54905,5
29653,54897,5
29652,54898,4
29650,54905,5
29649,54902,5
29644,54900,5
29646,54894,4
29643,54892,5
29650,54897,4
29637,54891,5
29642,54894,5
29639,54893,4
29634,54894,5
29647,54894,5
29643,54880,5
29641,54885,5
29638,54889,4
29638,54883,5
29644,54883,5
29637,54884,5
29641,54883,5
29639,54885,4
29631,54879,5
29640,54882,5
29635,54880,5
29636,54886,5
29636,54885,4
29637,54882,5
29635,54877,5
29643,54882,5
29629,54877,5
29636,54885,4
29634,54881,6
29635,54876,4
29642,54888,5
29632,54877,4
29637,54886,4
29629,54883,5
29639,54885,5
29637,54894,5
29640,54886,4
29642,54885,5
29633,54889,5
29636,54888,5
29639,54888,5
29641,54893,4
29643,54897,5
29639,54894,5
29639,54896,5
29650,54889,5
29644,54893,4
29637,54897,5
29647,54895,5
29642,54906,5
29645,54899,5
29644,54898,4
29642,54893,5
29643,54905,6
29642,54902,4
29652,54899,4
29647,54896,4
29646,54901,5
29655,54902,5
29649,54898,5
29635,54907,4
29639,54888,5
29650,54893,5
29642,54892,5
29646,54900,5
29637,54900,4
29645,54894,5
29642,54897,5
29643,54895,5
29641,54895,5
29645,54895,5
29637,54889,4
29646,54888,5
29628,54897,5
29642,54890,5
29640,54895,4
29641,54888,5
29599,54883,5
29646,54885,5
29631,54881,5
29638,54895,4
29589,54890,5
29638,54894,5
29635,54884,5
29635,54886,4
29644,54889,4
29640,54882,5
29645,54891,5
29649,54885,5
29680,54881,4
29637,54886,5
29643,54889,5
29638,54893,5
29699,54878,5
29642,54896,4
29636,54883,5
29631,54882,5
29661,54883,5
29635,54883,5
29635,54881,5
29643,54881,4
29636,54877,5
29636,54883,5
29629,54882,5
29630,54879,4
29635,54847,5
29633,54866,5
29631,54865,5
29628,54865,5
29626,54811,4
29628,54856,5
29629,54853,5
29623,54852,5
29619,54832,4
29614,54851,6
29610,54840,4
29612,54838,5
29616,54863,5
29615,54826,4
29614,54824,5
29608,54829,5
29611,54879,5
29599,54825,5
29602,54822,4
29607,54820,6
29606,54844,4
29603,54819,5
29593,54814,5
29591,54810,4
29596,54819,5
29591,54804,5
29591,54800,5
29584,54794,5
29596,54794,4
29587,54787,5
29587,54790,5
29583,54782,5
29584,54772,4
29590,54769,4
29581,54777,5
29580,54768,5
29573,54767,5
29568,54760,4
29573,54762,5
29576,54759,5
29572,54764,5
29566,54758,4
29557,54758,4
29573,54750,5
29571,54752,5
29569,54756,5
29571,54750,5
29562,54760,4
29565,54758,5
29564,54757,5
29568,54748,5
29565,54747,5
29565,54756,4
29573,54753,5
29566,54755,5
29571,54749,5
29566,54752,5
29562,54753,4
29567,54755,5
29567,54747,5
29561,54751,5
29569,54749,5
29567,54745,4
29561,54754,5
29564,54756,5
29562,54750,6
29564,54749,3
29562,54755,5
29566,54756,5
29572,54752,5
29560,54750,5
29567,54752,4
29561,54749,5
29564,54748,5
29559,54755,5
29574,54749,5
29572,54751,4
29574,54765,5
29573,54758,5
29577,54754,5
29571,54758,5
29572,54763,4
29566,54761,5
29576,54765,5
29577,54761,5
29580,54771,4
29572,54777,5
29589,54778,4
29578,54779,5
29584,54778,5
29592,54782,6
29588,54788,3
29582,54776,5
29590,54779,5
29587,54786,5
29578,54776,4
29589,54776,5
29584,54778,5
29586,54772,5
29585,54781,5
29580,54769,4
29587,54784,8
29588,54783,2
29579,54777,5
29577,54785,5
29565,54782,4
29588,54785,5
29578,54781,5
29584,54786,5
29546,54775,5
29586,54778,4
29586,54773,6
29580,54772,4
29528,54776,5
29586,54775,4
29576,54785,6
29578,54782,3
29587,54784,5
29590,54785,5
29586,54777,4
29589,54784,5
29624,54788,5
29592,54784,5
29587,54787,5
29589,54788,4
29642,54785,5
29590,54787,5
29585,54786,5
29592,54792,5
29617,54788,4
29589,54789,5
29591,54790,5
29588,54792,5
29597,54789,5
29578,54790,4
29594,54798,5
29593,54793,6
29590,54765,4
29591,54788,5
29595,54793,4
29593,54800,5
29587,54746,5
29595,54792,5
29598,54794,4
29594,54789,5
29593,54773,5
29598,54797,5
29596,54794,5
29589,54798,4
29602,54835,5
29588,54802,5
29599,54790,5
29592,54788,5
29585,54846,4
29587,54788,5
29586,54779,5
29583,54781,5
29581,54818,5
29582,54774,4
29578,54774,5
29585,54769,5
29581,54784,6
29571,54760,4
29571,54765,4
29572,54762,5
29576,54753,5
29565,54760,5
29567,54755,4
29563,54747,4
29566,54748,5
29566,54756,5
29563,54744,5
29562,54743,4
29562,54750,5
29569,54751,5
29567,54743,5
29561,54742,5
29556,54736,4
29557,54738,5
29558,54723,5
29560,54730,5
29549,54727,5
29548,54726,5
29548,54726,4
29543,54732,5
29551,54718,5
29541,54706,6
29550,54715,3
29549,54713,5
29541,54710,5
29543,54712,5
29540,54707,5
29536,54703,4
29532,54689,5
29541,54685,5
29531,54689,5
29525,54683,4
29529,54682,4
29538,54687,5
29519,54671,5
29522,54670,5
29527,54680,4
29526,54668,5
29515,54675,5
29520,54671,5
29517,54665,5
29516,54655,4
29528,54668,6
29517,54654,4
29514,54662,5
29510,54655,5
29511,54651,4
29520,54661,5
29519,54654,5
29513,54648,5
29505,54648,5
29506,54635,4
29506,54638,5
29502,54629,5
29504,54634,5
29501,54633,5
29497,54620,4
29494,54624,5
29498,54622,5
29500,54626,5
29502,54623,4
29498,54622,5
29503,54621,5
29508,54627,5
29495,54620,5
29497,54622,4
29499,54625,5
29501,54631,6
29503,54622,4
29501,54623,5
29499,54629,4
29505,54630,5
29508,54634,5
29500,54623,5
29505,54621,5
29496,54625,4
29493,54626,5
29476,54619,5
29499,54625,5
29500,54621,5
29495,54631,4
29450,54615,5
29493,54615,5
29494,54616,5
29492,54613,4
29445,54629,4
29496,54626,5
29495,54625,5
29496,54616,5
29505,54620,4
29503,54628,5
29501,54625,5
29503,54622,6
29538,54636,4
29496,54624,4
29508,54637,5
29506,54628,5
29556,54630,5
29504,54623,5
29501,54629,4
29497,54620,5
29517,54617,5
29495,54622,5
29496,54623,5
29499,54620,4
29502,54611,5
29495,54614,5
29497,54613,5
29492,54610,4
29493,54577,4
29488,54609,5
29497,54615,5
29484,54613,5
29499,54558,5
29491,54606,4
29483,54600,5
29496,54607,5
29489,54593,5
29495,54611,4
29490,54603,5
29490,54618,5
29489,54640,5
29477,54604,5
29486,54603,4
29490,54605,5
29495,54661,5
29482,54598,5
29489,54607,5
29489,54599,4
29487,54634,5
29487,54612,5
29491,54608,5
29489,54611,5
29495,54621,4
29489,54616,5
29498,54617,5
29496,54607,5
29492,54617,4
29497,54616,7
29495,54613,3
29495,54613,5
29497,54616,5
29498,54614,4
29487,54616,5
29499,54606,5
29494,54614,5
29496,54615,5
29493,54613,4
29495,54615,5
29491,54607,5
29494,54618,5
29490,54612,5
29496,54619,4
29499,54626,5
29501,54625,5
29498,54624,5
29499,54621,5
29496,54627,4
29494,54625,5
29494,54624,5
29501,54625,5
29502,54624,4
29504,54620,4
29499,54623,6
29497,54621,4
29495,54625,5
29494,54627,4
29494,54620,5
29502,54626,5
29499,54620,5
29503,54627,5
29491,54624,4
29499,54625,5
29495,54632,5
29500,54628,5
29510,54629,5
29507,54630,4
29499,54622,5
29502,54632,5
29500,54634,5
29499,54632,5
29499,54633,4
29502,54623,5
29498,54631,5
29504,54639,5
29496,54637,5
29504,54632,4
29509,54634,5
29504,54641,5
29505,54638,5
29507,54640,4
29503,54637,5
29504,54641,5
29513,54637,5
29505,54641,5
29513,54649,4
29509,54637,5
29513,54648,5
29508,54647,5
29516,54639,5
29512,54639,4
29510,54647,5
29512,54645,5
29511,54633,5
29503,54632,5
29503,54631,4
29501,54639,5
29502,54643,5
29502,54633,5
29501,54639,5
29508,54633,4
29504,54633,5
29505,54650,5
29504,54640,5
29476,54646,4
29508,54633,4
29504,54642,5
29508,54648,5
29453,54645,5
29506,54636,4
29506,54642,5
29503,54638,5
29478,54642,5
29500,54642,5
29505,54646,4
29507,54643,5
29529,54641,5
29511,54633,5
29509,54639,5
29512,54634,4
29559,54639,5
29503,54634,5
29510,54643,5
29509,54649,5
29547,54644,5
29503,54658,3
29505,54645,5
29515,54650,5
29524,54646,4
29512,54648,4
29522,54659,5
29514,54657,5
29515,54638,5
29520,54659,4
29523,54666,5
29520,54667,5
29532,54624,5
29527,54680,5
29528,54672,4
29534,54678,5
29530,54638,5
29540,54696,5
29538,54693,5
29543,54701,4
29545,54727,5
29547,54715,6
29546,54719,4
29551,54720,5
29554,54785,4
29555,54732,7
29563,54738,3
29561,54748,5
29567,54800,5
29563,54767,4
29575,54762,5
29577,54767,5
29577,54788,5
29573,54767,4
29582,54783,4
29585,54786,5
29587,54790,5
29587,54796,5
29581,54791,4
29596,54803,5
29588,54806,5
29592,54811,5
29598,54817,5
29596,54815,4
29600,54821,5
29611,54829,5
29610,54829,6
29616,54835,4
29614,54839,4
29623,54843,5
29616,54848,5
29619,54856,5
29621,54866,5
29623,54862,4
29622,54872,5
29632,54875,5
29629,54873,5
29625,54880,4
29640,54879,4
29637,54880,5
29638,54883,5
29637,54884,5
29640,54891,4
29634,54895,5
29634,54886,5
29644,54894,5
29635,54890,5
29635,54883,5
29639,54896,4
29640,54883,5
29636,54888,5
29632,54889,6
29636,54885,3
29637,54886,5
29634,54887,5
29633,54878,5
29633,54880,5
29638,54888,4
29636,54889,5
29636,54891,5
29627,54891,5
29633,54895,5
29639,54889,4
29630,54896,5
29641,54892,5
29634,54898,5
29637,54895,4
29637,54903,4
29638,54900,5
29644,54894,5
29643,54900,5
29644,54895,4
29634,54900,6
29644,54890,4
29646,54891,5
29640,54897,5
29645,54904,6
29645,54896,3
29642,54899,5
29643,54900,5
29636,54901,5
29641,54895,4
29635,54895,5
29638,54915,5
29643,54906,5
29642,54899,5
29640,54889,4
29638,54904,5
29650,54895,5
29636,54907,5
29640,54897,4
29639,54901,4
29643,54902,5
29630,54904,5
29643,54894,5
29647,54894,4
29637,54897,5
29605,54897,6
29641,54899,4
29638,54905,5
29640,54905,5
29592,54901,4
29649,54896,5
29647,54896,5
29651,54906,5
29632,54907,4
29649,54905,5
29645,54908,5
29652,54912,5
29690,54912,5
29643,54913,4
29649,54904,5
29656,54908,5
29705,54904,5
29646,54914,5
29656,54910,4
29652,54907,5
29673,54911,5
29651,54910,5
29645,54912,4
29651,54911,4
29653,54900,5
29646,54909,6
29645,54906,4
29651,54916,4
29650,54869,5
29649,54909,5
29649,54915,5
29649,54914,5
29652,54863,4
29645,54906,5
29648,54911,5
29646,54905,5
29646,54873,5
29652,54907,5
29652,54907,4
29654,54915,5
29649,54933,5
29658,54922,5
29659,54913,4
29653,54913,5
29649,54964,5
29650,54904,5
29644,54916,5
29646,54927,4
29646,54957,5
29649,54914,5
29645,54922,6
29651,54913,3
29647,54938,5
29650,54913,5
29654,54921,5
29656,54910,5
29654,54912,4
29643,54914,5
29655,54920,5
29648,54921,5
29652,54918,5
29653,54926,4
29659,54925,5
29658,54922,5
29658,54923,5
29656,54920,5
29656,54922,4
29655,54922,5
29652,54918,5
29654,54924,5
29653,54926,5
29652,54914,5
29655,54921,4
29645,54920,5
29653,54918,5
29654,54922,4
29655,54913,4
29657,54915,5
29657,54920,5
29647,54911,5
29643,54916,10
29651,54917,9
29651,54917,5
29646,54872,8
29646,54899,7
29647,54921,5
29687,54917,8
29647,54919,7
29653,54929,10
29653,54929,7
29644,54909,5
29657,54915,8
29656,54939,7
29652,54946,5
29642,54922,8
29642,54922,7
29618,54907,5
29649,54916,8
29653,54919,7
29646,54916,7
29650,54921,10
29650,54921,5
29657,54925,5
29644,54903,8
29659,54903,7
29662,54921,10
29657,54920,9
29657,54920,9
29664,54927,10
29651,54926,5
29652,54919,8
29652,54919,7
29629,54926,8
29648,54917,10
29650,54920,5
29635,54947,5
29653,54920,10
29653,54920,5
29639,54922,5
29657,54918,10
29611,54926,5
29657,54929,5
29660,54924,10
29660,54924,5
29655,54924,5
29692,54904,10
29658,54916,5
29653,54928,7
29683,54917,8
29705,54919,5
29652,54916,7
29643,54911,8
29643,54911,5
29655,54903,7
29665,54909,8
29649,54911,5
29652,54912,7
29643,54906,8
29651,54870,5
29649,54913,7
29649,54913,8
29657,54940,5
29649,54910,7
29650,54873,8
29650,54917,5
29639,54904,7
29654,54910,8
29654,54910,7
29651,54986,8
29650,54907,5
29653,54917,7
29645,54910,8
29644,54957,5
29652,54908,7
29652,54908,8
29659,54902,5
29640,54901,7
29635,54895,8
29639,54908,5
29646,54946,7
29649,54903,8
29649,54903,5
29629,54912,7
29627,54892,8
29641,54903,5
29654,54909,7
29650,54938,8
29636,54902,9
29636,54902,5
29644,54870,8
29633,54867,5
29637,54897,0
29668,54898,1
29645,54914,5
29641,54895,4
29648,54899,4
29640,54895,5
29645,54906,6
29641,54902,4
29644,54898,5
29638,54902,4
29635,54895,5
29639,54892,5
29637,54892,5
29647,54905,5
29642,54903,4
29638,54892,5
29638,54902,5
29637,54890,5
29634,54903,5
29638,54899,4
29639,54899,5
29643,54896,5
29638,54900,5
29638,54903,5
29636,54896,4
29638,54899,5
29644,54895,5
29643,54897,6
29641,54896,3
29639,54890,5
29642,54910,5
29646,54906,5
29640,54898,5
29641,54902,4
29634,54899,5
29644,54900,5
29643,54902,5
29642,54899,5
29648,54902,4
29638,54907,5
29643,54904,5
29642,54910,5
29640,54906,5
29646,54901,4
29649,54906,5
29646,54898,5
29651,54906,5
29646,54900,5
29648,54908,5
29646,54898,4
29650,54902,5
29636,54908,5
29646,54898,6
29640,54902,3
29650,54906,5
29642,54904,5
29647,54906,5
29625,54911,4
29646,54903,5
29640,54911,5
29647,54904,5
29607,54904,5
29646,54901,4
29654,54907,5
29638,54907,5
29594,54906,5
29648,54907,5
29646,54903,4
29646,54903,5
29646,54902,5
29647,54908,5
29636,54909,5
29651,54905,4
29686,54899,6
29642,54904,4
29647,54904,5
29642,54912,5
29695,54904,6
29648,54915,3
29648,54905,5
29649,54909,5
29672,54909,4
29645,54904,5
29646,54905,5
29645,54904,5
29653,54898,5
29654,54911,4
29644,54902,5
29650,54915,5
29649,54878,5
29644,54911,5
29649,54912,4
29647,54903,5
29645,54861,5
29645,54916,5
29649,54914,5
29649,54911,5
29647,54889,4
29650,54903,6
29642,54904,4
29647,54908,5
29649,54942,4
29656,54905,5
29655,54917,5
29643,54918,5
29651,54970,4
29644,54913,4
29655,54920,5
29645,54915,5
29651,54955,5
29645,54915,4
29653,54915,5
29648,54919,5
29655,54917,5
29656,54912,5
29654,54921,4
29655,54925,5
29646,54916,5
29647,54916,5
29651,54923,5
29643,54916,4
29651,54905,5
29645,54908,5
29645,54914,6
29645,54920,4
29655,54923,4
29655,54918,5
29654,54919,5
29649,54929,5
29661,54920,5
29647,54913,4
29654,54922,5
29646,54915,5
29654,54915,5
29649,54914,4
29655,54914,4
29654,54911,5
29653,54914,5
29653,54922,5
29648,54915,4
29650,54912,5
29651,54915,5
29643,54902,5
29651,54904,5
29646,54896,5
29648,54910,4
29644,54903,5
29642,54900,5
29646,54901,6
29636,54896,3
29635,54890,5
29648,54901,5
29643,54887,5
29636,54897,5
29640,54894,4
29641,54891,5
29632,54896,5
29636,54883,5
29641,54887,5
29632,54881,4
29639,54887,5
29639,54888,5
29638,54882,5
29628,54885,4
29637,54892,5
29638,54884,5
29639,54881,5
29640,54885,5
29641,54878,4
29638,54886,6
29642,54888,4
29627,54880,5
29627,54881,5
29635,54885,4
29628,54889,5
29641,54885,5
29630,54892,5
29634,54885,5
29635,54882,4
29634,54875,5
29635,54893,5
29635,54885,5
29635,54881,5
29631,54876,4
29630,54875,5
29632,54871,5
29626,54873,5
29635,54877,4
29634,54879,4
29632,54878,5
29624,54876,5
29632,54875,5
29627,54879,4
29626,54873,5
29605,54866,6
29626,54875,4
29628,54878,5
29633,54877,4
29584,54869,5
29631,54874,5
29626,54867,5
29630,54875,5
29582,54874,4
29631,54873,5
29634,54866,5
29630,54869,5
29652,54869,5
29626,54878,4
29632,54873,5
29623,54873,8
29677,54870,2
29620,54879,5
29623,54862,4
29622,54863,5
29676,54856,5
29622,54852,5
29622,54855,4
29624,54855,4
29640,54862,5
29625,54851,6
29611,54855,4
29617,54851,4
29616,54829,5
29611,54838,5
29623,54840,5
29619,54847,5
29605,54805,4
29614,54837,5
29616,54849,5
29614,54843,5
29607,54792,5
29614,54851,4
29608,54843,5
29616,54832,5
29613,54830,5
29606,54833,5
29609,54832,4
29610,54837,5
29608,54880,5
29611,54835,5
29609,54835,5
29601,54838,4
29615,54896,5
29609,54831,5
29600,54832,5
29605,54842,4
29613,54862,5
29608,54835,5
29606,54832,5
29613,54836,5
29618,54852,4
29614,54839,5
29613,54837,5
29610,54838,5
29610,54828,5
29603,54822,4
29606,54828,5
29608,54832,5
29605,54828,5
29607,54830,5
29602,54823,4
29606,54821,5
29594,54822,5
29603,54830,5
29596,54816,5
29605,54827,5
29603,54826,4
29598,54824,5
29604,54821,5
29591,54823,4
29597,54804,4
29605,54820,5
29599,54814,5
29595,54803,5
29596,54808,4
29598,54804,5
29601,54805,5
29592,54799,5
29590,54805,5
29585,54800,4
29595,54808,5
29601,54805,5
29585,54798,5
29597,54809,5
29587,54806,4
29591,54793,5
29589,54798,5
29593,54806,5
29595,54795,5
29585,54805,4
29592,54802,6
29596,54793,4
29587,54797,5
29586,54790,5
29586,54794,4
29586,54793,5
29593,54785,5
29591,54784,5
29585,54790,4
29585,54789,5
29588,54802,5
29583,54796,5
29584,54785,5
29586,54788,4
29582,54782,5
29578,54790,5
29586,54792,5
29585,54793,5
29582,54789,4
29587,54786,5
29582,54788,5
29591,54791,5
29589,54788,5
29588,54788,4
29592,54792,5
29584,54790,6
29590,54797,4
29588,54788,5
29588,54788,4
29581,54791,5
29582,54782,5
29580,54785,5
29585,54774,4
29579,54782,4
29583,54784,5
29576,54781,5
29577,54776,9
29569,54784,5
29578,54776,8
29577,54788,7
29574,54780,5
29550,54772,8
29579,54768,7
29582,54784,5
29583,54787,8
29583,54787,7
29539,54831,7
29580,54778,8
29576,54783,7
29572,54779,5
29626,54770,8
29626,54770,7
29599,54781,5
29582,54781,8
29573,54773,7
29631,54769,8
29581,54773,5
29576,54783,5
29576,54783,4
29578,54776,5
29587,54761,5
29579,54771,5
29582,54782,5
29584,54776,4
29578,54733,5
29575,54761,5
29571,54764,5
29574,54771,4
29575,54711,5
29573,54763,5
29576,54761,5
29564,54769,5
