RED,IR,EKG,TIME
53586,113646,5
53581,113658,5
53575,113644,8
53570,113623,7
53576,113637,5
53575,113643,8
53563,113600,7
53563,113600,5
53561,113639,8
53552,113614,7
53559,113591,8
53548,113600,7
53557,113591,9
53557,113591,10
53554,113597,9
53551,113602,8
53551,113602,7
53562,113593,12
53541,113573,5
53538,113561,5
53526,113537,5
53496,113477,10
53496,113477,5
53492,113490,5
53489,113472,10
53482,113421,5
53486,113460,5
53484,113467,10
53496,113477,5
53495,113473,5
53484,113471,10
53484,113471,5
53486,113459,7
53485,113481,8
53491,113480,5
53501,113508,7
53496,113480,8
53496,113480,5
53456,113463,7
53477,113469,8
53489,113466,5
53491,113471,7
53494,113484,8
53491,113479,9
53491,113479,8
53492,113418,5
53488,113480,7
53511,113489,8
53521,113476,5
53498,113475,7
53486,113473,8
53486,113473,5
53487,113429,7
53481,113463,8
53499,113477,5
53497,113476,12
53497,113476,8
53480,113472,7
53493,113466,8
53486,113467,5
53494,113465,7
53496,113482,8
53496,113482,5
53548,113476,7
53500,113482,8
53493,113485,7
53491,113493,10
53503,113495,5
53506,113478,7
53506,113478,8
53501,113515,5
53497,113477,7
53504,113462,8
53494,113482,5
53502,113492,7
53508,113512,8
53508,113512,7
53505,113528,7
53502,113513,8
53518,113529,7
53527,113519,5
53519,113564,8
53519,113564,7
53568,113542,5
53530,113540,8
53525,113551,7
53527,113570,7
53559,113611,10
53559,113611,5
53554,113631,5
53574,113657,8
53568,113650,7
53581,113636,9
53575,113645,7
53574,113633,7
53574,113633,8
53568,113664,7
53567,113641,5
53578,113637,5
53569,113603,0
53579,113643,4
53580,113651,5
53578,113661,6
53591,113670,3
53596,113677,5
53589,113687,5
53592,113690,4
53602,113705,4
53604,113710,5
53601,113712,5
53612,113726,5
53619,113729,4
53615,113737,5
53625,113739,5
53622,113740,5
53620,113740,5
53624,113742,4
53630,113751,5
53631,113743,5
53635,113757,5
53630,113766,5
53630,113762,4
53623,113759,5
53630,113765,5
53631,113766,4
53643,113784,5
53644,113777,4
53639,113795,6
53648,113789,3
53654,113804,5
53648,113790,5
53647,113800,4
53654,113802,5
53656,113806,5
53649,113804,5
53658,113811,4
53656,113822,4
53669,113831,5
53664,113843,5
53674,113853,5
53673,113858,4
53682,113853,5
53683,113868,5
53686,113867,5
53685,113879,5
53696,113882,4
53699,113888,5
53698,113904,5
53702,113908,6
53698,113913,4
53708,113924,4
53714,113932,5
53713,113942,5
53731,113944,5
53733,113954,5
53729,113971,4
53735,113974,5
53736,113975,5
53749,113988,5
53741,113990,5
53751,113991,4
53738,113991,5
53742,113995,5
53744,113991,5
53753,114001,4
53738,114002,4
53742,114001,5
53750,113994,5
53751,113999,5
53744,114000,5
53755,114005,4
53750,114020,5
53753,114017,5
53735,114021,6
53760,114032,3
53752,114018,5
53757,114026,5
53750,114032,5
53758,114040,5
53768,114047,4
53777,114047,5
53788,114054,5
53770,114059,5
53774,114066,5
53785,114083,4
53812,114091,5
53796,114107,5
53806,114124,5
53818,114127,5
53825,114144,4
53815,114135,5
53819,114138,5
53816,114153,5
53828,114148,5
53814,114138,5
53808,114110,4
53807,114123,5
53806,114103,5
53804,114116,6
53802,114100,3
53802,114114,5
53808,114103,5
53809,114132,5
53817,114130,5
53821,114136,4
53824,114137,5
53820,114151,5
53834,114152,5
53833,114162,4
53833,114176,5
53832,114171,5
53830,114187,5
53832,114180,5
53835,114210,4
53842,114190,5
53849,114196,5
53839,114188,5
53840,114227,5
53845,114194,4
53846,114202,6
53844,114185,4
53851,114197,5
53847,114200,5
53853,114213,4
53851,114221,5
53860,114226,5
53865,114235,5
53869,114237,4
53869,114249,5
53875,114255,5
53872,114262,5
53879,114271,5
53878,114267,4
53882,114263,5
53878,114262,5
53874,114274,5
53877,114254,5
53887,114265,4
53888,114286,5
53882,114284,5
53897,114292,5
53891,114298,5
53902,114305,4
53910,114311,5
53912,114321,6
53909,114320,4
53912,114350,5
53921,114350,4
53928,114358,5
53927,114373,5
53937,114383,5
53941,114399,5
53947,114413,4
53956,114413,5
53954,114407,5
53958,114421,5
53955,114424,4
53950,114427,5
53957,114424,5
53959,114427,5
53957,114433,5
53965,114430,4
53968,114445,5
53952,114439,5
53969,114446,5
53970,114445,5
53972,114458,4
53976,114457,5
53981,114470,5
53977,114462,6
53978,114461,4
53980,114466,4
53974,114465,5
53981,114463,5
53975,114465,5
53975,114469,5
53981,114470,4
53980,114476,5
53982,114475,5
53989,114489,5
53998,114503,5
54006,114524,4
54005,114537,5
54009,114542,5
54024,114536,5
54019,114545,4
54021,114536,4
54010,114529,5
54012,114530,5
54004,114516,5
53992,114507,5
54003,114499,4
53997,114501,5
54001,114489,5
53988,114489,6
53991,114498,3
53996,114512,5
53996,114504,5
54007,114516,5
54002,114518,5
53996,114518,4
54007,114518,5
54005,114519,5
54001,114517,5
53998,114511,5
54001,114515,4
53998,114516,5
54004,114525,5
54008,114534,5
54019,114533,5
53994,114545,4
54016,114542,5
54020,114528,5
54017,114544,5
53994,114539,4
54024,114542,5
54021,114548,4
54018,114533,5
54030,114547,5
54025,114560,4
54026,114556,5
54035,114567,5
54052,114574,5
54030,114565,5
54034,114572,4
54032,114575,5
54054,114578,5
54027,114572,5
54034,114569,5
54027,114570,4
54040,114572,5
54035,114577,5
54035,114594,5
54043,114588,5
54047,114597,4
54040,114608,5
54050,114603,5
54049,114600,5
54045,114601,5
54048,114624,4
54053,114618,6
54051,114633,4
54061,114619,5
54063,114654,4
54079,114665,4
54079,114675,4
54083,114676,5
54098,114691,5
54089,114700,4
54094,114702,5
54099,114730,5
54093,114711,5
54109,114718,5
54095,114725,4
54097,114735,5
54101,114720,5
54108,114705,5
54107,114717,5
54097,114715,4
54095,114713,5
54105,114709,5
54093,114699,5
54093,114712,5
54096,114690,4
54086,114692,5
54090,114696,6
54095,114689,4
54095,114693,5
54081,114692,4
54100,114689,5
54096,114695,5
54097,114702,5
54091,114710,4
54097,114704,4
54095,114698,5
54093,114700,5
54091,114695,5
54087,114688,4
54079,114662,5
54064,114650,5
54070,114635,5
54066,114634,5
54053,114619,4
54050,114618,5
54051,114612,5
54054,114624,5
54054,114634,5
54058,114624,4
54062,114630,5
54061,114635,5
54065,114632,6
54064,114636,4
54054,114628,4
54060,114620,5
54062,114619,5
54057,114610,5
54052,114620,5
54049,114620,4
54042,114615,5
54046,114598,5
54046,114595,5
54037,114582,4
54033,114585,4
54035,114578,5
54034,114563,5
54031,114563,5
54016,114560,4
54022,114555,5
54023,114562,5
54014,114558,5
54018,114558,5
54028,114556,5
54018,114552,4
54016,114551,5
54028,114558,5
54015,114548,5
54014,114531,4
54003,114520,5
53994,114507,5
53990,114496,5
53991,114495,5
53983,114481,4
53990,114481,5
53980,114485,5
53989,114474,5
53985,114474,5
53972,114466,4
53973,114457,5
53980,114452,5
53972,114451,5
53967,114435,4
53967,114431,4
53961,114424,5
53961,114424,5
53959,114408,5
53953,114410,4
53944,114394,6
53950,114397,4
53938,114397,5
53949,114403,5
53947,114390,4
53938,114382,5
53944,114381,5
53933,114380,5
53938,114373,5
53931,114364,4
53930,114355,5
53893,114341,5
53907,114341,5
53907,114326,5
53910,114319,4
53876,114307,5
53895,114297,5
53883,114289,5
53887,114275,5
53883,114275,4
53882,114268,5
53879,114254,6
53867,114249,4
53879,114241,4
53861,114229,4
53865,114225,6
53862,114227,4
53884,114224,5
53862,114223,4
53854,114218,5
53855,114228,5
53875,114234,5
53864,114233,5
53868,114236,4
53866,114242,5
53866,114234,5
53870,114223,5
53860,114217,5
53849,114210,4
53835,114159,5
53837,114159,5
53825,114142,5
53810,114122,5
53808,114094,4
53797,114108,5
53789,114104,5
53805,114098,5
53796,114095,5
53797,114117,4
53805,114119,5
53800,114113,5
53803,114120,5
53801,114097,4
53799,114107,4
53802,114103,5
53800,114122,5
53800,114100,5
53792,114104,4
53793,114094,5
53797,114109,5
53793,114088,5
53791,114092,5
53792,114087,4
53785,114080,5
53774,114075,5
53790,114063,5
53784,114058,5
53770,114047,4
53766,114056,5
53775,114046,5
53772,114047,5
53780,114053,5
53772,114055,4
53778,114049,5
53773,114048,5
53765,114039,5
53772,114034,5
53769,114037,4
53762,114012,5
53760,114020,5
53756,114007,5
53760,114021,4
53756,114019,4
53746,114012,5
53752,114005,5
53747,114013,5
53753,114018,4
53755,114012,5
53748,114013,5
53755,113994,5
53754,114011,5
53753,113997,4
53750,114015,6
53754,114009,4
53749,114005,5
53757,114005,5
53757,113999,6
53751,114001,3
53748,113994,5
53739,113989,5
53735,113985,5
53738,113981,4
53736,113972,5
53740,113973,5
53731,113975,5
53730,113957,5
53726,113979,4
53735,113967,5
53731,113962,5
53723,113949,5
53719,113944,4
53730,113947,4
53727,113940,5
53715,113949,5
53721,113943,5
53725,113944,4
53722,113935,5
53723,113933,6
53717,113917,4
53707,113919,5
53703,113909,4
53703,113902,7
53696,113893,3
53697,113896,5
53699,113895,5
53695,113882,4
53690,113874,5
53682,113865,5
53685,113866,5
53678,113850,5
53670,113839,4
53661,113829,5
53655,113816,5
53654,113816,5
53663,113800,5
53653,113794,4
53658,113782,5
53649,113776,5
53632,113772,5
53636,113774,4
53632,113771,4
53635,113770,5
53632,113769,6
53643,113769,4
53644,113780,4
53635,113786,5
53645,113782,5
53650,113792,5
53628,113782,5
53642,113772,4
53634,113766,5
53620,113750,5
53602,113732,5
53603,113706,5
53585,113670,4
53577,113636,5
53556,113621,5
53551,113591,5
53536,113570,5
53531,113559,4
53543,113558,5
53522,113561,5
53530,113548,5
53535,113553,5
53563,113571,4
53541,113566,5
53535,113564,5
53541,113557,6
53557,113560,3
53532,113552,4
53532,113549,5
53531,113555,5
53543,113568,5
53533,113551,4
53518,113545,5
53529,113538,5
53528,113533,5
53527,113531,5
53517,113520,4
53514,113512,5
53516,113498,5
53515,113508,5
53521,113519,5
53513,113519,4
53518,113498,5
53520,113513,5
53513,113520,5
53515,113521,5
53524,113515,5
53519,113518,4
53511,113510,5
53507,113508,5
53504,113517,6
53495,113489,3
53503,113494,5
53494,113490,5
53490,113503,5
53500,113480,4
53499,113498,4
53507,113494,5
53498,113508,5
53505,113511,5
53505,113511,4
53511,113513,5
53510,113516,5
53520,113513,5
53511,113517,5
53519,113522,4
53521,113526,5
53520,113528,5
53521,113522,5
53522,113525,5
53525,113528,4
53519,113526,6
53516,113524,4
53523,113536,5
53514,113524,5
53523,113535,4
53524,113538,5
53519,113533,5
53520,113538,5
53524,113536,5
53520,113541,4
53528,113527,5
53518,113535,5
53522,113531,5
53529,113525,4
53521,113538,4
53517,113526,5
53524,113528,5
53517,113531,5
53522,113528,4
53516,113524,5
53515,113527,5
53513,113521,5
53518,113508,5
53514,113518,4
53509,113515,5
53513,113507,6
53511,113512,4
53513,113508,5
53509,113515,4
53501,113502,5
53502,113505,5
53505,113507,5
53507,113511,5
53510,113504,4
53519,113515,5
53525,113512,5
53508,113515,5
53522,113521,5
53518,113530,4
53523,113540,5
53531,113548,5
53526,113550,5
53531,113535,4
53526,113529,4
53511,113523,5
53507,113515,5
53497,113487,5
53486,113476,4
53489,113457,5
53488,113456,5
53482,113446,6
53475,113439,4
53470,113427,4
53471,113421,5
53474,113437,5
53471,113440,5
53482,113443,5
53479,113459,4
53489,113463,5
53478,113457,5
53480,113460,5
53486,113464,5
53489,113466,4
53481,113455,5
53475,113463,5
53485,113453,5
53489,113461,5
53484,113461,4
53478,113453,5
53483,113462,5
53483,113444,5
53476,113435,5
53474,113439,4
53475,113441,5
53476,113432,5
53472,113434,6
53456,113441,3
53471,113446,5
53482,113444,5
53484,113443,5
53453,113431,5
53469,113440,4
53479,113440,5
53466,113421,5
53459,113411,5
53459,113409,5
53463,113417,4
53462,113416,5
53475,113427,5
53471,113423,5
53469,113420,5
53465,113426,4
53491,113421,5
53473,113425,5
53465,113434,5
53466,113434,5
53483,113440,5
53478,113439,4
53474,113438,5
53471,113430,5
53472,113430,5
53466,113436,4
53468,113429,5
53474,113430,5
53469,113413,5
53474,113430,4
53463,113441,4
53473,113430,5
53473,113422,5
53472,113445,5
53479,113439,5
53481,113437,4
53475,113425,5
53467,113430,5
53469,113428,5
53472,113438,4
53474,113446,5
53471,113437,5
53468,113445,5
53465,113432,5
53468,113462,4
53474,113436,6
53476,113444,4
53474,113431,5
53472,113462,5
53471,113436,4
53480,113439,5
53473,113434,5
53477,113436,5
53471,113436,5
53468,113424,4
53477,113434,5
53479,113429,5
53465,113436,5
53471,113420,4
53471,113435,4
53469,113425,5
53469,113436,5
53466,113436,5
53467,113435,4
53467,113431,5
53467,113424,5
53473,113425,5
53460,113424,5
53467,113421,4
53462,113425,5
53459,113430,7
53464,113434,3
53464,113428,5
53467,113421,4
53456,113432,5
53474,113438,5
53471,113438,5
53465,113447,5
53474,113456,4
53476,113460,5
53479,113467,5
53488,113474,5
53489,113465,5
53485,113474,4
53484,113456,5
53482,113460,5
53475,113437,5
53469,113421,4
53458,113404,4
53449,113390,5
53453,113399,5
53452,113398,5
53445,113385,4
53441,113389,5
53447,113386,5
53452,113384,5
53453,113391,5
53457,113395,4
53457,113405,5
53455,113406,5
53445,113396,5
53461,113396,5
53459,113401,4
53454,113400,5
53456,113405,5
53456,113407,5
53462,113417,5
53458,113422,4
53463,113414,5
53461,113412,5
53456,113407,5
53466,113421,5
53463,113404,4
53457,113404,5
53456,113400,5
53457,113402,5
53460,113399,5
53457,113411,4
53465,113413,5
53457,113415,5
53461,113415,5
53463,113399,4
53456,113406,5
53450,113396,5
53454,113385,5
53440,113381,5
53444,113373,4
53433,113381,5
53438,113360,5
53439,113357,5
53445,113358,5
53440,113363,4
53435,113366,5
53441,113355,5
53443,113365,5
53440,113362,5
53432,113359,4
53421,113356,5
53425,113358,5
53434,113350,5
53428,113344,5
53410,113351,5
53423,113344,4
53417,113335,5
53419,113329,5
53397,113328,7
53414,113336,2
53423,113333,5
53447,113337,5
53433,113334,5
53425,113335,4
53430,113342,5
53428,113338,5
53447,113347,5
53424,113347,5
53435,113351,4
53426,113351,5
53451,113362,5
53436,113355,5
53433,113357,5
53439,113362,4
53444,113361,5
53432,113353,5
53440,113361,5
53433,113353,5
53440,113357,4
53435,113363,6
53434,113358,4
53434,113369,5
53450,113361,5
53436,113374,4
53447,113376,5
53448,113379,5
53440,113362,5
53450,113380,4
53444,113384,4
53448,113389,5
53440,113384,5
53449,113390,5
53458,113405,4
53451,113404,5
53459,113420,5
53451,113404,5
53459,113419,5
53461,113427,4
53456,113454,5
53464,113438,5
53474,113434,6
53470,113441,4
53481,113487,4
53488,113482,5
53490,113493,5
53498,113510,5
53514,113524,5
53517,113526,4
53512,113520,5
53509,113512,5
53504,113510,5
53501,113494,5
53497,113493,4
53502,113489,5
53495,113495,5
53503,113495,5
53492,113494,4
53504,113500,4
53505,113505,5
53503,113508,5
53512,113518,5
53513,113527,5
53518,113531,4
53531,113547,5
53532,113567,5
53534,113571,6
53536,113583,3
53544,113582,5
53548,113592,5
53547,113606,5
53555,113607,5
53552,113601,4
53558,113601,5
53560,113604,5
53560,113604,5
53557,113615,5
53556,113607,4
53550,113610,5
53559,113613,5
53553,113611,5
53561,113622,5
53562,113622,4
53571,113635,5
53572,113646,5
53576,113641,5
53581,113651,4
53580,113653,5
53578,113665,4
53580,113660,5
53584,113661,5
53590,113678,6
53578,113675,3
53591,113668,5
53602,113682,5
53601,113706,5
53608,113716,4
53613,113719,5
53613,113727,5
53610,113740,5
53621,113743,5
53626,113751,4
53622,113750,5
53622,113764,5
53627,113776,5
53633,113782,5
53634,113780,4
53643,113778,5
53636,113785,5
53640,113798,5
53645,113789,5
53647,113809,4
53647,113813,6
53653,113822,4
53663,113830,5
53665,113826,5
53665,113835,6
53661,113839,3
53680,113832,5
53667,113852,5
53668,113851,4
53675,113854,5
53677,113845,5
53683,113857,5
53681,113862,5
53679,113861,4
53682,113868,5
53676,113867,5
53678,113862,5
53684,113859,5
53685,113864,4
53682,113866,5
53668,113874,5
53686,113880,5
53686,113870,5
53685,113870,4
53673,113884,5
53686,113883,6
53687,113891,4
53695,113891,5
53682,113898,4
53698,113898,5
53693,113896,5
53706,113895,5
53709,113905,5
53696,113912,4
53709,113929,5
53713,113941,5
53743,113953,5
53735,113963,4
53727,113974,4
53725,113965,5
53756,113961,5
53729,113947,5
53721,113935,4
53712,113924,5
53718,113930,5
53705,113923,5
53708,113902,5
53705,113916,4
53702,113908,5
53703,113917,5
53703,113929,6
53708,113938,4
53718,113931,4
53718,113952,5
53723,113953,5
53727,113970,5
53730,113954,5
53744,113986,4
53734,114003,5
53747,114007,5
53747,114000,5
53750,114023,5
53756,114012,4
53754,114024,5
53761,114049,5
53759,114030,5
53770,114030,4
53760,114026,4
53756,114053,5
53760,114030,5
53769,114032,5
53760,114038,5
53767,114050,4
53764,114044,5
53773,114057,5
53774,114071,6
53777,114082,3
53780,114078,5
53784,114093,5
53787,114077,5
53782,114092,5
53793,114085,4
53781,114072,5
53790,114083,5
53799,114093,5
53802,114119,5
53809,114133,4
53805,114126,5
53810,114151,5
53823,114161,5
53819,114150,5
53825,114170,4
53831,114166,5
53837,114187,5
53845,114193,5
53851,114192,4
53845,114211,5
53851,114208,4
53852,114225,5
53857,114237,5
53859,114235,4
53870,114243,5
53870,114252,5
53869,114260,5
53875,114266,5
53879,114263,4
53875,114271,5
53888,114278,5
53879,114283,5
53884,114289,5
53891,114297,4
53899,114294,5
53894,114315,5
53895,114313,5
53904,114321,5
53904,114334,4
53906,114327,5
53915,114333,5
53917,114344,5
53926,114350,5
53924,114354,4
53924,114376,6
53927,114372,4
53926,114380,5
53934,114379,4
53937,114386,4
53936,114395,5
53946,114414,5
53959,114430,5
53961,114455,4
53961,114451,5
53971,114463,5
53984,114468,5
53980,114475,5
53984,114474,4
53982,114470,5
53976,114445,5
53961,114443,5
53961,114438,5
53961,114425,4
53961,114423,5
53960,114436,5
53953,114430,5
53957,114434,5
53973,114443,4
53962,114456,5
53964,114457,6
53981,114468,4
53976,114477,5
53986,114486,4
53975,114480,5
53988,114482,5
53994,114491,5
53992,114493,4
53995,114501,4
53986,114513,5
54003,114508,5
53984,114519,5
54007,114517,4
54005,114515,5
54002,114516,5
53993,114517,5
54003,114521,5
54011,114520,4
54008,114518,5
53986,114527,5
54012,114539,5
54018,114534,5
54013,114554,4
54015,114551,5
54028,114564,5
54037,114560,6
54025,114573,4
54039,114571,4
54018,114563,5
54024,114569,5
54020,114560,5
54046,114558,5
54030,114560,4
54027,114572,5
54024,114579,5
54042,114570,5
54036,114583,5
54035,114577,4
54029,114576,5
54040,114572,5
54028,114572,5
54035,114572,4
54026,114575,5
54033,114575,5
54027,114577,5
54040,114576,5
54037,114589,5
54038,114573,4
54036,114592,5
54036,114587,5
54039,114589,5
54043,114569,4
54045,114595,5
54033,114594,5
54033,114586,5
54031,114585,5
54037,114580,4
54033,114581,5
54023,114583,5
54031,114586,5
54028,114572,5
54033,114568,4
54026,114565,5
54028,114587,5
54022,114555,5
54020,114553,5
54019,114551,4
54019,114557,5
54017,114543,5
54008,114534,5
54016,114540,4
54020,114531,5
54016,114529,4
54006,114532,5
54005,114521,5
54002,114515,4
54005,114513,5
53994,114510,5
54001,114511,5
53993,114502,5
53994,114497,4
53989,114499,5
53990,114496,5
53996,114504,5
54003,114499,5
53995,114509,4
54002,114517,5
53999,114504,5
53989,114495,5
53992,114488,5
53981,114478,4
53969,114453,5
53959,114426,5
53945,114399,5
53940,114387,5
53925,114365,4
53924,114355,6
53916,114346,4
53929,114349,5
53915,114350,4
53920,114350,4
53916,114357,5
53930,114354,5
53921,114351,5
53923,114345,4
53919,114346,5
53913,114338,5
53902,114330,5
53909,114320,5
53908,114316,4
53900,114312,5
53903,114303,5
53894,114297,5
53897,114294,5
53895,114292,4
53894,114290,5
53888,114283,5
53885,114281,5
53886,114281,5
53882,114279,4
53887,114278,5
53889,114276,6
53884,114269,4
53885,114268,5
53877,114265,4
53884,114278,5
53876,114260,5
53882,114258,5
53869,114253,4
53866,114250,4
53864,114233,5
53858,114224,5
53858,114218,5
53853,114218,4
53854,114219,5
53851,114211,5
53854,114214,5
53849,114211,5
53850,114211,4
53845,114200,5
53847,114193,5
53844,114186,5
53835,114186,5
53836,114185,4
53846,114193,5
53845,114197,5
53839,114194,5
53834,114192,5
53834,114189,4
53835,114187,5
53838,114197,5
53840,114195,5
53836,114194,5
53843,114188,4
53839,114195,5
53841,114197,5
53820,114192,5
53835,114182,4
53835,114178,9
53831,114166,5
53811,114164,5
53824,114160,4
53822,114168,5
53823,114160,5
53829,114158,5
53818,114149,5
53816,114155,5
53817,114140,4
53837,114152,5
53816,114131,5
53817,114139,5
53813,114144,4
53834,114142,5
53811,114132,5
53812,114132,5
53808,114130,5
53825,114124,4
53810,114121,5
53804,114134,5
53808,114126,5
53809,114136,5
53802,114129,4
53800,114124,5
53808,114127,5
53808,114120,5
53809,114119,4
53812,114119,4
53804,114123,6
53808,114101,4
53814,114117,5
53810,114117,4
53800,114116,7
53805,114107,3
53808,114134,5
53813,114131,5
53800,114119,4
53810,114132,5
53816,114139,5
53807,114137,5
53815,114146,5
53812,114163,4
53810,114136,5
53805,114130,5
53808,114121,5
53800,114133,5
53798,114086,4
53774,114073,5
53775,114045,5
53771,114049,5
53767,114024,5
53754,114018,4
53752,114012,5
53748,114030,6
53762,114026,4
53761,114029,5
53759,114045,4
53761,114049,5
53762,114042,5
53767,114040,5
53768,114038,4
53764,114052,4
53759,114033,5
53760,114034,5
53759,114033,5
53759,114036,4
53759,114035,5
53756,114037,5
53762,114030,5
53762,114018,5
53752,114023,4
53758,114011,5
53745,114016,5
53742,114010,5
53745,114008,5
53750,114009,4
53746,114006,5
53751,114000,5
53746,114005,6
53743,114002,4
53753,114017,4
53748,113997,5
53734,114003,5
53740,113997,5
53739,113999,5
53746,113989,4
53740,113998,5
53743,113999,5
53741,113993,5
53737,113989,4
53744,113995,4
53743,113999,5
53751,113997,5
53749,113997,5
53735,113999,4
53744,113997,5
53742,113986,5
53734,113995,5
53736,113984,5
53736,113989,5
53738,113990,4
53741,113988,5
53737,113976,5
53738,113988,6
53735,113973,3
53737,113981,5
53734,113983,5
53736,113972,5
53739,113984,5
53738,113983,4
53732,113982,5
53739,113975,5
53734,113981,5
53739,113984,5
53726,113982,4
53731,113976,5
53743,113973,5
53737,113969,5
53736,113977,4
53729,113961,4
53731,113963,5
53722,113954,5
53726,113966,5
53726,113960,4
53719,113953,6
53722,113953,4
53718,113936,5
53716,113939,5
53707,113927,6
53709,113926,3
53713,113927,5
53700,113912,5
53698,113898,5
53693,113898,4
53674,113885,5
53686,113880,5
53686,113862,5
53685,113856,5
53662,113868,4
53681,113851,5
53672,113855,5
53676,113850,5
53660,113850,5
53659,113848,4
53673,113856,5
53677,113850,5
53675,113854,5
53677,113856,4
53674,113848,4
53676,113849,6
53702,113843,4
53669,113846,5
53671,113843,4
53663,113837,5
53686,113829,5
53668,113833,5
53661,113829,5
53654,113823,4
53668,113822,5
53662,113823,5
53658,113816,5
53654,113806,5
53657,113800,4
53664,113802,5
53653,113804,5
53654,113800,5
53658,113787,5
53646,113810,4
53642,113801,5
53647,113796,5
53652,113778,5
53647,113804,5
53643,113800,4
53632,113791,5
53632,113777,6
53641,113771,4
53628,113772,4
53629,113767,4
53635,113772,5
53621,113753,5
53624,113746,5
53615,113737,4
53608,113745,5
53617,113720,5
53611,113718,5
53606,113717,5
53605,113724,4
53601,113708,5
53604,113704,5
53591,113688,5
53596,113698,5
53594,113690,4
53600,113696,5
53603,113695,5
53598,113686,5
53593,113684,5
53589,113666,4
53588,113673,5
53573,113653,5
53572,113654,6
53577,113652,4
53577,113653,4
53568,113649,5
53569,113647,5
53567,113642,5
53572,113639,4
53575,113632,4
53568,113643,5
53572,113639,5
53569,113636,5
53568,113635,4
53575,113649,5
53586,113655,5
53592,113661,5
53584,113669,5
53593,113674,4
53589,113671,5
53574,113661,5
53579,113659,5
53568,113641,5
53566,113606,5
53541,113581,4
53541,113580,5
53535,113571,5
53527,113560,5
53526,113546,4
53509,113531,5
53512,113529,5
53515,113525,5
53511,113524,5
53522,113533,4
53515,113542,5
53520,113537,5
53520,113535,5
53525,113534,4
53511,113540,4
53510,113533,5
53518,113536,5
53519,113539,5
53518,113523,4
53512,113528,5
53517,113526,5
53513,113545,5
53522,113529,5
53515,113524,4
53517,113514,6
53510,113508,4
53511,113513,5
53508,113505,5
53509,113503,4
53510,113502,5
53502,113500,5
53499,113494,5
53496,113487,5
53495,113495,4
53498,113492,5
53503,113490,5
53501,113488,5
53505,113486,5
53495,113490,4
53495,113486,5
53498,113485,5
53489,113482,5
53488,113473,4
53483,113463,4
53485,113463,5
53482,113469,5
53484,113464,5
53485,113485,4
53493,113471,5
53493,113472,6
53484,113483,4
53491,113473,5
53490,113488,4
53494,113485,5
53477,113489,5
53495,113490,5
53506,113495,5
53495,113496,4
53478,113496,5
53498,113508,5
53496,113497,5
53502,113502,5
53497,113496,4
53502,113502,5
53501,113497,5
53501,113506,5
53520,113508,5
53512,113512,4
53511,113509,5
53509,113501,5
53525,113514,5
53498,113510,4
53501,113509,4
53509,113509,5
53513,113508,6
53501,113517,4
53500,113514,4
53504,113513,5
53501,113506,5
53505,113500,5
53498,113504,5
53506,113516,4
53498,113492,5
53502,113506,5
53500,113508,5
53489,113507,5
53496,113483,4
53494,113493,5
53499,113486,5
53496,113505,5
53493,113468,5
53489,113495,5
53497,113492,4
53501,113493,5
53500,113498,5
53502,113490,6
53492,113496,3
53495,113494,5
53498,113517,5
53495,113488,5
53500,113500,4
53494,113497,4
53501,113508,5
53498,113493,5
53496,113495,5
53503,113502,4
53500,113511,5
53505,113506,5
53506,113512,5
53507,113514,5
53511,113512,4
53509,113524,5
53505,113516,5
53499,113508,5
53501,113497,5
53488,113491,4
53492,113487,5
53491,113481,5
53482,113467,5
53486,113448,5
53475,113453,5
53475,113459,4
53476,113461,5
53480,113449,5
53473,113466,5
53476,113478,4
53479,113458,5
53484,113467,5
53482,113472,5
53487,113483,4
53494,113483,4
53494,113482,5
53495,113489,5
53492,113487,5
53490,113485,4
53495,113489,5
53501,113498,5
53500,113488,5
53504,113492,5
53497,113487,4
53494,113493,5
53490,113484,5
53485,113493,5
53496,113494,5
53497,113500,4
53511,113502,6
53500,113511,4
53505,113521,5
53499,113509,5
53500,113518,4
53511,113523,5
53510,113529,5
53505,113521,5
53512,113519,5
53511,113522,4
53514,113524,5
53518,113532,5
53519,113532,5
53515,113543,4
53519,113550,4
53517,113559,5
53532,113553,5
53528,113568,5
53524,113566,4
53532,113569,5
53539,113569,5
53528,113573,5
53541,113577,5
53539,113588,4
53534,113589,5
53542,113597,5
53540,113590,5
53544,113598,5
53550,113599,4
53547,113605,5
53558,113604,5
53552,113615,5
53555,113625,5
53566,113625,4
53552,113617,5
53560,113624,5
53568,113640,5
53581,113650,5
53569,113650,4
53576,113658,5
53577,113655,5
53584,113665,5
53585,113667,4
53583,113669,4
53588,113675,5
53585,113671,5
53569,113680,5
53578,113675,3
53585,113681,5
53595,113677,5
53569,113675,7
53596,113685,3
53592,113682,4
53591,113693,5
53581,113685,5
53599,113691,5
53603,113705,5
53599,113708,4
53608,113715,5
53609,113715,5
53606,113710,5
53613,113721,5
53630,113723,4
53613,113720,5
53613,113737,5
53629,113760,5
53643,113776,5
53640,113790,5
53649,113798,4
53641,113799,5
53661,113807,5
53643,113815,6
53652,113812,3
53648,113805,5
53643,113792,5
53634,113791,5
53634,113787,4
53633,113778,5
53631,113771,5
53634,113771,5
53634,113790,5
53639,113784,4
53641,113766,5
53642,113790,5
53642,113802,5
53637,113810,5
53646,113808,4
53660,113815,5
53651,113817,5
53651,113821,5
53658,113846,5
53657,113835,4
53667,113837,6
53664,113841,4
53668,113876,5
53681,113854,5
53677,113849,6
53680,113857,3
53669,113873,5
53677,113861,5
53681,113858,5
53678,113868,4
53676,113869,5
53680,113874,5
53690,113874,5
53684,113878,4
53684,113884,4
53688,113887,5
53685,113886,5
53689,113891,5
53691,113899,4
53693,113895,5
53693,113885,5
53691,113880,5
53695,113897,5
53688,113882,4
53682,113885,5
53695,113900,6
53693,113900,4
53696,113907,5
53698,113907,4
53702,113912,5
53705,113919,5
53705,113927,5
53709,113927,5
53718,113943,4
53715,113951,5
53717,113955,5
53717,113962,5
53734,113975,5
53731,113974,4
53736,113996,5
53739,113996,5
53741,114009,5
53754,114010,4
53751,114013,4
53757,114028,5
53754,114034,5
53750,114022,5
53758,114028,4
53757,114044,5
53762,114055,5
53768,114046,6
53774,114065,4
53775,114071,4
53782,114078,5
53784,114080,5
53776,114080,5
53782,114084,5
53787,114085,4
53779,114079,5
53786,114079,5
53784,114088,5
53782,114077,5
53783,114081,4
53786,114080,5
53781,114084,5
53785,114091,5
53790,114093,5
53794,114105,4
53797,114122,5
53803,114129,5
53810,114130,5
53820,114150,5
53823,114174,4
53836,114190,5
53844,114206,5
53843,114213,6
53841,114208,3
53851,114210,5
53841,114211,5
53846,114214,5
53852,114190,5
53830,114189,4
53833,114196,5
53832,114184,5
53827,114178,5
53825,114169,5
53831,114186,4
53839,114194,5
53843,114203,5
53838,114212,5
53855,114227,5
53848,114226,4
53857,114234,5
53858,114245,5
53862,114251,5
53856,114257,5
53870,114257,5
53875,114263,4
53874,114276,5
53850,114275,5
53873,114275,6
53881,114284,3
53876,114281,5
53878,114270,5
53869,114277,5
53877,114267,4
53873,114267,5
53891,114273,5
53879,114278,5
53882,114273,5
53884,114276,4
53910,114274,5
53892,114309,5
53896,114305,5
53889,114318,5
53906,114314,4
53901,114306,5
53905,114318,5
53901,114318,5
53899,114316,5
53898,114310,4
53902,114312,6
53911,114326,4
53902,114313,5
53908,114333,5
53899,114330,4
53908,114346,5
53917,114331,5
53917,114355,5
53910,114350,4
53926,114365,4
53922,114354,5
53915,114370,5
53925,114378,5
53933,114383,4
53934,114397,5
53936,114404,5
53935,114416,5
53943,114412,5
53958,114448,4
53954,114434,5
53962,114448,5
53971,114453,5
53964,114476,5
53971,114459,4
53969,114461,5
53971,114469,6
53975,114473,4
53984,114469,5
53973,114468,4
53971,114469,5
53965,114477,5
53971,114485,5
53971,114481,5
53984,114490,4
53981,114474,5
53982,114482,5
53981,114478,5
53974,114488,4
53981,114472,4
53978,114489,5
53989,114486,5
53983,114496,5
53985,114491,4
53983,114493,5
53986,114488,5
53990,114507,5
53996,114523,5
54011,114525,4
54007,114550,5
54017,114552,5
54021,114553,6
54014,114554,4
54011,114543,4
54010,114551,5
54003,114529,5
54002,114526,5
54001,114526,5
53992,114518,4
53997,114515,5
53999,114519,5
53998,114527,5
54005,114541,5
54004,114533,4
54016,114541,5
54020,114561,5
54014,114562,5
54024,114565,4
54023,114565,4
54023,114560,5
54027,114569,5
54022,114578,5
54024,114583,5
54033,114579,4
54037,114579,5
54019,114576,5
54028,114577,5
54030,114578,4
54027,114571,5
54028,114573,5
54022,114562,5
54025,114564,5
54023,114559,4
54021,114570,5
54022,114568,5
54021,114564,5
54027,114573,5
54023,114557,4
54023,114568,5
54023,114569,5
54024,114560,5
54028,114554,5
54023,114569,4
54023,114554,5
54013,114552,5
54012,114539,5
54009,114543,4
54005,114541,5
54006,114536,4
54010,114538,5
54011,114539,5
54013,114536,4
54010,114532,5
54008,114527,5
54003,114528,5
54007,114530,5
54007,114526,4
54010,114531,5
54012,114529,5
54015,114536,5
54011,114528,5
54004,114532,4
53996,114541,5
54010,114532,5
54007,114534,5
54000,114541,5
53995,114536,4
54002,114538,5
53999,114535,5
54009,114530,5
53983,114535,5
54005,114525,4
54003,114529,6
53998,114529,4
54011,114532,5
53999,114530,5
53998,114516,4
54002,114529,5
54005,114522,5
53996,114509,5
53995,114510,4
53989,114514,5
54011,114510,5
53988,114505,5
53989,114510,5
53993,114507,4
53999,114505,5
53990,114496,5
53981,114495,5
53982,114491,5
53994,114500,4
53999,114515,5
53996,114522,5
54003,114526,5
54005,114515,5
53992,114523,4
53993,114529,5
53996,114522,6
53994,114491,4
53981,114498,5
53980,114470,4
53965,114456,5
53966,114438,5
53960,114430,5
53956,114424,5
53943,114398,4
53951,114422,5
53950,114417,5
53946,114426,5
53947,114418,4
53952,114437,5
53941,114417,5
53947,114411,5
53945,114403,5
53947,114418,4
53949,114407,5
53943,114406,5
53947,114403,5
53940,114406,5
53934,114398,4
53932,114388,5
53936,114384,5
53932,114368,5
53916,114356,5
53922,114352,4
53914,114349,5
53911,114344,5
53913,114342,5
53907,114342,5
53910,114340,4
53913,114335,5
53914,114343,5
53913,114344,5
53911,114347,5
53909,114336,4
53911,114330,5
53912,114332,5
53902,114328,5
53904,114315,4
53895,114318,4
53891,114308,5
53898,114296,5
53888,114290,5
53881,114282,5
53881,114283,4
53878,114267,5
53873,114266,5
53879,114262,5
53876,114257,4
53875,114252,5
53875,114255,5
53870,114256,5
53876,114269,5
53873,114262,4
53879,114276,5
53884,114281,5
53875,114274,5
53876,114294,5
53887,114279,4
53875,114286,5
53879,114295,5
53879,114283,5
53881,114287,5
53882,114282,4
53884,114283,5
53884,114286,4
53886,114278,5
53875,114288,4
53890,114292,5
53883,114288,3
53884,114278,5
53890,114275,5
53884,114284,4
53880,114280,5
53881,114278,5
53886,114282,5
53874,114274,5
53883,114278,4
53869,114279,5
53869,114271,5
53869,114268,5
53873,114272,5
53880,114267,4
53870,114262,5
53869,114262,5
53868,114261,5
53869,114255,5
53866,114251,4
53859,114254,5
53864,114250,6
53866,114251,4
53866,114255,5
53865,114251,4
53861,114242,5
53859,114244,5
53861,114254,5
53871,114240,4
53868,114244,4
53865,114245,5
53852,114235,5
53861,114229,5
53859,114237,4
53863,114226,5
53838,114223,5
53856,114221,5
53860,114229,9
53842,114196,5
53842,114196,5
53835,114200,5
53842,114193,5
53831,114198,4
53834,114205,5
53852,114195,5
53839,114196,6
53843,114190,4
53832,114192,4
53863,114183,5
53842,114183,5
53840,114176,5
53826,114175,5
53851,114178,4
53832,114181,5
53829,114172,5
53833,114175,5
53836,114169,4
53820,114159,4
53828,114157,5
53827,114159,5
53821,114137,5
53815,114153,4
53813,114148,5
53807,114150,5
53811,114119,5
53808,114142,5
53810,114130,5
53806,114137,4
53813,114121,5
53812,114130,5
53810,114121,6
53797,114123,4
53802,114121,4
53798,114108,5
53791,114110,5
53800,114105,5
53792,114122,4
53794,114092,5
53786,114076,5
53774,114074,5
53774,114081,5
53768,114052,4
53780,114056,5
53767,114058,5
53779,114071,5
53772,114056,4
53773,114058,4
53770,114055,5
53774,114050,5
53761,114053,5
53766,114040,4
53761,114044,6
53768,114036,4
53761,114022,5
53755,114023,5
53750,114031,6
53760,114047,3
53761,114045,5
53767,114047,5
53773,114053,5
53768,114052,4
53774,114053,5
53774,114043,5
53756,114030,5
53745,114011,5
53743,114002,4
53737,113993,5
53741,113993,5
53740,113987,5
53736,113974,5
53730,113979,4
53731,113977,5
53734,113983,5
53742,113981,5
53745,113992,4
53738,113989,4
53744,113987,6
53744,113988,4
53739,113971,5
53742,113983,4
53745,113984,5
53737,113991,5
53735,113978,5
53729,113976,5
53732,113989,4
53734,113976,5
53731,113976,5
53735,113973,5
53729,113971,5
53715,113955,4
53714,113953,5
53720,113944,5
53711,113938,5
53708,113939,5
53714,113951,4
53712,113940,5
53708,113939,5
53710,113930,5
53705,113924,5
53704,113914,4
53701,113923,5
53705,113914,6
53693,113906,4
53697,113911,4
53704,113900,4
53700,113900,5
53689,113897,5
53688,113881,5
53686,113885,4
53684,113879,5
53684,113875,5
53692,113883,5
53692,113885,5
53691,113886,4
53690,113881,5
53688,113890,5
53687,113887,5
53692,113885,5
53684,113889,4
53684,113883,5
53689,113877,5
53688,113880,5
53691,113878,5
53681,113877,4
53685,113875,5
53686,113875,5
53676,113871,6
53681,113878,4
53692,113877,4
53676,113895,5
53681,113878,5
53688,113886,5
53680,113876,4
53661,113865,4
53672,113857,5
53672,113861,5
53660,113836,5
53649,113839,4
53660,113831,5
53653,113813,5
53659,113814,5
53661,113805,5
53650,113811,4
53647,113787,5
53636,113785,5
53652,113786,5
53637,113775,5
53637,113772,5
53634,113758,4
53652,113762,5
53625,113756,5
53616,113752,6
53619,113735,3
53624,113732,5
53613,113710,5
53611,113715,5
53601,113710,5
53595,113683,4
53587,113680,5
53581,113665,5
53587,113665,5
53582,113641,4
53568,113658,4
53571,113643,5
53578,113652,5
53573,113635,5
53567,113644,4
53581,113654,5
53575,113651,5
53575,113650,5
53570,113645,5
53572,113652,4
53570,113658,6
53579,113668,4
53572,113651,5
53577,113651,5
53574,113642,4
53576,113676,5
53578,113656,5
53580,113654,5
53584,113672,5
53583,113695,4
53591,113688,5
53591,113688,5
53600,113699,5
53585,113695,5
53600,113698,4
53587,113696,5
53595,113670,5
53578,113656,5
53570,113652,4
53570,113642,4
53563,113628,5
53564,113628,5
53558,113625,5
53552,113620,4
53561,113619,5
53559,113615,6
53555,113622,4
53556,113629,5
53572,113642,4
53568,113632,5
53569,113629,5
53575,113635,5
53569,113640,5
53569,113641,4
53556,113627,5
53557,113640,5
53561,113631,5
53568,113628,5
53567,113634,4
53568,113617,5
53555,113626,5
53548,113614,5
53560,113607,5
53547,113606,4
53551,113603,5
53549,113601,5
53549,113602,5
53555,113602,4
53550,113596,5
53551,113601,5
53546,113591,6
53550,113598,4
53548,113610,4
53544,113598,5
53549,113592,5
53539,113591,5
53540,113586,5
53536,113587,4
53541,113577,5
53531,113566,5
53525,113565,5
53527,113561,5
53527,113559,4
53533,113573,5
53523,113571,5
53534,113574,5
53536,113575,5
53523,113573,4
53528,113575,5
53529,113573,5
53530,113571,5
53526,113565,5
53528,113570,4
53525,113565,5
53527,113570,5
53529,113562,5
53527,113567,4
53533,113557,5
53527,113564,5
53533,113566,5
53525,113570,5
53534,113573,4
53527,113582,5
53532,113577,5
53537,113580,5
53536,113577,5
53545,113587,4
53540,113591,5
53535,113592,5
53536,113577,5
53531,113584,5
53538,113576,4
53537,113569,5
53529,113565,5
53527,113560,5
53529,113555,5
53521,113560,5
53524,113549,4
53505,113556,5
53519,113551,5
53520,113549,4
53520,113548,4
53504,113556,5
53527,113544,5
53519,113553,5
53516,113558,4
53517,113556,5
53526,113549,5
53517,113554,5
53524,113555,5
53539,113556,4
53522,113555,5
53533,113557,5
53529,113565,5
53552,113569,5
53535,113575,4
53538,113582,5
53551,113586,6
53550,113593,4
53542,113589,5
53539,113576,4
53538,113582,6
53534,113574,4
53530,113560,5
53529,113566,5
53526,113572,4
53518,113539,5
53527,113549,5
53521,113559,5
53528,113568,4
53528,113539,4
53526,113558,5
53530,113566,5
53533,113577,5
53533,113571,4
53542,113591,5
53549,113595,5
53537,113591,5
53544,113595,5
53544,113592,4
53539,113598,5
53533,113587,5
53543,113611,5
53542,113594,5
53543,113587,4
53545,113584,5
53541,113613,5
53535,113581,5
53540,113588,5
53538,113589,4
53535,113602,5
53549,113602,5
53549,113605,5
53552,113615,5
53563,113611,4
53554,113626,5
53558,113631,5
53558,113625,5
53562,113628,4
53555,113638,4
53556,113637,5
53565,113634,5
53560,113633,5
53558,113626,4
53561,113633,5
53558,113634,5
53559,113647,5
53567,113652,5
53572,113668,4
53580,113668,5
53587,113672,5
53582,113671,5
53579,113694,5
53585,113704,4
53594,113702,5
53596,113707,5
53598,113712,5
53602,113715,5
53606,113726,4
53603,113735,5
53614,113753,5
53616,113755,5
53622,113754,5
53615,113760,4
53623,113774,5
53630,113780,5
53629,113785,5
53632,113790,4
53635,113782,5
53649,113799,4
53642,113803,5
53648,113814,5
53646,113814,6
53653,113821,3
53654,113818,5
53654,113824,5
53642,113813,5
53653,113814,4
53653,113816,5
53655,113815,5
53652,113820,5
53653,113825,5
53659,113836,4
53664,113822,5
53669,113844,5
53662,113848,5
53673,113848,5
53680,113866,4
53677,113867,5
53679,113884,5
53682,113903,5
53701,113914,4
53698,113938,4
53708,113940,6
53711,113948,4
53722,113947,5
53720,113941,4
53714,113943,7
53713,113946,3
53698,113928,5
53692,113916,5
53703,113922,4
53691,113912,5
53703,113912,5
53699,113910,5
53708,113914,5
53699,113929,4
53702,113936,5
53716,113930,5
53716,113941,5
53715,113956,5
53724,113961,4
53723,113965,5
53718,113963,5
53726,113973,5
53705,113976,5
53730,113971,4
53727,113985,5
53736,113978,6
53707,113987,4
53731,113989,4
53739,113999,4
53738,114002,7
53728,113993,3
53740,114004,5
53743,113998,4
53741,114003,5
53756,114011,5
53746,114014,5
53749,114021,5
53747,114022,4
53766,114024,5
53753,114039,5
53757,114035,5
53760,114028,5
53773,114038,4
53757,114047,5
53761,114030,5
53757,114042,5
53767,114046,5
53755,114046,4
53754,114045,5
53764,114057,5
53774,114048,6
53768,114074,4
53777,114075,4
53786,114076,5
53776,114075,5
53780,114090,5
53785,114107,4
53793,114105,5
53793,114077,5
53786,114111,5
53796,114121,5
53796,114136,5
53810,114138,4
53805,114142,5
53811,114150,5
53819,114159,5
53820,114188,4
53823,114165,5
53821,114170,5
53818,114173,5
53830,114190,5
53826,114167,5
53818,114170,4
53827,114172,5
53827,114179,5
53831,114176,6
53824,114186,3
53845,114191,5
53837,114199,5
53833,114196,5
53837,114210,4
53847,114206,4
53843,114216,5
53851,114208,5
53837,114218,5
53845,114224,4
53848,114228,5
53847,114222,5
53847,114213,5
53841,114224,5
53855,114223,4
53856,114235,5
53845,114235,5
53855,114243,5
53864,114255,5
53876,114275,4
53883,114287,6
53875,114281,4
53879,114283,5
53879,114276,5
53881,114281,4
53870,114283,5
53873,114270,5
53865,114255,5
53869,114254,5
53859,114255,4
53860,114238,5
53853,114230,5
53857,114231,5
53858,114242,4
53859,114244,4
53861,114246,5
53875,114272,5
53866,114258,5
53867,114265,4
53871,114274,5
53866,114268,5
53870,114261,5
53872,114267,5
53874,114277,4
53880,114283,5
53880,114285,6
53877,114275,4
53879,114281,5
53888,114306,4
53883,114298,5
53881,114307,5
53890,114304,5
53892,114306,5
53895,114315,4
53896,114307,5
53898,114328,5
53905,114322,5
53902,114330,4
53901,114335,4
53907,114345,5
53911,114361,5
53913,114356,5
53917,114362,4
53913,114367,5
53914,114367,5
53916,114363,5
53916,114374,5
53921,114370,4
53931,114393,5
53930,114401,5
53936,114411,6
53951,114422,4
53954,114440,4
53949,114444,5
53958,114454,5
53959,114461,5
53959,114466,5
53970,114475,4
53970,114473,5
53966,114476,5
53980,114481,5
53976,114486,5
53983,114482,4
53970,114494,5
53986,114493,5
53979,114494,5
53985,114508,4
53966,114514,4
53990,114531,5
53996,114535,5
53998,114534,5
53987,114532,5
53998,114541,4
54000,114529,5
54003,114550,5
54007,114545,6
54012,114546,3
54014,114547,5
54013,114549,5
54041,114556,5
54023,114565,5
54014,114572,4
54017,114582,5
54043,114581,5
54033,114588,5
54029,114587,5
54020,114598,4
54039,114593,5
54038,114595,5
54036,114613,5
54046,114617,4
54062,114621,4
54056,114639,5
54061,114646,5
54062,114661,5
54067,114640,4
54082,114672,6
54075,114678,4
54066,114672,5
54076,114648,5
54066,114670,4
54069,114662,5
54058,114643,5
54059,114635,5
54058,114635,5
54046,114622,4
54052,114628,5
54046,114639,5
54048,114630,5
54054,114649,5
54064,114659,4
54068,114683,5
54074,114668,5
54075,114674,5
54079,114677,5
54076,114687,4
54073,114671,5
54076,114669,5
54077,114675,5
54078,114683,4
54087,114688,4
54080,114682,6
54082,114687,4
54075,114680,5
54075,114678,4
54079,114688,5
54071,114673,5
54071,114672,5
54073,114673,5
54075,114672,4
54076,114670,5
54079,114677,5
54074,114669,5
54082,114674,5
54073,114680,4
54076,114691,5
54078,114681,5
54078,114681,5
54074,114685,5
54081,114688,4
54080,114684,5
54073,114679,5
54074,114673,5
54075,114683,5
54081,114692,4
54083,114700,5
54087,114698,6
54081,114706,4
54079,114703,4
54088,114696,4
54089,114704,5
54081,114697,5
54091,114702,5
54086,114705,4
54080,114703,5
54083,114707,5
54092,114700,5
54087,114713,5
54090,114715,4
54094,114716,5
54091,114714,5
54091,114717,5
54086,114707,5
54091,114719,4
54091,114714,5
54081,114716,5
54087,114704,5
54094,114708,5
54092,114704,4
54091,114693,5
54081,114695,5
54073,114693,5
54078,114686,5
54070,114676,4
54078,114690,5
54076,114685,5
54076,114681,5
54077,114684,4
54068,114673,4
54066,114682,5
54072,114666,5
54069,114670,5
54071,114659,4
54066,114655,5
54058,114643,5
54055,114635,5
54061,114638,5
54050,114638,4
54050,114620,5
54042,114622,5
54045,114612,5
54043,114620,5
54043,114617,5
54035,114615,4
54036,114601,5
54037,114590,5
54032,114592,5
54024,114576,4
54023,114549,5
53999,114531,5
53994,114509,5
53982,114503,5
53987,114482,4
53974,114483,5
53957,114478,5
53972,114490,5
53975,114477,4
53974,114480,4
53962,114486,5
53975,114472,5
53970,114470,5
53974,114463,4
53972,114458,5
53965,114459,5
53968,114450,5
53962,114451,5
53975,114452,4
53959,114436,6
53971,114441,4
53948,114446,5
53980,114436,5
53954,114428,4
53946,114423,5
53943,114410,5
53948,114403,5
53927,114394,5
53926,114385,4
53929,114372,5
53929,114370,5
53916,114367,5
53926,114344,4
53919,114351,4
53917,114330,5
53900,114341,5
53901,114321,5
53893,114300,5
53889,114271,4
53881,114280,5
53877,114274,5
53870,114269,5
53881,114249,4
53873,114263,5
53869,114258,6
53876,114260,4
53873,114270,5
53871,114257,4
53868,114254,5
53867,114241,5
53856,114264,5
53863,114235,5
53860,114234,4
53855,114224,5
53861,114247,5
53862,114242,5
53862,114222,5
53855,114226,4
53853,114237,5
53848,114238,5
53861,114230,5
53855,114243,4
53862,114236,4
53861,114235,5
53856,114237,5
53855,114236,6
53858,114236,3
53858,114239,5
53860,114233,5
53863,114234,5
53867,114236,5
53858,114237,4
53860,114237,5
53855,114226,5
53859,114237,5
53857,114232,5
53851,114229,4
53850,114212,5
53850,114214,5
53852,114208,5
53850,114205,5
53853,114195,4
53841,114202,5
53839,114193,5
53845,114196,5
53839,114188,5
53837,114192,5
53828,114189,4
53833,114183,5
53837,114179,5
53823,114174,6
53823,114165,3
53823,114167,5
53827,114166,5
53812,114154,5
53815,114156,4
53818,114149,5
53818,114159,5
53814,114144,5
53812,114138,5
53805,114148,4
53808,114144,5
53815,114142,5
53811,114141,5
53804,114129,5
53802,114132,4
53803,114132,5
53798,114121,5
53802,114119,5
53807,114122,5
53803,114121,4
53797,114112,6
53791,114100,4
53788,114100,5
53785,114093,5
53786,114089,6
53783,114094,3
53798,114090,5
53789,114090,5
53779,114093,4
53790,114088,5
53782,114086,5
53786,114094,5
53790,114089,5
53795,114096,4
53789,114107,5
53794,114103,5
53799,114099,5
53787,114089,5
53779,114083,4
53784,114074,5
53771,114057,5
53761,114033,5
53751,114004,5
53740,113977,4
53720,113971,5
53724,113955,6
53718,113944,4
53711,113927,5
53702,113934,4
53709,113934,5
53709,113937,5
53712,113946,5
53699,113942,4
53717,113942,4
53705,113933,5
53715,113934,5
53691,113930,5
53712,113931,4
53718,113926,5
53710,113931,5
53710,113921,5
53701,113927,9
53699,113928,5
53703,113906,5
53717,113907,5
53695,113897,5
53683,113884,4
53687,113886,5
53695,113863,5
53680,113864,6
53678,113858,4
53674,113859,4
53679,113849,5
53667,113849,5
53663,113851,5
53659,113840,5
53674,113839,4
53658,113822,5
53656,113834,5
53654,113832,5
53661,113806,4
53658,113819,4
53651,113819,5
53657,113820,5
53657,113804,5
53659,113823,4
53657,113823,5
53659,113824,5
53662,113812,5
53654,113819,5
53653,113820,5
53645,113801,4
53649,113809,5
53653,113791,5
53646,113792,6
53641,113811,3
53652,113832,5
53642,113816,5
53648,113817,5
53648,113806,5
53646,113827,4
53647,113803,5
53647,113817,5
53643,113809,5
53636,113812,5
53641,113798,4
53640,113800,5
53643,113799,5
53639,113798,5
53640,113792,4
53638,113790,4
53637,113793,5
53633,113785,5
53635,113777,5
53631,113781,4
53630,113780,6
53640,113790,4
53631,113777,5
53632,113777,5
53632,113773,4
53632,113774,5
53633,113772,5
53626,113779,5
53628,113772,5
53631,113772,4
53627,113768,5
53634,113768,5
53624,113759,5
53628,113750,5
53622,113757,4
53623,113760,5
53627,113759,5
53616,113759,5
53617,113750,4
53619,113747,4
53620,113757,5
53621,113757,5
53624,113756,5
53616,113747,4
53613,113743,5
53615,113739,6
53616,113748,4
53614,113735,5
53612,113730,4
53613,113744,5
53611,113744,5
53613,113742,5
53615,113741,5
53613,113734,4
53613,113739,5
53601,113738,5
53598,113723,5
53612,113729,5
53602,113723,4
53603,113716,5
53606,113716,5
53599,113725,5
53596,113725,5
53601,113722,4
53610,113720,5
53601,113722,5
53604,113724,5
53605,113721,4
53610,113725,4
53600,113728,5
53613,113725,6
53612,113721,4
53599,113723,4
53607,113716,5
53602,113724,5
53606,113729,5
53601,113731,5
53600,113713,4
53610,113717,5
53599,113725,5
53603,113722,5
53598,113720,5
53596,113713,4
53596,113700,5
53598,113698,5
53585,113689,5
53596,113685,5
53583,113684,4
53583,113692,5
53577,113684,5
53570,113684,5
53583,113684,5
53580,113683,4
53579,113678,5
53568,113675,5
53586,113680,6
53583,113681,3
53579,113677,5
53567,113680,5
53581,113693,5
53593,113694,5
53598,113714,4
53596,113708,5
53604,113713,5
53602,113703,5
53585,113697,5
53610,113687,4
53580,113676,5
53571,113650,5
53554,113636,5
53586,113625,5
53557,113623,4
53547,113616,5
53544,113600,5
53559,113597,5
53538,113599,5
53539,113604,5
53538,113601,4
53550,113603,5
53541,113609,5
53553,113615,4
53554,113616,4
53552,113599,5
53542,113607,5
53541,113614,5
53546,113605,4
53550,113585,5
53548,113604,5
53555,113612,5
53547,113610,5
53544,113593,4
53550,113605,5
53546,113603,5
53538,113595,5
53537,113608,5
53534,113599,4
53541,113587,5
53532,113585,5
53539,113608,5
53539,113576,5
53540,113592,4
53536,113582,6
53531,113606,4
53528,113578,5
53533,113581,5
53528,113578,4
53530,113571,5
53524,113571,5
53522,113557,5
53516,113548,4
53516,113535,4
53520,113533,5
53506,113541,5
53511,113547,5
53518,113547,4
53518,113563,5
53521,113559,5
53516,113566,5
53516,113575,5
53529,113571,4
53525,113568,5
53527,113571,5
53526,113578,5
53529,113582,5
53536,113589,4
53540,113604,5
53543,113595,6
53547,113602,4
53545,113610,5
53551,113618,4
53546,113628,5
53551,113628,5
53568,113630,5
53559,113627,5
53558,113630,4
53566,113643,5
53562,113636,5
53559,113647,5
53564,113635,4
53563,113640,5
53567,113630,5
53560,113643,5
53558,113633,5
53556,113644,4
53563,113641,5
53566,113640,5
53562,113647,5
53565,113660,5
53571,113647,4
53568,113659,5
53581,113683,5
53589,113689,5
53591,113703,5
53585,113697,4
53591,113692,5
53585,113713,5
53597,113718,5
53586,113714,5
53599,113705,4
53592,113706,5
53604,113713,5
53599,113718,5
53595,113729,4
53597,113732,4
53606,113745,5
53611,113758,5
53622,113756,5
53619,113759,4
53626,113783,5
53628,113782,5
53640,113799,5
53647,113804,5
53653,113823,5
53657,113837,4
53666,113856,5
53666,113864,5
53678,113875,5
53676,113871,4
53674,113870,5
53674,113871,5
53679,113863,5
53669,113858,5
53661,113843,4
53658,113833,5
53658,113832,5
53654,113817,5
53658,113823,5
53650,113834,4
53650,113835,5
53665,113838,5
53658,113853,5
53659,113862,4
53665,113863,4
53672,113877,6
53680,113876,4
53662,113884,5
53681,113888,4
53689,113900,6
53688,113899,4
53685,113898,5
53684,113898,5
53691,113899,4
53690,113899,5
53702,113903,5
53688,113901,5
53687,113903,5
53694,113886,4
53708,113900,5
53692,113901,5
53683,113907,5
53687,113904,5
53701,113902,4
53696,113909,5
53699,113916,5
53701,113934,5
53707,113931,5
53703,113938,4
53711,113942,5
53717,113948,5
53719,113941,5
53722,113954,4
53717,113941,4
53711,113957,6
53717,113933,4
53715,113964,5
53716,113962,5
53733,113972,4
53728,113970,5
53734,113988,5
53728,113998,5
53739,114001,4
53735,114001,5
53745,113996,5
53744,114007,5
53740,114008,5
53746,114033,4
53753,114021,5
53743,114031,5
53747,114032,5
53749,114060,5
53759,114042,4
53756,114054,5
53769,114058,5
53774,114084,5
53769,114079,3
53777,114082,4
53776,114086,5
53780,114087,5
53787,114095,5
53790,114097,4
53787,114111,5
53797,114118,5
53792,114127,5
53798,114132,5
53810,114137,4
53799,114148,5
53805,114141,5
53804,114136,5
53805,114137,5
53807,114149,4
53809,114149,5
53809,114147,5
53809,114141,5
53810,114160,5
53820,114160,5
53819,114173,4
53819,114168,5
53829,114179,5
53826,114185,6
53835,114196,3
53830,114191,5
53828,114211,5
53843,114215,5
53852,114231,4
53859,114245,4
53868,114278,5
53874,114295,5
53882,114305,5
53890,114318,4
53900,114319,5
53900,114333,5
53895,114330,5
53910,114338,5
53900,114333,4
53898,114317,5
53888,114305,5
53888,114303,5
53884,114300,5
53892,114294,4
53885,114300,6
53892,114303,4
53897,114310,5
53889,114327,5
53897,114338,6
53898,114344,3
53910,114350,5
53914,114355,5
53921,114361,5
53915,114373,4
53923,114374,5
53923,114385,5
53927,114396,5
53927,114401,4
53934,114397,4
53938,114399,5
53934,114398,5
53934,114384,5
53931,114384,4
53932,114377,5
53930,114387,5
53921,114390,5
53925,114388,5
53935,114398,4
53934,114394,5
53936,114405,6
53938,114411,4
53946,114425,5
53943,114415,4
53947,114432,5
53939,114418,5
53938,114421,5
53943,114407,5
53939,114407,4
53936,114396,5
53933,114396,5
53928,114397,5
53937,114401,5
53941,114412,4
53930,114433,5
53945,114430,5
53946,114425,5
53960,114453,4
53934,114458,5
53964,114471,5
53963,114472,5
53979,114482,5
53959,114496,4
53976,114489,5
53983,114493,5
53980,114504,6
54000,114507,4
53989,114514,4
53990,114530,5
54001,114531,7
54025,114545,3
54004,114551,5
54000,114542,4
54015,114556,5
54030,114567,5
54015,114563,5
54017,114566,5
54020,114585,4
54026,114580,5
54018,114576,5
54029,114585,5
54034,114593,4
54030,114577,4
54029,114602,5
54036,114615,5
54040,114605,5
54030,114597,5
54036,114611,4
54037,114605,5
54036,114612,5
54034,114593,6
54039,114618,3
54034,114607,5
54041,114612,5
54044,114613,5
54037,114616,5
54044,114629,4
54049,114643,5
54066,114669,5
54064,114662,5
54060,114680,5
54066,114679,4
54073,114699,5
54065,114681,5
54074,114682,5
54076,114668,5
54057,114679,4
54067,114657,5
54072,114669,5
54062,114662,5
54067,114660,4
54059,114666,5
54070,114659,4
54065,114668,5
54074,114684,5
54077,114692,6
54086,114706,3
54087,114698,5
54079,114698,5
54091,114703,5
54084,114715,4
54090,114716,5
54096,114722,5
54100,114741,5
54093,114743,5
54107,114752,4
54111,114762,5
54108,114776,5
54109,114768,5
54116,114766,5
54111,114782,4
54116,114786,5
54115,114770,5
54126,114781,5
54128,114779,5
54122,114788,4
54127,114790,6
54117,114799,4
54132,114796,5
54129,114803,4
54138,114805,4
54134,114798,5
54134,114813,5
54137,114813,5
54145,114814,4
54135,114808,5
54139,114809,5
54143,114816,5
54139,114814,5
54132,114822,4
54139,114830,5
54146,114833,5
54149,114835,5
54141,114834,5
54149,114828,4
54156,114835,5
54148,114835,5
54145,114844,5
54155,114859,5
54157,114846,4
54153,114857,5
54161,114859,6
54161,114848,4
54159,114860,4
54163,114866,4
54158,114868,5
54156,114865,5
54161,114863,5
54163,114855,4
54157,114846,5
54153,114841,5
54145,114846,5
54155,114842,5
54148,114828,4
54143,114820,5
54140,114826,5
54142,114823,5
54147,114825,5
54146,114820,4
54141,114805,5
54130,114800,5
54135,114802,5
54134,114802,5
54137,114802,4
54137,114792,5
54135,114795,5
54127,114780,6
54131,114789,4
54127,114787,4
54128,114785,5
54130,114782,5
54113,114781,5
54119,114785,4
54131,114786,4
54122,114782,5
54107,114789,5
54112,114769,5
54108,114757,4
54115,114752,5
54087,114745,5
54089,114715,5
54078,114686,5
54074,114677,4
54077,114659,5
54061,114653,5
54053,114641,5
54060,114636,5
54079,114650,5
54061,114643,4
54059,114649,5
54054,114640,5
54085,114644,5
54053,114634,4
54053,114642,5
54054,114630,5
54054,114616,5
54044,114617,5
54036,114608,4
54043,114612,5
54037,114602,5
54034,114595,5
54031,114584,4
54021,114580,4
54021,114552,5
54021,114571,5
54020,114572,5
54014,114558,4
54017,114542,5
54005,114546,5
54010,114533,5
54010,114538,5
54009,114533,4
53997,114521,6
54002,114526,4
54005,114524,5
53995,114531,5
53984,114500,4
53969,114475,5
53975,114459,5
53955,114478,5
53956,114444,5
53956,114433,4
53946,114436,5
53955,114446,5
53960,114439,5
53951,114447,5
53968,114454,4
53956,114451,5
53965,114439,5
53960,114445,5
53961,114439,4
53963,114435,5
53957,114440,5
53957,114440,5
53957,114437,5
53962,114437,4
53953,114439,5
53959,114424,7
53946,114435,3
53950,114432,5
53941,114419,4
53944,114424,5
53945,114419,5
53949,114415,5
53938,114410,5
53943,114404,4
53944,114394,5
53931,114401,5
53933,114395,5
53927,114395,5
53930,114388,4
53927,114375,5
53932,114387,5
53926,114380,5
53926,114386,4
53920,114378,4
53914,114378,5
53925,114376,5
53915,114372,5
53916,114365,4
53916,114352,5
53910,114359,5
53916,114346,5
53912,114348,5
53910,114339,4
53904,114331,5
53907,114318,5
53898,114321,5
53897,114317,5
53906,114316,4
53886,114307,5
53896,114300,5
53883,114293,5
53889,114295,5
53892,114292,4
53878,114294,5
53881,114283,5
53877,114280,5
53873,114286,5
53873,114262,4
53873,114274,5
53870,114257,5
53870,114256,5
53857,114256,5
53855,114251,4
53858,114252,5
53851,114235,5
53854,114229,5
53857,114230,4
53848,114229,5
53845,114225,5
53852,114230,5
53850,114234,5
53855,114237,4
53851,114228,5
53853,114222,5
53849,114212,5
53849,114230,5
53849,114221,4
53848,114220,5
53846,114208,5
53835,114198,5
53837,114201,5
53844,114194,4
53825,114184,5
53826,114176,5
53822,114176,5
53822,114169,5
53799,114149,5
53815,114151,4
53811,114142,5
53804,114136,5
53786,114121,4
53797,114114,4
53801,114124,5
53800,114115,5
53781,114111,5
53795,114104,4
53793,114089,5
53784,114090,5
53790,114095,5
53788,114097,5
53785,114095,4
53793,114091,5
53805,114090,5
53780,114100,5
53791,114103,5
53801,114117,4
53813,114113,5
53786,114118,5
53795,114103,5
53787,114106,5
53794,114085,4
53777,114066,6
53766,114046,3
53748,114035,5
53754,114028,5
53744,114012,4
53741,114000,5
53731,113984,5
53726,113960,5
53724,113976,4
53728,113980,4
53730,113971,5
53721,113960,5
53722,113975,5
53737,113970,5
53728,113969,4
53725,113970,5
53724,113968,5
53726,113981,5
53728,113966,4
53723,113992,5
53728,113967,5
53730,113965,6
53729,113966,4
53723,113985,4
53727,113962,5
53714,113942,5
53719,113936,5
53705,113951,5
53695,113928,4
53693,113934,5
53694,113921,5
53694,113909,5
53690,113910,5
53688,113903,4
53688,113913,5
53703,113895,5
53688,113894,5
53690,113902,4
53686,113901,5
53684,113894,5
53686,113889,5
53675,113880,5
53669,113863,5
53668,113855,4
53658,113854,5
53662,113845,5
53663,113852,6
53669,113851,3
53666,113848,5
53671,113853,5
53672,113855,5
53675,113859,5
53675,113849,4
53670,113852,5
53665,113859,5
53665,113851,5
53676,113847,5
53673,113849,4
53673,113857,5
53665,113851,5
53660,113856,5
53667,113861,4
53664,113839,4
53665,113849,5
53657,113842,5
53661,113848,5
53663,113848,4
53661,113846,6
53657,113854,4
53666,113855,5
53666,113850,5
53663,113854,6
53666,113848,3
53660,113848,5
53664,113844,5
53662,113830,5
53658,113818,4
53648,113824,5
53645,113811,5
53642,113805,5
53640,113806,5
53647,113791,4
53644,113791,5
53641,113797,5
53630,113787,5
53640,113789,5
53646,113793,4
53637,113790,5
53640,113776,5
53629,113777,5
53628,113777,4
53630,113780,4
53634,113773,6
53630,113787,4
53621,113767,5
53625,113752,4
53620,113760,5
53623,113759,5
53615,113758,5
53619,113731,5
53614,113742,4
53608,113723,5
53609,113719,5
53601,113704,5
53601,113710,5
53595,113715,4
53592,113703,5
53591,113689,5
53590,113687,5
53584,113685,5
53580,113683,4
53582,113675,5
53564,113674,5
53580,113686,5
53581,113669,5
53582,113668,4
53555,113678,5
53574,113676,6
53584,113672,4
53582,113680,4
53565,113686,4
53581,113680,5
53592,113694,5
53592,113698,5
53603,113698,4
53588,113687,5
53577,113681,5
53575,113672,5
53597,113669,5
53578,113645,4
53556,113629,5
53545,113614,5
53566,113613,5
53546,113594,9
53530,113581,5
53537,113572,5
53546,113562,5
53524,113579,5
53536,113574,4
53525,113581,5
53533,113581,5
53537,113589,6
53537,113582,3
53527,113585,4
53538,113569,5
53534,113585,5
53544,113593,5
53540,113583,4
53543,113579,5
53535,113592,5
53541,113597,5
53541,113592,5
53540,113575,4
53542,113595,5
53542,113595,5
53540,113584,5
53539,113605,5
53539,113593,4
53536,113593,5
53535,113582,5
53535,113607,5
53536,113583,5
53544,113583,5
53540,113588,4
53538,113604,5
53534,113583,5
53538,113586,6
53542,113587,3
53532,113579,5
53532,113583,5
53525,113570,5
53523,113561,4
53515,113552,4
53514,113552,5
53525,113555,5
53515,113564,5
53520,113552,4
53520,113558,5
53523,113557,5
53521,113555,5
53519,113565,5
53527,113559,4
53525,113557,5
53531,113563,5
53527,113558,5
53536,113564,5
53519,113566,4
53524,113567,6
53529,113579,4
53536,113571,5
53528,113575,5
53528,113576,4
53533,113571,5
53537,113577,5
53534,113577,5
53526,113584,5
53532,113574,4
53527,113578,5
53537,113566,5
53525,113575,5
53534,113583,4
53538,113570,4
53520,113569,5
53533,113573,5
53520,113568,5
53531,113568,4
53531,113562,5
53526,113565,5
53522,113561,5
53523,113558,5
53529,113561,4
53527,113557,5
53521,113550,6
53522,113558,4
53528,113559,5
53525,113546,4
53524,113560,5
53524,113549,5
53525,113561,5
53522,113556,5
53516,113556,4
53522,113548,5
53525,113552,5
53514,113554,5
53521,113553,5
53520,113554,4
53517,113552,5
53518,113551,5
53524,113554,5
53515,113545,4
53523,113549,4
53519,113550,5
53526,113549,5
53519,113540,5
53513,113548,4
53517,113545,5
53520,113549,5
53509,113541,6
53520,113535,4
53515,113541,4
53507,113537,5
53518,113544,5
53512,113540,5
53509,113536,5
53510,113533,4
53508,113534,5
53512,113541,5
53515,113545,5
53511,113544,5
53514,113567,4
53528,113575,5
53523,113579,5
53523,113588,5
53518,113563,4
53526,113552,4
53523,113563,5
53518,113550,5
53496,113530,5
53494,113513,5
53486,113492,4
53488,113478,5
53476,113486,5
53479,113464,5
53476,113450,4
53479,113470,5
53493,113467,5
53483,113479,5
53482,113486,5
53498,113495,4
53521,113511,5
53501,113513,5
53498,113521,5
53504,113529,5
53512,113528,4
53508,113531,5
53510,113534,5
53507,113531,5
53513,113537,5
53508,113538,4
53507,113529,5
53515,113529,5
53516,113524,5
53508,113525,5
53500,113526,5
53510,113532,4
53504,113505,5
53508,113528,5
53513,113523,4
53509,113538,5
53509,113516,5
53508,113536,5
53518,113551,5
53514,113546,4
53516,113561,5
53518,113557,5
53510,113551,5
53516,113552,5
53510,113562,4
53507,113529,5
53514,113530,5
53515,113525,5
53509,113552,5
53512,113536,4
53514,113535,5
53518,113541,5
53509,113542,5
53504,113543,5
53508,113541,4
53521,113550,6
53516,113554,4
53519,113555,5
53512,113560,4
53519,113563,4
53528,113569,5
53527,113564,5
53531,113574,5
53531,113576,4
53528,113580,5
53534,113587,5
53530,113589,5
53541,113592,5
53537,113586,4
53541,113589,5
53547,113596,5
53542,113601,5
53541,113599,5
53542,113589,4
53537,113597,5
53542,113603,5
53535,113596,5
53543,113596,5
53541,113600,4
53542,113596,5
53533,113595,6
53542,113599,4
53538,113592,5
53541,113588,4
53537,113603,5
53538,113596,5
53532,113591,5
53541,113600,4
53543,113595,4
53535,113599,5
53540,113592,5
53540,113596,5
53533,113588,4
53536,113596,5
53549,113600,5
53541,113611,5
53546,113607,5
53544,113622,4
53556,113621,5
53557,113631,5
53561,113638,5
53571,113655,5
53570,113655,4
53573,113673,5
53570,113675,5
53585,113680,5
53583,113687,5
53586,113687,4
53586,113672,5
53583,113671,5
53566,113665,5
53575,113651,5
53569,113642,4
53564,113638,5
53553,113645,5
53564,113635,5
53551,113628,5
53561,113631,4
53555,113632,5
53552,113640,5
53561,113645,5
53559,113659,4
53565,113659,4
53569,113657,5
53566,113666,5
53568,113656,5
53568,113659,5
53572,113658,4
53565,113662,5
53569,113668,5
53578,113668,5
53581,113662,4
53575,113670,5
53576,113663,5
53576,113674,5
53581,113678,5
53579,113693,4
53575,113693,5
53590,113697,5
53592,113707,5
53590,113707,5
53579,113721,4
53598,113725,5
53612,113741,5
53606,113727,5
53585,113739,5
53610,113742,4
53607,113742,5
53613,113742,4
53615,113738,5
53607,113736,4
53605,113726,6
53608,113731,3
53630,113745,5
53617,113752,5
53621,113768,4
53624,113780,5
53657,113782,5
53635,113793,5
53637,113797,5
53637,113801,4
53652,113801,5
53640,113816,5
53644,113813,5
53653,113825,5
53642,113821,4
53661,113831,5
53661,113845,5
53659,113847,5
53663,113842,5
53674,113871,4
53682,113869,5
53671,113872,6
53683,113859,4
53672,113885,5
53682,113877,4
53689,113881,5
53681,113872,5
53695,113892,5
53689,113902,4
53692,113910,4
53697,113926,5
53701,113922,5
53701,113925,5
53709,113925,4
53707,113957,5
53703,113930,5
53700,113933,5
53702,113930,5
53707,113942,4
53703,113932,5
53703,113920,5
53696,113925,5
53693,113926,5
53704,113925,4
53691,113929,5
53693,113931,5
53706,113933,6
53710,113952,4
53706,113960,4
53720,113953,5
53711,113956,5
53715,113966,5
53735,113977,5
53737,113995,4
53739,114015,5
53740,114025,5
53752,114035,5
53748,114025,4
53755,114027,4
53747,114030,5
53755,114033,5
53748,114023,5
53759,114012,4
53734,114005,5
53740,113996,5
53721,113987,5
53731,113982,5
53727,113979,5
53733,113979,4
53735,113994,5
53736,113999,5
53739,114002,6
53746,114017,3
53744,114009,5
53746,114020,5
53750,114039,5
53750,114031,5
53745,114037,4
53760,114033,5
53750,114042,5
53761,114041,5
53757,114049,5
53766,114051,4
53765,114058,5
53766,114050,5
53762,114050,5
53768,114057,5
53765,114066,4
53758,114067,5
53760,114059,5
53774,114065,5
53768,114052,4
53773,114070,5
53768,114071,4
53781,114068,5
53777,114091,5
53778,114088,6
53778,114086,3
53783,114094,5
53776,114091,5
53789,114095,5
53785,114104,4
53785,114100,5
53782,114089,5
53778,114099,5
53782,114100,5
53791,114111,4
53799,114118,5
53790,114119,5
53792,114123,5
53791,114129,5
53799,114135,4
53808,114135,5
53810,114150,5
53813,114155,5
53819,114171,5
53821,114181,4
53829,114195,6
53839,114207,4
53839,114224,5
53852,114237,4
53855,114252,4
53862,114258,5
53864,114272,5
53870,114284,5
53878,114278,4
53876,114287,5
53864,114297,5
53886,114307,5
53892,114301,5
53884,114316,4
53869,114318,5
53886,114318,5
53899,114328,5
53898,114331,5
53892,114348,4
53907,114351,5
53908,114355,5
53912,114352,5
53923,114364,5
53920,114362,4
53916,114361,5
53920,114378,6
53950,114379,4
53922,114378,5
53929,114397,4
53931,114391,7
53951,114407,3
53937,114412,5
53933,114416,4
53943,114431,4
53951,114443,5
53963,114449,5
53962,114475,5
53966,114478,4
53966,114475,5
53975,114486,5
53969,114472,5
53972,114471,5
53964,114450,4
53958,114462,5
53961,114459,5
53961,114450,5
53955,114414,5
53956,114439,5
53955,114442,4
53951,114443,5
53964,114451,6
53957,114454,4
53962,114467,4
53972,114474,5
53968,114488,5
53975,114476,5
53979,114482,5
53968,114487,4
53975,114507,5
53973,114482,5
53969,114491,5
53970,114486,4
53981,114499,4
53978,114493,5
53969,114493,5
53979,114487,5
53969,114494,4
53974,114487,5
53973,114480,5
53973,114473,5
53974,114476,5
53974,114474,5
53966,114471,4
53968,114478,5
53973,114473,5
53967,114472,6
53969,114467,3
53960,114468,5
53956,114457,5
53963,114461,5
53958,114459,5
53961,114451,4
53955,114442,5
53958,114438,5
53948,114426,5
53956,114424,5
53949,114430,4
53941,114419,5
53948,114419,5
53936,114430,5
53941,114425,5
53932,114404,4
53938,114408,5
53936,114414,5
53943,114411,5
53935,114409,4
53940,114413,6
53938,114398,4
53934,114401,5
53934,114398,5
53930,114398,4
53936,114398,5
53934,114388,5
53926,114398,5
53927,114383,5
53931,114383,4
53927,114364,5
53917,114371,5
53911,114355,5
53906,114351,5
53911,114364,4
53914,114350,5
53902,114348,5
53907,114345,5
53905,114343,5
53903,114342,4
53906,114332,5
53893,114322,5
53903,114321,5
53892,114305,5
53880,114294,4
53880,114282,6
53865,114265,4
53869,114265,5
53854,114258,4
53854,114248,4
53854,114246,5
53854,114237,5
53858,114229,5
53848,114225,4
53847,114237,5
53854,114220,5
53849,114233,5
53839,114230,5
53854,114227,4
53849,114238,5
53845,114231,5
53851,114222,5
53850,114236,5
53852,114223,4
53839,114227,5
53846,114223,5
53850,114228,5
53853,114229,5
53848,114223,4
53845,114233,5
53844,114238,6
53837,114223,4
53848,114218,5
53844,114217,4
53830,114199,5
53812,114172,5
53810,114152,5
53803,114128,4
53798,114121,4
53766,114107,5
53778,114090,5
53785,114096,5
53783,114091,4
53775,114092,5
53788,114098,5
53783,114097,5
53791,114098,5
53806,114098,4
53788,114096,5
53786,114093,5
53781,114087,5
53805,114093,5
53780,114089,4
53789,114086,5
53781,114086,5
53788,114088,5
53766,114081,5
53777,114072,4
53769,114070,5
53778,114075,5
53767,114055,5
53757,114057,5
53764,114041,4
53755,114034,5
53752,114048,5
53755,114046,5
53753,114042,4
53751,114021,4
53757,114040,5
53754,114041,5
53757,114043,5
53755,114022,4
53752,114035,6
53753,114044,4
53742,114023,5
53747,114028,5
53748,114017,6
53741,114025,3
53742,114019,5
53744,114040,5
53732,114019,5
53739,114018,4
53754,114022,5
53741,114048,5
53749,114030,5
53747,114020,5
53751,114019,4
53745,114032,5
53752,114028,5
53755,114028,5
53743,114023,5
53754,114019,4
53754,114028,5
53748,114026,5
53748,114010,5
53746,114018,4
53751,114026,4
53746,114017,5
53741,114015,5
53747,114020,5
53734,114006,4
53746,114006,6
53739,114005,4
53740,114008,5
53727,113997,5
53730,113989,4
53730,113983,5
53716,113988,5
53729,113972,5
53726,113975,5
53722,113968,4
53721,113960,5
53715,113952,5
53713,113957,5
53713,113957,5
53714,113956,4
53714,113949,5
53706,113950,5
53706,113943,5
53709,113938,5
53707,113947,4
53706,113945,5
53698,113936,5
53704,113935,5
53705,113928,5
53702,113928,4
53704,113927,6
53704,113927,4
53700,113918,5
53701,113916,4
53705,113923,4
53700,113914,5
53697,113919,5
53697,113926,5
53686,113911,4
53682,113899,5
53692,113900,5
53689,113900,5
53682,113904,5
53685,113904,4
53688,113904,5
53686,113906,5
53687,113908,5
53686,113896,5
53681,113901,4
53682,113895,5
53682,113894,5
53689,113893,5
53680,113895,4
53687,113892,4
53673,113892,5
53668,113879,5
53674,113878,5
53673,113867,5
53670,113861,4
53678,113864,5
53665,113865,5
53681,113875,5
53675,113861,4
53668,113856,4
53669,113861,5
53671,113859,5
53670,113850,5
53659,113835,4
53665,113839,5
53649,113833,5
53655,113808,5
53643,113814,5
53641,113808,5
53643,113815,4
53640,113802,5
53632,113803,5
53631,113793,6
53636,113798,3
53636,113796,5
53637,113797,5
53621,113798,5
53630,113799,5
53637,113804,4
53635,113795,5
53619,113797,5
53646,113811,5
53645,113825,5
53648,113827,4
53643,113823,5
53645,113808,5
53642,113797,5
53645,113786,4
53643,113780,4
53617,113749,5
53594,113725,5
53605,113716,5
53615,113703,4
53579,113674,6
53579,113660,4
53572,113654,5
53577,113660,5
53561,113643,6
53575,113657,3
53565,113669,5
53571,113678,5
53569,113658,5
53569,113670,4
53569,113658,5
53573,113656,5
53561,113662,5
53573,113660,5
53571,113656,4
53568,113632,5
53563,113655,5
53566,113649,5
53560,113647,5
53562,113622,4
53563,113639,5
53560,113635,5
53563,113628,5
53553,113639,5
53557,113619,4
53552,113616,6
53550,113611,4
53544,113628,5
53548,113601,4
53544,113588,7
53550,113602,3
53540,113611,5
53537,113590,5
53537,113577,4
53531,113577,5
53533,113583,5
53527,113583,5
53533,113575,5
53534,113570,4
53521,113570,5
53514,113567,5
53523,113570,5
53526,113577,5
53530,113562,4
53521,113567,5
53533,113574,5
53527,113576,5
53528,113574,5
53530,113571,4
53515,113574,5
53530,113573,6
53525,113571,4
53524,113569,5
53531,113572,4
53525,113576,5
53524,113575,5
53519,113565,5
53527,113565,4
53516,113564,4
53526,113569,5
53524,113567,5
53520,113571,5
53525,113562,4
53517,113563,5
53528,113572,5
53530,113568,5
53526,113571,5
53529,113571,4
53526,113572,5
53522,113580,5
53516,113580,5
53526,113573,5
53533,113576,4
53524,113573,5
53524,113555,5
53515,113552,6
53522,113565,4
53523,113557,4
53511,113551,5
53514,113547,5
53517,113550,5
53517,113553,5
53516,113541,4
53513,113545,5
53511,113546,5
53513,113542,5
53516,113547,4
53512,113544,4
53514,113547,5
53506,113538,5
53510,113542,5
53514,113536,4
53502,113527,5
53506,113523,5
53498,113525,5
53502,113533,5
53503,113538,5
53502,113539,4
53511,113531,5
53501,113532,5
53507,113532,6
53504,113534,3
53497,113548,5
53504,113541,5
53515,113544,5
53516,113571,5
53522,113570,4
53524,113560,5
53530,113577,5
53533,113581,5
53525,113572,5
53528,113575,4
53528,113565,5
53520,113561,5
53512,113539,5
53505,113518,4
53497,113518,4
53497,113507,5
53490,113498,5
53494,113493,5
53477,113482,4
53488,113491,6
53489,113498,4
53490,113493,5
53475,113503,5
53499,113507,4
53494,113499,5
53488,113510,5
53468,113515,5
53491,113513,5
53490,113512,4
53499,113506,5
53496,113513,5
53491,113512,5
53495,113506,5
53496,113503,4
53512,113508,5
53494,113504,9
53487,113499,2
53487,113501,4
53519,113498,4
53491,113465,5
53485,113498,5
53491,113498,5
53501,113502,4
53495,113499,4
53484,113503,6
53499,113505,4
53492,113510,5
53492,113501,4
53484,113505,5
53495,113502,5
53493,113475,5
53478,113481,5
53484,113474,4
53476,113468,5
53468,113452,5
53477,113469,5
53481,113463,5
53471,113471,4
53473,113459,5
53478,113473,5
53478,113471,5
53476,113474,5
53481,113488,4
53481,113478,5
53477,113481,5
53479,113475,5
53488,113500,5
53481,113475,4
53482,113473,5
53476,113470,6
53480,113495,4
53483,113478,5
53471,113483,4
53474,113475,5
53482,113487,5
53484,113480,5
53479,113487,4
53484,113488,5
53486,113487,5
53481,113480,5
53488,113478,5
53483,113482,4
53481,113481,5
53484,113484,5
53472,113470,5
53473,113464,5
53472,113461,4
53471,113447,5
53464,113451,5
53466,113445,5
53465,113444,5
53463,113439,4
53461,113439,5
53463,113436,5
53453,113428,6
53459,113438,4
53465,113428,4
53462,113434,5
53465,113436,5
53467,113437,5
53467,113436,5
53457,113445,4
53462,113435,5
53455,113450,5
53462,113444,5
53467,113448,4
53458,113447,4
53457,113433,5
53465,113440,5
53464,113434,5
53455,113435,4
53461,113433,5
53460,113425,5
53461,113429,5
53463,113442,5
53457,113443,5
53462,113439,4
53470,113453,5
53464,113447,5
53466,113445,5
53468,113453,4
53466,113450,5
53461,113450,5
53462,113450,5
53468,113458,5
53475,113468,4
53464,113469,5
53479,113475,5
53472,113478,5
53482,113473,5
53478,113471,4
53478,113475,5
53475,113464,5
53469,113457,5
53464,113445,4
53461,113440,4
53458,113448,5
53454,113443,5
53458,113438,5
53460,113428,4
53465,113426,6
53471,113439,4
53460,113449,5
53464,113443,5
53465,113450,4
53466,113451,5
53470,113451,5
53472,113451,5
53471,113458,5
53475,113453,4
53473,113461,5
53470,113459,5
53470,113469,5
53472,113472,5
53477,113468,4
53472,113466,5
53476,113460,5
53471,113469,5
53480,113464,5
53464,113461,4
53480,113468,5
53473,113463,5
53462,113465,5
53456,113467,4
53475,113468,4
53474,113474,6
53477,113479,4
53474,113482,5
53484,113481,4
53483,113474,5
53488,113486,5
53483,113481,5
53475,113481,5
53475,113477,4
53473,113472,5
53504,113473,5
53477,113466,5
53482,113475,5
53483,113490,4
53500,113491,5
53493,113486,5
53487,113498,5
53493,113499,5
53497,113501,4
53484,113501,5
53488,113510,5
53498,113510,5
53496,113495,5
53502,113518,4
53500,113513,5
53497,113530,6
53503,113510,4
53511,113538,5
53515,113548,4
53509,113557,5
53523,113540,5
53523,113568,5
53526,113578,4
53532,113584,5
53528,113588,5
53530,113592,5
53543,113604,5
53545,113614,4
53545,113644,5
53554,113624,5
53551,113628,5
53547,113626,5
53560,113658,4
53557,113627,5
53551,113640,5
53561,113635,5
53559,113650,5
53550,113636,4
53565,113646,5
53564,113649,5
53557,113645,5
53563,113656,5
53567,113662,4
53571,113670,5
53575,113669,5
53575,113680,5
53587,113693,4
53591,113694,4
53584,113700,5
53586,113710,5
53597,113713,5
53598,113729,4
53606,113747,5
53617,113755,5
53616,113764,5
53619,113774,5
53631,113780,4
53626,113777,5
53621,113787,5
53621,113780,5
53616,113779,5
53615,113771,5
53610,113748,4
53609,113746,5
53614,113746,5
53606,113737,5
53605,113731,4
53600,113734,5
53597,113733,5
53613,113738,5
53603,113750,5
53618,113745,4
53617,113755,5
53608,113752,5
53617,113759,5
53617,113761,4
53613,113761,4
53617,113770,5
53625,113774,5
53615,113776,5
53620,113789,4
53623,113788,5
53620,113794,5
53631,113784,4
53629,113779,5
53627,113787,4
53638,113795,7
53638,113785,3
53638,113794,5
53630,113800,5
53643,113794,4
53632,113804,5
53638,113816,5
53646,113820,5
53646,113823,5
53643,113825,4
53645,113823,5
53652,113822,5
53650,113825,5
53648,113821,5
53648,113821,4
53643,113819,5
53646,113815,5
53648,113818,5
53643,113825,4
53644,113832,4
53653,113824,5
53646,113832,6
53645,113835,4
53662,113834,4
53662,113846,5
53664,113857,5
53669,113856,5
53667,113852,5
53665,113868,4
53679,113876,5
53677,113877,5
53676,113886,5
53686,113912,5
53684,113904,4
53688,113916,5
53689,113924,5
53706,113933,5
53696,113941,5
53702,113939,4
53688,113941,5
53716,113949,5
53712,113957,5
53723,113969,5
53697,113970,4
53726,113973,5
53727,113989,5
53725,113996,6
53719,113993,4
53735,114005,4
53734,114002,5
53735,114000,5
53754,113993,5
53733,113998,4
53728,113993,4
53733,113997,5
53748,113993,5
53727,113996,5
53737,113994,4
53737,113979,5
53742,113998,5
53736,114008,5
53734,114015,5
53738,114021,4
53759,114039,5
53764,114064,5
53769,114067,5
53788,114098,5
53783,114080,5
53778,114090,4
53782,114094,5
53783,114088,5
53784,114071,6
53775,114072,3
53782,114071,4
53768,114082,5
53768,114051,5
53767,114059,5
53759,114054,4
53764,114063,5
53771,114090,5
53776,114075,5
53775,114082,4
53784,114095,4
53785,114133,5
53788,114116,5
53794,114116,5
53789,114123,4
53789,114131,5
53803,114126,5
53807,114127,5
53798,114139,5
53802,114139,4
53807,114140,6
53801,114140,4
53802,114140,5
53798,114150,5
53804,114143,6
53806,114138,3
53807,114142,5
53804,114139,5
53816,114143,5
53809,114147,4
53812,114152,5
53806,114163,5
53825,114167,5
53822,114176,5
53828,114183,4
53820,114202,5
53825,114200,5
53836,114201,5
53837,114203,4
53839,114203,4
53840,114205,5
53837,114207,5
53844,114208,5
53838,114205,4
53849,114223,5
53839,114233,6
53857,114223,4
53853,114237,5
53855,114242,4
53857,114252,5
53853,114250,5
53864,114251,5
53855,114268,5
53872,114269,4
53872,114270,5
53874,114289,5
53879,114298,5
53892,114311,5
53897,114314,4
53896,114335,5
53908,114342,5
53907,114350,5
53919,114364,5
53911,114360,4
53922,114375,5
53918,114367,5
53914,114374,5
53926,114387,4
53926,114380,4
53925,114382,5
53920,114390,6
53921,114379,4
53918,114378,4
53926,114382,5
53926,114391,5
53926,114402,5
53923,114402,5
53935,114398,4
53927,114409,5
53932,114408,5
53939,114414,5
53947,114410,5
53934,114414,4
53942,114418,5
53951,114439,5
53952,114451,5
53961,114461,5
53969,114470,4
53970,114475,5
53963,114469,5
53970,114472,5
53968,114467,5
53966,114459,4
53971,114448,5
53957,114441,5
53944,114446,6
53959,114436,4
53948,114436,4
53955,114429,5
53959,114433,5
53953,114443,5
53950,114454,4
53961,114459,5
53968,114467,5
53959,114477,5
53970,114477,5
53972,114479,4
53967,114477,5
53943,114484,9
53973,114479,7
53968,114474,7
53968,114474,8
53962,114466,7
53971,114480,5
53966,114472,8
53971,114462,7
53958,114470,10
53958,114470,10
53988,114459,7
53957,114461,10
53957,114461,5
53965,114462,5
53959,114473,10
53962,114449,5
53948,114434,5
53951,114423,10
53947,114441,5
53961,114424,5
53934,114414,10
53934,114414,5
53929,114402,5
53926,114378,10
53926,114384,5
53927,114376,5
53924,114374,10
53924,114374,5
53922,114360,5
53894,114401,10
53898,114366,5
53906,114361,7
53913,114383,8
53887,114315,9
53887,114315,10
53881,114292,5
53885,114300,7
53878,114264,8
53868,114280,5
53859,114249,7
53859,114249,8
53878,114228,5
53849,114218,7
53825,114183,8
53827,114175,5
53810,114175,7
53787,114089,8
53787,114089,5
53788,114073,7
53750,114081,8
53773,114071,5
53780,114077,7
53776,114082,8
53755,114061,5
53698,113921,7
53698,113921,8
53690,113889,7
53683,113874,5
53669,113869,8
53685,113839,7
53670,113840,5
53656,113837,8
53656,113837,7
53661,113839,5
53657,113824,8
53658,113825,7
53650,113829,5
53617,113826,8
53642,113820,7
53654,113829,8
53654,113829,5
53652,113819,7
53658,113824,5
53645,113822,8
53644,113793,7
53632,113806,5
53638,113805,8
53640,113809,7
53640,113809,5
53644,113845,8
53643,113808,7
53643,113779,8
53638,113796,7
53637,113778,9
53637,113778,10
53630,113776,9
53631,113788,8
53631,113788,7
53641,113777,10
53621,113775,7
53630,113771,5
53639,113778,5
53630,113785,10
53630,113785,5
53636,113816,5
53632,113798,10
53612,113745,5
53627,113786,5
53625,113787,10
53645,113789,5
53634,113795,5
53635,113788,10
53635,113788,5
53626,113780,5
53635,113782,10
53654,113800,4
53632,113786,1
53620,113785,3
53628,113761,4
53636,113770,5
53621,113766,5
53623,113767,4
53612,113766,5
53631,113756,5
53617,113758,5
53615,113755,5
53611,113751,4
53612,113743,5
53612,113759,5
53607,113755,5
53613,113749,5
53617,113721,4
53609,113737,5
53614,113741,5
53607,113741,5
53609,113713,4
53608,113746,4
53610,113730,5
53601,113733,5
53612,113732,5
53603,113737,4
53605,113730,5
53608,113733,6
53598,113740,4
53604,113721,5
53596,113718,4
53587,113724,5
53592,113741,5
53597,113732,5
53602,113723,5
53603,113715,4
53595,113725,5
53605,113716,5
53597,113722,5
53603,113725,5
53606,113730,4
53605,113735,5
53607,113742,5
53611,113736,5
53608,113726,5
53598,113725,4
53591,113723,5
53592,113705,5
53577,113678,5
53567,113662,3
53563,113645,4
53547,113630,5
53545,113607,5
53532,113600,5
53546,113594,4
53541,113607,5
53545,113610,5
53546,113612,5
53554,113620,5
53556,113628,4
53557,113623,5
53553,113624,5
53550,113622,5
53548,113616,5
53544,113609,4
53546,113614,5
53543,113610,5
53547,113598,5
53546,113599,5
53548,113604,5
53538,113601,4
53542,113583,5
53534,113590,5
53538,113589,6
53542,113580,3
53539,113580,5
53539,113578,5
53533,113575,5
53527,113564,5
53528,113563,4
53528,113564,5
53525,113576,5
53523,113563,5
53527,113569,4
53530,113561,4
53521,113553,5
53512,113535,5
53512,113544,5
53516,113532,4
53495,113525,5
53503,113514,5
53504,113517,5
53504,113509,5
53503,113515,4
53493,113509,6
53504,113514,4
53506,113523,5
53495,113515,5
53503,113506,6
53493,113519,3
53493,113497,5
53497,113506,5
53499,113511,5
53494,113517,4
53501,113512,5
53491,113512,5
53490,113510,5
53491,113511,5
53495,113519,4
53497,113513,5
53504,113510,5
53495,113516,5
53502,113525,4
53506,113529,4
53497,113530,5
53505,113524,5
53504,113527,5
53502,113517,4
53496,113528,5
53500,113511,6
53495,113511,4
53490,113520,5
53490,113507,4
53492,113493,5
53486,113493,5
53468,113492,5
53488,113487,5
53484,113494,4
53485,113494,5
53464,113485,5
53493,113493,5
53489,113500,5
53490,113493,4
53493,113490,5
53488,113495,5
53490,113500,5
53496,113489,5
53511,113498,4
53487,113488,5
53488,113494,5
53490,113501,5
53507,113492,4
53490,113499,4
53479,113493,5
53486,113483,6
53494,113488,4
53485,113477,4
53481,113476,5
53482,113484,5
53486,113479,5
53480,113476,5
53482,113481,4
53468,113471,5
53472,113465,5
53481,113472,5
53476,113477,5
53481,113481,4
53478,113455,5
53483,113464,5
53484,113474,5
53484,113472,5
53480,113463,4
53477,113465,5
53480,113470,5
53471,113462,5
53479,113468,5
53472,113459,4
53473,113456,5
53474,113459,5
53468,113479,6
53472,113444,4
53471,113448,4
53471,113448,5
53469,113475,5
53474,113452,5
53474,113471,4
53487,113484,5
53487,113496,5
53488,113484,5
53488,113496,5
53481,113491,4
53479,113482,5
53487,113476,5
53476,113461,5
53467,113447,5
53453,113429,4
53463,113424,5
53457,113412,5
53442,113410,5
53443,113396,5
53449,113400,5
53448,113404,4
53445,113412,5
53452,113414,5
53456,113425,6
53453,113421,3
53458,113429,5
53460,113425,5
53463,113424,5
53462,113423,5
53457,113425,4
53458,113433,5
53454,113426,5
53456,113432,5
53457,113425,4
53461,113429,4
53459,113415,5
53457,113421,5
53458,113417,5
53453,113419,4
53456,113421,5
53451,113415,5
53444,113408,5
53439,113409,5
53453,113408,4
53455,113411,6
53448,113412,4
53444,113406,5
53445,113410,5
53444,113405,4
53441,113410,5
53443,113403,5
53444,113386,5
53441,113391,5
53439,113377,4
53438,113368,5
53424,113368,5
53431,113369,5
53428,113374,5
53427,113371,4
53433,113367,5
53432,113372,5
53435,113370,5
53429,113382,4
53433,113373,4
53432,113375,5
53436,113369,5
53434,113382,5
53431,113385,4
53433,113388,5
53435,113388,6
53435,113382,4
53431,113390,5
53441,113396,4
53434,113381,5
53431,113393,5
53430,113390,5
53430,113381,5
53439,113394,4
53442,113391,5
53443,113385,5
53431,113389,5
53450,113395,5
53443,113403,4
53442,113404,5
53444,113400,5
53441,113406,5
53439,113400,5
53441,113398,4
53437,113402,5
53446,113400,5
53451,113400,5
53422,113392,4
53437,113387,4
53439,113383,5
53444,113387,6
53426,113397,4
53439,113403,4
53443,113405,5
53439,113410,5
53427,113389,5
53440,113398,5
53445,113393,4
53442,113395,5
53448,113398,5
53436,113399,5
53442,113391,5
53446,113398,8
53458,113398,2
53438,113398,4
53442,113408,5
53440,113402,5
53461,113409,4
53438,113408,5
53436,113394,5
53445,113409,5
53442,113393,5
53438,113406,4
53441,113399,5
53439,113409,5
53440,113397,6
53444,113402,3
53445,113401,4
53453,113410,5
53439,113389,5
53441,113396,5
53446,113407,5
53445,113396,4
53445,113382,5
53440,113403,5
53440,113407,5
53452,113417,4
53445,113417,5
53450,113426,5
53457,113421,5
53462,113427,5
53454,113460,4
53452,113443,5
53467,113448,5
53474,113461,5
53476,113481,5
53476,113458,5
53468,113443,4
53466,113446,5
53465,113454,5
53467,113437,5
53456,113425,4
53453,113419,5
53450,113424,5
53444,113424,5
53449,113412,4
53455,113407,4
53448,113414,5
53456,113420,5
53466,113424,5
53462,113434,4
53473,113443,5
53466,113458,5
53471,113461,5
53481,113466,5
53467,113458,4
53475,113464,5
53477,113477,5
53482,113475,5
53471,113472,5
53481,113484,4
53474,113467,6
53473,113476,4
53472,113461,5
53481,113475,5
53482,113478,4
53477,113468,5
53472,113476,5
53476,113474,5
53470,113463,5
53485,113475,4
53482,113490,5
53486,113474,5
53472,113477,5
53484,113490,5
53481,113482,4
53484,113476,5
53481,113473,5
53472,113475,5
53474,113480,4
53475,113460,4
53473,113468,5
53466,113461,5
53473,113455,5
53464,113463,4
53481,113468,5
53472,113474,6
53486,113468,4
53487,113489,5
53489,113493,4
53488,113486,5
53492,113501,5
53496,113511,5
53485,113518,5
53493,113510,4
53489,113519,5
53500,113529,5
53509,113533,5
53509,113541,5
53507,113545,4
53519,113552,5
53510,113551,5
53526,113569,5
53521,113565,5
53526,113578,4
53527,113582,5
53533,113587,5
53539,113598,5
53531,113598,4
53539,113609,4
53537,113603,5
53550,113610,5
53541,113629,5
53544,113616,4
53543,113623,5
53556,113628,5
53545,113621,5
53550,113638,5
53550,113626,4
53553,113625,5
53537,113620,5
53551,113615,5
53544,113630,5
53559,113623,4
53544,113619,5
53555,113623,5
53553,113621,5
53548,113618,5
53541,113627,4
53544,113640,5
53562,113638,5
53563,113635,5
53539,113650,5
53557,113650,4
53560,113663,5
53567,113652,5
53560,113676,5
53569,113683,4
53588,113691,4
53588,113701,5
53606,113708,5
53596,113719,5
53590,113710,4
53599,113714,5
53619,113717,5
53592,113712,5
53591,113704,5
53583,113698,4
53612,113684,5
53583,113702,5
53586,113690,5
53583,113699,5
53592,113693,4
53587,113698,5
53593,113716,5
53595,113723,5
53597,113715,5
53608,113732,5
53604,113739,4
53603,113746,5
53613,113734,5
53614,113765,5
53613,113769,4
53636,113782,5
53625,113768,5
53632,113792,5
53638,113796,5
53627,113803,4
53638,113796,5
53638,113800,5
53632,113803,5
53644,113799,4
53642,113827,5
53637,113806,5
53638,113816,5
53656,113825,5
53651,113868,4
53654,113848,5
53660,113862,6
53670,113853,4
53674,113865,5
53666,113852,4
53668,113855,7
53666,113862,3
53661,113848,5
53662,113856,5
53666,113858,4
53660,113853,5
53660,113858,5
53660,113868,5
53676,113871,5
53671,113879,4
53676,113886,5
53675,113891,5
53681,113899,5
53690,113906,5
53691,113928,4
53703,113934,5
53695,113943,5
53704,113951,5
53709,113962,4
53709,113962,4
53729,113981,5
53736,113986,6
53726,114001,4
53735,114004,4
53739,114007,5
53738,113998,5
53740,114015,5
53742,114013,5
53740,114013,4
53746,114037,5
53749,114028,5
53747,114041,5
53762,114038,5
53758,114052,4
53768,114054,5
53760,114050,5
53765,114051,5
53759,114058,5
53765,114054,4
53769,114060,5
53766,114078,5
53768,114070,5
53761,114069,5
53766,114067,4
53757,114066,5
53764,114067,5
53767,114074,6
53780,114069,3
53770,114070,4
53765,114077,5
53775,114096,5
53784,114103,5
53781,114106,4
53793,114131,5
53810,114144,5
53808,114163,5
53820,114172,5
53826,114179,4
53815,114171,5
53817,114172,5
53822,114172,5
53819,114172,5
53811,114165,4
53808,114151,5
53805,114138,5
53801,114135,5
53797,114120,5
53790,114124,5
53786,114114,4
53797,114120,5
53788,114116,5
53798,114128,6
53806,114129,3
53808,114141,5
53810,114146,5
53804,114153,5
53817,114151,5
53813,114152,4
53808,114153,5
53815,114149,5
53813,114167,5
53811,114165,4
53818,114166,5
53812,114162,5
53812,114170,5
53823,114177,5
53809,114164,4
53797,114166,5
53823,114171,5
53816,114167,5
53823,114175,5
53792,114174,4
53818,114188,6
53825,114189,4
53825,114191,5
53828,114199,5
53838,114203,6
53837,114205,3
53835,114204,5
53848,114202,5
53833,114210,5
53832,114206,4
53838,114214,5
53864,114220,5
53837,114220,5
53842,114218,5
53843,114232,4
53862,114238,5
53845,114241,5
53852,114248,5
53857,114251,4
53858,114255,4
53855,114252,5
53861,114247,5
53853,114256,5
53866,114265,4
53867,114264,5
53868,114271,6
53874,114283,4
53872,114278,5
53873,114298,4
53882,114314,5
53893,114336,5
53898,114314,5
53901,114339,5
53900,114341,5
53903,114356,4
53900,114350,5
53899,114347,5
53900,114342,5
53897,114342,4
53910,114373,5
53899,114349,5
53907,114345,5
53910,114348,5
53906,114371,4
53919,114351,5
53899,114348,5
53907,114345,5
53899,114359,4
53899,114347,4
53898,114349,5
53906,114354,6
53899,114340,4
53908,114344,4
53898,114343,5
53898,114340,5
53904,114344,5
53902,114340,5
53905,114354,4
53905,114364,5
53925,114365,5
53914,114345,5
53902,114356,5
53908,114344,4
53908,114338,5
53906,114340,5
53898,114322,5
53879,114309,5
53885,114302,4
53873,114292,5
53867,114274,5
53863,114266,5
53865,114253,5
53861,114262,4
53860,114253,5
53868,114255,5
53860,114252,6
53854,114243,3
53863,114240,4
53840,114232,5
53846,114215,5
53842,114214,5
53825,114197,4
53828,114195,5
53822,114185,5
53816,114158,5
53806,114145,5
53800,114127,4
53790,114104,5
53778,114099,5
53770,114061,5
53759,114046,5
53754,114028,4
53746,113999,5
53733,113985,5
53718,113969,5
53719,113956,5
53713,113946,5
53708,113933,4
53701,113921,5
53696,113916,5
53693,113892,5
53679,113889,4
53675,113879,5
53671,113865,5
53653,113831,5
53649,113820,4
53648,113802,4
53645,113803,5
53634,113788,5
53629,113788,5
53630,113787,4
53631,113777,5
53621,113779,5
53616,113768,5
53621,113755,5
53611,113742,4
53621,113746,5
53615,113739,5
53616,113743,5
53607,113736,5
53611,113735,4
53606,113730,6
53607,113743,4
53604,113731,5
53608,113740,5
53602,113731,4
53602,113728,5
53614,113729,5
53598,113720,5
53596,113730,5
53602,113721,4
53601,113715,5
53584,113713,5
53588,113697,5
53585,113688,5
53588,113692,4
53569,113687,5
53591,113688,5
53584,113686,5
53585,113688,4
53571,113686,4
53582,113677,5
53582,113679,5
53580,113678,5
53581,113663,4
53573,113659,5
53576,113656,6
53576,113659,4
53581,113648,5
53561,113658,4
53568,113661,5
53576,113672,5
53598,113680,5
53584,113673,5
53582,113672,4
53577,113665,5
53580,113654,5
53566,113654,5
53559,113639,5
53551,113628,4
53553,113605,5
53548,113595,5
53536,113588,5
53525,113569,5
53523,113545,4
53519,113554,5
53524,113554,5
53515,113553,5
53525,113541,4
53522,113570,4
53523,113550,5
53521,113557,6
53526,113545,4
53528,113552,4
53519,113557,6
53523,113568,4
53523,113567,5
53516,113555,5
53521,113556,4
53516,113561,5
53525,113580,5
53528,113551,5
53513,113542,5
53519,113551,4
53520,113564,5
53509,113542,5
53516,113536,5
53500,113530,5
53511,113545,4
53504,113534,5
53502,113533,5
53499,113531,5
53501,113535,5
53500,113526,4
53501,113525,5
53499,113518,5
53504,113512,5
53489,113510,4
53484,113496,4
53480,113493,5
53495,113488,5
53478,113486,5
53486,113477,4
53482,113478,5
53485,113477,5
53485,113481,5
53478,113480,5
53485,113484,4
53486,113475,5
53487,113484,5
53483,113492,5
53481,113490,5
53483,113481,4
53486,113490,5
53480,113480,5
53481,113492,5
53487,113484,5
53480,113502,5
53489,113496,4
53474,113492,5
53486,113503,5
53503,113522,5
53509,113529,4
53517,113528,5
53508,113532,5
53507,113529,5
53510,113535,5
53512,113515,4
53495,113496,5
53486,113481,5
53483,113476,5
53484,113476,4
53480,113471,4
53477,113470,5
53471,113463,5
53469,113453,5
53473,113459,4
53474,113455,5
53471,113457,5
53480,113458,5
53464,113467,5
53470,113450,4
53463,113459,6
53471,113449,4
53462,113442,5
53468,113451,5
53471,113453,4
53467,113452,9
53461,113454,5
53466,113443,5
53466,113456,5
53470,113480,10
53479,113446,5
53475,113438,5
53472,113455,10
53472,113455,5
53461,113451,5
53467,113440,10
53447,113415,5
53444,113412,7
53446,113393,8
53446,113393,5
53444,113412,7
53457,113423,8
53457,113428,5
53455,113433,7
53431,113425,8
53440,113429,5
53461,113430,7
53461,113430,8
53459,113435,9
53458,113432,8
53442,113431,5
53451,113408,7
53460,113425,8
53460,113425,0
53460,113425,1
53461,113398,5
53480,113417,5
53461,113425,3
53456,113433,4
53466,113432,5
53479,113431,5
53454,113435,5
53458,113425,4
53451,113429,5
53463,113419,5
53448,113416,5
53444,113418,5
53447,113409,4
53444,113411,5
53452,113416,5
53455,113419,5
53442,113414,5
53455,113395,4
53452,113417,5
53462,113430,5
53451,113417,5
53461,113396,5
53443,113419,5
53456,113416,4
53454,113430,5
53455,113420,5
53451,113430,6
53454,113433,3
53456,113435,5
53459,113450,5
53460,113431,5
53455,113442,5
53461,113442,4
53457,113459,5
53459,113438,5
53464,113437,5
53464,113439,4
53462,113458,4
53471,113434,5
53461,113433,5
