RED,IR,EKG,TIME
50030,105958,10
50026,105962,5
50036,105937,5
50034,105933,5
50033,105957,8
50041,105953,5
50029,105942,5
49988,105947,8
50023,105954,5
50025,105947,5
50032,105963,8
50026,105945,5
50029,105939,5
50024,105939,5
50028,105938,8
50028,105938,5
50024,105939,5
50030,105934,8
50029,105931,5
50022,105929,5
50020,105934,5
50027,105932,8
50019,105941,5
50018,105921,5
50015,105918,8
50022,105917,5
50006,105904,5
50006,105904,8
50013,105905,5
50010,105909,5
50001,105913,5
50014,105908,8
50006,105910,5
50021,105911,5
49999,105915,8
50008,105875,5
50007,105891,5
50007,105905,5
49990,105886,8
49990,105886,5
50001,105890,5
50003,105884,8
49995,105879,5
49995,105884,5
49991,105885,8
50002,105879,5
49992,105870,5
50000,105827,5
49996,105862,8
49997,105863,5
49996,105861,5
49992,105870,8
49992,105870,5
49987,105848,5
49977,105852,5
49988,105851,8
50019,105867,5
49992,105859,5
49973,105848,8
49986,105867,5
49990,105862,5
49999,105870,8
50001,105867,5
49978,105854,5
49981,105831,5
49946,105770,8
49946,105770,5
49970,105758,5
49955,105746,8
49906,105758,5
49927,105733,5
49927,105731,5
49926,105739,8
49932,105769,5
49930,105747,5
49929,105753,8
49932,105751,5
49939,105762,5
49938,105763,8
49938,105763,5
49928,105761,5
49901,105755,5
49937,105756,8
49938,105754,5
49936,105763,5
49932,105765,8
49935,105745,5
49934,105756,5
49943,105751,5
49937,105764,8
49929,105753,5
49924,105749,5
49939,105768,8
49939,105768,5
49937,105761,5
49937,105770,8
49945,105782,5
49930,105755,5
49935,105741,5
49928,105745,2
49949,105746,1
49941,105750,3
49939,105750,5
49937,105758,5
49929,105747,4
49935,105755,5
49930,105760,5
49939,105748,5
49934,105743,5
49937,105752,4
49939,105761,5
49938,105763,5
49939,105760,5
49932,105766,5
49945,105764,4
49937,105772,5
49933,105770,5
49939,105763,5
49942,105767,5
49931,105760,4
49929,105767,6
49941,105762,4
49932,105764,5
49939,105763,4
49936,105756,5
49934,105755,5
49923,105744,5
49939,105767,5
49933,105754,4
49936,105765,5
49937,105761,5
49933,105758,5
49931,105761,5
49939,105761,4
49938,105775,5
49942,105765,5
49939,105779,5
49939,105768,5
49937,105764,4
49937,105768,5
49945,105769,5
49940,105766,6
49943,105758,4
49935,105763,4
49933,105759,5
49935,105758,5
49931,105759,5
49930,105758,5
49940,105769,4
49936,105754,5
49938,105762,5
49938,105761,5
49940,105755,4
49931,105761,4
49935,105767,5
49936,105763,5
49943,105769,5
49942,105771,4
49943,105766,5
49948,105780,5
49936,105771,5
49940,105775,5
49943,105771,5
49948,105766,4
49933,105764,5
49946,105763,5
49949,105777,6
49942,105773,3
49943,105775,5
49936,105775,5
49942,105760,5
49937,105778,5
49949,105767,4
49938,105766,5
49938,105760,5
49938,105762,5
49957,105768,5
49940,105761,4
49937,105762,5
49934,105766,5
49943,105760,5
49932,105768,4
49942,105762,4
49928,105768,5
49940,105765,5
49937,105771,5
49939,105772,4
49951,105784,6
49955,105777,4
49950,105780,5
49955,105783,5
49954,105793,6
49950,105769,3
49940,105773,5
49936,105769,5
49938,105761,5
49936,105725,4
49930,105727,5
49919,105727,5
49915,105733,5
49914,105725,5
49907,105708,4
49911,105700,5
49905,105707,5
49918,105723,5
49911,105716,5
49915,105717,4
49911,105728,5
49912,105733,5
49915,105724,5
49906,105729,4
49913,105722,4
49910,105730,6
49912,105717,4
49918,105720,5
49919,105730,4
49921,105721,5
49924,105738,5
49916,105731,5
49923,105733,5
49927,105732,4
49926,105737,5
49924,105745,5
49919,105737,5
49919,105737,5
49930,105731,4
49927,105739,5
49929,105733,5
49927,105741,5
49921,105745,5
49928,105742,4
49931,105744,5
49919,105739,5
49919,105730,5
49920,105729,5
49921,105733,4
49913,105714,5
49918,105715,6
49919,105706,4
49905,105693,4
49906,105694,4
49899,105687,5
49902,105687,5
49897,105689,5
49898,105676,4
49909,105679,5
49900,105678,5
49902,105676,5
49902,105671,5
49902,105671,4
49890,105674,5
49887,105667,5
49890,105674,5
49891,105668,5
49882,105664,4
49877,105666,5
49883,105656,5
49888,105656,5
49881,105654,5
49881,105655,4
49888,105651,5
49889,105656,5
49878,105648,6
49884,105648,4
49883,105654,4
49885,105652,5
49871,105645,5
49886,105636,5
49881,105644,5
49874,105633,4
49875,105628,5
49870,105631,5
49876,105632,5
49872,105631,4
49877,105628,5
49874,105631,5
49874,105637,5
49873,105635,5
49877,105636,4
49878,105640,5
49880,105640,5
49879,105645,5
49878,105647,5
49878,105653,5
49872,105650,4
49874,105648,5
49877,105655,5
49882,105649,6
49873,105641,3
49877,105649,5
49882,105650,5
49875,105655,5
49879,105638,5
49882,105658,4
49875,105654,5
49887,105649,5
49884,105649,5
49879,105651,5
49884,105663,4
49883,105656,5
49889,105667,5
49877,105661,5
49890,105661,4
49882,105661,4
49884,105656,5
49878,105651,5
49883,105657,5
49885,105660,4
49888,105669,6
49901,105670,4
49894,105674,5
49894,105675,5
49898,105673,4
49913,105678,5
49888,105684,5
49901,105677,5
49896,105671,5
49913,105673,4
49901,105687,5
49888,105681,5
49903,105677,5
49897,105680,5
49896,105691,4
49901,105704,5
49915,105705,5
49905,105704,5
49915,105717,5
49916,105716,4
49915,105722,5
49916,105703,5
49918,105712,5
49907,105709,4
49908,105706,5
49910,105700,6
49906,105705,4
49908,105692,5
49901,105690,4
49905,105692,5
49903,105687,5
49905,105694,5
49897,105697,5
49899,105714,4
49910,105701,5
49901,105708,5
49909,105700,5
49911,105738,5
49910,105716,4
49919,105725,5
49919,105724,5
49916,105733,5
49923,105720,5
49929,105734,4
49927,105741,5
49922,105736,5
49920,105728,5
49922,105732,5
49916,105738,4
49927,105730,5
49919,105737,6
49913,105729,4
49915,105737,4
49929,105735,4
49918,105739,5
49932,105748,5
49928,105752,5
49928,105758,4
49936,105762,5
49934,105759,5
49937,105760,5
49936,105760,5
49923,105752,4
49929,105753,5
49927,105745,5
49927,105740,5
49920,105747,5
49927,105756,4
49934,105765,5
49940,105765,5
49939,105773,5
49932,105772,5
49942,105775,4
49940,105776,5
49936,105771,5
49946,105787,6
49948,105782,4
49940,105784,4
49944,105793,5
49947,105794,5
49948,105799,5
49950,105802,4
49954,105809,4
49960,105805,5
49955,105813,5
49963,105819,5
49962,105830,4
49969,105824,5
49963,105840,5
49973,105837,5
49963,105840,5
49972,105834,4
49968,105834,5
49973,105835,5
49975,105841,5
49972,105840,5
49976,105845,5
49974,105848,4
49964,105848,5
49981,105858,5
49977,105862,5
49976,105870,4
49989,105869,5
49990,105888,5
49994,105880,5
50001,105904,5
50003,105901,4
50017,105924,5
50022,105931,5
50029,105939,5
50033,105969,4
50032,105970,4
50048,105990,5
50048,106006,5
50058,106014,5
50054,106026,4
50067,106030,5
50071,106040,5
50067,106042,5
50085,106068,5
50082,106065,4
50101,106081,6
50095,106092,4
50101,106117,5
50111,106127,5
50125,106146,4
50120,106157,5
50116,106163,5
50129,106172,5
50124,106160,5
50123,106167,4
50132,106165,5
50132,106160,5
50122,106147,5
50108,106143,5
50113,106137,4
50117,106135,5
50111,106135,5
50121,106137,5
50122,106135,4
50112,106135,4
50120,106138,5
50138,106141,5
50128,106160,5
50133,106151,4
50130,106162,5
50140,106161,6
50131,106146,4
50124,106158,5
50120,106159,4
50131,106150,5
50127,106155,5
50118,106152,5
50117,106153,5
50113,106152,4
50126,106161,5
50115,106156,5
50120,106136,5
50127,106143,5
50117,106148,4
50125,106155,5
50122,106153,5
50121,106138,5
50125,106162,5
50132,106169,4
50139,106172,5
50128,106173,5
50137,106181,5
50129,106172,4
50134,106171,4
50137,106195,5
50126,106175,5
50136,106167,5
50137,106176,4
50133,106181,5
50126,106172,5
50135,106174,5
50133,106195,5
50146,106214,4
50151,106198,5
50148,106219,5
50146,106216,5
50157,106226,5
50160,106237,4
50166,106253,5
50180,106270,5
50187,106274,5
50184,106274,5
50191,106285,4
50182,106306,5
50189,106312,5
50199,106320,5
50208,106330,5
50222,106357,4
50223,106360,5
50239,106379,5
50239,106397,5
50237,106406,5
50251,106423,4
50258,106433,5
50255,106429,5
50263,106428,5
50257,106434,4
50260,106440,5
50274,106454,5
50266,106455,5
50264,106467,5
50274,106489,4
50286,106490,5
50296,106502,5
50301,106510,5
50309,106530,5
50309,106541,4
50315,106559,5
50323,106568,5
50331,106565,5
50337,106579,5
50335,106589,5
50343,106599,4
50343,106607,5
50346,106606,5
50347,106611,5
50349,106610,4
50355,106615,5
50364,106629,5
50359,106634,5
50366,106666,5
50370,106679,4
50389,106695,5
50383,106694,5
50396,106721,5
50390,106716,4
50408,106713,4
50393,106718,5
50401,106723,5
50404,106725,5
50399,106723,4
50399,106712,5
50405,106708,6
50400,106713,4
50396,106710,5
50398,106715,4
50401,106710,7
50395,106727,3
50412,106728,5
50427,106739,5
50421,106756,4
50428,106759,5
50419,106767,5
50423,106766,5
50427,106766,5
50422,106770,4
50427,106770,5
50419,106778,5
50428,106768,5
50428,106774,5
50432,106781,4
50435,106783,5
50434,106793,5
50427,106788,5
50435,106793,4
50434,106790,4
50439,106795,5
50433,106805,6
50443,106795,4
50441,106811,4
50448,106814,5
50437,106809,5
50447,106822,5
50447,106817,5
50446,106821,4
50442,106825,5
50448,106819,5
50446,106815,5
50449,106808,5
50455,106809,4
50448,106799,5
50450,106795,5
50449,106799,5
50459,106799,5
50441,106797,4
50433,106788,5
50440,106794,5
50454,106782,5
50432,106770,5
50436,106762,4
50425,106762,5
50424,106750,5
50417,106747,6
50420,106729,3
50413,106731,4
50414,106714,5
50404,106714,5
50394,106702,5
50387,106700,4
50389,106679,5
50388,106685,5
50380,106670,5
50378,106673,5
50370,106632,4
50368,106636,5
50359,106630,5
50359,106619,5
50349,106596,5
50345,106585,4
50342,106578,5
50326,106558,5
50325,106545,5
50314,106531,5
50294,106521,5
50300,106506,4
50288,106501,5
50287,106473,5
50290,106456,6
50280,106444,6
50267,106448,2
50262,106438,5
50263,106421,5
50255,106411,5
50249,106390,4
50245,106376,5
50233,106367,5
50238,106354,5
50223,106354,4
50225,106345,5
50221,106329,5
50215,106333,5
50207,106319,5
50213,106322,4
50209,106319,5
50211,106310,5
50201,106319,5
50197,106308,5
50194,106292,4
50191,106273,6
50183,106266,4
50171,106249,5
50161,106207,5
50142,106181,6
50133,106154,3
50125,106137,5
50110,106116,5
50105,106109,5
50104,106100,4
50101,106105,5
50095,106101,5
50109,106093,5
50102,106106,5
50095,106097,4
50103,106108,5
50094,106097,5
50097,106097,5
50100,106091,4
50086,106084,5
50098,106091,5
50092,106091,5
50098,106092,5
50092,106083,4
50101,106076,5
50084,106082,6
50083,106074,4
50090,106080,5
50091,106073,4
50091,106067,5
50087,106060,5
50077,106057,5
50088,106074,5
50084,106058,4
50079,106063,5
50083,106065,5
50086,106061,5
50081,106065,5
50090,106069,4
50083,106056,5
50076,106051,5
50087,106061,5
50082,106059,5
50075,106047,4
50075,106047,5
50071,106054,5
50079,106044,5
50078,106041,4
50075,106057,5
50076,106052,5
50084,106050,6
50074,106056,4
50089,106044,4
50081,106052,5
50086,106059,5
50081,106059,5
50084,106052,5
50076,106043,4
50071,106056,5
50076,106048,5
50079,106039,5
50081,106045,5
50071,106048,4
50068,106049,5
50080,106037,5
50080,106046,5
50065,106055,5
50082,106053,4
50072,106050,5
50085,106052,5
50062,106040,5
50076,106058,5
50078,106046,4
50079,106047,5
50071,106047,5
50073,106054,6
50071,106046,3
50080,106045,4
50067,106034,5
50075,106024,5
50070,106023,5
50067,106018,4
50076,106019,5
50062,106017,5
50051,106013,5
50061,106014,5
50078,106015,4
50059,106012,5
50064,106012,5
50059,106022,5
50061,106010,5
50058,106014,4
50061,106018,5
50061,106020,5
50067,106012,5
50067,106020,5
50067,106016,5
50062,106015,4
50062,106001,5
50065,106018,5
50070,106018,5
50069,106020,4
50066,106010,5
50061,106022,5
50063,106007,5
50068,106013,4
50054,106002,4
50061,106011,5
50052,106011,5
50056,106004,5
50059,106018,4
50057,106008,5
50059,106007,5
50053,106007,5
50059,106022,5
50058,106010,4
50062,106017,5
50062,106008,5
50054,106028,5
50056,106000,5
50062,106011,4
50055,106005,6
50059,106023,4
50059,106009,5
50054,106022,5
50062,106005,4
50060,106002,5
50048,105993,5
50046,105981,5
50046,105975,5
50032,105950,4
50025,105925,5
50019,105923,5
50009,105908,5
50009,105896,4
50000,105895,4
50000,105899,5
50006,105904,5
50004,105900,5
50010,105903,4
50001,105900,5
50005,105908,5
50006,105907,5
50008,105900,5
50006,105900,4
50005,105894,5
50008,105892,6
49998,105893,4
50000,105893,5
50007,105901,4
50005,105891,5
50001,105894,5
50001,105904,5
50009,105895,5
50000,105892,4
50002,105900,5
50004,105901,5
50002,105892,5
50000,105892,5
50002,105902,4
50002,105887,5
50000,105891,5
50005,105892,5
50001,105896,5
49994,105894,4
50006,105906,5
50001,105882,5
49992,105888,5
50001,105888,4
49998,105877,5
49988,105882,5
49989,105881,6
49995,105883,4
49991,105876,4
50002,105875,5
49992,105873,5
49997,105873,5
50002,105880,5
49998,105875,4
49991,105885,5
49997,105883,5
49991,105879,5
49995,105881,5
49995,105881,4
49999,105875,5
50001,105888,5
49991,105882,5
49997,105891,5
50000,105877,4
49991,105883,5
49989,105883,5
49997,105873,5
49995,105879,5
49992,105879,4
49994,105883,5
49993,105877,5
49994,105883,5
50001,105875,4
49999,105878,5
49989,105883,5
49992,105889,5
49996,105874,5
50000,105873,4
49986,105880,5
49994,105872,5
49994,105880,5
49995,105877,5
49975,105872,4
49998,105876,5
49989,105871,5
49991,105873,5
49972,105883,5
49988,105869,4
49995,105883,5
49999,105869,5
49996,105876,5
49985,105874,5
49991,105883,5
49986,105886,4
50002,105882,5
49990,105867,5
49993,105875,5
49993,105885,4
50002,105879,5
49988,105880,5
49989,105877,5
49986,105877,4
49995,105872,4
49990,105873,5
49992,105876,5
49993,105878,5
49987,105886,4
49992,105883,5
49988,105882,5
50004,105892,5
49999,105867,5
49986,105882,4
49998,105874,5
49993,105873,5
49986,105866,5
49983,105873,5
49989,105882,4
49995,105894,6
50002,105872,4
49996,105878,5
49984,105876,5
49985,105878,4
49995,105892,5
50003,105897,5
49997,105895,5
50001,105894,5
49996,105911,4
49998,105901,5
49999,105891,5
50002,105894,5
49994,105891,4
49983,105874,4
49983,105853,5
49973,105843,5
49979,105840,5
49966,105830,4
49965,105831,5
49959,105825,5
49958,105814,5
49957,105811,5
49967,105816,4
49969,105820,5
49968,105831,6
49965,105839,4
49966,105837,5
49971,105833,4
49978,105842,5
49972,105832,5
49975,105845,5
49977,105845,5
49977,105842,4
49976,105842,5
49977,105835,5
49966,105835,5
49965,105824,5
49974,105832,4
49970,105826,5
49964,105819,5
49962,105826,5
49963,105810,5
49956,105824,4
49962,105817,5
49955,105819,5
49964,105827,5
49966,105836,4
49964,105826,5
49976,105838,5
49967,105819,5
49968,105833,5
49968,105826,4
49963,105823,5
49970,105829,5
49959,105820,5
49962,105807,5
49967,105825,4
49966,105822,5
49968,105825,5
49968,105826,5
49969,105829,5
49961,105825,4
49961,105814,5
49960,105818,5
49963,105819,5
49967,105813,5
49958,105816,5
49960,105817,4
49963,105817,5
49964,105817,5
49960,105808,6
49964,105811,3
49962,105811,5
49956,105807,5
49957,105800,5
49954,105811,4
49953,105801,4
49959,105811,5
49961,105817,5
49955,105813,5
49951,105806,4
49963,105806,5
49956,105810,5
49959,105801,5
49958,105806,5
49952,105800,4
49953,105801,5
49958,105810,5
49947,105801,5
49955,105801,5
49956,105811,4
49950,105801,6
49949,105799,4
49955,105788,5
49948,105790,5
49950,105790,6
49950,105790,3
49945,105798,5
49936,105783,5
49948,105789,5
49945,105790,4
49938,105784,5
49944,105787,5
49949,105791,5
49943,105801,4
49935,105791,4
49951,105786,5
49944,105792,5
49948,105797,5
49946,105801,4
49948,105807,5
49958,105803,5
49951,105806,5
49965,105814,5
49959,105816,4
49958,105810,5
49955,105809,6
49983,105821,4
49966,105830,5
49965,105822,4
49957,105823,5
49963,105824,5
49959,105834,5
49966,105824,5
49961,105827,4
49968,105830,5
49969,105827,5
49968,105841,5
49981,105841,5
49973,105832,4
49978,105840,5
49978,105847,5
49966,105841,5
49974,105847,4
49983,105867,4
49983,105871,5
49980,105882,5
49994,105874,5
49997,105886,4
49995,105889,5
49990,105883,5
49990,105887,6
49987,105878,4
49993,105870,4
49986,105865,5
49980,105870,5
49983,105862,5
49974,105853,5
49973,105856,4
49982,105869,5
49979,105855,5
49987,105862,5
49979,105875,5
49992,105885,4
49984,105876,5
49998,105884,6
49997,105887,4
49991,105901,5
49999,105894,4
49996,105913,5
50006,105920,5
50020,105925,5
50021,105940,5
50024,105956,4
50031,105961,5
50024,105952,5
50028,105965,6
50032,105959,3
50028,105968,5
50034,105966,5
50034,105978,5
50046,105985,5
50041,105992,4
50048,105987,5
50050,106005,5
50052,106014,5
50060,106009,5
50058,106030,4
50059,106036,5
50070,106039,5
50069,106045,5
50067,106046,5
50066,106047,4
50071,106046,5
50070,106035,5
50072,106046,5
50077,106054,5
50082,106049,5
50083,106057,4
50078,106063,5
50080,106068,5
50078,106070,6
50086,106066,3
50083,106082,5
50079,106076,5
50087,106090,5
50094,106099,4
50095,106086,5
50091,106095,5
50100,106100,5
50098,106096,5
50097,106100,4
50096,106098,5
50097,106092,5
50101,106103,5
50094,106100,5
50094,106097,4
50103,106102,5
50104,106104,5
50094,106107,5
50097,106101,5
50095,106101,4
50103,106112,6
50098,106100,4
50107,106109,5
50105,106112,5
50101,106102,4
50093,106105,5
50096,106097,5
50103,106100,5
50100,106103,5
50096,106094,4
50098,106100,5
50098,106084,5
50100,106104,5
50096,106098,4
50100,106109,4
50091,106094,5
50104,106102,5
50104,106101,5
50102,106107,4
50098,106102,5
50104,106100,5
50094,106105,5
50103,106115,5
50108,106121,4
50115,106117,5
50110,106130,6
50116,106153,4
50124,106150,5
50133,106172,4
50131,106180,5
50131,106193,5
50139,106192,5
50145,106203,5
50154,106214,4
50152,106228,5
50170,106251,5
50169,106256,5
50178,106257,5
50183,106271,4
50183,106261,5
50181,106274,5
50182,106278,5
50190,106279,4
50180,106275,4
50177,106273,5
50187,106277,5
50208,106291,5
50186,106283,4
50194,106307,5
50198,106305,5
50224,106335,6
50220,106346,4
50228,106364,4
50225,106379,5
50232,106383,5
50237,106395,5
50243,106405,5
50245,106417,4
50251,106410,5
50260,106431,5
50269,106454,5
50279,106465,5
50280,106457,4
50279,106474,5
50282,106487,5
50288,106485,5
50286,106493,5
50293,106498,4
50292,106502,5
50292,106513,5
50293,106522,5
50298,106517,5
50305,106523,4
50301,106529,5
50312,106548,5
50315,106552,6
50322,106567,3
50328,106560,5
50326,106587,5
50337,106587,5
50337,106589,5
50336,106589,4
50338,106589,5
50336,106596,5
50346,106596,5
50341,106606,5
50352,106627,4
50355,106646,5
50377,106668,5
50384,106684,5
50394,106706,5
50392,106722,4
50400,106722,5
50398,106726,5
50409,106745,5
50418,106763,5
50416,106764,5
50424,106771,4
50429,106770,5
50429,106790,5
50434,106795,4
50430,106796,4
50445,106798,5
50435,106795,5
50441,106799,5
50432,106798,4
50449,106816,5
50443,106811,5
50448,106803,5
50448,106816,5
50451,106820,4
50455,106809,5
50443,106821,5
50446,106816,5
50463,106826,5
50447,106837,4
50453,106821,5
50452,106813,5
50451,106824,5
50449,106809,5
50450,106803,4
50448,106812,6
50437,106807,4
50445,106799,5
50442,106805,5
50440,106799,4
50435,106782,5
50433,106785,5
50433,106778,5
50429,106762,4
50416,106765,4
50431,106759,5
50413,106740,5
50419,106741,5
50412,106728,4
50404,106719,5
50398,106715,5
50394,106690,5
50383,106688,5
50381,106682,4
50382,106678,5
50374,106664,5
50376,106647,5
50367,106642,5
50356,106623,4
50351,106593,5
50349,106576,6
50322,106554,4
50314,106524,5
50300,106484,4
50270,106445,5
50259,106416,5
50250,106385,5
50233,106361,5
50220,106339,4
50215,106322,5
50203,106302,5
50199,106288,5
50192,106283,4
50194,106279,4
50184,106261,5
50173,106244,5
50173,106234,5
50149,106207,4
50149,106195,5
50139,106181,5
50129,106174,5
50116,106169,5
50125,106151,4
50126,106152,5
50127,106142,5
50107,106137,5
50117,106133,5
50118,106128,4
50107,106113,5
50106,106108,5
50106,106096,5
50095,106082,5
50096,106083,4
50105,106082,5
50094,106086,5
50092,106084,5
50084,106073,5
50104,106067,4
50090,106065,5
50088,106067,5
50080,106057,5
50084,106056,4
50066,106041,5
50070,106033,5
50065,106019,5
50063,106017,5
50068,106030,5
50062,106030,4
50068,106024,5
50074,106026,5
50063,106035,5
50069,106033,4
50061,106029,5
50067,106009,5
50073,106033,5
50071,106027,5
50062,106038,4
50066,106021,5
50070,106041,5
50069,106042,5
50071,106033,5
50066,106047,4
50072,106037,5
50064,106045,5
50075,106032,5
50064,106048,5
50063,106027,4
50063,106029,5
50062,106016,5
50062,106030,5
50064,106021,4
50063,106016,6
50056,106031,4
50071,106031,5
50061,106034,5
50071,106040,4
50079,106032,5
50074,106037,5
50076,106041,5
50071,106035,5
50060,106037,4
50071,106039,5
50069,106031,5
50072,106020,5
50062,106016,5
50060,106014,4
50058,106021,5
50062,106011,5
50059,106021,5
50053,106005,5
50051,106013,4
50055,106006,5
50057,106013,5
50052,106020,5
50054,106016,5
50059,106016,4
50063,106021,6
50062,106020,4
50060,106026,5
50056,106023,4
50059,106009,5
50059,106022,5
50062,106020,5
50062,106012,5
50061,106015,4
50059,106013,5
50057,106013,5
50057,106012,5
50052,106007,5
50054,106009,4
50052,106014,5
50054,105999,5
50052,106005,5
50056,106009,5
50052,106010,4
50052,106016,5
50056,106016,5
50051,105994,6
50040,105997,4
50043,105990,4
50042,105974,5
50029,105950,5
50025,105942,5
50022,105926,5
50014,105915,4
50003,105895,5
49997,105887,5
49998,105888,5
50001,105892,4
49998,105884,5
49996,105889,5
50001,105902,5
50003,105898,5
49999,105897,4
49997,105903,5
49993,105896,5
50000,105896,5
49999,105892,5
49996,105894,5
49997,105895,4
50002,105892,5
50003,105900,5
49994,105900,6
50004,105896,3
50001,105897,5
49990,105884,5
49990,105881,5
49993,105886,5
49995,105878,4
49997,105877,5
49985,105869,5
49987,105876,5
49979,105879,5
49988,105881,4
49982,105874,5
49998,105880,5
49992,105879,5
49991,105886,4
49979,105881,4
49989,105884,5
49985,105891,5
49992,105875,5
49976,105875,4
49995,105882,6
49995,105878,4
49991,105886,5
49992,105880,5
49991,105876,6
49997,105878,3
49994,105892,5
50012,105893,5
49993,105894,5
49994,105890,4
50002,105897,5
50008,105896,5
49989,105899,5
49998,105897,5
49999,105898,4
50003,105893,5
50006,105894,5
49999,105890,5
49996,105901,5
50001,105902,4
49999,105901,5
50000,105898,5
50002,105905,5
50004,105906,4
49999,105903,4
49996,105901,6
50000,105906,4
49996,105883,5
50004,105902,4
49997,105897,5
50008,105906,5
50001,105897,5
50007,105898,5
49999,105898,4
50002,105903,5
49996,105914,5
49997,105894,5
50000,105892,5
49998,105896,4
50000,105910,5
50001,105901,5
49992,105897,5
49994,105889,5
49997,105901,4
49996,105889,5
50001,105896,5
49995,105887,5
49993,105903,5
50004,105899,4
50002,105894,5
49992,105889,6
49996,105886,6
49992,105886,2
49996,105893,4
50001,105886,5
49992,105897,5
49993,105893,5
49993,105893,4
49997,105896,5
49987,105895,5
49997,105891,5
49997,105889,5
50000,105891,4
49994,105894,5
49992,105895,5
49999,105895,5
49993,105904,5
49993,105899,4
49997,105887,5
50000,105892,5
49990,105894,5
49989,105880,5
49992,105896,4
49994,105893,5
49996,105897,5
49997,105893,6
49998,105890,4
50002,105886,4
50000,105896,5
49993,105888,5
49998,105893,5
49988,105896,5
49995,105886,4
49995,105885,5
49986,105873,5
49990,105870,5
49985,105856,4
49977,105849,5
49969,105827,5
49967,105833,5
49969,105830,5
49971,105818,4
49963,105824,5
49962,105819,5
49959,105829,5
49963,105822,5
49963,105826,5
49968,105824,4
49973,105829,5
49964,105830,5
49965,105825,6
49969,105827,3
49971,105822,5
49963,105810,5
49954,105825,5
49958,105822,5
49961,105825,4
49959,105826,5
49958,105825,5
49960,105818,5
49960,105823,5
49955,105816,4
49964,105810,5
49951,105820,5
49958,105815,5
49957,105821,4
49959,105820,4
49957,105841,5
49966,105828,5
49974,105827,5
49977,105842,4
49979,105839,6
49983,105852,4
49972,105848,5
49982,105861,5
49981,105861,4
49985,105867,5
49992,105866,5
49970,105859,5
49981,105854,5
49988,105872,4
49979,105863,5
49968,105878,5
49987,105876,5
49988,105869,5
49995,105883,4
49978,105879,5
49991,105885,5
49994,105892,5
49992,105889,5
49990,105888,4
49998,105892,5
49994,105907,5
50001,105910,5
50020,105906,4
50006,105923,4
50005,105914,6
50007,105919,4
50016,105914,5
50010,105921,4
50009,105913,5
50002,105923,5
50014,105925,5
50014,105924,5
50014,105921,4
50014,105914,5
50009,105917,5
50014,105918,5
50010,105909,5
50018,105914,4
50005,105910,5
50007,105925,5
50013,105922,5
50004,105912,5
50017,105905,4
50005,105913,5
50010,105913,5
50010,105917,5
50010,105909,5
50011,105918,4
50003,105917,5
50004,105922,6
49997,105923,4
50008,105930,4
50020,105935,4
50024,105945,5
50033,105989,5
50048,105992,5
50067,106035,4
50071,106059,5
50090,106096,5
50106,106125,5
50126,106168,5
50151,106199,4
50165,106246,5
50183,106276,5
50205,106322,5
50223,106377,5
50258,106410,4
50280,106461,5
50296,106512,5
50326,106552,5
50340,106596,5
50361,106646,4
50389,106691,5
50404,106731,5
50428,106771,6
50451,106822,4
50473,106853,4
50486,106893,5
50491,106910,5
50501,106907,5
50502,106914,5
50505,106908,4
50503,106897,5
50492,106894,5
50487,106876,5
50476,106859,4
50474,106862,5
50464,106838,5
50455,106826,5
50461,106811,5
50443,106790,4
50450,106791,5
50441,106786,5
50441,106774,5
50432,106762,5
50426,106754,5
50424,106749,4
50414,106740,5
50408,106724,5
50409,106707,5
50404,106699,4
50411,106678,5
50391,106688,5
50394,106677,5
50392,106676,5
50393,106667,4
50384,106662,5
50379,106662,5
50381,106658,5
50380,106646,5
50373,106639,4
50367,106629,5
50374,106626,5
50356,106621,5
50364,106620,4
50363,106623,5
50357,106611,5
50357,106612,5
50358,106600,5
50345,106602,4
50339,106582,6
50341,106585,4
50331,106565,5
50333,106559,5
50333,106546,4
50321,106533,5
50325,106517,5
50314,106527,5
50316,106532,5
50315,106529,4
50315,106523,5
50310,106517,5
50308,106524,5
50304,106505,5
50309,106497,4
50296,106506,5
50306,106493,5
50292,106472,5
50294,106478,5
50291,106464,4
50285,106462,5
50280,106453,5
50281,106447,5
50263,106430,4
50269,106419,4
50257,106413,6
50248,106398,4
50233,106384,5
50247,106377,4
50237,106370,5
50234,106359,5
50202,106347,5
50217,106338,5
50212,106318,4
50205,106308,5
50201,106305,5
50199,106291,5
50190,106266,5
50184,106251,4
50183,106242,5
50167,106222,5
50161,106220,5
50155,106214,5
50163,106203,4
50144,106201,5
50146,106189,5
50140,106178,5
50146,106168,5
50137,106168,4
50132,106165,5
50130,106157,5
50121,106146,5
50119,106132,4
50111,106130,4
50112,106111,5
50101,106098,5
50101,106096,5
50098,106088,4
50092,106092,5
50088,106072,5
50081,106070,5
50080,106069,5
50085,106076,4
50085,106065,5
50093,106072,5
50096,106081,5
50084,106095,5
50085,106094,4
50083,106074,5
50085,106081,5
50094,106070,5
50085,106082,5
50072,106045,4
50066,106030,5
50068,106018,5
50059,106022,5
50057,106007,5
50039,105992,4
50050,106004,5
50041,106005,5
50052,105998,5
50046,106000,4
50051,106003,4
50049,106007,5
50054,106006,5
50054,105996,5
50052,105986,4
50041,105989,5
50046,105989,5
50043,105983,5
50037,105980,5
50039,105986,4
50037,105986,5
50035,105976,4
50043,105987,5
50039,105982,5
50043,105975,5
50038,105964,3
50035,105968,5
50028,105969,5
50027,105969,5
50025,105964,4
50032,105961,5
50017,105959,5
50023,105970,5
50031,105961,5
50026,105952,4
50030,105943,5
50022,105957,5
50018,105938,5
50014,105930,5
50013,105939,4
50017,105928,5
50019,105930,5
50014,105937,5
50018,105927,4
50007,105929,5
50021,105937,6
50021,105944,4
50023,105944,5
50023,105942,4
50028,105955,7
50025,105949,3
50024,105957,5
50023,105965,5
50038,105962,4
50036,105972,5
50036,105964,5
50028,105973,5
50036,105982,5
50038,105986,4
50037,105993,5
50046,105999,5
50048,106002,5
50049,106016,5
50056,106026,4
50057,106018,5
50070,106029,5
50060,106038,5
50062,106033,5
50072,106039,4
50068,106040,5
50069,106046,6
50072,106037,4
50071,106039,4
50077,106048,5
50069,106040,5
50073,106035,5
50063,106040,5
50073,106044,4
50076,106050,5
50072,106052,5
50068,106053,5
50069,106061,5
50080,106059,4
50074,106063,5
50082,106060,5
50085,106073,5
50082,106078,5
50085,106070,4
50082,106069,5
50083,106083,5
50087,106070,5
50085,106081,5
50069,106083,4
50085,106086,5
50090,106098,5
50094,106110,6
50092,106114,4
50098,106124,4
50101,106111,5
50101,106116,5
50096,106111,5
50098,106108,4
50099,106105,4
50093,106105,5
50104,106082,5
50092,106090,5
50088,106090,4
50091,106085,5
50104,106083,5
50093,106081,5
50083,106089,5
50090,106104,4
50111,106106,5
50101,106103,5
50095,106115,5
50110,106118,5
50105,106120,5
50104,106106,4
50106,106117,5
50102,106113,5
50106,106117,6
50112,106128,3
50109,106123,5
50114,106129,5
50111,106128,5
50110,106135,5
50115,106142,4
50118,106142,5
50117,106126,5
50124,106138,5
50110,106140,4
50119,106144,4
50115,106151,5
50115,106148,5
50122,106154,5
50120,106165,4
50123,106182,5
50121,106167,5
50133,106155,5
50128,106165,5
50139,106181,4
50123,106153,6
50117,106164,4
50124,106167,5
50125,106173,5
50121,106167,6
50132,106164,3
50123,106168,5
50134,106177,5
50137,106185,5
50140,106198,4
50135,106190,5
50151,106201,5
50144,106208,5
50154,106214,9
50155,106216,0
50145,106194,5
50151,106227,5
50153,106225,5
50156,106236,5
50152,106246,4
50155,106241,5
50171,106246,5
50160,106257,5
50168,106258,4
50175,106272,5
50181,106276,6
50186,106281,4
50179,106281,5
50174,106279,4
50186,106295,5
50179,106280,5
50176,106283,5
50190,106290,5
50184,106272,4
50185,106273,5
50186,106284,5
50186,106298,5
50187,106294,5
50192,106300,4
50189,106302,5
50204,106312,5
50198,106327,5
50196,106329,5
50198,106338,4
50202,106336,5
50218,106348,5
50208,106350,5
50207,106341,5
50208,106349,4
50217,106350,5
50213,106341,6
50212,106343,4
50225,106347,4
50211,106352,5
50219,106344,5
50228,106362,5
50224,106363,5
50234,106392,4
50241,106399,5
50243,106407,5
50242,106410,5
50250,106409,5
50244,106405,4
50240,106396,5
50245,106397,5
50235,106401,5
50230,106391,5
50231,106391,4
50225,106386,5
50223,106372,5
50223,106382,5
50222,106384,5
50229,106384,4
50227,106394,5
50241,106394,5
50238,106401,6
50238,106399,4
50242,106396,4
50235,106389,5
50231,106383,5
50239,106382,5
50235,106388,4
50232,106385,4
50243,106386,5
50236,106388,5
50225,106372,5
50228,106381,4
50226,106376,5
50212,106366,5
50229,106369,5
50216,106364,5
50218,106355,4
50195,106336,5
50210,106330,5
50206,106334,5
50211,106322,5
50187,106313,5
50205,106304,4
50193,106304,5
50191,106291,5
50184,106274,5
50168,106264,4
50161,106257,5
50162,106242,5
50165,106213,5
50148,106203,5
50136,106186,4
50134,106168,5
50145,106175,5
50127,106160,5
50119,106140,4
50114,106135,4
50104,106114,5
50093,106100,5
50092,106082,5
50080,106068,4
50079,106047,5
50071,106055,5
50078,106056,5
50069,106047,5
50076,106039,4
50064,106042,6
50071,106040,4
50062,106042,5
50058,106027,5
50057,106034,4
50064,106032,5
50059,106020,5
50059,106016,5
50060,106011,5
50049,106014,4
50053,106008,5
50048,106010,5
50053,105995,5
50044,105983,5
50039,106000,4
50043,106009,5
50044,105990,5
50040,105977,5
50033,105975,4
50036,105975,4
50032,105955,5
50035,105953,5
50026,105949,5
50022,105943,4
50015,105940,5
50014,105917,56
49999,105917,5
50000,105911,2
50000,105905,4
50000,105912,5
49985,105908,5
50002,105916,5
49998,105916,5
50003,105910,4
50009,105909,5
50007,105910,5
50007,105907,5
49997,105912,5
50006,105897,4
49992,105895,5
49995,105901,6
49993,105882,4
49984,105866,4
49971,105844,5
49966,105838,5
49957,105822,5
49957,105817,5
49950,105811,4
49956,105799,5
49948,105799,5
49942,105797,5
49955,105802,5
49952,105810,4
49959,105814,5
49953,105812,5
49958,105820,5
49958,105808,5
49950,105816,4
49959,105821,5
49945,105815,5
49959,105817,5
49951,105823,5
49957,105809,4
49952,105816,5
49959,105812,5
49962,105803,5
49948,105810,5
49950,105821,4
49956,105807,5
49949,105814,5
49952,105800,5
49956,105807,4
49949,105818,5
49947,105803,5
49954,105808,5
49949,105813,5
49945,105818,4
49954,105816,5
49964,105816,5
49956,105811,5
49957,105810,5
49951,105816,4
49950,105802,5
49955,105812,5
49948,105804,5
49950,105814,5
49952,105807,5
49957,105811,4
49956,105815,5
49954,105808,5
49956,105811,5
49957,105801,4
49957,105815,5
49953,105815,5
49959,105816,5
49961,105813,5
49945,105814,4
49959,105812,5
49959,105830,5
49952,105831,5
49945,105825,4
49967,105827,5
49959,105825,5
49962,105825,5
49953,105832,5
49958,105826,4
49956,105824,5
49962,105826,5
49961,105818,5
49962,105822,5
49965,105814,4
49960,105817,6
49978,105814,4
49951,105821,5
49954,105822,5
49957,105817,4
49972,105830,5
49971,105831,5
49963,105831,5
49961,105824,5
49969,105835,4
49961,105836,5
49954,105839,5
49958,105822,5
49961,105831,5
49966,105827,4
49955,105822,5
49961,105821,5
49954,105802,5
49949,105819,4
49954,105817,4
49955,105823,5
49955,105799,5
49955,105825,5
49957,105820,4
49954,105822,5
49953,105819,6
49962,105826,4
49961,105819,5
49967,105837,4
49962,105837,5
49959,105833,5
49974,105833,5
49979,105842,5
49969,105858,4
49970,105849,5
49967,105840,5
49962,105835,5
49971,105847,5
49966,105845,4
49974,105850,5
49966,105842,5
49962,105844,5
49970,105826,5
49965,105838,4
49955,105837,5
49961,105833,5
49954,105829,5
49954,105825,3
49963,105824,4
49961,105821,5
49958,105828,5
49959,105827,5
49964,105832,4
49966,105825,5
49968,105833,5
49966,105829,5
49959,105822,5
49967,105817,4
49963,105820,5
49953,105825,5
49952,105819,5
49953,105825,5
49963,105824,4
49955,105817,5
49958,105827,5
49956,105830,5
49971,105841,5
49964,105851,5
49973,105844,4
49974,105859,5
49972,105847,5
49973,105846,6
49963,105837,3
49958,105821,5
49961,105818,5
49952,105788,5
49944,105791,4
49937,105779,4
49935,105765,5
49918,105760,5
49927,105753,5
49926,105760,4
49931,105759,5
49930,105758,5
49935,105780,5
49937,105775,5
49940,105782,4
49938,105785,5
49929,105773,5
49932,105778,5
49936,105781,5
49947,105784,4
49926,105777,6
49939,105787,4
49938,105789,5
49941,105789,5
49942,105786,6
49940,105792,3
49933,105792,5
49940,105789,5
49932,105777,5
49946,105783,4
49931,105785,5
49933,105779,5
49939,105779,5
49934,105777,4
49933,105770,4
49929,105776,5
49945,105773,5
49940,105788,5
49937,105784,4
49935,105777,5
49940,105770,5
49934,105771,5
49933,105782,5
49932,105777,4
49919,105768,5
49929,105785,6
49930,105764,4
49932,105771,5
49934,105765,4
49929,105766,5
49926,105767,5
49943,105763,5
49928,105770,5
49924,105769,4
49914,105769,5
49930,105772,5
49940,105778,5
49932,105774,5
49926,105773,4
49937,105776,5
49939,105782,5
49936,105780,5
49948,105783,4
49938,105776,4
49939,105774,5
49926,105774,5
49941,105777,5
49930,105768,4
49937,105778,5
49932,105775,5
49944,105777,6
49932,105782,4
49933,105776,4
49936,105787,5
49943,105772,5
49941,105775,5
49930,105785,5
49934,105778,4
49937,105777,5
49936,105781,5
49933,105777,5
49935,105775,5
49939,105772,4
49930,105788,5
49926,105789,5
49937,105770,5
49936,105767,5
49934,105782,4
49939,105778,5
49938,105785,5
49937,105771,5
49946,105784,5
49943,105783,4
49930,105788,5
49935,105792,5
49939,105780,6
49941,105775,3
49937,105780,5
49938,105788,5
49938,105783,5
49930,105785,5
49945,105783,4
49936,105790,5
49946,105770,5
49932,105766,5
49933,105773,5
49933,105775,4
49931,105774,5
49934,105770,5
49939,105777,5
49936,105767,5
49932,105774,4
49927,105773,5
49935,105761,5
49936,105760,5
49935,105771,5
49936,105769,5
49937,105774,6
49938,105772,3
49936,105775,5
49931,105782,6
49931,105777,3
49938,105777,5
49937,105765,5
49930,105765,5
49929,105757,4
49928,105766,5
49927,105752,5
49929,105748,5
49914,105733,5
49913,105730,4
49909,105734,5
49913,105722,5
49901,105707,5
49905,105712,5
49898,105717,4
49902,105714,5
49900,105721,5
49911,105727,5
49906,105720,5
49903,105713,4
49905,105720,6
49900,105703,4
49901,105704,5
49908,105708,4
49903,105716,4
49904,105719,5
49906,105735,5
49909,105724,5
49909,105728,4
49911,105724,5
49910,105733,5
49909,105731,5
49903,105735,5
49907,105720,4
49913,105722,5
49910,105724,5
49912,105738,5
49918,105722,5
49910,105721,4
49912,105732,5
49912,105735,5
49918,105744,5
49919,105736,5
49917,105728,4
49915,105734,5
49914,105733,6
49910,105730,4
49916,105718,5
49914,105714,4
49903,105716,5
49904,105717,5
49914,105724,5
49909,105717,4
49905,105731,4
49912,105729,5
49911,105733,5
49918,105734,5
49916,105734,4
49910,105738,5
49920,105744,5
49914,105748,5
49929,105759,5
49921,105752,4
49917,105753,5
49929,105752,5
49922,105751,5
49913,105754,5
49926,105760,4
49920,105760,5
49916,105756,5
49909,105773,6
49928,105771,4
49926,105772,4
49935,105770,5
49918,105768,5
49936,105772,5
49930,105773,5
49936,105767,4
49938,105772,5
49930,105770,5
49932,105777,5
49925,105768,4
49946,105768,4
49938,105767,5
49925,105764,5
49928,105762,5
49943,105762,4
49927,105762,5
49920,105767,5
49925,105771,5
49923,105770,5
49929,105754,5
49936,105764,4
49931,105767,5
49938,105776,5
49934,105779,5
49930,105776,4
49938,105782,5
49949,105775,5
49941,105793,5
49948,105802,5
49942,105792,4
49946,105783,5
49948,105799,5
49952,105807,5
49952,105806,5
49947,105809,4
49953,105823,5
49957,105831,5
49959,105839,5
49966,105861,4
49972,105858,4
49967,105856,5
49976,105856,5
49967,105871,5
49975,105856,4
49966,105857,6
49971,105845,4
49968,105846,5
49965,105830,5
49962,105833,4
49961,105832,5
49957,105823,5
49950,105820,5
49958,105836,5
49967,105838,4
49972,105855,5
49969,105859,5
49978,105863,5
49984,105869,5
49977,105867,4
49976,105881,5
49981,105887,5
49981,105870,5
49983,105869,5
49982,105876,4
49979,105875,5
49982,105871,5
49987,105876,5
49984,105880,4
49981,105880,5
49985,105878,6
49982,105886,4
49987,105881,5
49983,105894,4
49982,105883,5
49989,105885,5
49992,105889,5
49991,105892,5
49991,105903,4
49994,105910,5
49997,105903,5
50001,105916,5
49992,105914,5
50002,105914,4
49997,105904,5
49999,105897,5
49996,105903,5
49995,105909,5
49991,105912,4
49997,105906,5
50002,105915,5
50002,105917,5
50003,105914,5
50006,105923,4
49998,105916,5
50011,105927,6
50015,105938,4
50018,105937,4
50015,105934,5
50020,105940,5
50028,105948,5
50020,105954,5
50023,105950,4
50022,105957,5
50024,105961,5
50020,105963,5
50021,105973,5
50032,105973,4
50036,105975,5
50031,105981,5
50031,105970,5
50026,105968,5
50030,105960,4
50024,105977,5
50027,105965,5
50035,105972,5
50031,105973,5
50028,105965,4
50030,105974,5
50024,105962,5
50019,105968,5
50030,105974,5
50026,105963,4
50034,105962,5
50021,105952,5
50019,105958,5
50026,105959,4
50014,105937,5
50027,105962,5
50027,105959,5
50026,105949,5
50024,105964,4
50007,105959,5
50027,105949,5
50022,105942,5
50019,105944,5
50009,105949,4
50021,105938,5
50021,105940,5
50021,105954,5
50020,105968,5
50032,105968,5
50031,105982,4
50042,105982,5
50047,105980,5
50032,105976,5
50031,105968,4
50021,105953,5
50033,105931,5
50010,105927,5
50012,105923,4
50012,105908,4
50013,105902,5
50001,105904,5
49989,105898,5
49999,105903,4
50004,105902,5
49999,105914,5
50002,105916,5
50004,105916,5
50003,105918,4
50010,105927,5
50013,105922,5
50009,105923,5
50006,105916,5
50010,105929,4
50009,105917,6
50000,105916,4
50005,105896,5
50000,105910,5
50003,105909,4
49990,105901,5
49994,105906,5
50001,105889,5
50001,105896,5
49996,105893,4
49990,105909,5
49992,105891,5
49989,105891,5
49990,105888,4
49994,105914,4
49997,105899,5
49987,105894,5
49990,105884,5
49993,105898,4
49999,105879,5
49990,105886,5
49980,105878,5
49988,105871,4
49985,105862,4
49976,105856,5
49974,105860,5
49970,105847,5
49975,105852,5
49977,105846,4
49973,105849,5
49962,105841,5
49970,105842,5
49977,105840,5
49967,105848,4
49967,105839,5
49969,105837,5
49961,105827,5
49960,105827,5
49958,105815,4
49960,105819,5
49946,105807,5
49955,105812,5
49950,105812,5
49957,105802,4
49953,105808,5
49953,105802,5
49949,105786,6
49951,105789,3
49949,105792,5
49941,105784,5
49937,105779,5
49945,105781,5
49937,105776,4
49931,105776,5
49941,105762,5
49943,105780,5
49938,105765,5
49934,105774,4
49932,105772,5
49929,105766,5
49936,105778,5
49943,105773,5
49944,105788,4
49940,105782,5
49938,105784,5
49941,105779,5
49938,105788,4
49935,105774,5
49946,105782,4
49937,105791,5
49946,105799,5
49943,105795,6
49946,105803,3
49939,105807,5
49945,105793,5
49939,105794,5
49939,105782,4
49934,105778,5
49931,105751,5
49927,105734,5
49923,105731,5
49915,105731,4
49913,105714,5
49899,105717,5
49904,105709,5
49909,105711,5
49901,105722,4
49906,105720,5
49917,105711,5
49904,105727,5
49907,105726,5
49907,105713,4
49904,105715,6
49905,105708,4
49902,105711,5
49907,105715,4
49913,105706,6
49900,105712,3
49910,105711,5
49897,105714,5
49899,105708,4
49905,105711,5
49910,105712,5
49889,105710,5
49898,105703,5
49908,105712,4
49903,105709,5
49886,105712,5
49904,105709,5
49902,105712,5
49900,105716,4
49900,105709,5
49909,105727,5
49918,105729,5
49910,105735,5
49921,105720,4
49912,105729,5
49919,105727,6
49914,105727,4
49926,105728,5
49912,105729,4
49931,105745,5
49924,105747,5
49936,105756,5
49931,105760,4
49923,105768,5
49920,105760,5
49938,105768,5
49934,105772,5
49938,105772,4
49938,105785,5
49938,105770,5
49936,105773,5
49937,105792,5
49932,105787,4
49941,105776,5
49945,105792,5
49944,105797,5
49943,105792,5
49946,105788,4
49937,105800,5
49947,105800,5
49947,105796,6
49945,105806,4
49945,105787,4
49942,105797,5
49941,105795,5
49949,105820,5
49949,105801,4
49951,105804,4
49943,105805,5
49949,105819,5
49945,105806,5
49948,105804,4
49956,105821,5
49947,105825,5
49945,105802,5
49947,105806,5
49952,105795,4
49953,105797,5
49948,105804,5
49952,105805,5
49951,105813,5
49954,105816,5
49956,105825,4
49967,105838,5
49963,105837,5
49957,105825,6
49952,105829,3
49959,105827,5
49953,105815,5
49949,105803,5
49930,105785,5
49934,105770,4
49935,105767,5
49920,105754,5
49919,105747,9
49929,105739,0
49920,105745,5
49914,105753,5
49929,105746,5
49923,105766,5
49934,105776,4
49935,105776,5
49941,105780,5
49937,105792,5
49936,105787,5
49941,105784,4
49941,105789,6
49929,105786,4
49931,105785,5
49941,105787,5
49943,105782,4
49946,105773,5
49937,105776,5
49939,105778,5
49939,105781,5
49935,105773,4
49936,105783,5
49928,105780,5
49932,105783,5
49938,105783,4
49933,105791,4
49943,105789,5
49942,105784,5
49943,105791,5
49940,105794,4
49952,105801,5
49947,105798,5
49941,105793,5
49942,105792,5
49941,105799,4
49949,105783,5
49938,105794,6
49949,105793,4
49946,105807,5
49945,105811,4
49941,105802,5
49949,105810,5
49952,105803,5
49954,105814,5
49945,105824,4
49955,105814,5
49963,105817,5
49948,105816,5
49948,105824,5
49948,105823,4
49950,105811,5
49960,105823,5
49952,105817,5
49959,105814,4
49957,105816,4
49953,105817,5
49948,105824,5
49960,105825,5
49958,105824,4
49957,105831,5
49966,105832,5
49966,105829,6
49966,105838,4
49950,105829,4
49961,105828,5
49956,105820,5
49961,105823,5
49947,105828,5
49969,105819,4
49964,105827,5
49953,105827,5
49963,105826,5
49959,105836,5
49956,105824,4
49961,105816,5
49980,105827,5
49956,105833,5
49952,105831,5
49955,105825,4
49979,105825,5
49958,105828,5
49962,105835,5
49968,105831,5
49977,105837,4
49962,105836,5
49971,105836,5
49968,105833,5
49959,105822,4
49968,105830,5
49963,105833,5
49964,105839,5
49964,105839,5
49974,105838,4
49964,105858,5
49975,105858,5
49978,105854,5
49985,105891,5
49985,105893,4
49996,105889,5
49992,105893,5
49993,105894,5
49989,105891,5
49991,105880,4
49978,105881,5
49971,105844,5
49957,105830,5
49961,105816,4
49950,105829,5
49955,105803,4
49944,105790,5
49949,105801,5
49946,105811,4
49953,105805,5
49955,105821,5
49948,105818,5
49951,105808,5
49942,105816,4
49948,105813,5
49950,105813,5
49952,105809,5
49948,105807,5
49949,105808,4
49945,105802,5
49943,105802,5
49938,105800,5
49932,105795,5
49934,105779,4
49931,105783,5
49937,105767,5
49935,105783,5
49932,105767,5
49929,105775,4
49928,105766,6
49924,105758,4
49929,105759,5
49923,105764,4
49929,105772,4
49934,105765,5
49929,105763,5
49928,105771,5
49927,105769,4
49931,105766,5
49928,105771,5
49922,105760,5
49919,105754,5
49921,105749,4
49921,105750,5
49917,105747,5
49920,105757,5
49929,105755,5
49926,105749,4
49922,105761,5
49922,105760,5
49929,105763,5
49927,105759,5
49932,105778,4
49932,105772,5
49937,105780,6
49935,105772,4
49936,105782,5
49941,105778,4
49943,105775,5
49939,105786,5
49936,105783,5
49942,105787,4
49938,105784,4
49943,105791,5
49945,105801,5
49935,105798,5
49944,105803,4
49950,105800,5
49950,105794,5
49946,105799,5
49949,105787,5
49938,105795,4
49941,105794,5
49939,105797,5
49942,105788,5
49941,105799,5
49944,105790,4
49945,105794,5
49947,105797,5
49939,105796,5
49945,105802,5
49940,105792,4
49944,105795,5
49938,105792,5
49939,105798,5
49941,105801,5
49945,105797,4
49952,105808,5
49949,105797,5
49937,105813,5
49956,105798,4
49951,105806,5
49953,105811,5
49932,105807,5
49955,105823,5
49955,105816,4
49955,105821,5
49946,105825,5
49957,105830,5
49965,105830,5
49960,105834,5
49963,105825,4
49963,105845,5
49963,105839,5
49978,105860,5
49984,105868,4
49976,105865,5
49974,105858,5
49968,105859,5
49981,105854,5
49971,105854,4
49966,105858,5
49962,105840,5
49970,105835,5
49959,105839,5
49968,105831,4
49952,105826,5
49953,105818,5
49958,105824,5
49957,105834,4
49967,105845,5
49963,105830,5
49969,105845,5
49960,105833,5
49966,105837,4
49965,105823,6
49967,105835,4
49959,105831,5
49963,105843,5
49962,105832,4
49970,105842,5
49964,105854,5
49965,105848,5
49968,105861,5
49974,105847,4
49973,105857,5
49973,105856,5
49969,105866,5
49967,105861,5
49975,105858,4
49981,105865,5
49974,105877,5
49981,105871,5
49975,105862,4
49981,105871,4
49990,105887,5
49986,105892,6
49976,105881,4
49985,105886,4
49988,105888,5
49986,105882,5
49981,105881,5
49980,105865,5
49976,105873,4
49985,105879,5
49981,105877,5
49982,105889,5
49988,105887,5
49993,105906,4
49993,105903,5
49996,105910,5
49990,105921,5
50000,105915,5
50006,105924,4
50007,105933,5
50007,105934,5
50014,105933,5
50015,105942,5
50018,105947,4
50013,105949,5
50019,105950,5
50019,105960,6
50010,105954,3
50024,105957,4
50024,105958,5
50029,105968,5
50028,105969,5
50029,105978,4
50032,105979,5
50034,105983,5
50032,105991,5
50027,105986,5
50040,105999,4
50036,105999,5
50036,105997,5
50042,105994,5
50042,105991,5
50034,105996,4
50035,105987,5
50039,106003,5
50043,105989,5
50053,106008,5
50047,106005,5
50047,106010,4
50045,106012,5
50051,106013,5
50052,106012,6
50051,106025,3
50057,106036,5
50061,106030,5
50061,106037,5
50058,106039,4
50068,106056,5
50067,106059,5
50075,106059,5
50076,106075,5
50078,106081,4
50082,106082,5
50076,106084,5
50086,106105,5
50096,106101,5
50102,106099,4
50099,106107,5
50096,106118,5
50111,106125,5
50104,106127,5
50106,106131,4
50103,106146,6
50114,106144,4
50120,106165,5
50122,106174,5
50122,106182,6
50131,106191,3
50133,106190,5
50135,106182,5
50131,106190,4
50115,106183,4
50127,106162,5
50113,106137,5
50119,106153,5
50092,106146,4
50103,106135,5
50104,106117,5
50111,106130,5
50101,106137,5
50118,106142,4
50121,106145,5
50120,106155,5
50125,106153,5
50118,106161,5
50120,106164,4
50127,106164,5
50130,106161,6
50115,106163,4
50126,106169,5
50124,106163,4
50131,106168,5
50123,106164,5
50131,106170,5
50123,106161,5
50125,106156,4
50115,106155,5
50118,106151,5
50116,106159,5
50115,106155,4
50131,106171,4
50127,106168,5
50120,106164,5
50131,106162,5
50135,106183,4
50137,106187,5
50135,106192,5
50137,106178,5
50135,106197,5
50143,106196,4
50143,106193,5
50141,106206,5
50131,106196,6
50140,106202,4
50137,106193,4
50152,106219,5
50150,106214,5
50155,106217,5
50154,106226,5
50156,106260,4
50150,106229,5
50162,106252,5
50163,106249,5
50162,106263,5
50171,106259,4
50167,106263,5
50178,106270,5
50180,106279,5
50177,106274,4
50181,106277,4
50183,106286,5
50180,106282,5
50186,106299,5
50188,106299,5
50195,106310,4
50203,106322,5
50198,106329,5
50201,106327,7
50208,106325,2
50207,106334,5
50209,106339,5
50215,106335,5
50215,106346,5
50212,106343,4
50203,106337,5
50209,106338,5
50205,106328,5
50211,106338,5
50207,106340,4
50198,106342,5
50209,106344,5
50210,106338,5
50209,106337,5
50213,106349,4
50213,106357,5
50221,106362,5
50229,106364,5
50224,106377,4
50229,106382,6
50223,106384,6
50238,106379,3
50227,106383,5
50232,106380,4
50231,106373,5
50232,106383,5
50225,106379,5
50230,106381,5
50224,106369,4
50229,106377,5
50224,106383,5
50233,106388,5
50234,106393,5
50227,106396,4
50238,106400,5
50245,106405,5
50244,106410,5
50248,106416,5
50251,106418,4
50255,106436,5
50266,106437,5
50261,106441,5
50257,106439,5
50266,106441,4
50270,106452,6
50267,106454,4
50270,106456,5
50272,106479,4
50284,106479,5
50280,106482,5
50275,106469,5
50269,106467,5
50281,106463,4
50271,106473,5
50273,106455,5
50267,106449,5
50263,106445,5
50253,106433,4
50251,106422,5
50247,106410,5
50247,106429,5
50249,106441,5
50267,106444,4
50263,106455,5
50270,106451,5
50271,106459,5
50256,106444,5
50259,106455,4
50267,106450,5
50253,106461,6
50269,106446,4
50263,106449,4
50266,106450,4
50258,106462,5
50265,106456,5
50270,106457,5
50261,106447,4
50261,106451,5
50256,106442,5
50261,106433,5
50265,106433,5
50265,106454,4
50251,106444,5
50264,106429,5
50260,106439,5
50270,106443,5
50261,106433,4
50260,106438,5
50254,106422,5
50261,106429,5
50254,106421,5
50253,106411,4
50248,106406,5
50241,106396,5
50234,106400,6
50232,106395,4
50243,106402,4
50238,106394,5
50240,106391,5
50242,106396,5
50241,106395,4
50228,106372,4
50228,106386,5
50234,106397,5
50238,106393,5
50234,106369,4
50227,106381,5
50228,106377,5
50233,106370,5
50227,106372,5
50224,106348,4
50215,106351,5
50222,106349,5
50212,106354,5
50212,106325,5
50206,106334,5
50197,106326,4
50201,106326,5
50196,106302,5
50187,106289,5
50187,106286,4
50184,106279,5
50171,106267,5
50165,106257,5
50172,106257,5
50164,106236,4
50159,106240,5
50158,106222,5
50145,106222,5
50154,106219,4
50143,106209,4
50145,106194,5
50143,106189,5
50136,106190,5
50130,106182,4
50132,106178,5
50130,106172,5
50124,106157,5
50124,106160,5
50128,106155,4
50123,106150,6
50123,106153,4
50120,106142,5
50115,106138,5
50107,106141,4
50103,106134,5
50112,106122,5
50097,106116,5
50101,106108,5
50104,106113,4
50104,106103,5
50099,106097,5
50085,106102,5
50085,106091,5
50088,106085,4
50094,106087,5
50076,106081,5
50084,106084,5
50079,106079,4
50092,106079,4
50080,106085,5
50079,106087,5
50083,106078,5
50080,106075,4
50082,106082,5
50080,106067,6
50079,106075,4
50075,106075,5
50076,106081,4
50086,106063,5
50084,106074,5
50087,106084,5
50082,106079,5
50079,106075,4
50080,106079,5
50083,106082,5
50081,106068,5
50077,106057,5
50062,106042,4
50060,106036,5
50051,105992,5
50036,105995,5
50038,105984,5
50027,105973,4
50022,105964,5
50025,105959,5
50027,105970,5
50029,105954,4
50021,105967,4
50027,105964,5
50027,105964,5
50022,105964,5
50020,105958,4
50018,105945,5
50016,105933,5
50019,105945,5
50008,105941,5
50010,105938,4
50010,105944,5
50008,105933,5
50017,105942,5
50013,105931,5
50004,105927,4
50009,105921,5
50008,105926,5
50010,105913,5
49994,105918,5
50005,105905,4
49991,105910,5
49992,105908,5
49985,105902,5
50005,105900,5
49999,105917,4
49985,105898,5
49982,105903,5
49995,105891,5
49990,105896,5
49988,105882,4
49991,105874,5
49981,105876,5
49977,105868,5
49975,105872,4
49998,105881,5
49992,105886,5
49984,105889,5
49994,105887,5
49998,105890,4
49995,105897,5
49985,105893,5
49995,105903,5
49996,105900,5
49995,105897,4
49997,105899,5
49995,105905,5
49986,105899,5
49994,105903,5
49990,105897,5
49989,105897,4
49989,105886,5
49988,105897,5
49996,105898,5
49991,105894,4
49997,105887,5
49982,105895,5
49989,105893,5
49994,105889,5
49990,105903,4
49991,105896,5
49984,105898,5
49991,105897,5
49989,105907,4
49998,105881,5
49994,105892,5
49985,105898,5
49986,105903,5
49985,105881,4
49989,105888,5
49987,105884,6
49980,105890,4
49987,105876,5
49985,105884,4
49973,105882,7
49983,105865,3
49984,105877,5
49980,105878,5
49990,105872,4
49977,105872,5
49981,105860,5
49974,105875,5
49980,105866,5
49983,105874,4
49983,105868,5
49981,105870,5
49983,105868,5
49975,105865,5
49978,105862,4
49970,105844,5
49981,105868,5
49970,105854,5
49977,105862,4
49970,105847,4
49979,105860,5
49985,105870,6
49969,105858,4
49972,105860,4
49979,105860,5
49983,105868,5
49978,105866,5
49975,105860,5
49983,105873,4
49969,105872,5
49980,105872,5
49981,105872,5
49976,105867,5
49977,105871,4
49975,105860,5
49977,105869,5
49976,105877,5
49985,105872,5
49979,105875,4
49976,105870,5
49985,105869,5
49981,105869,5
49972,105862,5
49984,105862,4
49983,105868,5
49976,105858,5
49971,105865,6
49979,105871,3
49975,105857,4
49977,105869,5
49976,105864,5
49981,105864,5
49977,105866,4
49981,105866,5
49972,105870,5
49969,105864,5
49986,105874,5
49974,105876,4
49979,105870,5
49979,105870,5
49984,105872,5
49988,105869,5
49989,105876,4
49985,105878,5
49986,105862,5
49974,105869,5
49974,105857,5
49983,105850,5
49966,105837,4
49964,105831,5
49951,105823,5
49945,105814,6
49942,105797,3
49941,105798,5
49933,105792,5
49945,105791,5
49951,105796,5
49944,105804,4
49953,105804,5
49955,105802,5
49954,105811,5
49949,105821,4
49935,105822,5
49953,105811,5
49956,105815,5
49952,105812,5
49938,105821,4
49958,105828,5
49954,105818,5
49954,105824,5
49937,105821,5
49956,105815,4
49952,105820,6
49953,105817,4
49955,105812,5
49956,105827,5
49948,105822,6
49955,105810,3
49970,105817,5
49954,105821,5
49956,105826,5
49957,105813,4
49970,105817,5
49954,105817,5
49947,105814,5
49955,105817,5
49948,105808,4
49944,105811,5
49949,105801,5
49943,105792,5
49943,105782,4
49937,105795,4
49942,105795,5
49945,105782,5
49934,105782,5
49944,105796,4
49944,105792,5
49941,105789,6
49937,105785,4
49949,105796,5
49943,105793,4
49946,105801,5
49941,105799,5
49943,105799,5
49940,105795,5
49941,105784,4
49928,105797,5
49927,105780,5
49933,105782,5
49934,105774,5
49927,105795,4
49937,105774,5
49925,105767,5
49927,105776,5
49932,105773,5
49931,105764,4
49927,105768,5
49930,105753,5
49918,105754,5
49921,105741,5
49926,105751,4
49911,105734,5
49902,105715,6
49901,105710,4
49900,105700,4
49890,105693,5
49884,105685,5
49879,105680,5
49887,105673,5
49883,105674,4
49877,105662,5
49876,105671,5
49886,105670,5
49870,105669,5
49887,105667,4
49883,105667,5
49883,105668,5
49871,105666,5
49885,105680,5
49884,105674,4
49886,105688,5
49884,105680,5
49890,105693,5
49887,105692,5
49888,105693,4
49880,105700,5
49889,105698,5
49888,105699,6
49895,105700,4
49897,105700,4
49895,105698,5
49903,105709,5
49900,105713,5
49900,105712,4
49900,105706,5
49893,105717,5
49897,105706,9
49898,105712,1
49902,105725,4
49920,105728,5
49912,105748,5
49918,105744,5
49923,105742,5
49918,105748,4
49915,105743,5
49913,105744,5
49917,105731,5
49912,105734,5
49903,105719,5
49903,105711,4
49903,105718,5
49898,105713,5
49891,105711,5
49889,105706,4
49898,105703,5
49901,105712,5
49902,105719,5
49906,105727,5
49905,105727,4
49911,105730,5
49906,105725,5
49912,105739,5
49909,105739,4
49913,105746,4
49920,105746,5
49922,105746,5
49923,105753,5
49921,105754,4
49923,105751,5
49926,105751,5
49921,105763,5
49923,105758,5
49929,105756,4
49924,105769,6
49924,105769,4
49925,105771,5
49934,105788,5
49938,105794,4
49935,105795,5
49939,105802,5
49945,105818,5
49948,105812,5
49959,105822,4
49942,105813,5
49951,105823,5
49960,105831,5
49952,105828,5
49940,105827,4
49961,105830,5
49944,105834,5
49961,105844,5
49967,105847,4
49973,105844,4
49971,105868,5
49969,105867,5
49986,105867,5
49977,105878,4
49980,105885,5
49991,105891,6
49999,105912,4
49999,105919,5
50000,105925,4
50003,105934,5
50018,105951,5
50012,105952,5
50015,105960,5
50024,105966,4
50024,105954,5
50030,105972,5
50021,105973,5
50033,105979,5
50036,105976,4
50034,105990,5
50033,105975,5
50035,105981,5
50039,105972,5
50038,105987,4
50041,105999,5
50047,106004,5
50052,106012,5
50049,106017,4
50042,106024,4
50052,106021,5
50049,106044,6
50044,106033,4
50049,106033,4
50057,106040,5
50059,106060,5
50059,106036,5
50063,106043,5
50063,106044,4
50065,106058,5
50071,106041,5
50066,106048,5
50063,106057,5
50065,106055,4
50068,106061,5
50073,106055,5
50060,106069,5
50075,106086,5
50081,106086,4
50080,106105,5
50091,106104,5
50085,106103,5
50087,106107,5
50094,106119,4
50100,106124,5
50104,106115,5
50098,106104,5
50095,106106,4
50089,106092,5
50085,106095,5
50096,106091,5
50083,106097,5
50085,106101,4
50090,106095,5
50089,106104,5
50097,106114,5
50105,106115,5
50108,106132,4
50115,106127,5
50113,106130,5
50097,106134,5
50104,106132,5
50114,106127,4
50099,106141,5
50107,106147,5
50105,106139,5
50112,106141,5
50112,106150,5
50114,106147,4
50118,106163,5
50116,106170,5
50123,106156,5
50120,106160,4
50122,106171,5
50132,106173,5
50125,106163,5
50127,106175,4
50130,106181,5
50132,106182,5
50135,106200,5
50136,106193,5
50149,106207,4
50146,106215,5
50152,106228,5
50155,106234,5
50153,106228,5
50162,106244,4
50158,106243,5
50162,106247,5
50163,106249,5
50164,106254,5
50171,106250,4
50171,106268,6
50164,106267,4
50170,106277,5
50174,106281,5
50176,106286,4
50183,106299,5
50185,106310,5
50194,106313,5
50200,106318,4
50202,106334,4
50192,106351,5
50213,106351,5
50217,106358,5
50222,106373,4
50225,106385,5
50229,106384,5
50228,106381,5
50232,106388,5
50227,106383,4
50234,106380,5
50235,106384,5
50228,106400,5
50220,106389,5
50235,106403,4
50241,106403,5
50238,106414,5
50233,106427,5
50247,106423,5
50257,106440,4
50254,106460,5
50267,106474,5
50271,106476,5
50272,106476,5
50281,106500,4
50292,106490,5
50282,106501,5
50287,106508,5
50293,106518,4
50314,106525,5
50292,106528,5
50305,106531,5
50306,106543,5
50324,106562,4
50313,106564,5
50322,106570,5
50320,106582,5
50312,106565,5
50319,106559,4
50309,106564,5
50313,106561,5
50312,106539,5
50303,106544,5
50307,106540,4
50313,106529,5
50295,106505,5
50289,106519,5
50300,106526,5
50306,106539,4
50311,106542,5
50315,106556,5
50308,106569,5
50323,106570,4
50320,106576,4
50319,106568,5
50319,106573,5
50323,106574,5
50322,106591,4
50325,106581,6
50328,106585,4
50331,106590,5
50331,106612,5
50334,106606,6
50342,106598,3
50328,106599,5
50345,106622,5
50347,106620,5
50347,106622,4
50338,106623,5
50350,106628,5
50347,106631,5
50355,106634,5
50349,106646,4
50361,106637,5
50353,106647,5
50356,106650,5
50363,106664,5
50367,106661,4
50371,106667,5
50363,106670,5
50371,106668,5
50364,106665,4
50371,106662,4
50369,106683,6
50374,106700,4
50382,106702,5
50383,106723,4
50393,106724,7
50402,106734,3
50399,106744,5
50406,106743,5
50410,106755,4
50411,106772,5
50412,106776,5
50421,106783,5
50430,106792,5
50426,106794,4
50432,106802,5
50433,106799,5
50435,106805,5
50441,106826,5
50449,106823,4
50446,106828,5
50437,106820,5
50444,106830,5
50451,106836,5
50454,106850,4
50453,106847,5
50452,106850,6
50460,106844,4
50466,106858,4
50461,106886,5
50464,106870,5
50472,106888,5
50474,106887,5
50482,106903,4
50484,106897,5
50477,106895,5
50481,106901,5
50486,106915,5
50486,106915,4
50496,106926,5
50500,106941,5
50502,106943,5
50505,106940,5
50501,106948,4
50501,106944,5
50501,106933,5
50504,106941,5
50502,106940,5
50496,106929,4
50494,106924,5
50488,106909,5
50478,106903,6
50484,106895,3
50472,106895,4
50472,106898,5
50492,106913,5
50484,106915,5
50489,106923,4
50488,106922,5
50494,106914,5
50486,106918,5
50480,106920,5
50489,106916,4
50479,106908,5
50477,106901,5
50488,106906,5
50473,106905,5
50481,106892,4
50460,106891,5
50472,106885,5
50482,106871,5
50463,106865,5
50448,106854,5
50451,106844,4
50452,106833,5
50444,106823,5
50446,106814,6
50430,106802,3
50437,106784,5
50413,106770,5
50424,106763,5
50419,106755,4
50396,106738,5
50387,106717,5
50399,106690,5
50367,106677,5
50357,106640,4
50345,106626,5
50337,106583,5
50325,106566,5
50319,106557,5
50299,106526,4
50293,106499,5
50283,106497,5
50275,106480,5
50263,106454,5
50260,106417,4
50246,106422,6
50242,106403,4
50237,106384,5
50229,106356,5
50227,106363,4
50209,106350,5
50208,106349,5
50210,106329,5
50203,106314,5
50191,106298,4
50185,106278,5
50169,106280,5
50171,106254,5
50163,106243,4
50154,106229,5
50145,106238,5
50146,106208,5
50136,106195,5
50137,106195,4
50143,106201,5
50140,106187,5
50133,106185,5
50134,106181,5
50129,106182,4
50134,106173,5
50124,106170,6
50127,106165,4
50114,106160,5
50115,106149,4
50112,106149,5
50118,106148,5
50112,106139,5
50108,106134,5
50116,106134,4
50105,106128,5
50096,106126,5
50098,106121,5
50092,106098,4
50087,106083,4
50074,106065,5
50069,106047,5
50068,106041,5
50056,106030,4
50051,106029,5
50050,106021,5
50052,106012,5
50065,106026,5
50060,106022,4
50057,106027,5
50057,106031,5
50062,106039,6
50059,106033,4
50057,106025,4
50061,106026,5
50061,106021,5
50054,106028,5
50053,106026,5
50060,106026,4
50056,106021,5
50045,106015,5
50053,106020,5
50053,106011,5
50044,106000,4
50043,105984,5
50044,105990,5
50038,105980,5
50031,105976,4
50030,105973,4
50025,105978,5
50031,105966,5
50022,105973,5
50032,105974,5
50022,105964,6
50019,105965,3
50024,105961,5
50017,105946,6
50015,105947,3
50008,105936,5
50010,105930,5
50020,105948,5
50011,105932,5
50003,105927,4
50005,105923,5
50014,105932,5
50008,105930,5
49999,105934,5
50015,105922,4
50016,105923,5
50000,105927,5
50007,105924,5
50000,105930,5
50003,105926,4
50003,105919,5
50008,105920,5
49994,105914,5
49994,105914,4
49993,105912,6
49994,105909,4
49994,105909,5
49994,105907,5
49996,105901,4
49993,105906,5
49994,105908,5
49995,105917,5
49988,105909,5
49993,105910,4
50007,105915,5
49992,105912,5
49983,105909,5
49999,105921,5
49995,105916,4
50004,105914,5
49984,105914,5
50002,105913,5
49995,105909,5
49989,105915,4
50003,105891,5
49996,105902,5
49994,105890,5
49991,105895,4
50008,105900,4
49991,105882,6
49990,105891,4
49985,105886,5
49994,105879,4
49985,105873,5
49989,105883,5
49989,105884,5
49995,105878,5
49992,105883,4
49977,105874,5
49979,105874,5
49969,105860,5
49979,105860,5
49970,105853,4
49975,105866,5
49973,105840,5
49967,105864,5
49971,105862,5
49977,105866,4
49964,105836,5
49974,105852,5
49963,105852,5
49967,105850,5
49974,105854,4
49974,105864,5
49975,105856,6
49974,105862,4
49977,105880,4
49963,105852,4
49968,105841,5
49955,105832,5
49947,105812,5
49934,105758,4
49919,105760,5
49918,105741,5
49918,105739,5
49911,105719,5
49908,105717,4
49910,105733,5
49903,105738,5
49912,105727,5
49918,105740,5
49915,105741,4
49919,105741,5
49917,105724,5
49909,105723,5
49909,105728,5
49908,105731,4
49908,105733,5
49910,105734,5
49920,105725,5
49916,105723,5
49908,105728,4
49916,105722,5
49907,105716,5
49907,105733,5
49902,105717,4
49904,105719,4
49898,105713,5
49904,105717,5
49900,105725,5
49895,105702,4
49903,105709,5
49898,105709,5
49901,105707,5
49902,105722,5
49890,105716,4
49892,105707,5
49902,105707,5
49898,105702,5
49900,105696,5
49888,105696,5
49887,105705,4
49895,105694,5
49904,105701,5
49893,105705,5
49893,105706,4
49897,105703,5
49903,105715,5
49901,105713,5
49893,105712,5
49901,105715,4
49897,105714,5
49893,105719,5
49900,105718,5
49902,105716,4
49898,105719,4
49908,105718,5
49903,105711,5
49899,105717,5
49908,105702,4
49894,105701,5
49892,105696,5
49903,105703,5
49896,105711,5
49896,105712,4
49898,105721,6
49894,105710,4
49902,105720,5
49905,105721,5
49910,105727,4
49893,105721,5
49907,105718,5
49905,105715,5
49896,105708,5
49902,105712,4
49896,105713,5
49906,105712,5
49905,105704,5
49894,105710,5
49897,105709,4
49889,105705,5
49894,105704,5
49898,105713,5
49903,105707,4
49898,105709,5
49889,105714,5
49894,105709,5
49902,105709,5
49893,105713,4
49880,105713,5
49901,105716,6
49902,105712,4
49904,105709,5
49886,105710,4
49895,105722,5
49905,105715,5
49909,105729,5
49898,105720,5
49902,105730,4
49904,105726,5
49901,105727,5
49918,105724,5
49911,105731,5
49899,105725,4
49916,105728,5
49920,105725,5
49910,105718,5
49903,105721,4
49900,105718,4
49913,105714,5
49905,105730,5
49912,105726,5
49905,105736,4
49918,105732,5
49924,105740,5
49918,105743,5
49901,105726,5
49908,105718,4
49895,105706,5
49902,105697,5
49885,105669,5
49879,105656,5
49882,105659,4
49875,105654,5
49869,105652,5
49863,105623,5
49870,105656,5
49870,105652,4
49873,105653,5
49878,105668,5
49870,105663,5
49870,105650,5
49866,105651,5
49877,105673,4
49865,105651,5
49876,105661,5
49872,105657,6
49872,105664,3
49868,105654,5
49858,105636,5
49866,105638,5
49860,105636,4
49850,105622,5
49859,105617,5
49854,105616,5
49848,105609,5
49849,105607,4
49843,105617,5
49843,105599,5
49844,105604,5
49850,105610,5
49842,105629,4
49856,105621,5
49866,105631,5
49857,105621,5
49859,105630,5
49849,105630,4
49855,105627,6
49855,105621,4
49846,105610,5
49854,105622,5
49853,105623,6
49865,105639,3
49863,105639,5
49868,105641,5
49873,105658,4
49869,105654,5
49872,105655,5
49876,105652,5
49869,105668,5
49876,105671,4
49882,105682,5
49887,105687,5
49893,105689,5
49896,105692,5
49892,105707,4
49895,105707,5
49891,105713,5
49891,105716,5
49900,105714,5
49896,105721,4
49897,105716,5
49905,105725,6
49901,105720,4
49909,105727,5
49909,105719,4
49902,105722,5
49906,105733,5
49908,105738,5
49910,105734,5
49917,105742,4
49904,105745,5
49919,105746,5
49925,105759,5
49909,105744,4
49914,105753,5
49915,105755,5
49922,105761,5
49921,105765,5
49923,105763,4
49923,105762,5
49926,105769,5
49926,105761,5
49933,105772,5
49922,105787,4
49926,105782,5
49929,105776,5
49926,105780,6
49929,105782,4
49935,105780,4
49932,105782,5
49932,105776,5
49931,105778,5
49939,105790,5
49936,105789,4
49939,105795,5
49926,105782,5
49937,105786,5
49942,105796,4
49944,105808,4
49949,105812,5
49943,105814,5
49940,105826,5
49944,105823,4
49953,105823,5
49951,105824,5
49940,105828,5
49962,105833,5
49962,105847,5
49971,105855,4
49964,105877,5
49989,105886,5
49984,105889,6
49989,105889,3
49991,105894,5
49990,105890,5
49987,105897,5
49991,105904,5
50005,105893,4
49990,105891,5
49991,105892,5
49987,105885,5
50000,105895,5
49984,105893,4
49988,105904,5
49993,105907,5
49996,105924,5
50012,105935,4
50013,105951,4
50017,105962,5
50022,105965,5
50023,105970,5
50026,105981,4
50030,105980,6
50032,105993,4
50034,106005,5
50044,106026,5
50048,106023,4
50051,106020,5
50059,106039,5
50063,106047,5
50059,106043,5
50059,106048,4
50063,106056,5
50072,106055,5
50066,106056,5
50068,106071,5
50075,106064,4
50073,106090,5
50089,106099,5
50089,106129,5
50093,106115,5
50101,106129,4
50105,106133,5
50103,106154,5
50108,106148,5
50118,106151,4
50109,106157,5
50122,106174,6
50123,106182,4
50130,106182,5
50128,106190,4
50138,106206,5
50144,106210,5
50147,106220,5
50150,106228,5
50153,106235,4
50149,106238,5
50159,106254,5
50153,106257,5
50164,106273,5
50170,106272,4
50173,106286,5
50187,106294,5
50176,106310,5
50194,106323,5
50197,106329,4
50199,106335,5
50196,106342,5
50214,106347,5
50206,106359,5
50210,106360,4
50221,106356,5
50214,106362,6
50212,106376,4
50226,106381,4
50221,106377,5
50232,106393,5
50226,106397,5
50228,106400,5
50242,106401,4
50246,106416,5
50252,106421,5
50241,106431,5
50258,106436,5
50256,106446,4
50252,106461,5
50264,106467,5
50271,106477,5
50272,106477,5
50273,106489,4
50282,106502,5
50286,106504,5
50287,106504,5
50290,106509,5
50293,106511,4
50289,106521,5
50293,106530,5
50304,106550,6
50309,106557,3
50312,106569,4
50310,106575,5
50322,106582,5
50325,106595,5
50334,106596,4
50337,106613,5
50348,106612,5
50333,106606,9
50341,106602,1
50334,106596,4
50339,106607,5
50335,106625,5
50332,106600,5
50332,106594,5
50338,106611,4
50343,106615,5
50346,106626,5
50346,106625,5
50340,106627,5
50346,106639,5
50352,106638,4
50345,106636,5
50351,106627,5
50350,106628,5
50346,106644,4
50351,106640,5
50351,106640,5
50355,106647,5
50358,106648,4
50353,106647,4
50362,106640,5
50351,106640,5
50354,106644,5
50337,106642,4
50358,106638,5
50356,106642,5
50351,106638,5
50337,106644,5
50345,106634,4
50351,106636,5
50350,106632,5
50357,106622,5
50340,106617,5
50345,106613,4
50334,106600,6
50353,106599,4
50333,106597,5
50330,106584,5
50325,106592,4
50337,106589,5
50322,106584,5
50320,106573,5
50326,106568,5
50317,106549,4
50300,106546,5
50304,106531,5
50303,106528,5
50284,106511,4
50290,106507,4
50294,106497,5
50278,106490,5
50278,106474,5
50275,106476,4
50261,106465,5
50264,106448,5
50253,106428,5
50257,106431,5
50252,106423,4
50232,106410,5
50239,106394,6
50230,106372,4
50224,106361,5
50212,106350,4
50209,106343,5
50211,106331,5
50202,106324,5
50197,106313,5
50185,106318,4
50176,106277,5
50176,106271,5
50168,106267,5
50163,106257,5
50152,106241,4
50153,106230,5
50144,106223,5
50141,106218,5
50138,106202,4
50144,106195,5
50134,106172,5
50128,106176,5
50116,106162,5
50115,106147,4
50111,106143,5
50114,106136,5
50108,106119,5
50105,106120,5
50104,106123,4
50099,106122,5
50090,106097,5
50082,106098,5
50089,106104,5
50088,106091,4
50087,106093,5
50081,106082,5
50079,106080,5
50082,106072,5
50075,106079,4
50069,106079,5
50076,106080,5
50073,106080,5
50073,106058,5
50074,106065,4
50061,106065,5
50069,106064,5
50071,106061,5
50075,106053,5
50067,106057,4
50064,106058,5
50063,106047,5
50057,106051,5
50061,106055,4
50059,106051,5
50059,106053,5
50062,106059,5
50070,106050,5
50060,106049,4
50055,106039,5
50052,106030,5
50044,106017,5
50038,105991,5
50030,105974,4
50003,105929,5
49990,105899,5
49983,105881,5
49973,105872,5
49971,105855,4
49966,105841,5
49964,105850,5
49966,105856,5
49967,105848,4
49965,105849,5
49978,105858,4
49969,105857,5
49967,105861,5
49973,105855,4
49962,105853,5
49973,105847,5
49961,105839,5
49956,105831,5
49955,105831,4
49955,105818,5
49949,105810,5
49941,105799,5
49942,105798,5
49938,105792,4
49943,105772,5
49922,105774,5
49927,105770,5
49933,105770,5
49921,105775,4
49921,105776,5
49918,105773,5
49932,105770,5
49928,105765,5
49920,105766,4
49932,105764,6
49914,105768,4
49931,105770,5
49923,105776,5
49919,105766,4
49903,105763,5
49918,105766,5
49915,105750,5
49922,105749,4
49910,105757,5
49920,105766,5
49928,105755,5
49916,105751,5
49930,105754,4
49920,105765,5
49914,105754,5
49915,105753,5
49934,105747,5
49915,105768,4
49920,105769,5
49907,105758,5
49933,105763,5
49923,105763,4
49924,105762,4
49923,105759,5
49932,105757,5
49913,105757,5
49923,105754,5
49917,105761,4
49917,105753,5
49915,105751,5
49908,105750,5
49910,105747,5
49910,105736,4
49911,105750,5
49909,105749,5
49910,105736,5
49914,105719,4
49908,105738,4
49904,105736,5
49903,105737,5
49913,105735,5
49906,105747,5
49910,105740,4
49915,105735,5
49913,105764,5
49911,105745,6
49909,105741,3
49900,105737,5
49912,105761,5
49912,105732,5
49907,105728,5
49907,105734,4
49916,105752,5
49911,105740,5
49904,105734,5
49915,105731,5
49907,105742,4
49911,105736,5
49915,105747,5
49911,105745,5
49911,105748,5
49916,105746,4
49911,105758,5
49918,105757,5
49928,105768,5
49919,105767,4
49920,105761,5
49922,105766,4
49924,105775,5
49924,105772,5
49932,105773,6
49931,105778,3
49925,105766,5
49934,105763,5
49931,105776,5
49927,105776,4
49930,105778,5
49928,105780,5
49924,105792,5
49933,105787,5
49940,105787,4
49935,105785,5
49926,105784,5
49929,105762,5
49919,105753,5
49911,105740,4
49908,105729,5
49894,105727,5
49894,105728,5
49895,105702,5
49891,105708,4
49889,105690,6
49886,105700,4
49891,105711,5
49894,105721,4
49898,105712,6
49901,105732,3
49890,105717,5
49898,105720,5
49899,105721,4
49906,105716,5
49899,105725,5
49899,105718,5
49902,105713,5
49900,105721,4
49901,105713,5
49901,105713,5
49902,105719,5
49900,105710,5
49896,105705,4
49887,105704,5
49899,105711,5
49896,105705,5
49891,105703,5
49898,105703,4
49886,105700,5
49901,105709,6
49905,105718,4
49898,105719,5
49894,105714,4
49894,105715,5
49904,105724,5
49900,105713,5
49890,105719,5
49897,105717,4
49891,105716,5
49893,105708,5
49897,105720,5
49898,105721,4
49903,105717,4
49899,105727,5
49901,105729,5
49906,105723,5
49903,105720,4
49900,105716,5
49902,105729,5
49903,105730,5
49903,105734,5
49911,105733,4
49909,105731,5
49908,105740,5
49899,105731,6
49913,105743,4
49910,105742,4
49909,105736,5
49890,105734,5
49914,105733,5
49907,105743,5
49911,105741,4
49924,105742,5
49913,105739,5
49901,105737,5
49907,105733,5
49926,105737,4
49909,105731,5
49900,105733,5
49905,105726,5
49922,105708,4
49902,105713,4
49901,105704,5
49891,105721,5
49899,105713,5
49902,105714,5
49894,105713,4
49901,105717,5
49900,105717,5
49899,105723,6
49906,105728,3
49900,105722,5
49894,105710,5
49896,105724,5
49904,105719,5
49901,105715,4
49899,105702,5
49903,105714,5
49890,105720,5
49901,105708,5
49898,105713,4
49899,105716,5
49898,105715,5
49900,105710,5
49905,105737,5
49897,105724,4
49904,105731,5
49907,105732,5
49910,105747,5
49903,105738,4
49902,105746,5
49909,105753,4
49912,105753,5
49905,105751,5
49917,105747,4
49919,105750,5
49912,105758,5
49915,105766,5
49930,105774,5
49924,105770,4
49917,105771,5
49921,105770,5
49919,105767,5
49917,105760,5
49915,105762,4
49910,105752,5
49904,105728,5
49897,105718,5
49899,105711,5
49898,105705,4
49893,105703,5
49882,105692,5
49887,105700,5
49893,105704,5
49887,105714,4
49886,105697,6
49890,105718,4
49901,105721,5
49897,105718,5
49895,105719,4
49893,105717,5
49896,105719,5
49898,105725,5
49895,105712,4
49902,105725,5
49897,105723,5
49894,105719,5
49906,105721,5
49894,105719,4
49903,105719,5
49902,105717,5
49901,105720,5
49891,105722,5
49897,105715,4
49893,105718,5
49901,105722,5
49901,105718,5
49909,105738,5
49906,105733,4
49906,105752,5
49907,105741,6
49911,105738,4
49911,105740,5
49907,105748,4
49915,105758,5
49919,105765,5
49916,105757,5
49916,105756,5
49923,105756,4
49922,105781,5
49933,105789,5
49936,105799,5
49931,105794,4
49941,105811,4
49948,105832,5
49959,105823,5
49958,105842,5
49964,105852,4
49972,105857,5
49969,105859,5
49971,105871,5
49976,105872,5
49976,105881,6
49978,105882,3
49976,105891,5
49984,105895,6
49993,105905,4
49990,105920,4
49992,105930,5
50004,105936,5
50005,105948,5
50005,105949,5
50023,105953,4
50016,105959,5
50012,105977,5
50028,105976,5
50028,105980,5
50020,105989,4
50023,105996,5
50042,106007,5
50041,106003,5
50035,106013,4
50046,106029,4
50055,106034,5
50051,106039,5
50041,106032,5
50054,106052,5
50058,106050,4
50061,106057,5
50066,106066,5
50070,106063,5
50069,106075,4
50073,106089,5
50093,106098,5
50084,106096,5
50082,106099,5
50090,106110,4
50113,106125,5
50102,106132,5
50120,106144,5
50111,106149,5
50115,106161,4
50112,106170,5
50123,106171,5
50120,106172,5
50123,106182,5
50127,106170,4
50124,106175,5
50118,106169,5
50118,106143,5
50107,106157,5
50114,106151,5
50112,106147,4
50102,106130,5
50113,106153,5
50116,106164,4
50119,106174,4
50125,106158,5
50128,106188,5
50125,106196,5
50135,106216,4
50134,106219,5
50143,106221,5
50143,106227,5
50150,106233,5
50151,106263,4
50162,106257,5
50156,106265,5
50168,106269,5
50169,106287,5
50159,106266,4
50170,106277,5
50173,106276,5
50172,106288,5
50174,106280,5
50176,106284,4
50179,106291,6
50186,106293,4
50185,106300,5
50184,106312,5
50187,106312,4
50196,106323,5
50193,106327,5
50197,106331,5
50199,106328,4
50195,106329,4
50202,106341,5
50196,106334,5
50203,106342,5
50204,106344,4
50211,106353,5
50206,106353,5
50218,106367,5
50224,106374,5
50220,106383,4
50216,106383,5
50229,106399,5
50229,106405,5
50238,106406,5
50230,106415,4
50235,106421,5
50245,106422,6
50253,106436,4
50251,106439,5
50262,106441,4
50267,106462,5
50270,106465,5
50260,106463,5
50266,106465,5
50271,106467,4
50271,106471,5
50269,106482,5
50274,106485,5
50278,106499,4
50279,106509,4
50286,106516,5
50298,106519,5
50299,106531,5
50298,106534,4
50302,106538,5
50304,106544,5
50306,106550,5
50309,106548,5
50304,106557,4
50305,106555,5
50302,106545,5
50304,106542,5
50301,106541,5
50307,106543,4
50299,106548,5
50306,106554,5
50302,106556,5
50309,106553,5
50312,106553,4
50318,106564,5
50312,106563,5
50321,106568,5
50318,106572,5
50318,106580,4
50310,106583,5
50321,106589,5
50322,106591,5
50328,106582,5
50323,106582,4
50317,106577,5
50324,106579,5
50313,106576,5
50307,106558,5
50303,106529,4
50292,106516,5
50282,106500,5
50267,106482,5
50270,106468,4
50259,106458,5
50254,106471,5
50260,106447,5
50257,106451,5
50252,106448,4
50245,106435,5
50256,106426,5
50248,106421,5
50240,106421,5
50224,106407,4
50230,106407,5
50225,106387,5
50226,106378,5
50211,106366,5
50214,106357,4
50210,106347,5
50198,106331,5
50199,106313,5
50185,106300,5
50181,106283,5
50175,106268,3
50178,106259,5
50150,106233,5
50145,106229,4
50144,106196,4
50149,106199,5
50134,106196,5
50130,106179,5
50124,106175,4
50119,106160,5
50106,106140,5
50104,106137,5
50111,106128,5
50094,106111,4
50086,106099,5
50082,106084,5
50075,106070,5
50070,106040,5
50059,106052,4
50058,106044,5
50060,106032,6
50057,106013,4
50050,106021,5
50045,106026,4
50049,106003,7
50050,106007,3
50040,105996,5
50042,105989,5
50029,105993,4
50033,106000,5
50032,105994,5
50030,105989,5
50033,105972,4
50026,106003,4
50023,105978,5
50020,105973,5
50019,105962,5
50020,105959,4
50012,105950,5
50015,105942,5
50006,105936,5
50005,105939,5
50012,105922,4
49992,105928,5
50002,105916,5
49993,105910,6
49993,105905,4
49992,105901,4
49990,105891,5
49991,105887,5
49985,105871,5
49979,105872,5
49973,105861,4
49979,105874,5
49969,105858,9
49972,105859,5
49970,105854,5
49966,105846,5
49957,105798,8
49957,105798,5
49946,105820,5
49947,105804,8
49956,105806,5
49940,105789,5
49934,105785,5
49935,105796,8
49945,105797,5
49943,105792,5
49935,105783,8
49936,105789,5
49936,105788,5
49930,105791,8
49930,105791,5
49981,105791,5
49954,105796,5
49910,105803,8
49928,105799,5
49943,105799,5
49936,105806,8
49937,105810,5
49940,105801,5
49944,105798,5
49938,105800,8
49941,105795,5
49931,105783,5
49903,105707,8
49903,105707,5
49859,105700,5
49886,105702,8
49899,105704,5
49898,105723,5
49897,105713,5
49903,105712,8
49895,105721,5
49907,105719,5
49902,105722,8
49892,105726,5
49893,105709,5
49902,105713,5
49900,105707,8
49900,105707,5
49904,105736,5
49891,105730,8
49887,105655,5
49893,105696,5
49906,105693,8
49914,105697,5
49890,105685,5
49874,105670,5
49882,105682,8
49869,105687,5
49882,105692,5
49883,105673,12
49864,105666,5
49836,105667,5
49869,105659,8
49873,105647,5
49859,105652,5
49873,105652,8
49869,105646,5
49870,105647,5
49876,105657,5
49891,105659,8
49857,105653,5
49869,105659,5
49872,105657,8
49872,105657,5
49884,105677,5
49873,105690,8
49878,105685,5
49879,105648,5
49889,105664,5
49878,105673,8
49891,105676,5
49881,105666,5
49865,105646,8
49876,105670,5
49874,105673,5
49881,105687,5
49879,105668,8
49879,105668,5
49865,105627,5
49875,105629,8
49871,105666,5
49881,105672,5
49875,105647,8
49848,105663,5
49852,105661,5
49868,105673,5
49867,105658,8
49868,105662,5
49874,105649,5
49869,105652,8
49869,105652,5
49864,105638,5
49864,105642,5
49874,105647,8
49864,105640,5
49866,105635,5
49849,105630,8
49857,105628,5
49860,105654,5
49854,105630,8
49849,105617,5
49850,105623,5
49855,105621,5
49858,105626,8
49858,105626,5
49861,105622,5
49850,105629,8
49861,105628,5
49860,105631,5
49862,105662,5
49865,105648,8
49859,105628,5
49863,105625,5
49863,105649,8
49853,105623,3
49853,105623,1
49853,105623,3
49857,105615,5
49846,105598,5
49832,105585,5
49839,105581,5
49832,105572,5
49823,105562,4
49825,105558,5
49820,105562,5
49833,105564,5
49830,105570,4
49828,105575,5
49839,105586,5
49839,105580,5
49836,105583,4
49840,105580,5
49829,105586,5
49836,105585,5
49831,105584,5
49836,105577,4
49837,105575,5
49830,105581,5
49832,105575,5
49825,105571,5
49827,105572,4
49837,105575,5
49822,105573,5
49832,105566,5
49821,105564,5
49822,105566,4
49826,105578,6
49830,105561,4
49830,105563,5
49828,105575,5
49830,105574,4
49825,105572,5
49827,105573,5
49833,105588,5
49834,105582,5
49832,105568,8
49830,105583,1
49806,105579,5
49830,105564,5
49827,105560,4
49817,105560,4
49822,105563,5
49825,105562,5
49833,105571,5
49830,105569,4
49827,105576,5
49817,105567,5
49827,105570,5
49832,105574,5
49833,105571,4
49817,105572,5
49832,105571,6
49836,105584,4
49839,105589,5
49822,105589,4
49840,105583,5
49833,105583,5
49831,105591,5
49833,105585,5
49827,105584,4
49826,105582,5
49830,105584,5
49847,105579,5
49832,105566,5
49829,105570,4
49819,105558,5
49840,105546,5
49811,105540,5
49811,105530,4
49798,105532,4
49810,105515,5
49793,105510,5
49806,105517,5
49795,105508,4
49802,105498,5
49793,105487,5
49789,105494,6
49791,105491,4
49779,105478,4
49789,105481,5
49778,105483,5
49778,105481,5
49783,105464,5
49779,105471,4
49781,105468,5
49780,105478,5
49786,105463,5
49770,105471,5
49782,105474,4
49791,105485,5
49790,105493,5
49789,105490,5
49794,105489,5
49792,105495,4
49786,105518,5
49797,105501,5
49797,105486,5
49793,105508,5
49794,105511,4
49792,105499,5
49800,105504,5
49794,105508,5
49803,105521,4
49798,105508,4
49799,105523,5
49797,105522,5
49804,105518,5
49800,105512,4
49796,105514,5
49793,105502,5
49789,105496,5
49775,105482,5
49771,105468,4
49769,105460,5
49771,105449,5
49759,105444,5
49765,105436,5
49766,105446,4
49762,105439,5
49758,105445,5
49758,105448,5
49760,105456,5
49769,105452,5
49770,105449,4
49766,105448,5
49766,105455,5
49772,105458,5
49770,105446,4
49765,105444,5
49769,105447,5
49758,105436,5
49764,105431,4
49754,105425,4
49762,105430,5
49753,105427,5
49749,105404,5
49747,105415,4
49750,105409,5
49750,105403,5
49749,105410,5
49756,105409,5
49752,105409,4
49756,105411,5
49757,105429,5
49755,105429,5
49756,105434,5
49757,105432,4
49761,105431,6
49762,105427,4
49754,105424,5
49766,105422,5
49746,105414,4
49751,105416,5
49744,105423,5
49746,105423,5
49755,105421,5
49757,105426,4
49748,105440,5
49757,105425,5
49758,105440,5
49761,105447,4
49761,105444,4
49773,105453,5
49771,105464,5
49774,105460,5
49772,105470,4
49787,105481,5
49789,105496,5
49785,105498,5
49799,105500,5
49795,105511,4
49794,105516,5
49793,105517,5
49802,105514,5
49794,105508,5
49801,105516,4
49796,105515,5
49810,105523,5
49798,105512,5
49806,105530,5
49797,105517,4
49794,105518,5
49794,105512,5
49798,105520,5
49797,105501,5
49799,105506,4
49790,105506,5
49783,105515,5
49792,105514,5
49799,105505,5
49796,105515,4
49787,105504,5
49799,105510,5
49797,105508,5
49796,105512,3
49788,105502,5
49796,105505,5
49791,105504,5
49788,105508,5
49796,105516,4
49797,105508,5
49794,105514,5
49801,105517,5
49824,105526,5
49798,105538,4
49810,105538,5
49808,105546,5
49824,105548,5
49819,105547,5
49807,105560,4
49819,105566,5
49821,105562,5
49828,105563,5
49828,105567,5
49829,105577,5
49828,105569,4
49829,105589,5
49839,105605,5
49843,105597,6
49836,105594,3
49843,105599,5
49842,105607,5
49839,105591,5
49834,105573,4
49837,105590,4
49832,105588,5
49828,105592,5
49825,105585,5
49827,105589,4
49835,105587,5
49840,105601,5
49848,105614,5
49843,105617,5
49860,105631,4
49864,105643,5
49853,105662,5
49863,105653,5
49870,105653,5
49868,105661,4
49857,105660,6
49872,105660,4
49874,105662,5
49880,105673,5
49879,105692,6
49873,105679,3
49886,105693,5
49888,105694,5
49888,105694,5
49884,105695,4
49890,105695,5
49887,105704,5
49895,105702,5
49893,105721,4
49897,105730,4
49911,105725,5
49902,105734,5
49912,105737,5
49914,105750,4
49913,105754,5
49917,105763,5
49918,105763,5
49921,105761,5
49913,105750,4
49908,105755,5
49915,105756,6
49911,105764,4
49923,105772,5
49928,105772,4
49932,105779,5
49927,105789,5
49933,105796,5
49939,105802,5
49943,105813,4
49942,105818,5
49943,105819,5
49949,105827,5
49954,105838,5
49961,105841,4
49962,105859,5
49962,105864,5
49971,105876,5
49969,105874,5
49973,105882,4
49983,105899,5
49984,105891,5
49988,105907,5
49992,105908,4
49997,105912,5
49998,105919,5
50006,105920,6
50003,105923,4
49997,105934,4
50008,105929,5
50002,105935,5
50010,105947,5
50011,105957,5
50017,105950,4
50010,105963,5
50012,105964,5
50023,105970,5
50026,105975,5
50028,105982,4
50028,105991,5
50027,105992,5
50037,106004,5
50039,106011,5
50045,106010,4
50045,106033,5
50045,106032,5
50050,106046,5
50064,106053,5
50060,106067,4
50076,106084,5
50082,106095,5
50077,106094,6
50088,106116,3
50093,106128,5
50107,106138,5
50102,106155,5
50115,106170,5
50123,106183,4
50119,106173,5
50121,106187,5
50118,106177,5
50114,106174,5
50133,106178,4
50124,106176,5
50119,106158,5
50100,106154,5
50118,106164,5
50109,106149,4
50113,106153,5
50101,106150,5
50115,106165,5
50121,106166,5
50115,106177,5
50133,106180,4
50124,106188,5
50131,106174,5
50125,106185,6
50142,106175,3
50122,106186,5
50124,106189,5
50133,106192,5
50146,106201,4
50134,106198,4
50136,106205,5
50139,106222,5
50144,106212,5
50136,106216,4
50148,106217,5
50143,106231,5
50146,106224,5
50155,106241,5
50147,106243,4
50151,106240,5
50145,106232,5
50159,106252,5
50151,106248,5
50155,106250,4
50163,106248,6
50159,106260,4
50167,106265,5
50165,106273,5
50167,106267,4
50165,106271,5
50166,106259,5
50164,106278,5
50173,106290,5
50167,106275,4
50168,106286,5
50174,106287,5
50176,106309,5
50179,106289,4
50182,106298,4
50186,106296,5
50188,106306,5
50194,106303,5
50194,106316,4
50198,106321,5
50195,106327,5
50192,106334,5
50199,106333,5
50195,106336,4
50200,106339,5
50203,106349,6
50208,106350,4
50209,106351,5
50214,106355,4
50213,106359,5
50210,106368,5
50216,106367,5
50214,106366,5
50206,106366,4
50209,106361,5
50218,106372,5
50209,106368,5
50223,106372,5
50223,106373,4
50217,106370,5
50217,106371,5
50212,106367,5
50220,106361,5
50217,106369,4
50215,106360,5
50213,106359,5
50211,106359,5
50214,106359,4
50208,106359,5
50205,106365,5
50213,106367,6
50214,106364,4
50215,106374,4
50213,106379,5
50215,106372,5
50206,106369,5
50214,106375,5
50213,106378,4
50210,106377,5
50225,106383,5
50224,106373,5
50231,106377,5
50227,106377,4
50221,106368,5
50215,106358,5
50221,106354,5
50214,106347,5
50215,106337,4
50195,106324,5
50188,106287,5
50183,106278,5
50164,106258,5
50154,106252,4
50151,106227,5
50148,106215,5
50148,106230,6
50148,106229,3
50158,106232,5
50145,106219,5
50149,106212,5
50148,106204,5
50142,106195,4
50126,106182,5
50121,106166,5
50108,106157,5
50106,106149,5
50102,106142,4
50104,106135,5
50099,106124,5
50102,106120,5
50089,106094,5
50087,106095,4
50070,106059,5
50069,106054,6
50063,106048,4
50052,106031,5
50051,106027,5
50053,106025,4
50050,106012,5
50051,106007,5
50037,106013,5
50033,106002,4
50028,105983,5
50019,105978,5
50024,105961,5
50003,105955,4
50013,105955,4
50011,105940,5
50004,105917,5
49974,105915,5
49997,105900,4
49991,105905,5
49992,105896,5
49993,105900,5
49987,105892,5
49975,105887,4
49979,105879,5
49981,105864,5
49977,105871,5
49968,105872,5
49975,105857,4
49983,105872,6
49971,105851,4
49966,105866,5
49970,105862,5
49973,105855,4
49969,105848,5
49960,105857,5
49961,105844,5
49964,105850,5
49966,105855,4
49962,105847,5
49953,105841,5
49955,105832,5
49951,105837,4
49958,105838,4
49949,105827,5
49951,105811,5
49953,105818,5
49940,105822,4
49943,105809,5
49942,105801,5
49939,105800,5
49947,105796,5
49937,105789,4
49941,105796,5
49937,105778,6
49926,105777,4
49935,105786,5
49929,105798,4
49930,105775,5
49928,105771,5
49936,105773,5
49934,105793,5
49926,105776,4
49928,105778,5
49928,105783,5
49926,105780,5
49929,105775,5
49923,105771,4
49917,105764,5
49926,105754,5
49916,105747,5
49919,105761,5
49915,105755,4
49919,105762,5
49916,105763,5
49923,105767,5
49923,105770,4
49917,105765,5
49916,105759,5
49926,105761,5
49918,105766,5
49923,105770,4
49916,105756,5
49916,105761,5
49922,105757,5
49920,105762,5
49917,105753,4
49913,105751,5
49910,105750,5
49923,105750,5
49915,105748,5
49925,105747,4
49911,105750,5
49913,105749,5
49908,105752,5
49921,105757,5
49923,105761,4
49923,105762,5
49920,105760,5
49923,105758,5
49922,105759,5
49924,105761,4
49930,105785,5
49921,105780,5
49932,105787,5
49927,105778,4
49922,105789,5
49924,105773,5
49930,105771,5
49924,105770,5
49914,105751,4
49897,105714,5
49887,105701,5
49889,105687,5
49877,105680,5
49870,105665,4
49868,105655,5
49868,105663,5
49874,105661,5
49882,105665,5
49879,105664,4
49881,105683,5
49882,105674,5
49875,105669,5
49879,105673,5
49875,105677,5
49876,105669,4
49875,105669,5
49866,105670,5
49868,105667,5
49865,105662,4
49879,105654,5
49870,105657,5
49874,105657,5
49873,105654,4
49860,105655,4
49864,105639,5
49861,105639,5
49856,105634,5
49855,105622,4
49854,105628,5
49844,105631,5
49855,105615,5
49850,105621,5
49852,105631,4
49854,105636,5
49850,105631,5
49854,105624,4
49846,105626,5
49856,105626,4
49831,105617,7
49847,105609,3
49841,105607,5
49837,105598,5
49826,105590,4
49838,105602,5
49845,105604,5
49841,105605,5
49844,105597,5
49846,105605,4
49839,105607,5
49851,105610,5
49859,105611,5
49847,105616,4
49860,105623,4
49850,105622,5
49873,105627,5
49862,105630,5
49858,105630,4
49862,105637,5
49867,105631,5
49849,105634,6
49856,105638,4
49850,105624,4
49863,105641,5
49857,105626,5
49861,105631,5
49862,105626,5
49850,105626,4
49855,105630,5
49856,105629,5
49853,105620,5
49847,105609,5
49848,105623,4
49843,105619,5
49847,105619,5
49852,105600,5
49851,105610,5
49846,105622,4
49847,105620,5
49845,105608,5
49848,105615,5
49840,105611,5
49845,105605,4
49845,105624,5
49848,105607,5
49839,105604,6
49845,105603,3
49841,105615,5
49848,105602,5
49835,105601,5
49835,105606,5
49838,105600,4
49841,105596,5
49839,105604,5
49849,105607,5
49849,105600,5
49842,105597,4
49838,105603,5
49843,105599,5
49843,105610,5
49836,105603,5
49835,105604,4
49837,105597,5
49833,105605,5
49835,105603,5
49844,105603,5
49843,105608,5
49845,105601,4
49842,105600,5
49841,105606,5
49842,105592,6
49835,105607,3
49834,105601,5
49841,105611,5
49841,105604,5
49852,105606,4
49849,105608,4
49839,105613,5
49846,105615,5
49846,105618,5
49839,105610,4
49849,105616,5
49847,105606,5
49845,105613,5
49839,105613,5
49847,105616,4
49850,105620,5
49849,105618,5
49859,105626,5
49856,105619,5
49846,105617,4
49849,105629,6
49848,105620,4
49843,105622,5
49851,105623,5
49850,105622,6
49860,105621,3
49851,105630,5
49849,105630,5
49856,105630,5
49848,105614,4
49849,105623,5
49851,105628,5
49858,105626,5
49852,105629,4
49846,105619,4
49854,105612,5
49846,105618,5
49850,105623,5
49842,105621,4
49851,105615,5
49845,105608,5
49841,105610,5
49839,105614,5
49842,105605,4
49842,105606,5
49841,105607,6
49845,105613,4
49848,105621,5
49839,105624,4
49850,105620,5
49852,105621,5
49843,105631,5
49854,105634,5
49847,105630,4
49849,105628,5
49854,105632,5
49849,105636,5
49858,105651,5
49865,105649,4
49854,105643,5
49868,105645,5
49856,105639,5
49847,105631,5
49848,105630,4
49848,105615,5
49839,105608,5
49833,105592,5
49835,105593,4
49833,105583,5
49820,105586,5
49835,105575,6
49819,105563,4
49826,105571,4
49819,105587,5
49822,105589,5
49831,105589,5
49832,105589,5
49834,105581,4
49828,105582,5
49834,105585,5
49830,105582,5
49839,105578,5
49832,105590,4
49827,105590,5
49831,105577,5
49847,105578,5
49837,105591,5
49833,105596,4
49835,105583,5
49826,105575,5
49825,105579,5
49835,105584,5
49836,105586,4
49830,105585,5
49838,105587,5
49827,105576,6
49829,105582,3
49836,105576,4
49825,105580,5
49824,105585,5
49832,105587,5
49828,105578,4
49834,105585,5
49836,105581,5
49828,105592,5
49827,105582,5
49832,105580,4
49829,105570,5
49816,105569,5
49826,105579,5
49806,105549,5
49818,105552,4
49821,105556,5
49815,105565,5
49824,105563,5
49814,105557,5
49814,105559,5
49822,105560,4
49813,105547,5
49814,105557,5
49812,105552,5
49816,105556,4
49820,105555,5
49814,105548,5
49805,105554,5
49819,105548,4
49811,105551,4
49813,105552,5
49811,105548,5
49808,105543,5
49813,105544,4
49808,105548,5
49805,105544,5
49810,105542,5
49810,105538,5
49811,105533,4
49811,105530,5
49808,105543,5
49806,105529,5
49802,105527,5
49801,105523,4
49803,105524,6
49801,105518,4
49797,105518,5
49802,105511,5
49795,105522,4
49800,105522,5
49800,105515,5
49788,105507,5
49792,105518,5
49791,105507,4
49800,105511,5
49796,105519,5
49794,105514,5
49799,105520,5
49800,105528,4
49799,105531,5
49796,105516,5
49799,105525,5
49807,105520,4
49795,105528,5
49801,105528,5
49804,105526,5
49803,105533,5
49805,105535,4
49808,105535,5
49808,105533,6
49802,105529,4
49811,105529,5
49806,105540,4
49816,105532,5
49796,105532,5
49815,105543,5
49816,105544,5
49811,105563,4
49805,105555,5
49816,105548,5
49809,105552,5
49816,105550,5
49808,105546,4
49808,105535,5
49802,105526,5
49794,105512,5
49801,105501,5
49787,105507,4
