RED,IR,EKG,TIME
30894,57248,8
30888,57252,10
30888,57249,5
30892,57244,5
30883,57244,8
30886,57237,7
30892,57256,5
30885,57229,10
30885,57229,5
30875,57234,5
30878,57228,10
30882,57231,5
30876,57225,5
30885,57249,10
30885,57249,5
30890,57251,5
30880,57230,10
30882,57243,5
30881,57236,5
30910,57231,10
30874,57238,5
30863,57242,5
30892,57250,10
30892,57250,5
30885,57246,5
30901,57253,10
30897,57260,5
30896,57250,5
30883,57258,10
30890,57263,5
30898,57262,7
30898,57262,8
30896,57292,5
30887,57255,7
30892,57242,8
30893,57257,5
30895,57264,7
30896,57261,8
30896,57261,5
30903,57294,7
30899,57259,8
30896,57254,9
30899,57259,5
30906,57272,8
30906,57272,7
30935,57262,5
30908,57282,8
30900,57277,7
30906,57273,5
30902,57270,8
30898,57273,7
30898,57273,5
30902,57276,8
30897,57259,7
30840,57252,5
30894,57256,8
30915,57250,7
30924,57257,5
30903,57259,8
30903,57259,7
30895,57256,5
30888,57223,8
30886,57249,7
30934,57242,8
30898,57235,7
30883,57246,7
30883,57246,8
30858,57247,7
30909,57234,5
30885,57248,8
30902,57288,7
30893,57261,5
30895,57214,8
30895,57214,7
30864,57258,5
30889,57254,8
30892,57258,7
30898,57243,10
30898,57243,9
30905,57272,7
30905,57268,10
30917,57279,5
30896,57312,5
30905,57289,10
30905,57289,5
30916,57269,5
30908,57271,10
30893,57314,5
30896,57280,5
30903,57272,10
30916,57285,5
30916,57285,5
30916,57294,10
30908,57284,5
30911,57272,5
30910,57279,10
30911,57290,5
30934,57303,5
30918,57309,10
30918,57309,5
30920,57284,4
30915,57276,2
30921,57296,4
30917,57295,5
30915,57296,5
30913,57296,5
30923,57300,4
30919,57304,5
30916,57297,5
30920,57291,5
30927,57297,4
30923,57297,5
30915,57289,5
30921,57285,5
30919,57287,5
30921,57291,4
30916,57291,5
30917,57292,5
30919,57296,5
30920,57298,5
30911,57305,4
30922,57292,5
30918,57288,5
30918,57298,5
30925,57302,4
30918,57299,5
30925,57311,6
30922,57309,4
30914,57293,5
30916,57289,4
30913,57288,7
30904,57283,3
30912,57282,5
30907,57280,5
30906,57281,4
30900,57276,5
30908,57282,5
30909,57276,5
30905,57274,5
30907,57275,4
30917,57280,5
30909,57284,5
30915,57278,5
30899,57280,5
30912,57276,4
30910,57274,5
30911,57279,5
30913,57271,5
30903,57273,4
30907,57276,4
30901,57275,5
30907,57277,6
30907,57275,4
30901,57272,4
30901,57266,5
30900,57264,5
30899,57275,5
30906,57271,5
30904,57277,4
30901,57274,5
30904,57271,5
30908,57274,5
30914,57272,5
30901,57272,4
30900,57273,5
30905,57271,5
30882,57269,5
30900,57279,5
30907,57279,4
30910,57281,5
30867,57281,5
30913,57288,5
30904,57279,5
30914,57289,4
30860,57279,5
30908,57282,5
30909,57288,6
30906,57282,3
30914,57285,4
30909,57289,5
30908,57290,5
30914,57284,5
30958,57299,4
30920,57298,5
30921,57293,5
30917,57300,5
30975,57287,5
30914,57296,4
30921,57293,5
30919,57307,5
30939,57306,5
30925,57299,5
30916,57305,4
30921,57307,5
30925,57309,5
30920,57306,5
30923,57302,5
30929,57309,5
30928,57273,4
30929,57321,5
30928,57317,5
30932,57320,5
30929,57255,4
30927,57321,5
30932,57325,5
30926,57323,5
30930,57289,4
30935,57318,4
30930,57316,5
30933,57322,5
30931,57351,5
30927,57324,4
30927,57319,5
30935,57321,5
30927,57386,5
30932,57327,5
30937,57320,4
30928,57324,5
30936,57363,5
30929,57322,5
30934,57329,5
30933,57330,4
30929,57344,6
30939,57317,4
30932,57316,5
30931,57321,5
30934,57317,4
30921,57310,5
30926,57312,5
30931,57306,5
30930,57303,5
30925,57302,4
30918,57302,5
30929,57307,5
30924,57305,5
30921,57302,4
30922,57306,5
30926,57306,5
30933,57315,5
30925,57302,5
30919,57312,4
30928,57318,5
30931,57326,5
30936,57330,5
30942,57321,5
30934,57336,4
30945,57336,5
30947,57342,6
30940,57345,4
30945,57328,5
30930,57325,4
30939,57328,5
30929,57328,5
30925,57317,5
30927,57315,5
30937,57319,4
30937,57312,5
30928,57322,5
30927,57312,5
30928,57317,4
30930,57315,4
30928,57311,5
30921,57311,5
30930,57321,5
30926,57315,4
30930,57321,5
30924,57317,5
30933,57323,5
30928,57317,5
30925,57320,4
30928,57322,5
30923,57328,5
30926,57311,6
30938,57318,4
30934,57317,4
30932,57326,5
30933,57314,5
30934,57315,5
30926,57318,5
30930,57314,4
30927,57319,5
30934,57319,5
30924,57329,5
30939,57319,5
30938,57324,4
30927,57327,5
30932,57327,5
30937,57329,5
30939,57320,4
30937,57320,4
30929,57328,5
30938,57329,5
30931,57319,5
30931,57339,5
30928,57318,4
30927,57331,5
30936,57331,5
30926,57320,6
30937,57327,3
30935,57327,5
30937,57324,5
30937,57330,5
30933,57334,5
30917,57324,4
30940,57333,5
30935,57329,5
30934,57323,5
30898,57325,5
30940,57336,4
30942,57337,5
30937,57331,5
30888,57339,5
30938,57333,5
30946,57337,4
30938,57338,5
30929,57338,5
30941,57343,5
30936,57332,4
30938,57334,6
30982,57340,4
30940,57341,5
30936,57350,5
30939,57335,4
30998,57337,5
30948,57352,5
30939,57333,5
30937,57342,5
30963,57330,4
30932,57330,5
30941,57334,5
30937,57334,5
30941,57325,5
30939,57339,4
30935,57329,5
30945,57341,5
30946,57295,5
30944,57328,5
30937,57329,4
30933,57328,5
30942,57279,5
30941,57326,5
30942,57337,4
30935,57338,4
30941,57301,6
30931,57332,4
30939,57323,5
30937,57326,5
30932,57353,4
30938,57331,5
30932,57337,5
30943,57322,5
30938,57381,4
30926,57317,5
30931,57311,5
30938,57310,5
30921,57346,5
30923,57296,4
30931,57304,5
30920,57294,5
30924,57318,5
30925,57301,5
30910,57298,4
30919,57296,5
30917,57292,5
30918,57289,5
30929,57300,5
30924,57309,4
30927,57302,5
30922,57308,6
30930,57305,4
30937,57318,4
30931,57315,4
30934,57323,5
30929,57314,5
30942,57318,5
30931,57331,4
30933,57320,5
30935,57317,5
30931,57311,5
30930,57309,5
30921,57309,4
30923,57308,5
30923,57297,5
30924,57305,5
30929,57308,5
30922,57311,4
30931,57309,5
30926,57308,5
30930,57311,5
30929,57303,5
30927,57316,4
30931,57321,5
30922,57312,5
30926,57310,5
30929,57318,5
30930,57313,4
30930,57312,5
30925,57310,5
30931,57307,5
30941,57309,4
30928,57313,5
30935,57309,5
30933,57309,5
30923,57311,5
30924,57310,4
30930,57313,5
30929,57313,5
30930,57317,5
30926,57320,5
30933,57322,4
30929,57317,5
30936,57319,5
30927,57316,5
30921,57313,5
30921,57304,5
30926,57312,4
30931,57321,5
30935,57318,5
30925,57309,5
30924,57307,4
30933,57306,5
30925,57318,5
30930,57310,5
30923,57310,4
30925,57317,4
30920,57310,5
30918,57312,5
30927,57322,5
30932,57308,4
30924,57315,5
30927,57316,5
30927,57316,5
30929,57314,5
30928,57319,4
30933,57317,5
30932,57329,5
30926,57324,5
30928,57321,5
30939,57327,4
30929,57330,6
30915,57322,4
30940,57332,5
30941,57336,5
30934,57328,4
30900,57334,5
30935,57336,5
30936,57334,5
30934,57334,5
30888,57334,4
30936,57325,5
30939,57328,5
30928,57320,5
30943,57328,4
30940,57314,4
30931,57329,5
30938,57329,5
30981,57328,5
30941,57323,4
30942,57332,5
30937,57339,5
30995,57331,5
30948,57339,4
30931,57336,4
30940,57341,5
30961,57331,5
30933,57333,5
30943,57334,5
30937,57335,4
30946,57338,5
30931,57331,5
30930,57342,5
30933,57334,5
30933,57291,4
30942,57338,5
30932,57326,5
30927,57326,5
30933,57283,4
30928,57326,4
30929,57328,5
30927,57323,5
30924,57287,5
30929,57320,5
30925,57309,4
30926,57306,5
30920,57334,9
30919,57303,6
30924,57283,4
30910,57304,5
30915,57355,5
30920,57303,5
30921,57307,4
30921,57309,5
30928,57351,5
30924,57320,5
30926,57326,5
30925,57330,4
30933,57339,5
30932,57335,5
30940,57342,5
30947,57345,5
30948,57351,4
30946,57357,5
30948,57366,5
30945,57360,5
30955,57356,4
30945,57341,5
30945,57337,4
30940,57335,5
30929,57334,5
30932,57337,6
30935,57330,3
30932,57335,5
30931,57343,5
30932,57337,5
30942,57336,4
30932,57338,5
30940,57332,5
30933,57332,5
30937,57337,5
30944,57326,4
30932,57341,5
30937,57345,5
30943,57344,5
30941,57347,5
30949,57359,4
30948,57348,5
30945,57360,5
30951,57353,5
30945,57352,5
30942,57350,4
30943,57344,6
30951,57346,4
30950,57349,5
30937,57343,4
30934,57345,5
30936,57340,5
30942,57345,5
30937,57338,5
30944,57343,4
30940,57339,5
30940,57340,5
30943,57335,5
30940,57327,5
30937,57332,4
30934,57330,5
30935,57325,5
30924,57321,5
30924,57318,5
30918,57307,4
30921,57317,5
30924,57309,5
30927,57305,5
30919,57305,5
30918,57301,4
30919,57300,5
30928,57302,6
30913,57302,4
30918,57308,4
30912,57307,4
30924,57301,5
30925,57308,5
30922,57306,5
30932,57309,4
30921,57319,5
30927,57314,5
30932,57325,5
30935,57326,5
30937,57327,4
30935,57336,5
30935,57332,5
30937,57333,5
30939,57331,5
30937,57328,4
30947,57336,5
30944,57343,5
30943,57348,5
30941,57345,5
30913,57339,4
30938,57340,5
30937,57334,5
30953,57337,6
30894,57346,4
30943,57348,4
30932,57344,5
30932,57346,5
30897,57334,5
30939,57335,4
30935,57337,5
30929,57328,5
30943,57332,5
30932,57335,5
30940,57338,4
30934,57327,5
30987,57324,5
30935,57317,5
30933,57320,5
30929,57322,4
30983,57327,5
30927,57311,5
30926,57307,5
30918,57301,5
30935,57306,5
30922,57302,4
30911,57287,5
30916,57290,5
30906,57280,6
30912,57287,3
30916,57291,5
30916,57280,5
30918,57252,5
30912,57293,4
30922,57303,4
30911,57300,5
30920,57247,5
30922,57297,5
30923,57308,5
30928,57314,4
30914,57298,5
30922,57304,5
30914,57305,5
30913,57299,4
30919,57321,5
30916,57282,5
30908,57280,5
30908,57290,5
30907,57358,4
30913,57283,6
30915,57290,4
30912,57294,5
30916,57327,5
30909,57304,4
30924,57295,5
30926,57295,5
30913,57296,5
30919,57298,5
30908,57296,4
30914,57300,5
30919,57298,5
30917,57292,5
30919,57302,4
30920,57302,4
30920,57298,5
30911,57296,5
30919,57297,5
30924,57296,4
30912,57301,5
30914,57289,5
30928,57302,5
30917,57301,5
30921,57294,4
30913,57297,5
30913,57295,6
30920,57292,4
30909,57291,5
30917,57289,4
30915,57299,5
30913,57289,5
30909,57285,5
30920,57290,5
30917,57287,4
30904,57280,5
30902,57278,5
30909,57270,5
30904,57274,4
30901,57277,4
30908,57269,5
30910,57279,5
30906,57278,5
30903,57282,4
30906,57288,5
30907,57273,5
30901,57281,5
30907,57274,5
30908,57271,4
30905,57288,5
30905,57286,5
30911,57283,6
30906,57297,4
30920,57290,4
30920,57299,5
30916,57285,5
30907,57291,5
30914,57290,5
30910,57291,4
30908,57281,5
30910,57289,5
30917,57299,5
30920,57298,5
30918,57297,4
30918,57302,5
30919,57312,5
30930,57317,5
30925,57318,4
30928,57302,4
30930,57304,5
30926,57315,5
30920,57309,5
30922,57298,5
30921,57308,4
30921,57306,5
30920,57311,5
30923,57301,5
30924,57309,4
30921,57306,5
30929,57305,5
30915,57312,5
30927,57317,5
30924,57319,4
30933,57324,5
30931,57328,5
30931,57327,5
30932,57338,5
30937,57345,4
30941,57352,5
30916,57355,5
30950,57368,5
30951,57376,4
30949,57374,4
30907,57364,5
30950,57353,5
30946,57359,5
30949,57370,4
30905,57374,6
30963,57375,4
30963,57381,5
30962,57388,5
30985,57382,4
30970,57402,5
30972,57405,5
30968,57400,5
31026,57411,5
30972,57417,4
30990,57431,5
30998,57454,5
31049,57473,5
31023,57496,5
31032,57508,4
31036,57523,5
31060,57537,5
31043,57553,5
31049,57551,5
31060,57568,4
31067,57570,5
31079,57586,5
31074,57589,5
31070,57593,4
31087,57564,4
31075,57599,6
31078,57596,4
31081,57597,5
31081,57544,4
31083,57613,5
31101,57624,5
31098,57644,5
31106,57633,5
31106,57650,4
31117,57671,5
31125,57668,5
31117,57710,5
31120,57679,5
31124,57680,4
31119,57682,5
31123,57742,5
31123,57680,5
31136,57696,5
31127,57686,4
31129,57696,5
31118,57667,5
31119,57668,6
31108,57662,4
31101,57660,4
31109,57646,5
31107,57647,5
31113,57667,5
31115,57659,4
31118,57669,4
31115,57679,5
31128,57680,5
31115,57676,5
31123,57669,4
31125,57677,5
31122,57681,5
31126,57690,5
31116,57686,5
31123,57682,4
31121,57683,5
31116,57683,5
31119,57672,5
31107,57665,5
31113,57663,4
31122,57674,5
31126,57680,5
31116,57670,5
31110,57668,5
31121,57668,4
31114,57671,5
31114,57656,5
31109,57655,5
31109,57671,5
31115,57666,4
31117,57668,5
31119,57671,5
31114,57671,5
31108,57673,4
31117,57663,5
31120,57664,5
31109,57661,5
31108,57660,5
31102,57667,4
31112,57667,5
31113,57676,5
31115,57666,5
31105,57659,5
31108,57658,4
31108,57658,6
31099,57643,4
31091,57623,5
31090,57619,5
31090,57619,6
31098,57639,3
31103,57638,5
31105,57652,5
31101,57643,5
31086,57627,4
31086,57613,5
31080,57618,5
31084,57617,5
31088,57634,4
31102,57640,4
31092,57635,5
31088,57624,5
31094,57619,5
31079,57609,4
31084,57612,5
31090,57620,5
31089,57630,5
31088,57624,5
31089,57611,4
31091,57619,5
31075,57622,6
31090,57626,4
31091,57614,5
31075,57613,4
31084,57613,7
31085,57610,3
31085,57617,5
31081,57620,5
31094,57639,4
31099,57642,5
31095,57629,5
31090,57626,5
31054,57608,5
31080,57601,4
31069,57588,5
31059,57570,5
30996,57548,5
31049,57548,4
31047,57540,5
31050,57557,5
31014,57563,5
31063,57564,5
31060,57568,4
31055,57563,5
31077,57559,5
31051,57556,6
31054,57557,4
31042,57555,4
31099,57538,5
31037,57538,5
31037,57537,5
31051,57540,5
31092,57539,4
31037,57533,5
31041,57535,5
31043,57528,5
31043,57526,5
31032,57526,4
31035,57527,5
31036,57523,5
31040,57519,5
31039,57523,4
31032,57532,4
31039,57530,5
31039,57484,5
31037,57527,5
31034,57519,5
31028,57522,4
31029,57461,5
31033,57519,5
31035,57524,6
31038,57529,3
31037,57521,5
31044,57541,5
31049,57544,5
31043,57547,5
31044,57583,4
31039,57537,5
31037,57524,5
31038,57517,5
31033,57571,5
31036,57508,4
31031,57495,7
31010,57492,3
31018,57515,5
31020,57495,5
31015,57499,4
31021,57492,5
31024,57503,5
31011,57492,5
31016,57491,4
31015,57488,5
31012,57492,4
31019,57488,5
31019,57489,5
31015,57497,6
31014,57495,3
31021,57500,5
31025,57490,5
31019,57486,5
31018,57482,4
31014,57487,5
31013,57486,5
31019,57496,5
31016,57484,5
31012,57496,4
31011,57488,5
31015,57485,5
31013,57484,5
31018,57483,5
31015,57490,4
31017,57484,5
31019,57488,5
31020,57493,5
31024,57488,5
31017,57488,4
31021,57492,6
31018,57483,4
31012,57470,5
31002,57478,4
31004,57469,5
31002,57466,5
31004,57469,5
31003,57463,5
31008,57464,4
31003,57471,5
31002,57469,5
30999,57469,5
31009,57474,5
31002,57465,4
31009,57468,5
30998,57464,5
31010,57482,5
31001,57470,5
31004,57468,4
31016,57473,5
31006,57481,5
31009,57475,5
31009,57485,5
31021,57487,4
31012,57480,5
31014,57486,6
31014,57485,4
31006,57484,4
31004,57478,4
31007,57478,5
31007,57470,5
31004,57460,5
30999,57466,4
31003,57465,5
31002,57458,5
30995,57454,5
30992,57456,5
30996,57448,4
30998,57455,5
31003,57451,5
30998,57448,5
30993,57445,5
30982,57445,4
30991,57440,5
30993,57442,5
30990,57443,5
30991,57437,5
30995,57436,4
30991,57442,5
30995,57441,5
30991,57443,6
30998,57442,4
30981,57435,4
30961,57424,5
30977,57420,5
30982,57418,5
30974,57399,4
30917,57405,4
30964,57407,5
30971,57402,5
30966,57396,5
30917,57391,4
30961,57384,5
30962,57393,5
30964,57384,5
30975,57390,5
30955,57377,4
30951,57376,5
30950,57374,5
31009,57386,5
30952,57382,5
30954,57385,5
30955,57382,4
31007,57381,5
30957,57399,5
30965,57387,5
30963,57386,4
30981,57386,5
30971,57385,5
30963,57387,5
30960,57392,5
30956,57378,4
30965,57396,5
30966,57391,5
30961,57389,5
30967,57357,4
30972,57387,4
30958,57388,5
30973,57391,5
30967,57343,5
30967,57388,4
30959,57390,5
30954,57381,5
30961,57362,5
30960,57392,5
30953,57375,4
30958,57378,6
30960,57410,4
30960,57386,5
30954,57369,5
30958,57389,4
30959,57435,5
30950,57372,5
30955,57378,5
30953,57372,5
30952,57415,4
30955,57373,5
30954,57374,5
30960,57377,5
30950,57392,5
30962,57393,4
30965,57385,5
30961,57390,5
30955,57383,5
30964,57394,4
30960,57389,5
30962,57397,5
30962,57390,5
30969,57396,5
30977,57393,4
30966,57393,5
30966,57386,6
30966,57400,4
30963,57400,5
30964,57392,4
30963,57388,5
30964,57391,5
30962,57397,5
30965,57401,5
30964,57398,4
30970,57396,5
30968,57397,5
30960,57396,5
30966,57406,5
30967,57400,4
30958,57399,5
30967,57389,5
30963,57394,5
30961,57394,4
30959,57391,4
30962,57386,5
30959,57382,5
30958,57385,5
30959,57383,4
30963,57381,5
30964,57393,5
30960,57377,6
30953,57382,4
30953,57387,4
30964,57402,5
30967,57400,5
30968,57389,5
30969,57387,5
30964,57394,4
30966,57401,5
30964,57386,5
30964,57394,5
30957,57384,5
30950,57384,4
30956,57376,5
30961,57376,5
30947,57374,5
30956,57385,5
30956,57377,4
30955,57374,5
30956,57375,5
30961,57379,5
30953,57389,5
30957,57392,4
30962,57394,5
30965,57392,5
30972,57401,5
30974,57403,4
30965,57403,5
30971,57399,5
30970,57403,5
30970,57402,5
30971,57402,4
30973,57413,5
30973,57409,5
30969,57413,5
30973,57412,5
30965,57422,4
30977,57416,5
30964,57417,5
30972,57417,5
30971,57412,5
30979,57414,4
30974,57422,5
30983,57416,5
30959,57429,5
30984,57433,5
30987,57429,5
30983,57432,4
30938,57439,5
30989,57434,5
30976,57435,4
30986,57423,4
30929,57430,5
30989,57437,5
30986,57437,5
30989,57438,4
31003,57450,5
30980,57436,5
30987,57440,5
30982,57439,5
31043,57442,4
30985,57436,5
30985,57440,5
30998,57444,5
31042,57441,5
30993,57448,4
30986,57451,5
30996,57443,5
31015,57450,5
31001,57451,5
30991,57457,4
30997,57460,6
30991,57436,4
31001,57449,5
30997,57454,4
30989,57462,4
30999,57419,5
31000,57458,5
31001,57458,5
31005,57452,4
31004,57415,5
31008,57462,5
31002,57460,5
31000,57459,5
31005,57451,4
30997,57466,5
31001,57456,5
30998,57456,5
31002,57513,5
31010,57469,4
31008,57468,5
31006,57465,5
31001,57529,5
31010,57476,4
31005,57466,4
31007,57462,5
31003,57501,5
31001,57466,5
30996,57478,5
31002,57470,4
31009,57474,5
31014,57477,5
31007,57485,5
31005,57481,4
31008,57476,4
31013,57485,5
31009,57478,5
31015,57466,5
31007,57476,4
31011,57479,5
31011,57473,5
31005,57477,5
31007,57476,5
31002,57472,5
31007,57476,4
31002,57463,5
31002,57469,5
31010,57473,6
30996,57458,3
30994,57458,5
31010,57451,5
31005,57455,5
31001,57459,5
31004,57455,4
31004,57452,5
30996,57451,5
30998,57446,5
30991,57446,4
31000,57458,4
31005,57463,5
31006,57462,5
31012,57470,5
31011,57480,4
31016,57489,5
31011,57493,5
31016,57495,5
31019,57491,5
31022,57493,4
31020,57495,6
31018,57480,4
31012,57478,5
31006,57486,5
31013,57478,6
31012,57477,3
31007,57469,5
31009,57468,5
31011,57480,5
31003,57473,4
31009,57475,5
31006,57481,5
31012,57478,5
31014,57486,5
31007,57477,4
31016,57476,5
31013,57487,5
31017,57484,5
31008,57485,4
31010,57479,4
31008,57476,5
31006,57477,5
31017,57482,5
31010,57486,4
31014,57481,5
31021,57476,6
31002,57469,4
31011,57471,5
31010,57481,4
31007,57481,5
31005,57485,5
31012,57485,5
31014,57489,5
31013,57480,4
31014,57486,5
31007,57492,5
31017,57487,5
31018,57480,5
31017,57482,4
31011,57478,5
31019,57482,5
31010,57480,5
31016,57491,5
30981,57479,4
31017,57483,5
31015,57480,5
31009,57482,5
30962,57474,4
31007,57471,5
31005,57482,5
31007,57479,6
30957,57483,4
31013,57482,4
31005,57492,5
31013,57487,5
31027,57479,5
31009,57486,5
31022,57484,4
31028,57494,5
31067,57508,5
31020,57499,5
31024,57497,5
31020,57503,4
31061,57505,5
31016,57498,5
31019,57503,5
31015,57509,5
31038,57498,4
31022,57496,5
31026,57503,5
31029,57504,5
31026,57479,5
31029,57506,4
31024,57505,5
31023,57494,5
31024,57456,6
31026,57495,3
31015,57501,5
31016,57498,5
31032,57445,5
31025,57509,5
31022,57502,5
31026,57497,4
31021,57495,5
31026,57512,5
31027,57505,5
31018,57503,4
31026,57552,5
31021,57510,5
31022,57499,5
31020,57498,5
31027,57561,4
31015,57495,5
31020,57490,5
31019,57483,5
31016,57519,5
31009,57483,5
31016,57483,4
31010,57473,5
31001,57491,9
31013,57477,5
31008,57468,5
31008,57466,5
31008,57467,5
31008,57467,4
31002,57466,5
31011,57464,5
31003,57465,5
31003,57474,5
31010,57484,4
31012,57487,5
31020,57482,5
31014,57488,5
31024,57492,5
31018,57493,4
31019,57501,5
31019,57502,5
31027,57501,5
31026,57501,5
31019,57492,4
31010,57482,6
31018,57486,4
31013,57482,5
31014,57481,5
31011,57476,4
31013,57477,5
31017,57477,5
31015,57474,5
31003,57477,4
31007,57470,5
31009,57476,5
31008,57475,5
31005,57475,5
31010,57466,4
31001,57482,5
31015,57467,5
31005,57469,5
31008,57477,5
31006,57478,4
31009,57475,5
31009,57479,5
30997,57478,5
31002,57468,5
31007,57471,4
31001,57465,5
31000,57473,6
31000,57467,4
31008,57473,5
31008,57469,4
31005,57475,5
31002,57474,5
31012,57477,5
31006,57469,4
31000,57471,4
31001,57465,5
31000,57463,5
31006,57469,5
30997,57464,4
31005,57462,5
31002,57458,5
31001,57466,5
30996,57467,5
31000,57457,4
30994,57460,5
30999,57464,5
30993,57455,5
30998,57456,5
30997,57459,4
30991,57458,5
31001,57461,5
30985,57455,6
30989,57455,4
30992,57466,4
31003,57457,5
31002,57468,5
30999,57468,5
31002,57468,5
31009,57469,4
31014,57471,5
31015,57481,5
30993,57479,5
31000,57480,4
31019,57473,4
31011,57488,5
30961,57469,5
31009,57481,5
31012,57476,4
31006,57483,5
30956,57480,5
31013,57479,5
31003,57471,5
31001,57472,5
31025,57482,4
31007,57481,5
31006,57469,5
31000,57470,5
31059,57469,4
30994,57458,5
30997,57465,5
30997,57466,5
31035,57459,5
31003,57453,4
30990,57461,5
30997,57468,5
31001,57458,5
30983,57453,4
30991,57455,4
30994,57453,5
30999,57438,5
30988,57454,5
30985,57454,4
30993,57449,5
30996,57418,5
30988,57453,5
30996,57456,5
30991,57461,4
30995,57410,6
31004,57467,4
30999,57464,5
30993,57465,5
30992,57463,4
30991,57463,5
30995,57463,5
30992,57455,5
30996,57505,5
30994,57463,4
30997,57453,5
30993,57452,5
30995,57515,5
30994,57460,5
31003,57454,4
30986,57456,5
30991,57473,5
30993,57456,5
30988,57451,4
30994,57455,4
31008,57475,5
30999,57462,5
31005,57467,5
31007,57475,4
31005,57475,5
31000,57481,7
31010,57479,3
31006,57468,5
31005,57473,4
31009,57468,5
30999,57461,5
30999,57464,5
30996,57473,5
30992,57455,4
31004,57460,5
30992,57459,5
31005,57462,5
30999,57457,5
30994,57458,4
31003,57461,5
31001,57452,5
30994,57466,5
30999,57459,5
30998,57473,4
31000,57469,5
31000,57468,5
30997,57467,5
31003,57463,4
31003,57468,5
31004,57467,5
31004,57467,5
30999,57459,5
31006,57464,4
30999,57465,5
31009,57462,5
30995,57455,5
30999,57460,5
30992,57453,4
31001,57451,5
30994,57457,5
30995,57460,5
30998,57455,5
31000,57459,4
30995,57451,5
30998,57453,5
30998,57462,5
31000,57452,5
30993,57456,4
30998,57451,5
30998,57461,5
31000,57451,5
30998,57450,5
30991,57453,4
30985,57445,5
30989,57449,5
30984,57445,5
30982,57436,4
30983,57443,5
30998,57436,5
30987,57443,5
30988,57439,5
30988,57441,4
30994,57448,5
30995,57452,5
31002,57445,5
31000,57451,5
30996,57456,4
30998,57464,5
31000,57464,5
31005,57464,5
31005,57471,5
31001,57472,4
31002,57472,5
31007,57473,4
31008,57483,5
31010,57481,5
31010,57481,6
30999,57479,3
31012,57474,5
31011,57483,5
31013,57489,4
30973,57488,4
31014,57477,5
31017,57476,5
31011,57483,5
30968,57475,4
31002,57473,5
31009,57475,5
31011,57471,5
30984,57470,5
31001,57462,4
31011,57469,5
31007,57460,5
31029,57462,5
31001,57462,5
30995,57452,4
31001,57450,5
31054,57442,6
30996,57438,4
30993,57438,5
30986,57433,4
31021,57429,5
30986,57434,5
30981,57433,5
30980,57425,4
30993,57428,4
30978,57434,5
30989,57426,5
30990,57434,5
30989,57414,4
30991,57440,5
30991,57440,5
30986,57437,5
30995,57394,5
30992,57434,5
30995,57439,4
30992,57445,5
30988,57387,5
30985,57433,5
30977,57424,4
30979,57418,5
30982,57444,5
30981,57419,6
30983,57425,4
30983,57437,4
30987,57483,5
30991,57433,5
30987,57424,5
30997,57432,5
30979,57490,4
30986,57431,5
30990,57433,5
30981,57428,5
30990,57450,4
30986,57438,4
30987,57434,5
30984,57436,5
30993,57432,5
30987,57433,4
30987,57431,5
30986,57428,5
30986,57431,5
30992,57425,5
30991,57427,5
30988,57429,4
30986,57430,5
30979,57426,5
30989,57431,6
30984,57424,3
30979,57436,5
30984,57431,5
30988,57430,5
30984,57420,5
30992,57427,4
30979,57411,5
30974,57417,5
30980,57427,5
30974,57423,4
30974,57412,4
30979,57413,5
30967,57421,5
30983,57415,5
30982,57420,4
30975,57412,5
30977,57405,5
30972,57414,5
30980,57413,5
30973,57404,4
30974,57416,6
30973,57419,4
30987,57416,5
30986,57415,5
30983,57423,6
30981,57420,3
30989,57420,5
30979,57420,5
30987,57426,5
30989,57437,4
30987,57424,5
30982,57435,5
30988,57440,5
30989,57429,5
30992,57432,4
30989,57429,5
30990,57441,5
30986,57439,5
30998,57435,4
30985,57436,4
30993,57439,5
30996,57435,5
30993,57428,5
30991,57426,4
30986,57434,5
30996,57435,6
30984,57421,4
30982,57423,5
30983,57432,4
30986,57419,5
30984,57425,5
30988,57424,5
30985,57417,5
30974,57410,4
30985,57413,5
30976,57404,5
30970,57398,5
30966,57401,5
30969,57396,4
30967,57392,5
30966,57392,5
30965,57394,5
30959,57389,5
30969,57397,4
30961,57403,5
30966,57393,5
30958,57394,5
30964,57406,4
30973,57396,5
30962,57405,5
30924,57396,6
30970,57391,4
30974,57388,4
30962,57381,5
30907,57380,5
30961,57384,5
30956,57392,5
30965,57381,4
30946,57393,5
30959,57388,5
30959,57391,5
30957,57384,5
30991,57390,4
30963,57381,5
30955,57390,5
30957,57385,5
31024,57383,5
30961,57385,4
30965,57385,5
30968,57393,5
30996,57390,5
30965,57398,5
30964,57396,4
30961,57390,5
30976,57392,5
30978,57399,6
30963,57406,3
30966,57402,5
30980,57378,5
30975,57415,5
30975,57416,5
30985,57412,4
30979,57369,5
30978,57421,5
30984,57420,5
30977,57426,5
30977,57366,4
30979,57418,5
30977,57412,5
30969,57416,5
30971,57435,5
30978,57413,4
30977,57411,5
30974,57411,5
30982,57459,5
30973,57410,5
30971,57411,5
30968,57412,4
30982,57455,5
30973,57407,5
30972,57404,4
30966,57400,5
30972,57412,5
30969,57405,5
30975,57410,5
30969,57401,4
30972,57409,5
30970,57409,5
30975,57414,5
30975,57419,5
30978,57419,4
30975,57425,5
30981,57423,7
30988,57422,3
30983,57425,5
30981,57419,4
30980,57425,5
30983,57433,5
30974,57425,5
30988,57430,5
30985,57430,4
30990,57426,6
30987,57429,4
30987,57431,5
30983,57431,4
30981,57418,4
30979,57417,5
30984,57431,5
30983,57422,5
30976,57430,4
30979,57419,5
30979,57424,5
30983,57424,5
30979,57418,5
30984,57416,4
30977,57413,5
30976,57414,5
30983,57417,5
30973,57416,5
30976,57409,4
30984,57413,5
30976,57424,5
30982,57413,5
30982,57410,5
30984,57419,4
30982,57408,5
30978,57408,6
30985,57411,4
30975,57411,5
30976,57408,4
30963,57392,5
30964,57393,5
30962,57383,5
30968,57387,4
30960,57388,5
30958,57383,5
30967,57385,5
30964,57373,5
30969,57388,4
30956,57384,5
30967,57385,5
30960,57384,5
30965,57379,5
30953,57387,4
30966,57382,5
30966,57376,5
30964,57383,5
30959,57380,5
30961,57379,4
30966,57386,5
30964,57381,5
30967,57378,5
30967,57379,5
30957,57387,4
30965,57372,5
30955,57374,5
30965,57369,5
30962,57379,4
30960,57374,4
30953,57377,5
30965,57384,5
30967,57388,5
30971,57389,4
30949,57389,5
30963,57396,5
30973,57389,5
30969,57381,5
30923,57389,4
30963,57387,6
30960,57384,4
30958,57383,5
30907,57380,5
30966,57387,5
30959,57384,4
30962,57381,5
30961,57381,5
30963,57382,5
30963,57381,4
30963,57382,5
31009,57387,5
30959,57393,5
30963,57390,5
30970,57398,4
31025,57387,5
30969,57400,5
30961,57393,5
30971,57398,4
31000,57390,4
30969,57397,5
30967,57402,5
30972,57402,5
30974,57395,4
30968,57398,5
30975,57401,5
30976,57399,5
30976,57364,5
30967,57410,4
30975,57395,6
30975,57395,4
30970,57345,5
30976,57395,5
30968,57398,4
30973,57392,5
30970,57360,5
30970,57392,5
30966,57396,5
30973,57397,4
30971,57421,5
30962,57399,5
30975,57404,5
30970,57408,5
30974,57462,4
30974,57405,5
30977,57400,5
30981,57405,5
30983,57444,4
30972,57409,5
30977,57417,5
30979,57411,5
30981,57429,5
30981,57406,4
30979,57396,5
30973,57392,5
30970,57387,5
30972,57394,5
30970,57395,4
30967,57390,5
30968,57400,5
30971,57392,5
30971,57391,5
30959,57390,4
30966,57383,5
30959,57380,5
30964,57381,5
30963,57380,5
30963,57382,4
30966,57386,5
30965,57386,5
30967,57379,5
30968,57391,4
30962,57398,4
30976,57387,5
30972,57395,5
30966,57390,6
30960,57394,3
30970,57408,5
30967,57402,5
30964,57398,5
30965,57398,5
30967,57389,4
30963,57394,5
30970,57397,5
30962,57396,5
30961,57400,5
30977,57407,4
30972,57400,5
30977,57402,5
30977,57401,5
30978,57392,5
30974,57409,4
30981,57398,5
30972,57406,5
30963,57399,5
30968,57399,5
30968,57405,5
30971,57408,4
30972,57410,5
30982,57414,5
30968,57415,6
30985,57421,3
30976,57418,5
30985,57418,5
30980,57423,5
30986,57424,4
30977,57433,5
30979,57425,5
30984,57420,5
30989,57420,5
30993,57426,4
30987,57437,5
30986,57433,5
30995,57440,5
30982,57436,5
30987,57444,4
30994,57444,5
30987,57444,5
30998,57441,5
30992,57439,5
30997,57449,4
30997,57443,6
30994,57438,4
30994,57446,5
30992,57452,5
30996,57453,6
30997,57449,3
30995,57448,5
30995,57441,5
31004,57450,4
30997,57458,5
31002,57464,5
30987,57458,5
31011,57465,5
31014,57470,4
31003,57464,5
30967,57457,5
31003,57460,5
31005,57457,5
31008,57453,4
30954,57457,5
30991,57447,5
30999,57453,5
30997,57436,5
30974,57434,4
30994,57433,5
30989,57427,6
30988,57421,4
31023,57431,5
30984,57429,4
30987,57419,5
30987,57439,5
31047,57428,5
30986,57441,4
30984,57424,4
30993,57435,5
31017,57440,5
30998,57438,5
30988,57441,4
30996,57443,5
31004,57454,5
31000,57459,5
31004,57459,5
30997,57449,4
30994,57419,5
30997,57440,5
30998,57439,5
30994,57450,5
30991,57393,4
30990,57437,5
30995,57431,5
30995,57440,6
30987,57391,4
30998,57439,5
30993,57442,4
30993,57438,5
30997,57463,5
30988,57438,5
30987,57444,4
30993,57439,5
30981,57490,5
30994,57435,5
30984,57433,4
30984,57437,4
30984,57486,5
30988,57440,5
30986,57440,5
30978,57423,4
30987,57447,5
30981,57432,5
30979,57441,5
30979,57433,5
30983,57443,5
30984,57431,4
30981,57431,5
30987,57436,5
30986,57437,6
30998,57435,3
30992,57445,5
30995,57454,5
30991,57441,5
30991,57441,5
30993,57441,4
30986,57431,5
30996,57436,5
30978,57425,5
30988,57427,5
30982,57423,4
30993,57427,5
30977,57428,5
30978,57422,5
30977,57416,4
30975,57416,4
30974,57424,5
30977,57410,5
30974,57406,5
30980,57410,4
30971,57414,6
30977,57422,4
30979,57421,5
30981,57427,5
30983,57429,4
30975,57416,5
30981,57426,5
30979,57421,5
30982,57429,5
30982,57431,4
30986,57426,5
30981,57426,5
30984,57420,5
30972,57426,5
30991,57429,4
30985,57431,5
30979,57427,5
30977,57425,5
30982,57419,4
30982,57422,4
30978,57422,5
30978,57415,5
30980,57431,5
30977,57427,4
30981,57423,5
30985,57427,6
30991,57433,4
30986,57433,5
30984,57437,4
30991,57430,5
30986,57433,5
30983,57424,5
30987,57423,5
30989,57419,4
30981,57430,5
30982,57414,5
30976,57420,5
30971,57409,5
30970,57410,4
30967,57412,5
30977,57411,5
30968,57410,5
30980,57408,5
30977,57409,4
30970,57405,5
30974,57404,5
30976,57407,5
30959,57408,4
30964,57396,4
30967,57409,5
30979,57410,6
30968,57413,4
30971,57418,4
30973,57420,5
30979,57423,5
30979,57423,5
30938,57424,5
30972,57423,4
30980,57425,5
30975,57420,5
30920,57415,5
30974,57404,5
30980,57405,4
30971,57410,5
30940,57412,5
30969,57410,5
30972,57402,5
30964,57412,4
30997,57397,5
30963,57403,5
30972,57413,5
30966,57405,5
31040,57399,4
30974,57397,5
30973,57405,5
30965,57401,5
31003,57395,4
30955,57395,4
30959,57387,5
30969,57402,5
30967,57396,5
30963,57394,4
30957,57389,5
30962,57399,5
30962,57376,5
30966,57390,5
30959,57392,4
30961,57394,5
30961,57341,5
30959,57398,5
30955,57389,5
30951,57387,4
30961,57338,5
30965,57410,5
30967,57389,5
30957,57396,5
30956,57397,5
30962,57384,4
30955,57394,5
30957,57383,5
30960,57442,4
30962,57400,4
30959,57390,5
30962,57385,5
30956,57443,5
30950,57372,4
30949,57378,5
30946,57379,5
30950,57403,5
30953,57394,5
30960,57396,4
30960,57405,5
30969,57423,5
30982,57426,5
30981,57445,5
30994,57463,4
30998,57471,5
31003,57485,5
31005,57495,5
31018,57489,5
31018,57507,4
31020,57502,7
31026,57519,3
31020,57513,5
31030,57516,9
31030,57516,5
31034,57520,5
31035,57525,5
31036,57522,4
31022,57531,4
31035,57516,5
31036,57541,5
31041,57543,5
31038,57545,4
31050,57550,5
31048,57551,5
31055,57550,5
31054,57562,5
31051,57559,4
31054,57555,5
31050,57555,5
31047,57556,5
31054,57561,5
31049,57561,4
31048,57558,5
31053,57546,6
31052,57560,4
31047,57554,5
31055,57562,4
31056,57564,5
31053,57552,5
31057,57558,5
31050,57553,5
31038,57545,4
31050,57550,5
31041,57560,5
31058,57561,5
31050,57564,4
31049,57569,4
31060,57569,5
31062,57568,5
31062,57575,5
31067,57582,4
31067,57575,5
31069,57581,5
31067,57583,5
31070,57565,5
31051,57572,4
31059,57568,5
31051,57563,5
31057,57566,5
31056,57567,5
31059,57564,4
31057,57558,5
31053,57564,5
31069,57560,5
31064,57562,5
31057,57555,4
31054,57553,5
31047,57563,5
31057,57567,5
31059,57559,5
31057,57563,4
31057,57565,5
31054,57566,5
31054,57565,5
31055,57549,4
31061,57564,5
31048,57567,5
31052,57555,5
31018,57567,5
31046,57557,5
31050,57554,4
31059,57548,5
31011,57560,5
31054,57555,5
31053,57557,4
31051,57562,5
31007,57552,5
31048,57562,5
31052,57560,5
31056,57561,4
31074,57565,5
31047,57555,5
31052,57552,5
31050,57554,5
31101,57551,4
31049,57539,5
31042,57546,5
31040,57549,5
31095,57545,4
31054,57545,4
31046,57551,6
31047,57552,4
31058,57545,5
31042,57537,4
31046,57545,7
31050,57537,3
31042,57527,5
31035,57527,5
31034,57533,4
31037,57539,5
31044,57512,5
31037,57545,5
31041,57544,5
31055,57552,4
31042,57494,5
31054,57553,5
31051,57559,5
31050,57554,5
31039,57545,4
31046,57559,5
31043,57550,5
31052,57559,5
31044,57600,5
31045,57556,4
31046,57551,5
31057,57558,6
31046,57627,4
31049,57564,4
31042,57552,4
31053,57547,5
31053,57589,5
31047,57548,5
31050,57549,4
31043,57553,5
31046,57558,5
31042,57547,5
31047,57545,5
31045,57540,4
31045,57553,5
31046,57537,5
31047,57544,5
31040,57541,5
31044,57545,4
31037,57548,5
31046,57549,5
31036,57551,5
31044,57540,5
31044,57541,4
31040,57533,5
31030,57537,5
31037,57526,6
31035,57524,4
31028,57525,4
31026,57512,5
31027,57507,5
31022,57501,5
31032,57502,4
31027,57500,5
31022,57501,5
31019,57502,5
31022,57500,5
31016,57502,4
31018,57500,5
31013,57496,5
31022,57501,5
31027,57513,5
31020,57529,4
31025,57512,5
31031,57523,5
31025,57521,5
31028,57527,5
31033,57532,5
31039,57534,4
31047,57541,5
31042,57537,5
31029,57523,6
31029,57520,3
31032,57514,5
31023,57518,5
31023,57503,5
31025,57505,4
31016,57515,4
31022,57523,5
31021,57512,5
31024,57510,5
31029,57515,4
31030,57507,5
31028,57508,5
31023,57517,5
31026,57513,5
31024,57517,4
31024,57504,5
31019,57509,5
31033,57503,5
31029,57516,5
31029,57513,4
31019,57505,6
31021,57507,4
31021,57514,5
31028,57509,5
31021,57511,4
31027,57518,5
31031,57521,5
31032,57519,5
31029,57523,5
31031,57506,4
31031,57520,5
31035,57528,5
31034,57527,5
31033,57535,4
31028,57522,4
31035,57524,5
31028,57512,5
31020,57516,5
31027,57513,4
31007,57520,5
31024,57521,5
31031,57507,5
31025,57511,5
30982,57507,4
31027,57504,5
31029,57499,6
31023,57498,4
30969,57496,5
31023,57498,4
31022,57496,5
31016,57504,5
31027,57496,5
31027,57505,5
31017,57499,4
31022,57513,5
31066,57505,5
31030,57508,5
31031,57511,5
31025,57516,4
31089,57508,5
31023,57515,5
31027,57511,5
31036,57525,4
31053,57519,4
31034,57513,5
31037,57518,5
31035,57520,5
31039,57502,4
31028,57511,5
31029,57517,5
31036,57513,6
31024,57487,4
31030,57516,4
31027,57518,5
31022,57518,5
31032,57465,5
31036,57511,5
31027,57515,4
31026,57518,5
31037,57478,5
31037,57512,5
31029,57519,5
31034,57513,4
31024,57546,5
31028,57512,5
31023,57504,5
31039,57509,5
31038,57561,4
31027,57500,5
31022,57487,5
31013,57490,5
31015,57525,5
31011,57481,4
31011,57480,5
31013,57469,5
31000,57476,6
31009,57467,3
31008,57469,5
31007,57468,5
31005,57462,5
31006,57471,5
31007,57472,4
31010,57484,5
31014,57475,5
31017,57483,5
31012,57488,5
31020,57490,4
31017,57492,5
31022,57490,5
31022,57488,5
31019,57489,5
31011,57487,4
31014,57486,5
31009,57480,5
31010,57477,5
31006,57472,5
31011,57468,5
31006,57473,4
31010,57476,5
31002,57467,5
31011,57474,4
31017,57478,5
31010,57472,5
31015,57476,5
31005,57476,5
31008,57477,4
31008,57472,5
31005,57479,5
31019,57475,5
31011,57478,5
31024,57482,4
31016,57479,5
31009,57487,5
31022,57477,5
31007,57481,5
31018,57481,4
31015,57483,5
31010,57484,5
31018,57475,5
31010,57487,5
31027,57483,4
31009,57484,6
31021,57482,4
31013,57484,5
31018,57487,4
31012,57488,4
31010,57486,5
31005,57476,5
31009,57479,5
31005,57478,4
31014,57471,5
31017,57473,5
31008,57472,5
31016,57470,5
31013,57477,4
31010,57480,5
31015,57478,5
31009,57483,5
31011,57474,5
31004,57472,4
31001,57483,5
31003,57477,5
31012,57467,5
31013,57461,5
31015,57474,4
31012,57479,5
31014,57485,6
31016,57474,4
31012,57491,5
31021,57486,4
31016,57485,5
31011,57485,5
31017,57484,5
31013,57484,4
31014,57483,4
31014,57480,5
31006,57480,5
31021,57476,5
31012,57478,4
31016,57478,5
30972,57483,5
31016,57487,5
31020,57481,5
31015,57483,5
30964,57487,4
31017,57496,5
31016,57491,5
31019,57494,5
31010,57484,4
31015,57486,5
31023,57486,5
31021,57481,5
31056,57477,5
31016,57472,4
31013,57477,5
31017,57471,5
31075,57476,5
31008,57463,5
31005,57470,4
31010,57461,5
31043,57464,5
31004,57466,5
31011,57474,4
31005,57465,4
31017,57465,5
31003,57463,5
31005,57467,5
31021,57481,4
31012,57446,5
31009,57472,5
31012,57482,5
31015,57482,5
31014,57432,5
31011,57480,4
31010,57479,5
31014,57462,5
31001,57410,5
31004,57468,4
31003,57455,5
31008,57453,5
30998,57475,5
31004,57456,5
31006,57468,4
30995,57458,5
30998,57494,5
30995,57461,5
31003,57455,5
30995,57442,4
30999,57504,5
30995,57448,5
31003,57451,5
30995,57447,4
30999,57460,4
30998,57450,5
30994,57438,5
30987,57442,5
30996,57441,4
30997,57437,6
30995,57438,4
30994,57427,5
30995,57432,5
30983,57434,4
30983,57430,5
30983,57427,5
30977,57416,5
30976,57411,5
30973,57413,4
30982,57419,5
30982,57420,5
30977,57419,5
30982,57419,5
30982,57429,4
30969,57419,5
30978,57417,7
30978,57413,3
30976,57403,4
30973,57413,4
30972,57411,5
30972,57413,5
30973,57419,5
30976,57422,4
30976,57427,5
30980,57436,6
30979,57425,4
30981,57431,5
30985,57432,4
30986,57438,5
30989,57437,5
30986,57448,5
30991,57437,5
30989,57442,4
30985,57442,5
30992,57440,5
30991,57436,5
30986,57448,5
30983,57446,4
30986,57443,5
30990,57453,5
30985,57441,5
30993,57444,5
30992,57437,4
30990,57440,5
30986,57435,5
30992,57448,6
30987,57450,3
30993,57450,4
30998,57453,5
31003,57452,5
30993,57452,5
31003,57453,4
30999,57459,5
31004,57464,5
30995,57463,5
30998,57462,5
31000,57458,4
30993,57454,5
30998,57449,5
30996,57455,5
30989,57453,5
30996,57442,4
30995,57451,5
30980,57441,5
30994,57435,5
30985,57434,5
30990,57438,5
30985,57436,4
30983,57437,5
30992,57438,5
30986,57440,6
30987,57441,3
30994,57445,5
30984,57442,5
30997,57454,5
30995,57451,4
30992,57447,4
30987,57438,5
30986,57430,5
30945,57438,5
30991,57434,4
30981,57427,5
30984,57421,5
30929,57428,5
30990,57432,5
30988,57423,4
30979,57427,5
30947,57430,5
30986,57430,5
30981,57431,5
30983,57426,4
31012,57425,6
30981,57427,4
30987,57430,5
30981,57424,5
31034,57428,6
30978,57427,3
30975,57422,5
30981,57423,5
31014,57426,5
30982,57430,4
30990,57430,5
30986,57426,5
30994,57420,5
30974,57415,4
30968,57411,5
30957,57411,5
30970,57390,5
30965,57404,5
30970,57392,4
30968,57394,5
30964,57337,5
30956,57379,5
30952,57384,5
30958,57392,4
30961,57331,4
30962,57394,6
30961,57391,4
30969,57395,5
30958,57394,4
30969,57399,5
30969,57391,5
30969,57394,5
30966,57448,5
30959,57393,4
30957,57391,5
30957,57393,5
30958,57449,5
30961,57384,4
30964,57391,4
30962,57400,5
30974,57418,5
30981,57398,5
30970,57399,4
30966,57398,5
30975,57412,5
30978,57418,5
30982,57407,5
30971,57418,4
30981,57416,5
30977,57410,5
30968,57412,6
30979,57408,4
30975,57408,4
30967,57402,5
30964,57401,5
30972,57406,5
30974,57402,5
30969,57417,4
30970,57405,5
30968,57418,5
30976,57414,5
30979,57413,5
30971,57408,4
30974,57407,5
30966,57411,5
30969,57411,5
30972,57417,4
30969,57424,4
30967,57414,5
30973,57414,5
30979,57410,5
30976,57419,5
30977,57414,4
30977,57416,5
30983,57413,5
30986,57416,6
30974,57426,3
30979,57428,5
30981,57426,5
30978,57425,5
30980,57412,5
30974,57424,4
30983,57414,5
30975,57405,5
30975,57409,5
30967,57408,5
30971,57406,4
30972,57412,5
30982,57406,5
30970,57407,5
30976,57422,5
30975,57417,4
30973,57419,5
30967,57414,5
30974,57412,5
30979,57415,4
30977,57411,5
30971,57413,4
30973,57417,5
30969,57426,5
30973,57425,4
30982,57418,5
30984,57426,5
30974,57415,5
30975,57427,5
30981,57417,4
30979,57432,5
30984,57425,5
30981,57439,5
30991,57433,5
30995,57441,4
30994,57446,5
30985,57455,5
30992,57457,5
31000,57455,5
30998,57454,4
31004,57458,5
31004,57453,5
30999,57454,5
30996,57450,5
31000,57454,4
31005,57469,6
30999,57462,4
30991,57465,5
31005,57478,4
30986,57471,4
31011,57481,5
31009,57490,5
31023,57486,5
30970,57485,4
31018,57497,5
31021,57505,5
31026,57504,5
30974,57508,5
31025,57510,4
31026,57504,5
31027,57506,5
31037,57509,5
31028,57506,5
31030,57517,4
31027,57517,5
31080,57521,5
31034,57520,5
31032,57523,5
31040,57533,4
31082,57524,5
31036,57517,6
31021,57517,4
31026,57515,5
31044,57516,4
31030,57514,5
31031,57510,5
31027,57506,5
31022,57499,4
31024,57498,4
31019,57502,5
31021,57498,5
31017,57462,5
31015,57482,4
31011,57491,5
31014,57496,5
31026,57436,5
31004,57490,5
31011,57492,4
31014,57485,5
31010,57469,5
31014,57491,5
31017,57491,5
31017,57496,4
31023,57527,5
31016,57489,5
31013,57486,6
31013,57491,4
31018,57555,4
31021,57498,5
31016,57489,5
31017,57483,5
31003,57520,5
31003,57470,4
31006,57464,5
30999,57471,5
31011,57488,5
31008,57479,4
31004,57476,4
31013,57476,5
31010,57476,5
31007,57472,5
31013,57485,4
31011,57483,5
31009,57487,5
31012,57483,5
30999,57474,5
31015,57477,5
31012,57475,4
31008,57471,5
31012,57474,5
31009,57481,5
31012,57476,4
31006,57475,5
31004,57478,5
31011,57473,5
31006,57480,5
31002,57467,4
31005,57479,5
31005,57480,5
31010,57482,5
31004,57477,5
31008,57488,4
31010,57490,5
31014,57494,5
31016,57492,5
31017,57490,4
31016,57493,4
31002,57485,5
31014,57481,5
31016,57483,5
31010,57489,4
31015,57483,6
31014,57491,4
31017,57488,5
31020,57507,5
31011,57493,4
31015,57498,5
31021,57495,5
31019,57500,5
31017,57496,5
31014,57494,4
31015,57497,5
31012,57483,5
31014,57499,5
31010,57495,5
31008,57490,4
31016,57484,5
30998,57486,5
31011,57483,5
31005,57485,5
31009,57486,4
31007,57484,5
31010,57482,5
31001,57481,5
31001,57479,4
31005,57476,5
31001,57465,6
30998,57470,4
31008,57476,5
31007,57476,4
31002,57475,5
31015,57475,5
31009,57472,5
31007,57477,5
31005,57477,4
31010,57474,5
31003,57472,5
31008,57470,5
31013,57472,5
31008,57485,4
31001,57474,5
31005,57470,5
31005,57473,5
30999,57468,5
31008,57477,4
30995,57466,5
30983,57451,5
31002,57455,5
30997,57448,5
30988,57442,4
30947,57441,5
30992,57444,5
30980,57447,5
30984,57430,4
30939,57433,5
30986,57428,5
30986,57435,5
30986,57436,5
30969,57432,4
30986,57433,5
30978,57435,5
30981,57438,5
31022,57444,5
30988,57439,4
30990,57444,5
30991,57443,5
31050,57437,5
30992,57452,5
30985,57433,4
30979,57424,5
31011,57426,5
30985,57420,5
30972,57419,5
30983,57423,4
30981,57432,5
30985,57423,5
30976,57425,5
30968,57422,4
30986,57383,4
30972,57421,5
30970,57413,5
30969,57403,5
30958,57349,4
30960,57393,5
30966,57395,5
30964,57396,5
30964,57344,5
30962,57397,4
30958,57389,5
30965,57399,5
30961,57418,5
30955,57394,5
30957,57398,4
30967,57393,6
30953,57443,4
30960,57385,5
30951,57393,5
30953,57380,6
30955,57442,3
30963,57382,5
30958,57387,5
30948,57383,5
30954,57404,4
30946,57383,5
30954,57377,5
30954,57378,5
30954,57379,4
30954,57384,4
30961,57378,5
30949,57381,5
30957,57381,5
30948,57378,4
30951,57377,5
30954,57376,5
30948,57369,5
30951,57366,5
30948,57369,4
30949,57368,5
30952,57372,6
30953,57379,4
30950,57381,5
30946,57374,4
30957,57372,5
30949,57378,5
30956,57378,5
30948,57378,9
30942,57382,5
30953,57379,5
30948,57381,5
30954,57385,5
30957,57381,4
30955,57373,5
30955,57382,5
30966,57383,5
30951,57389,4
30954,57383,4
30953,57384,5
30966,57385,5
30960,57384,5
30955,57389,4
30961,57386,5
30962,57384,5
30959,57397,6
30952,57384,4
30955,57392,4
30961,57392,5
30962,57398,5
30957,57397,5
30962,57397,5
30958,57389,4
30960,57392,5
30960,57397,5
30965,57387,5
30960,57390,5
30967,57396,4
30962,57381,5
30954,57382,5
30946,57375,5
30942,57374,5
30960,57370,4
30951,57374,5
30944,57367,5
30940,57372,5
30953,57359,5
30939,57352,4
30939,57355,5
30931,57355,5
30928,57347,6
30933,57334,3
30924,57338,5
30929,57340,5
30929,57341,5
30936,57345,5
30921,57346,4
30936,57355,5
30938,57355,5
30940,57369,5
30942,57379,5
30953,57387,4
30957,57386,5
30955,57389,5
30961,57397,5
30960,57402,5
30959,57397,4
30970,57405,5
30963,57410,5
30961,57385,5
30918,57380,4
30951,57380,5
30949,57375,4
30943,57374,5
30902,57376,5
30959,57376,6
30951,57370,3
30944,57384,5
30918,57391,5
30948,57392,5
30953,57387,4
30948,57391,5
30979,57398,5
30952,57385,5
30950,57388,5
30945,57381,4
31006,57379,5
30952,57384,5
30954,57384,5
30951,57379,5
30987,57377,4
30949,57380,5
30947,57377,5
30948,57384,5
30967,57392,5
30944,57391,4
30960,57395,6
30957,57403,4
30957,57379,5
30964,57400,4
30962,57407,4
30954,57393,5
30969,57356,5
30962,57400,5
30961,57401,5
30957,57396,4
30952,57350,5
30949,57390,5
30958,57391,5
30953,57397,4
30956,57393,5
30958,57395,5
30949,57394,5
30948,57392,5
30959,57431,4
30954,57393,5
30957,57381,5
30956,57398,5
30957,57456,5
30960,57398,4
30953,57399,5
30952,57401,6
30955,57426,4
30962,57401,5
30964,57403,4
30969,57406,5
30960,57417,5
30965,57408,5
30969,57421,4
30972,57414,4
30973,57427,5
30978,57428,5
30976,57432,5
30981,57429,4
30989,57438,5
30985,57448,5
30990,57443,5
30989,57455,5
30983,57449,4
30990,57458,5
30988,57452,5
30991,57449,5
30984,57447,5
30982,57461,4
30986,57448,5
30993,57451,5
30987,57454,6
30993,57461,4
30999,57458,4
30999,57462,5
30989,57453,5
30989,57461,5
30989,57453,5
30996,57464,4
30992,57455,5
30988,57452,5
30994,57452,5
30987,57450,4
30997,57454,5
30993,57447,5
30995,57448,5
30984,57449,5
30984,57443,4
30991,57442,5
30987,57450,5
30995,57448,5
30992,57448,5
30988,57449,5
30989,57457,4
30988,57460,5
30996,57451,5
30985,57454,5
30983,57457,4
30986,57450,5
30994,57459,5
30997,57456,5
30990,57463,5
30990,57452,4
30987,57448,5
30984,57433,5
30980,57442,5
30984,57426,4
30976,57438,4
30972,57435,5
30973,57436,5
30981,57432,5
30977,57430,4
30971,57436,5
30979,57431,5
30978,57422,5
30974,57428,5
30975,57419,4
30978,57427,6
30976,57423,4
30977,57430,5
30977,57421,5
30978,57423,4
30968,57412,5
30973,57414,5
30967,57422,5
30970,57418,5
30966,57424,4
30972,57420,5
30968,57420,5
30969,57412,5
30972,57416,5
30967,57408,4
30929,57408,5
30966,57412,5
30967,57416,5
30966,57410,4
30913,57414,4
30954,57408,5
30962,57393,5
30953,57395,5
30907,57386,4
30955,57394,5
30954,57391,6
30954,57384,4
30970,57391,5
30951,57390,4
30951,57402,5
30950,57399,5
31007,57393,5
30953,57402,5
30955,57398,4
30952,57401,5
31007,57400,5
30960,57401,5
30958,57394,5
30957,57402,4
30975,57416,5
30965,57402,5
30968,57416,5
30964,57418,5
30969,57399,4
30976,57432,5
30975,57427,5
30965,57431,5
30976,57387,4
30980,57453,5
30987,57449,5
30993,57454,5
30990,57405,5
30992,57476,4
30998,57477,5
30998,57465,5
31002,57482,5
31003,57489,5
31015,57485,4
31017,57503,5
31013,57543,5
31020,57503,5
31023,57517,5
31026,57515,4
31022,57573,5
31032,57522,5
31032,57524,5
31033,57522,5
31038,57553,4
31037,57536,5
31038,57541,5
31045,57540,5
31039,57551,5
31034,57545,4
31039,57545,5
31036,57543,5
31040,57542,5
31032,57539,4
31037,57539,5
31044,57536,5
31037,57546,5
31032,57548,5
31030,57540,4
31045,57545,5
31030,57530,5
31037,57544,5
31028,57529,5
31037,57537,4
31031,57533,5
31034,57536,5
31039,57531,5
31033,57533,5
31038,57529,4
31034,57528,5
31029,57530,5
31036,57537,5
31029,57535,5
31033,57532,5
31040,57546,4
31034,57545,5
31046,57542,5
31048,57563,4
31047,57554,4
31055,57562,5
31043,57559,5
31043,57564,5
31053,57560,4
31043,57558,5
31046,57548,5
31036,57548,5
31049,57544,5
31035,57545,4
31037,57542,5
31036,57546,5
31033,57538,5
31042,57546,5
31038,57541,4
31032,57539,5
31039,57541,5
31027,57538,5
31028,57526,5
31029,57523,4
31027,57531,6
31027,57530,3
31021,57518,5
31014,57520,5
31020,57508,4
31016,57505,5
31023,57514,5
31017,57500,5
31023,57507,4
31015,57497,4
31008,57479,5
31002,57472,5
30999,57465,5
30992,57458,4
30985,57455,5
30997,57462,5
30996,57466,5
30991,57461,5
30995,57468,4
30993,57470,5
31008,57477,5
31000,57465,6
30995,57471,4
31001,57482,4
30998,57475,5
31010,57486,5
31001,57485,5
31006,57479,5
31001,57474,4
30991,57466,5
30987,57453,5
30950,57451,5
30983,57440,4
30983,57449,4
30990,57453,5
30940,57457,5
30991,57457,5
30989,57462,4
30988,57463,5
30951,57457,5
30990,57466,5
30995,57468,5
30998,57476,5
31040,57486,4
31008,57495,5
31017,57519,5
31015,57498,6
31068,57510,3
31029,57534,5
31044,57563,5
31042,57571,5
31098,57576,5
31064,57586,4
31060,57594,5
31070,57614,5
31098,57640,5
31103,57668,5
31112,57705,4
31133,57725,5
31149,57720,5
31132,57737,5
31133,57740,4
31140,57727,4
31135,57690,5
31145,57742,5
31154,57761,5
31151,57776,4
31160,57710,6
31152,57769,4
31169,57784,5
31162,57778,5
31165,57781,6
31166,57780,3
31159,57763,5
31159,57757,5
31161,57794,5
31150,57744,4
31139,57730,5
31134,57714,5
31120,57759,5
31124,57687,5
31122,57689,4
31110,57686,5
31116,57702,5
31107,57668,5
31105,57664,5
31104,57660,4
31101,57653,5
31091,57630,5
31077,57596,5
31065,57585,4
31054,57563,4
31042,57540,6
31042,57544,4
31024,57523,5
31024,57515,4
31024,57507,5
31016,57500,5
31021,57503,5
31020,57495,5
31004,57483,4
31009,57479,5
31001,57472,5
31003,57466,5
30988,57466,5
30993,57456,4
30996,57456,5
30993,57445,5
30979,57437,5
30988,57443,5
30985,57435,4
30983,57439,5
30980,57438,7
30984,57431,3
30986,57430,4
30977,57426,4
30981,57419,5
30981,57427,6
30981,57427,4
30976,57418,4
30974,57424,5
30981,57433,5
30980,57419,5
30985,57425,5
30977,57422,4
30980,57415,5
30969,57427,5
30975,57427,5
30978,57422,5
30976,57420,4
30966,57413,5
30973,57416,5
30968,57408,5
30971,57415,5
30976,57417,4
30972,57417,5
30975,57411,5
30963,57424,5
30973,57423,5
30968,57418,4
30974,57418,5
30975,57424,5
30970,57411,6
30979,57414,3
30966,57417,4
30971,57410,5
30971,57421,5
30970,57415,5
30980,57409,4
30968,57411,5
30971,57413,5
30985,57412,5
30970,57415,5
30975,57415,4
30970,57415,5
30977,57413,5
30965,57414,5
30971,57423,5
30977,57413,4
30974,57412,5
30965,57413,5
30968,57413,5
30973,57405,5
30972,57400,5
30963,57405,4
30968,57412,5
30961,57401,5
30970,57394,5
30939,57401,4
30970,57394,5
30969,57394,5
30965,57398,5
30912,57397,4
30959,57399,4
30964,57390,5
30966,57389,5
30922,57397,5
30958,57395,4
30964,57387,5
30966,57398,5
30981,57385,5
30960,57381,5
30968,57401,4
30963,57399,5
31012,57394,5
30967,57392,5
30961,57389,5
30958,57377,4
31001,57380,6
30952,57371,4
30947,57366,5
30955,57373,5
30968,57366,4
30956,57384,5
30950,57378,5
30952,57377,5
30953,57363,5
30952,57359,4
30941,57367,5
30946,57363,5
30939,57327,5
30947,57353,4
30948,57356,5
30942,57364,5
30947,57307,5
30942,57356,5
30941,57349,5
30942,57363,4
30944,57343,5
30944,57360,5
30943,57362,5
30935,57357,4
30937,57386,5
30943,57350,6
30938,57345,4
30949,57345,5
30925,57408,4
30943,57345,5
30938,57356,5
30944,57357,5
30935,57379,5
30938,57346,4
30937,57353,5
30937,57357,5
30944,57365,5
30943,57353,4
30945,57356,4
30942,57355,5
30942,57358,5
30945,57346,5
30937,57355,4
30947,57360,5
30944,57347,5
30941,57356,5
30938,57350,5
30943,57353,4
30940,57355,5
30947,57346,5
30946,57355,6
30941,57357,4
30948,57348,4
30937,57353,5
30945,57356,5
30948,57356,5
30941,57360,5
30948,57358,4
30952,57353,5
30943,57350,5
30936,57354,5
30940,57354,5
30935,57354,4
30947,57351,5
30944,57361,5
30941,57356,5
30937,57363,4
30944,57362,4
30951,57356,5
30948,57362,5
30937,57356,5
30938,57362,5
30947,57353,4
30947,57359,5
30945,57358,5
30942,57362,5
30946,57356,4
30945,57355,5
30936,57350,5
30948,57351,5
30943,57349,5
30943,57357,4
30940,57348,5
30939,57344,5
30934,57345,5
30931,57346,5
30928,57343,4
30926,57331,5
30938,57333,5
30938,57332,5
30925,57327,5
30925,57321,4
30925,57312,5
30914,57307,5
30910,57303,5
30918,57313,4
30916,57317,5
30916,57316,4
30923,57326,5
30929,57330,5
30921,57332,4
30925,57332,5
30930,57336,5
30925,57333,5
30929,57339,5
30927,57343,4
30928,57351,5
30947,57370,5
30956,57400,5
30956,57423,5
30980,57435,4
30989,57454,5
30986,57457,5
30993,57466,5
30991,57472,5
30996,57475,4
31001,57484,5
30995,57499,5
31023,57511,5
31031,57527,5
31033,57549,4
31001,57566,6
31068,57608,4
31078,57631,5
31090,57655,4
31050,57651,5
31095,57654,5
31105,57650,5
31102,57660,5
31108,57673,4
31109,57701,5
31142,57713,5
31140,57729,5
31174,57736,5
31143,57740,4
31146,57739,5
31145,57732,5
31191,57719,5
31134,57718,5
31133,57722,4
31136,57732,5
31178,57742,5
31166,57757,5
31151,57757,5
31158,57757,4
31150,57746,5
31140,57718,5
31131,57712,5
31128,57723,4
31133,57681,4
31134,57718,5
31138,57723,5
31143,57730,5
31146,57682,4
31138,57725,5
31138,57716,5
31139,57712,5
31132,57678,5
31129,57721,4
31129,57714,6
31124,57696,4
31121,57721,5
31117,57692,5
31124,57716,4
31136,57723,4
31140,57777,5
31139,57727,5
31137,57717,6
31121,57705,3
31131,57748,5
31136,57721,5
31135,57744,5
31144,57761,5
31155,57771,4
31158,57777,5
31160,57776,5
31157,57772,5
31166,57783,4
31162,57768,4
31155,57778,5
31172,57803,5
31187,57818,5
31197,57846,4
31196,57840,5
31199,57852,5
31206,57846,5
31190,57825,5
31178,57813,4
31183,57808,6
31191,57803,4
31186,57810,5
31181,57804,5
31181,57814,6
31177,57810,3
31178,57798,5
31172,57780,5
31160,57765,5
31159,57752,4
31149,57745,5
31141,57725,5
31137,57725,5
31129,57721,5
31142,57718,4
31136,57717,5
31127,57706,5
31122,57697,5
31123,57689,4
31116,57677,4
31105,57668,5
31102,57649,5
31085,57627,5
31074,57598,4
31068,57593,5
31069,57596,6
31064,57592,4
31064,57575,5
31063,57569,4
31045,57560,5
31056,57567,5
31057,57567,5
31048,57566,5
31055,57565,4
31045,57564,5
31047,57553,5
31046,57544,5
31040,57534,5
31025,57512,4
31020,57510,5
31022,57499,5
31004,57486,5
30999,57479,4
30995,57475,4
31001,57467,5
30992,57459,5
30983,57442,5
30988,57442,4
30978,57435,5
30964,57419,5
30968,57421,6
30965,57417,4
30965,57419,4
30961,57409,5
30962,57404,5
30966,57403,5
30964,57393,5
30948,57384,4
30952,57376,5
30936,57341,5
30922,57326,5
30917,57318,5
30905,57309,4
30895,57294,5
30904,57287,5
30897,57286,5
30879,57258,5
30878,57246,4
30863,57234,5
30863,57213,5
30818,57208,5
30854,57202,5
30849,57200,4
30863,57198,5
30809,57205,5
30857,57202,6
30863,57208,3
30852,57205,5
30836,57209,5
30861,57205,5
30861,57207,5
30844,57188,4
30880,57181,5
30836,57164,5
30821,57144,5
30818,57142,5
30875,57119,4
30815,57126,5
30811,57124,5
30818,57132,5
30845,57121,5
30811,57123,4
30816,57125,5
30822,57131,5
30826,57135,5
30817,57137,5
30816,57139,5
30807,57127,4
30816,57095,5
30809,57131,5
30810,57145,6
30823,57153,3
30835,57118,5
30833,57167,5
30841,57182,5
30835,57179,4
30843,57126,5
30852,57195,5
30840,57194,5
30849,57186,5
30840,57204,4
30841,57189,5
30854,57199,5
30847,57195,5
30850,57249,5
30853,57201,4
30862,57206,5
30855,57212,5
30864,57273,5
30874,57235,5
30878,57243,4
30877,57258,6
30872,57275,4
30885,57253,5
30880,57253,5
30872,57253,4
30874,57258,5
30880,57253,5
30878,57250,5
30877,57252,4
30880,57259,4
30885,57256,5
30877,57265,5
30889,57262,5
30879,57260,4
30887,57260,5
30884,57251,5
30885,57259,5
30883,57251,5
30868,57249,4
30888,57253,5
30884,57254,5
30888,57242,5
30879,57245,5
30880,57244,4
30879,57245,5
30871,57241,6
30873,57225,4
30870,57229,5
30874,57225,4
30868,57235,5
30866,57226,5
30866,57227,5
30862,57230,9
30862,57233,5
30875,57236,5
30877,57239,5
30877,57233,4
30866,57227,4
30870,57218,5
30861,57217,5
30849,57203,5
30867,57208,4
30856,57195,5
30854,57190,5
30851,57183,5
30846,57192,5
30850,57188,4
30849,57196,5
30849,57186,5
30855,57194,6
30851,57191,4
30851,57199,4
30852,57190,5
30847,57185,5
30848,57191,5
30845,57194,5
30858,57180,4
30842,57167,5
30834,57161,5
30835,57162,5
30823,57153,5
30825,57153,4
30831,57146,5
30827,57142,5
30828,57145,5
30823,57132,4
30813,57124,4
30812,57116,5
30804,57106,5
30797,57103,5
30799,57097,5
30791,57092,4
30788,57086,5
30792,57095,5
30801,57101,5
30795,57101,4
30803,57097,5
30793,57100,5
30798,57096,5
30798,57096,5
30797,57088,4
30798,57100,5
30793,57097,5
30800,57100,5
30802,57089,5
30797,57103,4
30769,57108,5
30804,57111,5
30808,57108,5
30810,57116,5
30749,57112,4
30810,57108,5
30808,57112,5
30809,57107,5
30766,57100,4
30798,57114,5
30800,57102,4
30802,57110,5
30828,57109,5
30799,57106,4
30800,57099,5
30801,57100,5
30867,57113,5
30800,57107,5
30804,57105,4
30803,57102,5
30842,57098,5
30808,57109,5
30798,57108,5
30802,57111,4
30819,57106,5
30805,57105,5
30804,57108,5
30802,57115,5
30805,57086,4
30807,57121,5
30812,57112,5
30801,57112,5
30809,57064,4
30792,57097,4
30798,57090,6
30802,57105,4
30802,57060,5
30804,57099,5
30805,57109,4
30802,57114,5
30803,57110,5
30806,57106,5
30803,57106,4
30801,57106,5
30807,57151,5
30800,57107,5
30800,57099,5
30801,57106,4
30806,57170,5
30796,57103,5
30795,57093,5
30800,57098,5
30799,57129,4
30796,57099,5
30802,57100,5
30805,57106,5
30801,57107,5
30792,57096,4
30786,57088,5
30796,57089,6
30794,57089,4
30796,57081,4
30787,57091,4
30791,57094,5
30799,57100,5
30793,57096,5
30799,57101,4
30805,57104,5
30788,57099,5
30799,57103,5
30794,57092,5
30797,57087,4
30789,57095,5
30791,57094,5
30796,57089,5
30793,57084,5
30785,57088,4
30795,57083,5
30785,57084,5
30783,57079,5
30789,57083,5
30791,57082,4
30794,57077,5
30792,57072,5
30785,57082,5
30788,57083,5
30785,57074,4
30781,57063,5
30781,57067,5
30789,57083,5
30780,57063,4
30782,57072,4
30773,57072,5
30782,57066,5
30784,57072,5
30782,57078,4
30776,57076,5
30792,57081,5
30788,57077,5
30782,57070,5
30790,57080,4
30788,57087,5
30786,57075,5
30781,57066,5
30782,57065,5
30775,57071,6
30785,57061,3
30783,57080,5
30791,57080,5
30790,57084,5
30790,57088,4
30798,57086,5
30789,57081,5
30792,57086,5
30794,57090,5
30800,57084,4
30790,57093,5
30798,57099,5
30799,57098,5
30789,57095,4
30801,57098,4
30798,57097,5
30791,57099,5
30793,57100,5
30789,57094,4
30800,57106,5
30790,57088,6
30791,57094,4
30780,57091,5
30782,57076,4
30786,57092,6
30792,57087,3
30791,57084,5
30796,57092,5
30792,57090,4
30803,57100,5
30803,57107,5
30776,57101,5
30792,57111,5
30797,57096,4
30800,57104,5
30750,57103,5
30799,57102,5
30806,57101,5
30805,57103,4
30754,57114,5
30806,57118,5
30802,57119,5
30809,57114,4
30798,57105,4
30810,57118,5
30809,57115,6
30807,57120,4
30861,57122,4
30816,57129,5
30814,57144,5
30824,57139,5
30885,57139,5
30818,57134,4
30819,57129,5
30817,57139,5
30840,57130,5
30806,57133,5
30812,57127,4
30808,57125,5
30815,57122,5
30811,57127,5
30807,57128,5
30815,57125,4
30808,57098,5
30815,57131,5
30816,57123,5
30813,57122,5
30808,57065,4
30814,57120,5
30810,57116,5
30807,57131,6
30804,57077,3
30813,57115,5
30806,57118,4
30807,57115,5
30800,57108,5
30790,57084,4
30792,57081,5
30777,57068,5
30782,57120,5
30784,57062,5
30780,57052,4
30775,57051,5
30760,57089,5
30762,57029,5
30759,57029,5
30752,57014,4
30747,57019,5
30746,56998,5
30744,56987,5
30747,56982,5
30737,56974,5
30737,56974,4
30733,56979,5
30735,56973,5
30725,56958,6
30731,56971,3
30726,56967,5
30725,56963,5
30727,56968,5
30730,56965,4
30727,56970,5
30740,56976,5
30734,56966,5
30721,56970,5
30733,56967,4
30737,56969,5
30728,56975,5
30738,56972,5
30735,56978,5
30733,56973,4
30734,56973,5
30734,56975,5
30737,56976,5
30738,56982,5
30740,56997,4
30743,56990,6
30745,56980,4
30738,56990,5
30748,56984,5
30737,56986,4
30736,56977,5
30730,56988,5
30735,56980,5
30740,56987,4
30740,56977,4
30736,56974,5
30738,56993,5
30741,56988,5
30741,56993,4
30742,57001,5
30740,56993,5
30748,56987,5
30744,56990,5
30741,56986,4
30750,57000,5
30742,56998,5
30744,56994,5
30739,56997,5
30739,56998,4
30750,56998,5
30751,57003,6
30744,56999,4
30756,57000,5
30749,57009,4
30753,57001,5
30750,56995,5
30741,57003,5
30753,57002,5
30750,57003,4
30747,56994,5
30745,57001,5
30747,57003,5
30747,57005,4
30748,57000,4
30749,57006,5
30748,56992,5
30737,56991,5
30747,56988,4
30740,56990,5
30738,56978,5
30737,56989,5
30737,56992,5
30735,56986,4
30738,56983,5
30739,56984,5
30741,56977,6
30738,56983,4
30740,56980,4
30740,56990,5
30736,56980,5
30742,56991,5
30711,56988,5
30741,56995,4
30735,56987,5
30743,57002,5
30701,56996,5
30739,56999,5
30740,57005,4
30748,57002,5
30699,56995,5
30748,56998,5
30743,56993,4
30753,56995,4
30766,56996,5
30750,56990,5
30750,57002,5
30742,56995,5
30795,56998,4
30743,56998,5
30746,56994,5
30747,56996,6
30797,56993,3
30750,56995,5
30741,56995,5
30749,57005,5
30761,57015,5
30744,57011,4
30755,57013,5
30752,57008,5
30745,57002,5
30756,57017,5
30752,57008,4
30749,57008,5
30752,56969,5
30743,57002,5
30747,57004,5
30747,56996,4
30746,56951,5
30742,57007,5
30745,56997,5
30745,57004,4
30746,56984,5
30753,56999,4
30748,56996,5
30747,57004,5
30743,57043,4
30745,57008,5
30749,57004,5
30751,57003,5
30743,57068,5
30752,57008,4
30750,57011,5
30747,57012,5
30749,57056,5
30745,57009,5
30754,57008,4
30752,57012,5
30754,57021,5
30753,57020,5
30749,57019,5
30763,57013,4
30747,57020,5
30760,57019,5
30755,57020,5
30763,57020,5
30756,57025,4
30753,57025,6
30763,57019,4
30757,57022,5
30755,57020,4
30750,57028,4
30757,57018,5
30759,57020,5
30762,57024,5
30755,57021,4
30751,57020,5
30758,57010,5
30746,57016,5
30752,57012,5
30761,57011,4
30750,57015,5
30750,57006,5
30748,57013,5
30759,57009,5
30758,57018,4
30747,57012,5
30755,57014,7
30754,57016,3
30761,57029,5
30761,57028,4
30760,57024,5
30750,57029,6
30757,57024,4
30760,57032,5
30765,57029,4
30771,57028,5
30763,57030,5
30748,57031,5
30767,57037,4
30767,57031,5
30772,57032,5
30756,57026,5
30761,57034,5
30767,57034,4
30759,57031,5
30762,57033,5
30756,57040,5
30763,57042,5
30770,57035,4
30772,57040,5
30770,57039,5
30772,57035,5
30776,57040,5
30763,57036,4
30775,57033,5
30769,57037,5
30766,57027,5
30769,57031,5
30766,57036,4
30763,57030,5
30763,57024,5
30762,57026,5
30757,57028,4
30756,57024,4
30759,57020,5
30762,57026,5
30757,57021,5
30745,57009,4
30754,57008,5
30751,57003,5
30756,57014,5
30754,57002,5
30756,57007,4
30754,57011,5
30750,57010,5
30743,57004,5
30749,57003,5
30754,57005,5
30744,57010,4
30766,57020,5
30758,57012,5
30755,57017,5
30724,57016,4
30767,57025,5
30766,57021,5
30755,57024,5
30709,57018,5
30768,57026,4
30761,57020,5
30755,57019,5
30741,57014,5
30746,57001,4
30740,57009,4
30750,57000,5
30781,56995,5
30750,56999,5
30744,56993,4
30750,56990,5
30810,57000,5
30740,56998,5
30752,56991,5
30744,57006,4
30773,56992,6
30745,56995,4
30749,56996,5
30747,56999,5
30756,56993,4
30738,57003,5
30740,56995,5
30748,56994,5
30750,56967,5
30738,56997,4
30749,56992,5
30744,56981,5
30747,56936,5
30740,56989,5
30739,56986,4
30733,56981,5
30741,56940,5
30747,56987,5
30742,56996,4
30744,56997,4
30741,57018,5
30753,56990,6
30745,57000,4
30742,57005,4
30746,57047,5
30746,56990,7
30750,56999,3
30737,56992,5
30744,57043,4
30745,57002,5
30741,56989,5
30744,56993,5
30750,57016,5
30746,57002,4
30754,57007,5
30749,57006,5
30747,56994,5
30749,56997,5
30746,56998,4
30744,57001,5
30754,57003,5
30752,57003,5
30755,57014,5
30745,57012,4
30747,57010,5
30751,57014,5
30749,57016,6
30750,57013,3
30752,57007,4
30761,57013,5
30753,57018,5
30761,57013,5
30756,57016,4
30761,57021,5
30761,57011,5
30754,57017,5
30758,57015,5
30763,57025,4
30754,57028,5
30760,57021,5
30762,57020,5
30753,57017,5
30764,57025,4
30757,57026,5
30763,57017,5
30757,57026,5
30762,57015,5
30763,57029,5
30760,57024,4
30763,57028,5
30766,57026,5
30753,57015,6
30763,57016,3
30756,57015,5
30752,57018,5
30757,57010,5
30754,57016,4
30757,57011,5
30756,57003,5
30760,57006,5
30758,57014,5
30759,57006,4
30756,57010,5
30767,57013,5
30758,57009,5
30749,57026,5
30755,57015,4
30768,57019,5
30763,57026,5
30765,57027,5
30771,57037,5
30755,57032,4
30761,57029,6
30766,57036,4
30761,57028,5
30754,57022,5
30750,57017,6
30759,57020,3
30755,57016,5
30755,57015,5
30752,57016,5
30756,57010,4
30756,57025,5
30759,57015,5
30761,57019,5
30754,57020,4
30760,57018,5
30765,57010,5
30756,57024,5
30750,57029,5
30755,57023,4
30754,57015,5
30755,57019,5
30750,57018,5
30758,57017,5
30760,57021,4
30759,57027,5
30724,57024,6
30766,57025,4
30759,57031,5
30759,57026,4
30705,57027,5
30760,57033,5
30763,57025,5
30763,57021,5
30734,57031,4
30769,57032,5
30759,57031,5
30764,57032,5
30791,57025,4
30755,57021,4
30757,57017,5
30757,57025,5
30815,57032,5
30757,57026,4
30759,57025,5
30771,57019,5
30802,57016,5
30752,57022,5
30767,57029,4
30761,57032,5
30775,57025,5
30763,57029,6
30765,57032,4
30764,57034,4
30762,57018,5
30764,57040,5
30763,57030,5
30764,57045,5
30772,56984,4
30762,57037,5
30765,57039,5
30765,57037,5
30768,56985,5
30771,57043,5
30774,57035,4
30761,57038,5
30763,57042,5
30773,57037,4
30762,57038,4
30759,57041,5
30760,57095,5
30769,57042,5
30765,57041,5
30772,57045,4
30769,57105,5
30767,57046,5
30764,57037,6
30769,57049,3
30760,57070,5
30774,57052,5
30769,57042,5
30770,57044,5
30772,57054,4
30761,57033,5
30767,57046,5
30767,57042,5
30771,57038,5
30770,57043,4
30774,57046,5
30776,57051,5
30775,57056,5
30770,57051,5
30788,57051,4
30770,57055,5
30778,57051,5
30779,57054,5
30786,57057,4
30768,57048,5
30762,57050,4
30767,57040,5
30764,57034,5
30773,57029,4
30769,57029,5
30754,57026,5
30765,57034,5
30766,57029,5
30767,57039,4
30767,57034,5
30767,57041,5
30762,57030,5
30766,57035,5
30761,57042,4
30764,57033,5
30763,57037,5
30765,57046,5
30767,57035,5
30768,57038,4
30767,57042,5
30768,57038,5
30769,57049,5
30761,57035,5
30769,57039,4
30764,57032,6
30759,57037,4
30758,57035,5
30769,57037,4
30764,57031,4
30762,57036,5
30769,57046,5
30774,57042,5
30777,57041,4
30764,57041,5
30770,57030,5
30769,57040,5
30764,57042,5
30769,57039,4
30775,57041,5
30760,57052,5
30771,57048,5
30766,57041,5
30769,57050,4
30766,57056,5
30770,57044,5
30782,57053,5
30775,57057,5
30772,57051,4
30778,57056,5
30774,57063,6
30778,57062,4
30771,57055,5
30774,57065,4
30779,57067,5
30780,57057,5
30786,57064,5
30782,57062,4
30773,57066,5
30783,57069,5
30786,57063,5
30776,57075,5
30782,57070,4
30783,57069,5
30792,57069,5
30785,57064,5
30763,57076,5
30781,57070,4
30778,57074,5
30790,57076,5
30740,57068,5
30784,57072,5
30779,57077,4
30785,57073,5
30728,57077,5
30788,57066,6
30789,57069,4
30790,57073,4
30794,57079,5
30790,57077,5
30784,57070,5
30788,57067,4
30839,57076,4
30791,57079,5
30778,57082,5
30787,57073,5
30838,57077,4
30780,57074,5
30777,57074,5
30785,57061,5
30798,57056,5
30777,57061,4
30777,57057,5
30777,57052,5
30775,57047,5
30773,57048,5
30773,57047,5
30774,57042,4
30768,57007,5
30770,57042,5
30773,57045,5
30767,57048,4
30769,57001,5
30776,57042,5
30767,57046,5
30775,57054,5
30764,57017,4
30768,57038,5
30773,57046,5
30771,57045,5
30772,57079,4
30764,57041,4
30771,57036,5
30760,57033,5
30765,57102,5
30772,57036,4
30770,57038,5
30761,57033,5
30778,57086,5
30759,57040,5
30776,57036,4
30776,57051,6
30768,57058,4
30771,57042,5
30771,57052,5
30768,57043,4
30767,57047,5
30765,57040,5
30763,57047,5
30766,57038,5
30768,57047,4
30767,57045,5
30769,57043,5
30765,57038,5
30774,57043,5
30771,57049,4
30771,57050,5
30774,57041,5
30778,57052,5
30774,57040,4
30768,57049,4
30772,57047,5
30779,57052,5
30776,57050,5
30774,57061,4
30785,57056,5
30781,57055,6
30772,57056,4
30772,57056,5
30773,57055,4
30779,57059,5
30774,57054,5
30768,57051,5
30769,57047,9
30769,57047,5
30775,57048,5
30778,57049,5
30769,57051,5
30767,57056,4
30776,57052,5
30772,57045,5
30773,57060,5
30779,57054,5
30773,57057,4
30782,57052,5
30777,57062,5
30786,57059,5
30780,57069,4
30788,57059,4
30788,57059,5
30786,57068,5
30783,57064,5
30786,57067,4
30783,57065,5
30787,57057,5
30781,57062,5
30778,57044,5
30763,57044,4
30766,57052,5
30768,57048,5
30775,57046,5
30764,57045,5
30770,57042,4
30769,57045,5
30773,57041,5
30772,57047,5
30777,57048,5
30773,57056,4
30776,57056,5
30770,57054,5
30772,57056,5
30781,57053,5
30782,57051,4
30773,57043,5
30773,57049,5
30780,57054,5
30772,57056,4
30776,57057,5
30774,57057,5
30778,57051,5
30770,57054,5
30780,57051,4
30779,57053,5
30775,57048,5
30739,57051,5
30768,57042,5
30782,57057,4
30780,57062,5
30722,57069,5
30781,57059,5
30780,57059,5
30785,57067,4
30760,57054,6
30785,57049,4
30776,57063,5
30786,57066,5
30820,57062,6
30783,57064,3
30780,57069,5
30781,57055,5
30839,57066,4
30774,57058,4
30785,57064,5
30780,57060,5
30823,57064,5
30778,57069,4
30779,57075,5
30785,57064,5
30790,57067,5
30782,57069,5
30785,57065,4
30786,57075,5
30795,57047,5
30789,57069,5
30788,57077,5
30783,57071,4
30786,57030,5
30785,57076,6
30794,57079,4
30794,57081,5
30788,57028,4
30794,57076,5
30790,57089,5
30784,57083,5
30791,57092,5
30794,57076,4
30789,57076,5
30796,57076,5
30788,57129,5
30795,57092,4
30792,57083,4
30792,57085,5
30791,57137,5
30789,57081,5
30787,57081,4
30797,57073,5
30786,57092,5
30780,57072,5
30785,57068,5
30788,57071,4
30786,57072,5
30779,57078,5
30785,57074,6
30787,57075,4
30786,57073,4
30792,57086,5
30791,57077,5
30792,57087,5
30795,57088,5
30797,57084,4
30796,57085,5
30802,57088,5
30794,57084,5
30781,57064,5
30789,57071,4
30778,57069,5
30788,57066,5
30780,57062,5
30781,57060,4
30782,57065,4
30775,57063,5
30781,57060,5
30784,57070,5
30781,57072,5
30791,57066,4
30788,57062,5
30787,57065,5
30778,57068,6
30786,57072,3
30793,57074,5
30796,57074,5
30784,57068,5
30787,57066,5
30779,57062,4
30779,57067,5
30783,57064,5
30785,57071,5
30787,57052,5
30786,57060,4
30790,57073,5
30784,57068,5
30782,57070,5
30785,57066,5
30788,57064,4
30792,57073,5
30785,57073,5
30789,57078,5
30785,57074,4
30788,57071,5
30786,57078,4
30779,57063,5
30789,57071,5
30796,57069,6
30786,57060,3
30787,57066,5
30780,57070,5
30779,57066,5
30784,57069,4
30783,57066,5
30787,57068,5
30779,57063,5
30780,57067,5
30786,57068,4
30788,57065,5
30781,57067,5
30777,57068,5
30788,57074,5
30784,57078,4
30783,57078,5
30791,57076,5
30783,57071,5
30785,57085,5
30792,57078,4
30788,57077,6
30786,57077,4
30784,57086,5
30794,57080,4
30795,57076,4
30790,57073,5
30792,57076,5
30791,57081,5
30768,57072,4
30791,57074,5
30783,57083,5
30789,57079,5
30743,57087,5
30786,57082,4
30790,57082,5
30789,57087,5
30743,57076,5
30790,57073,5
30789,57087,4
30792,57084,5
30807,57086,5
30789,57080,5
30797,57073,5
30794,57076,4
30832,57088,5
30790,57077,6
30795,57076,4
30787,57084,5
30839,57081,4
30788,57075,5
30792,57077,5
30785,57076,5
30806,57078,4
30791,57086,4
30790,57075,5
30787,57082,5
30797,57074,5
30795,57089,4
30791,57097,5
30798,57088,5
30795,57062,5
30806,57103,5
30799,57095,4
30799,57098,5
30791,57032,5
30794,57078,5
30792,57075,5
30789,57083,5
30778,57053,4
30792,57079,5
30790,57070,6
30789,57082,4
30785,57113,4
30786,57072,5
30783,57078,5
30785,57069,5
30786,57131,5
30788,57077,4
30790,57074,5
30782,57075,5
30792,57119,5
30792,57083,4
30790,57076,4
30795,57077,5
30786,57078,5
30787,57076,5
30790,57071,4
30785,57064,5
30785,57072,5
30788,57071,5
30787,57063,5
30788,57068,5
30778,57071,4
30793,57072,5
30790,57068,5
30786,57074,5
30792,57066,4
30788,57070,5
30790,57069,5
30784,57069,5
30787,57067,5
30784,57078,4
30777,57077,5
30784,57075,5
30788,57073,5
30791,57078,5
30791,57073,4
30791,57075,5
30789,57075,5
30790,57077,5
30792,57074,4
30787,57069,5
30787,57069,5
30780,57071,5
30783,57079,5
30792,57073,4
30785,57075,6
30788,57072,4
30795,57086,5
30790,57085,5
30791,57086,4
30784,57088,5
30790,57082,5
30794,57092,5
30796,57081,5
30791,57086,4
30794,57081,5
30802,57088,5
30796,57098,5
30797,57094,5
30802,57088,4
30802,57091,5
30796,57085,5
30798,57081,5
30792,57095,5
30796,57098,4
30794,57097,5
30793,57091,5
30798,57100,5
30808,57105,4
30796,57099,4
30805,57104,6
30808,57101,4
30808,57111,5
30805,57110,4
30803,57103,5
30798,57111,5
30812,57103,5
30813,57112,5
30800,57110,4
30807,57116,5
30804,57114,5
30795,57097,5
30809,57115,5
30810,57113,4
30805,57107,5
30806,57115,5
30809,57121,5
30806,57119,5
30798,57120,4
30805,57109,5
30805,57110,5
30800,57098,5
30805,57104,5
30800,57099,4
30791,57100,5
30793,57100,6
30808,57090,4
30800,57094,4
30763,57087,5
30805,57091,5
30791,57097,5
30797,57094,5
30748,57098,4
30796,57103,5
30802,57112,5
30810,57111,5
30786,57116,5
30812,57124,4
30817,57117,5
30809,57131,5
30846,57118,5
30812,57122,5
30801,57116,4
30809,57112,5
30860,57106,5
30805,57111,5
30805,57109,5
30808,57111,4
30840,57109,5
30808,57109,5
30802,57105,5
30809,57114,4
30819,57109,4
30802,57108,5
30799,57099,5
30804,57107,5
30799,57092,4
30799,57107,5
30808,57111,5
30805,57102,5
30795,57054,5
30805,57097,4
30803,57100,5
30805,57107,5
30803,57059,5
30796,57111,5
30796,57110,4
30798,57118,6
30798,57123,4
30800,57110,5
30804,57113,5
30804,57106,6
30812,57170,3
30818,57110,5
30801,57119,5
30808,57119,5
30814,57171,4
30809,57119,5
30807,57108,5
30805,57111,5
30797,57144,4
30803,57113,4
30807,57112,5
30801,57110,5
30804,57123,5
30802,57106,4
30809,57112,5
30811,57104,5
30797,57108,5
30807,57099,5
30799,57117,4
30800,57105,5
30802,57119,5
30803,57117,5
30806,57108,5
30805,57121,4
30807,57123,6
30801,57120,4
30808,57121,5
30806,57123,5
30814,57115,4
30813,57119,5
30813,57128,5
30815,57123,5
30815,57126,5
30814,57132,4
30813,57136,5
30814,57134,5
30816,57133,5
30814,57132,4
30812,57135,4
30826,57137,5
30827,57146,5
30817,57134,5
30815,57143,4
30820,57144,5
30826,57151,7
30826,57148,4
30819,57150,4
30826,57142,4
30820,57147,5
30814,57148,5
30824,57148,5
30829,57145,5
30829,57143,4
30828,57151,5
30824,57154,5
30821,57160,5
30830,57146,5
30822,57147,4
30822,57144,5
30821,57135,5
30824,57140,5
30818,57132,5
30819,57133,4
30814,57130,5
30809,57120,5
30813,57122,5
30818,57118,5
30805,57121,4
30812,57125,5
30806,57126,5
30807,57129,6
30806,57125,3
30806,57136,5
30812,57129,5
30824,57135,5
30815,57143,5
30825,57143,4
30821,57147,5
30819,57145,5
30821,57142,5
30825,57147,5
30808,57133,4
30815,57133,5
30817,57127,5
30816,57128,5
30805,57131,5
30811,57124,4
30816,57129,5
30813,57123,5
30805,57132,5
30810,57132,5
30814,57131,5
30813,57131,4
30788,57131,5
30815,57129,5
30809,57141,6
30809,57136,3
30762,57133,5
30815,57133,5
30812,57139,5
30813,57130,4
30764,57132,5
30807,57129,5
30814,57132,5
30808,57138,5
30821,57130,4
30818,57128,5
30817,57133,5
30810,57132,5
30862,57130,5
30819,57141,4
30810,57143,5
30824,57137,5
30874,57137,5
30812,57125,5
30814,57137,4
30810,57134,6
30839,57135,4
30806,57125,5
30820,57136,5
30819,57138,4
30817,57121,5
30815,57119,5
30809,57120,5
30812,57115,4
30807,57074,5
30811,57103,5
30799,57104,5
30802,57116,5
30800,57056,4
30805,57102,5
30806,57107,5
30805,57119,5
30808,57097,5
30812,57120,4
30806,57112,5
30807,57127,5
30821,57157,5
30806,57120,5
30811,57123,4
30815,57123,5
30815,57180,6
30813,57141,4
30819,57130,5
30811,57129,4
30819,57163,5
30821,57139,5
30812,57129,5
30818,57140,4
30829,57149,4
30818,57138,5
30820,57139,5
30821,57129,5
30816,57134,4
30820,57137,5
30818,57135,5
30818,57137,5
30827,57135,5
30814,57127,4
30810,57136,5
30822,57133,5
30823,57128,5
30823,57130,5
30822,57124,4
30824,57131,5
30810,57138,5
30820,57127,6
30814,57130,4
30817,57131,4
30819,57133,5
30811,57129,5
30813,57129,5
30814,57119,5
30816,57118,4
30805,57120,5
30811,57118,5
30816,57111,5
30802,57112,4
30808,57105,4
30793,57100,5
30796,57091,5
30799,57110,5
30798,57089,4
30805,57107,5
30805,57112,5
30802,57109,5
30803,57111,5
30804,57118,5
30812,57112,4
30808,57123,5
30809,57119,5
30805,57131,6
30816,57123,3
30816,57122,5
30809,57122,5
30807,57113,5
30803,57107,5
30804,57093,4
30796,57094,5
30790,57089,5
30793,57083,5
30792,57074,5
30791,57072,4
30788,57077,5
30788,57071,5
30783,57074,5
30786,57074,4
30787,57076,4
30787,57077,5
30790,57088,5
30797,57095,5
30801,57101,4
30804,57102,6
30804,57106,4
30808,57110,5
30803,57109,5
30804,57104,4
30799,57099,5
30795,57098,5
30783,57100,5
30795,57096,5
30795,57091,4
30796,57086,5
30792,57086,5
30780,57086,5
30790,57084,5
30788,57087,4
30798,57097,5
30792,57092,5
30790,57083,5
30771,57086,5
30796,57090,4
30804,57088,5
30787,57089,5
30746,57084,5
30801,57082,4
30792,57082,4
30793,57079,6
30734,57087,4
30791,57083,5
30796,57088,4
30786,57085,5
30786,57091,5
30796,57098,5
30789,57095,5
30792,57093,4
30832,57096,5
30794,57091,5
30795,57087,5
30798,57094,5
30854,57095,4
30802,57091,5
30795,57090,5
30801,57098,5
30834,57102,5
30797,57102,4
30801,57104,5
30798,57116,5
30811,57117,5
30799,57110,5
30806,57115,4
30802,57114,5
30807,57076,6
30806,57110,4
30802,57118,4
30807,57121,4
30806,57063,5
30804,57105,5
30808,57116,5
30805,57110,5
30800,57059,4
30810,57106,5
30799,57102,5
30806,57107,5
30799,57115,4
30800,57106,5
30805,57096,5
30805,57095,5
30810,57153,5
30804,57103,4
30802,57096,5
30798,57102,5
30804,57156,5
30799,57099,5
30795,57107,4
30811,57109,5
30805,57135,5
30807,57118,5
30808,57113,5
30813,57120,4
30807,57118,5
30812,57106,5
30807,57103,5
30800,57093,4
30793,57092,4
30802,57096,5
30802,57102,5
30800,57100,5
30801,57112,4
30808,57101,5
30800,57102,5
30804,57104,5
30808,57110,5
30805,57107,4
30799,57107,5
30806,57104,5
30802,57102,5
30809,57121,5
30804,57123,5
30817,57128,4
30819,57133,5
30817,57139,5
30820,57128,5
30819,57134,4
30815,57128,5
30823,57135,5
30823,57158,5
30845,57183,5
30865,57207,4
30866,57236,5
30872,57245,5
30887,57254,5
30889,57269,4
30891,57272,4
30883,57266,5
30896,57265,5
30895,57284,5
30904,57291,4
30919,57316,5
30922,57346,5
30943,57366,5
30947,57360,5
30942,57363,4
30938,57353,6
30925,57344,4
30920,57315,5
30902,57300,5
30896,57283,4
30895,57272,5
30881,57261,5
30889,57262,5
30884,57254,5
30877,57259,4
30884,57258,5
30879,57252,5
30877,57245,5
30874,57243,5
30867,57241,4
30867,57219,5
30866,57212,5
30860,57221,5
30861,57211,4
30847,57206,5
30853,57198,5
30849,57195,5
30840,57186,5
30839,57182,4
30837,57168,5
30839,57169,6
30827,57161,4
30829,57150,5
30824,57151,4
30828,57149,5
30820,57149,5
30825,57146,5
30821,57154,5
30822,57151,4
30819,57143,5
30823,57144,5
30824,57143,5
30828,57149,5
30786,57137,4
30834,57146,5
30820,57142,5
30824,57149,5
30774,57143,4
30816,57137,4
30830,57145,5
30824,57141,5
30783,57138,5
30827,57155,4
30820,57136,5
30816,57127,5
30839,57123,5
30807,57115,5
30800,57112,4
30803,57116,5
30847,57107,5
30800,57107,5
30802,57098,5
30794,57100,4
30848,57105,5
30802,57093,5
30800,57090,5
30800,57096,5
30816,57091,4
30799,57095,5
30802,57094,5
30799,57087,5
30798,57079,5
30794,57101,5
30800,57103,4
30798,57097,5
30794,57058,5
30803,57095,6
30808,57092,3
30795,57084,5
30799,57041,5
30790,57090,5
30799,57095,4
30798,57090,5
30804,57076,5
30799,57102,5
30799,57115,5
30808,57110,4
30803,57144,5
30800,57096,5
30807,57094,5
30800,57098,5
30797,57157,4
30806,57096,5
30799,57108,5
30815,57108,5
30806,57154,5
30809,57119,4
30813,57132,6
30819,57139,4
30817,57139,5
30828,57140,5
30830,57141,6
30827,57156,3
30834,57172,5
30835,57161,5
30831,57171,4
30836,57187,4
30846,57193,5
30853,57203,5
30856,57208,5
30868,57219,4
30864,57225,5
30874,57237,5
30866,57241,5
30886,57256,5
30888,57267,4
30895,57277,5
30898,57287,5
30909,57295,5
30910,57299,5
30918,57310,4
30910,57331,5
30919,57342,6
30930,57350,4
30929,57342,5
30932,57344,4
30927,57340,5
30925,57343,5
30928,57346,5
30928,57332,5
30930,57335,4
30919,57327,5
30924,57329,5
30921,57331,9
30919,57325,5
30912,57312,5
30910,57328,5
30914,57318,5
30929,57327,4
30925,57320,5
30917,57318,5
30920,57313,5
30905,57311,5
30902,57297,4
30912,57304,5
30895,57287,5
30901,57276,6
30887,57273,4
30890,57266,4
30889,57253,5
30887,57253,5
30884,57252,5
30887,57248,5
30885,57244,4
30884,57247,5
30884,57249,8
30876,57245,5
30880,57241,5
30876,57242,7
30859,57236,8
30872,57240,5
30871,57226,7
30857,57211,8
30857,57211,9
30860,57201,8
30856,57199,5
30852,57161,7
30855,57192,8
30855,57192,5
30855,57189,7
30848,57206,8
30863,57205,5
30864,57200,7
30851,57180,8
30837,57205,5
30861,57208,7
30861,57208,8
30886,57205,5
30863,57215,7
30803,57198,8
30862,57209,5
30859,57225,7
30856,57212,8
30856,57212,7
30925,57207,5
30850,57201,8
30851,57191,7
30855,57197,7
30866,57166,8
30866,57166,7
30843,57165,5
30842,57185,8
30831,57147,7
30845,57158,5
30856,57166,8
30847,57163,7
30840,57168,10
30840,57168,7
30836,57106,5
30838,57154,8
30828,57148,7
30832,57162,5
30832,57194,8
30832,57194,7
30847,57169,5
30832,57167,8
30820,57160,7
30833,57220,7
30814,57130,10
30814,57130,5
30814,57162,5
30816,57132,10
30800,57107,5
30806,57114,5
30804,57109,10
30807,57103,5
30799,57103,5
30797,57090,10
30797,57090,5
30784,57075,5
30791,57081,10
30790,57088,5
30782,57090,5
30792,57081,10
30792,57081,5
30760,57076,5
30772,57082,10
30781,57086,5
30782,57091,5
30797,57105,10
30796,57075,5
30794,57075,5
30789,57092,10
30789,57092,5
30793,57081,7
30795,57092,8
30792,57080,5
30759,57086,7
30792,57081,8
30792,57081,5
30795,57086,7
30800,57085,8
30801,57096,5
30792,57083,7
30776,57087,8
30794,57100,5
30807,57091,7
30807,57091,8
30800,57107,9
30805,57099,5
30803,57106,1
30802,57078,4
30799,57109,5
30803,57097,5
30801,57102,4
30797,57105,5
30798,57099,5
30801,57102,5
30807,57101,5
30799,57102,4
30810,57102,5
30807,57107,5
30801,57099,5
30804,57109,4
30808,57105,4
30799,57103,5
30796,57099,5
30806,57105,5
30801,57107,4
30803,57096,5
30800,57104,5
30797,57107,5
30805,57100,5
30802,57106,4
30812,57106,6
30803,57101,4
30805,57101,5
30817,57113,5
30799,57107,4
30812,57111,5
30807,57114,5
30809,57113,5
30767,57121,5
30806,57111,4
30816,57123,5
30812,57119,5
30766,57131,5
30810,57121,5
30818,57131,4
30818,57127,5
30781,57123,5
30820,57119,5
30810,57115,4
30810,57109,4
30839,57114,5
30800,57104,5
30813,57109,5
30802,57111,4
30859,57105,5
30803,57101,6
30794,57103,4
30799,57102,5
30837,57095,4
30795,57096,5
30794,57098,5
30792,57091,5
30807,57080,5
30784,57092,4
30797,57089,5
30806,57100,5
30792,57077,5
30792,57092,5
30804,57094,4
30796,57092,5
30789,57041,5
30801,57081,5
30795,57088,5
30794,57083,4
30793,57029,5
30796,57088,5
30788,57081,6
30794,57082,3
30791,57095,5
30799,57092,5
30800,57092,5
30804,57090,5
30800,57143,4
30801,57098,5
30803,57087,5
30794,57101,5
30801,57150,5
30802,57099,4
30797,57103,5
30805,57099,5
30803,57121,5
30803,57099,5
30801,57107,4
30806,57099,5
30806,57111,5
30807,57109,5
30811,57107,5
30806,57108,4
30809,57115,5
30801,57104,5
30800,57116,5
30801,57106,5
30809,57109,4
30801,57112,5
30803,57102,5
30814,57109,5
30814,57107,4
30806,57114,5
30803,57108,5
30807,57113,5
30808,57111,5
30804,57116,4
30809,57126,5
30810,57117,5
30809,57122,5
30808,57124,5
30806,57122,4
30809,57125,5
30811,57125,5
30809,57113,5
30813,57121,5
30809,57117,4
30813,57124,5
30810,57129,5
30810,57120,5
30818,57129,5
30819,57130,5
30822,57126,4
30812,57123,5
30815,57123,5
30825,57123,4
30823,57132,4
30815,57129,5
30823,57135,5
30811,57122,5
30821,57124,4
30816,57128,5
30821,57139,5
30813,57130,5
30814,57136,5
30824,57139,4
30823,57128,5
30814,57131,5
30824,57135,5
30821,57132,5
30814,57139,4
30822,57135,5
30820,57136,6
30821,57138,4
30817,57130,5
30823,57136,4
30815,57136,7
30814,57124,3
30824,57126,5
30818,57124,5
30813,57127,4
30817,57130,5
30816,57121,5
30817,57120,5
30812,57134,4
30814,57134,5
30818,57137,5
30824,57132,5
30828,57126,5
30827,57150,4
30827,57146,5
30831,57146,5
30827,57142,5
30831,57144,5
30829,57138,4
30817,57135,5
30816,57129,5
30825,57138,6
30820,57138,4
30810,57122,4
30795,57134,5
30819,57130,5
30808,57130,5
30825,57126,5
30767,57121,4
30817,57134,5
30813,57138,5
30817,57128,5
30762,57127,5
30817,57124,4
30811,57126,5
30806,57124,5
30821,57120,5
30820,57121,4
30816,57129,5
30817,57129,5
30857,57120,5
30811,57128,5
30814,57118,5
30815,57115,4
30863,57121,5
30805,57122,5
30809,57124,6
30814,57124,3
30836,57130,5
30817,57125,5
30816,57130,5
30821,57128,5
30816,57128,4
30828,57136,5
30819,57129,5
30811,57131,5
30821,57094,5
30812,57132,4
30812,57132,5
30819,57137,5
30811,57083,5
30816,57132,4
30820,57133,4
30821,57131,5
30822,57110,5
30817,57128,5
30814,57127,4
30810,57121,6
30822,57158,4
30810,57132,5
30820,57122,5
30814,57126,6
30810,57178,3
30821,57122,5
30800,57126,5
30819,57126,5
30816,57171,4
30817,57131,5
30817,57136,5
30818,57134,5
30820,57146,5
30817,57133,4
30825,57141,5
30822,57141,5
30821,57148,5
30828,57144,5
30830,57154,4
30832,57155,5
30822,57158,5
30828,57154,5
30830,57149,4
30824,57152,4
30831,57147,6
30831,57151,4
30826,57145,5
30826,57141,4
30821,57140,5
30828,57141,5
30824,57137,5
30831,57130,5
30823,57142,4
30819,57140,5
30812,57140,5
30822,57132,5
30821,57140,5
30827,57142,4
30821,57145,5
30822,57139,5
30829,57139,5
30825,57140,5
30816,57150,4
30828,57144,5
30825,57138,5
30828,57149,5
30825,57140,5
30826,57138,4
30821,57134,7
30822,57140,4
30819,57134,4
30810,57131,4
30821,57122,5
30811,57128,5
30818,57136,5
30821,57135,5
30811,57135,4
30820,57134,5
30820,57138,5
30820,57133,5
30820,57145,5
30822,57144,4
30817,57146,5
30827,57145,5
30822,57150,5
30824,57156,5
30824,57157,4
30825,57148,5
30838,57153,5
30828,57162,5
30830,57150,5
30824,57142,4
30822,57147,5
30833,57143,5
30817,57139,6
30818,57147,3
30816,57145,4
30809,57146,5
30825,57147,5
30827,57139,5
30827,57146,4
30819,57142,5
30826,57150,5
30823,57142,5
30830,57156,5
30815,57151,4
30823,57154,5
30824,57147,5
30828,57154,5
30830,57151,5
30821,57155,4
30823,57153,5
30821,57151,5
30816,57145,5
30824,57150,5
30821,57143,5
30813,57141,4
30783,57148,5
30827,57146,5
30823,57145,5
30821,57148,4
30777,57148,5
30826,57146,5
30834,57141,5
30823,57143,4
30806,57143,4
30830,57131,5
30826,57136,5
30821,57130,5
30857,57137,4
30813,57129,5
30812,57130,5
30815,57131,5
30863,57134,5
30815,57132,4
30814,57134,5
30806,57131,5
30846,57136,5
30813,57126,5
30804,57123,4
30812,57130,6
30814,57126,4
30811,57128,5
30815,57136,5
30810,57134,4
30815,57104,5
30809,57133,5
30814,57142,5
30829,57128,5
30821,57080,4
30821,57142,5
30817,57136,5
30821,57146,5
30816,57099,4
30824,57147,4
30817,57143,5
30818,57155,5
30821,57172,5
30826,57160,4
30830,57157,5
30826,57161,9
30827,57218,8
30831,57156,5
30830,57170,7
30833,57152,8
30833,57152,5
30786,57176,7
30814,57158,8
30826,57156,5
30824,57164,7
30831,57174,8
30837,57168,9
30837,57168,5
30833,57117,8
30834,57159,7
30837,57180,5
30865,57171,8
30831,57175,7
30833,57180,10
30833,57180,7
30828,57166,5
30833,57175,7
30838,57203,0
30840,57196,3
30845,57178,5
30838,57185,5
30844,57174,5
30832,57167,5
30836,57167,4
30826,57170,5
30831,57154,5
30826,57160,5
30819,57150,5
30823,57155,4
30830,57172,5
30829,57171,5
30831,57165,5
30836,57171,5
30840,57178,4
30838,57187,5
30846,57191,5
30852,57205,5
