RED,IR,EKG,TIME
49790,105494,9
49788,105485,5
49757,105475,8
49775,105476,5
49777,105484,5
49785,105492,5
49785,105494,8
49784,105490,5
49784,105485,5
49780,105485,13
49780,105485,5
49788,105478,5
49786,105492,8
49778,105481,5
49779,105484,5
49788,105498,8
49785,105503,5
49785,105494,5
49773,105465,8
49781,105472,5
49776,105487,5
49782,105491,5
49782,105491,8
49777,105486,5
49787,105501,5
49783,105502,8
49786,105497,5
49796,105503,5
49793,105522,5
49787,105487,8
49776,105449,5
49787,105471,5
49766,105477,8
49781,105472,5
49781,105472,5
49788,105498,8
49787,105490,5
49786,105491,5
49779,105492,5
49796,105500,8
49792,105489,5
49784,105500,5
49792,105503,8
49792,105503,5
49752,105499,5
49785,105500,5
49795,105495,8
49796,105533,5
49787,105518,5
49796,105506,8
49793,105516,5
49798,105521,5
49800,105530,8
49790,105531,5
49794,105514,5
49783,105522,5
49788,105499,8
49788,105499,5
49782,105527,5
49785,105516,8
49791,105484,5
49789,105488,5
49794,105498,5
49810,105506,8
49799,105503,5
49770,105503,5
49794,105507,8
49802,105528,5
49799,105526,5
49799,105520,8
49799,105520,5
49797,105502,5
49802,105476,5
49796,105509,8
49810,105531,5
49802,105539,5
49775,105551,8
49787,105554,5
49817,105562,5
49813,105560,5
49814,105563,8
49818,105555,5
49814,105549,5
49813,105545,8
49813,105545,5
49810,105541,5
49819,105540,8
49819,105555,5
49815,105551,5
49800,105555,5
49818,105560,8
49819,105577,5
49821,105573,5
49816,105556,8
49817,105559,5
49819,105561,5
49824,105564,5
49824,105564,8
49817,105575,2
49824,105575,2
49808,105565,5
49812,105575,4
49822,105569,4
49821,105574,5
49828,105575,5
49835,105571,5
49829,105601,4
49826,105589,5
49835,105598,5
49845,105610,5
49850,105613,5
49853,105629,4
49852,105630,5
49857,105641,5
49855,105641,5
49860,105637,5
49854,105645,4
49855,105644,5
49848,105641,5
49856,105648,5
49862,105653,5
49873,105672,5
49870,105676,4
49878,105694,5
49885,105714,5
49910,105737,6
49915,105763,3
49915,105771,5
49930,105781,5
49938,105793,5
49936,105808,5
49949,105816,4
49944,105824,5
49943,105828,5
49962,105847,5
49954,105850,4
49968,105863,4
49972,105868,5
49982,105886,5
49973,105888,5
49985,105904,4
49988,105913,5
49992,105911,5
49986,105924,5
49994,105927,5
50000,105930,4
50005,105939,6
50018,105940,4
50013,105950,5
50009,105956,5
50013,105950,6
50017,105945,3
50006,105952,5
50015,105941,5
50018,105962,5
50033,105965,4
50011,105962,5
50023,105978,5
50021,105975,5
50032,105981,5
50017,105981,4
50024,105978,5
50027,105988,5
50031,105988,5
50019,105989,5
50039,106009,4
50037,106013,5
50045,106003,5
50044,106019,5
50051,106026,4
50044,106013,5
50041,106012,6
50045,106023,4
50045,106015,5
50044,106008,4
50035,105994,7
50032,105988,3
50034,105986,5
50033,105979,5
50030,105990,4
50019,105971,5
50031,105981,5
50036,105987,5
50034,106014,5
50039,106002,4
50033,105994,5
50045,106010,5
50038,106014,5
50038,106000,5
50044,106007,4
50044,106010,5
50044,106029,5
50036,106017,5
50049,106029,5
50051,106028,4
50044,106016,5
50047,106029,6
50045,106031,4
50041,106019,4
50051,106031,4
50060,106033,5
50050,106029,5
50051,106032,5
50060,106033,4
50054,106035,5
50056,106032,5
50054,106047,5
50067,106043,5
50064,106056,4
50071,106048,5
50060,106066,5
50065,106054,5
50076,106063,5
50070,106058,4
50063,106061,5
50067,106057,5
50064,106054,5
50058,106060,5
50069,106064,4
50068,106067,5
50066,106066,5
50071,106078,6
50067,106083,4
50077,106076,4
50079,106077,5
50083,106084,5
50074,106089,5
50081,106100,5
50084,106109,4
50083,106112,5
50081,106114,5
50088,106110,5
50089,106119,4
50096,106128,4
50100,106122,5
50095,106121,5
50101,106143,5
50095,106128,4
50090,106128,5
50099,106129,5
50098,106136,5
50106,106134,5
50097,106136,5
50102,106130,4
50101,106140,5
50100,106139,5
50098,106136,6
50101,106133,3
50102,106139,5
50096,106135,5
50098,106132,5
50110,106126,5
50100,106137,4
50105,106133,5
50095,106132,5
50104,106132,5
50104,106137,5
50100,106136,4
50104,106137,5
50104,106147,5
50107,106150,5
50123,106156,4
50113,106163,4
50112,106168,5
50105,106164,5
50116,106149,5
50109,106154,4
50118,106155,6
50107,106148,4
50110,106137,5
50099,106118,5
50094,106109,4
50085,106095,5
50077,106084,5
50083,106077,5
50068,106073,5
50070,106084,4
50072,106095,5
50088,106099,5
50082,106097,5
50070,106104,5
50089,106089,4
50081,106094,5
50084,106100,5
50086,106091,5
50084,106099,5
50081,106085,4
50077,106078,5
50081,106082,5
50074,106071,5
50068,106070,5
50064,106062,4
50072,106034,6
50057,106027,4
50048,106022,5
50037,106002,4
50044,105991,5
50023,105976,5
50016,105960,5
50014,105942,5
50014,105932,4
50000,105925,5
49998,105918,5
49987,105908,5
49991,105899,5
49976,105881,4
49979,105879,5
49972,105881,5
49966,105853,5
49968,105857,5
49954,105835,4
49944,105822,5
49952,105797,5
49942,105818,5
49944,105806,5
49941,105797,4
49942,105793,5
49941,105792,6
49930,105790,4
49924,105762,5
49925,105775,4
49921,105757,5
49912,105747,5
49915,105752,5
49916,105757,4
49909,105744,4
49906,105745,5
49912,105739,5
49909,105738,5
49897,105736,4
49905,105728,5
49899,105714,5
49893,105709,5
49890,105713,5
49888,105706,4
49893,105717,5
49892,105705,5
49892,105705,5
49889,105696,5
49900,105704,4
49895,105698,5
49892,105702,5
49892,105705,6
49892,105713,4
49887,105692,4
49898,105699,5
49892,105710,5
49890,105708,5
49893,105705,5
49885,105707,4
49894,105712,5
49895,105695,5
49889,105707,5
49884,105692,5
49886,105691,4
49885,105692,5
49890,105691,5
49888,105694,5
49879,105695,4
49882,105683,5
49878,105687,5
49876,105690,5
49881,105676,5
49879,105682,5
49876,105682,4
49871,105669,5
49870,105672,5
49881,105670,5
49874,105669,4
49874,105670,5
49872,105673,5
49884,105671,5
49869,105668,5
49874,105665,4
49876,105665,5
49881,105663,5
49877,105669,5
49871,105672,5
49874,105673,4
49873,105665,5
49864,105669,5
49871,105655,5
49872,105656,5
49866,105645,4
49859,105635,5
49852,105608,5
49826,105588,5
49819,105577,4
49819,105555,5
49807,105538,4
49794,105522,5
49805,105527,5
49796,105526,4
49804,105530,5
49805,105527,5
49811,105538,5
49807,105529,5
49800,105543,4
49799,105532,5
49804,105531,5
49798,105530,5
49798,105523,5
49800,105528,4
49801,105521,5
49802,105522,5
49791,105521,5
49795,105525,7
49800,105528,2
49802,105532,5
49800,105533,5
49805,105523,5
49798,105524,5
49808,105530,4
49793,105532,6
49788,105527,4
49798,105519,5
49796,105518,5
49794,105513,4
49803,105517,5
49804,105523,5
49801,105525,5
49779,105523,4
49794,105519,5
49796,105511,5
49805,105526,5
49793,105520,5
49794,105523,4
49794,105526,5
49800,105513,5
49809,105522,5
49796,105527,5
49800,105525,4
49797,105517,5
49816,105524,5
49803,105529,5
49803,105527,5
49797,105532,4
49804,105528,5
49797,105522,6
49805,105528,4
49800,105527,5
49812,105538,4
49803,105535,5
49800,105526,5
49803,105540,5
49792,105516,5
49810,105531,4
49800,105537,5
49806,105533,5
49795,105512,5
49801,105539,4
49796,105539,4
49810,105539,5
49807,105521,5
49816,105543,5
49809,105537,4
49807,105537,5
49802,105551,5
49810,105540,5
49814,105535,5
49795,105531,4
49805,105548,5
49799,105530,5
49803,105524,5
49792,105526,5
49802,105539,4
49799,105535,5
49801,105532,5
49803,105524,5
49807,105530,5
49799,105532,4
49813,105543,5
49812,105546,5
49812,105542,5
49805,105540,5
49804,105535,4
49809,105543,5
49805,105535,5
49807,105532,5
49805,105541,5
49804,105544,4
49804,105537,5
49810,105543,5
49809,105546,5
49810,105544,5
49814,105555,4
49812,105538,5
49813,105543,5
49810,105553,5
49807,105546,4
49808,105549,5
49814,105564,5
49817,105557,5
49819,105557,5
49809,105555,4
49813,105553,5
49816,105557,5
49813,105554,5
49816,105551,5
49815,105559,4
49814,105556,5
49816,105551,5
49809,105563,5
49814,105560,5
49822,105555,4
49817,105560,5
49817,105556,5
49816,105554,5
49809,105561,5
49822,105555,5
49818,105564,3
49812,105570,5
49824,105552,5
49818,105566,4
49820,105562,4
49820,105581,5
49821,105567,5
49822,105562,5
49817,105563,4
49819,105568,5
49826,105562,5
49820,105570,5
49827,105567,5
49814,105563,4
49816,105577,5
49820,105571,5
49822,105569,5
49828,105567,5
49821,105565,4
49818,105570,5
49822,105570,6
49821,105570,4
49820,105567,5
49812,105560,4
49821,105562,7
49822,105572,3
49819,105575,5
49820,105571,5
49814,105577,4
49816,105577,5
49828,105568,5
49827,105575,5
49825,105573,5
49814,105578,4
49822,105578,5
49823,105578,5
49821,105574,5
49827,105573,4
49815,105564,5
49823,105566,5
49819,105569,5
49827,105572,5
49825,105586,4
49836,105595,5
49826,105597,5
49834,105592,6
49840,105600,4
49839,105610,4
49818,105601,5
49838,105610,5
49836,105608,5
49848,105617,5
49833,105635,4
49852,105646,5
49869,105641,5
49857,105658,5
49867,105644,5
49858,105635,4
49858,105624,5
49848,105611,5
49850,105603,5
49839,105581,5
49820,105577,4
49830,105577,5
49834,105566,5
49818,105558,5
49808,105559,5
49812,105555,4
49824,105558,5
49817,105573,5
49820,105562,6
49812,105573,3
49825,105572,5
49822,105573,5
49829,105572,5
49827,105575,5
49823,105577,4
49829,105569,5
49823,105576,5
49829,105590,5
49835,105571,5
49830,105595,4
49826,105588,5
49828,105589,5
49825,105593,5
49835,105581,5
49835,105593,4
49830,105597,5
49835,105599,5
49829,105597,5
49839,105602,5
49840,105600,5
49842,105626,4
49832,105610,5
49848,105607,5
49845,105620,6
49852,105631,3
49843,105624,5
49848,105617,5
49849,105629,5
49854,105642,4
49850,105641,5
49849,105630,5
49851,105629,5
49853,105624,5
49840,105621,4
49850,105616,5
49849,105627,5
49860,105622,5
49850,105626,5
49857,105628,4
49854,105642,5
49853,105640,5
49844,105633,5
49849,105631,5
49854,105642,4
49850,105640,6
49859,105637,4
49851,105637,5
49851,105642,5
49859,105631,4
49853,105634,5
49845,105624,5
49850,105630,5
49858,105641,5
49858,105640,4
49856,105627,5
49838,105601,5
49824,105557,5
49796,105511,4
49760,105447,5
49732,105384,5
49709,105334,5
49698,105314,5
49687,105302,4
49684,105306,5
49696,105318,5
49704,105333,5
49717,105359,5
49731,105380,4
49726,105403,5
49737,105418,6
49750,105414,4
49736,105413,5
49740,105399,4
49746,105399,5
49732,105401,5
49733,105398,5
49741,105408,5
49745,105410,4
49753,105425,5
49753,105443,5
49760,105468,5
49775,105476,5
49783,105500,4
49793,105509,5
49796,105521,5
49802,105517,5
49797,105526,4
49793,105531,5
49795,105527,5
49794,105528,5
49803,105530,5
49798,105526,4
49796,105528,5
49805,105530,5
49792,105523,6
49791,105519,4
49791,105508,4
49784,105495,5
49773,105500,5
49784,105497,5
49775,105483,5
49777,105478,4
49767,105474,5
49762,105458,5
49773,105460,5
49765,105447,5
49769,105453,4
49763,105437,5
49765,105441,5
49755,105456,5
49764,105445,5
49761,105450,4
49754,105437,5
49748,105446,5
49760,105446,5
49762,105452,5
49761,105441,4
49743,105440,5
49764,105446,5
49763,105461,6
49761,105462,3
49772,105470,5
49765,105459,5
49764,105460,5
49771,105464,5
49786,105468,4
49767,105465,5
49768,105467,5
49763,105463,5
49782,105475,5
49764,105464,4
49773,105466,5
49765,105467,5
49772,105469,5
49772,105473,5
49768,105465,4
49779,105483,5
49776,105473,5
49776,105471,5
49774,105471,5
49770,105465,5
49775,105457,4
49765,105457,5
49764,105448,5
49765,105448,4
49763,105447,4
49766,105455,5
49765,105461,5
49767,105452,5
49769,105455,4
49776,105474,5
49774,105482,5
49775,105469,5
49775,105496,5
49777,105485,4
49776,105492,5
49778,105498,5
49778,105511,5
49780,105503,5
49785,105502,4
49791,105507,5
49786,105525,5
49792,105510,5
49790,105513,5
49794,105520,4
49799,105530,6
49792,105535,4
49804,105538,5
49803,105532,5
49803,105547,4
49804,105542,5
49809,105543,5
49807,105549,5
49815,105542,5
49813,105544,4
49803,105551,5
49811,105544,5
49812,105547,5
49805,105550,4
49808,105560,4
49810,105549,5
49818,105562,5
49816,105578,5
49824,105581,4
49824,105595,5
49833,105603,5
49833,105609,5
49841,105609,5
49842,105625,4
49844,105633,5
49854,105639,6
49864,105651,4
49867,105664,5
49869,105677,4
49877,105682,5
49884,105698,5
49891,105714,5
49897,105717,5
49894,105712,4
49887,105706,5
49890,105705,5
49885,105704,5
49877,105700,5
49873,105693,4
49878,105677,5
49878,105679,5
49862,105667,5
49869,105663,4
49871,105678,4
49868,105677,5
49871,105683,5
49871,105694,5
49888,105694,4
49881,105692,5
49881,105690,5
49886,105695,6
49884,105704,4
49888,105707,4
49888,105720,5
49895,105719,5
49896,105717,5
49888,105726,5
49892,105732,4
49898,105738,5
49908,105745,5
49903,105747,5
49909,105754,5
49902,105756,4
49906,105757,5
49914,105749,5
49919,105765,5
49915,105769,5
49931,105781,4
49923,105788,5
49939,105802,5
49936,105802,5
49942,105828,5
49942,105824,4
49944,105835,5
49946,105836,5
49945,105840,5
49959,105836,9
49956,105836,0
49953,105815,5
49951,105845,5
49961,105850,5
49964,105865,4
49974,105869,5
49976,105874,5
49975,105881,5
49962,105885,5
49979,105898,4
49981,105897,5
49988,105905,5
49980,105921,5
49994,105927,5
49991,105922,4
49993,105933,5
49988,105935,5
49999,105944,5
50008,105949,5
50009,105946,5
50014,105958,4
50011,105961,5
50011,105963,5
50020,105967,5
50025,105957,4
50017,105967,5
50019,105972,5
50015,105972,5
50035,105973,4
50018,105974,4
50014,105968,5
50018,105981,5
50017,105976,5
50025,105979,4
50017,105982,5
50016,105985,5
50031,105991,5
50032,105997,5
50028,106001,4
50028,106011,5
50038,105994,5
50030,106016,5
50034,106003,5
50038,106012,4
50034,105992,5
50039,106005,5
50036,106013,5
50034,106016,5
50040,106022,4
50047,106032,5
50055,106048,5
50056,106053,5
50053,106084,5
50070,106078,4
50076,106096,5
50070,106105,5
50081,106120,5
50091,106104,5
50079,106112,4
50089,106106,5
50083,106112,5
50073,106094,5
50075,106079,4
50068,106080,5
50059,106058,5
50060,106054,5
50064,106042,5
50064,106058,4
50067,106068,5
50065,106079,6
50066,106081,4
50077,106088,5
50078,106091,4
50079,106106,5
50084,106107,5
50081,106116,5
50083,106111,5
50093,106120,4
50087,106132,5
50099,106140,5
50095,106132,5
50097,106147,5
50102,106140,4
50108,106146,5
50099,106148,5
50105,106146,5
50102,106146,5
50103,106142,4
50108,106149,5
50113,106141,5
50110,106146,5
50104,106159,3
50116,106159,4
50106,106171,5
50113,106167,5
50111,106175,5
50114,106180,4
50117,106172,5
50120,106185,5
50120,106174,5
50111,106171,5
50112,106170,4
50115,106162,5
50107,106173,5
50119,106168,5
50123,106178,5
50122,106178,4
50118,106184,5
50122,106192,5
50121,106186,5
50125,106174,5
50119,106177,5
50116,106176,4
50115,106182,5
50125,106169,5
50118,106180,6
50110,106179,3
50111,106174,5
50106,106170,5
50108,106156,5
50108,106168,4
50111,106159,4
50107,106154,5
50105,106142,5
50098,106138,5
50088,106126,4
50095,106119,5
50089,106096,5
50091,106089,5
50072,106086,5
50062,106070,4
50063,106045,5
50056,106034,5
50046,106022,5
50041,106015,5
50042,106002,4
50036,105993,6
50033,105987,4
50023,105981,5
50017,105970,5
50015,105957,6
50009,105955,3
50013,105959,5
50005,105948,5
50003,105937,5
49990,105930,4
49993,105917,5
49982,105911,5
49979,105889,5
49980,105886,5
49969,105879,4
49966,105866,5
49960,105854,5
49941,105838,5
49957,105846,4
49960,105854,4
49963,105844,5
49945,105836,5
49949,105821,5
49944,105817,4
49943,105805,5
49941,105792,6
49923,105788,4
49913,105767,5
49908,105745,4
49902,105712,5
49875,105695,5
49872,105670,5
49871,105653,5
49865,105642,4
49860,105633,5
49860,105651,5
49854,105640,5
49857,105652,5
49855,105642,4
49858,105648,5
49855,105634,5
49857,105634,5
49852,105622,5
49852,105626,4
49850,105619,5
49850,105602,5
49850,105616,5
49857,105615,5
49842,105615,4
49843,105592,5
49844,105601,6
49841,105605,4
49838,105598,4
49836,105599,5
49841,105594,5
49828,105593,5
49837,105593,5
49832,105620,4
49836,105601,5
49835,105598,5
49834,105585,5
49830,105596,5
49832,105593,4
49833,105595,5
49842,105597,5
49840,105604,5
49832,105590,5
49826,105590,4
49832,105600,5
49834,105594,5
49836,105602,5
49834,105612,5
49831,105598,4
49842,105591,5
49842,105597,5
49835,105595,6
49831,105597,4
49843,105589,4
49841,105601,5
49839,105609,5
49843,105604,5
49834,105611,4
49842,105611,4
49850,105622,5
49849,105615,5
49845,105615,5
49858,105620,4
49844,105611,5
49843,105633,5
49850,105631,5
49852,105634,5
49847,105613,4
49847,105634,5
49846,105628,5
49848,105629,5
49846,105613,5
49842,105618,5
49849,105621,4
49844,105618,5
49848,105622,5
49846,105624,6
49847,105624,3
49848,105629,5
49852,105628,5
49845,105623,5
49843,105633,5
49848,105630,4
49851,105624,5
49852,105634,5
49849,105629,5
49847,105618,5
49845,105624,4
49841,105616,5
49841,105608,5
49851,105614,5
49849,105613,4
49849,105611,5
49838,105602,5
49842,105614,5
49840,105608,5
49847,105609,4
49843,105613,6
49840,105617,4
49847,105612,5
49833,105606,5
49840,105603,4
49846,105616,5
49834,105616,5
49839,105620,5
49848,105619,5
49837,105617,4
49839,105619,5
49846,105609,5
49842,105620,5
49851,105625,5
49841,105630,4
49851,105613,5
49841,105620,5
49850,105624,5
49852,105622,5
49847,105611,4
49842,105614,5
49850,105624,5
49852,105627,5
49842,105629,4
49853,105625,4
49847,105621,6
49850,105628,4
49847,105626,5
49842,105623,4
49844,105620,5
49841,105630,5
49843,105621,5
49844,105626,5
49837,105624,4
49851,105631,5
49846,105630,5
49855,105640,5
49828,105624,5
49848,105631,4
49842,105622,5
49851,105627,5
49853,105629,5
49840,105623,5
49847,105624,4
49846,105620,5
49860,105619,5
49848,105614,5
49846,105632,5
49855,105634,4
49861,105625,5
49849,105619,6
49859,105622,4
49850,105636,5
49856,105633,4
49852,105635,5
49842,105636,5
49849,105638,5
49848,105629,4
49851,105632,5
49852,105631,5
49854,105638,5
49855,105622,5
49853,105633,4
49850,105630,5
49860,105626,5
49858,105630,5
49852,105637,5
49856,105638,4
49854,105638,5
49860,105641,5
49865,105649,5
49866,105657,5
49867,105669,4
49877,105679,5
49875,105674,5
49868,105678,6
49875,105673,4
49874,105701,4
49879,105685,5
49882,105687,5
49885,105688,5
49884,105718,5
49888,105715,4
49894,105715,5
49888,105718,5
49900,105716,5
49884,105705,4
49890,105706,4
49889,105693,5
49881,105685,5
49881,105676,5
49867,105664,4
49861,105658,5
49868,105652,5
49856,105638,5
49847,105626,5
49856,105621,5
49851,105630,4
49845,105626,5
49849,105627,5
49857,105621,5
49859,105637,4
49858,105629,5
49852,105629,5
49856,105635,5
49858,105636,5
49847,105631,4
49849,105632,5
49852,105631,5
49848,105630,5
49853,105624,5
49845,105636,4
49851,105637,5
49852,105619,5
49853,105616,5
49857,105620,5
49843,105616,4
49842,105631,5
49844,105626,5
49851,105612,5
49849,105627,4
49840,105615,6
49858,105615,4
49847,105619,5
49844,105618,5
49843,105612,4
49845,105623,5
49850,105622,5
49854,105623,5
49845,105624,5
49844,105620,4
49852,105625,5
49847,105620,5
49842,105618,5
49845,105611,5
49847,105626,4
49847,105623,5
49844,105626,5
49858,105624,5
49856,105632,5
49852,105630,4
49851,105625,5
49854,105630,5
49858,105626,5
49854,105639,5
49861,105638,4
49856,105632,6
49853,105646,4
49844,105639,5
49860,105640,4
49853,105656,4
49859,105643,5
49859,105632,5
49859,105639,5
49856,105648,4
49860,105649,5
49854,105646,5
49869,105652,5
49858,105653,5
49864,105654,4
49862,105657,7
49857,105657,3
49862,105660,5
49860,105653,5
49863,105655,4
49860,105653,5
49853,105650,5
49856,105634,5
49860,105640,5
49848,105643,4
49843,105636,5
49858,105628,6
49849,105631,4
49848,105630,5
49833,105635,4
49853,105639,5
49858,105644,5
49857,105640,5
49855,105639,4
49855,105652,4
49859,105643,5
49858,105647,5
49875,105649,5
49858,105644,4
49857,105641,5
49854,105641,5
49871,105637,5
49849,105629,5
49855,105639,4
49843,105628,5
49860,105626,5
49848,105627,5
49851,105630,5
49850,105637,4
49860,105651,5
49845,105636,5
49854,105654,5
49859,105644,5
49863,105642,4
49868,105653,5
49861,105656,5
49862,105663,5
49857,105636,5
49860,105656,4
49862,105656,5
49865,105661,5
49871,105652,5
49872,105678,5
49877,105673,4
49870,105669,5
49864,105680,5
49868,105664,5
49867,105663,4
49864,105653,4
49864,105663,5
49849,105634,5
49854,105621,5
49836,105614,5
49842,105628,4
49827,105609,5
49828,105587,5
49830,105598,5
49831,105604,4
49839,105611,5
49843,105610,5
49844,105615,5
49847,105607,5
49839,105606,4
49834,105613,5
49841,105613,5
49844,105609,5
49845,105606,5
49849,105611,4
49835,105611,5
49847,105600,5
49835,105608,5
49845,105606,5
49836,105602,4
49834,105593,6
49833,105601,4
49839,105604,5
49831,105595,4
49842,105599,6
49833,105602,3
49842,105603,5
49837,105599,5
49835,105599,4
49841,105593,5
49839,105601,5
49835,105595,5
49845,105603,5
49833,105591,4
49834,105594,5
49829,105610,5
49827,105592,5
49825,105591,5
49821,105581,4
49821,105579,5
49821,105580,5
49828,105589,5
49831,105594,5
49836,105595,4
49833,105599,5
49837,105596,6
49837,105615,4
49841,105614,5
49838,105610,4
49849,105621,5
49845,105613,5
49839,105621,5
49841,105621,5
49852,105630,4
49853,105626,5
49844,105632,5
49852,105626,5
49843,105631,4
49856,105630,5
49848,105626,5
49852,105636,5
49854,105630,5
49849,105633,4
49847,105634,5
49848,105635,5
49844,105641,5
49843,105643,5
49865,105642,4
49862,105654,5
49865,105648,5
49865,105652,6
49861,105644,4
49848,105644,4
49852,105641,5
49850,105644,5
49849,105645,5
49852,105643,5
49851,105637,4
49851,105643,5
49853,105643,5
49858,105644,5
49857,105642,5
49855,105648,4
49860,105646,5
49864,105649,5
49858,105651,5
49857,105661,4
49859,105653,5
49864,105676,5
49861,105665,5
49872,105668,5
49868,105665,5
49866,105675,4
49855,105665,5
49870,105678,5
49883,105680,6
49875,105698,3
49857,105695,5
49882,105691,5
49882,105698,5
49876,105687,5
49890,105698,4
49887,105700,5
49881,105694,5
49878,105697,5
49893,105698,5
49874,105676,4
49870,105685,5
49874,105680,5
49887,105665,5
49870,105667,5
49872,105669,4
49869,105683,5
49886,105683,5
49878,105685,5
49882,105686,4
49883,105693,5
49884,105694,4
49887,105700,5
49877,105695,5
49880,105691,6
49886,105681,3
49875,105698,5
49880,105697,5
49882,105703,5
49892,105695,4
49889,105707,5
49883,105702,5
49883,105699,5
49882,105701,5
49885,105703,4
49881,105706,5
49879,105705,5
49882,105719,5
49878,105703,5
49889,105708,4
49889,105708,5
49888,105734,5
49901,105720,5
49888,105730,5
49894,105725,4
49890,105750,6
49897,105725,4
49900,105730,5
49893,105726,4
49898,105721,4
49887,105718,5
49898,105733,5
49906,105729,5
49906,105740,4
49913,105753,5
49912,105754,5
49908,105771,5
49917,105769,5
49921,105783,4
49923,105783,5
49930,105789,5
49927,105799,5
49940,105809,5
49934,105813,4
49944,105820,5
49943,105822,5
49945,105814,5
49943,105827,5
49946,105835,4
49952,105844,5
49957,105848,6
49954,105849,4
49959,105874,5
49972,105874,4
49973,105874,5
49972,105882,5
49974,105895,5
49976,105891,5
49971,105885,4
49975,105894,5
49982,105894,5
49979,105899,5
49979,105892,4
49980,105894,5
49986,105911,5
49985,105912,5
49996,105910,5
49990,105910,4
49992,105926,5
49987,105933,5
50000,105937,5
50013,105966,5
50020,105987,4
50031,106008,5
50044,106038,5
50058,106052,6
50067,106068,4
50066,106074,4
50076,106091,5
50080,106101,5
50085,106104,5
50090,106108,5
50090,106116,4
50094,106122,5
50097,106131,5
50100,106148,5
50103,106157,5
50110,106168,4
50107,106169,5
50106,106163,5
50118,106159,5
50114,106160,4
50111,106161,4
50110,106160,5
50107,106148,5
50103,106141,5
50104,106130,5
50094,106131,4
50098,106134,5
50099,106132,5
50096,106146,6
50107,106152,3
50111,106163,5
50109,106175,5
50114,106175,5
50114,106174,5
50115,106171,4
50118,106177,5
50111,106183,5
50121,106180,5
50121,106184,5
50117,106195,4
50116,106186,5
50125,106201,5
50122,106197,5
50126,106206,5
50131,106199,4
50125,106195,5
50117,106208,5
50131,106198,5
50132,106199,5
50131,106215,5
50125,106211,4
50137,106216,5
50138,106214,5
50131,106224,4
50150,106229,4
50144,106228,5
50147,106232,5
50150,106229,5
50169,106238,4
50149,106247,5
50148,106243,5
50146,106249,5
50164,106249,5
50158,106259,4
50153,106269,5
50164,106281,5
50175,106287,5
50174,106290,5
50179,106301,4
50185,106314,5
50188,106321,5
50194,106333,5
50191,106343,5
50194,106346,4
50201,106338,6
50203,106361,4
50207,106357,5
50212,106372,5
50212,106369,4
50221,106389,5
50225,106394,5
50226,106406,5
50227,106409,4
50231,106421,4
50235,106428,5
50239,106423,5
50239,106444,5
50239,106428,4
50238,106432,5
50241,106439,5
50247,106450,5
50244,106441,5
50249,106436,4
50238,106432,5
50236,106440,5
50245,106431,5
50243,106434,5
50246,106432,4
50244,106426,5
50242,106434,6
50252,106448,4
50244,106437,5
50248,106442,4
50250,106448,5
50258,106444,5
50250,106446,5
50253,106456,5
50247,106446,4
50257,106455,5
50254,106460,5
50258,106459,5
50257,106465,5
50258,106476,4
50258,106483,5
50273,106493,5
50276,106494,5
50269,106502,4
50271,106501,5
50282,106508,5
50280,106493,5
50280,106498,5
50289,106511,4
50285,106498,5
50273,106498,5
50270,106502,6
50268,106475,4
50268,106472,4
50259,106468,5
50257,106459,5
50252,106458,5
50261,106470,5
50261,106479,4
50266,106482,5
50268,106481,5
50273,106474,5
50268,106480,5
50268,106475,4
50258,106461,5
50261,106456,5
50255,106455,5
50252,106458,5
50256,106460,4
50245,106446,5
50245,106449,5
50251,106437,5
50239,106430,5
50237,106409,4
50229,106405,5
50228,106393,5
50210,106368,5
50205,106364,4
50207,106342,5
50193,106326,5
50181,106309,5
50182,106294,5
50180,106281,4
50174,106273,5
50163,106261,5
50146,106252,5
50145,106236,5
50135,106219,4
50136,106206,5
50130,106181,5
50117,106155,5
50110,106148,5
50103,106141,4
50105,106128,5
50092,106116,5
50089,106104,5
50087,106096,5
50077,106077,5
50067,106068,8
50055,106046,1
50046,106028,5
50042,106001,4
50026,105990,4
50017,105974,5
50014,105961,5
50023,105957,5
50002,105950,4
50009,105935,5
50005,105936,5
50002,105930,5
49981,105912,5
49993,105902,4
49982,105903,5
49981,105888,5
49970,105883,5
49970,105872,5
49963,105846,4
49952,105837,5
49957,105823,5
49943,105807,5
49938,105792,5
49927,105784,4
49942,105765,6
49919,105764,4
49911,105761,5
49912,105762,5
49920,105752,4
49912,105756,5
49906,105740,5
49903,105741,5
49910,105738,4
49907,105730,4
49906,105736,5
49901,105736,5
49897,105725,5
49901,105720,4
49894,105722,5
49895,105732,5
49894,105712,5
49897,105728,5
49885,105715,4
49895,105711,5
49888,105699,5
49886,105709,5
49887,105715,5
49886,105710,4
49897,105697,5
49883,105703,5
49880,105698,5
49878,105700,5
49885,105698,4
49885,105683,5
49895,105695,5
49880,105691,5
49884,105707,5
49887,105687,4
49880,105693,5
49875,105683,5
49878,105681,5
49874,105668,5
49857,105646,4
49850,105610,5
49841,105597,5
49829,105589,5
49823,105573,5
49821,105550,4
49814,105541,5
49815,105559,5
49816,105554,6
49809,105561,3
49811,105560,5
49810,105561,5
49818,105575,5
49813,105553,5
49817,105559,4
49810,105561,5
49817,105556,5
49807,105563,5
49809,105558,5
49813,105555,4
49812,105551,5
49812,105542,5
49802,105539,5
49805,105540,5
49800,105527,4
49795,105520,5
49796,105533,5
49802,105529,5
49804,105528,5
49803,105530,5
49798,105534,4
49805,105535,5
49812,105532,5
49807,105538,6
49809,105548,3
49821,105549,5
49805,105548,5
49802,105543,5
49810,105545,4
49812,105552,5
49809,105542,5
49805,105536,5
49812,105534,5
49808,105538,4
49816,105549,5
49809,105543,5
49802,105551,5
49805,105553,5
49808,105556,4
49811,105551,5
49817,105546,5
49811,105551,5
49812,105540,5
49814,105560,4
49815,105558,6
49819,105559,4
49816,105559,5
49815,105562,5
49811,105565,6
49817,105558,3
49820,105565,5
49822,105562,5
49814,105555,4
49811,105561,4
49815,105559,5
49810,105554,5
49808,105556,5
49808,105560,4
49824,105556,5
49819,105562,5
49817,105562,5
49817,105552,5
49816,105565,4
49814,105554,5
49816,105570,5
49815,105558,5
49807,105551,5
49821,105553,4
49811,105553,5
49820,105548,6
49809,105553,4
49813,105555,5
49809,105560,4
49806,105548,5
49807,105561,5
49816,105556,5
49816,105557,5
49796,105552,4
49807,105552,5
49814,105545,5
49812,105553,5
49806,105562,5
49813,105562,4
49815,105564,5
49817,105567,5
49829,105564,5
49816,105564,4
49825,105565,5
49816,105570,5
49838,105574,5
49820,105571,5
49828,105569,4
49826,105574,5
49838,105577,5
49824,105578,6
49830,105580,4
49822,105585,4
49831,105593,5
49827,105602,5
49828,105597,5
49833,105600,5
49837,105598,4
49834,105596,5
49841,105603,5
49840,105602,5
49840,105600,5
49842,105616,4
49848,105620,5
49849,105615,5
49854,105609,5
49851,105623,5
49853,105634,4
49859,105645,5
49861,105630,5
49854,105646,5
49859,105642,5
49850,105633,4
49861,105651,5
49845,105622,5
49830,105599,6
49830,105575,3
49821,105578,5
49814,105556,5
49813,105551,5
49797,105544,5
49810,105554,4
49810,105544,5
49816,105559,5
49819,105559,5
49824,105574,5
49826,105577,4
49823,105577,5
49823,105580,5
49830,105585,5
49825,105588,5
49826,105586,4
49822,105577,5
49828,105576,5
49819,105567,5
49822,105574,5
49811,105568,5
49820,105568,4
49819,105559,5
49819,105562,5
49818,105556,6
49821,105562,3
49807,105569,5
49821,105558,5
49819,105562,5
49825,105562,4
49827,105565,5
49825,105577,5
49822,105587,5
49826,105583,5
49830,105583,4
49822,105586,5
49827,105593,5
49825,105585,5
49821,105585,5
49828,105582,4
49829,105582,5
49827,105583,5
49823,105564,5
49826,105578,5
49828,105583,4
49822,105575,6
49817,105573,4
49826,105580,5
49822,105580,5
49818,105590,4
49828,105585,5
49828,105580,5
49832,105584,5
49828,105581,5
49832,105595,4
49829,105591,5
49824,105591,5
49833,105584,5
49825,105592,4
49837,105606,4
49834,105595,5
49826,105599,5
49837,105600,5
49830,105598,4
49837,105606,5
49842,105598,5
49838,105603,5
49844,105599,5
49829,105595,4
49831,105594,5
49834,105594,6
49833,105600,4
49833,105598,5
49834,105596,4
49833,105596,5
49835,105592,5
49830,105596,5
49834,105600,5
49826,105600,4
49832,105593,5
49834,105603,5
49833,105591,5
49828,105580,5
49826,105585,4
49824,105589,5
49824,105585,5
49830,105578,5
49830,105583,5
49828,105577,4
49826,105577,5
49827,105580,5
49822,105587,5
49824,105591,4
49831,105580,4
49820,105584,5
49829,105592,6
49829,105590,4
49828,105595,4
49824,105591,5
49827,105585,5
49829,105589,5
49835,105583,5
49820,105583,4
49826,105587,5
49833,105591,5
49826,105592,5
49833,105585,5
49823,105589,4
49820,105583,5
49829,105574,5
49845,105588,5
49822,105589,5
49825,105593,4
49830,105587,5
49840,105590,5
49828,105586,5
49824,105593,5
49840,105596,4
49838,105589,5
49830,105604,5
49831,105607,6
49832,105602,3
49835,105604,4
49839,105601,5
49843,105608,5
49839,105609,5
49847,105606,4
49846,105622,5
49846,105621,5
49849,105616,5
49842,105602,5
49840,105617,4
49841,105607,5
49835,105589,5
49834,105582,5
49816,105575,5
49821,105574,4
49823,105561,5
49811,105565,5
49815,105570,5
49817,105561,5
49827,105567,5
49823,105594,4
49825,105578,5
49821,105579,5
49823,105577,5
49832,105596,4
49823,105579,5
49825,105583,5
49822,105584,5
49829,105581,5
49830,105593,4
49831,105600,5
49829,105587,5
49826,105590,5
49830,105587,4
49822,105586,4
49830,105594,5
49835,105595,5
49829,105595,5
49829,105604,4
49834,105596,5
49835,105601,5
49836,105601,5
49832,105605,5
49840,105612,4
49841,105604,6
49832,105609,4
49835,105615,5
49833,105613,5
49832,105607,4
49843,105613,5
49838,105616,5
49843,105615,5
49843,105605,5
49836,105612,4
49849,105615,5
49854,105627,5
49850,105633,5
49851,105641,5
49853,105641,4
49860,105656,5
49864,105658,5
49870,105668,5
49866,105681,5
49880,105674,4
49881,105681,5
49873,105680,5
49878,105684,5
49874,105687,4
49877,105686,5
49882,105691,6
49880,105690,4
49879,105690,5
49885,105694,4
49888,105711,5
49893,105715,5
49906,105727,5
49894,105734,5
49904,105744,4
49902,105739,5
49898,105737,5
49903,105745,5
49900,105756,5
49912,105749,4
49911,105754,5
49911,105750,5
49900,105758,5
49910,105758,5
49901,105757,4
49905,105756,5
49903,105757,5
49909,105760,5
49912,105764,5
49910,105766,4
49921,105770,5
49928,105783,5
49926,105789,5
49934,105808,4
49939,105808,4
49934,105817,5
49944,105826,5
49954,105832,5
49954,105835,4
49954,105851,5
49963,105855,5
49958,105866,6
49962,105881,4
49970,105875,4
49963,105877,5
49971,105875,5
49963,105888,5
49975,105895,5
49986,105904,4
49992,105923,5
49982,105933,5
49998,105934,5
49999,105934,5
50008,105936,4
49983,105943,5
49996,105933,5
49994,105937,5
50003,105927,5
49987,105925,4
49990,105914,5
49984,105908,5
49974,105899,5
49999,105894,4
49987,105899,4
49981,105908,5
49985,105908,5
50000,105919,5
49991,105910,4
49989,105913,5
49990,105926,5
49991,105922,5
49988,105919,5
49995,105927,4
49992,105925,5
49998,105927,5
49998,105927,5
49993,105919,5
49996,105914,5
49993,105914,4
49991,105911,5
49991,105915,5
49986,105919,5
49988,105909,4
49993,105923,5
49993,105917,5
49999,105916,5
49989,105903,5
49994,105927,4
49996,105919,5
49993,105925,5
49998,105944,5
49997,105932,5
49996,105927,4
49993,105938,5
50004,105949,5
50004,105948,5
50003,105939,4
50004,105946,4
50011,105963,6
50006,105968,4
50016,105987,5
50029,105987,4
50030,106009,7
50037,106008,3
50043,106024,5
50048,106032,5
50053,106039,4
50057,106046,5
50049,106045,5
50048,106060,5
50061,106062,5
50056,106058,4
50060,106065,5
50066,106066,5
50070,106077,5
50078,106090,5
50067,106084,4
50079,106096,5
50070,106091,5
50082,106108,5
50084,106108,5
50087,106118,4
50094,106112,5
50094,106127,6
50097,106142,4
50096,106148,4
50111,106143,4
50110,106154,5
50103,106162,5
50112,106154,5
50110,106172,4
50112,106161,5
50108,106166,5
50117,106167,5
50116,106171,5
50116,106178,4
50118,106185,5
50119,106193,5
50121,106191,5
50120,106197,5
50134,106187,4
50126,106200,5
50132,106204,5
50135,106206,5
50137,106221,5
50147,106236,4
50137,106240,5
50141,106231,5
50150,106238,6
50156,106251,4
50162,106260,4
50161,106282,5
50164,106278,5
50178,106305,5
50172,106298,5
50176,106291,4
50173,106296,5
50173,106311,5
50173,106296,5
50176,106294,4
50160,106279,5
50165,106273,5
50168,106266,5
50166,106279,5
50170,106279,4
50167,106285,5
50182,106305,5
50186,106311,5
50197,106322,5
50204,106346,5
50203,106351,4
50206,106346,5
50206,106360,5
50199,106354,6
50202,106374,3
50202,106364,5
50208,106374,5
50215,106373,5
50220,106372,5
50215,106374,4
50220,106374,5
50222,106383,5
50218,106392,5
50222,106397,5
50219,106392,4
50229,106395,5
50232,106401,5
50228,106403,5
50225,106411,4
50237,106422,4
50243,106424,5
50221,106426,5
50248,106443,5
50257,106446,4
50257,106446,6
50235,106460,4
50257,106460,5
50262,106467,5
50264,106461,6
50267,106466,3
50263,106470,5
50270,106491,5
50271,106500,5
50288,106501,4
50274,106508,5
50275,106512,5
50277,106515,5
50294,106508,5
50286,106514,4
50280,106514,5
50282,106531,5
50297,106528,5
50291,106541,5
50294,106550,4
50299,106551,5
50302,106558,5
50309,106572,5
50309,106583,4
50311,106582,4
50315,106569,6
50320,106595,4
50320,106590,5
50319,106587,4
50311,106559,5
50315,106577,5
50323,106583,5
50312,106573,5
50308,106560,4
50299,106554,5
50299,106560,5
50306,106549,5
50291,106556,5
50300,106542,4
50289,106542,5
50294,106529,5
50292,106548,5
50285,106529,5
50285,106529,4
50290,106520,5
50285,106518,5
50279,106512,5
50275,106490,5
50268,106489,4
50258,106475,5
50264,106465,6
50254,106446,4
50251,106427,4
50229,106428,4
50229,106404,5
50223,106378,5
50213,106365,5
50210,106345,4
50195,106333,5
50186,106317,5
50179,106306,5
50170,106285,5
50167,106264,4
50154,106241,5
50140,106219,5
50133,106199,5
50118,106159,5
50090,106110,4
50080,106085,5
50057,106042,5
50042,106023,5
50035,105988,5
50022,105989,4
50020,105977,5
50020,105982,5
50022,105974,6
50018,105968,4
50017,105958,4
50011,105953,5
50003,105942,5
50001,105937,5
49993,105925,4
49993,105913,4
49994,105912,5
49988,105903,5
49974,105895,5
49978,105884,4
49977,105878,5
49975,105876,5
49971,105868,5
49968,105863,5
49956,105845,4
49958,105841,5
49944,105824,5
49950,105817,5
49948,105813,5
49946,105807,5
49943,105801,4
49934,105791,5
49937,105801,5
49934,105809,6
49934,105794,3
49927,105783,5
49934,105795,5
49922,105791,5
49927,105786,5
49922,105779,4
49925,105780,5
49929,105779,5
49924,105778,5
49924,105783,5
49925,105783,4
49919,105787,5
49925,105787,5
49917,105780,5
49926,105767,4
49921,105772,5
49927,105761,5
49920,105771,5
49918,105767,5
49920,105771,4
49919,105773,6
49917,105774,4
49915,105763,5
49911,105752,5
49918,105755,4
49911,105759,5
49910,105755,5
49908,105756,5
49905,105752,5
49904,105750,4
49898,105740,5
49905,105744,5
49906,105746,5
49884,105736,5
49902,105744,4
49897,105727,5
49899,105728,5
49880,105731,5
49895,105718,5
49892,105723,4
49891,105712,5
49893,105711,5
49891,105701,5
49886,105705,4
49886,105704,4
49890,105699,6
49890,105704,4
49875,105692,5
49885,105697,4
49897,105696,5
49876,105688,5
49885,105685,5
49884,105690,5
49888,105680,4
49880,105684,5
49875,105686,5
49885,105680,5
49868,105687,5
49878,105684,4
49874,105669,5
49873,105667,5
49867,105660,5
49865,105672,5
49871,105671,4
49870,105675,5
49870,105655,5
49873,105676,5
49879,105675,5
49868,105673,4
49864,105672,5
49878,105671,6
49872,105677,4
49868,105684,4
49873,105684,4
49870,105681,5
49872,105683,5
49868,105689,5
49874,105699,4
49875,105675,5
49868,105680,5
49875,105693,5
49869,105703,5
49875,105691,4
49882,105701,5
49877,105709,5
49885,105701,5
49886,105700,5
49878,105694,4
49874,105696,5
49876,105693,5
49871,105684,5
49869,105655,5
49852,105645,4
49848,105631,5
49848,105620,5
49848,105614,5
49832,105612,5
49837,105615,4
49836,105612,5
49840,105621,5
49836,105619,5
49850,105626,5
49842,105617,4
49843,105618,5
49840,105619,5
49845,105617,5
49847,105628,4
49838,105622,4
49835,105612,5
49841,105624,5
49844,105627,5
49839,105619,4
49846,105629,5
49844,105625,5
49847,105624,5
49852,105618,5
49843,105622,5
49839,105617,4
49839,105618,5
49839,105610,5
49833,105613,5
49831,105591,4
49837,105599,5
49838,105613,5
49838,105605,5
49832,105603,5
49842,105607,4
49839,105598,5
49828,105610,5
49837,105600,5
49835,105595,5
49835,105596,4
49833,105591,5
49826,105589,5
49838,105589,5
49831,105585,4
49829,105589,4
49833,105583,5
49829,105587,5
49827,105592,5
49819,105589,4
49832,105593,6
49826,105597,4
49825,105585,5
49833,105594,5
49832,105592,4
49827,105587,5
49826,105591,5
49831,105601,5
49825,105602,5
49829,105585,4
49831,105583,5
49831,105582,5
49829,105596,5
49821,105584,5
49831,105589,4
49828,105588,5
49825,105581,5
49824,105590,5
49830,105574,5
49831,105580,4
49818,105574,5
49828,105577,5
49825,105578,8
49821,105572,2
49815,105575,4
49814,105565,6
49817,105572,4
49819,105577,5
49819,105571,4
49802,105567,5
49815,105560,5
49812,105556,5
49809,105563,5
49800,105562,4
49815,105560,5
49807,105565,5
49814,105560,5
49811,105559,5
49815,105566,4
49813,105565,5
49812,105562,5
49819,105566,5
49810,105559,5
49815,105562,4
49821,105549,5
49817,105554,5
49813,105552,5
49807,105553,5
49808,105560,4
49822,105559,5
49813,105562,5
49817,105552,5
49816,105563,5
49809,105566,4
49806,105569,5
49813,105565,5
49812,105563,5
49819,105567,4
49822,105580,4
49820,105579,5
49822,105572,5
49818,105562,5
49822,105572,4
49812,105585,5
49827,105567,5
49827,105564,5
49824,105581,5
49829,105602,5
49838,105597,4
49838,105612,5
49835,105610,5
49836,105608,6
49835,105600,3
49829,105620,5
49821,105612,5
49836,105596,5
49826,105578,5
49810,105583,4
49812,105564,5
49807,105560,5
49800,105550,5
49801,105553,5
49802,105550,4
49811,105559,5
49814,105561,5
49811,105564,5
49818,105568,4
49821,105565,4
49823,105562,5
49817,105566,5
49819,105570,5
49817,105554,4
49815,105570,6
49817,105570,4
49804,105561,5
49815,105561,5
49814,105564,6
49807,105563,3
49817,105564,5
49807,105560,5
49808,105564,5
49816,105550,4
49806,105552,5
49811,105552,5
49802,105547,5
49804,105551,5
49804,105543,4
49802,105546,5
49798,105548,5
49812,105547,5
49807,105555,5
49806,105543,4
49806,105540,5
49813,105545,5
49811,105545,5
49806,105542,5
49793,105531,4
49809,105540,6
49795,105525,4
49798,105533,5
49801,105533,4
49802,105537,6
49805,105535,3
49799,105526,5
49799,105533,5
49795,105528,4
49798,105520,5
49798,105526,5
49800,105539,5
49802,105534,5
49802,105543,4
49804,105538,5
49810,105537,5
49792,105536,5
49811,105531,5
49796,105533,4
49799,105534,5
49797,105535,5
49799,105531,5
49804,105529,5
49806,105534,4
49794,105538,5
49799,105541,6
49799,105541,4
49804,105536,5
49801,105541,4
49802,105533,5
49807,105534,5
49808,105530,5
49804,105540,4
49802,105540,4
49797,105541,5
49805,105536,5
49796,105532,5
49800,105543,4
49803,105544,5
49799,105543,5
49801,105537,5
49802,105545,5
49810,105543,4
49801,105554,5
49808,105555,5
49806,105543,5
49808,105545,5
49806,105541,4
49806,105552,5
49788,105549,5
49807,105545,6
49806,105550,4
49799,105541,4
49787,105542,5
49802,105536,5
49807,105541,5
49801,105541,5
49779,105529,4
49798,105524,5
49796,105533,5
49806,105535,5
49801,105538,5
49799,105553,4
49814,105547,5
49801,105552,5
49829,105552,5
49818,105555,4
49816,105561,5
49816,105567,5
49838,105567,5
49822,105571,5
49818,105570,5
49825,105580,4
49821,105581,5
49821,105585,5
49826,105586,6
49822,105588,3
49826,105588,5
49825,105588,5
49820,105577,5
49829,105577,5
49821,105564,4
49811,105570,5
49820,105561,5
49815,105569,5
49812,105548,5
49812,105566,4
49807,105558,5
49816,105565,5
49812,105569,5
49815,105582,5
49823,105579,4
49827,105584,5
49814,105584,5
49822,105589,5
49821,105586,4
49822,105580,5
49811,105591,4
49822,105567,5
49820,105575,5
49818,105577,4
49809,105585,5
49823,105573,5
49809,105566,5
49817,105568,5
49811,105570,4
49817,105564,5
49806,105568,5
49803,105566,5
49816,105561,5
49809,105560,4
49808,105554,5
49818,105571,5
49807,105570,5
49812,105566,5
49819,105580,4
49818,105579,5
49817,105587,5
49821,105586,5
49823,105576,5
49817,105583,4
49822,105570,6
49815,105562,4
49814,105564,5
49813,105569,5
49817,105577,4
49816,105581,5
49822,105588,5
49824,105590,5
49816,105588,4
49829,105597,5
49822,105604,5
49835,105594,5
49833,105596,5
49829,105605,4
49829,105611,5
49831,105607,5
49834,105604,5
49830,105603,5
49831,105605,4
49833,105593,5
49830,105599,5
49830,105609,5
49828,105606,5
49835,105606,4
49832,105612,5
49830,105606,6
49842,105617,4
49831,105613,5
49848,105625,4
49839,105627,5
49842,105628,5
49851,105637,5
49850,105646,5
49855,105649,4
49858,105663,5
49858,105671,5
49863,105675,5
49870,105676,4
49884,105688,4
49870,105695,5
49874,105693,5
49880,105722,5
49878,105718,4
49889,105732,5
49889,105735,5
49897,105736,5
49902,105752,5
49907,105765,4
49915,105768,5
49914,105770,5
49912,105778,6
49921,105792,4
49914,105795,4
49920,105787,5
49924,105805,5
49928,105814,5
49937,105825,5
49934,105822,4
49936,105828,5
49943,105836,5
49945,105827,5
49944,105838,5
49941,105841,4
49943,105828,5
49945,105824,5
49942,105826,5
49933,105817,5
49927,105807,4
49929,105810,5
49917,105805,5
49928,105799,5
49929,105807,5
49935,105824,4
49923,105824,5
49944,105828,5
49943,105849,5
49952,105843,4
49940,105856,5
49952,105875,5
49966,105881,5
49961,105889,5
49981,105894,4
49970,105891,5
49980,105906,5
49977,105898,5
49998,105920,5
49984,105924,4
49985,105936,5
49996,105946,5
50004,105940,5
50001,105958,5
49994,105954,4
50002,105976,5
50017,105974,5
50019,105981,5
50023,105999,5
50021,106003,5
50029,106010,4
50039,106028,5
50041,106029,5
50042,106041,4
50048,106041,4
50057,106050,5
50061,106072,5
50065,106067,5
50066,106062,4
50069,106090,5
50073,106109,5
50077,106108,5
50081,106129,5
50094,106138,4
50096,106149,5
50105,106158,5
50111,106186,5
50108,106180,5
50113,106188,4
50117,106194,5
50118,106205,5
50124,106210,5
50119,106209,5
50140,106226,4
50145,106251,6
50155,106261,4
50158,106271,5
50160,106278,5
50176,106303,4
50182,106318,5
50182,106329,5
50189,106335,5
50189,106346,4
50186,106341,4
50197,106344,5
50197,106349,5
50190,106352,5
50194,106353,4
50199,106351,5
50208,106362,5
50198,106353,5
50197,106361,5
50205,106361,4
50208,106363,5
50209,106357,5
50211,106367,5
50212,106379,5
50209,106385,4
50218,106392,5
50213,106387,6
50221,106402,4
50217,106399,5
50224,106396,4
50226,106401,5
50220,106378,5
50217,106385,5
50220,106379,5
50212,106381,4
50212,106371,5
50212,106372,5
50211,106375,5
50207,106367,5
50209,106363,4
50203,106353,5
50206,106351,5
50197,106350,5
50194,106332,4
50193,106309,5
50178,106296,5
50177,106288,5
50163,106287,5
50155,106270,4
50156,106265,5
50156,106269,5
50150,106265,5
50151,106263,5
50159,106260,4
50158,106260,5
50152,106243,5
50149,106236,5
50142,106223,5
50127,106212,4
50125,106199,5
50123,106183,5
50112,106185,5
50112,106164,5
50104,106143,4
50089,106125,5
50080,106108,5
50076,106092,5
50074,106078,5
50067,106052,4
50054,106048,5
50040,106041,5
50048,106037,5
50038,106025,5
50030,106016,4
50039,106009,5
50029,105994,5
50028,105981,5
50026,105985,4
50010,105962,5
50008,105946,5
50005,105937,5
49997,105923,5
49992,105917,5
49987,105902,4
49976,105894,5
49973,105877,5
49959,105865,5
49968,105874,4
49959,105860,5
49954,105851,5
49947,105845,5
49948,105839,5
49950,105836,4
49938,105827,5
49920,105815,5
49934,105806,5
49935,105800,5
49928,105789,5
49927,105781,4
49929,105780,5
49919,105772,5
49916,105781,4
49936,105774,4
49913,105762,5
49927,105779,5
49915,105776,5
49930,105775,4
49915,105775,5
49920,105770,5
49913,105780,5
49932,105776,5
49916,105769,4
49915,105765,5
49915,105776,5
49906,105758,5
49914,105771,5
49907,105759,4
49906,105760,5
49904,105726,6
49905,105743,4
49902,105737,5
49909,105747,4
49893,105711,7
49888,105728,3
49890,105715,5
49896,105711,5
49888,105699,4
49882,105703,5
49887,105690,5
49879,105696,5
49866,105698,5
49877,105675,4
49869,105678,5
49874,105676,5
49869,105694,5
49864,105665,4
49865,105663,5
49866,105656,5
49861,105671,5
49864,105656,5
49852,105660,4
49851,105655,5
49864,105657,5
49864,105658,6
49857,105658,4
49859,105663,4
49866,105651,5
49863,105652,5
49859,105642,5
49857,105635,5
49852,105630,4
49841,105611,5
49830,105588,5
49827,105569,5
49810,105563,5
49806,105534,4
49796,105533,5
49797,105526,5
49800,105538,5
49800,105540,5
49801,105541,4
49797,105536,5
49804,105542,5
49810,105541,5
49794,105535,5
49799,105528,4
49803,105541,5
49797,105535,5
49799,105534,6
49804,105534,3
49800,105542,5
49800,105533,5
49805,105529,5
49802,105536,5
49798,105530,4
49800,105524,5
49793,105528,5
49800,105532,5
49793,105530,5
49807,105530,4
49794,105532,5
49797,105518,5
49792,105519,5
49792,105534,5
49796,105524,4
49798,105536,5
49809,105539,5
49795,105527,5
49798,105525,5
49799,105531,5
49796,105522,4
49788,105520,5
49791,105520,5
49789,105522,6
49793,105515,3
49795,105513,5
49792,105517,5
49795,105525,5
49791,105526,4
49795,105528,5
49799,105529,5
49796,105523,5
49799,105523,5
49792,105525,4
49801,105536,5
49802,105538,5
49803,105535,5
49802,105533,5
49803,105539,4
49811,105542,5
49801,105538,5
49802,105539,5
49806,105538,5
49803,105538,4
49802,105545,6
49810,105556,4
49807,105555,5
49813,105560,5
49812,105552,4
49809,105560,5
49811,105557,5
49817,105559,5
49816,105565,5
49806,105565,4
49808,105553,5
49808,105548,5
49814,105553,5
49790,105541,4
49807,105545,4
49809,105546,5
49802,105558,5
49798,105545,5
49805,105564,4
49815,105554,5
49814,105561,5
49807,105572,5
49822,105571,5
49827,105568,4
49813,105582,5
49830,105574,6
49822,105580,4
49822,105582,5
49826,105580,4
49838,105576,5
49812,105577,5
49824,105578,5
49816,105573,5
49826,105577,4
49822,105574,5
49813,105581,5
49831,105595,5
49825,105591,5
49834,105599,4
49826,105600,5
49842,105615,5
49839,105607,5
49847,105633,4
49847,105625,4
49842,105624,5
49848,105624,5
49845,105632,5
49851,105630,4
49834,105612,5
49832,105584,5
49831,105590,6
49822,105587,4
49819,105568,4
49812,105570,5
49812,105568,5
49812,105562,5
49814,105570,5
49813,105590,4
49810,105568,5
49822,105585,5
49819,105586,5
49822,105588,5
49814,105577,4
49818,105569,5
49825,105571,5
49816,105576,5
49811,105570,5
49813,105578,4
49821,105575,5
49819,105585,5
49815,105570,5
49809,105569,5
49822,105567,4
49811,105566,5
49817,105571,5
49812,105559,6
49804,105559,3
49815,105554,4
49813,105557,5
49806,105561,5
49815,105556,5
49806,105557,4
49812,105563,5
49815,105562,5
49809,105558,5
49801,105559,5
49800,105552,4
49804,105559,5
49804,105558,5
49799,105551,5
49803,105544,5
49802,105547,4
49804,105554,5
49806,105555,5
49804,105555,5
49803,105544,5
49807,105550,5
49800,105552,4
49811,105548,5
49811,105554,5
49809,105555,5
49809,105551,4
49814,105558,5
49807,105572,5
49818,105563,5
49819,105568,4
49818,105575,4
49822,105574,5
49817,105587,5
49823,105578,5
49829,105585,4
49829,105587,5
49828,105597,5
49826,105600,5
49831,105591,5
49827,105586,4
49823,105594,5
49823,105586,5
49816,105589,5
49819,105596,5
49828,105580,4
49824,105579,6
49820,105588,4
49822,105582,5
49823,105592,5
49814,105574,4
49823,105578,5
49823,105584,5
49820,105575,5
49819,105577,5
49812,105575,4
49818,105572,5
49820,105580,5
49821,105571,5
49820,105582,5
49816,105577,4
49830,105570,5
49816,105582,5
49825,105573,5
49822,105579,4
49820,105573,5
49818,105568,5
49822,105571,5
49813,105586,5
49820,105572,4
49816,105580,5
49817,105564,6
49810,105568,4
49818,105576,5
49814,105575,4
49809,105573,5
49817,105572,5
49821,105567,5
49817,105576,5
49797,105571,4
49814,105584,5
49825,105576,5
49821,105578,5
49813,105585,5
49826,105578,4
49820,105577,5
49813,105579,5
49829,105586,5
49818,105587,5
49823,105588,4
49831,105599,5
49848,105591,5
49832,105602,5
49827,105594,4
49828,105601,4
49849,105607,5
49837,105628,6
49843,105625,4
49838,105632,4
49847,105613,5
49835,105623,5
49832,105615,5
49836,105599,5
49829,105580,4
49824,105574,5
49809,105559,5
49803,105558,5
49806,105540,5
49798,105536,4
49792,105533,5
49797,105544,5
49803,105536,5
49804,105558,5
49805,105563,4
49817,105554,5
49810,105560,5
49813,105563,5
49805,105555,5
49804,105562,4
49805,105573,5
49816,105552,5
49808,105553,5
49810,105564,5
49807,105565,4
49808,105552,5
49804,105551,5
49799,105543,5
49799,105567,4
49799,105539,5
49796,105526,5
49797,105535,5
49799,105528,5
49796,105524,4
49803,105525,5
49796,105529,5
49800,105524,5
49793,105536,5
49802,105533,4
49798,105546,5
49800,105536,5
49798,105539,5
49807,105541,5
49801,105536,5
49794,105531,4
49801,105530,5
49780,105506,5
49789,105509,5
49785,105509,4
49784,105523,5
49788,105511,5
49793,105514,5
49795,105525,5
49796,105536,4
49803,105527,5
49794,105540,5
49805,105546,5
49807,105548,4
49806,105561,4
49807,105569,5
49805,105565,5
49811,105568,5
49808,105564,4
49811,105572,5
49806,105559,5
49812,105564,5
49815,105567,5
49811,105572,4
49810,105573,6
49812,105570,4
49814,105572,5
49805,105576,5
49808,105562,4
49809,105562,5
49816,105578,5
49820,105584,5
49820,105579,5
49816,105587,4
49817,105588,5
49822,105575,5
49823,105591,5
49819,105592,5
49819,105591,4
49821,105585,5
49816,105588,5
49822,105581,5
49818,105586,5
49815,105579,4
49814,105585,5
49820,105583,5
49820,105579,5
49822,105584,4
49812,105584,5
49821,105590,6
49820,105578,4
49828,105576,5
49814,105576,4
49817,105590,5
49836,105591,5
49822,105585,5
49822,105578,5
49819,105590,4
49827,105590,5
49821,105590,5
49826,105598,5
49828,105594,5
49831,105595,4
49832,105610,5
49837,105619,5
49836,105609,5
49827,105608,5
49835,105607,7
49829,105608,2
49829,105598,5
49825,105586,5
49816,105573,5
49812,105569,4
49799,105560,5
49808,105563,5
49809,105553,5
49803,105541,4
49795,105559,4
49810,105572,5
49812,105569,5
49822,105571,5
49819,105575,4
49818,105575,5
49809,105571,5
49817,105568,5
49829,105567,5
49809,105579,4
49813,105574,5
49817,105575,5
49835,105571,5
49815,105573,5
49810,105573,5
49815,105578,4
49825,105578,5
49816,105575,5
49821,105574,6
49820,105578,3
49818,105585,5
49817,105582,5
49820,105593,5
49831,105595,5
49829,105592,4
49833,105609,5
49833,105610,5
49834,105627,5
49830,105611,5
49835,105630,4
49845,105629,5
49843,105625,5
49835,105619,5
49839,105621,4
49840,105617,5
49841,105622,5
49842,105634,5
49845,105629,5
49847,105630,4
49846,105650,6
49858,105682,4
49855,105670,5
49866,105669,5
49865,105674,6
49863,105690,3
49871,105690,5
49880,105689,5
49877,105703,5
49878,105706,4
49878,105700,5
49888,105709,5
49890,105718,5
49885,105719,5
49887,105726,4
49889,105744,5
49901,105735,5
49897,105758,5
49898,105758,5
49907,105764,4
49915,105772,5
49906,105772,5
49917,105775,5
49915,105777,4
49908,105785,4
49915,105794,6
49926,105794,4
49924,105786,5
49913,105789,4
49926,105798,7
49924,105797,3
49922,105805,5
49930,105808,5
49921,105817,4
49941,105819,5
49933,105820,5
49945,105813,5
49948,105826,5
49946,105838,4
49950,105844,5
49953,105852,5
49956,105851,5
49966,105864,5
49963,105878,4
49962,105884,5
49971,105898,5
49980,105919,5
49984,105926,5
49998,105946,4
50001,105949,5
50007,105957,6
50001,105956,4
50001,105956,4
50005,105962,4
50006,105956,5
49995,105957,5
50001,105933,5
49978,105920,4
49983,105921,5
49985,105917,5
49978,105904,5
49984,105903,5
49983,105913,4
49980,105906,5
49983,105912,5
49981,105920,5
49996,105921,5
49989,105936,4
49996,105936,5
49987,105927,5
49984,105930,5
49987,105925,5
49980,105921,4
49982,105918,5
49983,105910,5
49973,105897,6
49970,105902,4
49971,105899,4
49977,105897,5
49973,105891,5
49975,105889,5
49971,105890,5
49967,105887,4
49970,105883,5
49971,105882,5
49970,105880,5
49968,105879,4
49965,105882,4
49966,105884,5
49968,105874,5
49961,105869,5
49964,105867,4
49958,105854,5
49952,105852,5
49932,105834,5
49929,105811,5
49939,105811,5
49926,105797,4
49904,105792,5
49924,105783,5
49924,105780,6
49920,105787,3
49916,105766,5
49911,105774,5
49916,105771,5
49912,105769,5
49915,105775,4
49908,105772,5
49905,105767,5
49903,105758,5
49923,105754,5
49905,105747,4
49898,105749,5
49895,105729,5
49900,105737,5
49901,105733,5
49883,105727,4
49888,105713,5
49889,105720,5
49889,105710,5
49882,105711,4
49885,105709,6
49881,105693,4
49882,105693,5
49875,105693,5
49877,105693,4
49868,105673,5
49873,105681,5
49877,105683,5
49869,105680,5
49864,105670,4
49869,105674,5
49866,105679,5
49864,105682,5
49873,105684,5
49874,105676,4
49865,105674,5
49870,105673,5
49875,105690,5
49863,105675,5
49869,105670,4
49863,105664,5
49868,105689,5
49872,105673,5
49856,105676,5
49861,105680,4
49874,105697,6
49870,105696,4
49871,105702,5
49877,105695,4
49875,105695,4
49867,105683,5
49865,105675,5
49859,105667,5
49845,105645,4
49845,105624,5
49836,105614,5
49836,105605,5
49826,105591,5
49822,105591,4
49823,105582,5
49823,105591,5
49829,105593,5
49838,105604,5
49827,105606,4
49829,105603,5
49831,105607,5
49841,105611,5
49837,105620,5
49838,105612,4
49835,105608,5
49832,105622,6
49840,105625,4
49846,105630,5
49836,105625,4
49843,105617,5
49841,105626,5
49832,105611,5
49835,105604,5
49835,105607,4
49832,105607,5
49835,105609,5
49828,105606,5
49835,105602,4
49833,105605,4
49850,105618,5
49828,105611,5
49837,105622,5
49838,105610,4
49835,105616,5
49837,105610,5
49836,105612,5
49838,105610,5
49829,105601,4
49832,105607,5
49834,105609,5
49834,105611,6
49831,105605,4
49838,105609,4
49836,105615,5
49843,105617,5
49840,105617,5
49840,105604,5
49835,105625,4
49839,105615,5
49834,105609,5
49833,105620,5
49829,105615,5
49831,105610,4
49836,105608,5
49836,105615,5
49828,105605,5
49835,105616,4
49833,105614,4
49836,105609,5
49843,105620,5
49829,105620,5
49840,105610,5
49837,105622,4
49851,105621,5
49835,105606,5
49844,105608,5
49836,105616,4
49833,105602,5
49842,105611,5
49831,105603,5
49834,105603,5
49840,105608,4
49838,105617,5
49829,105608,5
49839,105620,5
49832,105620,5
49835,105617,4
49842,105619,5
49836,105617,5
49820,105604,5
49837,105618,5
49835,105609,4
49832,105605,5
49822,105613,5
49832,105608,5
49836,105618,5
49846,105624,5
49841,105639,4
49853,105647,5
49855,105650,5
49862,105654,4
49866,105649,5
49849,105648,5
49840,105642,5
49845,105626,5
49863,105628,4
49832,105612,5
49826,105602,5
49824,105593,5
49832,105587,5
49815,105571,4
49809,105570,5
49807,105569,5
49817,105572,5
49813,105584,5
49823,105578,4
49815,105584,5
49829,105577,5
49826,105588,5
49827,105593,5
49818,105598,4
49828,105596,6
49819,105588,4
49825,105594,5
49815,105592,5
49820,105585,4
49827,105589,5
49821,105590,5
49818,105580,5
49818,105576,4
49813,105567,4
49817,105578,5
49812,105569,5
49817,105589,5
49808,105575,4
49812,105574,5
49812,105585,5
49821,105588,5
49817,105579,5
49822,105598,4
49829,105590,5
49819,105598,5
49817,105580,5
49825,105588,5
49825,105587,4
49822,105580,5
49820,105572,6
49822,105587,4
49825,105574,5
49815,105590,4
49821,105576,5
49818,105589,5
49822,105586,5
49820,105587,5
49819,105589,4
49822,105596,5
49831,105587,5
49825,105585,5
49830,105597,5
49825,105599,4
49830,105602,5
49820,105600,5
49826,105599,5
49833,105607,4
49819,105601,5
49832,105605,5
49829,105607,5
49834,105607,5
49829,105599,4
49823,105596,5
49832,105614,5
49837,105614,5
49831,105623,5
49828,105614,4
49834,105620,5
49831,105613,5
49833,105615,5
49841,105619,5
49838,105612,4
49831,105614,5
49826,105615,5
49827,105604,5
49833,105607,5
49832,105608,4
49823,105602,5
49824,105619,5
49833,105615,5
49832,105614,5
49827,105625,4
49834,105613,5
49837,105606,5
49834,105605,5
49835,105612,5
49832,105607,4
49826,105607,5
49825,105616,5
49829,105612,5
49829,105620,4
49828,105615,5
49836,105611,5
49835,105625,5
49840,105625,5
49833,105622,4
49839,105627,5
49841,105634,5
49839,105646,5
49854,105647,5
49843,105652,4
49851,105664,5
49861,105680,5
49868,105683,5
49871,105685,5
49876,105699,4
49862,105684,5
49870,105685,4
49859,105682,5
49861,105665,5
49851,105645,5
49843,105630,3
49844,105621,5
49844,105617,5
49836,105612,4
49823,105601,9
49827,105609,0
49827,105593,5
49834,105625,5
49842,105629,4
49832,105629,5
49839,105627,5
49845,105633,5
49822,105631,5
49842,105634,4
49849,105634,5
49835,105626,5
49826,105625,5
49844,105627,5
49841,105622,4
49842,105623,5
49842,105625,6
49833,105627,4
49827,105624,5
49838,105612,4
49852,105613,7
49839,105619,3
49833,105611,5
49830,105615,5
49840,105605,4
49836,105604,5
49825,105603,5
49833,105614,5
49840,105616,5
49830,105622,4
49835,105615,5
49839,105616,5
49835,105609,5
49831,105618,4
49834,105607,4
49830,105607,5
49819,105582,5
49826,105597,5
49823,105594,4
49823,105599,5
49836,105588,5
49834,105601,6
49832,105610,4
49830,105608,4
49824,105594,5
49829,105610,5
49835,105609,5
49836,105608,5
49832,105627,4
49826,105612,5
49833,105618,5
49831,105619,5
49836,105641,5
49833,105614,4
49848,105613,5
49831,105620,5
49842,105645,5
49843,105626,5
49842,105622,4
49835,105622,5
49837,105626,5
49839,105620,5
49833,105602,5
49831,105606,4
49838,105604,5
49821,105596,5
49824,105591,6
49812,105574,3
49810,105569,5
49808,105553,5
49796,105544,5
49788,105521,5
49770,105489,4
49754,105478,5
49750,105452,5
49735,105428,5
49739,105413,5
49733,105406,4
49727,105397,5
49725,105397,5
49729,105387,5
49721,105384,5
49722,105388,4
49716,105389,5
49716,105373,5
49711,105382,5
49710,105370,5
49713,105369,5
49710,105374,4
49710,105362,5
49702,105354,5
49706,105358,6
49711,105351,3
49703,105355,5
49705,105375,5
49703,105360,5
49704,105368,4
49709,105382,5
49719,105386,5
49720,105396,5
49721,105397,5
49718,105392,4
49725,105394,5
49718,105387,5
49725,105377,5
49719,105381,5
49710,105366,4
49698,105353,5
49700,105360,5
49708,105367,5
49697,105350,5
49700,105348,4
49702,105360,6
49702,105375,4
49714,105377,5
49717,105378,5
49723,105389,4
49720,105386,5
49719,105391,5
49721,105400,5
49726,105391,5
49725,105391,4
49721,105400,5
49733,105406,5
49728,105409,5
49733,105417,4
49732,105412,4
49736,105417,5
49732,105428,5
49740,105421,5
49739,105429,4
49735,105421,5
49744,105424,5
49736,105418,5
49738,105427,5
49747,105439,4
49738,105444,5
49751,105444,6
49749,105447,4
49758,105455,5
49753,105455,4
49745,105452,5
49758,105453,5
49754,105453,5
49748,105450,5
49746,105444,4
49743,105443,5
49751,105448,5
49744,105446,5
49738,105452,5
49755,105459,4
49757,105458,5
49763,105456,5
49750,105459,5
49749,105451,5
49752,105459,4
49751,105467,5
49761,105454,5
49756,105465,5
49771,105459,4
49762,105462,4
49775,105465,5
49767,105468,6
49758,105462,4
49758,105472,4
49766,105479,5
49759,105482,5
49768,105477,5
49759,105493,5
49767,105479,4
49771,105489,5
49770,105492,5
49776,105503,5
49780,105494,5
49781,105493,4
49774,105488,5
49775,105492,5
49772,105482,5
49775,105488,5
49774,105493,4
49773,105495,5
49771,105478,5
49770,105491,5
49773,105506,5
49773,105490,4
49771,105484,5
49761,105488,5
49773,105486,6
49773,105496,3
49775,105516,4
49774,105492,5
49773,105499,5
49771,105498,5
49783,105512,4
49778,105497,5
49781,105506,5
49783,105506,5
49782,105511,5
49782,105497,4
49780,105503,5
49785,105519,5
49785,105513,5
49794,105525,5
49793,105533,4
49795,105538,5
49798,105537,5
49790,105530,5
49794,105537,5
49787,105530,5
49791,105524,4
49793,105514,5
49773,105495,5
49777,105487,5
49765,105480,4
49768,105481,5
49764,105471,5
49764,105468,5
49763,105479,5
49767,105493,4
49773,105487,5
49773,105486,5
49762,105488,5
49771,105496,4
49767,105488,5
49760,105489,5
49776,105484,5
49767,105485,5
49770,105487,4
49776,105487,5
49774,105495,5
49771,105503,5
49766,105485,5
49762,105492,4
49769,105495,6
49770,105486,4
49767,105488,5
49770,105488,5
49770,105489,4
49775,105480,5
49770,105485,5
49772,105485,5
49765,105477,5
49774,105491,4
49771,105490,5
49781,105502,5
49771,105497,5
49778,105499,5
49769,105495,4
49770,105496,5
49773,105491,5
49765,105472,5
49772,105480,4
49765,105482,4
49772,105479,5
49762,105485,5
49773,105480,5
49773,105484,4
49772,105488,5
49766,105481,6
49774,105476,4
49768,105489,5
49764,105478,4
49764,105488,5
49765,105493,5
49778,105494,5
49773,105495,5
49775,105501,4
49771,105496,5
49780,105492,5
49773,105501,5
49780,105496,5
49770,105490,4
49776,105502,5
49772,105501,5
49775,105499,5
49767,105490,5
49771,105493,4
49781,105487,5
49778,105498,5
49780,105504,5
49778,105498,5
49778,105500,4
49769,105503,5
49774,105508,6
49780,105501,4
49774,105499,4
49758,105505,5
49777,105502,5
49781,105502,5
49784,105490,5
49754,105506,4
49784,105492,5
49777,105498,5
49779,105498,5
49776,105505,5
49776,105493,4
49778,105510,5
49776,105519,5
49787,105504,5
49781,105513,5
49780,105503,4
49779,105509,5
49798,105506,5
49785,105520,5
49792,105515,5
49788,105514,4
49794,105527,5
49786,105516,5
49784,105534,5
49788,105528,5
49792,105527,4
49780,105529,5
49788,105527,5
49798,105538,5
49794,105534,4
49801,105550,4
49811,105552,5
49810,105585,5
49815,105565,5
49811,105574,4
49815,105572,5
49814,105563,5
49809,105553,5
49807,105557,5
49807,105545,4
49791,105530,5
49793,105533,5
49788,105526,5
49788,105524,5
49782,105514,5
49780,105527,4
49785,105519,5
49794,105523,5
49784,105516,5
49789,105541,4
49795,105533,5
49798,105540,5
49797,105531,5
49790,105534,5
49791,105531,4
49791,105520,5
49792,105526,5
49794,105525,5
49786,105531,4
49786,105526,4
49797,105534,5
49784,105539,5
49791,105524,5
49788,105528,4
49795,105534,5
49788,105537,5
49793,105532,5
49791,105528,5
49786,105520,4
49786,105518,6
49784,105514,4
49787,105514,5
49790,105515,5
49793,105530,4
49786,105525,5
49793,105522,5
49789,105524,5
49785,105523,5
49794,105535,4
49787,105511,5
49786,105522,5
49799,105518,5
49791,105525,5
49792,105524,4
49793,105537,5
49784,105537,5
49799,105538,5
49785,105530,5
49798,105539,4
49796,105546,5
49801,105538,5
49802,105549,5
49797,105549,4
49801,105548,5
49802,105562,6
49810,105555,4
49807,105549,5
49799,105549,4
49805,105552,5
49800,105557,5
49805,105562,5
49806,105553,5
49804,105564,4
49803,105564,5
49812,105571,5
49805,105564,5
49815,105573,5
49809,105561,4
49811,105565,5
49813,105574,5
49812,105565,5
49808,105565,5
49819,105561,4
49804,105572,5
49819,105578,5
49818,105574,6
49808,105573,4
49811,105574,4
49817,105578,5
49819,105580,5
49810,105579,5
49813,105578,4
49812,105574,4
49811,105579,5
49818,105572,5
49822,105576,5
49816,105586,4
49815,105595,5
49823,105586,5
49820,105594,5
49826,105600,5
49823,105592,4
49825,105598,5
49834,105602,7
49823,105599,3
49829,105613,5
49837,105605,5
49827,105617,4
49820,105627,5
49845,105636,5
49846,105640,6
49857,105671,3
49852,105679,5
49863,105679,5
49863,105682,5
49862,105680,5
49855,105663,4
49860,105675,5
49862,105666,5
49846,105647,5
49852,105646,5
49851,105647,4
49841,105643,5
49845,105635,5
49854,105634,5
49843,105642,4
49843,105640,4
49848,105658,5
49869,105659,5
49858,105672,5
49854,105669,4
49854,105664,6
49856,105663,4
49863,105673,5
49855,105684,5
49865,105674,6
49861,105662,3
49866,105685,5
49859,105676,5
49863,105671,5
49858,105655,4
49853,105660,5
49862,105662,5
49859,105669,5
49858,105651,5
49858,105667,4
49866,105669,5
49853,105672,5
49858,105675,5
49866,105691,5
49865,105681,4
49866,105702,5
49871,105710,5
49866,105690,5
49874,105696,5
49880,105702,4
49880,105720,6
49872,105704,4
49875,105704,5
49873,105699,4
49871,105699,5
49874,105696,5
49870,105702,5
49883,105710,5
49884,105715,4
49888,105731,5
49894,105732,5
49892,105740,5
49902,105753,5
49905,105763,4
49908,105782,5
49907,105773,5
49916,105789,5
49921,105789,5
49929,105806,4
49919,105801,5
49926,105819,5
49930,105820,5
49934,105820,5
49929,105829,4
49948,105821,5
49931,105833,6
49945,105839,4
49946,105840,5
49940,105856,4
49951,105853,5
49959,105871,5
49958,105869,5
49955,105879,4
49957,105885,4
49978,105898,5
49969,105894,5
49971,105915,5
49982,105912,4
49979,105923,5
49982,105922,5
49985,105934,5
49990,105940,5
49983,105944,4
49998,105947,5
49992,105950,5
50000,105964,5
50011,105971,5
50008,105974,4
50014,105986,5
50024,105989,5
50020,105994,6
50024,105997,4
50029,106012,4
50026,106023,5
50030,106029,5
50047,106047,5
50058,106062,5
50066,106083,4
50067,106089,5
50074,106102,5
50074,106110,5
50077,106103,5
50078,106102,4
50075,106107,5
50073,106101,5
50070,106097,5
50067,106075,4
50063,106070,5
50065,106078,5
50058,106074,5
50059,106074,5
50065,106078,5
50065,106087,4
50061,106099,5
50071,106106,5
50074,106114,6
50087,106115,3
50082,106126,5
50088,106127,5
50081,106130,5
50092,106134,5
50084,106137,4
50089,106147,5
50091,106143,5
50098,106148,5
50093,106157,5
50096,106161,4
50105,106158,5
50106,106160,5
50105,106165,5
50099,106176,5
50117,106177,4
50112,106185,5
50110,106189,5
50116,106195,5
50129,106204,4
50125,106214,5
50120,106216,4
50138,106234,5
50141,106236,5
50141,106243,4
50145,106246,5
50136,106250,5
50148,106258,5
50147,106258,5
50165,106265,4
50149,106276,5
50155,106285,5
50162,106291,5
50186,106298,5
50164,106295,4
50174,106310,5
50175,106316,5
50185,106320,5
50178,106321,5
50184,106324,4
50186,106341,5
50182,106338,5
50191,106337,5
50187,106340,5
50197,106360,4
50203,106353,6
50203,106372,4
50206,106386,5
50215,106387,4
50225,106389,4
50221,106410,5
50222,106408,5
50230,106415,5
50230,106396,4
50224,106416,5
50234,106420,5
50232,106422,5
50227,106433,5
50231,106432,4
50232,106426,5
50234,106433,5
50236,106448,5
50235,106436,5
50237,106435,4
50236,106442,5
50238,106470,5
50236,106459,5
50244,106461,5
50255,106468,4
50253,106485,5
50251,106475,6
50263,106472,4
50252,106474,5
50257,106479,4
50265,106487,5
50264,106497,5
50261,106503,5
50269,106510,5
50275,106512,4
50279,106527,5
50284,106531,5
50294,106558,5
50305,106574,4
50316,106585,5
50322,106599,5
50322,106608,5
50312,106610,5
50324,106613,4
50318,106610,5
50332,106609,5
50315,106604,5
50320,106595,5
50309,106586,4
50312,106587,5
50311,106574,5
50316,106583,6
50310,106583,4
50313,106594,4
50319,106598,5
50323,106614,5
50328,106626,5
50334,106637,5
50334,106634,4
50339,106643,5
50335,106632,5
50335,106643,5
50347,106643,5
50340,106647,4
50341,106666,5
50351,106660,5
50354,106663,5
50345,106675,4
50351,106668,4
50356,106675,5
50348,106675,5
50357,106680,5
50353,106684,5
50358,106682,4
50355,106678,5
50368,106683,5
50356,106679,5
50355,106683,4
50366,106690,5
50360,106699,5
50365,106689,5
50360,106708,5
50367,106704,4
50372,106702,5
50379,106708,5
50371,106715,5
50367,106711,5
50376,106716,4
50380,106723,5
50384,106728,5
50382,106732,5
50393,106741,5
50377,106738,4
50386,106736,5
50383,106752,5
50389,106746,5
50388,106747,4
50393,106755,5
50393,106756,4
50394,106762,5
50393,106755,5
50397,106762,4
50399,106769,5
50399,106767,5
50405,106761,5
50396,106778,5
50405,106790,4
50396,106780,5
50406,106791,5
50412,106783,5
50396,106782,5
50417,106783,4
50410,106784,5
50410,106776,5
50389,106776,5
50404,106767,5
50401,106761,4
50396,106753,5
50379,106749,5
50393,106743,5
50390,106738,5
50379,106741,4
50384,106724,6
50373,106715,4
50365,106712,5
50371,106692,5
50372,106674,4
50355,106671,5
50340,106662,5
50337,106649,5
50344,106642,4
50335,106620,5
50320,106616,5
50319,106608,5
50321,106600,5
50314,106586,4
50308,106587,5
50308,106579,5
50306,106561,5
50295,106558,5
50296,106544,4
50288,106524,5
50272,106489,5
50270,106480,5
50256,106454,5
50231,106413,4
50213,106348,5
50198,106324,6
50181,106300,4
50160,106271,5
50156,106237,4
50143,106228,5
50145,106220,5
50123,106214,5
50128,106220,5
50124,106199,4
50116,106191,5
50106,106177,5
50103,106169,5
50089,106135,4
50085,106117,4
50076,106083,5
50066,106078,5
50066,106058,5
50054,106053,4
50045,106037,5
50044,106036,5
50037,106018,5
50028,105998,5
50026,105988,4
50009,105970,5
50006,105961,5
50002,105951,5
50002,105950,5
49992,105936,4
49991,105936,5
49994,105928,5
49991,105926,5
49993,105924,5
49992,105919,4
49987,105905,5
49984,105905,5
49973,105893,5
49969,105882,5
49969,105866,4
49964,105859,5
49947,105852,5
49951,105842,5
49946,105839,4
49949,105842,4
49945,105831,5
49942,105824,5
49941,105829,5
49937,105822,5
49939,105822,4
49934,105819,5
49937,105817,5
49940,105811,5
49935,105818,4
49938,105802,5
49936,105805,5
49927,105806,5
49924,105808,5
49928,105800,4
49924,105792,5
49924,105801,5
49932,105796,5
49928,105789,5
49916,105785,4
49925,105784,5
49915,105775,5
49920,105771,5
49925,105769,5
49915,105776,4
49915,105770,6
49913,105772,4
49908,105759,5
49909,105757,4
49906,105758,6
49915,105754,3
49902,105750,5
49912,105759,5
49899,105750,4
49905,105738,5
49906,105745,5
49902,105755,5
49903,105752,5
49902,105742,4
49898,105738,5
49899,105736,5
49900,105741,5
49891,105744,5
49896,105742,4
49900,105752,5
49905,105741,5
49897,105739,5
49901,105748,5
49893,105745,4
49901,105741,5
49905,105740,6
49897,105748,4
49895,105742,5
49891,105743,4
49896,105742,5
49904,105747,9
49897,105752,1
49901,105771,5
49898,105743,4
49899,105747,5
49904,105762,5
49906,105763,5
49895,105770,4
49908,105771,4
49915,105765,5
49909,105763,5
49893,105755,5
49902,105753,4
49897,105727,5
49881,105714,5
49880,105687,5
49877,105682,5
49869,105668,4
49862,105665,5
49870,105659,5
49859,105655,6
49861,105662,4
49864,105660,4
49878,105666,5
49856,105669,5
49866,105674,5
49857,105670,5
49867,105670,4
49859,105664,5
49862,105665,5
49862,105661,5
49849,105661,5
49853,105660,4
49857,105652,5
49855,105660,5
49853,105649,5
49853,105641,4
49852,105641,4
49854,105636,5
49847,105624,5
49847,105642,5
49848,105639,5
49855,105633,4
49848,105632,5
49854,105643,5
49845,105650,6
49846,105648,3
49853,105650,5
49855,105641,5
49836,105639,5
49845,105639,5
49841,105650,4
49839,105630,5
49837,105623,5
49832,105613,5
49845,105637,5
49843,105619,4
49847,105620,5
49839,105632,5
49844,105631,5
49839,105645,5
49847,105630,4
49844,105640,5
49849,105640,5
49840,105640,5
49847,105643,4
49845,105648,5
49855,105644,4
49853,105644,5
49851,105643,5
49840,105647,6
49845,105635,3
49853,105640,5
49856,105639,5
49843,105642,5
49851,105648,4
49851,105648,5
49850,105652,5
49847,105647,5
49854,105661,5
49857,105657,4
49853,105662,5
49867,105672,5
49865,105664,5
49864,105661,5
49864,105673,4
49861,105671,5
49866,105668,5
49869,105675,5
49866,105682,5
49863,105677,4
49868,105683,6
49864,105680,4
49866,105670,5
49865,105667,5
49857,105671,4
49855,105677,5
49858,105669,5
49866,105663,5
49865,105672,4
49866,105661,5
49859,105670,5
49863,105667,5
49865,105672,5
49858,105672,4
49860,105668,5
49872,105670,5
49856,105675,5
49863,105681,5
49870,105678,4
49870,105674,5
49875,105669,5
49857,105680,5
49870,105676,5
49867,105683,4
49873,105687,5
49868,105683,6
49882,105689,4
49865,105682,5
49877,105682,4
49871,105688,5
49880,105700,5
49879,105709,5
49884,105703,5
49873,105707,4
49878,105706,5
49881,105704,5
49870,105700,5
49872,105676,4
49857,105658,4
49857,105641,5
49840,105632,5
49840,105613,5
49835,105613,4
49832,105609,5
49839,105623,5
49831,105628,5
49845,105624,5
49844,105636,4
49846,105639,5
49844,105633,5
49848,105641,6
49839,105646,4
49848,105640,4
49836,105648,5
49856,105644,5
49857,105658,5
49854,105647,5
49841,105655,4
49851,105648,5
49858,105653,5
49861,105661,5
49851,105657,5
49853,105640,4
49851,105648,5
49849,105651,5
49859,105648,5
49850,105641,5
49854,105647,4
49857,105653,5
49860,105646,5
49852,105651,5
49854,105654,5
49848,105647,4
49855,105637,5
49848,105637,5
49849,105642,6
49843,105633,3
49843,105626,5
49832,105626,5
49839,105625,5
49846,105610,5
49835,105616,4
49843,105621,5
49836,105610,5
49839,105614,5
49840,105601,5
49836,105611,4
49839,105624,5
49842,105621,5
49836,105602,5
49833,105624,5
49834,105622,4
49834,105621,5
49835,105628,5
49848,105632,5
49845,105628,5
49838,105631,5
49839,105640,4
49844,105638,5
49845,105641,5
49847,105644,4
49850,105659,4
49841,105641,5
49840,105630,5
49845,105641,5
49844,105630,4
49843,105630,5
49843,105631,5
49841,105632,5
49842,105631,5
49844,105642,4
49844,105639,5
49844,105641,5
49849,105641,5
49850,105634,5
49845,105642,4
49844,105647,5
49846,105643,5
49850,105653,5
49852,105665,5
49851,105647,4
49847,105655,6
49854,105660,4
49849,105660,5
49854,105643,5
49856,105651,4
49850,105654,5
49847,105662,5
49851,105650,5
49853,105662,5
49861,105653,4
49867,105659,5
49862,105669,5
49867,105677,5
49853,105667,4
49860,105671,5
49864,105665,5
49865,105671,5
49860,105673,5
49868,105685,4
49867,105675,5
49872,105688,5
49869,105683,5
49875,105708,5
49878,105704,4
49875,105710,5
49883,105710,6
49880,105711,4
49878,105702,5
49880,105693,4
49880,105689,5
49863,105674,5
49857,105667,5
49860,105657,5
49852,105652,4
49846,105640,5
49844,105638,5
49853,105648,5
49857,105649,5
49851,105658,4
49866,105661,5
49862,105664,5
49865,105671,5
49862,105669,4
49864,105680,4
49857,105673,5
49861,105670,5
49862,105672,5
49865,105668,4
49867,105677,5
49868,105669,5
49865,105683,5
49861,105676,5
49856,105674,4
49866,105675,5
49855,105673,5
49862,105670,5
49864,105677,5
49861,105675,4
49869,105687,5
49878,105699,5
49880,105702,5
49882,105724,5
49894,105729,4
49898,105728,5
49894,105736,5
49887,105731,5
49893,105726,5
49893,105723,4
49898,105728,5
49884,105725,5
49888,105727,5
49892,105730,5
49891,105732,4
49883,105742,5
49898,105758,5
49913,105769,5
49926,105785,4
49906,105792,5
49926,105803,5
49932,105831,5
49933,105836,5
49951,105845,4
49956,105861,5
49951,105869,5
49963,105877,5
49974,105886,5
49962,105885,4
49970,105896,5
49967,105901,5
49991,105900,5
49985,105908,5
49984,105921,4
49984,105929,5
49999,105935,5
49992,105946,5
50006,105946,5
50007,105961,5
50003,105952,4
50003,105960,5
49997,105967,5
50008,105970,5
50007,105965,4
49999,105987,5
50009,105978,5
50017,105979,5
50019,105959,4
50015,105989,4
50024,105991,5
50016,106005,5
50018,106005,5
50029,106021,4
50032,106030,5
50045,106037,5
50043,106060,5
50052,106052,5
50059,106066,4
50054,106064,5
50057,106096,5
50066,106096,5
50074,106100,5
50076,106104,4
50077,106132,6
50095,106143,4
50099,106152,5
50098,106155,5
50102,106167,4
50106,106160,5
50105,106170,5
50107,106175,5
50103,106178,5
50100,106175,4
50111,106175,5
50105,106162,5
50101,106164,5
50106,106165,5
50096,106166,4
50105,106173,5
50105,106190,5
50120,106198,5
50128,106213,4
50127,106237,5
50144,106258,5
50142,106263,5
50157,106273,4
50163,106289,4
50172,106307,5
50183,106313,5
50188,106341,5
50189,106342,5
50199,106363,4
50206,106379,5
50206,106389,5
50216,106400,5
50221,106416,5
50223,106415,4
50229,106428,5
50244,106422,5
50239,106443,5
50245,106456,5
50246,106452,4
50247,106464,5
50260,106477,5
50262,106490,5
50257,106499,5
50261,106498,4
50266,106498,5
50269,106497,5
50257,106502,6
50263,106505,3
50265,106498,4
50266,106512,5
50273,106511,5
50267,106523,5
50293,106538,4
50283,106551,5
50297,106557,5
50304,106576,5
50306,106594,5
50311,106601,4
50321,106619,5
50324,106620,5
50329,106632,5
50342,106641,5
50339,106656,4
50348,106663,5
50351,106683,5
50359,106688,5
50361,106707,5
50372,106712,5
50382,106737,4
50371,106731,5
50375,106727,5
50381,106746,6
50384,106749,3
50381,106760,5
50396,106768,5
50392,106768,5
50399,106777,5
50401,106782,4
50405,106779,5
50393,106775,5
50401,106785,5
50401,106776,4
50404,106788,5
50400,106781,5
50401,106782,5
50405,106786,6
50396,106779,3
50398,106776,5
50401,106777,5
50390,106779,5
50402,106762,5
50401,106768,4
50392,106758,6
50382,106753,4
50382,106745,5
50380,106733,5
50369,106714,6
50366,106714,3
50371,106706,5
50361,106688,5
50353,106673,5
50351,106656,4
50333,106628,5
50320,106615,5
50318,106594,5
50320,106577,5
50293,106541,4
50276,106525,5
50267,106499,5
50260,106478,5
50249,106463,4
50243,106448,4
50243,106439,5
50245,106441,5
50248,106458,5
50243,106443,4
50247,106443,5
50238,106437,6
50242,106449,4
50240,106443,5
50235,106439,4
50235,106424,5
50229,106434,5
50228,106433,5
50236,106430,5
50232,106418,4
50235,106423,5
50235,106426,5
50235,106429,5
50224,106432,5
50235,106432,4
50235,106415,5
50231,106423,5
50236,106443,5
50229,106448,5
50240,106447,4
50244,106438,5
50249,106466,5
50243,106451,5
50243,106456,5
50230,106442,4
50238,106440,5
50239,106444,6
50237,106447,4
50237,106444,4
50244,106434,5
50233,106443,5
50240,106437,5
50246,106456,5
50237,106439,4
50251,106463,5
50250,106471,5
50255,106464,5
50242,106462,5
50248,106463,4
50245,106469,5
50249,106463,5
50258,106466,5
50254,106468,5
50251,106464,4
50243,106476,5
50258,106466,5
50252,106477,5
50250,106474,5
50258,106478,4
50256,106480,5
50258,106478,5
50262,106482,6
50258,106487,4
50265,106488,4
50258,106477,5
50252,106480,5
50248,106470,5
50246,106464,4
50250,106462,5
50244,106460,5
50242,106444,5
50241,106442,5
50237,106435,4
50223,106436,5
50228,106410,5
50228,106415,5
50222,106394,5
50210,106385,4
50209,106371,5
50200,106361,5
50193,106351,5
50193,106330,5
50173,106303,5
50166,106288,4
50159,106280,5
50161,106261,5
50149,106249,6
50147,106230,3
50135,106199,5
50110,106170,5
50095,106141,5
50088,106117,5
50056,106063,4
50041,106023,5
50012,105968,5
50001,105933,5
49988,105912,4
49970,105908,4
49960,105877,5
49969,105885,5
49965,105880,5
49952,105859,4
49958,105860,5
49952,105838,5
49938,105829,5
49938,105813,5
49932,105806,4
49923,105781,6
49914,105767,4
49910,105753,5
49896,105736,5
49891,105724,4
49881,105692,5
49881,105684,5
49865,105678,5
49863,105673,5
49850,105654,4
49851,105643,5
49844,105628,5
49833,105619,5
49835,105617,5
49830,105599,4
49827,105590,5
49826,105596,5
49805,105580,5
49814,105578,5
49815,105577,4
49813,105576,5
49803,105577,5
49810,105572,5
49814,105563,4
49795,105544,5
49795,105529,6
49791,105518,4
49789,105524,5
49784,105519,4
49798,105518,5
49785,105516,5
49776,105512,5
49778,105509,5
49790,105502,4
49769,105484,5
49770,105491,5
49766,105477,5
49767,105472,5
49765,105474,4
49763,105466,5
49758,105457,5
49755,105456,5
49758,105454,5
49760,105452,4
49748,105449,5
49748,105438,5
49748,105443,5
49751,105443,5
49754,105434,4
49745,105418,5
49740,105431,6
49745,105423,4
49743,105421,4
49730,105409,4
49737,105420,5
49733,105414,5
49737,105413,5
49726,105425,4
49729,105424,5
49738,105414,5
49727,105400,5
49737,105413,5
49719,105399,4
49723,105405,5
49729,105415,5
49726,105423,5
49728,105418,5
49738,105410,4
49736,105411,5
49731,105404,5
49734,105395,5
49727,105380,5
49710,105350,4
49692,105327,5
49688,105307,5
49678,105299,6
49662,105292,4
49659,105274,4
49669,105274,5
49663,105266,5
49662,105274,5
49668,105274,5
49678,105287,4
49676,105293,5
49676,105297,5
49675,105288,5
49672,105292,4
49676,105301,5
49681,105300,5
49679,105305,5
49678,105300,5
49674,105290,4
49681,105302,5
49682,105299,5
49681,105294,5
49680,105297,5
49670,105289,9
49676,105295,5
49681,105306,5
49673,105258,5
49676,105262,8
49667,105288,5
49673,105289,5
49664,105291,5
49648,105294,8
49672,105291,5
49673,105289,5
49676,105298,8
49669,105291,5
49663,105279,5
49669,105285,5
49671,105286,8
49671,105286,5
49667,105287,5
49685,105298,8
49676,105299,5
49677,105306,5
49675,105304,8
49679,105319,5
49677,105331,5
49682,105304,5
49679,105301,8
49675,105308,5
49685,105309,5
49685,105309,8
49685,105325,5
49691,105332,5
49691,105327,5
49687,105333,8
49698,105341,5
49700,105344,5
49701,105326,8
49693,105304,5
49701,105332,5
49707,105339,8
49693,105342,5
49693,105342,5
49705,105355,5
49700,105337,8
49690,105341,5
49703,105354,5
49699,105359,8
49713,105365,5
49719,105367,5
49679,105319,5
49713,105382,8
49723,105400,5
49729,105398,5
49703,105349,8
49703,105349,5
49689,105324,5
49698,105342,8
49694,105329,5
49706,105339,5
49707,105340,5
49687,105321,8
49699,105338,5
49706,105337,5
49730,105352,8
49708,105352,5
49701,105349,5
49710,105349,5
49711,105354,8
49711,105354,5
49732,105346,5
49719,105357,8
49690,105359,5
49706,105334,5
49701,105361,8
49714,105362,5
49706,105364,5
49697,105347,5
49708,105359,8
49707,105354,5
49715,105368,5
49717,105368,8
49717,105368,5
49697,105359,5
49685,105363,5
49708,105364,8
49717,105388,5
49702,105377,5
49716,105369,8
49714,105364,5
49712,105389,5
49721,105372,8
49730,105384,5
49722,105388,5
49729,105388,5
49710,105385,8
49710,105385,5
49724,105399,5
49719,105400,8
49727,105408,5
49732,105395,5
49729,105391,5
49727,105394,8
49742,105397,5
49747,105409,5
49721,105389,8
49729,105396,5
49729,105408,5
49728,105411,8
49728,105411,5
49732,105448,5
49724,105414,5
49701,105297,8
49641,105204,5
49589,105106,5
49583,105041,8
49553,105048,5
49533,105064,5
49578,105109,5
49601,105159,8
49628,105225,5
49662,105280,5
49691,105319,8
49691,105319,5
49719,105400,5
49676,105271,8
49659,105260,5
49642,105223,2
49601,105206,1
49612,105198,3
49637,105209,4
49641,105233,5
49645,105241,5
49642,105236,5
49640,105233,5
49647,105228,4
49638,105216,5
49634,105225,5
49637,105216,5
49633,105227,5
49636,105209,4
49630,105213,5
49626,105199,6
49624,105190,4
49620,105182,5
49622,105178,4
49636,105216,5
49652,105244,5
49664,105282,5
49669,105279,4
49664,105288,4
49662,105283,5
49659,105264,5
49648,105244,5
49645,105232,4
49643,105239,5
49653,105231,5
49652,105238,5
49646,105239,5
49637,105228,4
49628,105209,5
49628,105182,5
49600,105152,5
49594,105124,5
49586,105104,4
49584,105104,5
49586,105121,5
49593,105137,6
49598,105148,7
49609,105168,1
49592,105193,5
49628,105201,5
49634,105210,5
49637,105203,5
49609,105191,4
49628,105186,5
49619,105191,5
49618,105189,5
49605,105190,5
49619,105195,4
49625,105208,5
49628,105215,5
49643,105214,5
49632,105215,4
49636,105213,5
49639,105242,5
49664,105242,5
49658,105250,5
49661,105266,5
49668,105281,4
49687,105289,5
49677,105309,5
49694,105322,6
49698,105337,3
49707,105358,5
49703,105364,5
49707,105375,5
49709,105374,5
49719,105391,4
49729,105405,5
49732,105425,5
49746,105452,5
49757,105448,5
49758,105484,4
49779,105501,5
49780,105513,5
49793,105529,5
49817,105575,5
49826,105596,4
49837,105625,5
49843,105633,5
49846,105632,5
49852,105634,4
49844,105630,5
49842,105632,4
49834,105611,5
49827,105593,5
49825,105598,6
49819,105628,3
49825,105616,5
49833,105609,5
49831,105613,5
49839,105646,4
49841,105638,5
49843,105663,5
49865,105673,5
49858,105691,5
49873,105694,4
49881,105709,5
49891,105722,5
49885,105733,5
49885,105738,5
49896,105746,4
49908,105759,5
49903,105777,5
49912,105782,5
49919,105785,5
49918,105797,4
49927,105792,6
49928,105815,4
49925,105811,5
49937,105821,5
49937,105827,4
49934,105840,5
49946,105847,5
49948,105858,5
49958,105878,4
49967,105875,5
49968,105898,5
49978,105893,5
49969,105906,5
49978,105912,4
49971,105919,5
49983,105911,5
49986,105919,5
49991,105936,5
49990,105940,4
50003,105967,5
50009,105970,5
50012,105984,5
50017,105997,5
50017,106006,4
50028,106009,5
50034,106016,6
50037,106018,4
50033,106029,5
50036,106036,4
50034,106030,5
50034,106041,5
50042,106048,5
50045,106053,5
50058,106061,4
50054,106063,5
50061,106079,5
50065,106093,5
50069,106092,4
50070,106105,4
50067,106115,5
50079,106119,5
50084,106134,5
50094,106138,4
50094,106155,5
50101,106155,5
50108,106174,5
50106,106188,5
50115,106194,4
50115,106207,5
50122,106218,5
50132,106224,6
50138,106243,4
50145,106256,4
50161,106282,5
50170,106311,5
50177,106327,5
50205,106354,5
50211,106383,4
50218,106388,5
50216,106396,5
50219,106391,5
50213,106399,5
50209,106401,4
50213,106385,5
50211,106377,5
50202,106375,5
50208,106368,5
50198,106377,4
50203,106363,5
50196,106378,5
50211,106395,5
50218,106406,5
50225,106418,4
50227,106421,5
50229,106428,5
50244,106445,6
50248,106459,3
50230,106453,5
50246,106466,5
50249,106460,5
50245,106465,5
50249,106474,4
50257,106482,5
50261,106479,5
50256,106478,5
50263,106476,5
50258,106472,4
50253,106477,5
50254,106475,5
50267,106474,5
50258,106479,5
50257,106488,4
50257,106483,5
50272,106486,5
50269,106495,5
50264,106496,5
50262,106508,5
50269,106500,4
50257,106503,5
50265,106485,5
50258,106489,4
50266,106488,4
50263,106487,5
50252,106473,5
50247,106463,5
50238,106429,4
50240,106439,5
50222,106433,5
50225,106411,5
50229,106397,5
50227,106413,4
50222,106419,5
50231,106440,5
50237,106451,5
50243,106444,5
50245,106464,4
50246,106463,5
50244,106491,5
50259,106481,5
50260,106482,5
50258,106483,4
50250,106507,6
50257,106498,4
50258,106501,5
50260,106489,5
50260,106498,4
50261,106493,5
50261,106498,5
50272,106497,5
50259,106490,5
50250,106478,4
50245,106474,5
50254,106472,5
50248,106471,5
50253,106454,4
50239,106453,5
50239,106447,5
50234,106432,5
50225,106425,5
50226,106429,4
50221,106421,5
50218,106412,5
50230,106401,5
50214,106403,5
50215,106379,4
50201,106372,5
50193,106345,6
50177,106334,4
50166,106288,5
50143,106238,4
50120,106175,5
50092,106146,5
50073,106109,5
50060,106067,5
50044,106040,4
50033,106013,5
50017,105986,5
50012,105970,5
49991,105941,5
49984,105923,4
49961,105878,5
49943,105850,5
49928,105819,5
49920,105790,4
49902,105749,4
49898,105732,5
49883,105708,5
49866,105673,5
49862,105660,4
49852,105639,5
49849,105632,5
49841,105608,6
49824,105589,4
49818,105586,4
49810,105561,5
49800,105542,5
49794,105523,5
49787,105518,5
49776,105505,4
49787,105500,5
49787,105494,5
49781,105498,5
49781,105495,5
49770,105490,4
49771,105482,5
49761,105467,5
49769,105462,5
49748,105454,5
49757,105453,4
49751,105446,5
49746,105440,5
49752,105445,5
49751,105460,5
49752,105457,4
49759,105462,5
49754,105461,5
49757,105466,5
49760,105475,4
49755,105468,5
49765,105461,5
49759,105469,5
49759,105460,5
49756,105465,4
49759,105461,5
49756,105462,5
49763,105457,5
49758,105467,5
49761,105452,4
49758,105457,5
49754,105456,5
49742,105454,5
49752,105450,5
49746,105440,4
49752,105447,5
49737,105432,5
49748,105444,5
49750,105433,5
49747,105441,5
49733,105439,4
49748,105445,5
49749,105436,5
49747,105442,5
49750,105432,4
49738,105432,5
49744,105425,5
49742,105409,5
49752,105410,4
49727,105407,4
49732,105408,5
49731,105405,5
49749,105414,5
49732,105407,4
49729,105412,5
49735,105410,5
49736,105417,5
49737,105410,5
49727,105412,4
49726,105400,5
49722,105382,5
49710,105363,5
49695,105324,5
49687,105316,4
49672,105284,6
49677,105283,4
49670,105275,5
49665,105276,5
49665,105270,4
49675,105293,5
49678,105296,5
49676,105307,5
49684,105299,5
49690,105319,4
49690,105317,5
49684,105310,5
49681,105319,5
49678,105307,5
49690,105325,4
49688,105321,5
49682,105329,5
49699,105321,5
49688,105326,4
49687,105311,5
49689,105338,5
49684,105308,6
49685,105313,4
49685,105305,4
49683,105303,5
49689,105309,5
49678,105303,5
49682,105306,5
49675,105303,4
49676,105300,5
49681,105306,5
49683,105298,5
49674,105296,5
49672,105289,4
49669,105286,5
49666,105283,5
49664,105278,5
49671,105292,5
49669,105296,4
49670,105297,5
49681,105290,5
49670,105296,5
49672,105281,5
49669,105293,4
49673,105290,5
49677,105293,5
49671,105298,6
49683,105304,3
49682,105303,4
49672,105298,5
49673,105308,5
49674,105295,5
49673,105307,4
49674,105301,5
49672,105300,5
49683,105310,5
49684,105301,5
49685,105311,4
49678,105306,5
49686,105307,5
49676,105318,5
49681,105304,5
49682,105308,4
49687,105306,5
49679,105318,5
49670,105315,5
49689,105304,5
49694,105314,5
49684,105313,4
49682,105314,5
49683,105315,5
49681,105317,6
49682,105318,3
49686,105324,5
49688,105321,5
49684,105318,5
49692,105317,5
49694,105320,4
49689,105325,5
49686,105328,5
49692,105326,5
49691,105329,4
49684,105319,4
49689,105322,5
49686,105333,5
49692,105322,5
49689,105334,4
49691,105336,5
49698,105330,5
49697,105330,5
49696,105335,5
49695,105342,4
49703,105358,6
49708,105361,4
49699,105361,5
49711,105358,5
49698,105343,6
49689,105346,3
49689,105313,5
49671,105296,5
49664,105281,5
49664,105277,4
49666,105268,5
49654,105262,5
49661,105269,5
49662,105272,5
49662,105279,5
49663,105286,4
49671,105286,5
49660,105289,5
49675,105298,5
49673,105302,4
49673,105299,5
49669,105294,5
49672,105302,5
49674,105297,4
49675,105295,5
49665,105293,6
49675,105301,4
49674,105304,5
49670,105292,4
49677,105286,5
49667,105284,5
49667,105282,5
49667,105278,5
49680,105280,4
49658,105276,5
49664,105291,5
49665,105290,5
49681,105297,5
49683,105304,4
49683,105308,5
49684,105294,5
49683,105309,5
49678,105296,5
49669,105304,4
49672,105292,5
49677,105291,5
49674,105288,5
49671,105288,5
49670,105294,4
49674,105289,5
49678,105290,6
49674,105292,4
49680,105290,4
49680,105290,4
49675,105304,5
49685,105303,5
49682,105321,5
49687,105312,4
49688,105323,5
49698,105332,5
49687,105337,5
49691,105348,5
49701,105345,4
49699,105330,5
49700,105339,5
49699,105354,5
49695,105344,5
49698,105348,4
49698,105353,5
49702,105358,5
49696,105351,5
49705,105353,5
49698,105340,4
49698,105359,5
49704,105348,5
49698,105351,6
49701,105343,4
49702,105342,4
49689,105339,5
49693,105341,5
49694,105344,5
49691,105339,5
49694,105339,4
49692,105334,5
49699,105340,5
49701,105345,5
49695,105347,4
49700,105342,4
49700,105342,5
49697,105337,5
49703,105337,5
49691,105336,4
49698,105334,5
49699,105343,5
49690,105336,5
49701,105340,5
49696,105344,5
49697,105336,4
49701,105351,5
49704,105363,5
49702,105359,6
49708,105368,3
49704,105371,5
49705,105369,5
49716,105351,5
49702,105357,5
49697,105345,4
49689,105322,5
49684,105308,5
49677,105297,5
49669,105291,5
49673,105289,4
49664,105289,5
49676,105296,5
49675,105300,5
49678,105304,5
49680,105316,4
49685,105312,5
49686,105313,5
49690,105322,5
49687,105321,4
49680,105310,6
49681,105308,4
49684,105317,5
49689,105322,5
49688,105318,4
49680,105324,5
49692,105322,5
49678,105319,5
49686,105315,5
49689,105328,4
49689,105325,5
49687,105322,5
49692,105326,5
49690,105319,5
49698,105339,4
49685,105341,5
49689,105331,5
49687,105341,5
49700,105335,5
49698,105328,4
49692,105331,5
49690,105340,5
49689,105330,5
49689,105330,5
49690,105323,4
49692,105324,6
49687,105322,4
49693,105329,5
49689,105335,4
49701,105336,4
49694,105348,5
49706,105355,5
49703,105350,5
49709,105361,4
49705,105358,5
49712,105377,5
49712,105364,5
49692,105365,5
49714,105372,4
49712,105373,5
49714,105371,5
49700,105375,5
49710,105378,5
49714,105382,4
49715,105379,5
49705,105393,5
49722,105389,5
49718,105393,5
49720,105394,4
49734,105402,5
49727,105406,6
49728,105414,4
49732,105416,5
49746,105417,4
49738,105430,5
49732,105433,5
49745,105433,5
49760,105437,5
49742,105443,4
49749,105438,5
49737,105442,5
49749,105426,5
49739,105433,4
49735,105432,4
49724,105430,5
49738,105425,5
49742,105423,5
49735,105430,4
49744,105417,5
49738,105402,5
49732,105422,5
49744,105438,5
49734,105431,4
49749,105438,5
49758,105469,5
49753,105469,6
49754,105449,4
49753,105434,4
49742,105437,5
49744,105429,5
49737,105415,5
49722,105416,5
49728,105397,4
49722,105380,5
49724,105390,5
49713,105409,5
49722,105401,5
