RED,IR,EKG,TIME
83191,130210,12
83161,130204,7
83131,130157,5
83122,130130,10
83114,130097,5
83107,130179,5
83133,130161,10
83133,130161,5
83160,130189,5
83189,130239,10
83215,130314,5
83251,130319,5
83361,130446,10
83361,130446,5
83354,130459,5
83361,130445,10
83336,130417,5
83303,130370,5
83237,130322,10
83213,130263,5
83173,130203,5
83003,129974,10
83003,129974,5
82985,129954,7
82977,129958,8
82993,129962,5
83007,129974,7
83099,130105,8
83099,130105,5
83072,130063,7
83023,129991,8
82961,129883,5
82925,129851,7
82879,129762,8
82813,129677,5
82743,129625,7
82682,129533,8
82682,129533,5
82696,129518,7
82701,129561,8
82711,129573,5
82730,129601,7
82741,129618,8
82858,129760,7
82858,129760,5
82863,129789,8
82889,129811,7
82904,129829,5
82917,129856,8
82935,129853,7
82955,129889,5
83012,129983,8
83012,129983,7
83041,130046,8
83081,130076,5
83070,130068,7
83077,130053,5
83079,130063,8
83037,129996,7
83037,129996,5
83048,129976,8
82988,129954,7
82971,129907,5
82940,129868,8
82907,129843,7
82864,129782,5
82729,129604,4
82729,129604,1
82729,129604,4
82730,129609,5
82743,129594,5
82744,129608,4
82679,129618,5
82763,129638,5
82780,129662,5
82810,129703,4
82739,129742,5
82861,129789,5
82903,129816,5
82930,129869,5
82913,129901,4
82987,129942,5
83007,129979,6
83029,130011,4
83107,130043,5
83066,130059,4
83075,130070,5
83092,130077,5
83203,130095,5
83085,130094,5
83095,130105,4
83104,130097,5
83161,130083,5
83091,130086,5
83086,130082,4
83073,130070,4
83092,130055,5
83070,130045,5
83051,130043,5
83045,130017,5
83023,129948,4
83009,129970,5
82969,129921,5
82920,129831,6
82839,129621,3
82729,129550,5
82585,129343,5
82415,129095,5
82226,128747,5
82058,128604,4
81904,128414,5
81801,128284,5
81758,128248,5
81727,128202,5
81724,128197,4
81724,128190,5
81723,128286,5
81741,128236,5
81785,128292,4
81834,128365,4
81890,128548,5
81942,128521,5
82014,128606,5
82091,128727,4
82170,128862,5
82226,128886,5
82250,128908,5
82213,128861,5
82124,128721,5
82027,128604,4
81957,128503,5
81894,128387,5
81790,128255,5
81724,128170,4
81673,128106,5
81638,128066,5
81624,128050,5
81610,128037,5
81614,128048,4
81638,128054,5
81649,128082,5
81679,128141,5
81716,128202,4
81781,128284,5
81844,128391,5
81925,128491,5
82005,128596,5
82087,128700,4
82158,128811,5
82236,128920,5
82305,129015,5
82375,129100,5
82431,129180,4
82482,129259,6
82539,129315,4
82566,129353,5
82583,129365,5
82589,129377,4
82591,129378,5
82590,129380,5
82589,129370,5
82584,129373,4
82597,129372,4
82584,129365,5
82568,129339,5
82555,129321,5
82535,129299,4
82515,129275,5
82494,129230,5
82470,129203,5
82447,129156,5
82405,129111,4
82367,129067,5
82346,129015,5
82302,128966,5
82256,128905,5
82226,128859,4
82188,128819,5
82147,128757,5
82126,128715,5
82104,128691,5
82086,128658,4
82079,128663,5
82076,128653,5
82075,128664,5
82086,128677,4
82094,128701,4
82127,128739,5
82155,128785,5
82196,128823,5
82235,128891,4
82264,128941,5
82304,129000,5
82359,129061,5
82388,129109,5
82424,129156,5
82459,129205,4
82486,129238,5
82505,129261,5
82512,129271,6
82518,129283,3
82522,129298,5
82547,129317,5
82544,129321,5
82539,129306,5
82529,129305,4
82535,129299,5
82524,129276,5
82501,129250,5
82427,129231,4
82461,129198,4
82437,129164,5
82417,129120,5
82289,129081,5
82347,129047,4
82328,128997,5
82286,128951,5
82159,128920,5
82239,128886,5
82207,128849,4
82181,128810,6
82186,128775,4
82137,128753,5
82114,128717,5
82088,128669,6
82136,128620,3
81988,128534,5
81909,128412,5
81799,128252,5
81763,128074,4
81543,127894,5
81425,127735,5
81302,127571,5
81256,127450,4
81136,127358,4
81096,127300,5
81074,127266,5
81058,127235,5
81066,127260,4
81078,127275,5
81087,127307,5
81105,127251,5
81137,127363,5
81175,127430,4
81213,127469,5
81245,127423,6
81260,127539,4
81282,127567,5
81298,127588,5
81313,127545,4
81298,127581,5
81245,127471,5
81115,127287,5
80985,127177,4
80902,127007,5
80812,126900,5
80721,126755,5
80632,126755,4
80583,126574,4
80549,126532,5
80540,126519,5
80540,126590,5
80546,126529,4
80568,126555,5
80584,126602,5
80640,126672,5
80695,126749,5
80759,126843,4
80842,126967,5
80932,127089,5
81020,127210,6
81103,127329,4
81171,127430,4
81258,127536,5
81330,127629,5
81405,127731,5
81458,127804,5
81505,127883,4
81548,127931,5
81590,127969,5
81616,128021,5
81633,128039,4
81652,128052,4
81647,128074,5
81662,128079,5
81660,128079,5
81689,128117,4
81704,128134,5
81692,128120,5
81684,128097,5
81666,128073,5
81633,128031,5
81609,127987,4
81566,127941,5
81530,127882,5
81492,127827,6
81443,127758,3
81390,127694,5
81355,127633,5
81310,127575,5
81268,127529,5
81251,127496,4
81230,127468,5
81224,127478,5
81229,127476,5
81229,127479,4
81232,127495,4
81245,127507,5
81264,127531,5
81289,127561,5
81303,127602,4
81335,127629,5
81363,127671,5
81405,127729,5
81446,127794,5
81479,127853,4
81531,127914,6
81572,127970,4
81608,128016,5
81645,128062,5
81669,128091,4
81687,128124,5
81692,128126,5
81694,128132,5
81693,128137,5
81703,128129,4
81699,128131,5
81691,128112,5
81681,128104,5
81666,128084,4
81652,128051,5
81616,128024,5
81598,127985,5
81559,127942,5
81520,127891,4
81481,127831,5
81441,127769,5
81381,127685,5
81330,127611,5
81255,127503,4
81167,127371,5
81069,127233,6
80961,127075,4
80839,126915,5
80738,126764,4
80629,126618,5
80540,126527,5
80506,126463,5
80470,126420,5
80445,126401,4
80377,126382,5
80438,126375,5
80444,126389,5
80442,126400,4
80365,126403,5
80463,126403,5
80476,126421,5
80479,126429,5
80412,126427,4
80477,126437,5
80469,126418,5
80451,126403,5
80477,126368,5
80400,126309,4
80324,126166,5
80129,125898,5
80056,125663,6
79847,125533,4
79769,125422,4
79685,125305,5
79688,125205,5
79571,125162,5
79562,125150,5
79564,125157,4
79604,125189,5
79603,125222,5
79653,125286,5
79714,125377,4
79799,125489,5
79910,125666,5
80035,125847,5
80171,126039,5
80322,126155,4
80455,126438,5
80587,126597,5
80700,126759,5
80797,126801,5
80876,126992,5
80944,127081,4
81000,127159,5
81047,127202,5
81076,127265,5
81114,127305,4
81134,127346,5
81154,127454,5
81177,127410,5
81196,127446,5
81227,127482,4
81265,127635,5
81286,127533,5
81265,127534,5
81254,127510,4
81243,127544,5
81217,127458,5
81197,127413,5
81162,127368,5
81110,127299,4
81048,127205,5
80995,127135,5
80940,127059,5
80890,127001,5
80862,126944,4
80819,126896,6
80803,126872,4
80792,126863,5
80796,126869,5
80797,126867,4
80811,126885,5
80828,126916,5
80858,126952,5
80903,127018,5
80944,127087,4
81004,127171,5
81067,127268,5
81144,127380,5
81225,127486,4
81287,127572,5
81366,127677,5
81429,127767,5
81486,127851,5
81536,127920,4
81576,127972,5
81616,128016,5
81628,128041,5
81649,128054,5
81653,128064,4
81659,128072,5
81652,128061,6
81638,128054,4
81635,128034,5
81609,128014,4
81595,127980,5
81572,127949,5
81542,127914,5
81514,127869,5
81495,127811,4
81453,127782,5
81406,127726,5
81372,127669,5
81333,127610,4
81281,127548,5
81246,127494,5
81185,127402,5
81116,127317,5
81042,127197,4
80953,127068,5
80849,126928,5
80755,126784,5
80664,126662,5
80578,126554,4
80497,126437,5
80426,126348,5
80379,126288,5
80346,126238,5
80332,126221,4
80326,126208,5
80325,126231,5
80339,126234,5
80349,126251,5
80362,126284,4
80376,126287,5
80381,126300,5
80391,126307,5
80396,126311,4
80390,126311,5
80384,126297,5
80369,126278,5
80359,126254,5
80311,126173,4
80165,125948,5
79997,125716,5
79881,125583,5
79809,125464,5
79727,125354,5
79649,125266,4
79632,125237,5
79620,125231,5
79626,125252,5
79657,125293,4
79710,125366,5
79779,125466,5
79802,125609,5
79973,125758,5
80088,125927,4
80221,126102,5
80265,126289,5
80485,126471,5
80610,126632,4
80723,126804,5
80771,126940,5
80904,127059,10
80986,127171,5
81059,127261,9
81172,127344,8
81177,127415,5
81215,127440,7
81297,127584,8
81297,127584,7
81363,127591,5
81319,127593,8
81310,127572,7
81270,127537,7
81037,127163,8
81037,127163,7
80969,127113,5
80895,126979,10
80825,126912,9
80605,126501,8
80605,126501,7
80625,126608,5
80617,126621,8
80621,126628,7
80638,126654,7
80855,126988,10
80855,126988,5
80946,127127,5
81016,127231,10
81103,127439,5
81200,127464,5
81290,127574,10
81389,127700,5
81450,127868,5
81693,128130,10
81693,128130,5
81696,128142,5
81713,128149,10
81701,128144,5
81696,128127,5
81434,127750,10
81434,127750,5
81313,127611,5
81224,127469,10
81136,127330,5
81029,127190,5
80939,127082,10
80878,126958,5
80860,126956,7
80860,126956,8
80871,126991,5
80876,126995,7
80893,127006,8
80885,126999,5
80857,127005,7
80766,126813,13
80615,126576,7
80474,126364,8
80370,126247,5
80289,126151,7
80196,126060,8
80174,126004,5
80288,126201,7
80288,126201,8
80373,126313,9
80480,126451,8
80593,126628,5
80722,126794,7
81340,127688,8
81340,127688,5
81455,127852,7
81566,127990,8
81649,128088,5
81725,128203,7
81798,128277,8
81853,128375,5
82065,128649,7
82065,128649,8
82092,128690,5
82112,128735,7
82147,128752,8
82137,128764,7
82120,128767,5
81946,128470,8
81946,128470,7
81857,128369,7
81806,128271,1
81739,128198,5
81670,128103,5
81617,128018,6
81556,127935,4
81527,127889,4
81503,127861,5
81467,127869,5
81491,127871,5
81503,127870,5
81510,127904,4
81479,127946,5
81596,128015,5
81658,128108,5
81731,128225,4
81721,128343,4
81915,128478,5
82026,128634,5
82140,128778,5
82191,128908,4
82316,129036,5
82410,129153,5
82466,129229,5
82565,129288,5
82534,129302,5
82529,129298,4
82520,129285,5
82598,129243,5
82456,129185,6
82407,129120,3
82349,129032,5
82361,128970,5
82241,128899,5
82193,128841,5
82173,128821,4
82201,128803,5
82159,128804,5
82163,128803,5
82177,128814,4
82180,128774,4
82183,128847,5
82193,128843,5
82214,128862,5
82209,128783,4
82206,128860,5
82200,128845,5
82181,128828,5
82138,128642,5
82002,128543,4
81881,128395,6
81807,128294,4
81725,128188,5
81661,128101,5
81630,128056,4
81617,128046,5
81622,128149,5
81636,128078,5
81656,128116,5
81704,128181,4
81770,128389,5
81851,128390,5
81939,128524,5
82051,128674,4
82175,128896,4
82294,129033,5
82429,129207,5
82555,129365,5
82679,129558,4
82789,129707,5
82902,129857,5
82986,129970,5
83057,130061,5
83126,130128,4
83149,130169,5
83182,130202,6
83182,130204,4
83189,130218,5
83182,130216,4
83183,130211,5
83185,130210,5
83191,130234,5
83198,130224,5
83192,130221,4
83190,130224,5
83194,130212,5
83173,130199,5
83158,130166,4
83123,130137,4
83098,130094,5
83063,130039,5
83024,129991,5
82998,129948,4
82948,129889,5
82903,129818,5
82856,129753,5
82812,129694,5
82779,129655,4
82753,129623,5
82735,129611,5
82736,129607,6
82745,129617,4
82751,129640,4
82772,129677,5
82819,129724,5
82861,129785,5
82916,129872,5
82977,129958,4
83034,130050,5
83103,130130,5
83168,130208,5
83209,130259,4
83243,130306,4
83256,130333,5
83263,130327,5
83258,130335,5
83258,130305,4
83231,130288,5
83210,130266,5
83199,130240,5
83182,130212,5
83164,130201,5
83163,130198,4
83157,130190,5
83153,130187,5
83150,130178,5
83146,130184,4
83149,130188,5
83168,130212,5
83192,130238,5
83217,130295,5
83259,130338,4
83291,130395,5
83340,130432,5
83324,130407,5
83278,130330,4
83235,130297,4
83210,130258,5
83184,130218,5
83160,130194,5
83140,130174,4
83128,130167,5
83127,130158,5
83132,130163,5
83136,130166,5
83129,130175,4
83147,130180,6
83159,130195,4
83177,130219,5
83176,130263,5
83226,130303,4
83269,130338,5
83302,130402,5
83271,130475,5
83395,130537,5
83440,130595,4
83477,130644,5
83424,130709,5
83568,130765,5
83599,130814,4
83622,130854,4
83617,130880,5
83676,130914,5
83689,130928,5
83704,130942,4
83769,130947,5
83720,130969,5
83740,131021,5
83788,131074,4
83907,131078,4
83804,131096,5
83820,131109,6
83839,131108,4
83893,131113,5
83812,131089,4
83800,131076,5
83779,131059,5
83790,131035,5
83747,131012,5
83732,130989,4
83699,130951,5
83654,130845,5
83619,130846,5
83591,130788,4
83557,130751,4
83542,130644,5
83511,130691,5
83510,130685,5
83504,130682,4
83500,130565,5
83502,130680,5
83505,130691,5
83530,130709,5
83548,130750,4
83576,130772,5
83595,130825,5
83629,130862,5
83663,130996,5
83693,130942,4
83702,130966,5
83727,130977,5
83723,131091,5
83723,130976,5
83706,130962,4
83688,130929,5
83677,130959,5
83635,130857,5
83589,130787,4
83523,130685,4
83430,130575,5
83326,130424,5
83234,130274,5
83132,130142,4
83051,130036,5
82965,129944,5
82913,129860,5
82876,129825,5
82873,129808,5
82881,129826,4
82889,129836,5
82912,129867,5
82944,129911,5
82988,129967,4
83021,130035,5
83055,130072,5
83038,130023,5
82987,129951,5
82947,129888,4
82903,129841,5
82844,129756,5
82794,129676,5
82741,129613,4
82713,129567,4
82672,129512,5
82633,129471,5
82610,129438,5
82604,129432,4
82598,129415,5
82598,129423,5
82612,129435,5
82617,129447,5
82632,129483,4
82675,129539,6
82711,129586,4
82750,129645,5
82799,129711,5
82845,129766,4
82879,129826,5
82925,129878,5
82964,129932,5
83000,129990,5
83041,130030,4
83092,130079,5
83119,130123,5
83131,130148,5
83145,130162,4
83146,130170,4
83151,130188,5
83167,130206,5
83200,130254,5
83211,130252,4
83209,130251,5
83205,130234,5
83197,130235,5
83184,130225,5
83177,130214,4
83157,130193,5
83158,130185,5
83155,130169,5
83146,130154,5
83134,130143,4
83122,130122,5
83098,130103,5
83086,130076,5
83074,130057,5
83050,130044,4
83057,130042,5
83054,130041,5
83057,130035,5
83056,130033,4
83054,130032,5
83048,130038,5
83059,130050,5
83058,130054,5
83067,130066,4
83077,130085,4
83090,130097,5
83105,130112,5
83113,130142,6
83125,130152,3
83104,130165,5
83150,130167,5
83154,130171,5
83163,130196,5
83103,130212,4
83187,130236,5
83206,130255,5
83223,130285,5
83146,130327,5
83282,130363,4
83308,130394,5
83324,130433,5
83343,130458,5
83370,130482,4
83364,130480,5
83373,130481,5
83437,130461,5
83358,130458,5
83331,130418,4
83298,130364,6
83356,130299,4
83190,130205,5
83103,130089,5
83007,129934,6
82922,129743,3
82717,129533,5
82540,129285,5
82358,129028,5
82192,128765,4
82026,128585,5
81934,128483,5
81909,128428,5
81890,128362,4
81890,128423,4
81884,128421,5
81883,128429,5
81904,128362,5
81929,128503,4
81974,128563,5
82038,128646,5
82091,128619,5
82135,128779,5
82198,128849,5
82234,128912,4
82266,128968,6
82262,128928,4
82215,128861,5
82095,128657,4
81938,128557,5
81815,128300,5
81706,128130,5
81566,127949,5
81474,127939,4
81429,127776,5
81417,127772,5
81429,127787,5
81449,127855,4
81499,127893,4
81552,127987,5
81651,128115,5
81737,128240,5
81845,128386,4
81951,128517,5
82032,128639,5
82117,128738,5
82173,128833,5
82235,128885,4
82249,128921,5
82267,128935,5
82272,128942,6
82269,128935,4
82263,128931,4
82254,128917,5
82247,128906,5
82242,128901,5
82230,128907,5
82239,128894,4
82243,128902,5
82244,128901,5
82253,128925,5
82278,128961,4
82315,129035,4
82360,129072,5
82366,129094,7
82378,129089,3
82391,129105,4
82406,129112,5
82394,129102,5
82365,129084,5
82351,129043,5
82315,128999,5
82274,128937,4
82216,128862,5
82158,128764,5
82086,128676,6
82006,128573,3
81924,128455,5
81840,128346,5
81771,128268,5
81721,128184,5
81682,128132,4
81653,128100,5
81636,128079,5
81634,128084,5
81639,128092,4
81647,128115,4
81666,128142,5
81701,128202,5
81751,128261,5
81809,128341,4
81860,128419,5
81922,128508,5
81968,128565,5
82010,128609,5
82035,128665,4
82077,128699,6
82083,128722,4
82096,128745,5
82119,128757,5
82105,128742,4
82106,128748,5
82105,128751,5
82106,128730,5
82088,128720,5
82059,128682,4
82046,128654,5
82024,128619,5
81991,128576,5
81946,128521,4
81919,128459,5
81881,128410,5
81846,128366,5
81803,128300,5
81758,128251,4
81724,128196,5
81678,128132,5
81645,128070,5
81606,128024,5
81582,127968,4
81532,127937,5
81501,127887,6
81422,127823,4
81439,127790,5
81403,127732,4
81355,127682,5
81219,127603,5
81250,127518,5
81182,127408,5
81081,127255,4
80872,127086,5
80834,126904,5
80698,126721,5
80577,126560,4
80504,126431,5
80406,126318,5
80339,126238,5
80302,126195,5
80368,126170,4
80286,126165,5
80299,126176,5
80302,126198,5
80417,126228,5
80352,126272,4
80406,126338,5
80460,126419,5
80555,126498,6
80561,126570,4
80618,126626,4
80649,126666,5
80662,126667,5
80638,126645,5
80589,126545,5
80458,126363,4
80343,126151,5
80266,126112,5
80182,125994,5
80088,125864,4
80017,125675,5
79972,125708,5
79939,125678,5
79936,125664,5
79938,125634,4
79956,125700,5
79987,125746,5
80027,125807,5
80085,125945,5
80142,125988,5
80239,126116,4
80328,126238,5
80416,126458,5
80498,126466,5
80574,126580,4
80644,126666,5
80712,126845,5
80765,126825,5
80808,126899,5
80859,126970,4
80901,127056,5
80948,127092,5
81005,127162,5
81051,127230,4
81079,127268,5
81105,127296,5
81109,127310,5
81117,127311,5
81116,127315,4
81139,127341,5
81128,127319,5
81107,127300,5
81081,127249,5
81047,127210,4
81017,127159,6
80966,127096,4
80924,127031,5
80876,126952,5
80822,126881,4
80776,126823,5
80722,126762,5
80683,126701,5
80661,126673,5
80633,126636,4
80608,126600,5
80616,126607,5
80611,126601,5
80624,126628,4
80635,126640,5
80644,126664,5
80675,126698,5
80717,126749,5
80762,126827,4
80821,126905,5
80883,126996,5
80932,127085,5
80993,127151,5
81029,127204,4
81069,127241,5
81092,127280,6
81097,127286,4
81103,127292,5
81109,127295,4
81106,127300,5
81104,127304,5
81103,127305,5
81116,127318,4
81126,127337,4
81145,127348,5
81154,127354,5
81156,127375,5
81163,127376,4
81156,127368,5
81147,127358,5
81130,127311,5
81094,127271,5
81062,127226,4
81020,127160,5
80973,127096,5
80907,127024,5
80864,126960,5
80816,126899,4
80778,126848,5
80735,126790,5
80708,126736,5
80674,126691,5
80639,126654,4
80621,126608,5
80575,126574,5
80549,126539,5
80531,126478,4
80482,126440,4
80454,126374,5
80404,126316,5
80354,126242,5
80309,126181,4
80251,126100,5
80194,126019,5
80125,125930,5
80059,125824,5
79977,125714,4
79888,125592,5
79808,125463,5
79711,125326,5
79612,125201,5
79456,125067,5
79437,124965,4
79379,124882,5
79325,124803,5
79204,124748,5
79260,124738,4
79257,124740,5
79284,124760,5
79220,124776,5
79320,124819,4
79343,124866,4
79378,124904,5
79441,124958,5
79452,124999,5
79476,125043,4
79482,125050,5
79581,125050,5
79482,125040,5
79487,125041,5
79473,125017,4
79507,124907,5
79289,124736,5
79187,124588,5
79102,124502,5
79066,124380,4
78954,124272,6
78888,124199,4
78852,124175,5
78870,124165,5
78878,124202,4
78908,124261,5
78974,124346,5
79053,124393,5
79165,124625,4
79288,124789,4
79418,124995,5
79573,125115,5
79741,125447,5
79905,125677,5
80076,125917,4
80223,126076,5
80348,126283,5
80464,126428,5
80545,126540,4
80628,126724,5
80689,126747,5
80729,126807,6
80781,126854,4
80800,127000,4
80820,126905,5
80824,126902,5
80805,126893,5
80801,126954,5
80793,126869,4
80779,126869,5
80780,126858,5
80758,126848,5
80726,126784,4
80689,126730,4
80655,126683,5
80612,126615,5
80552,126525,5
80493,126442,4
80439,126351,5
80375,126273,5
80305,126179,5
80255,126119,5
80214,126059,4
80187,126020,4
80167,125994,5
80163,125992,5
80162,126002,5
80174,126013,3
80207,126064,5
80240,126111,5
80296,126199,5
80353,126288,5
80421,126397,4
80516,126514,5
80605,126644,5
80686,126764,5
80786,126882,4
80848,126993,4
80932,127086,5
80998,127184,5
81045,127261,5
81079,127296,4
81099,127332,5
81119,127344,5
81141,127376,5
81144,127381,5
81148,127385,4
81148,127381,6
81147,127376,4
81139,127371,5
81130,127360,5
81113,127333,6
81084,127292,3
81045,127231,5
80980,127142,5
80905,127029,5
80820,126900,4
80721,126764,5
80628,126639,5
80535,126496,5
80456,126402,4
80403,126335,4
80370,126294,5
80350,126289,5
80345,126268,5
80343,126264,4
80343,126270,5
80344,126266,5
80339,126255,5
80337,126245,5
80318,126223,4
80310,126200,5
80281,126175,6
80254,126137,4
80225,126074,5
80180,126017,4
80147,125977,5
80099,125912,5
80010,125741,5
79853,125533,5
79734,125385,4
79672,125314,5
79619,125236,5
79564,125165,5
79545,125141,4
79542,125149,4
79565,125164,5
79577,125183,5
79596,125233,5
79633,125279,4
79691,125366,5
79752,125465,5
79843,125593,5
79945,125743,5
80067,125918,4
80205,126114,5
80284,126309,5
80481,126498,6
80611,126684,4
80738,126843,4
80750,126987,5
80952,127134,5
81047,127269,5
81128,127370,5
81128,127472,4
81249,127542,5
81288,127596,5
81328,127644,5
81400,127684,4
81375,127713,4
81402,127746,5
81408,127746,5
81493,127738,5
81377,127700,4
81335,127651,5
81317,127612,5
81348,127542,5
81219,127483,5
81165,127403,5
81102,127317,4
81054,127204,5
80960,127105,5
80883,127002,6
80816,126915,3
80764,126822,5
80730,126817,5
80724,126805,5
80727,126801,5
80728,126740,4
80745,126837,5
80780,126875,5
80797,126916,5
80842,126861,4
80880,127022,4
80927,127095,5
80988,127176,5
81051,127259,5
81113,127378,4
81193,127480,5
81269,127585,5
81354,127777,5
81443,127825,5
81525,127939,4
81636,128097,6
81750,128374,4
81871,128420,5
81962,128541,5
82020,128618,4
82044,128705,5
82049,128625,5
82015,128591,5
81966,128512,5
81884,128412,4
81783,128264,5
81694,128130,5
81592,127977,5
81494,127853,4
81425,127766,4
81373,127698,5
81360,127698,5
81365,127700,5
81392,127735,4
81411,127794,5
81463,127850,5
81494,127904,5
81526,127938,5
81552,127960,4
81563,127979,5
81558,127958,6
81537,127930,4
81505,127898,5
81462,127834,4
81386,127695,5
81228,127462,5
81070,127254,5
80956,127099,5
80856,126962,4
80757,126841,5
80710,126785,5
80694,126759,5
80698,126787,4
80732,126823,4
80765,126888,5
80842,126983,5
80912,127116,5
81039,127282,4
81175,127473,5
81316,127674,5
81477,127885,5
81621,128084,5
81756,128294,4
81897,128484,5
82049,128680,5
82184,128863,6
82317,129038,4
82408,129154,4
82482,129263,5
82525,129323,5
82560,129363,5
82585,129381,5
82580,129388,4
82583,129393,5
82580,129383,5
82575,129391,5
82591,129408,4
82597,129394,4
82585,129383,5
82588,129366,5
82562,129360,5
82562,129352,4
82546,129331,5
82522,129309,5
82511,129291,5
82488,129249,5
82453,129204,5
82415,129137,4
82363,129076,5
82323,128998,5
82258,128922,5
82213,128865,4
82175,128820,5
82149,128795,5
82144,128780,5
82130,128780,5
82134,128788,4
82162,128815,5
82175,128847,5
82222,128903,5
82274,128991,4
82346,129082,4
82412,129177,5
82491,129288,5
82560,129391,5
82610,129493,4
82709,129601,5
82777,129684,5
82839,129762,5
82810,129832,5
82933,129868,4
82939,129911,6
82952,129913,4
82857,129892,5
82939,129882,5
82912,129859,4
82882,129796,5
82814,129743,5
82792,129675,5
82731,129596,5
82663,129488,4
82682,129413,5
82541,129329,5
82492,129265,5
82446,129207,4
82524,129160,4
82389,129131,5
82385,129115,5
82378,129127,5
82442,129130,4
82390,129134,5
82409,129164,5
82439,129202,5
82464,129208,5
82456,129225,4
82448,129210,5
82401,129127,6
82303,128928,4
82203,128838,5
82103,128714,4
82006,128578,5
81933,128390,5
81892,128440,5
81871,128432,5
81887,128431,4
81892,128357,5
81913,128474,5
81928,128501,5
81965,128560,4
81993,128634,4
82042,128664,5
82096,128733,5
82164,128827,5
82224,129018,4
82311,129040,5
82394,129158,5
82480,129295,5
82589,129539,5
82699,129573,4
82807,129722,5
82895,129848,5
82970,129981,5
83034,130030,5
83079,130066,4
83109,130107,5
83105,130125,5
83100,130101,5
83106,130107,5
83107,130108,4
83103,130118,5
83089,130083,5
83072,130064,5
83046,130020,4
83025,129982,4
83002,129949,5
82953,129917,5
82946,129895,5
82928,129878,4
82916,129864,5
82912,129840,5
82880,129794,5
82830,129732,5
82786,129648,5
82714,129566,4
82647,129480,5
82617,129417,5
82583,129383,5
82562,129361,4
82546,129354,5
82561,129355,5
82571,129381,5
82592,129414,5
82633,129473,4
82688,129543,5
82740,129632,5
82810,129712,5
82866,129802,4
82912,129850,4
82942,129900,5
82970,129936,5
82988,129958,5
83001,129950,4
82994,129951,5
82981,129945,5
82974,129943,5
82977,129937,5
82977,129933,4
82975,129936,6
82982,129946,4
82997,129955,5
82997,129986,5
83028,130013,4
83049,130046,5
83073,130071,5
83090,130109,5
83105,130115,5
83107,130110,4
83090,130091,5
83079,130056,5
83017,129977,5
82943,129865,4
82837,129719,4
82711,129527,5
82553,129316,5
82386,129084,5
82201,128821,4
82040,128594,5
81904,128408,5
81794,128279,5
81726,128195,5
81695,128155,4
81691,128147,5
81701,128167,6
81704,128196,4
81720,128200,5
81739,128236,4
81753,128252,5
81774,128289,5
81822,128334,5
81859,128395,5
81896,128459,4
81948,128516,5
81987,128565,5
82003,128572,5
81991,128553,4
81917,128438,4
81782,128297,5
81735,128217,5
81681,128126,5
81603,128021,4
81462,127919,4
81492,127871,5
81475,127837,5
81451,127803,5
81337,127805,3
81444,127812,5
81457,127830,5
81490,127873,5
81501,127923,5
81568,127992,4
81625,128079,5
81681,128155,5
81821,128231,5
81816,128328,5
81877,128414,4
81930,128506,5
82108,128590,5
82058,128667,5
82111,128744,4
82174,128820,4
82276,128885,5
82280,128945,5
82293,128997,5
82317,129030,4
82362,129048,6
82353,129058,4
82355,129066,5
82352,129063,5
82358,129018,6
82360,129084,3
82393,129123,5
82399,129108,5
82381,129011,5
82363,129094,4
82367,129070,5
82355,129064,5
82333,128926,5
82307,128985,5
82276,128946,5
82239,128889,4
82190,128843,5
82139,128747,5
82073,128664,4
82016,128599,4
81968,128620,5
81926,128462,5
81905,128433,5
81879,128406,4
81879,128505,5
81871,128405,6
81880,128402,4
81888,128399,5
81889,128484,4
81915,128445,7
81924,128487,3
81950,128505,5
81974,128546,5
81996,128570,4
82025,128609,5
82046,128648,5
82062,128668,5
82095,128722,5
82125,128748,4
82151,128778,5
82174,128828,5
82198,128871,5
82242,128915,4
82264,128952,4
82286,128974,5
82304,128991,5
82318,129008,5
82319,129013,4
82312,128998,5
82311,128994,5
82297,128979,6
82273,128946,4
82262,128934,4
82224,128881,5
82203,128836,5
82164,128800,5
82138,128747,5
82100,128689,4
82052,128638,5
82013,128575,5
81973,128522,5
81913,128433,5
81832,128313,4
81699,128122,5
81560,127914,5
81407,127705,5
81265,127515,4
81114,127313,4
80993,127149,5
80893,127002,5
80821,126909,5
80759,126838,5
80746,126825,4
80755,126839,5
80768,126862,5
80793,126897,6
80839,126964,3
80897,127057,5
80989,127170,5
81083,127296,5
81154,127390,5
81210,127489,4
81262,127551,5
81312,127604,5
81325,127629,5
81311,127603,5
81279,127536,4
81173,127360,5
81004,127136,5
80873,126974,5
80773,126816,4
80664,126664,4
80547,126512,5
80465,126411,5
80408,126341,5
80396,126311,4
80383,126307,6
80395,126322,4
80409,126353,5
80444,126403,5
80495,126464,6
80562,126568,3
80662,126710,5
80761,126869,5
80891,127039,5
81014,127209,4
81139,127373,5
81235,127512,5
81326,127637,5
81392,127734,5
81451,127795,4
81484,127849,5
81506,127865,5
81465,127881,5
81513,127871,4
81509,127874,4
81492,127848,5
81399,127839,5
81471,127830,5
81468,127814,4
81472,127822,5
81386,127835,6
81493,127852,4
81499,127853,5
81489,127852,4
81472,127819,5
81462,127794,5
81428,127756,5
81382,127693,5
81421,127622,4
81279,127531,5
81199,127429,5
81125,127338,5
81165,127230,5
80989,127142,4
80947,127065,5
80901,127008,5
80911,126967,5
80841,126936,5
80836,126925,4
80834,126927,5
80859,126938,5
80864,126964,5
80878,126994,4
80895,127028,5
80923,127015,5
80966,127126,6
81027,127193,4
81068,127273,4
81127,127267,5
81183,127411,5
81224,127479,5
81272,127536,5
81308,127503,4
81330,127615,5
81361,127651,5
81357,127670,5
81379,127714,5
81380,127684,4
81371,127672,5
81366,127672,5
81358,127759,5
81353,127645,4
81333,127632,4
81315,127611,5
81305,127673,5
81288,127562,5
81261,127526,5
81239,127493,4
81219,127500,5
81185,127405,5
81143,127360,6
81113,127302,3
81058,127248,5
81015,127178,5
80973,127127,5
80945,127052,5
80889,127003,4
80855,126946,5
80823,126894,5
80792,126857,5
80770,126816,5
80721,126754,4
80670,126685,5
80603,126586,5
80524,126468,5
80429,126336,5
80343,126223,4
80266,126106,5
80202,126027,8
80151,125962,2
80132,125928,4
80112,125930,6
80109,125900,4
80110,125897,5
80119,125913,5
80137,125932,4
80137,125956,5
80155,125982,5
80165,126001,5
80193,126037,5
80222,126061,4
80234,126073,5
80231,126088,5
80242,126092,5
80242,126082,5
80246,126080,4
80222,126033,5
80145,125912,5
80007,125735,5
79915,125606,4
79845,125520,4
79780,125419,5
79703,125319,5
79647,125242,5
79617,125219,4
79611,125200,5
79607,125205,6
79622,125211,4
79630,125248,5
79665,125283,4
79701,125337,5
79756,125447,5
79830,125531,5
79921,125666,5
80011,125798,4
80112,125941,5
80204,126054,5
80286,126186,5
80373,126287,5
80441,126393,4
80510,126468,5
80550,126529,5
80597,126602,5
80639,126640,4
80655,126676,4
80674,126688,5
80682,126698,5
80674,126697,5
80675,126688,4
80676,126682,5
80668,126676,5
80655,126673,6
80670,126677,4
80649,126640,4
80629,126616,5
80603,126579,5
80572,126540,5
80526,126483,5
80487,126425,4
80448,126349,5
80392,126287,5
80341,126217,5
80311,126156,5
80217,126120,4
80236,126086,5
80211,126047,5
80200,126031,5
80118,126026,4
80199,126022,4
80217,126046,5
80220,126052,5
80142,126077,5
80254,126110,5
80279,126157,4
80309,126209,5
80377,126266,5
80417,126346,5
80472,126422,4
80531,126499,5
80688,126593,5
80647,126661,5
80687,126704,5
80706,126737,4
80816,126762,5
80732,126762,5
80725,126769,5
80727,126756,5
80755,126754,4
80734,126768,5
80723,126764,5
80726,126766,5
80730,126735,4
80724,126766,4
80723,126770,6
80725,126771,4
80722,126685,5
80722,126754,4
80698,126734,7
80678,126700,3
80650,126565,5
80616,126603,5
80572,126537,5
80521,126459,4
80444,126330,5
80365,126247,5
80282,126107,5
80172,125976,4
80081,125905,5
80007,125740,5
79940,125653,5
79877,125573,5
79842,125635,4
79814,125488,5
79798,125465,5
79789,125464,5
79800,125539,4
79813,125497,4
79835,125505,5
79844,125542,5
79864,125590,5
79887,125605,4
79918,125638,5
79933,125670,6
79957,125692,4
79966,125721,5
79983,125729,4
79983,125731,5
79982,125722,5
79974,125704,5
79933,125626,5
79820,125483,4
79737,125370,5
79686,125307,5
79624,125215,5
79564,125135,5
79522,125070,4
79498,125067,5
79509,125075,5
79521,125089,5
79549,125136,4
79592,125200,4
79658,125291,5
79744,125426,5
79844,125567,5
79969,125740,4
80087,125914,5
80212,126092,5
80328,126253,5
80451,126418,5
80556,126576,4
80650,126704,5
80754,126824,5
80811,126923,5
80894,127022,5
80951,127110,4
81001,127185,5
81057,127250,5
81088,127296,5
81118,127330,5
81133,127351,4
81136,127353,5
81140,127351,5
81139,127353,5
81151,127352,4
81137,127335,5
81115,127296,4
81084,127258,5
81038,127210,5
81010,127148,6
80952,127069,3
80883,126982,5
80820,126890,5
80750,126787,5
80687,126713,4
80619,126618,5
80563,126544,5
80521,126483,5
80494,126454,5
80481,126439,4
80471,126439,5
80490,126443,5
80493,126458,5
80495,126475,5
80514,126490,4
80546,126530,5
80572,126586,5
80622,126643,5
80670,126715,4
80739,126809,4
80805,126916,6
80882,127028,4
80956,127140,5
81053,127265,4
81141,127360,7
81205,127483,3
81288,127588,5
81354,127687,5
81407,127769,4
81460,127817,5
81473,127846,5
81459,127846,5
81469,127826,5
81432,127768,4
81384,127691,5
81241,127597,5
81226,127465,5
81132,127336,5
81029,127204,4
80858,127089,5
80885,127017,5
80836,126948,5
80819,126911,4
80790,126915,5
80819,126932,5
80833,126946,6
80843,126964,4
80926,126987,4
80872,126991,5
80881,127006,5
80886,127012,5
80997,127008,5
80882,127013,4
80875,126999,5
80859,126977,5
80868,126881,5
80674,126670,5
80499,126447,4
80384,126282,5
80318,126161,5
80202,126041,5
80121,125951,5
80092,125901,4
80072,125829,5
80073,125878,5
80082,125907,5
80121,125946,5
80176,125954,4
80252,126148,5
80355,126288,5
80471,126470,6
80586,126556,3
80724,126844,5
80862,127030,5
81003,127214,5
81130,127407,5
81232,127529,4
81312,127645,5
81396,127739,5
81448,127908,5
81485,127857,5
81506,127897,4
81520,127906,5
81534,128022,5
81544,127930,5
81546,127920,5
81542,127939,4
81553,127975,5
81557,127965,5
81565,127971,5
81554,127941,4
81532,127915,6
81498,127863,4
81463,127806,5
81418,127731,5
81352,127654,6
81286,127557,3
81205,127452,5
81127,127345,5
81056,127237,5
80986,127146,4
80929,127076,5
80903,127034,5
80891,127028,5
80906,127051,5
80919,127073,4
80937,127112,5
80977,127159,5
81024,127233,5
81075,127313,5
81147,127393,4
81220,127503,5
81282,127595,5
81360,127677,5
81420,127778,4
81477,127860,5
81533,127947,6
81595,128013,4
81655,128104,5
81708,128189,4
81760,128257,5
81826,128335,5
81879,128416,5
81924,128485,5
81980,128543,4
82000,128574,5
82016,128581,5
82005,128570,5
81987,128535,5
81937,128468,4
81895,128413,5
81839,128339,5
81776,128247,5
81730,128175,4
81670,128118,4
81635,128052,5
81599,128022,5
81582,127998,5
81574,127979,4
81560,127980,5
81565,127976,5
81570,127972,6
81569,127999,4
81585,128012,4
81593,128020,5
81609,128026,5
81600,128034,5
81601,128007,5
81526,127883,4
81408,127726,5
81337,127618,5
81263,127526,5
81193,127435,5
81136,127345,4
81096,127307,5
81078,127295,5
81075,127310,5
81095,127327,4
81123,127350,4
81162,127423,5
81210,127491,5
81277,127599,5
81355,127698,5
81448,127821,4
81544,127978,5
81662,128108,5
81767,128276,6
81879,128419,3
81988,128583,5
82095,128729,5
82208,128889,5
82305,129015,5
82339,129144,4
82488,129239,5
82543,129332,5
82607,129413,5
82566,129474,5
82686,129524,4
82710,129563,5
82743,129602,5
82683,129636,5
82796,129681,4
82802,129682,4
82805,129678,5
82836,129670,5
82793,129673,5
82783,129657,4
82775,129629,6
82856,129606,4
82732,129587,5
82707,129544,5
82678,129512,4
82737,129453,5
82598,129382,5
82548,129311,5
82492,129246,5
82488,129194,4
82427,129168,5
82414,129157,5
82419,129156,5
82429,129146,5
82442,129189,4
82454,129224,5
82492,129269,5
82533,129253,5
82584,129386,4
82631,129459,4
82693,129534,5
82743,129527,5
82802,129687,5
82841,129754,5
82897,129823,4
82936,129854,6
82954,129909,4
82970,129921,5
82967,129920,4
82961,129976,5
82955,129899,5
82937,129878,5
82927,129860,5
82914,129957,4
82908,129829,5
82901,129818,5
82891,129815,5
82887,129876,5
82888,129800,4
82888,129816,5
82887,129813,5
82889,129837,5
82923,129852,4
82937,129884,4
82965,129914,5
82977,129938,5
82992,129954,5
82983,129948,4
82930,129857,5
82871,129777,5
82827,129718,6
82793,129666,4
82744,129604,4
82711,129545,5
82694,129549,5
82693,129538,5
82696,129547,5
82708,129556,4
82715,129570,5
82718,129594,5
82757,129631,6
82786,129687,4
82826,129740,4
82872,129794,5
82916,129854,5
82953,129905,5
82984,129960,4
83027,130013,4
83067,130059,5
83102,130101,5
83130,130150,5
83159,130206,5
83199,130242,4
83230,130289,5
83241,130309,5
83260,130329,5
83273,130340,4
83285,130351,5
83283,130358,5
83302,130376,5
83319,130404,5
83360,130458,4
83382,130483,5
83408,130519,5
83410,130545,5
83442,130579,5
83448,130573,4
83448,130575,5
83440,130577,5
83427,130562,5
83422,130539,4
83415,130530,4
83389,130506,5
83355,130458,5
83329,130413,5
83284,130358,4
83255,130305,6
83232,130277,4
83210,130262,5
83209,130250,5
83198,130259,4
83194,130255,5
83205,130255,5
83223,130270,5
83212,130289,5
83234,130301,4
83259,130350,5
83298,130387,5
83324,130429,5
83350,130467,5
83383,130511,4
83411,130546,5
83434,130569,5
83432,130570,5
83449,130583,4
83447,130586,4
83437,130580,5
83438,130572,5
83419,130554,5
83393,130508,4
83362,130462,5
83314,130386,6
83242,130301,4
83185,130212,5
83111,130125,4
83057,130029,5
82909,129946,5
82922,129859,5
82885,129829,5
82864,129773,4
82761,129786,5
82865,129794,5
82870,129813,5
82897,129852,5
82874,129892,4
82963,129933,5
82991,129955,5
82970,129919,5
82973,129858,4
82870,129784,4
82832,129715,5
82768,129621,5
82789,129527,5
82633,129456,4
82600,129415,5
82572,129365,5
82621,129344,5
82539,129323,5
82527,129325,4
82528,129332,5
82567,129331,5
82567,129362,5
82583,129395,5
82608,129428,4
82638,129428,5
82667,129504,5
82693,129543,5
82716,129577,5
82737,129510,4
82741,129616,5
82760,129628,5
82771,129649,5
82781,129577,4
82815,129717,4
82841,129747,4
82869,129784,5
82903,129836,5
82928,129869,6
82958,129913,3
82996,129953,5
83026,130099,5
83081,130067,5
83085,130077,4
83101,130080,5
83104,130208,5
83106,130092,5
83086,130073,5
83073,130076,4
83067,130103,5
83059,130047,5
83050,130030,5
83047,130012,5
83034,130014,4
83027,129986,5
83003,129963,5
82984,129932,5
82966,129898,4
82934,129861,4
82919,129841,6
82901,129831,4
82892,129812,5
82884,129807,4
82875,129791,7
82875,129796,3
82887,129799,5
82887,129808,5
82910,129831,4
82928,129857,5
82943,129899,5
82984,129947,5
83025,130004,5
83066,130050,4
83091,130103,5
83121,130145,5
83142,130161,5
83152,130173,5
83172,130192,4
83182,130208,5
83179,130218,5
83182,130218,5
83182,130222,4
83180,130219,5
83187,130220,5
83185,130216,6
83185,130217,4
83179,130208,4
83169,130207,5
83181,130197,5
83176,130191,5
83151,130172,5
83128,130135,4
83085,130062,5
83021,129966,5
82914,129815,5
82789,129624,5
82630,129412,4
82462,129186,5
82312,128963,5
82190,128803,5
82098,128707,5
82068,128679,4
82062,128673,5
82065,128673,5
82065,128677,5
82093,128718,5
82124,128758,4
82161,128799,5
82182,128858,5
82224,128907,6
82293,128996,3
82347,129051,5
82366,129091,5
82364,129070,5
82302,128969,5
82233,128878,4
82173,128790,5
82117,128733,5
82057,128651,5
82016,128588,5
81994,128562,4
81985,128567,5
81975,128546,5
81981,128552,5
81987,128559,5
81997,128580,4
82012,128597,5
82040,128644,5
82069,128704,5
82113,128753,4
82158,128813,5
82216,128883,4
82257,128947,5
82304,129005,5
82325,129087,6
82405,129145,3
82451,129205,5
82493,129262,5
82451,129322,5
82576,129375,4
82612,129418,5
82638,129452,5
82559,129483,5
82673,129500,5
82682,129517,4
82701,129511,5
82702,129539,5
82719,129561,5
82760,129615,5
82757,129598,4
82835,129608,5
82744,129579,5
82728,129587,5
82720,129547,4
82801,129516,4
82670,129484,6
82632,129428,4
82597,129386,5
82611,129321,4
82516,129254,5
82456,129174,5
82394,129103,5
82358,129016,5
82291,128956,4
82241,128895,5
82225,128859,5
82202,128779,5
82189,128830,5
82190,128833,4
82201,128834,5
82211,128765,5
82210,128875,5
82249,128924,5
82279,128966,4
82308,128942,5
82354,129078,5
82394,129130,5
82456,129198,4
82498,129296,5
82534,129309,5
82563,129347,6
82601,129394,4
82625,129541,4
82648,129460,5
82667,129490,5
82676,129507,5
82703,129617,5
82716,129546,4
82721,129566,5
82737,129590,5
82741,129621,5
82754,129589,5
82750,129593,4
82752,129607,5
82745,129586,5
82740,129589,5
82730,129581,5
82723,129571,4
82719,129553,5
82713,129555,5
82708,129535,5
82693,129516,5
82668,129494,4
82658,129466,5
82629,129427,5
82594,129378,6
82534,129299,3
82476,129210,5
82385,129074,5
82288,128913,5
82148,128732,5
82015,128554,4
81891,128366,5
81765,128222,5
81675,128097,5
81618,128042,5
81581,127985,4
81564,127968,5
81564,127969,5
81581,127984,5
81578,127990,5
81601,128014,4
81611,128042,5
81643,128088,5
81682,128135,5
81711,128180,4
81746,128232,6
81787,128281,4
81835,128345,5
81872,128385,5
81880,128398,4
81864,128357,5
81778,128230,5
81662,128070,5
81565,127930,5
81469,127818,4
81370,127663,5
81262,127530,5
81183,127419,5
81123,127342,5
81103,127315,4
81083,127291,5
81090,127308,5
81099,127318,5
81121,127361,5
81165,127410,4
81209,127483,5
81268,127564,5
81334,127651,5
81392,127755,4
81453,127832,5
81524,127903,6
81576,127986,4
81625,128043,5
81665,128102,4
81694,128141,5
81727,128191,5
81751,128217,5
81770,128255,5
81781,128263,4
81795,128273,5
81798,128292,5
81809,128295,5
81810,128302,5
81816,128305,4
81816,128313,5
81841,128342,5
81846,128342,5
81835,128334,4
81820,128318,4
81807,128283,5
81786,128273,5
81761,128219,5
81719,128174,4
81695,128129,5
81586,128077,5
81616,128032,6
81574,127960,4
81526,127892,4
81387,127820,5
81428,127760,5
81384,127704,5
81348,127654,5
81279,127633,4
81316,127621,5
81322,127621,5
81340,127633,5
81398,127656,5
81360,127674,4
81383,127724,5
81426,127761,5
81563,127818,5
81506,127877,4
81551,127945,5
81601,128022,4
81726,128086,5
81698,128148,5
81735,128201,6
81784,128259,3
81836,128299,5
81844,128346,5
81875,128365,5
81887,128404,4
81903,128380,5
81908,128424,5
81904,128422,5
81894,128425,5
81893,128329,4
81897,128409,5
81882,128395,5
81871,128363,5
81847,128231,5
81822,128309,4
81789,128267,5
81760,128211,5
81719,128148,5
81660,128072,4
81589,127963,4
81491,127840,5
81387,127758,5
81265,127501,5
81137,127318,4
81005,127134,6
80868,127068,4
80764,126830,5
80697,126734,5
80661,126688,4
80654,126734,5
80642,126685,5
80659,126690,5
80675,126718,5
80673,126728,4
80692,126735,5
80719,126761,5
80735,126798,5
80753,126824,5
80761,126838,4
80764,126829,5
80762,126831,5
80751,126809,5
80722,126777,4
80667,126658,4
80495,126411,5
80302,126129,5
80147,125937,5
80014,125754,4
79882,125565,5
79774,125416,6
79697,125355,4
79662,125300,5
79642,125277,4
79638,125260,5
79629,125264,5
79655,125298,5
79674,125338,5
79720,125399,4
79779,125473,5
79843,125573,5
79915,125665,5
79989,125788,5
80071,125897,4
80149,126004,5
80213,126095,5
80275,126181,5
80336,126254,4
80381,126315,4
80426,126379,5
80458,126416,5
80475,126454,5
80493,126473,4
80504,126475,5
80509,126483,5
80517,126495,5
80521,126493,5
80525,126495,4
80540,126522,5
80529,126501,5
80520,126497,5
80503,126461,5
80475,126431,4
80457,126397,5
80412,126340,5
80354,126263,5
80304,126170,5
80244,126086,4
80177,126018,5
80130,125940,5
80086,125879,5
80044,125817,4
80003,125773,4
79984,125750,4
79972,125734,5
79984,125731,5
79968,125730,6
79984,125742,3
79998,125774,5
80014,125802,5
80036,125825,5
80060,125868,4
80103,125924,5
80141,125981,5
80178,126039,5
80237,126106,5
80281,126182,4
80322,126239,5
80376,126308,5
80414,126356,5
80457,126421,5
80489,126472,4
80528,126503,5
80542,126540,5
80555,126562,5
80540,126582,4
80588,126585,4
80598,126603,6
80590,126609,4
80521,126617,5
80607,126602,4
80589,126600,7
80593,126602,3
80482,126575,5
80564,126547,5
80542,126510,4
80501,126450,5
80447,126371,5
80389,126276,5
80300,126181,5
80234,126070,4
80237,125975,5
80106,125908,5
80072,125859,5
80066,125850,5
80164,125867,4
80081,125871,5
80096,125891,5
80110,125925,5
80170,125953,4
80152,125962,4
80160,125999,5
80176,126026,6
80203,126029,4
80196,126039,4
80201,126044,5
80191,126035,5
80186,125956,5
80161,125964,5
80055,125815,4
79926,125640,5
79851,125445,5
79783,125456,5
79724,125374,5
79680,125305,4
79657,125218,5
79657,125302,5
79672,125310,5
79693,125360,5
79736,125458,4
79798,125508,5
79866,125619,5
79956,125747,5
80064,125985,5
80169,126028,4
80294,126193,5
80409,126354,5
80509,126587,6
80616,126645,3
80708,126776,5
80786,126889,5
80861,127012,5
80933,127088,5
80981,127148,4
81019,127200,5
81058,127254,5
81097,127298,5
81120,127335,5
81129,127345,4
81152,127377,5
81172,127403,5
81188,127433,5
81216,127465,5
81210,127450,4
81201,127430,5
81183,127423,5
81159,127391,5
81138,127344,4
81102,127287,6
81050,127218,4
80994,127134,5
80931,127048,5
80858,126962,6
80796,126863,3
80745,126796,5
80685,126731,5
80650,126676,5
80640,126661,4
80622,126651,5
80620,126644,5
80629,126660,5
80651,126680,5
80658,126701,4
80686,126735,5
80725,126791,5
80769,126848,5
80826,126937,5
80890,127041,4
80982,127162,5
81063,127298,5
81162,127418,5
81250,127545,4
81331,127659,5
81414,127772,6
81471,127841,4
81524,127904,5
81558,127946,4
81576,127967,5
81593,128001,5
81600,128004,5
81604,128021,5
81618,128031,4
81610,128018,5
81601,128011,5
81601,128005,5
81590,127981,5
81574,127946,4
81534,127898,5
81482,127832,5
81418,127735,5
81341,127628,5
81244,127489,4
81144,127348,5
81052,127221,5
80962,127104,5
80910,127026,4
80869,126976,5
80842,126949,5
80825,126924,6
80831,126937,4
80819,126925,4
80823,126928,5
80825,126930,5
80814,126921,5
80824,126928,5
80824,126927,4
80812,126907,5
80787,126875,5
80762,126830,5
80676,126661,5
80499,126428,4
80369,126281,5
80296,126180,5
80242,126092,5
80173,125997,5
80121,125940,4
80034,125926,5
80102,125922,5
80106,125933,5
80131,125958,5
80066,126001,4
80194,126056,5
80246,126130,5
80318,126229,6
80326,126361,3
80504,126499,5
80612,126657,5
80728,126825,5
80897,126987,5
80960,127143,4
81066,127282,5
81158,127416,5
81344,127531,5
81311,127623,5
81365,127693,4
81409,127761,5
81530,127787,5
81469,127814,5
81474,127821,4
81474,127824,4
81510,127838,5
81479,127843,5
81501,127852,5
81474,127827,4
81470,127769,6
81428,127765,4
81411,127718,5
81365,127648,5
81304,127506,4
81257,127511,5
81206,127438,5
81135,127341,5
81060,127130,5
80982,127123,4
80912,127024,5
80849,126947,5
80812,126893,5
80789,126867,5
80776,126872,4
80787,126863,5
80795,126961,5
80798,126902,5
80830,126936,4
80852,126980,4
80896,127142,5
80932,127095,5
80971,127150,5
81023,127218,4
81092,127369,5
81151,127402,6
81224,127491,4
81281,127584,5
81362,127698,4
81430,127783,5
81500,127898,5
81585,128020,5
81684,128161,5
81764,128264,4
81821,128321,5
81829,128336,5
81819,128320,5
81784,128252,5
81710,128148,4
81622,127998,5
81508,127842,5
81380,127660,5
81251,127488,4
81127,127339,4
81046,127221,5
80982,127150,5
80968,127127,5
80972,127140,4
81003,127185,5
81026,127236,5
81070,127284,6
81114,127342,4
81158,127416,4
81213,127466,5
81234,127495,5
81233,127488,5
81214,127468,5
81172,127405,4
81070,127214,5
80894,126984,5
80747,126778,5
80623,126624,5
80522,126460,4
80423,126355,5
80373,126292,5
80352,126279,5
80366,126291,4
80387,126330,4
80416,126380,5
80482,126466,5
80556,126596,5
80671,126744,5
80801,126925,4
80938,127132,5
81087,127351,5
81256,127570,5
81414,127784,4
81554,127969,5
81679,128138,5
81782,128284,5
81891,128440,5
81990,128561,4
82065,128677,5
82134,128788,5
82200,128854,5
82255,128906,5
82295,128977,4
82317,129005,5
82334,129030,5
82347,129067,5
82384,129089,4
82403,129119,4
82381,129098,5
82367,129065,5
82340,129033,5
82319,128988,4
82261,128905,6
82190,128829,4
82145,128762,5
82079,128674,5
82019,128585,4
81959,128493,5
81901,128426,5
81855,128362,5
81813,128307,5
81781,128266,4
81772,128253,5
81764,128256,5
81767,128267,5
81753,128270,5
81795,128293,4
81804,128311,5
81837,128348,5
81779,128407,5
81915,128468,4
81963,128531,4
82008,128593,5
81969,128689,5
82137,128784,5
82210,128876,4
82286,128993,5
82346,129088,6
82428,129177,4
82498,129272,5
82549,129346,4
82683,129408,5
82647,129476,5
82678,129522,5
82706,129564,5
82845,129598,4
82769,129633,5
82787,129675,5
82804,129697,5
82870,129710,5
82808,129701,4
82805,129686,5
82791,129662,5
82766,129595,5
82688,129503,4
82590,129364,4
82454,129162,5
82296,128886,5
82115,128688,5
81923,128434,4
81756,128198,5
81608,127902,5
81496,127857,5
81426,127783,5
81384,127731,4
81372,127624,5
81366,127709,5
81369,127720,5
81387,127745,5
81423,127827,4
81472,127851,5
81529,127944,5
81613,128057,5
81684,128261,5
81732,128217,4
81758,128243,5
81729,128195,5
81659,128153,5
81561,127949,4
81486,127849,4
81405,127720,4
81302,127639,5
81242,127496,5
81189,127438,6
81148,127401,3
81136,127381,5
81130,127382,5
81149,127424,5
81200,127481,4
81263,127573,5
81359,127698,5
81464,127874,5
81586,128050,5
81731,128243,4
81870,128425,5
81998,128596,5
82114,128754,5
82206,128896,5
82293,128980,4
82344,129050,5
82384,129104,5
82407,129149,7
82432,129160,2
82433,129155,5
82441,129169,6
82442,129171,4
82443,129165,5
82448,129178,4
82438,129177,7
82451,129189,3
82462,129213,5
82485,129233,5
82477,129222,4
82473,129216,5
82460,129208,5
82452,129190,5
82433,129155,5
82399,129113,4
82374,129077,5
82345,129040,5
82313,128990,5
82274,128949,5
82247,128900,4
82207,128828,5
82143,128770,5
82111,128707,5
82064,128644,4
82037,128615,5
82011,128575,5
81985,128537,6
81966,128505,4
81943,128486,4
81942,128486,5
81939,128483,5
81943,128481,5
81936,128489,5
81953,128502,4
81965,128527,5
81987,128566,5
82024,128613,5
82055,128662,5
82099,128715,4
82144,128776,5
82175,128837,5
82223,128888,5
82260,128932,5
82287,128970,4
82311,129004,5
82342,129042,5
82372,129064,5
82380,129105,5
82393,129123,4
82420,129145,5
82419,129146,5
82426,129163,6
82430,129151,3
82424,129142,5
82407,129109,5
82363,129063,5
82306,128977,5
82211,128826,4
82081,128630,5
81916,128419,5
81757,128185,5
81574,127929,5
81418,127734,4
81252,127571,5
81237,127497,5
81209,127471,5
81191,127445,5
81090,127431,4
81181,127435,5
81178,127437,5
81199,127460,5
81140,127496,4
81250,127554,6
81309,127615,4
81353,127684,5
81445,127775,5
81468,127845,6
81509,127897,3
81522,127907,5
81586,127826,5
81408,127734,5
81343,127637,4
81272,127533,5
81277,127401,5
81077,127252,5
80976,127120,5
80902,127008,4
80871,126930,5
80784,126863,5
80765,126833,5
80748,126844,5
80778,126839,4
80804,126916,5
80854,126995,5
80944,127108,5
81041,127195,4
81161,127431,5
81295,127620,6
81432,127798,4
81548,127873,5
81654,128103,4
81744,128213,5
81817,128314,5
81878,128359,5
81900,128415,5
81919,128434,4
81913,128443,5
81925,128522,5
81921,128431,5
81911,128442,5
81923,128435,4
81919,128553,5
81927,128458,5
81948,128487,5
81987,128537,5
81993,128605,4
82001,128548,5
81999,128545,5
81988,128541,5
81986,128552,4
81977,128515,5
81955,128489,5
81937,128450,6
81895,128405,4
81861,128332,4
81812,128278,5
81748,128211,5
81720,128154,5
81671,128103,5
81651,128064,4
81613,128025,5
81591,127988,5
81575,127964,5
81565,127959,5
81558,127957,4
81571,127968,5
81578,127981,5
81597,128016,5
81628,128048,5
81648,128086,4
81698,128141,5
81738,128209,5
81783,128281,5
81829,128336,5
81867,128401,4
81909,128449,5
81946,128499,5
81975,128542,6
82003,128571,3
82017,128587,5
82032,128616,5
82051,128629,5
82051,128642,5
82054,128641,4
82047,128631,5
82049,128619,5
82041,128611,5
82029,128595,5
82005,128558,4
81980,128521,5
81933,128463,5
81869,128367,5
81789,128232,5
81674,128065,4
81523,127875,5
81382,127669,5
81243,127476,5
81108,127292,4
80994,127143,6
80923,127054,4
80878,127003,5
80866,126973,5
80853,126959,4
80835,126947,5
80839,126949,5
80842,126963,5
80852,126964,5
80861,126988,4
80880,127006,5
80886,127030,5
80906,127050,5
80926,127074,5
80935,127085,4
80936,127076,5
80903,127014,5
80792,126841,5
80655,126654,5
80551,126520,4
80474,126408,5
80375,126267,5
80286,126158,5
80236,126089,4
80207,126054,5
80185,126037,6
80185,126055,4
80211,126075,5
80226,126093,4
80272,126148,5
80314,126225,5
80383,126319,5
80436,126424,5
80546,126560,4
80649,126693,5
80747,126841,5
80777,126964,5
80936,127108,5
81027,127217,4
81096,127314,5
81059,127398,5
81207,127463,5
81252,127517,5
81282,127561,4
81281,127580,5
81315,127598,5
81315,127591,5
81318,127578,4
81378,127581,5
81306,127589,5
81316,127607,6
81330,127630,4
81432,127608,4
81323,127595,5
81303,127570,5
81293,127570,5
81323,127532,5
81236,127476,4
81202,127421,5
81171,127368,5
81116,127277,5
81032,127196,5
80967,127083,4
80890,126992,5
80823,126836,5
80761,126805,5
80710,126743,5
80665,126679,4
80652,126564,5
80639,126659,5
80647,126658,5
80654,126672,5
80664,126612,4
80688,126737,5
80724,126783,5
80764,126835,5
80814,126936,4
80856,126983,5
80921,127057,5
80986,127150,5
81031,127315,5
81095,127285,4
81146,127361,5
81184,127420,5
81214,127550,5
81242,127502,5
81256,127520,4
81262,127519,5
81261,127558,5
81266,127534,5
81256,127513,4
81244,127496,4
81237,127491,5
81232,127469,5
81218,127453,5
81193,127428,4
81179,127401,6
81168,127364,4
81141,127342,5
81117,127303,5
81101,127288,4
81068,127247,5
81058,127221,5
81027,127187,5
80980,127130,5
80934,127044,4
80870,126954,5
80775,126832,5
80667,126664,5
80542,126481,5
80399,126286,4
80269,126112,5
80139,125920,5
80031,125761,5
79936,125644,4
79863,125561,4
79824,125497,5
79791,125472,5
79796,125464,5
79804,125489,4
79818,125518,5
79838,125537,6
79858,125568,4
79877,125603,5
79915,125640,4
79942,125687,5
79985,125723,5
79986,125742,5
80003,125754,5
80010,125754,4
80004,125740,5
79976,125698,5
79895,125564,5
79735,125348,5
79601,125162,4
79482,125016,5
79377,124855,5
79268,124703,5
79171,124578,4
79107,124514,4
79085,124489,5
79092,124489,5
79095,124502,5
79114,124527,4
79142,124562,5
79187,124632,5
79236,124705,5
79307,124804,5
79378,124899,4
79454,125016,5
79531,125125,5
79616,125233,5
79680,125341,5
79763,125433,4
79812,125518,5
79865,125593,5
79916,125647,5
79961,125712,5
80002,125756,4
80024,125793,5
80048,125832,5
80066,125844,5
80069,125861,4
80076,125854,4
80078,125857,5
80083,125862,5
80076,125868,5
80098,125878,5
80088,125862,4
80054,125846,5
80048,125810,5
80014,125760,5
79987,125726,4
79889,125665,5
79898,125616,5
79855,125532,5
79800,125463,5
79666,125391,4
79706,125321,5
79652,125256,5
79611,125197,5
79500,125157,5
79548,125119,4
79532,125113,5
79539,125122,5
79577,125131,5
79561,125145,4
79577,125173,4
79608,125213,6
79738,125265,4
79693,125332,5
79746,125406,4
79805,125504,7
79961,125597,3
79936,125693,5
80008,125773,5
80073,125857,4
80127,125910,5
80142,125965,5
80173,126009,5
80194,126031,5
80215,126033,4
80218,126065,5
80230,126074,5
80228,126076,5
80213,125990,5
80210,126049,4
80207,126043,5
80184,126018,5
80157,125885,5
80151,125935,4
80108,125892,4
80072,125856,4
80033,125781,6
79998,125748,4
79957,125692,4
79924,125648,5
79885,125670,5
79852,125551,5
79825,125513,5
79798,125459,4
79771,125543,5
79748,125382,5
79708,125339,5
79660,125273,5
79598,125233,4
79525,125078,5
79445,124979,5
79371,124858,5
79288,124746,5
79199,124625,4
79134,124531,5
79069,124443,5
79026,124385,5
78989,124344,5
78970,124319,4
78974,124324,5
78982,124328,5
78993,124344,6
79001,124363,3
79018,124371,5
79020,124389,5
79025,124397,5
79040,124417,5
79058,124443,4
79073,124448,5
79072,124458,5
79075,124461,5
79068,124458,5
79046,124431,4
79022,124358,5
78878,124141,5
78702,123914,5
78595,123756,5
78498,123620,4
78401,123486,5
78312,123396,5
78281,123349,5
78283,123353,4
78293,123381,5
78319,123422,4
78375,123483,5
78439,123577,5
78517,123717,6
78617,123858,3
78738,124036,5
78873,124208,5
79000,124393,5
79138,124572,4
79271,124755,5
79381,124908,5
79477,125045,5
79565,125162,5
79633,125268,4
79698,125338,5
79742,125404,5
79791,125473,5
79826,125511,5
79852,125559,4
79879,125575,5
79890,125589,5
79877,125592,5
79884,125594,4
79898,125603,4
79902,125621,6
79924,125657,4
79918,125644,5
79917,125628,4
79894,125616,5
79888,125573,5
79861,125543,5
79824,125502,5
79790,125441,4
79760,125391,5
79711,125343,5
79670,125285,5
79637,125256,5
79606,125197,4
79569,125147,5
79536,125088,5
79502,125058,5
79490,125025,5
79466,124991,4
79452,124978,5
79444,124975,5
79452,124970,5
79461,125011,4
79482,125038,4
79523,125085,5
79548,125158,6
79594,125243,4
79704,125366,4
79805,125509,5
79907,125656,5
79944,125800,5
80104,125919,5
80186,126023,4
80249,126104,5
80201,126167,5
80321,126201,5
80339,126228,5
80339,126233,4
80319,126234,5
80333,126207,5
80314,126195,5
80298,126155,5
80341,126129,4
80241,126093,5
80211,126055,5
80184,126004,5
80257,125954,5
80118,125909,4
80078,125862,5
80037,125801,5
80052,125743,6
79938,125664,3
79882,125576,5
79812,125470,5
79744,125370,5
79646,125238,5
79555,125122,4
79482,125006,5
79404,124858,5
79342,124823,5
79297,124747,5
79247,124700,4
79225,124569,5
79194,124637,5
79179,124616,5
79182,124595,5
79172,124519,4
79183,124603,5
79182,124614,5
79189,124616,5
79187,124657,4
79183,124619,5
79184,124624,4
79176,124613,5
79187,124705,5
79168,124588,4
79165,124583,5
79153,124562,5
79145,124642,5
79106,124480,5
78971,124288,4
78850,124118,5
78777,124077,5
78737,123977,5
78673,123887,5
78637,123847,4
78626,123828,5
78624,123838,5
78639,123861,5
78663,123899,5
78708,123967,4
78769,124067,5
78855,124181,5
78952,124325,5
79068,124496,4
79196,124672,5
79326,124858,6
79453,125024,4
79568,125202,5
79673,125339,4
79774,125485,5
79877,125606,5
79940,125699,5
80003,125782,5
80054,125857,4
80104,125919,5
80144,125974,5
80189,126033,5
80218,126070,5
80249,126111,4
80273,126124,5
80263,126150,5
80280,126153,5
80284,126160,5
80285,126153,4
80264,126118,5
80229,126078,5
80187,126017,5
80134,125927,4
80062,125826,5
79981,125716,5
79900,125604,6
79803,125471,4
79725,125370,4
79667,125280,5
79619,125214,5
79578,125182,5
79572,125161,5
79578,125167,4
79585,125187,5
79602,125218,5
79627,125263,5
79668,125310,5
79715,125376,4
79762,125458,5
79831,125545,5
79896,125639,5
79966,125733,5
80026,125832,4
80094,125913,5
80150,125989,5
80211,126065,5
80252,126122,5
80283,126181,4
80327,126240,5
80362,126280,5
80392,126319,5
80414,126370,4
80436,126392,5
80463,126427,5
80480,126452,5
80486,126452,5
80496,126462,4
80491,126454,5
80491,126440,5
80477,126442,5
80463,126419,5
80422,126371,4
80384,126292,5
80307,126189,5
80224,126060,5
80124,125915,4
80004,125753,4
79883,125595,5
79785,125431,5
79679,125298,5
79591,125195,4
79491,125145,6
79517,125086,4
79494,125065,5
79480,125059,5
79393,125059,4
79483,125065,5
79498,125081,5
79500,125079,5
79427,125087,5
79517,125110,4
79525,125103,5
79519,125108,5
79561,125103,5
79527,125104,5
79522,125103,4
79516,125093,5
79563,125002,5
79367,124859,5
79281,124742,4
79217,124666,4
79244,124570,5
79089,124483,5
79029,124425,5
79006,124400,4
79039,124392,5
79022,124403,6
79041,124448,4
79085,124520,5
79162,124602,4
79264,124785,5
79397,124987,5
79564,125211,5
79741,125391,5
79938,125746,4
80145,126029,5
80316,126270,5
80489,126396,5
80625,126689,5
80753,126847,5
80847,126970,4
80918,127042,5
80965,127138,5
81005,127179,4
81022,127207,4
81035,127286,5
81026,127211,5
81026,127210,6
81024,127182,3
81021,127307,5
81024,127204,5
81018,127199,5
81007,127185,5
81000,127219,4
80977,127143,5
80965,127115,5
80924,127062,5
80883,127020,5
80831,126933,4
80784,126858,5
80723,126771,5
80657,126677,5
80583,126582,5
80532,126503,4
80474,126448,5
80451,126412,5
80441,126386,5
80431,126388,4
80438,126386,4
80452,126409,5
80474,126449,5
80498,126472,5
80540,126545,5
80596,126627,4
80656,126712,5
80729,126819,5
80814,126939,5
80890,127064,4
80982,127179,5
81072,127289,5
81144,127399,5
81221,127500,5
81290,127590,4
81350,127674,5
81394,127737,5
81415,127767,5
81428,127787,5
81422,127777,4
81417,127747,5
81393,127728,5
81361,127671,5
81323,127619,4
81284,127570,4
81258,127502,6
81208,127472,4
81178,127421,5
81149,127376,4
81119,127350,7
81098,127321,3
81099,127318,5
81091,127312,5
81083,127307,4
81085,127299,5
81088,127311,5
81087,127301,5
81074,127290,5
81075,127293,4
81055,127253,5
81027,127209,5
80957,127075,5
80796,126846,5
80662,126674,4
80564,126573,5
80500,126448,5
80399,126344,5
80348,126276,4
80322,126236,4
80335,126251,5
80338,126265,6
80345,126297,4
80369,126322,4
80413,126389,5
80480,126474,5
80550,126587,5
80645,126747,5
80774,126910,4
80911,127083,5
81038,127287,5
81180,127483,5
81328,127671,5
81434,127821,4
81545,127968,5
81651,128115,5
81743,128220,5
81828,128338,5
81884,128424,4
81950,128515,5
82002,128583,5
82034,128651,5
82098,128722,5
82136,128777,4
82189,128846,5
82174,128922,5
82267,128922,6
82252,128917,3
82252,128905,5
82131,128878,5
82195,128835,5
82162,128779,5
82113,128717,4
82007,128649,5
82019,128582,5
81963,128517,5
81915,128442,5
81909,128362,4
81802,128291,5
81763,128240,5
81730,128215,5
81833,128201,5
81736,128210,4
81740,128219,5
81755,128237,5
81841,128263,5
81814,128314,5
81843,128382,5
81894,128459,4
81992,128547,5
82028,128650,5
82103,128736,6
82182,128838,3
82245,128891,5
82313,129020,5
82377,129102,5
82415,129175,4
82465,129144,5
82479,129244,5
82488,129241,5
82466,129237,5
82453,129097,4
82422,129153,5
82376,129092,5
82337,129048,5
82303,128990,5
82269,128955,4
82238,128898,5
82209,128863,5
82191,128935,5
82182,128829,5
82172,128824,4
82179,128828,6
82175,128950,4
82184,128856,5
82205,128869,4
82217,128892,5
82237,128957,5
82244,128901,5
82239,128900,5
82208,128845,4
82118,128716,5
82021,128585,5
81937,128479,5
81856,128351,5
81763,128237,4
81702,128144,5
81668,128114,5
81645,128080,5
81643,128091,5
81645,128098,4
81663,128130,5
81686,128162,5
81717,128189,5
81760,128256,5
81814,128340,4
81882,128427,5
81951,128521,6
82028,128642,7
82119,128765,1
82206,128859,5
82267,128978,5
82331,129044,5
82384,129109,5
82420,129143,4
82441,129184,5
82448,129196,5
82459,129193,5
82451,129186,5
82448,129180,4
82439,129176,5
82438,129163,5
82440,129177,5
82439,129181,5
82442,129178,4
82446,129180,5
82459,129183,5
82451,129188,5
82448,129179,5
82448,129171,4
82444,129168,5
82436,129164,5
82427,129141,6
82410,129127,3
82395,129094,5
82359,129038,5
82296,128962,5
82247,128876,5
82174,128790,4
82111,128734,5
82082,128680,5
82061,128644,5
82044,128630,5
82048,128619,4
82046,128632,5
82051,128641,5
82053,128660,5
82069,128679,5
82095,128699,4
82117,128735,5
82142,128766,5
82161,128806,5
82188,128835,5
82218,128871,5
82241,128905,4
82265,128942,5
82284,128961,5
82320,128994,4
82320,129030,5
82350,129057,5
82365,129068,5
82375,129087,5
82379,129091,4
82378,129086,5
82361,129083,5
82359,129049,5
82324,128998,5
82263,128908,4
82175,128769,5
82044,128588,5
81886,128367,5
81723,128137,5
81508,127911,4
81426,127743,5
81334,127629,5
81288,127574,5
81189,127554,4
81261,127556,4
81275,127559,6
81287,127584,4
81213,127616,5
81338,127671,4
81389,127737,5
81445,127817,5
81522,127911,5
81569,127972,5
81609,128033,4
81628,128035,5
81667,127949,5
81482,127846,5
81432,127755,5
81373,127669,4
81408,127572,5
81236,127486,5
81201,127430,5
81149,127388,5
81173,127360,4
81129,127363,5
81128,127361,5
81138,127381,5
81170,127402,4
81189,127458,4
81235,127517,5
81286,127596,6
81354,127613,4
81424,127771,4
81496,127878,5
81568,127967,5
81640,127977,5
81703,128149,5
81760,128235,5
81818,128310,4
81862,128326,5
81909,128442,5
81953,128490,5
81971,128504,4
81991,128593,5
81997,128545,5
81998,128554,5
82003,128568,5
82007,128679,4
82029,128598,5
82048,128630,5
82086,128666,5
82083,128735,5
82088,128666,4
82092,128672,5
82085,128671,5
82071,128665,5
82051,128623,4
82033,128598,5
82003,128545,5
81963,128477,5
81895,128395,5
81830,128299,4
81755,128193,5
81680,128096,5
81609,128002,5
81572,127954,5
81552,127927,4
81537,127919,5
81546,127932,5
81550,127941,5
81581,127983,5
81609,128017,4
81651,128076,5
81693,128123,5
81733,128191,5
81777,128258,4
81812,128318,5
81861,128377,4
81894,128419,5
81924,128464,5
81961,128506,4
81980,128526,5
81995,128547,5
82010,128569,5
82027,128583,5
82029,128607,4
82044,128608,5
82056,128630,5
82047,128621,5
82063,128642,5
82078,128650,4
82069,128650,5
82068,128642,5
82061,128652,5
82062,128636,5
82046,128609,4
82019,128568,5
81985,128499,5
81896,128401,5
81810,128250,4
81680,128063,4
81527,127850,6
81367,127633,4
81231,127448,5
81123,127304,4
81036,127213,5
80994,127160,5
80972,127126,5
80975,127119,5
80961,127112,4
80959,127111,5
80964,127118,5
80987,127163,5
81021,127213,5
81063,127268,4
81108,127343,5
81164,127416,5
81229,127491,5
81285,127564,5
81306,127593,4
81299,127581,5
81228,127456,5
81115,127297,5
81027,127182,4
80941,127061,4
80847,126901,5
80719,126751,5
80647,126645,5
80579,126555,4
80537,126517,5
80519,126488,5
80512,126471,5
80521,126492,5
80539,126526,4
80569,126576,5
80616,126637,5
80658,126741,5
80756,126838,5
80837,126959,4
80926,127067,5
80932,127188,5
81088,127294,5
81156,127384,5
81209,127475,4
81173,127531,5
81311,127596,5
81345,127636,5
81375,127683,5
81387,127713,4
81428,127757,5
81440,127780,5
81454,127784,5
81529,127801,4
81468,127795,5
81477,127809,5
81483,127845,5
81601,127844,5
81496,127830,4
81491,127812,5
81475,127800,5
81516,127790,5
81434,127747,5
81410,127719,4
81388,127674,5
81376,127650,5
81324,127614,5
81301,127555,5
81250,127506,4
81221,127399,5
81170,127395,4
81137,127329,5
81099,127275,4
81071,127142,7
81033,127203,3
81016,127184,5
81006,127173,5
81009,127084,4
81025,127183,5
81030,127197,5
81043,127227,5
81069,127299,5
81103,127308,4
81127,127346,5
81172,127408,5
81208,127553,5
81248,127521,5
81287,127565,4
81317,127605,5
81345,127744,5
81370,127667,5
81393,127698,5
81413,127726,4
81428,127786,5
81437,127755,6
81429,127754,4
81431,127741,4
81421,127743,5
81414,127740,5
81414,127732,5
81414,127737,5
81411,127714,4
81396,127695,5
81375,127670,5
81356,127660,5
81333,127609,5
81300,127572,4
81270,127512,5
81226,127460,5
81172,127395,5
81133,127333,5
81086,127261,4
81036,127189,5
80984,127126,5
80945,127082,5
80901,127013,5
80872,126987,4
80852,126948,5
80840,126942,5
80838,126915,6
80831,126911,3
80821,126904,5
80819,126888,5
80805,126874,5
80787,126851,5
80741,126772,4
80680,126680,5
80581,126544,5
80478,126376,5
80356,126215,5
80236,126059,4
80144,125925,5
80064,125835,5
80016,125771,5
79978,125723,5
79964,125696,4
79960,125692,5
79966,125702,5
79971,125717,5
79977,125728,4
79992,125744,5
80007,125772,4
80047,125821,5
80077,125869,5
80100,125888,6
80108,125911,3
80121,125934,5
80126,125939,5
80117,125906,5
80097,125856,4
79995,125700,5
79840,125488,5
79725,125349,5
79644,125239,5
79563,125121,4
79486,125011,5
79428,124940,5
79405,124902,5
79385,124889,5
79387,124893,4
79388,124901,5
79398,124917,5
79421,124958,5
79460,125015,4
79515,125086,4
79576,125165,6
79641,125277,4
79721,125380,5
79812,125508,4
79899,125633,5
79982,125741,5
80054,125847,5
80115,125931,5
80178,126008,4
80214,126059,5
80245,126101,5
80281,126136,5
80291,126159,5
80236,126164,4
80311,126175,5
80304,126178,5
80310,126180,5
80231,126188,5
80316,126191,4
80323,126199,5
80335,126219,5
80269,126195,5
80318,126180,4
80296,126152,4
80264,126117,5
80297,126077,6
80203,126025,4
80161,125962,4
80116,125903,5
80171,125841,5
80031,125781,5
79981,125723,5
79942,125655,4
79980,125600,5
79870,125559,5
79843,125530,5
79840,125516,5
79845,125517,4
79829,125535,5
79836,125533,5
79836,125533,5
79859,125524,5
79881,125591,4
79915,125643,5
79944,125683,5
79986,125658,5
80034,125802,5
80079,125875,4
80127,125951,5
80183,125916,5
80208,126064,6
80249,126103,4
80270,126130,4
80295,126158,5
80293,126155,5
80298,126165,5
80286,126157,4
80294,126234,5
80279,126142,5
80266,126115,5
80253,126106,5
80243,126194,4
80237,126077,5
80227,126070,5
80212,126040,5
80199,126067,4
80176,126006,4
80164,125973,5
80128,125920,5
80098,125891,5
80058,125808,4
80002,125756,6
79958,125679,4
79908,125616,5
79848,125536,5
79797,125454,4
79737,125364,5
79664,125259,5
79590,125174,5
79531,125089,5
79489,125022,4
79437,124953,5
79389,124890,5
79337,124829,5
79292,124762,5
79230,124671,4
79170,124567,5
79077,124455,5
78989,124316,5
78901,124191,6
78816,124081,3
78746,123990,5
78704,123921,5
78677,123899,5
78660,123875,4
78659,123886,5
78673,123897,6
78682,123915,4
78695,123937,5
78712,123961,4
78725,123966,5
78732,123971,5
78739,124008,5
78742,123998,5
78750,124015,4
78758,124021,5
78771,124019,5
78757,124023,5
78753,123999,5
78712,123921,4
78592,123763,5
78509,123658,5
78463,123598,5
78397,123497,4
78323,123394,4
78273,123339,5
78250,123303,5
78241,123297,5
78247,123298,4
78266,123338,5
78296,123395,5
78358,123469,6
78439,123597,4
78542,123746,4
78665,123928,5
78814,124127,5
78956,124338,5
79097,124531,5
79243,124713,4
79361,124895,5
79469,125028,5
79563,125158,5
79645,125271,5
79706,125361,4
79765,125432,5
79816,125495,5
79858,125546,5
79882,125596,4
79915,125628,4
79936,125654,5
79939,125671,5
79947,125680,5
79964,125705,5
79973,125719,4
79995,125737,5
79992,125729,5
79973,125702,5
79940,125647,4
79904,125609,5
79849,125541,5
79736,125451,5
79740,125353,5
79664,125254,4
79600,125165,5
79454,125084,5
79490,125036,5
79472,125002,5
79448,124966,4
79338,124957,5
79444,124961,5
79445,124976,5
79456,124984,4
79496,125003,5
79487,125025,5
79504,125043,5
79520,125082,5
79648,125147,4
79601,125201,6
79659,125294,4
79743,125406,5
79914,125524,5
79910,125643,4
79987,125765,5
80076,125878,5
80190,125980,5
80217,126067,5
80271,126127,4
80304,126166,5
80322,126179,5
80310,126189,5
80308,126179,5
80304,126163,4
80296,126093,5
80283,126124,5
80249,126107,5
80236,126077,4
80213,125968,5
80193,126016,5
80165,125984,6
80147,125943,4
80107,125853,4
80067,125839,5
80024,125786,7
79984,125719,3
79925,125709,5
79868,125555,4
79784,125435,5
79700,125306,5
79616,125291,5
79511,125050,5
79427,124940,4
79344,124818,5
79268,124793,5
79217,124624,5
79154,124567,4
79105,124511,4
79086,124489,5
79072,124454,5
79074,124465,5
79090,124484,4
79097,124495,5
79116,124528,5
79138,124558,5
79150,124573,5
79158,124573,4
79158,124578,5
79167,124581,5
79151,124563,5
79151,124566,5
79136,124531,4
79095,124483,5
79016,124350,5
78839,124092,5
78693,123914,5
78613,123810,4
78555,123722,5
78488,123637,5
78453,123591,5
78443,123587,4
78451,123606,4
78482,123651,5
78526,123715,5
78597,123806,5
78677,123942,4
78792,124103,5
78914,124284,5
79058,124490,5
79214,124706,5
79351,124895,5
79501,125094,4
79627,125266,5
79739,125414,5
79830,125538,5
79901,125636,4
79940,125703,5
79992,125750,5
80016,125795,5
80040,125821,5
80058,125843,4
80064,125857,5
80080,125875,5
80083,125866,5
80087,125879,4
80096,125898,4
80107,125924,5
80150,125977,5
80153,125970,5
80145,125965,4
80136,125949,5
80127,125936,5
80106,125904,5
80069,125858,5
80031,125783,4
79977,125719,6
79908,125615,3
79830,125518,5
79764,125404,5
79685,125317,4
79632,125244,5
79601,125209,5
79597,125196,5
79602,125200,5
79609,125215,4
79622,125241,5
79653,125286,5
79687,125349,5
79736,125411,4
79797,125504,4
79865,125608,5
79961,125736,5
80064,125870,5
80142,125996,4
80253,126148,5
80357,126303,5
80482,126476,6
80585,126628,4
80701,126770,4
80771,126900,5
80864,127000,5
80910,127045,5
80939,127097,5
80871,127094,4
80931,127073,5
80896,127027,5
80843,126948,5
80689,126845,5
80689,126707,4
80579,126542,5
80452,126382,5
80304,126226,5
80236,126088,4
80141,125956,4
80076,125875,5
80103,125827,5
80022,125808,5
80019,125813,5
80033,125837,4
80134,125837,5
80045,125840,5
80054,125846,6
80048,125839,3
80112,125834,5
80032,125826,5
80010,125784,5
79957,125712,5
79918,125625,4
79789,125424,5
79582,125140,5
79429,124955,5
79324,124790,5
79245,124712,4
79164,124615,5
79125,124548,5
79110,124452,5
79120,124547,4
79139,124578,4
79163,124629,5
79214,124611,5
79291,124820,5
79384,124942,5
79503,125133,5
79640,125337,4
79796,125535,5
79944,125734,5
80089,125943,6
80228,126231,3
80379,126340,5
80518,126528,5
80638,126690,5
80729,126927,4
80819,126932,5
80869,127020,5
80916,127070,5
80954,127170,5
80980,127145,4
81001,127172,5
81024,127203,5
81044,127255,5
81071,127299,4
81115,127335,4
81103,127331,5
81111,127331,5
81091,127319,5
81100,127295,4
81048,127244,5
81004,127163,6
80960,127108,4
80890,127017,5
80830,126912,4
80757,126818,5
80683,126709,5
80599,126624,5
80556,126538,5
80520,126495,4
80495,126489,5
80496,126470,5
80496,126482,5
80513,126501,5
80518,126513,4
80541,126547,5
80571,126600,5
80617,126667,5
80680,126744,4
80741,126839,4
80807,126931,5
80881,127041,5
80973,127161,5
81050,127277,4
81119,127369,5
81184,127458,5
81238,127531,6
81280,127575,4
81299,127606,4
81303,127617,5
81304,127607,5
81289,127589,5
81276,127560,5
81242,127506,4
81198,127461,5
81164,127403,5
81131,127355,5
81097,127330,5
81088,127317,4
81082,127298,5
81084,127310,5
81091,127315,5
81090,127322,4
81102,127336,4
81125,127376,5
81154,127415,5
81183,127441,5
81197,127460,5
81197,127456,4
81198,127442,5
81162,127368,5
81054,127238,6
80953,127113,3
80871,126994,5
80802,126882,5
80721,126793,5
80684,126738,5
80663,126724,4
80674,126752,5
80681,126758,5
80719,126816,5
80772,126892,5
80837,126995,4
80930,127121,5
81028,127279,5
81156,127450,5
81288,127616,4
81406,127795,5
81526,127983,5
81678,128168,5
81799,128334,5
81914,128495,4
82014,128625,6
82112,128740,4
82154,128865,5
82258,128963,5
82337,129062,4
82384,129130,5
82355,129204,5
82477,129264,5
82518,129298,5
82542,129354,4
82482,129384,5
82622,129463,5
82682,129531,5
82688,129534,5
82700,129553,4
82703,129555,5
82700,129543,5
82682,129535,5
82759,129497,4
82634,129459,5
82605,129412,5
82562,129353,5
82614,129280,5
82467,129213,4
82410,129134,5
82356,129072,6
82368,129023,4
82307,129010,5
82297,129010,4
82313,129023,5
82340,129038,5
82344,129067,5
82362,129103,5
82392,129137,4
82419,129132,5
82460,129253,5
82506,129313,5
82563,129377,5
82607,129356,4
82646,129496,5
82697,129561,5
82739,129610,5
82759,129545,4
82767,129655,4
82766,129650,5
82749,129618,5
82735,129640,5
82715,129570,4
82685,129533,5
82651,129490,5
82613,129530,6
82565,129376,4
82540,129325,4
82503,129285,5
82470,129350,5
82464,129229,5
82468,129232,5
82471,129257,4
82512,129330,5
82550,129363,5
82591,129428,5
82650,129489,5
82689,129560,4
82705,129559,5
82673,129497,5
82633,129465,5
82619,129437,4
82588,129375,5
82545,129326,5
82506,129283,5
82484,129249,5
82454,129205,5
82432,129175,4
82420,129150,5
82402,129133,5
82402,129141,5
82401,129164,4
82418,129167,5
82450,129208,5
82478,129243,5
82508,129303,5
82555,129372,4
82589,129409,5
82647,129484,5
82684,129535,5
82720,129590,5
82757,129621,4
82785,129657,5
82806,129700,5
82828,129715,5
82833,129734,4
82848,129754,5
82854,129754,5
82853,129750,5
82849,129751,5
82850,129754,4
82854,129758,6
82863,129783,4
82869,129773,5
82868,129771,5
82870,129770,4
82872,129761,5
82856,129750,5
82837,129728,5
82816,129699,5
82800,129686,4
82785,129652,5
82767,129635,5
82747,129622,5
82742,129592,4
82732,129578,4
82711,129551,5
82695,129529,5
82667,129495,5
82655,129466,4
82636,129447,5
82624,129435,5
82614,129425,5
82608,129412,5
82605,129415,4
82593,129401,5
82591,129401,6
82604,129426,4
82621,129442,5
82653,129478,4
82689,129530,5
82719,129584,5
82756,129622,5
82780,129664,5
82799,129691,4
82808,129681,5
82807,129682,5
82791,129650,5
82767,129629,4
82726,129572,4
82678,129486,5
82606,129390,5
82522,129287,5
82446,129174,4
82360,129062,5
82285,128942,5
82211,128861,5
82160,128798,5
82064,128749,4
82115,128722,5
82110,128737,5
82120,128751,5
82058,128803,5
82185,128848,4
82227,128911,5
82267,128971,5
82202,128985,5
82269,128937,5
82224,128883,4
82208,128849,5
82202,128803,5
82129,128733,5
82074,128683,4
82021,128597,4
82091,128551,5
81948,128493,5
81895,128407,5
81854,128348,4
81925,128311,5
81792,128302,5
81788,128284,5
81798,128311,5
81852,128319,5
81834,128363,4
81879,128409,5
81927,128496,5
81994,128560,5
82064,128672,4
82125,128762,5
82184,128833,5
82238,128846,5
82280,128962,5
82312,129001,4
82341,129054,5
82371,128983,5
82388,129094,5
82387,129108,5
82389,129089,4
82385,129032,5
82382,129081,5
82386,129090,5
82394,129100,4
82382,129157,5
82389,129089,5
82381,129079,5
82380,129072,5
82357,129172,4
82350,129056,6
82359,129050,4
82352,129052,5
82342,129112,5
82336,129041,4
82320,129009,5
82305,128969,5
82267,128945,5
82225,128881,5
82195,128824,4
82160,128785,5
82139,128745,5
82119,128740,5
82110,128720,4
82100,128708,4
82110,128728,5
82114,128718,5
82113,128732,5
82118,128745,4
82144,128766,5
82171,128809,5
82208,128846,6
82236,128908,4
82284,128963,4
82314,129011,5
82348,129047,5
82367,129082,5
82390,129112,5
82414,129143,4
82432,129177,5
82453,129196,5
82471,129224,5
82475,129227,5
82485,129231,4
82475,129231,5
82468,129219,5
82472,129199,5
82440,129180,4
82402,129118,4
82353,129050,5
82283,128936,5
82194,128812,5
82086,128647,5
81965,128485,4
81863,128349,5
81771,128233,5
81700,128145,6
81646,128075,3
81605,128015,5
81586,127980,5
81563,127979,5
81579,127977,5
81586,127993,4
81588,128009,5
81610,128044,5
81631,128080,5
81665,128128,5
81702,128155,4
81712,128158,5
81674,128101,5
81607,128002,5
81563,127943,4
81521,127894,4
81461,127806,5
81408,127726,5
81359,127675,5
81338,127651,4
81309,127616,6
81298,127586,4
81285,127567,5
81289,127581,5
81291,127588,6
81299,127601,3
81329,127638,5
81364,127687,5
81402,127742,5
81452,127823,4
81530,127926,5
81591,128002,5
81656,128104,5
81730,128190,5
81789,128270,4
81837,128345,5
81888,128397,5
81918,128458,5
81960,128499,4
81984,128519,4
81994,128547,5
81961,128556,5
81986,128543,5
81998,128536,4
81984,128539,5
81921,128540,6
82000,128563,4
82007,128545,5
81996,128553,4
81903,128539,5
81979,128525,5
81975,128513,5
81958,128499,5
81897,128464,4
81918,128436,5
81887,128398,5
81860,128350,5
81883,128299,5
81772,128232,4
81736,128176,5
81689,128122,5
81753,128060,5
81618,128027,4
81597,127993,4
81576,127974,5
81637,127961,5
81576,127955,5
81573,127965,4
81582,127981,5
81613,127997,5
81613,128020,6
81614,128035,4
81642,128068,4
81676,128061,5
81713,128165,5
81750,128221,5
81791,128270,5
81826,128246,4
81879,128397,5
81908,128441,5
81951,128496,5
81992,128456,5
82021,128599,4
82055,128646,5
82090,128681,5
82107,128733,5
82124,128736,4
82128,128747,5
82133,128745,5
82137,128839,5
82132,128735,5
82124,128711,5
82108,128705,4
82095,128797,5
82084,128667,5
82069,128650,6
82051,128638,3
82038,128661,5
82021,128585,5
82007,128565,5
81990,128539,5
81970,128511,4
81953,128480,5
81923,128446,5
81911,128431,5
81890,128396,5
81871,128373,4
81845,128346,5
81821,128302,5
81791,128264,5
81765,128228,4
81726,128157,4
81677,128102,5
81620,128007,5
81542,127890,5
81443,127746,4
81312,127540,6
81136,127308,4
80946,127055,5
80800,126847,5
80668,126671,4
80580,126568,5
80513,126481,5
80486,126432,5
80465,126417,5
80459,126427,4
80480,126441,5
80495,126469,5
80520,126506,5
80549,126547,5
80594,126617,4
80660,126691,5
80709,126778,5
80782,126861,5
80834,126949,4
80886,127002,5
80896,127020,5
80889,126992,5
80804,126855,5
80667,126667,4
80558,126518,5
80479,126402,6
80366,126262,4
80260,126103,5
80173,125990,4
80100,125903,5
80064,125841,5
80047,125837,5
80061,125841,5
80076,125872,4
80101,125910,5
80149,125984,5
80215,126077,5
80275,126182,5
80374,126305,4
80467,126438,5
80561,126571,5
80651,126685,5
80709,126781,4
80793,126884,5
80836,126948,5
80879,126995,5
80897,127026,5
80920,127040,4
80937,127077,5
80939,127076,5
80949,127083,6
80951,127095,4
80959,127103,4
80963,127108,5
80968,127123,5
80980,127141,5
81001,127174,5
81039,127213,4
81033,127204,5
81035,127198,5
81015,127171,5
80999,127139,5
80965,127096,4
80913,127026,5
80862,126953,5
80813,126880,5
80712,126801,4
80692,126719,5
80647,126641,5
80570,126562,5
80446,126493,5
80497,126451,5
80465,126404,4
80444,126387,5
80347,126366,5
80434,126378,5
80450,126383,4
80459,126409,5
80492,126436,5
80508,126477,5
80541,126522,5
80589,126591,4
80723,126665,5
80681,126731,5
80740,126807,5
80786,126884,4
80927,126932,4
80870,126987,5
80883,127008,5
80913,127031,5
80952,127060,4
80926,127064,5
80927,127068,5
80934,127077,4
80952,127073,5
80938,127089,4
80948,127087,6
80941,127074,3
80934,126996,5
80916,127042,5
80895,127004,4
80873,126987,5
80832,126830,5
80796,126870,5
80754,126810,5
80720,126754,4
80675,126676,5
80665,126682,5
80630,126649,5
80618,126631,4
80603,126678,4
80593,126599,5
80591,126590,5
80572,126581,5
80571,126653,4
80550,126516,5
80528,126477,5
80487,126428,5
80422,126418,5
80347,126246,4
80273,126127,5
80187,125997,6
80097,125904,4
80003,125754,5
79932,125651,4
79854,125554,5
79789,125448,5
79714,125362,5
79657,125289,5
79592,125193,4
79532,125114,5
79471,125033,5
79421,124936,5
79350,124859,4
79304,124785,4
79240,124697,5
79195,124634,5
79148,124577,5
79115,124531,4
79092,124504,5
79099,124510,5
79101,124520,5
79116,124550,5
79139,124571,7
79166,124607,2
79188,124643,5
79197,124683,5
79242,124718,5
79244,124722,4
79239,124726,5
79241,124703,5
79211,124663,5
79175,124597,5
79065,124418,4
78877,124156,5
78748,124006,5
78670,123894,5
78612,123811,4
78560,123745,4
78526,123709,5
78527,123720,5
78541,123732,5
78567,123791,4
78620,123857,5
78685,123948,5
78766,124066,5
78859,124202,5
78964,124336,5
79058,124475,4
79152,124600,5
79244,124730,5
79333,124841,5
79408,124960,4
79481,125061,5
79548,125148,5
79613,125232,5
79674,125320,5
79720,125390,4
79794,125479,5
79858,125561,5
79914,125659,5
79978,125736,4
80026,125815,4
80066,125872,5
80113,125924,5
80148,125969,5
80190,126019,4
80228,126092,5
80266,126140,5
80267,126121,5
80254,126110,5
80247,126074,4
80228,126059,6
80195,126018,4
80156,125961,5
80117,125891,5
80064,125825,4
80005,125750,5
79958,125690,5
79902,125599,5
79859,125547,5
79818,125493,4
79775,125450,5
79749,125411,5
79748,125411,5
79757,125422,4
79762,125438,4
79725,125480,5
79826,125519,5
79874,125606,5
79954,125719,4
79950,125839,5
80122,125955,5
80217,126072,6
80286,126181,4
80292,126276,4
80419,126355,5
80459,126410,5
80497,126467,5
80578,126500,5
80548,126534,4
80579,126574,5
80600,126586,5
80711,126620,5
80634,126651,5
80656,126680,4
80669,126696,5
80763,126714,5
80681,126714,5
80676,126710,4
80674,126688,4
80679,126676,5
80634,126638,5
80589,126583,5
80529,126468,5
80439,126315,4
80330,126196,5
80215,126035,5
80111,125875,6
80007,125670,3
79919,125628,5
79843,125532,5
79793,125470,5
79771,125343,5
79766,125447,4
79774,125445,5
79775,125458,5
79787,125454,5
79791,125472,5
79797,125478,4
79791,125473,5
79799,125544,5
79780,125458,5
79776,125456,4
79759,125429,5
79746,125519,5
79726,125379,5
79713,125333,5
79615,125188,4
79469,125043,6
79372,124872,4
79318,124798,5
79258,124704,5
79205,124663,6
79175,124622,3
79177,124607,5
79184,124613,5
79184,124646,5
79218,124693,4
79256,124747,5
79315,124826,5
79381,124932,5
79484,125069,5
79582,125223,4
79700,125391,5
79835,125573,5
79963,125747,5
80099,125924,4
80209,126096,5
80314,126240,5
80408,126358,5
80484,126471,5
80553,126553,4
80609,126622,5
80649,126687,6
80685,126730,4
80704,126753,5
80710,126749,4
80709,126764,5
80715,126761,5
80724,126775,5
80712,126750,5
80680,126706,4
80642,126658,5
80604,126597,5
80563,126533,5
80510,126464,5
80446,126371,4
80398,126293,5
80336,126235,5
80272,126146,5
80227,126077,4
80192,126032,5
80165,125986,5
80138,125963,5
80124,125944,5
80123,125943,4
80122,125933,5
80125,125936,5
80135,125956,6
80144,125976,4
80163,126002,4
80184,126044,5
80234,126102,5
80291,126198,5
80380,126327,5
80478,126479,4
80606,126656,5
80748,126852,5
80883,127041,5
81018,127237,4
81136,127391,4
81247,127546,5
81351,127674,5
81413,127765,5
81470,127827,4
81491,127850,5
81484,127850,5
81467,127819,5
81420,127758,5
81365,127671,5
81291,127541,4
81183,127399,5
81065,127238,5
80948,127090,6
80852,126957,3
80767,126834,5
80702,126755,5
80657,126698,5
80636,126660,5
80626,126656,4
80638,126663,5
80633,126667,5
80643,126684,5
80615,126700,4
80656,126695,4
80657,126701,5
80657,126698,5
80574,126682,5
80615,126620,4
80563,126550,5
80481,126401,5
80194,126118,5
80087,125865,5
79965,125701,4
79870,125556,6
79746,125426,4
79695,125345,5
79657,125313,5
79664,125313,4
79748,125331,5
79699,125371,5
79746,125456,5
79831,125566,5
80038,125718,4
80063,125906,5
80219,126115,5
80390,126383,5
80611,126612,4
80735,126868,4
80909,127102,5
81062,127297,5
81192,127466,5
81279,127601,4
81354,127683,5
81401,127754,5
81441,127747,5
81459,127819,5
81478,127840,4
81491,127858,5
81504,127780,6
81514,127903,4
81546,127949,5
81603,128055,4
81663,128014,5
81675,128118,5
81678,128140,5
81684,128135,5
81676,128151,4
81663,128098,5
81638,128061,5
81597,128018,5
81556,128038,4
81499,127852,4
81414,127744,5
81327,127623,5
81244,127589,5
81174,127402,4
81102,127319,5
81056,127243,5
81026,127246,5
81011,127201,5
81005,127207,4
81030,127228,5
81045,127267,5
81098,127338,6
81146,127419,4
81233,127541,4
81322,127676,5
81431,127824,5
81544,127969,5
81651,128130,5
81763,128291,4
81876,128432,5
81961,128551,5
82042,128653,5
82087,128717,4
82122,128736,4
82118,128737,5
82114,128727,5
82093,128699,5
82064,128665,4
82035,128613,5
82000,128559,5
81967,128521,5
81926,128474,5
81893,128422,5
81868,128382,4
81845,128358,5
81824,128352,5
81828,128345,5
81831,128341,4
81839,128347,5
81857,128382,5
81873,128404,5
81888,128438,5
81898,128454,4
81910,128454,5
81918,128463,5
81866,128368,5
81793,128278,4
81737,128209,5
81678,128108,5
81586,127992,5
81522,127892,5
81475,127836,4
81437,127803,5
81416,127780,5
81418,127777,5
81435,127799,5
81453,127833,4
81479,127873,6
81533,127952,4
81606,128047,5
81685,128167,5
81762,128284,4
81852,128417,5
81942,128528,5
82027,128626,5
82104,128736,5
82173,128843,4
82253,128939,5
82306,129022,5
82367,129094,5
82418,129157,4
82445,129202,5
82484,129252,5
82515,129293,5
82542,129331,5
82567,129362,4
82602,129417,5
82658,129517,5
82695,129530,5
82695,129553,5
82699,129546,4
82694,129548,5
82699,129534,6
82679,129522,4
82671,129497,5
82643,129461,4
82618,129448,5
82599,129413,5
82568,129362,5
82539,129314,4
82482,129261,4
82381,129190,5
82409,129155,5
82387,129121,5
82380,129104,4
82267,129095,5
82367,129088,5
82376,129102,5
82383,129111,5
82325,129137,4
82418,129181,5
82455,129228,5
82504,129296,5
82597,129361,5
82621,129454,4
82669,129534,5
82723,129610,5
82884,129661,5
82811,129707,5
82823,129720,4
82827,129723,5
82895,129695,5
82786,129662,5
82736,129595,4
82684,129514,4
82646,129427,5
82568,129344,5
82501,129258,5
82459,129194,4
82410,129097,5
82374,129105,5
82364,129079,5
82347,129062,5
82347,128997,4
82378,129111,5
82400,129148,5
82429,129181,5
82445,129116,5
82476,129245,5
82470,129220,4
82422,129152,5
82369,129078,5
82337,129028,5
82285,128954,4
82231,128870,5
82184,128909,5
82162,128800,5
82148,128784,4
82137,128770,4
82139,128879,5
82139,128771,5
82141,128787,5
82153,128792,4
82172,128878,5
82187,128843,5
82213,128872,5
82239,128925,5
82275,128979,4
82314,129023,5
82362,129082,5
82401,129131,5
82444,129194,5
82479,129247,4
82519,129294,7
82562,129364,3
82596,129399,5
82628,129444,5
82656,129462,4
82660,129499,5
82679,129504,5
82670,129503,5
82684,129509,4
82679,129519,4
82701,129527,5
82696,129521,5
82686,129510,5
82679,129509,4
82672,129496,6
82664,129484,4
82643,129461,5
82641,129442,5
82634,129443,4
82630,129428,5
82623,129424,5
82607,129396,5
82581,129365,4
82558,129324,4
82522,129285,5
82489,129230,5
82462,129182,5
82424,129152,5
82409,129124,4
82383,129105,5
82367,129076,5
82348,129049,5
82351,129045,4
82346,129041,5
82348,129057,5
82360,129060,5
82376,129090,5
82390,129120,4
82427,129168,5
82445,129200,5
82485,129237,5
82511,129293,5
82548,129336,5
82583,129380,4
82598,129409,5
82627,129445,5
82647,129475,6
82658,129484,3
82667,129483,5
82660,129482,5
82648,129462,5
82612,129406,5
82561,129324,4
82474,129186,5
82353,129028,5
82244,128858,5
82100,128678,4
81970,128504,5
81865,128352,5
81781,128264,5
81737,128200,5
81717,128179,4
81715,128182,5
81722,128202,5
81750,128251,5
81793,128298,5
81847,128378,4
81905,128462,6
81978,128571,4
82058,128670,5
82107,128730,5
82138,128772,6
82125,128737,3
82059,128626,5
81983,128523,5
81871,128436,4
81843,128322,4
81749,128203,5
81679,128107,5
81535,128041,5
81593,127995,4
81557,127956,5
81552,127936,5
81441,127936,5
81556,127957,5
81575,127980,4
81595,128025,5
81658,128086,5
81682,128154,5
81745,128228,5
81808,128311,4
81954,128388,5
81912,128451,6
81951,128510,4
81988,128556,5
82118,128581,4
82030,128604,5
82047,128625,5
82052,128636,5
82100,128644,4
82070,128662,4
82080,128674,5
82101,128693,5
82111,128702,5
82136,128751,4
82163,128804,5
82218,128882,5
82252,128843,5
82256,128923,5
82263,128927,4
82261,128928,5
82270,128826,5
82268,128911,5
82251,128889,5
82234,128877,4
82216,128814,5
82189,128809,5
82164,128776,6
82128,128728,4
82087,128737,4
82037,128611,5
81997,128550,5
81964,128493,5
81929,128562,4
81914,128428,5
81901,128425,5
81889,128418,5
81900,128495,5
81903,128428,4
81918,128452,5
81935,128478,5
81960,128537,5
81998,128563,5
82034,128606,4
82075,128670,5
82103,128718,5
82141,128760,5
82178,128807,5
82212,128856,5
82240,128888,4
82259,128936,5
82289,128953,5
82306,128981,6
82323,129009,3
82340,129019,5
82343,129030,5
82345,129032,5
82341,129037,4
82354,129030,5
82346,129035,5
82339,129032,5
82338,129012,5
82330,129010,4
82330,128995,5
82318,128986,5
82305,128972,5
82297,128959,5
82278,128928,4
82269,128918,5
82246,128902,5
82229,128875,5
82195,128835,5
82175,128790,4
82148,128750,6
82104,128702,4
82077,128633,5
82014,128572,4
81965,128486,4
81907,128405,5
81832,128303,5
81738,128157,5
81607,127978,4
81453,127756,5
81284,127533,5
81134,127323,5
80990,127139,5
80907,127035,4
80849,126956,5
80821,126931,5
80823,126937,5
80827,126947,5
80839,126971,4
80872,126995,5
80885,127021,5
80928,127091,5
80990,127193,5
81055,127276,4
81120,127358,5
81181,127441,6
81240,127539,4
81309,127628,4
81353,127676,4
81363,127682,5
81328,127595,5
81210,127434,5
81103,127293,4
81020,127187,5
80932,127061,5
80821,126907,5
80731,126788,5
80664,126714,4
80615,126635,5
80575,126579,5
80558,126553,5
80553,126553,5
80555,126570,4
80577,126582,5
80586,126610,5
80620,126665,5
80661,126722,5
80715,126799,4
80776,126876,5
80812,126956,5
80885,127031,6
80935,127087,3
80970,127149,4
80937,127188,5
81026,127225,5
81050,127244,5
81061,127252,4
80968,127256,5
81058,127258,5
81059,127255,5
81062,127250,5
81020,127253,4
81043,127245,5
81043,127241,5
81048,127242,5
81121,127267,5
81055,127249,4
81045,127231,5
81038,127222,5
81131,127198,5
81018,127192,5
80986,127151,5
80957,127092,4
80973,127036,5
80874,126973,5
80816,126901,4
80758,126837,4
80736,126761,5
80674,126715,5
80632,126653,5
80596,126610,4
80581,126533,5
80582,126587,5
80584,126589,5
80590,126604,5
80613,126543,4
80634,126664,5
80671,126715,5
80706,126763,5
80739,126730,5
80782,126872,4
80823,126926,5
80855,126960,5
80874,127004,5
80891,127007,5
80900,127033,4
80917,127064,6
80927,127161,4
80941,127086,5
80950,127103,4
80974,127131,5
80977,127255,5
80984,127155,5
80990,127166,5
81001,127179,4
81004,127223,5
81011,127191,5
81012,127201,5
81018,127194,5
81013,127183,4
81001,127177,5
80988,127143,5
80971,127120,5
80948,127099,5
80923,127036,4
80880,127004,5
80856,126951,5
80801,126889,5
80732,126796,5
80668,126691,4
80588,126573,5
80511,126450,6
80407,126318,4
80300,126171,4
80206,126033,5
80124,125926,5
80055,125841,5
79998,125772,5
79968,125730,4
79949,125690,5
79934,125669,5
79922,125657,5
79923,125661,5
79925,125669,4
79941,125696,5
79971,125725,5
79986,125774,5
80029,125825,5
80075,125875,4
80115,125944,5
80138,125966,5
80147,125962,5
80108,125892,5
80000,125738,4
79906,125617,5
79827,125495,5
79742,125359,5
79618,125201,4
79500,125046,5
79411,124916,5
79325,124828,5
79267,124728,5
79217,124669,4
79195,124654,5
79195,124646,5
79201,124668,5
79224,124703,5
79262,124763,4
79321,124842,5
79399,124961,5
79495,125106,5
79606,125250,5
79723,125407,4
79824,125558,5
79928,125710,5
80037,125841,5
80116,125960,4
80192,126054,5
80244,126111,4
80287,126170,5
80304,126183,5
80308,126197,4
80297,126194,5
80291,126161,5
80273,126150,5
80253,126115,5
80240,126098,4
80208,126056,5
80151,125972,5
80079,125869,5
80001,125750,5
79930,125659,4
79860,125561,5
79789,125474,5
79720,125379,5
79669,125296,5
79618,125249,4
79592,125205,5
79566,125181,5
79554,125155,5
79492,125142,4
79529,125115,4
79524,125107,6
79529,125113,4
79446,125122,5
79526,125130,4
79548,125138,5
79558,125161,5
79494,125180,5
79603,125229,5
79647,125286,4
79680,125351,5
79776,125436,5
79813,125523,5
79862,125619,5
79937,125715,4
80094,125790,5
80058,125868,5
80095,125919,5
80131,125965,5
80235,125993,4
80182,126022,5
80185,126033,5
80197,126044,5
80223,126047,3
80204,126053,5
80207,126069,5
80216,126082,5
80227,126053,5
80237,126100,4
80250,126135,5
80260,126151,5
80271,126076,5
80281,126169,5
80288,126184,4
80300,126182,5
80301,126093,5
80300,126192,5
80297,126170,5
80283,126164,4
80273,126131,5
80245,126116,5
80233,126100,5
80222,126073,5
80204,126133,5
80194,126037,4
80180,126021,5
80164,125992,5
80154,126093,6
80128,125954,3
80114,125908,5
80069,125855,10
80027,125840,8
79960,125702,5
79889,125582,5
79809,125488,5
79579,125179,8
79579,125179,5
79579,125179,5
79563,125167,8
79560,125177,5
79574,125166,3
79580,125191,1
79594,125214,4
79604,125205,5
79606,125234,4
79620,125243,4
79645,125260,6
79649,125286,4
79666,125300,5
79668,125301,4
79665,125292,7
79667,125291,3
79628,125247,5
79537,125090,5
79435,124954,4
79368,124880,9
79317,124798,1
79259,124680,5
79207,124633,5
79180,124611,4
79175,124606,5
79169,124617,5
79189,124653,5
79240,124717,5
79295,124804,4
79374,124921,5
79477,125071,5
79595,125246,5
79729,125434,4
79880,125631,4
80009,125822,5
80141,125992,6
80245,126121,4
80328,126248,4
80408,126361,5
80463,126423,5
80516,126500,5
80575,126578,5
80627,126651,4
80659,126711,5
80704,126761,5
80734,126792,5
80750,126813,5
80756,126833,4
80761,126826,5
80757,126830,5
80753,126833,5
80743,126816,5
80722,126781,4
80698,126727,5
