RED,IR,EKG,TIME
41446,83329,10
41442,83314,10
41443,83317,9
41524,83460,11
41524,83460,7
41531,83472,5
41546,83504,10
41544,83514,5
41553,83516,5
41601,83583,10
41601,83583,5
41593,83573,5
41565,83555,10
41570,83533,5
41569,83533,5
41546,83485,10
41546,83485,5
41522,83445,7
41498,83420,8
41491,83353,5
41479,83353,7
41468,83330,8
41460,83316,5
41434,83290,7
41378,83193,8
41378,83193,5
41378,83135,7
41524,83460,8
41353,83156,9
41349,83150,5
41337,83117,8
41337,83117,7
41274,83112,5
41319,83102,8
41333,83108,7
41325,83106,8
41281,83108,5
41284,83031,7
41284,83031,5
41284,83003,8
41273,83007,7
41299,82991,5
41250,82976,8
41222,82982,7
41231,82976,5
41278,82953,8
41278,82953,7
41250,82966,5
41251,82960,8
41258,82959,7
41264,82945,8
41222,82958,7
41236,82944,7
41236,82944,8
41236,82939,7
41233,82899,10
41230,82923,10
41230,82923,5
41224,82923,8
41213,82916,7
41221,82934,7
41244,82959,10
41244,82959,5
41258,83015,5
41284,83067,10
41317,83129,5
41331,83124,5
41340,83131,10
41353,83175,5
41383,83239,5
41530,83497,10
41530,83497,5
41568,83539,5
41576,83551,10
41587,83560,5
41584,83576,5
41612,83623,5
41642,83674,1
41670,83723,0
41668,83710,5
41642,83654,5
41617,83616,5
41595,83565,5
41573,83538,4
41560,83528,5
41546,83487,5
41527,83458,5
41513,83436,5
41504,83407,4
41494,83381,5
41460,83351,5
41446,83310,5
41433,83287,4
41417,83269,6
41418,83254,4
41401,83227,5
41384,83195,5
41356,83153,4
41339,83123,5
41328,83106,5
41330,83104,5
41328,83106,5
41324,83094,4
41314,83075,5
41307,83062,5
41298,83045,5
41291,83020,5
41281,83024,4
41276,83011,5
41270,83007,5
41271,83000,5
41262,82981,5
41265,82990,4
41251,82988,5
41263,82990,5
41265,82989,5
41266,82995,4
41266,82992,4
41267,82996,6
41262,82989,4
41266,82994,5
41258,82991,4
41263,82988,5
41251,82973,5
41248,82955,5
41239,82950,5
41233,82943,4
41235,82929,5
41234,82945,5
41234,82940,5
41241,82943,5
41238,82956,4
41247,82954,5
41247,82956,5
41252,82964,5
41250,82967,5
41251,82964,4
41244,82960,5
41257,82966,5
41248,82978,5
41251,82978,5
41257,82988,4
41260,82979,5
41247,82976,6
41260,82987,4
41251,82989,4
41258,82992,4
41241,82977,5
41263,82990,5
41257,82988,5
41260,82985,4
41228,82982,5
41265,82990,5
41261,82979,5
41260,82988,5
41214,82984,4
41255,82991,5
41270,82998,5
41262,83001,5
41263,83000,5
41264,82990,4
41262,82988,5
41255,82981,5
41289,82977,5
41267,82983,5
41259,82990,4
41261,82982,5
41307,82986,5
41260,82982,6
41257,82994,4
41260,82998,4
41283,82987,5
41258,83001,5
41263,82988,5
41263,82999,4
41275,83008,4
41268,83009,5
41273,83013,5
41276,83016,5
41271,82996,4
41272,83022,5
41279,83021,5
41283,83030,5
41282,82983,5
41282,83018,4
41277,83027,5
41279,83020,5
41272,82993,5
41277,83015,5
41280,83024,5
41274,83011,4
41277,83036,5
41267,83010,5
41268,83003,5
41269,83012,4
41264,83052,5
41267,83008,5
41272,83000,5
41259,82991,5
41260,83026,4
41252,82987,5
41248,82975,5
41250,82976,5
41246,82979,4
41241,82960,4
41239,82959,5
41241,82959,5
41236,82952,5
41239,82949,4
41242,82952,5
41234,82940,5
41236,82930,5
41224,82926,5
41222,82926,4
41229,82933,6
41219,82926,4
41232,82942,5
41233,82939,5
41234,82954,4
41245,82959,5
41241,82968,5
41255,82985,5
41262,82987,5
41259,83000,4
41272,83014,5
41275,83018,5
41273,83015,5
41265,83013,5
41275,83023,4
41267,83031,5
41272,83032,5
41278,83020,5
41268,83003,4
41273,82996,4
41258,82976,5
41248,82971,5
41246,82963,5
41247,82971,4
41238,82971,5
41237,82960,6
41252,82975,4
41242,82968,5
41247,82979,4
41257,82971,5
41253,82980,5
41248,82971,5
41242,82962,5
41241,82955,4
41246,82957,5
41231,82959,5
41242,82953,5
41236,82963,5
41238,82955,4
41236,82948,5
41239,82951,5
41231,82957,5
41252,82945,5
41240,82951,4
41232,82957,5
41240,82949,5
41232,82949,5
41235,82948,4
41235,82945,5
41233,82943,5
41230,82955,5
41239,82948,5
41248,82961,4
41238,82964,5
41233,82951,5
41228,82948,5
41234,82950,5
41234,82949,4
41230,82954,5
41233,82951,5
41240,82957,5
41238,82964,5
41237,82960,4
41238,82957,5
41239,82957,5
41242,82958,5
41232,82968,5
41239,82960,4
41246,82964,5
41245,82962,5
41229,82965,5
41243,82972,5
41249,82971,4
41242,82974,5
41208,82978,5
41249,82977,5
41252,82978,4
41248,82976,5
41212,82978,5
41249,82985,5
41259,82975,5
41258,82987,4
41250,82991,5
41261,82991,5
41265,83000,5
41263,83006,5
41297,82992,4
41258,82996,5
41248,82981,5
41244,82962,5
41298,82961,5
41235,82956,4
41241,82965,6
41245,82944,4
41260,82934,5
41225,82951,5
41230,82951,5
41240,82958,3
41245,82963,5
41248,82964,5
41250,82969,4
41247,82972,4
41240,82941,5
41244,82961,5
41239,82968,5
41244,82966,4
41247,82945,5
41249,83003,5
41266,83018,5
41281,83053,5
41294,83022,4
41299,83085,5
41308,83083,5
41307,83096,5
41314,83126,5
41304,83089,4
41305,83078,5
41293,83063,6
41287,83084,4
41271,83010,5
41261,83008,4
41256,82986,7
41253,83013,3
41244,82975,5
41241,82962,5
41240,82958,4
41241,82969,5
41235,82958,5
41233,82948,5
41237,82943,4
41234,82939,4
41228,82938,5
41220,82920,5
41211,82912,5
41210,82910,4
41208,82908,5
41210,82910,5
41209,82900,5
41207,82907,5
41211,82901,4
41210,82900,5
41200,82901,5
41210,82904,6
41206,82903,4
41216,82901,4
41201,82887,5
41207,82899,5
41199,82898,5
41209,82902,5
41206,82892,4
41208,82904,5
41211,82904,5
41217,82909,5
41211,82904,5
41218,82921,4
41214,82913,5
41206,82916,5
41216,82907,5
41221,82916,4
41220,82911,5
41215,82913,5
41218,82914,5
41208,82915,5
41217,82906,5
41218,82910,4
41223,82912,5
41219,82922,5
41225,82919,6
41223,82930,3
41220,82933,5
41223,82930,5
41224,82951,5
41244,82967,5
41257,82975,4
41261,82990,5
41264,83008,5
41278,83023,5
41289,83059,5
41305,83088,4
41317,83110,5
41335,83155,5
41370,83194,5
41392,83240,5
41416,83282,4
41439,83330,5
41456,83360,5
41472,83363,5
41455,83351,4
41449,83337,6
41448,83314,4
41437,83304,5
41423,83290,5
41423,83287,6
41415,83280,3
41419,83278,5
41418,83281,5
41421,83279,5
41421,83279,4
41402,83257,5
41392,83240,5
41378,83213,5
41382,83203,5
41373,83196,4
41367,83191,5
41369,83185,5
41367,83182,5
41370,83181,5
41366,83197,4
41373,83189,5
41369,83183,5
41348,83158,5
41302,83122,4
41312,83068,4
41289,83049,6
41288,83026,4
41236,83020,5
41285,83039,4
41289,83043,5
41288,83059,5
41286,83067,5
41300,83083,5
41315,83114,4
41331,83137,5
41388,83164,5
41358,83175,5
41359,83175,5
41355,83165,4
41405,83146,5
41344,83131,5
41331,83111,5
41317,83096,5
41344,83083,4
41307,83064,5
41303,83049,5
41282,83038,5
41292,83029,5
41284,83026,4
41271,83019,5
41273,83015,6
41266,82981,4
41265,82991,4
41258,82978,4
41244,82978,5
41243,82908,5
41234,82941,5
41225,82928,5
41206,82907,4
41203,82843,5
41185,82856,5
41176,82846,5
41173,82832,7
41178,82856,2
41173,82849,5
41182,82844,5
41170,82839,5
41171,82871,4
41168,82837,5
41166,82834,5
41169,82822,5
41167,82865,5
41156,82814,4
41149,82805,5
41159,82800,5
41145,82801,6
41141,82779,4
41137,82770,4
41134,82765,5
41138,82764,5
41128,82761,5
41132,82737,4
41113,82736,4
41108,82731,5
41110,82708,5
41094,82711,5
41102,82714,4
41097,82707,5
41101,82716,5
41102,82714,5
41103,82723,5
41111,82720,4
41111,82730,5
41118,82744,5
41120,82737,5
41116,82730,5
41118,82724,5
41116,82734,4
41111,82737,5
41118,82741,5
41114,82745,5
41115,82758,4
41121,82752,5
41118,82748,5
41119,82745,5
41126,82755,5
41124,82761,4
41122,82753,5
41124,82757,5
41121,82763,5
41128,82759,4
41126,82763,4
41133,82758,5
41125,82752,5
41127,82767,5
41124,82759,4
41131,82771,5
41137,82768,5
41132,82770,5
41137,82765,5
41136,82764,4
41133,82773,6
41133,82767,4
41139,82770,5
41139,82780,5
41140,82777,4
41140,82771,5
41131,82773,5
41141,82779,5
41130,82771,5
41134,82772,4
41130,82775,5
41138,82775,5
41141,82776,5
41139,82784,5
41144,82780,4
41133,82776,5
41144,82771,5
41144,82771,5
41142,82787,4
41144,82789,4
41145,82784,5
41142,82791,5
41150,82793,5
41146,82791,4
41148,82788,5
41141,82786,6
41137,82793,4
41139,82790,5
41146,82786,4
41146,82786,5
41145,82781,5
41130,82776,5
41140,82775,5
41139,82791,4
41135,82779,5
41131,82770,5
41146,82787,5
41143,82784,5
41136,82785,4
41111,82788,5
41149,82790,5
41146,82801,5
41161,82815,5
41118,82818,4
41163,82829,5
41170,82832,5
41169,82842,5
41161,82827,4
41176,82845,4
41176,82837,5
41170,82837,6
41196,82837,4
41160,82821,4
41160,82814,5
41156,82797,5
41184,82789,5
41128,82774,5
41128,82768,4
41126,82758,5
41163,82765,5
41132,82770,5
41135,82764,5
41130,82771,4
41140,82774,5
41140,82767,5
41135,82776,5
41133,82770,5
41132,82748,4
41128,82769,5
41139,82763,5
41140,82765,5
41123,82741,5
41142,82766,4
41127,82772,5
41127,82775,5
41122,82711,5
41131,82762,4
41131,82766,6
41127,82748,4
41127,82763,5
41124,82749,5
41117,82752,4
41125,82748,5
41118,82788,5
41127,82750,5
41130,82759,5
41136,82765,4
41138,82824,5
41145,82782,5
41133,82786,5
41146,82778,5
41136,82796,4
41147,82786,5
41136,82783,5
41131,82786,5
41143,82778,5
41130,82785,5
41145,82788,4
41143,82798,5
41152,82815,5
41159,82821,5
41161,82842,4
41168,82845,5
41186,82872,5
41196,82892,5
41212,82908,4
41210,82911,5
41217,82922,5
41223,82947,5
41236,82959,5
41242,82961,4
41242,82966,5
41237,82961,5
41247,82976,5
41253,82991,5
41263,83016,4
41271,83015,5
41273,83021,5
41278,83040,5
41281,83061,5
41295,83066,4
41301,83064,6
41295,83064,4
41284,83063,5
41296,83055,5
41299,83062,4
41298,83088,5
41316,83105,5
41319,83110,5
41316,83090,4
41314,83096,4
41321,83110,5
41340,83137,5
41338,83139,5
41338,83139,4
41327,83123,5
41331,83093,5
41308,83094,5
41308,83092,5
41305,83079,4
41307,83072,5
41296,83073,5
41297,83079,5
41315,83098,5
41316,83109,4
41313,83104,5
41317,83099,5
41318,83106,5
41324,83113,5
41329,83124,4
41332,83129,5
41330,83120,5
41322,83116,5
41325,83106,5
41317,83102,4
41317,83103,5
41305,83085,5
41303,83079,5
41292,83063,4
41296,83060,4
41288,83039,5
41282,83033,5
41275,83022,5
41280,83025,5
41280,83023,4
41277,83008,5
41273,83018,5
41284,83036,6
41286,83045,3
41294,83054,5
41298,83068,5
41306,83084,5
41311,83087,5
41312,83098,4
41311,83095,5
41315,83108,5
41294,83103,5
41318,83097,5
41312,83090,4
41305,83073,5
41255,83053,5
41293,83047,5
41293,83027,5
41285,83021,4
41245,83026,5
41278,83039,5
41282,83028,5
41279,83034,4
41305,83043,5
41294,83042,4
41300,83057,5
41297,83064,5
41339,83061,6
41300,83066,3
41305,83077,5
41308,83078,5
41341,83073,5
41305,83072,4
41299,83075,5
41308,83073,5
41319,83069,5
41300,83076,5
41304,83062,4
41302,83057,5
41293,83050,5
41301,83072,5
41296,83059,5
41290,83060,4
41294,83009,5
41284,83049,5
41289,83039,5
41290,83045,5
41287,82993,4
41287,83034,6
41288,83030,4
41273,83030,5
41277,83020,4
41278,83013,6
41266,83008,3
41267,83008,5
41264,83028,5
41252,82990,4
41260,82986,5
41261,82979,5
41250,83031,5
41251,82977,5
41245,82969,4
41240,82968,5
41239,83003,5
41246,82969,5
41247,82960,5
41247,82965,4
41240,82965,5
41251,82959,5
41241,82960,5
41242,82962,5
41242,82962,4
41244,82967,5
41246,82958,6
41248,82959,4
41241,82960,5
41238,82964,4
41237,82947,5
41241,82950,5
41232,82945,5
41229,82940,4
41235,82938,5
41232,82936,5
41227,82933,5
41226,82927,5
41219,82917,4
41211,82909,5
41206,82908,5
41213,82908,5
41213,82909,5
41214,82906,4
41218,82918,5
41208,82902,5
41211,82904,5
41205,82906,5
41212,82899,4
41202,82904,5
41210,82892,5
41204,82903,6
41210,82898,4
41211,82895,4
41208,82897,5
41205,82892,5
41196,82888,5
41196,82875,5
41196,82871,4
41185,82880,5
41194,82877,5
41195,82877,5
41192,82878,4
41199,82865,5
41194,82871,5
41191,82874,5
41198,82879,5
41202,82893,4
41208,82900,5
41207,82897,5
41213,82913,5
41221,82916,5
41225,82924,5
41232,82933,4
41231,82940,5
41236,82945,5
41230,82950,6
41242,82953,3
41242,82954,5
41230,82960,5
41234,82949,5
41229,82932,5
41218,82931,4
41219,82919,5
41217,82915,5
41214,82915,5
41218,82918,4
41225,82922,4
41222,82921,5
41208,82918,5
41222,82917,5
41219,82923,4
41221,82924,5
41216,82928,5
41225,82927,5
41220,82925,5
41220,82929,4
41222,82928,6
41224,82924,4
41227,82926,5
41219,82926,5
41198,82918,4
41220,82918,5
41222,82920,5
41222,82926,5
41196,82912,5
41217,82911,4
41219,82912,5
41209,82908,5
41173,82908,5
41210,82910,5
41214,82918,4
41219,82912,5
41225,82923,5
41221,82919,5
41219,82920,4
41212,82910,4
41265,82906,5
41210,82906,5
41212,82905,5
41217,82907,4
41252,82907,5
41211,82913,6
41216,82906,4
41208,82908,5
41231,82893,4
41213,82908,5
41216,82913,5
41217,82914,5
41214,82902,5
41214,82923,4
41221,82917,5
41232,82929,5
41229,82905,5
41228,82940,5
41230,82950,4
41232,82945,5
41234,82902,5
41237,82957,5
41244,82959,5
41245,82967,4
41250,82954,5
41251,82976,5
41248,82968,5
41255,82975,4
41243,83002,4
41250,82978,5
41256,82971,6
41251,82980,4
41256,83032,4
41249,82981,5
41251,82968,5
41248,82979,5
41252,83013,5
41250,82975,4
41252,82984,5
41262,82983,5
41248,82981,5
41254,82976,5
41251,82973,4
41258,82984,5
41243,82971,5
41248,82974,5
41246,82968,5
41248,82965,4
41247,82971,5
41238,82969,5
41256,82969,5
41250,82963,5
41247,82962,4
41244,82968,5
41242,82963,5
41247,82964,5
41245,82968,4
41237,82965,4
41239,82952,5
41249,82968,5
41249,82968,5
41245,82974,4
41256,82981,5
41257,82984,5
41260,82999,5
41270,82995,5
41262,83005,4
41265,83007,5
41266,83011,5
41278,83013,5
41273,83011,5
41268,83011,4
41268,83019,5
41264,83003,5
41264,82996,5
41248,82977,5
41247,82970,5
41248,82964,4
41249,82968,5
41248,82967,5
41237,82963,5
41242,82965,4
41243,82959,5
41233,82958,5
41232,82947,5
41238,82934,4
41232,82937,4
41230,82942,5
41226,82938,5
41220,82937,5
41228,82938,4
41225,82928,5
41215,82930,5
41225,82924,5
41216,82931,5
41223,82929,4
41219,82929,5
41221,82921,5
41219,82925,5
41216,82926,5
41217,82916,4
41220,82918,6
41214,82933,4
41226,82929,5
41219,82922,5
41218,82924,4
41218,82929,5
41221,82932,5
41219,82929,5
41215,82917,5
41222,82919,4
41220,82906,5
41216,82911,5
41216,82912,5
41217,82897,4
41208,82902,4
41200,82903,5
41204,82903,5
41208,82897,5
41198,82898,4
41211,82899,5
41199,82909,5
41203,82912,5
41219,82920,5
41221,82916,4
41181,82926,5
41223,82930,6
41228,82932,4
41228,82946,5
41188,82948,4
41237,82955,5
41240,82966,5
41240,82968,5
41227,82971,5
41241,82971,4
41249,82970,5
41249,82970,5
41277,82977,5
41247,82970,5
41247,82984,4
41250,82968,5
41291,82981,5
41247,82967,5
41250,82967,5
41238,82966,4
41257,82967,5
41228,82959,5
41232,82962,6
41232,82953,3
41236,82948,5
41231,82956,5
41230,82944,5
41222,82946,5
41233,82919,4
41227,82941,5
41222,82930,5
41217,82922,5
41218,82874,5
41204,82919,4
41215,82921,5
41213,82930,5
41214,82898,5
41218,82929,5
41226,82939,5
41230,82942,4
41228,82969,5
41225,82954,5
41243,82973,5
41242,82972,4
41250,83027,5
41253,82989,5
41257,82990,5
41258,82999,5
41253,83034,4
41256,82990,5
41266,82985,5
41244,82974,5
41237,82978,4
41221,82953,5
41227,82947,5
41228,82946,5
41231,82936,5
41219,82931,4
41226,82938,5
41231,82947,5
41226,82953,5
41228,82958,5
41226,82942,4
41235,82944,5
41232,82945,5
41234,82941,5
41227,82947,5
41224,82951,4
41228,82951,6
41230,82949,4
41236,82944,5
41235,82949,5
41231,82947,6
41231,82941,3
41221,82947,5
41221,82942,5
41220,82927,4
41214,82921,4
41221,82929,5
41224,82929,5
41224,82931,5
41222,82927,4
41223,82929,5
41217,82928,5
41226,82939,5
41223,82934,5
41225,82943,4
41230,82939,5
41229,82936,5
41218,82934,5
41215,82924,5
41229,82935,4
41232,82939,5
41217,82944,6
41228,82938,4
41223,82939,5
41223,82949,4
41228,82944,5
41228,82947,5
41234,82952,5
41230,82955,5
41233,82952,4
41247,82961,5
41244,82969,5
41248,82964,5
41244,82973,4
41245,82978,4
41245,82979,5
41254,82973,5
41250,82989,5
41255,82984,4
41243,82979,5
41259,82998,5
41252,82988,5
41257,82984,5
41264,82989,4
41253,82986,5
41254,82984,5
41260,83006,6
41255,82993,4
41248,82995,4
41256,82997,5
41255,82997,5
41263,82997,5
41265,82996,5
41256,82996,4
41246,82988,5
41250,82989,5
41250,82997,5
41252,82998,5
41251,82988,4
41259,82995,5
41249,82978,5
41248,82984,5
41251,82985,4
41242,82979,4
41244,82964,5
41199,82956,5
41244,82961,5
41227,82955,5
41236,82943,4
41187,82942,5
41226,82939,5
41221,82930,6
41224,82928,3
41204,82928,5
41213,82929,5
41228,82931,5
41220,82914,5
41251,82932,4
41221,82926,5
41233,82931,5
41230,82950,5
41274,82960,5
41235,82957,4
41239,82969,5
41241,82972,5
41271,82985,5
41253,82984,5
41256,82994,4
41249,82993,5
41263,82985,5
41243,82973,5
41234,82963,4
41228,82950,5
41221,82898,4
41209,82918,5
41217,82918,5
41207,82910,6
41206,82867,3
41213,82901,5
41213,82915,5
41218,82925,5
41218,82881,4
41216,82929,5
41209,82925,5
41216,82927,5
41217,82936,5
41223,82916,4
41213,82912,5
41215,82926,5
41209,82965,5
41223,82906,5
41209,82921,4
41210,82915,5
41212,82967,5
41210,82919,5
41213,82922,5
41215,82916,4
41220,82930,6
41204,82915,4
41216,82916,5
41204,82899,4
41207,82896,4
41197,82896,5
41204,82899,5
41201,82899,5
41209,82915,4
41219,82910,5
41198,82905,5
41197,82886,5
41204,82895,5
41196,82897,4
41209,82897,5
41205,82915,5
41215,82922,5
41215,82921,5
41212,82927,4
41218,82930,5
41223,82943,5
41225,82952,5
41225,82947,5
41220,82948,4
41233,82956,5
41239,82953,6
41244,82981,4
41254,82992,5
41248,82977,4
41245,82970,5
41245,82961,5
41233,82964,5
41233,82956,4
41234,82949,5
41239,82965,5
41237,82975,5
41244,82978,5
41249,82986,4
41246,82985,5
41262,82987,5
41256,82991,5
41252,82977,5
41245,82973,4
41241,82965,5
41242,82971,5
41241,82961,5
41231,82960,5
41237,82955,4
41235,82949,5
41232,82963,5
41233,82962,6
41238,82959,4
41232,82963,4
41235,82952,5
41222,82939,5
41218,82925,5
41204,82915,5
41206,82905,4
41200,82897,5
41201,82889,5
41191,82873,5
41187,82860,4
41185,82855,5
41169,82847,5
41174,82832,5
41161,82826,5
41154,82809,4
41154,82825,5
41149,82805,5
41142,82809,5
41144,82799,5
41148,82817,5
41161,82818,4
41161,82820,5
41164,82827,5
41169,82840,5
41175,82851,4
41175,82850,5
41180,82857,5
41188,82864,5
41186,82864,5
41182,82871,4
41178,82872,5
41180,82860,5
41170,82859,5
41143,82844,5
41168,82827,4
41161,82817,5
41151,82809,5
41114,82807,5
41158,82819,4
41152,82817,5
41157,82812,5
41137,82818,5
41162,82814,5
41157,82823,4
41153,82809,6
41181,82812,4
41146,82820,5
41150,82811,5
41160,82814,4
41186,82803,5
41145,82803,5
41144,82808,5
41149,82807,5
41189,82806,4
41155,82807,5
41147,82797,5
41149,82803,5
41160,82803,5
41146,82803,4
41145,82803,5
41147,82793,5
41144,82778,5
41139,82795,5
41146,82790,4
41143,82787,5
41146,82753,5
41144,82789,5
41143,82791,5
41135,82790,4
41142,82754,6
41139,82790,4
41145,82792,5
41138,82799,4
41149,82805,5
41146,82790,5
41143,82797,5
41141,82795,5
41143,82838,4
41147,82805,5
41149,82804,5
41151,82810,5
41163,82866,7
41159,82828,2
41166,82840,5
41168,82845,5
41177,82864,5
41171,82840,5
41172,82837,4
41162,82835,5
41161,82822,5
41164,82833,5
41163,82845,5
41174,82858,4
41179,82859,5
41184,82873,6
41190,82884,4
41195,82890,4
41194,82891,4
41198,82895,5
41205,82902,5
41209,82918,5
41218,82929,4
41226,82946,5
41228,82941,5
41226,82945,5
41217,82929,5
41218,82924,4
41226,82938,5
41235,82954,5
41233,82957,5
41231,82971,5
41248,82980,4
41260,83002,5
41259,83011,5
41265,83017,5
41259,83003,5
41269,83009,4
41265,83007,5
41253,83010,5
41255,83004,5
41260,83012,5
41261,83003,4
41251,82986,5
41241,82980,5
41240,82982,5
41247,82970,4
41252,82982,4
41261,83009,5
41272,83033,5
41270,83052,5
41293,83058,4
41295,83070,5
41288,83064,5
41301,83072,5
41301,83083,5
41302,83083,4
41309,83094,5
41309,83112,5
41324,83116,5
41323,83115,5
41325,83130,5
41335,83137,4
41328,83116,5
41311,83095,5
41305,83076,5
41303,83078,4
41315,83104,5
41315,83121,5
41329,83158,5
41362,83182,5
41378,83206,4
41377,83228,5
41399,83257,5
41411,83286,5
41433,83331,4
41462,83385,4
41502,83444,5
41545,83544,5
41601,83631,5
41643,83693,4
41654,83721,5
41666,83738,5
41676,83745,5
41684,83765,5
41695,83792,4
41728,83841,6
41757,83903,4
41786,83949,5
41814,83981,5
41833,84035,4
41850,84098,5
41926,84205,5
41997,84325,5
42054,84408,5
42023,84411,4
42047,84382,5
42032,84366,5
42055,84394,5
42048,84445,5
42119,84522,4
42166,84585,5
42179,84604,5
42206,84604,5
42186,84639,4
42205,84640,4
42213,84660,5
42264,84652,6
42191,84622,4
42176,84585,4
42156,84552,5
42158,84491,5
42093,84437,5
42039,84336,5
41996,84276,4
41990,84249,5
41976,84248,5
41970,84222,5
41940,84167,5
41895,84047,4
41825,83965,5
41780,83892,5
41751,83838,5
41710,83725,5
41656,83678,4
41623,83599,5
41578,83525,5
41542,83429,5
41517,83434,5
41487,83383,5
41475,83342,4
41447,83313,5
41429,83274,6
41420,83238,3
41403,83221,5
41380,83242,5
41376,83177,5
41374,83184,5
41364,83176,4
41365,83214,5
41361,83169,5
41366,83162,5
41357,83162,5
41357,83171,4
41346,83153,5
41353,83153,5
41353,83152,5
41351,83168,5
41357,83153,4
41350,83155,5
41350,83152,5
41344,83145,5
41347,83143,5
41343,83134,5
41337,83125,4
41331,83108,5
41317,83093,5
41318,83084,6
41307,83071,3
41312,83068,5
41304,83059,5
41296,83046,5
41296,83039,4
41277,83033,4
41288,83019,5
41273,83011,5
41274,82995,5
41267,82992,4
41270,82982,5
41255,82968,5
41249,82963,5
41239,82969,5
41237,82959,4
41238,82960,5
41239,82963,5
41248,82954,5
41237,82956,5
41234,82955,4
41247,82950,6
41238,82952,4
41240,82952,5
41234,82942,5
41244,82940,6
41240,82952,3
41236,82956,5
41230,82943,5
41234,82934,5
41227,82930,4
41228,82937,5
41233,82932,5
41224,82931,5
41228,82935,4
41227,82933,4
41235,82932,5
41239,82934,5
41231,82949,5
41239,82949,4
41240,82957,5
41242,82961,5
41248,82970,5
41249,82971,5
41251,82976,4
41254,82981,5
41262,82988,6
41265,82993,4
41255,82991,5
41260,82987,4
41250,82980,5
41247,82969,5
41240,82955,5
41241,82941,5
41230,82928,4
41228,82918,5
41223,82925,5
41228,82925,5
41220,82928,5
41221,82929,4
41222,82931,5
41225,82924,5
41223,82920,5
41229,82934,4
41227,82935,4
41229,82931,5
41235,82930,5
41222,82940,5
41235,82933,4
41233,82942,5
41230,82942,5
41201,82936,6
41226,82941,4
41233,82936,4
41222,82942,5
41186,82933,5
41230,82935,5
41235,82934,5
41222,82940,4
41200,82934,5
41226,82931,5
41227,82930,5
41228,82935,5
41247,82936,4
41225,82934,5
41219,82940,5
41218,82938,5
41279,82932,5
41220,82926,4
41216,82922,5
41219,82911,5
41251,82907,5
41212,82916,5
41206,82908,4
41215,82913,5
41215,82907,5
41215,82903,6
41210,82905,3
41206,82905,5
41211,82896,5
41232,82918,5
41230,82921,5
41224,82934,4
41228,82902,5
41232,82929,5
41226,82949,5
41241,82950,5
41234,82910,4
41240,82952,5
41248,82961,5
41248,82972,5
41247,82988,5
41259,82976,4
41257,82984,5
41249,82980,5
41250,83024,5
41260,82987,5
41259,82983,5
41260,82990,4
41256,83043,5
41263,82993,5
41267,82990,4
41251,82986,4
41263,83006,5
41252,82988,5
41251,82986,5
41259,82985,4
41260,82990,5
41255,82979,5
41262,82988,5
41257,82992,5
41258,82992,4
41247,82986,5
41251,82987,5
41252,82983,5
41252,83005,5
41257,82993,4
41263,82993,5
41256,82988,5
41251,82992,5
41264,82997,5
41266,82984,4
41263,82997,6
41258,83007,4
41264,82995,5
41272,83002,5
41266,82997,4
41262,83000,5
41266,82999,5
41271,83011,5
41272,83005,4
41270,83010,5
41275,83016,5
41262,83009,5
41269,83007,5
41263,83006,4
41266,82986,5
41257,82984,5
41256,82981,5
41248,82968,5
41249,82963,4
41243,82968,5
41244,82957,5
41255,82966,5
41242,82966,5
41244,82964,4
41243,82977,5
41252,82975,6
41253,82983,4
41249,82979,5
41255,83000,4
41260,83008,5
41274,83008,5
41278,83001,5
41281,83013,5
41275,83022,4
41279,83026,5
41282,83026,5
41276,83024,5
41260,83010,4
41260,83001,5
41258,82977,5
41250,82965,5
41245,82964,5
41241,82967,4
41246,82963,5
41238,82967,5
41247,82970,5
41245,82979,5
41240,82977,4
41249,82985,5
41249,82985,5
41250,82984,5
41251,82978,5
41253,82985,4
41254,82979,5
41254,82982,5
41251,82979,5
41249,82973,5
41256,82966,4
41250,82969,5
41239,82970,5
41235,82957,5
41243,82957,5
41238,82950,4
41244,82948,5
41245,82949,5
41230,82935,5
41198,82942,4
41223,82937,5
41227,82929,5
41230,82927,5
41185,82928,5
41236,82928,5
41229,82927,4
41231,82926,5
41206,82915,5
41215,82905,5
41216,82901,4
41203,82895,5
41241,82901,5
41209,82899,5
41206,82890,5
41207,82883,4
41246,82886,5
41204,82895,5
41198,82889,5
41198,82891,5
41232,82893,4
41204,82894,5
41212,82896,5
41207,82910,5
41221,82908,5
41215,82909,4
41215,82911,6
41213,82924,4
41223,82904,5
41221,82924,4
41217,82930,7
41220,82932,3
41223,82891,5
41231,82947,5
41228,82940,5
41235,82936,4
41228,82901,5
41232,82938,5
41232,82949,5
41233,82948,4
41230,82957,5
41236,82936,5
41236,82945,5
41228,82950,5
41231,82988,4
41229,82943,5
41235,82938,5
41217,82928,5
41230,82975,5
41232,82937,4
41218,82930,5
41221,82926,5
41223,82929,5
41215,82918,5
41216,82917,9
41209,82907,2
41216,82906,3
41211,82898,5
41212,82915,4
41212,82909,5
41213,82902,5
41204,82900,5
41201,82891,5
41199,82894,4
41203,82891,5
41203,82896,5
41214,82901,5
41205,82897,5
41201,82903,4
41216,82911,5
41217,82923,5
41221,82930,5
41225,82923,5
41222,82932,4
41227,82929,5
41226,82939,5
41228,82943,5
41232,82938,5
41232,82945,4
41232,82945,5
41234,82926,5
41224,82928,5
41222,82912,5
41213,82898,4
41198,82895,5
41200,82888,5
41194,82894,5
41211,82902,4
41203,82905,5
41204,82917,5
41214,82917,5
41213,82922,5
41220,82916,4
41213,82918,5
41219,82908,5
41214,82914,5
41214,82916,5
41220,82930,5
41214,82925,4
41217,82926,5
41220,82927,5
41215,82927,6
41214,82922,3
41210,82922,5
41208,82911,5
41208,82901,5
41201,82899,5
41206,82897,4
41199,82900,5
41202,82895,5
41208,82894,5
41197,82899,4
41203,82889,4
41206,82898,5
41213,82904,5
41216,82900,5
41210,82896,4
41202,82888,5
41201,82886,5
41203,82891,5
41202,82893,5
41203,82879,4
41193,82894,6
41187,82886,4
41202,82888,5
41194,82891,5
41205,82896,6
41202,82899,3
41208,82897,5
41200,82909,5
41217,82912,5
41214,82914,4
41216,82920,5
41205,82916,5
41218,82924,5
41220,82931,5
41225,82940,4
41195,82946,5
41230,82949,5
41234,82948,5
41242,82957,4
41186,82942,4
41228,82956,5
41231,82959,5
41237,82962,5
41228,82962,4
41239,82955,5
41240,82958,6
41236,82955,4
41262,82955,5
41234,82962,4
41248,82960,5
41238,82955,5
41285,82961,5
41244,82960,5
41243,82962,4
41236,82962,5
41263,82965,5
41242,82951,5
41232,82951,5
41233,82938,4
41241,82939,5
41234,82938,5
41232,82934,5
41225,82927,5
41221,82915,4
41217,82933,5
41224,82934,5
41216,82939,5
41222,82891,4
41234,82944,4
41230,82949,5
41233,82953,6
41244,82927,4
41248,82968,4
41245,82984,6
41241,82984,4
41256,82990,5
41249,82996,5
41256,82986,4
41257,82990,5
41247,83037,5
41254,82982,5
41246,82967,5
41239,82958,4
41236,82990,5
41230,82945,5
41224,82933,5
41224,82932,5
41226,82946,4
41227,82933,5
41223,82929,5
41229,82929,5
41216,82923,5
41210,82925,4
41213,82905,5
41206,82901,5
41204,82886,6
41192,82883,3
41194,82880,4
41184,82873,5
41194,82882,5
41199,82875,5
41199,82882,4
41191,82874,5
41189,82878,5
41194,82864,5
41181,82859,5
41174,82851,4
41181,82853,5
41187,82869,5
41193,82890,5
41195,82895,5
41197,82893,4
41198,82885,5
41198,82881,5
41203,82908,5
41208,82903,5
41215,82929,5
41232,82942,4
41235,82965,5
41242,82975,5
41248,82959,6
41234,82958,3
41238,82958,5
41241,82959,5
41235,82957,5
41235,82975,4
41243,82975,4
41265,82974,5
41246,82971,5
41244,82964,5
41239,82948,4
41234,82937,5
41216,82926,5
41220,82902,5
41203,82908,5
41208,82910,4
41216,82905,5
41217,82913,5
41209,82921,5
41222,82933,5
41216,82946,4
41224,82940,6
41214,82922,4
41214,82910,5
41197,82887,5
41188,82859,4
41178,82843,5
41165,82830,5
41156,82823,5
41152,82817,5
41153,82816,4
41154,82811,5
41153,82803,5
41156,82802,5
41158,82803,4
41156,82808,4
41161,82810,5
41149,82803,5
41135,82788,5
41133,82779,4
41132,82771,5
41130,82758,5
41126,82753,5
41111,82735,5
41110,82739,4
41104,82727,5
41108,82743,6
41124,82756,4
41113,82762,5
41129,82764,4
41130,82754,5
41116,82745,5
41077,82746,5
41120,82744,5
41107,82731,4
41105,82714,5
41072,82711,5
41087,82702,5
41092,82688,5
41082,82675,4
41062,82676,5
41077,82682,5
41079,82666,5
41067,82673,4
41099,82666,5
41074,82666,5
41071,82651,5
41066,82656,5
41115,82656,4
41068,82661,5
41063,82657,5
41072,82654,6
41100,82657,4
41057,82655,4
41070,82664,5
41060,82647,5
41080,82652,5
41062,82655,5
41065,82650,4
41061,82661,5
41064,82632,5
41068,82654,5
41069,82647,5
41064,82659,4
41063,82610,5
41067,82652,5
41061,82659,5
41057,82646,5
41055,82605,4
41070,82657,5
41074,82667,5
41070,82653,5
41069,82660,5
41058,82624,4
41053,82626,5
41049,82628,5
41042,82670,5
41049,82616,4
41054,82621,5
41035,82625,5
41043,82664,5
41041,82617,5
41047,82612,4
41046,82619,5
41045,82644,5
41059,82636,5
41059,82644,5
41052,82645,4
41057,82643,5
41065,82649,5
41062,82652,5
41069,82657,5
41068,82669,4
41068,82674,5
41072,82683,5
41077,82689,5
41084,82687,5
41087,82693,5
41093,82701,4
41096,82698,5
41082,82699,5
41086,82695,4
41088,82690,5
41089,82685,5
41077,82689,5
41087,82680,5
41084,82680,4
41072,82684,5
41079,82681,5
41083,82686,5
41082,82689,5
41081,82686,4
41084,82696,5
41098,82702,5
41090,82705,5
41095,82710,5
41090,82715,4
41097,82719,5
41106,82735,5
41111,82752,5
41115,82752,5
41117,82762,4
41124,82768,6
41135,82767,4
41128,82789,5
41134,82784,5
41137,82796,4
41141,82793,5
41140,82781,5
41140,82780,5
41134,82771,4
41135,82775,5
41134,82793,5
41130,82785,5
41130,82787,5
41137,82785,4
41137,82786,5
41141,82783,5
41145,82787,5
41136,82795,5
41134,82800,4
41136,82793,5
41145,82803,5
41147,82797,5
41145,82804,5
41149,82807,4
41153,82797,5
41154,82795,6
41152,82807,4
41140,82806,5
41145,82795,4
41135,82802,5
41146,82793,5
41137,82796,5
41141,82794,4
41135,82787,4
41137,82795,5
41139,82787,5
41135,82789,5
41135,82793,4
41140,82794,5
41142,82798,5
41143,82794,5
41143,82794,5
41142,82790,4
41128,82791,5
41145,82779,5
41140,82789,5
41139,82785,5
41099,82784,4
41132,82780,5
41142,82786,5
41140,82791,5
41102,82795,5
41140,82784,4
41149,82787,5
41144,82789,5
41127,82793,5
41133,82795,5
41138,82786,4
41140,82800,5
41171,82798,5
41146,82798,5
41146,82793,5
41144,82805,4
41195,82816,5
41144,82816,5
41157,82816,5
41149,82818,4
41175,82820,5
41149,82815,5
41156,82818,5
41158,82816,5
41158,82822,5
41150,82819,4
41151,82814,5
41155,82818,5
41157,82790,5
41145,82824,4
41156,82818,5
41149,82803,5
41149,82773,5
41150,82808,5
41147,82805,4
41148,82811,4
41152,82777,5
41145,82815,5
41154,82817,5
41147,82816,4
41157,82831,5
41153,82819,5
41153,82822,5
41151,82806,4
41144,82854,4
41149,82802,6
41143,82804,4
41140,82797,5
41131,82828,4
41143,82787,7
41134,82777,3
41124,82773,5
41123,82782,5
41127,82759,4
41128,82759,5
41129,82760,5
41131,82766,5
41131,82768,5
41132,82782,4
41140,82787,5
41143,82805,5
41152,82810,7
41153,82816,3
41148,82828,4
41158,82823,5
41155,82839,5
41165,82839,5
41163,82842,5
41164,82835,4
41165,82832,5
41157,82827,6
41157,82818,4
41144,82797,4
41140,82791,4
41128,82801,5
41137,82789,5
41136,82785,5
41137,82791,4
41132,82795,5
41137,82785,5
41140,82786,5
41138,82782,5
41136,82784,4
41128,82782,5
41129,82778,5
41128,82767,5
41129,82779,5
41124,82775,4
41126,82771,5
41121,82762,5
41130,82753,5
41119,82759,5
41115,82756,4
41118,82752,5
41121,82753,5
41111,82746,6
41113,82745,4
41116,82746,4
41113,82749,5
41111,82750,5
41113,82753,5
41111,82753,4
41117,82747,4
41124,82752,5
41123,82760,5
41117,82756,5
41121,82759,4
41120,82754,5
41118,82760,5
41124,82757,5
41123,82753,5
41113,82753,4
41106,82740,5
41116,82746,5
41111,82744,5
41112,82746,5
41106,82746,5
41116,82741,4
41116,82746,5
41111,82729,5
41109,82746,6
41117,82748,3
41112,82742,5
41105,82749,5
41117,82749,5
41110,82754,5
41122,82749,4
41118,82747,5
41118,82750,5
41121,82762,5
41119,82758,4
41125,82751,4
41112,82764,5
41123,82764,5
41122,82768,5
41125,82772,4
41131,82775,5
41095,82769,5
41129,82774,5
41121,82766,5
41130,82771,4
41084,82770,6
41131,82765,4
41126,82766,5
41128,82768,5
41112,82777,4
41121,82764,5
41131,82772,5
41121,82764,5
41155,82763,5
41120,82769,4
41126,82779,5
41126,82780,5
41171,82762,5
41122,82771,5
41130,82763,4
41125,82760,5
41151,82771,5
41136,82771,5
41120,82770,4
41125,82761,4
41131,82753,5
41122,82752,5
41117,82751,5
41118,82741,4
41108,82718,5
41112,82731,6
41104,82729,4
41106,82731,5
41100,82696,4
41102,82740,5
41105,82733,5
41107,82732,5
41107,82696,5
41103,82747,4
41120,82748,5
41109,82755,5
41121,82781,5
41124,82761,5
41124,82768,4
41125,82777,5
41138,82824,5
41134,82782,5
41133,82781,5
41139,82774,4
41125,82806,5
41116,82749,5
41105,82733,5
41102,82723,5
41102,82739,4
41098,82735,5
41099,82725,6
41104,82726,4
41109,82732,4
41101,82732,5
41104,82735,5
41100,82728,5
41101,82740,5
41113,82734,4
41110,82737,5
41103,82742,5
41114,82749,5
41127,82767,5
41126,82770,4
41129,82774,5
41126,82774,5
41120,82766,5
41117,82752,5
41109,82744,4
41115,82747,5
41109,82752,5
41104,82740,5
41113,82727,5
41106,82737,4
41104,82741,5
41109,82748,5
41125,82767,6
41130,82782,4
41135,82788,4
41143,82799,5
41138,82786,5
41142,82790,5
41132,82795,4
41141,82796,5
41148,82793,5
41143,82800,5
41140,82802,5
41146,82801,4
41147,82791,5
41146,82780,5
41136,82790,5
41135,82806,5
41145,82816,4
41148,82823,5
41163,82835,5
41161,82833,5
41163,82827,5
41153,82835,5
41165,82825,4
41154,82835,5
41156,82838,5
41168,82839,5
41174,82861,4
41183,82876,5
41196,82888,5
41192,82895,5
41201,82895,5
41198,82897,4
41198,82906,5
41206,82920,5
41217,82905,5
41210,82912,4
41208,82916,5
41197,82912,5
41203,82912,5
41216,82917,5
41213,82929,4
41217,82938,5
41220,82935,5
41224,82940,5
41221,82953,5
41228,82963,4
41243,82973,6
41245,82991,4
41254,83002,5
41257,83007,5
41258,83003,4
41263,83004,5
41265,82999,5
41261,82999,5
41256,83000,5
41263,83002,4
41257,83020,5
41266,83023,5
41246,83026,5
41281,83036,5
41282,83058,4
41291,83063,5
41254,83074,5
41306,83092,5
41316,83112,4
41323,83136,5
41316,83140,5
41351,83166,5
41376,83231,5
41413,83283,4
41457,83323,5
41458,83354,6
41458,83358,4
41452,83346,5
41509,83360,4
41469,83389,5
41502,83432,5
41512,83461,5
41563,83484,5
41544,83505,4
41547,83512,5
41552,83514,5
41560,83513,5
41556,83527,5
41549,83527,4
41550,83494,5
41528,83425,5
41504,83427,5
41493,83403,5
41466,83375,4
41458,83301,5
41450,83319,5
41433,83313,6
41429,83297,3
41426,83240,5
41419,83293,5
41431,83303,5
41445,83319,5
41446,83345,4
41453,83336,5
41439,83335,5
41445,83334,5
41447,83371,5
41438,83295,4
41419,83275,5
41412,83269,5
41411,83309,5
41417,83274,5
41425,83281,4
41410,83274,5
41411,83283,5
41417,83268,5
41409,83267,5
41402,83276,4
41411,83280,5
41419,83281,5
41421,83300,5
41442,83335,5
41460,83347,4
41456,83347,5
41449,83326,5
41443,83323,5
41435,83324,4
41447,83329,5
41442,83329,5
41433,83322,5
41442,83323,5
41446,83324,4
41454,83331,5
41447,83325,5
41441,83317,5
41434,83299,5
41431,83316,4
41442,83317,5
41448,83348,5
41462,83356,5
41470,83375,5
41475,83380,4
41481,83391,5
41481,83398,5
41487,83404,5
41490,83415,5
41492,83419,5
41498,83415,4
41494,83405,5
41500,83422,5
41507,83449,4
41527,83486,5
41545,83519,5
41571,83548,5
41576,83544,5
41563,83528,4
41577,83556,5
41580,83559,5
41580,83558,5
41579,83560,5
41583,83560,4
41600,83590,5
41605,83611,5
41619,83646,5
41635,83653,5
41640,83644,4
41635,83641,5
41630,83648,5
41625,83648,4
41641,83657,5
41654,83705,4
41683,83758,6
41704,83792,3
41710,83783,5
41702,83758,4
41676,83737,4
41682,83734,5
41696,83760,5
41709,83797,5
41729,83815,4
41729,83832,5
41736,83845,5
41757,83868,5
41770,83895,5
41775,83917,4
41804,83953,5
41801,83960,5
41808,83975,5
41843,84016,5
41866,84098,4
41945,84220,5
41991,84282,5
42031,84350,6
42037,84383,4
42053,84411,4
42054,84433,5
42082,84431,5
42086,84448,5
42107,84489,5
42097,84559,4
42181,84612,5
42194,84631,5
42193,84627,5
42155,84624,4
42183,84607,5
42176,84597,5
42178,84592,5
42173,84591,5
42166,84577,4
42169,84582,5
42176,84596,5
42236,84621,5
42209,84661,5
42211,84651,5
42168,84580,4
42189,84525,5
42128,84507,5
42127,84526,6
42145,84534,3
42143,84494,5
42077,84410,5
42036,84350,5
42035,84366,5
42070,84410,4
42097,84462,5
42103,84463,5
42099,84462,5
42082,84393,4
42064,84415,4
42070,84414,5
42089,84440,5
42091,84394,5
42063,84385,4
42031,84323,5
42001,84281,5
42003,84296,5
42044,84383,5
42083,84423,4
42089,84440,6
42085,84457,4
42068,84405,5
42072,84402,5
42073,84421,6
42087,84475,3
42092,84437,5
42077,84431,5
42090,84440,5
42102,84494,4
42115,84486,5
42096,84453,5
42078,84410,5
42062,84375,5
42045,84362,4
42052,84371,5
42049,84362,5
42046,84334,5
42013,84323,4
42020,84330,5
42044,84363,5
42067,84395,5
42062,84391,5
42038,84341,4
42009,84278,5
41995,84285,6
42019,84323,4
42050,84388,5
42070,84401,9
42056,84378,0
42060,84370,5
42083,84423,5
42021,84318,5
41999,84274,4
42010,84280,5
42025,84330,5
42045,84346,5
42020,84321,5
41989,84242,4
41953,84188,5
41947,84188,5
41963,84225,5
41967,84192,4
41928,84146,4
41872,84051,5
41843,83983,5
41836,83983,5
41851,84038,4
41879,84072,5
41876,84065,5
41878,84065,6
41871,84065,4
41863,84054,4
41860,84045,5
41867,84040,5
41873,84058,5
41876,84079,5
41889,84082,4
41896,84071,5
41871,84046,5
41862,84017,5
41829,83991,5
41833,83983,4
41833,83988,5
41819,83964,5
41789,83893,5
41734,83797,5
41703,83757,4
41701,83749,5
41707,83754,5
41697,83749,5
41682,83721,5
41672,83678,4
41657,83681,5
41661,83691,5
41655,83677,6
41648,83636,3
41623,83596,5
41596,83569,5
41588,83539,5
41578,83534,5
41581,83520,4
41561,83498,5
41556,83483,5
41546,83480,5
41536,83452,5
41527,83453,4
41523,83435,5
41517,83420,5
41506,83411,5
41497,83396,5
41498,83386,4
41496,83377,5
41486,83369,5
41443,83345,5
41465,83329,4
41457,83325,5
41454,83327,4
41405,83303,5
41452,83301,5
41444,83303,4
41437,83291,5
41420,83303,5
41438,83306,5
41446,83304,5
41455,83307,4
41475,83310,5
41457,83308,5
41451,83300,5
41444,83306,5
41491,83301,4
41449,83302,5
41444,83294,5
41442,83289,5
41464,83296,5
41445,83295,4
41444,83308,5
41447,83317,5
41473,83326,5
41461,83327,5
41463,83342,4
41477,83366,6
41479,83364,4
41495,83397,5
41485,83397,4
41499,83403,4
41504,83375,5
41508,83423,5
41516,83435,5
41523,83423,4
41518,83391,5
41527,83450,5
41541,83487,5
41563,83526,5
41590,83577,4
41609,83601,5
41619,83625,5
41628,83629,5
41626,83660,5
41619,83608,4
41627,83628,5
41629,83645,5
41639,83683,5
41626,83641,5
41636,83644,4
41641,83659,5
41641,83682,6
41653,83669,4
41663,83687,5
41662,83701,4
41665,83693,5
41656,83681,5
41660,83691,5
41668,83694,4
41684,83716,5
41691,83728,5
41683,83718,5
41681,83727,5
41684,83733,4
41684,83714,5
41667,83694,5
41668,83700,5
41671,83703,5
41678,83741,4
41699,83757,5
41717,83800,5
41715,83785,5
41715,83765,5
41694,83730,4
41675,83697,5
41658,83673,5
41652,83679,6
41683,83718,4
41689,83745,4
41689,83732,5
41678,83709,5
41661,83697,5
41667,83697,4
41670,83681,4
41663,83695,5
41661,83666,5
41646,83665,5
41654,83698,4
41703,83756,5
41720,83794,5
41735,83812,5
41737,83790,5
41713,83779,4
41697,83753,5
41698,83751,5
41686,83728,5
41665,83692,5
41647,83646,5
41631,83622,4
41636,83625,5
41632,83645,5
41644,83663,5
41640,83656,4
41631,83629,5
41616,83594,5
41609,83589,5
41614,83608,5
41630,83612,4
41607,83583,5
41590,83547,5
41578,83529,5
41583,83552,4
41580,83559,5
41575,83536,5
41572,83516,5
41564,83496,5
41562,83503,4
41568,83524,5
41583,83551,5
41591,83557,5
41584,83530,5
41559,83501,4
41559,83491,6
41560,83509,4
41580,83542,5
41579,83536,5
41564,83502,4
41536,83464,5
41522,83446,5
41530,83463,5
41549,83475,5
41555,83493,4
41525,83478,5
41531,83435,5
41514,83434,5
41509,83433,4
41481,83453,4
41521,83445,5
41519,83428,5
41506,83407,5
41467,83397,4
41505,83403,5
41503,83402,5
41506,83380,5
41502,83395,5
41514,83415,4
41531,83455,5
41535,83465,6
41572,83453,4
41514,83412,5
41494,83382,4
41475,83349,5
41514,83348,5
41480,83358,5
41480,83349,5
41461,83328,4
41468,83303,5
41437,83292,5
41434,83283,5
41423,83268,5
41422,83254,4
41404,83230,5
41386,83192,5
41375,83165,5
41363,83121,4
41358,83145,5
41338,83122,5
41330,83099,5
41327,83029,5
41312,83053,4
41304,83043,5
41302,83032,5
41288,83013,5
41278,83003,5
41273,82996,4
41274,82991,5
41267,83002,5
41260,82962,5
41254,82953,5
41246,82964,4
41250,83000,5
41243,82944,5
41243,82944,5
41237,82940,5
41227,82962,4
41232,82923,5
41221,82916,5
41230,82921,5
41234,82938,4
41238,82926,4
41226,82925,4
41233,82922,5
41221,82923,5
41223,82912,5
41211,82910,3
41219,82918,5
41214,82910,5
41223,82912,5
41213,82904,4
41208,82893,5
41202,82888,5
41211,82899,5
41218,82886,5
41216,82887,4
41203,82898,5
41207,82896,5
41216,82903,5
41217,82895,5
41207,82902,4
41213,82897,5
41206,82898,5
41209,82894,5
41213,82895,5
41212,82892,4
41214,82895,6
41211,82902,4
41218,82913,5
41226,82917,4
41226,82917,7
41225,82921,3
41235,82915,5
41225,82909,5
41225,82915,4
41224,82910,5
41223,82904,5
41234,82920,5
41222,82927,5
41231,82921,4
41225,82917,5
41218,82911,5
41220,82901,5
41211,82903,5
41216,82894,4
41217,82896,5
41216,82903,5
41222,82906,5
41220,82910,5
41217,82912,4
41211,82911,5
41215,82906,6
41214,82905,4
41214,82889,4
41206,82892,4
41203,82872,5
41195,82874,5
41203,82879,5
41215,82898,4
41215,82908,5
41217,82922,5
41221,82921,5
41233,82930,5
41240,82955,4
41237,82961,5
41251,82965,5
41245,82969,5
41256,82974,5
41248,82974,4
41256,82982,5
41268,82993,5
41280,83025,5
41291,83052,5
41303,83070,4
41311,83082,5
41321,83075,5
41307,83083,6
41309,83095,4
41319,83085,4
41316,83107,5
41328,83108,5
41309,83121,5
41333,83109,4
41328,83127,5
41340,83134,5
41310,83159,5
41370,83184,5
41382,83193,4
41376,83179,5
41332,83166,5
41352,83135,5
41325,83108,5
41326,83100,4
41344,83079,5
41299,83043,5
41271,83015,5
41264,82993,5
41304,82978,5
41255,82968,4
41247,82960,5
41240,82952,5
41263,82944,6
41233,82938,3
41234,82938,5
41236,82945,5
41235,82929,5
41227,82928,4
41215,82924,4
41221,82909,5
41221,82888,5
41212,82916,5
41222,82919,4
41220,82920,5
41226,82882,5
41228,82925,5
41226,82920,5
41225,82917,4
41221,82867,5
41226,82916,5
41224,82916,5
41232,82912,5
41222,82939,4
41227,82934,6
41238,82941,4
41230,82938,5
41241,82989,5
41234,82945,4
41241,82951,5
41241,82964,5
41245,83017,5
41253,82965,5
41253,82975,4
41259,82968,5
41261,82982,5
41252,82969,5
41249,82967,4
41253,82967,5
41262,82980,5
41257,82971,5
41250,82971,5
41252,82981,4
41254,82981,5
41251,82984,5
41263,82979,5
41258,82973,5
41260,82991,4
41254,82994,5
41266,82995,6
41266,82995,4
41268,83002,5
41273,83000,4
41274,83001,5
41272,83003,5
41273,83017,5
41284,83016,5
41284,83024,4
41273,83025,5
41281,83016,5
41281,83008,5
41271,83004,5
41269,83003,4
41265,82998,5
41263,82990,5
41259,82988,7
41257,82979,2
41248,82974,5
41260,82980,5
41259,82986,5
41247,82978,5
41257,82979,4
41264,83004,5
41269,83026,5
41278,83031,6
41282,83054,4
41299,83058,4
41302,83057,5
41298,83062,5
41306,83067,5
41313,83078,5
41314,83074,4
41309,83080,5
41313,83077,5
41308,83067,5
41285,83041,5
41289,83029,4
41275,83021,5
41282,83022,5
41285,83030,5
41280,83024,4
41278,83025,4
41272,83018,5
41272,83015,5
41275,83013,5
41275,83010,5
41263,83008,4
41265,82990,5
41258,82975,5
41250,82974,6
41257,82971,3
41241,82968,5
41254,82964,5
41241,82960,5
41242,82962,5
41237,82963,4
41242,82945,5
41241,82944,5
41239,82937,5
41228,82936,5
41231,82942,4
41235,82951,5
41230,82948,5
41241,82949,5
41244,82952,5
41238,82948,4
41237,82946,5
41239,82958,5
41252,82967,5
41248,82964,4
41217,82967,5
41255,82960,4
41247,82970,5
41255,82965,5
41212,82972,4
41252,82966,5
41246,82973,5
41247,82953,5
41220,82956,5
41245,82950,4
41237,82950,5
41239,82955,5
41264,82947,5
41246,82949,5
41239,82946,4
41243,82955,5
41286,82952,5
41239,82954,5
41239,82949,5
41237,82947,4
41280,82958,5
41233,82958,5
41244,82966,5
41253,82960,5
41262,82965,4
41251,82967,6
41244,82960,4
41245,82968,5
41250,82956,4
41253,82969,4
41248,82966,5
41252,82973,5
41251,82938,5
41256,82978,4
41269,82973,5
41254,82983,5
41259,82933,5
41262,82991,5
41260,82981,5
41256,82982,4
41253,82976,5
41254,82975,5
41250,82967,5
41246,82988,4
41255,83025,5
41257,82980,5
41247,82980,6
41256,82985,4
41253,83032,4
41257,82976,5
41248,82981,7
41249,82985,3
41261,83001,5
41248,82969,4
41252,82978,5
41251,82983,5
41252,82971,5
41257,82976,4
41252,82966,4
41245,82975,5
41248,82963,5
41244,82966,5
41243,82957,4
41246,82952,5
41240,82948,5
41237,82938,5
41236,82932,5
41228,82935,4
41226,82937,5
41230,82940,5
41236,82934,5
41239,82938,5
41237,82948,4
41240,82947,5
41243,82957,5
41242,82971,5
41246,82978,5
41255,82991,4
41264,82991,5
41261,82998,5
41253,83010,5
41263,83006,5
41272,83007,4
41264,83000,5
41261,82998,5
41260,82987,5
41258,82982,4
41251,82962,5
41235,82959,5
41231,82935,5
41227,82924,5
41235,82940,4
41234,82933,5
41221,82917,5
41229,82930,5
41224,82924,5
41226,82920,5
41218,82919,4
41233,82928,5
41225,82924,5
41229,82925,5
41225,82922,4
41227,82922,5
41221,82911,5
41215,82909,5
41209,82903,5
41222,82903,4
41211,82901,5
41203,82895,5
41203,82890,5
41203,82888,5
41205,82888,4
41192,82879,5
41199,82877,5
41187,82867,5
41200,82882,4
41182,82869,5
41199,82869,5
41190,82871,5
41188,82876,5
41198,82880,4
41200,82877,6
41199,82879,4
41193,82873,5
41195,82871,5
41189,82870,4
41191,82865,5
41183,82865,5
41194,82868,5
41195,82860,5
41193,82868,4
41185,82872,5
41194,82870,5
41200,82877,5
41197,82877,5
41203,82885,4
41207,82879,5
41185,82894,5
41208,82896,5
41218,82903,5
41211,82904,4
41174,82917,5
41219,82910,5
41220,82910,5
41225,82919,4
41173,82924,5
41218,82921,5
41219,82919,5
41211,82918,5
41228,82925,4
41225,82916,5
41220,82912,5
41219,82920,5
41257,82918,5
41215,82915,4
41207,82916,5
41212,82908,5
41251,82909,5
41207,82905,5
41215,82914,4
41212,82910,5
41218,82905,5
41210,82894,5
41210,82898,5
41205,82907,4
41203,82888,5
41215,82900,5
41211,82906,6
41215,82909,4
41216,82877,4
41209,82916,5
41210,82912,5
41220,82922,5
41222,82876,4
41216,82921,5
41219,82923,5
41213,82916,5
41214,82904,5
41218,82915,4
41204,82907,5
41214,82906,5
41210,82939,5
41207,82882,5
41207,82894,4
41200,82899,5
41214,82941,5
41207,82901,5
41211,82900,5
41212,82909,5
41207,82941,4
41215,82912,5
41221,82933,5
41228,82941,6
41236,82957,3
41237,82961,5
41239,82968,5
41242,82966,5
41247,82968,5
41246,82977,4
41254,82974,5
41248,82981,5
41246,82983,5
41253,82979,4
41244,82960,5
41237,82957,5
41231,82949,5
41239,82952,5
41231,82956,4
41249,82965,5
41248,82976,5
41249,82984,5
41243,82979,5
41249,82981,4
41243,82980,6
41252,82975,4
41250,82980,5
41256,82978,5
41260,82977,6
41262,82982,3
41250,82987,5
41248,82981,5
41253,82985,5
41248,82988,4
41253,82976,5
41243,82983,5
41250,82985,5
41253,82983,5
41243,82985,4
41247,82988,5
41256,82991,5
41251,82984,5
41254,82972,4
41255,82985,5
41262,82989,5
41264,83003,5
41261,83006,5
41262,83003,4
41267,83007,5
41263,83002,6
41255,82994,4
41253,82997,5
41260,83001,4
41263,82999,5
41260,83008,5
41267,83005,5
41272,83004,5
41271,83012,4
41267,83008,5
41265,83001,5
41257,83001,5
41260,83011,5
41275,83013,4
41270,83024,5
41275,83020,5
41279,83018,5
41275,83032,5
41285,83039,4
41287,83054,5
41293,83059,5
41306,83067,5
41300,83066,4
41301,83067,5
41307,83068,5
41313,83076,6
41308,83087,4
41305,83084,4
41314,83091,5
41317,83083,5
41315,83090,5
41315,83086,5
41311,83096,4
41310,83099,5
41323,83095,5
41320,83105,5
41314,83103,5
41320,83103,4
41326,83096,5
41321,83106,5
41287,83099,5
41326,83096,5
41320,83096,4
41316,83097,5
41277,83102,5
41322,83096,5
41315,83103,5
41322,83099,4
41313,83097,5
41312,83084,5
41307,83090,6
41311,83081,3
41350,83086,5
41313,83079,5
41301,83072,5
41302,83066,5
41348,83065,4
41294,83056,5
41299,83062,5
41297,83061,5
41325,83050,5
41297,83059,4
41293,83054,5
41297,83058,5
41305,83067,5
41302,83066,5
41302,83071,4
41297,83078,5
41318,83050,5
41307,83075,5
41316,83082,5
41307,83085,5
41303,83041,4
41307,83063,5
41297,83059,5
41293,83042,5
41282,82998,4
41277,83020,5
41268,83006,5
41271,83001,5
41260,83014,4
41264,82997,5
41264,82996,5
41266,82997,5
41259,83034,5
41261,82989,4
41259,82975,5
41255,82982,5
41251,83021,5
41253,82977,5
41253,82983,4
41259,82986,5
41259,82999,5
41257,82979,5
41249,82968,5
41247,82974,4
41248,82965,6
41248,82966,4
41253,82973,5
41243,82965,5
41245,82956,4
41243,82959,5
41239,82951,5
41229,82952,5
41242,82938,5
41232,82950,4
41237,82947,5
41240,82952,5
41243,82954,5
41245,82947,4
41243,82948,5
41235,82940,5
41225,82942,5
41240,82940,5
41229,82949,4
41234,82945,5
41236,82945,5
41234,82940,5
41234,82938,5
41227,82948,4
41237,82955,5
41235,82956,6
41247,82956,4
41250,82959,5
41248,82969,9
41249,82975,0
41253,82979,5
41247,82956,5
41258,82976,5
41251,82975,4
41258,82985,5
41256,82989,5
41259,82983,5
41262,82987,4
41257,82994,4
41263,82994,5
41259,82994,5
41260,82992,5
41256,82995,4
41260,82984,5
41258,82987,5
41264,82993,5
41260,82992,5
41264,82988,4
41264,82995,5
41267,82992,5
41256,82996,6
41262,82996,4
41258,82991,4
41260,82984,5
41247,82983,5
41257,82977,5
41246,82968,5
41248,82971,4
41238,82947,5
41233,82960,5
41244,82948,5
41239,82952,5
41237,82946,4
41232,82936,5
41229,82939,5
41228,82932,5
41233,82940,4
41228,82941,4
41234,82941,5
41240,82946,5
41238,82953,5
41247,82953,5
41244,82961,4
41247,82955,5
41246,82973,5
41251,82972,5
41252,82972,4
41246,82973,5
41246,82976,5
41246,82975,5
41241,82957,5
41211,82955,4
41238,82944,5
41226,82930,5
41218,82921,5
41187,82923,5
41217,82923,4
41217,82922,5
41221,82921,5
41203,82928,5
41221,82927,5
41230,82931,4
41217,82926,5
41250,82919,5
41217,82924,5
41223,82925,4
41228,82932,5
41273,82923,4
41220,82920,5
41223,82915,5
41219,82908,4
41244,82914,5
41211,82907,5
41211,82911,5
41202,82899,5
41222,82904,4
41203,82897,5
41204,82898,5
41210,82907,5
41211,82883,5
41217,82902,4
41214,82908,5
41209,82915,5
41215,82870,5
41209,82902,5
41215,82903,4
41205,82904,5
41206,82845,5
41206,82890,5
41210,82907,5
41209,82904,4
41209,82911,6
41208,82902,4
41210,82890,5
41212,82898,4
41207,82943,4
41206,82895,5
41209,82901,5
41215,82917,5
41225,82968,4
41224,82924,5
41219,82929,5
41229,82936,5
41231,82957,5
41230,82948,4
41232,82941,5
41236,82942,5
41229,82937,5
41233,82931,5
41234,82938,4
41235,82926,5
41230,82931,5
41232,82936,5
41227,82945,5
41236,82953,4
41234,82946,5
41238,82944,5
41227,82942,5
41233,82938,5
41230,82943,4
41228,82929,5
41228,82932,5
41224,82928,5
41217,82919,4
41212,82919,5
41213,82908,5
41210,82905,5
41212,82913,5
41214,82915,4
41217,82902,5
41208,82905,5
41219,82913,5
41212,82902,5
41216,82907,4
41217,82905,4
41217,82908,5
41215,82914,5
41223,82927,5
41212,82912,3
41213,82906,5
41207,82912,5
41210,82891,5
41200,82877,5
41184,82869,4
41183,82849,5
41185,82841,5
41180,82843,5
41172,82846,4
41179,82839,4
41183,82846,5
41177,82843,5
41177,82839,5
41176,82839,4
41178,82838,5
41179,82845,5
41178,82842,5
41177,82846,5
41183,82838,4
41183,82849,6
41183,82848,4
41174,82845,5
41174,82851,5
41177,82841,6
41175,82840,3
41178,82839,5
41175,82841,5
41176,82839,5
41179,82834,4
41170,82824,5
41166,82829,5
41163,82822,5
41157,82817,5
41163,82814,4
41170,82827,5
41165,82818,5
41165,82821,5
41168,82822,4
41161,82809,4
41154,82808,5
41142,82803,5
41157,82813,5
41153,82802,4
41154,82812,5
41153,82814,6
41159,82821,4
41156,82820,5
41166,82824,4
41163,82822,5
41131,82817,5
41153,82824,5
41161,82830,5
41168,82819,4
41122,82836,5
41171,82843,5
41176,82836,5
41177,82845,5
41161,82851,4
41186,82862,5
41188,82862,5
41186,82854,5
41213,82861,5
41181,82848,4
41175,82862,5
41193,82858,5
41237,82870,5
41196,82867,4
41190,82862,4
41188,82868,5
41228,82861,6
41189,82866,4
41185,82865,4
41186,82859,5
41198,82865,5
41187,82859,5
41182,82855,5
41185,82859,4
41191,82842,5
41191,82862,5
41192,82870,5
41188,82872,5
41188,82828,4
41197,82878,5
41195,82877,5
41198,82885,5
41199,82853,5
41213,82914,4
41217,82920,5
41220,82906,5
41210,82925,5
41205,82911,5
41218,82913,4
41208,82911,5
41216,82952,5
41203,82890,6
41192,82875,3
41199,82872,4
41189,82923,5
41197,82873,5
41189,82872,5
41187,82864,4
41192,82889,5
41186,82864,5
41186,82865,5
41182,82866,5
41198,82870,4
41177,82863,5
41184,82854,5
41185,82866,5
41186,82863,5
41182,82859,4
41175,82850,5
41175,82871,5
41190,82851,5
41184,82854,5
41182,82852,5
41178,82856,4
41183,82853,5
41179,82849,5
41182,82842,6
41183,82847,3
41173,82858,5
41180,82860,5
41182,82867,5
41189,82866,4
41182,82864,4
41183,82864,5
41189,82865,5
41190,82864,5
41181,82864,4
41193,82866,5
41189,82871,5
41188,82867,5
41191,82872,5
41190,82861,4
41185,82860,5
41199,82862,5
41182,82859,5
41185,82859,5
41184,82865,4
41174,82861,6
41184,82867,4
41177,82869,5
41180,82857,5
41188,82868,4
41189,82869,5
41188,82877,5
41198,82874,5
41191,82883,5
41199,82885,4
41194,82871,5
41190,82869,5
41200,82876,5
41197,82872,4
41196,82884,4
41199,82882,5
41192,82885,5
41195,82872,5
41184,82875,4
41186,82867,5
41181,82873,5
41189,82859,5
41178,82863,5
41179,82848,4
41174,82850,5
41178,82856,6
41180,82846,4
41187,82856,5
41181,82862,4
41186,82861,5
41190,82872,5
41191,82873,5
41190,82875,5
41201,82881,4
41195,82871,5
41193,82873,5
41186,82858,5
41184,82864,5
41181,82844,4
41172,82831,5
41173,82832,5
41151,82816,5
41146,82812,4
41144,82801,4
41155,82807,5
41141,82791,5
41129,82801,5
41147,82796,4
41144,82792,5
41144,82791,5
41102,82794,6
41138,82793,4
41146,82788,4
41145,82790,5
41103,82792,5
41151,82787,5
41148,82799,5
41140,82802,4
41161,82793,5
41152,82793,5
41152,82806,5
41147,82799,5
41188,82802,4
41156,82803,5
41154,82808,5
41152,82802,5
41186,82800,5
41157,82799,4
41156,82802,5
41152,82803,5
41165,82812,5
41154,82812,5
41148,82810,4
41159,82814,5
41153,82794,5
41149,82806,6
41150,82800,3
41147,82813,5
41145,82766,5
41145,82808,5
41149,82795,5
41144,82806,4
41146,82757,5
41143,82801,5
41148,82795,5
41144,82799,5
41149,82790,4
41152,82804,5
41159,82814,5
41155,82821,5
41154,82843,5
41157,82824,4
41168,82818,5
41154,82829,5
41152,82868,5
41155,82818,5
41158,82816,5
41157,82814,4
41165,82845,5
41159,82813,5
41157,82817,5
41144,82812,4
41151,82821,5
41144,82809,5
41152,82805,5
41152,82810,4
41159,82802,5
41146,82811,5
41155,82806,5
41147,82800,5
41149,82806,4
41146,82805,5
41145,82796,5
41150,82794,5
41143,82794,5
41144,82804,4
41142,82802,5
41152,82799,5
41150,82807,5
41147,82800,5
41146,82789,4
41137,82788,6
41135,82782,4
41137,82781,5
41129,82763,5
41120,82764,4
41124,82749,5
41128,82752,5
41118,82745,5
41119,82742,5
41113,82747,4
41112,82744,5
41114,82743,5
41116,82748,5
41123,82761,4
41125,82772,4
41132,82779,5
41134,82782,7
41133,82782,3
41138,82791,4
41149,82795,5
41145,82810,5
41151,82809,5
41142,82797,5
41151,82798,4
41129,82788,5
41136,82775,6
41125,82763,4
41119,82737,5
41111,82735,4
41104,82730,5
41106,82718,5
41105,82733,5
41092,82725,5
41108,82729,4
41095,82719,5
41109,82712,5
41096,82709,5
41099,82705,5
41096,82705,4
41096,82698,5
41100,82707,5
41091,82711,5
41092,82708,4
41094,82707,4
41096,82702,5
41084,82687,5
41082,82693,5
41075,82688,4
41080,82689,5
41077,82681,5
41081,82682,5
41080,82681,5
41084,82685,4
41084,82685,5
41079,82683,5
41085,82684,5
41079,82674,5
41082,82691,4
41086,82686,5
41089,82693,5
41095,82691,5
41092,82689,5
41078,82701,4
41094,82710,5
41088,82704,5
41101,82707,5
41061,82725,5
41097,82716,4
41104,82723,5
41110,82726,5
41068,82729,5
41107,82718,5
41096,82726,4
41100,82725,5
41101,82736,5
41109,82731,5
41109,82738,4
41119,82736,5
41148,82742,5
41107,82747,5
41107,82742,5
41115,82749,4
41166,82755,5
41121,82751,5
41118,82750,5
41123,82755,5
41147,82758,4
41121,82755,5
41123,82764,5
41133,82769,5
41136,82773,5
41134,82763,4
41132,82768,6
41123,82772,4
41135,82758,5
41137,82777,5
41134,82780,6
41140,82789,3
41132,82735,5
41142,82790,5
41134,82787,5
41138,82782,4
41141,82739,5
41141,82782,5
41132,82792,5
41144,82778,4
41131,82795,5
41137,82788,5
41143,82781,5
41139,82786,5
41141,82831,4
41133,82773,5
41125,82775,5
41120,82775,5
41124,82805,5
41129,82760,4
41110,82768,5
41116,82757,6
41109,82766,4
41119,82750,5
41112,82740,4
41116,82751,5
41119,82756,5
41127,82759,5
41128,82756,5
41122,82769,4
41134,82779,5
41144,82798,5
41139,82803,5
41150,82808,4
41152,82813,4
41154,82823,5
41152,82815,5
41164,82826,5
41156,82827,4
41167,82828,5
41162,82829,5
41160,82816,5
41144,82809,5
41139,82786,4
41132,82769,5
41123,82763,5
41122,82758,6
41124,82761,4
41124,82767,4
41114,82748,5
41124,82759,5
41126,82748,5
41121,82748,5
41120,82751,4
41118,82752,5
41122,82750,5
41126,82772,5
41129,82759,5
41124,82762,4
41128,82763,5
41127,82764,5
41132,82763,5
41120,82754,4
41125,82760,4
41121,82766,5
41122,82758,5
41123,82749,5
41122,82747,5
41119,82747,4
41112,82739,5
41114,82743,5
41119,82736,6
41122,82736,3
41114,82745,5
41111,82740,5
41118,82751,5
41122,82750,5
41118,82755,4
41123,82752,5
41125,82755,5
41121,82749,5
41122,82746,5
41131,82755,4
41115,82747,5
41122,82756,5
41125,82761,5
41129,82761,5
41121,82764,4
41132,82768,5
41124,82775,5
41123,82761,5
41123,82766,4
41129,82761,6
41128,82768,4
41128,82760,5
41126,82757,5
41120,82760,6
41119,82760,3
41123,82761,5
41126,82764,5
41134,82769,5
41135,82769,4
41134,82770,5
41131,82771,5
41139,82781,5
41135,82777,5
41146,82784,4
41113,82791,5
41136,82782,5
41141,82789,5
41140,82796,5
41109,82792,4
41150,82795,5
41140,82800,5
41152,82806,5
41109,82799,5
41146,82800,4
41139,82796,6
41146,82796,4
41158,82793,5
41141,82798,4
41133,82790,5
41144,82794,5
41188,82796,5
41145,82796,5
41148,82794,4
41142,82788,5
41175,82787,5
41141,82784,5
41133,82778,5
41134,82783,4
41147,82780,5
41133,82787,5
41132,82786,5
41135,82781,5
41136,82776,4
41137,82791,5
41141,82786,5
41138,82799,5
41133,82763,5
41151,82791,4
41145,82795,5
41147,82805,6
41148,82758,4
41143,82813,5
41151,82800,5
41152,82810,4
41152,82792,5
41158,82811,5
41156,82817,4
41152,82805,5
41156,82857,5
41159,82811,5
41152,82817,5
41141,82811,4
41151,82853,5
41149,82798,5
41149,82791,5
41144,82792,5
41137,82813,4
41138,82779,5
41134,82780,5
41130,82779,5
41130,82778,5
41132,82769,4
41133,82768,5
41121,82770,5
41131,82771,6
41134,82776,4
41132,82783,4
41143,82789,5
41143,82800,5
41149,82810,5
41153,82812,5
41165,82824,4
41167,82831,5
41164,82826,5
41160,82833,5
41160,82817,4
41153,82819,5
41156,82809,5
41141,82795,5
41143,82781,5
41139,82776,4
41134,82779,5
41131,82774,5
41137,82784,5
41135,82779,5
41127,82786,5
41138,82793,4
41139,82792,5
41145,82795,5
41144,82800,5
41144,82800,4
41148,82805,5
41149,82803,5
41144,82796,5
41156,82805,5
41153,82801,4
41146,82809,5
41159,82807,5
41146,82800,5
41144,82803,4
41147,82804,4
41150,82800,5
41147,82796,5
41137,82791,5
41145,82798,4
41142,82801,5
41148,82802,5
41149,82804,5
41153,82821,5
41166,82833,4
41171,82844,6
41169,82850,4
41186,82860,5
41181,82865,5
41177,82859,4
41188,82877,5
41188,82879,5
41189,82880,5
41191,82888,5
41192,82889,4
41198,82897,5
41202,82897,5
41193,82894,5
41202,82895,5
41203,82899,4
41203,82907,5
41209,82917,5
41221,82918,5
41217,82936,4
41229,82950,4
41235,82963,5
41243,82978,5
41247,82992,5
41255,82997,4
41260,83007,5
41258,83009,6
41259,83015,4
41262,83026,5
41267,83024,4
41273,83029,5
41285,83029,5
41256,83047,5
41286,83050,5
41280,83045,4
41283,83044,5
41256,83048,5
41290,83053,5
41279,83042,5
41292,83053,4
41243,83046,5
41287,83041,5
41278,83038,5
41282,83050,5
41288,83054,4
41291,83057,5
41288,83062,5
41286,83057,5
41333,83063,4
41298,83071,4
41305,83072,5
41304,83080,6
41347,83080,4
41307,83074,4
41304,83075,5
41311,83079,5
41325,83085,5
41306,83090,5
41320,83100,4
41312,83106,5
41321,83110,5
41320,83125,5
41326,83113,5
41322,83119,4
41314,83080,5
41321,83113,5
41329,83111,5
41324,83115,5
41327,83080,4
41323,83114,5
41328,83116,5
41328,83118,5
41330,83087,5
41324,83111,4
41321,83109,5
41311,83102,5
41319,83140,5
41332,83138,4
41339,83161,4
41353,83178,5
41364,83225,5
41366,83187,5
41366,83193,4
41374,83193,5
41371,83236,5
41376,83206,5
41383,83221,5
41386,83222,4
41387,83235,5
41376,83232,5
41383,83218,5
41374,83206,5
41366,83195,4
41366,83191,5
41357,83192,5
41374,83203,5
41374,83207,5
41376,83206,5
41372,83199,4
41379,83207,5
41377,83208,5
41378,83203,5
41374,83199,4
41369,83215,5
41378,83218,5
41377,83214,5
41383,83215,4
41379,83217,4
41385,83222,5
41387,83216,5
41390,83244,5
41403,83240,4
41392,83235,5
41401,83238,5
41396,83236,5
41386,83239,5
41382,83225,4
41387,83211,5
41373,83205,5
41373,83193,5
41368,83195,5
41383,83192,4
41382,83218,6
41390,83228,4
41389,83221,5
41380,83220,9
41382,83214,0
41384,83209,5
41375,83181,5
41366,83192,5
41364,83194,5
41364,83185,4
41359,83187,5
41365,83176,5
41361,83186,5
41359,83183,4
41364,83180,4
41362,83185,5
41369,83193,5
41367,83197,5
41375,83201,4
41371,83203,5
41382,83215,5
41386,83218,5
41388,83224,4
41393,83235,4
41397,83233,5
41394,83228,5
41400,83227,5
41389,83236,5
41398,83240,4
41395,83258,5
41419,83262,5
41414,83288,5
41424,83287,5
41418,83290,4
41421,83277,5
41421,83281,5
41429,83278,5
41425,83281,5
41425,83284,4
41420,83285,5
41414,83291,5
41430,83291,5
41426,83278,5
41418,83266,4
41406,83261,5
41392,83229,5
41381,83219,6
41384,83213,3
41373,83206,5
41380,83191,5
41364,83183,5
41335,83164,5
41339,83154,4
41336,83132,5
41334,83119,5
41283,83119,5
41333,83116,5
41323,83119,4
41330,83113,5
41294,83098,5
41314,83100,5
41305,83095,5
41309,83075,4
41330,83067,5
41302,83062,5
41291,83048,5
41287,83032,5
41324,83035,5
41281,83036,4
41280,83035,5
41277,83022,5
41307,83022,6
41278,83023,3
41265,83018,5
41281,83029,5
41281,83032,5
41280,83033,4
41282,83041,5
41280,83039,5
41280,83025,5
41284,83037,5
41274,83030,4
41278,83028,5
41283,82994,5
41268,83009,5
41257,83002,5
41263,82984,4
41239,82914,5
41237,82948,5
41232,82939,5
41235,82946,5
41224,82947,4
41236,82942,6
41240,82956,4
41237,82955,5
41246,82989,5
41235,82949,6
41244,82948,3
41235,82956,5
41239,82995,5
41234,82959,5
41228,82956,4
41227,82957,5
41233,82974,5
41243,82952,5
41236,82948,4
41235,82942,4
41235,82939,5
41224,82928,5
41224,82926,5
41222,82925,4
41219,82907,5
41211,82912,5
41200,82905,5
41209,82906,5
41213,82914,4
41216,82919,5
41216,82917,6
41219,82914,4
41212,82927,5
41211,82917,4
41218,82916,5
41208,82917,5
41218,82921,5
41214,82918,5
41212,82908,4
41210,82921,5
41212,82922,5
41222,82931,5
41227,82937,5
41222,82942,4
41232,82940,5
41230,82945,5
41239,82950,5
41237,82960,4
41230,82963,4
41239,82959,5
41238,82975,5
41254,82974,5
41250,82984,4
41251,82985,5
41255,82998,5
41260,83002,6
41264,83006,4
41266,83005,4
41269,83004,5
41262,83005,5
41264,83007,5
41268,83000,5
41263,83015,4
41261,83019,5
41278,83014,5
41274,83013,5
41268,83021,5
41273,83009,4
41269,83015,5
41274,83020,5
41279,83026,5
41266,83024,5
41279,83031,4
41275,83029,5
41272,83022,5
41262,83020,5
41265,83013,5
41257,83011,4
41263,82998,5
41260,83006,5
41262,82992,6
41255,82998,3
41256,82988,5
41257,82995,5
41262,82997,5
41266,83008,5
41272,83018,4
41283,83027,5
41271,83020,5
41281,83037,5
41287,83046,5
41287,83061,4
41295,83061,5
41297,83075,5
41297,83063,5
41290,83068,5
41299,83067,4
41291,83068,5
41288,83059,5
41286,83045,5
41288,83036,5
41260,83025,5
41277,83033,4
41266,83032,5
41273,83030,5
41237,83026,4
41271,83015,4
41267,83017,5
41284,83035,5
41229,83031,5
41274,83029,4
41278,83025,5
41282,83031,5
41265,83029,5
41275,83024,5
41276,83032,4
41279,83026,5
41296,83018,5
41272,83024,5
41269,83016,5
41270,83018,4
41313,83015,5
41266,83020,5
41278,83010,5
41263,83006,5
41292,83006,4
41268,83005,6
41260,83003,4
41268,83009,5
41275,83013,5
41271,83011,4
41261,83012,5
41266,83020,5
41265,82987,5
41269,83015,5
41271,83006,4
41269,83017,5
41267,82971,5
41268,83022,5
41261,83015,5
41264,83018,4
41272,82973,5
41264,83008,5
41262,83014,5
41263,83014,4
41272,83041,5
41271,83025,5
41270,83028,5
41276,83028,5
41272,83087,4
41281,83036,5
41280,83050,6
41283,83052,4
41288,83099,5
41285,83050,4
41296,83056,5
41297,83065,5
41290,83087,5
41291,83070,5
41299,83077,4
41304,83078,5
41301,83071,5
41295,83077,5
41302,83081,5
41310,83082,4
41305,83087,5
41301,83080,5
41297,83070,5
41295,83077,4
41290,83067,5
41304,83076,5
41294,83072,5
41298,83062,5
41296,83056,4
41286,83061,5
41286,83050,5
41289,83058,6
41288,83046,4
41282,83043,4
41284,83043,5
41280,83046,5
41287,83046,5
41295,83058,5
41292,83061,4
41297,83073,5
41317,83070,5
41303,83095,5
41318,83113,5
41325,83115,4
41330,83141,5
41347,83167,5
41351,83178,5
41363,83187,5
41359,83183,4
41350,83162,5
41341,83136,5
41325,83108,5
41315,83089,5
41301,83081,4
41298,83065,5
41283,83049,5
41269,83029,5
41271,83016,4
41267,83010,5
41264,82997,5
41246,83006,5
41254,82979,5
41246,82983,4
41249,82987,5
41251,82984,5
41246,82983,5
41254,82984,5
41248,82980,4
41255,82994,5
41243,82988,5
41246,82984,5
41238,82976,5
41239,82954,4
41242,82966,5
41238,82961,5
41239,82962,5
41238,82975,5
41236,82955,5
41235,82948,4
41223,82947,5
41235,82944,5
41221,82943,4
41229,82936,4
41219,82927,5
41210,82926,5
41207,82915,5
41214,82918,4
41219,82914,5
41206,82905,5
41205,82905,5
41204,82902,5
41206,82900,4
41205,82901,5
41201,82901,5
41194,82886,5
41189,82891,5
41187,82882,4
41173,82881,5
41197,82892,5
41210,82890,5
41201,82895,5
41160,82892,4
41208,82904,6
41204,82904,4
41213,82908,5
41167,82914,5
41201,82901,4
41211,82908,5
41208,82909,5
41224,82911,5
41208,82914,5
41204,82920,4
41214,82918,5
41259,82936,5
41221,82936,5
41222,82937,4
41232,82940,5
41267,82934,5
41223,82945,5
41227,82941,5
41224,82940,4
41242,82931,5
41218,82937,5
41218,82930,6
41215,82930,4
41219,82911,4
41206,82922,5
41211,82931,5
41212,82928,5
41221,82903,5
41222,82933,4
41224,82945,5
41229,82946,5
41238,82904,5
41238,82958,5
41238,82961,5
41237,82966,4
41234,82945,5
41232,82968,5
41233,82959,5
41218,82946,4
41220,82973,5
41219,82935,5
41213,82922,5
41208,82916,5
41216,82966,4
41207,82922,5
41218,82914,5
41219,82906,6
41203,82941,3
41206,82903,5
41211,82915,5
41212,82911,5
41204,82925,5
41214,82910,4
41213,82917,5
41205,82910,5
41206,82908,5
41204,82910,5
41204,82911,4
41206,82901,5
41201,82907,5
41206,82898,5
41195,82889,5
41194,82892,4
41195,82888,5
41191,82886,5
41199,82883,5
41195,82884,5
41192,82879,5
41192,82880,4
41186,82874,5
41190,82877,5
41189,82885,6
41193,82878,3
41201,82878,5
41189,82885,5
41188,82878,5
41190,82877,4
41187,82872,5
41186,82865,5
41191,82875,5
41184,82857,5
41179,82859,4
41179,82862,5
41178,82866,5
41183,82868,5
41174,82864,5
41187,82863,4
41176,82869,7
41179,82871,3
41182,82872,5
41176,82871,5
41184,82873,4
41189,82872,6
41185,82870,4
41181,82874,5
41188,82874,5
41186,82874,6
41184,82875,3
41185,82884,5
41184,82875,5
41188,82890,4
41189,82883,4
41192,82883,5
41191,82891,5
41191,82897,5
41196,82894,4
41202,82892,5
41197,82905,5
41187,82900,5
41197,82901,5
41198,82886,4
41193,82889,5
41196,82888,5
41199,82884,5
41188,82882,5
41185,82882,4
41192,82876,5
41188,82879,6
41192,82882,4
41199,82883,5
41199,82881,4
41191,82883,5
41189,82880,5
41198,82892,5
41193,82890,5
41187,82884,4
41194,82884,5
41188,82891,5
41187,82886,5
41198,82893,4
41202,82899,4
41196,82893,5
41191,82896,5
41201,82918,5
41206,82903,4
41200,82919,5
41179,82909,5
41209,82912,5
41200,82904,5
41206,82900,4
41154,82908,5
41209,82912,5
41204,82895,6
41193,82886,4
41181,82888,4
41196,82889,5
41191,82876,5
41190,82870,5
41217,82867,5
41184,82861,4
41181,82859,5
41177,82860,5
41232,82862,5
41187,82871,5
41183,82871,4
41193,82889,5
41233,82898,5
41203,82911,5
41212,82924,4
41216,82924,4
41227,82933,5
41231,82942,5
41228,82949,5
41235,82965,5
41235,82941,4
41242,82967,5
41237,82956,5
41226,82950,6
41222,82897,3
41212,82921,5
41204,82901,5
41197,82912,5
41206,82865,5
41208,82914,4
41205,82911,5
41209,82913,5
41203,82909,5
41200,82912,5
41204,82903,4
41207,82913,5
41206,82949,5
41209,82903,5
41199,82904,5
41201,82901,4
41199,82956,5
41201,82907,5
41199,82902,5
41204,82904,5
41195,82911,5
41195,82892,4
41185,82886,5
41198,82885,5
41204,82882,4
41192,82886,5
41189,82888,5
41181,82885,5
41191,82886,5
41192,82873,4
41188,82879,5
41186,82878,5
41190,82878,5
41198,82869,5
41191,82877,4
41188,82878,5
41190,82872,5
41187,82867,5
41181,82876,5
41192,82879,4
41181,82864,5
41188,82863,5
41182,82866,5
41191,82870,5
41184,82878,4
41188,82871,6
41191,82881,4
41187,82892,5
41195,82879,4
41193,82889,4
41194,82892,5
41196,82880,5
41197,82899,5
41197,82909,4
41196,82898,5
41208,82913,5
41209,82904,5
41210,82908,5
41205,82909,4
41207,82913,5
41207,82917,5
41199,82914,5
41211,82904,5
41210,82917,4
41200,82913,5
41213,82911,5
41211,82912,5
41208,82912,5
41198,82906,4
41200,82905,5
41202,82906,6
41201,82897,4
41197,82900,5
41199,82908,4
41203,82914,5
41203,82908,5
41213,82915,5
41203,82918,4
41206,82919,4
41210,82912,5
41216,82919,5
41215,82925,5
41209,82928,4
41218,82923,5
41223,82924,5
41223,82930,5
41218,82931,5
41220,82926,4
41216,82932,5
41222,82937,5
41211,82933,5
41224,82928,5
41218,82927,4
41221,82933,5
41216,82925,5
41214,82921,6
41211,82925,4
41209,82925,4
41207,82925,5
41210,82917,5
41208,82914,5
41207,82923,5
41209,82921,4
41212,82918,5
41211,82925,5
41181,82921,5
41212,82926,4
41205,82928,4
41215,82913,5
41168,82922,5
41214,82922,5
41211,82928,4
41215,82937,5
41181,82935,5
41223,82954,5
41229,82957,5
41238,82963,5
41247,82973,4
41235,82966,5
41231,82973,5
41244,82970,5
41290,82988,4
41244,82986,5
41240,82975,5
41242,82977,5
41284,82966,5
41230,82971,4
41230,82952,5
41227,82950,5
41246,82945,5
41215,82931,5
41216,82931,4
41211,82921,5
41210,82912,5
41211,82916,5
41207,82906,4
41208,82911,4
41211,82884,5
41213,82933,5
41212,82941,5
41225,82951,4
41228,82920,6
41234,82958,4
41231,82969,5
41242,82979,5
41244,82977,4
41251,82986,5
41243,82983,5
41236,82978,5
41227,82999,5
41232,82944,4
41214,82943,5
41216,82924,5
41219,82989,5
41225,82938,5
41218,82940,4
41218,82944,5
41220,82954,5
41211,82929,5
41218,82933,5
41213,82937,4
41221,82940,5
41214,82940,5
41221,82938,5
41218,82945,5
41219,82939,4
41209,82937,6
41219,82931,4
41218,82930,5
41218,82929,4
41217,82924,5
41214,82921,5
41215,82936,5
41216,82937,5
41219,82935,4
41214,82925,5
41217,82933,5
41210,82928,5
41206,82930,5
41211,82921,4
41207,82917,5
41207,82930,5
41207,82939,5
41233,82961,5
41238,82976,4
41248,83001,5
41261,83018,5
41262,83022,5
41267,83017,5
41270,83026,4
41265,83020,5
41263,83014,5
41271,83037,5
41284,83057,5
41296,83089,4
41316,83104,5
41323,83128,5
41320,83116,5
41317,83111,4
41319,83118,5
41317,83114,5
41323,83123,5
41330,83140,5
41343,83149,4
41348,83168,5
41342,83173,5
41341,83168,5
41353,83182,5
41350,83178,4
41360,83187,5
41360,83183,5
41350,83168,5
41356,83173,5
41356,83170,4
41354,83176,5
41352,83170,5
41354,83167,5
41352,83170,5
41349,83159,4
41346,83159,5
41343,83165,5
41343,83156,5
41347,83153,5
41348,83159,4
41340,83150,5
41344,83143,5
41341,83152,5
41335,83137,4
41332,83142,5
41335,83135,5
41327,83134,5
41329,83123,5
41321,83110,4
41314,83117,5
41319,83109,4
41320,83106,5
41318,83111,5
41321,83107,6
41321,83098,3
41318,83105,5
41322,83117,5
41322,83110,5
41306,83113,4
41318,83111,5
41320,83106,5
41315,83109,5
41283,83106,5
41315,83100,4
41317,83111,5
41312,83106,5
41273,83104,5
41314,83105,5
41311,83092,4
41315,83098,5
41304,83088,5
41308,83075,5
41303,83068,4
41303,83074,5
41333,83078,6
41300,83081,4
41308,83078,5
41310,83076,4
41360,83093,7
41308,83087,3
41314,83097,5
41315,83107,5
41355,83112,4
41319,83125,5
41335,83128,5
41330,83137,5
41346,83146,5
41345,83148,4
41337,83151,5
41343,83149,5
41334,83120,5
41332,83139,5
41331,83132,4
41332,83129,5
41322,83085,5
41324,83130,5
41333,83128,5
41331,83130,4
41337,83097,5
41338,83136,6
41345,83137,4
41338,83155,4
41349,83167,5
41345,83151,5
41350,83158,5
41346,83155,5
41350,83202,4
41352,83164,5
41347,83150,5
41347,83149,5
41352,83194,5
41339,83141,4
41347,83144,5
41335,83144,5
41345,83168,5
41355,83173,5
41367,83207,4
41392,83234,5
41397,83242,5
41395,83249,5
41390,83249,5
41408,83248,4
41402,83248,5
41401,83258,5
41393,83259,6
41399,83247,4
41397,83249,4
41392,83250,5
41399,83230,5
41384,83229,5
41392,83233,4
41386,83221,5
41382,83226,5
41389,83225,5
41387,83213,5
41384,83216,4
41383,83215,5
41378,83222,5
41389,83229,5
41392,83229,5
41393,83234,4
41397,83237,5
41403,83239,5
41406,83251,5
41411,83262,5
41400,83260,5
41409,83272,4
41412,83275,5
41420,83287,5
41421,83289,6
41423,83289,3
41427,83297,5
41430,83298,9
41422,83298,1
41426,83301,5
41433,83323,4
41431,83293,5
41426,83299,5
41417,83294,5
41423,83290,4
41413,83287,5
41418,83291,5
41410,83277,5
41411,83270,5
41418,83282,4
41434,83286,5
41423,83285,5
41423,83292,5
41420,83294,5
41413,83280,4
41408,83261,6
41411,83266,4
41410,83266,5
41415,83277,5
41424,83276,4
41420,83281,5
41419,83282,5
41418,83288,5
41418,83280,5
41424,83276,4
41418,83281,5
41421,83273,5
41409,83284,5
41410,83276,5
41411,83266,4
41412,83251,5
41402,83257,5
41407,83256,5
41405,83255,4
41406,83256,5
41394,83251,5
41394,83239,5
41388,83229,5
41380,83230,4
41383,83209,5
41378,83220,6
41382,83218,4
41389,83210,5
41380,83210,4
41349,83204,5
41377,83198,5
41370,83205,5
41385,83210,5
41349,83228,4
41394,83237,5
41397,83266,5
41411,83267,5
41383,83272,5
41422,83278,4
41411,83273,5
41405,83265,5
41420,83251,5
41406,83245,5
41400,83244,4
41382,83232,5
41435,83222,5
41379,83217,5
41375,83215,4
41380,83222,5
41426,83218,5
41387,83224,6
41388,83235,4
41384,83231,4
41405,83246,5
41389,83246,5
41405,83235,5
41388,83235,5
41393,83228,4
41383,83233,5
41383,83221,5
41377,83212,5
41382,83180,5
41388,83224,4
41384,83215,5
41381,83207,5
41378,83164,5
41378,83212,5
41372,83214,5
41369,83192,4
41364,83183,5
41362,83195,5
41372,83183,5
41365,83187,4
41367,83216,5
41350,83173,5
41344,83158,6
41340,83142,3
41342,83203,5
41349,83157,5
41350,83148,5
41345,83138,5
41336,83155,4
41322,83113,5
41331,83110,5
41330,83114,5
41325,83120,5
41318,83112,4
41317,83100,5
41318,83101,5
41324,83100,5
41326,83102,5
41331,83114,4
41337,83130,5
41343,83142,5
41344,83137,5
41346,83155,5
41342,83154,5
41354,83160,4
41345,83164,5
41354,83167,5
41356,83174,5
41358,83167,4
41358,83180,5
41361,83171,5
41352,83189,5
41370,83186,4
41363,83178,5
41355,83161,5
41352,83158,5
41341,83154,5
41351,83141,4
41345,83130,5
41341,83125,5
41327,83129,5
41332,83137,5
41336,83133,4
41335,83135,5
41332,83122,5
41340,83116,5
41326,83111,5
41330,83118,4
41319,83108,6
41324,83106,4
41312,83087,5
41314,83081,5
41297,83067,4
41293,83059,5
41286,83053,5
41286,83054,5
41289,83063,5
41298,83067,4
41303,83073,5
41309,83083,5
41319,83087,5
41308,83093,4
41308,83087,5
41308,83084,5
41309,83085,5
41303,83086,5
41311,83109,4
41316,83094,5
41312,83101,5
41318,83115,5
41319,83106,5
41317,83106,4
41318,83112,5
41327,83094,6
41308,83087,4
41306,83083,5
41301,83058,4
41289,83053,5
41289,83042,5
41287,83028,5
41281,83037,5
41284,83027,4
41284,83037,5
41286,83035,5
41285,83049,5
41283,83047,5
41289,83048,4
41283,83040,5
41289,83043,5
41279,83042,5
41284,83033,4
41276,83027,5
41274,83023,5
41258,83023,5
41280,83021,5
41265,83008,4
41268,83015,5
41230,83009,5
41265,83013,5
41275,83020,5
41275,83025,4
41233,83027,5
41275,83022,5
41274,83020,5
41258,83011,5
41267,83011,4
41269,83003,5
41253,82997,5
41257,82993,5
41291,83002,5
41253,82992,4
41256,83004,5
41257,83004,5
41312,82996,5
41267,82997,4
41265,82997,5
41264,82994,4
41279,82990,5
41251,82982,5
41243,82977,6
41253,82983,3
41258,82978,5
41254,82989,5
41257,82999,5
41267,82993,4
41254,82975,5
41260,83015,5
41273,83001,5
41263,83013,5
41264,82970,4
41264,83019,5
41263,83015,5
41268,83016,5
41279,83002,5
41279,83018,4
41274,83020,5
41278,83017,5
41277,83042,5
41278,83021,5
41274,83017,4
41271,83021,5
41276,83063,5
41275,83017,5
41271,83018,5
41266,83013,5
41274,83047,4
41280,83025,5
41276,83026,5
41272,83028,4
41271,83021,5
41267,83009,5
41258,83008,5
41255,82992,5
41255,82993,4
41259,82987,5
41253,82985,5
41258,82988,5
41256,82988,5
41255,82977,4
41253,82991,5
41256,82995,5
41263,82997,5
41256,83006,5
41262,83006,4
41276,83022,5
41272,83013,6
41275,83021,4
41277,83030,5
41280,83046,4
41276,83041,7
41284,83037,3
41284,83029,5
41275,83027,4
41274,83020,4
41268,83018,5
41268,83005,5
41263,83022,5
41269,83023,4
41274,83023,5
41276,83036,5
41279,83050,5
41283,83049,5
41276,83037,4
41278,83028,5
41275,83016,5
41274,83022,5
41266,83015,5
41278,83020,4
41270,83030,5
41274,83028,5
41284,83035,6
41269,83022,4
41272,83013,4
41262,83006,5
41261,83002,5
41264,82986,5
41256,82984,5
41244,82981,4
41255,82985,5
41247,82987,5
41259,82985,5
41254,82992,4
41257,82997,4
41262,82991,5
41260,82996,5
41255,82988,5
41258,82992,4
41260,83002,5
41255,83002,5
41264,83003,5
41267,83011,5
41276,83018,5
41263,83015,4
41255,83002,5
41262,82996,5
41257,82992,6
41260,82993,3
41257,82979,5
41248,82976,5
41250,82982,5
41252,82988,5
41265,83008,4
41260,83005,5
41273,83010,5
41267,83010,5
41258,83010,5
41257,83010,4
41266,83001,5
41264,82998,5
41259,83005,5
41252,83002,4
41267,82998,4
41266,83015,5
41269,83004,5
41228,82997,5
41264,82994,4
41262,83004,6
41270,83007,4
41225,83010,5
41258,83016,5
41262,82993,6
41256,83002,3
41243,82990,5
41259,82984,5
41252,82977,5
41251,82976,4
41279,82973,5
41239,82971,5
41239,82964,5
41235,82957,5
41269,82954,4
41227,82940,5
41220,82938,5
41221,82921,5
41237,82919,5
41207,82923,4
41212,82923,5
41217,82926,5
41222,82923,5
41214,82915,4
41213,82922,4
41212,82924,6
41215,82890,4
41201,82916,5
41220,82910,4
41203,82901,5
41208,82851,5
41197,82899,5
41185,82868,5
41180,82867,4
41175,82811,5
41177,82860,5
41172,82848,5
41174,82848,5
41164,82857,4
41170,82835,5
41170,82839,5
41163,82840,5
41172,82882,5
41159,82842,4
41164,82833,5
41168,82838,5
41163,82884,5
41159,82831,5
41163,82838,4
41166,82836,5
41165,82852,6
41163,82818,4
41152,82820,4
41153,82806,4
41152,82802,5
41148,82788,5
41140,82792,5
41134,82779,4
41133,82779,5
41139,82786,5
41131,82772,5
41127,82766,5
41126,82766,4
41128,82773,5
41137,82793,5
41139,82782,5
41134,82766,5
41132,82768,4
41127,82759,5
41124,82760,5
41121,82765,5
41124,82761,5
41134,82773,4
41128,82779,5
41130,82770,5
41134,82780,6
41140,82783,4
41138,82782,4
41143,82786,5
41141,82786,5
41131,82788,5
41137,82782,4
41134,82780,4
41136,82784,5
41132,82779,5
41133,82781,5
41132,82783,4
41132,82792,5
41139,82795,5
41145,82789,5
41141,82794,5
41146,82806,6
41146,82808,3
41139,82806,5
41145,82813,5
41148,82810,5
41160,82813,5
41165,82822,4
41167,82823,5
41164,82834,5
41163,82827,5
41166,82834,4
41157,82834,5
41166,82842,5
41164,82837,5
41158,82841,5
41172,82852,4
41167,82842,5
41173,82841,5
41166,82841,5
41163,82848,4
41175,82843,4
41173,82840,5
41169,82842,5
41168,82834,5
41163,82835,4
41155,82826,5
41163,82815,5
41156,82813,5
41144,82808,5
41144,82804,4
41136,82794,6
41145,82800,4
41143,82795,5
41148,82800,5
41145,82801,4
41150,82793,5
41141,82803,5
41143,82819,5
41156,82823,5
41149,82822,4
41151,82816,5
41158,82815,5
41151,82805,5
41133,82785,5
41108,82773,4
41119,82764,5
41116,82750,5
41122,82748,5
41080,82746,4
41115,82749,4
41124,82750,5
41114,82750,5
41069,82748,5
41106,82740,4
41110,82738,5
41108,82730,6
41133,82743,4
41103,82742,5
41106,82730,4
41106,82740,5
41158,82746,5
41096,82735,5
41113,82741,5
41105,82729,4
41134,82725,5
41108,82720,5
41096,82717,5
41100,82711,5
41110,82702,4
41089,82697,5
41084,82689,5
41071,82691,5
41086,82670,5
41076,82678,4
41084,82685,5
41088,82681,5
41088,82662,5
41074,82681,4
41085,82687,4
41078,82695,5
41082,82642,6
41091,82698,4
41085,82700,5
41086,82708,4
41090,82701,5
41091,82708,5
41089,82699,5
41085,82707,4
41081,82734,5
41083,82692,5
41081,82691,5
41083,82686,5
41083,82745,4
41081,82705,5
41090,82707,5
41093,82715,5
41097,82734,5
41097,82709,4
41088,82718,5
41087,82716,5
41098,82723,5
41104,82717,5
41099,82727,4
41095,82719,5
41096,82715,5
41097,82714,5
41098,82726,4
41096,82732,4
41102,82733,5
41104,82715,5
41099,82712,5
41094,82722,4
41095,82713,5
41104,82714,5
41097,82720,5
41098,82727,5
41102,82732,4
41104,82728,5
41106,82737,5
41104,82721,5
41101,82724,5
41106,82730,4
41106,82727,5
41109,82711,5
41097,82719,5
41093,82720,5
41098,82713,5
41100,82713,4
41106,82724,5
41099,82708,5
41097,82707,5
41091,82707,4
41097,82703,5
41083,82707,5
41092,82707,5
41080,82706,4
41091,82705,5
41085,82699,5
41084,82702,5
41087,82699,5
41087,82711,4
41090,82700,5
41099,82718,5
41085,82705,5
41093,82710,5
41092,82713,4
41090,82690,5
41089,82700,5
41088,82691,5
41085,82693,5
41085,82694,4
41083,82686,6
41075,82687,4
41080,82691,5
41078,82684,5
41083,82696,4
41078,82698,5
41089,82693,5
41098,82709,5
41099,82719,5
41096,82731,4
41101,82732,5
41106,82730,5
41103,82743,5
41113,82751,4
41113,82752,5
41104,82738,5
41110,82746,5
41103,82724,5
41102,82722,4
41091,82702,5
41082,82685,5
41078,82683,5
41068,82678,5
41078,82680,4
41073,82685,5
41075,82689,5
41076,82684,5
41076,82691,5
41091,82689,4
41077,82694,5
41066,82691,5
41089,82705,5
41095,82701,5
41089,82707,4
41055,82710,5
41090,82713,5
41094,82702,5
41091,82698,5
41047,82704,4
41082,82703,5
41088,82704,5
41086,82693,5
41081,82683,5
41077,82695,4
41075,82684,5
41082,82682,5
41122,82685,6
41077,82678,3
41074,82678,5
41076,82687,5
41124,82685,5
41085,82698,5
41081,82693,4
41079,82703,5
41103,82699,5
41081,82701,5
41080,82691,5
41080,82700,4
41082,82699,5
41089,82704,5
41088,82702,5
41090,82701,5
41092,82672,4
41087,82711,5
41095,82713,5
41100,82710,5
41103,82675,4
41092,82727,5
41098,82728,4
41105,82719,5
41108,82718,5
41112,82745,6
41119,82751,3
41116,82749,5
41120,82797,5
41127,82772,5
41130,82779,4
41131,82783,5
41136,82851,5
41138,82793,5
41149,82803,5
41145,82818,4
41150,82830,5
41137,82809,5
41142,82803,5
41149,82799,5
41139,82823,4
41148,82808,5
41143,82805,5
41143,82806,5
41145,82813,5
41144,82801,4
41150,82809,6
41146,82807,4
41143,82811,5
41144,82802,4
41151,82819,6
41153,82825,3
41155,82821,5
41145,82822,5
41155,82829,4
41158,82832,5
41158,82823,5
41158,82818,5
41153,82830,5
41147,82821,4
41157,82832,5
41155,82827,5
41153,82823,5
41149,82816,5
41152,82811,4
41153,82808,5
41150,82807,5
41141,82809,5
41137,82791,5
41132,82791,4
41143,82782,5
41124,82777,6
41127,82772,4
41120,82758,5
41127,82762,4
41133,82770,5
41121,82766,5
41124,82766,5
41130,82778,4
41129,82776,5
41135,82789,5
41138,82794,5
41136,82793,5
41152,82820,4
41151,82824,5
41163,82835,5
41157,82843,5
41167,82860,5
41166,82855,4
41172,82858,5
41167,82856,5
41174,82855,5
41172,82853,5
41160,82841,4
41166,82826,5
41150,82804,5
41136,82805,6
41138,82799,4
41144,82801,4
41140,82802,5
41145,82806,5
41143,82813,5
41146,82804,5
41139,82807,4
41145,82802,5
41137,82807,5
41144,82798,5
41149,82805,4
41141,82812,5
41151,82802,5
41142,82812,5
41147,82811,5
41151,82805,4
41142,82807,5
41146,82803,5
41141,82794,5
41143,82803,5
41142,82801,5
41136,82794,4
41133,82790,5
41135,82793,5
41118,82796,6
41125,82793,3
41139,82786,5
41143,82797,5
41090,82790,5
41140,82794,5
41137,82783,4
41128,82795,5
41092,82787,5
41127,82778,5
41138,82791,4
41137,82791,4
41147,82799,5
41146,82795,10
41140,82805,7
41147,82800,5
41178,82799,8
41156,82837,7
41156,82837,5
41199,82858,8
41181,82861,7
41185,82848,5
41185,82888,8
41190,82891,7
41199,82918,5
41216,82912,10
41216,82912,9
41238,82961,5
41242,82977,10
41235,82976,5
41254,82955,5
41267,83029,10
41267,83029,5
41277,83031,5
41266,83020,10
41259,83056,5
41275,83027,5
41288,83059,10
41288,83059,5
41331,83067,5
41303,83092,10
41272,83067,5
41295,83080,5
41305,83085,10
41303,83104,5
41305,83106,7
41305,83106,8
41315,83101,5
41311,83103,7
41305,83100,8
41316,83106,5
41343,83110,7
41323,83125,8
41323,83125,5
41320,83114,7
41324,83115,8
41329,83115,5
41324,83112,7
41319,83107,8
41300,83090,5
41309,83096,7
41301,83085,8
41301,83085,9
41304,83077,8
41304,83083,5
41310,83086,7
41318,83106,8
41318,83106,5
41292,83123,7
41332,83118,8
41332,83123,5
41327,83134,7
41328,83106,8
41321,83099,12
41312,83081,8
41338,83083,7
41320,83085,5
41308,83088,8
41259,83087,7
41301,83097,5
41306,83104,8
41306,83104,7
41334,83106,5
41314,83101,8
41317,83108,7
41311,83107,5
41310,83103,8
41314,83107,7
41311,83090,7
41311,83090,8
41315,83117,7
41296,83085,5
41300,83070,8
41300,83077,7
41291,83069,8
41291,83069,7
41301,83100,7
41298,83070,8
41293,83058,7
41262,83037,5
41223,83002,8
41223,83002,7
41285,83001,9
41264,82991,10
41251,82993,5
41247,82988,8
41247,82988,7
41211,82987,8
41243,82996,10
41255,82989,3
41288,83025,7
41260,82998,8
41260,82998,5
41214,83005,5
41243,83001,8
41258,82997,5
41251,82999,5
41256,83005,5
41257,82986,8
41257,82985,5
41258,82990,5
41264,82993,8
41255,82994,5
41240,82975,5
41236,82958,8
41236,82958,5
41222,82951,5
41220,82948,5
41227,82972,8
41223,82936,5
41208,82918,5
41213,82927,8
41220,82918,5
41240,82918,5
41213,82921,5
41212,82914,4
41206,82922,0
41206,82920,3
41211,82916,5
41214,82922,5
41207,82925,4
41215,82923,5
41218,82917,5
41207,82912,5
41204,82905,5
41204,82902,4
41199,82898,5
41194,82899,5
41204,82893,5
41193,82896,5
41199,82896,4
41199,82892,5
41202,82900,5
41205,82903,5
41203,82913,5
41212,82923,4
41215,82922,5
41217,82928,5
41217,82940,5
41224,82940,4
41226,82943,5
41221,82956,5
41222,82946,5
41225,82943,5
41223,82944,5
41221,82929,4
41215,82919,5
41215,82926,5
41208,82906,5
41206,82916,4
41205,82909,5
41209,82921,5
41201,82911,5
41207,82905,5
41211,82913,4
41205,82916,5
41210,82906,5
41206,82919,5
41208,82920,5
41203,82910,4
41211,82905,5
41199,82913,5
41214,82911,5
41201,82914,5
41211,82919,4
41201,82917,6
41204,82916,4
41208,82917,5
41209,82911,4
41202,82904,7
41213,82907,3
41204,82893,5
41203,82904,5
41198,82910,4
41204,82901,5
41209,82922,5
41206,82916,5
41202,82917,5
41210,82911,4
41205,82911,5
41214,82916,5
41216,82914,5
41213,82921,5
41204,82917,4
41208,82913,5
41205,82919,5
41211,82913,5
41208,82916,5
