RED,IR,EKG,TIME
78311,123520,12
78156,123297,5
78009,122960,5
75527,119508,7
75527,119508,8
74834,118598,5
74204,117753,7
73622,116878,8
72907,115869,5
71973,114638,7
66957,107702,8
66957,107702,7
66193,106602,8
65492,105705,5
64740,104608,7
63882,103342,8
62911,102045,5
57894,95350,7
57894,95350,8
56773,93805,5
55798,92359,7
54861,91130,8
54142,90042,5
53651,89423,7
52092,87120,8
52092,87120,5
51895,86885,7
51819,86807,8
51874,86860,5
51923,86938,7
52006,87082,8
53523,89385,9
53523,89385,5
53835,89700,8
53949,89858,7
54044,90013,5
54235,90287,8
54463,90709,7
54859,91347,5
60838,100201,8
60838,100201,7
62241,102221,5
63801,104382,8
65531,106826,7
67254,109180,5
69238,112087,8
73979,117778,7
73979,117778,5
75077,119373,8
76134,120783,7
77149,122155,5
78179,123573,8
79131,124807,7
81847,128339,10
81847,128339,7
81905,128415,5
81943,128474,10
81221,128419,5
81163,128363,5
81243,128503,5
81801,129216,10
81801,129216,5
81806,129238,5
81807,129275,10
81855,129346,5
81882,129376,3
81863,129342,2
81742,129138,3
81495,128781,5
81167,128341,4
80852,127938,5
80657,127729,5
80566,127608,5
80415,127393,5
80189,127084,5
79983,126836,4
79887,126735,5
79876,126719,5
79860,126686,5
79785,126574,4
79650,126387,5
79522,126209,5
79340,125944,5
79009,125423,5
78355,124444,4
77423,123119,5
76517,121899,5
75666,120743,5
74894,119742,5
74340,118996,4
73883,118370,5
73486,117833,5
73057,117289,5
72765,116803,4
72366,116192,5
71863,115464,5
71234,114644,5
70818,114029,5
70487,113599,4
70225,113241,6
69968,112971,4
69778,112567,5
69269,111776,5
68608,110813,4
68000,109934,5
67338,109055,5
66553,107866,5
65563,106463,5
64612,105035,4
64347,103780,5
63479,102550,5
62654,101362,5
61895,100178,5
61207,99337,4
60671,98512,5
60007,97540,5
59472,97296,5
58958,96537,4
58334,95614,4
57639,94616,5
57046,93703,5
56337,92702,5
55726,91837,4
55059,90795,5
54198,89486,6
53339,88295,4
52501,87087,5
51813,86096,4
51167,85113,5
50537,84199,5
49972,83404,5
49495,82649,5
49050,81907,4
49387,81876,5
48997,81292,5
48664,80789,5
48467,80459,5
48231,80050,4
48067,79816,5
47968,79618,5
47803,79425,5
47701,79187,4
47590,79042,4
47515,78965,5
47456,78899,5
47403,78795,5
47368,78771,4
47471,78935,5
46712,77311,5
47058,78998,5
48184,79689,5
47518,78848,4
47279,78449,5
46966,78010,5
46678,77614,5
46505,77402,5
46323,77216,4
46194,77114,5
46152,77113,5
46147,77126,5
46056,76991,5
45933,76861,4
45788,76644,5
45587,76411,5
45421,76216,5
45228,75990,4
45056,75745,4
44945,75686,5
44943,75675,5
44874,75601,5
44715,75381,5
44581,75237,4
44510,75165,5
44482,75150,5
44468,75178,5
44531,75260,4
44590,75390,5
44713,75560,5
44789,75680,5
44872,75784,5
44924,75868,4
44952,75888,5
44949,75883,5
44938,75890,5
44979,75942,5
45007,75993,4
45030,76040,5
45008,76029,5
45021,76047,5
45059,76105,4
45067,76143,4
45116,76218,6
45183,76332,4
45267,76463,5
45357,76576,4
45375,76590,7
45412,76663,3
45555,76877,5
45800,77258,5
46138,77751,4
46501,78235,5
46810,78648,5
47057,78954,5
47158,79027,5
47126,78996,4
47142,79016,5
47160,79030,5
47127,78972,5
47074,78911,5
47043,78870,4
47025,78845,5
47041,78893,5
47090,78994,5
47131,79031,4
47214,79187,4
47327,79378,5
47451,79563,6
47515,79636,4
47477,79562,4
47411,79480,5
47331,79391,5
47314,79378,5
47346,79454,5
47414,79545,4
47433,79582,5
47459,79635,5
47541,79765,5
47627,79906,5
47740,80061,4
47826,80220,5
47903,80285,5
47916,80310,5
47929,80331,5
47869,80282,4
47843,80190,5
47838,80199,5
47899,80308,5
47981,80514,5
48175,80735,4
48355,81054,5
48579,81379,5
48804,81748,6
49043,82138,3
49330,82590,5
49673,83173,5
50059,83685,5
50211,83935,5
50290,84087,4
50370,84218,5
50511,84341,5
50530,84466,5
50600,84608,5
50612,84588,4
50550,84466,5
50422,84286,5
50306,84141,5
50156,83863,5
49813,83306,4
49466,82858,5
49181,82415,5
48856,81933,5
48590,81599,5
48494,81484,5
48355,81267,4
48169,81002,5
48008,80661,5
47706,80203,6
47238,79463,3
46755,78732,5
46264,77990,5
45975,77651,5
45858,77502,5
45719,77206,4
45470,76904,5
45290,76604,5
45143,76416,5
45039,76290,4
44953,76218,5
44912,76114,5
44846,75988,5
44723,75785,5
44573,75631,4
44466,75408,5
44287,75126,5
44131,74920,5
44029,74769,5
43895,74509,4
43693,74207,6
43566,74039,4
43491,73915,5
43393,73778,4
43285,73619,4
43153,73384,5
42942,73057,5
42717,72699,5
42543,72441,4
42404,72191,5
42222,71906,5
42092,71714,5
42002,71600,5
41901,71428,4
41799,71287,5
41688,71071,5
41511,70765,5
41345,70552,5
41299,70485,4
41301,70491,5
41317,70523,5
41269,70396,5
41125,70175,5
41038,70061,4
41023,70063,5
41083,70146,6
41136,70246,4
41283,70509,4
41514,70872,4
41810,71321,5
42002,71555,5
42038,71597,5
42087,71674,4
42179,71825,5
42273,71952,5
42375,72112,5
42515,72379,5
42787,72761,4
43018,73096,5
43215,73401,5
43419,73717,5
43610,73938,5
43579,73878,4
43595,73916,5
43731,74170,5
44032,74690,5
44583,75587,9
45272,76598,5
45865,77373,5
46135,77610,7
46061,77504,8
46601,78400,9
46601,78400,5
46986,78845,8
47359,79395,7
47716,79860,5
48096,80378,8
48386,80744,7
48622,81060,5
48552,80784,13
48491,80672,7
48414,80552,8
48349,80464,7
48274,80347,5
48199,80235,8
47761,79548,7
47761,79548,5
47754,79543,8
47718,79485,7
47645,79374,5
47557,79224,8
47453,79018,7
47374,78910,8
47374,78910,7
47352,78907,7
47369,78904,8
47387,78940,7
47388,79012,5
47958,79740,8
47958,79740,7
48147,80042,5
48395,80407,8
48652,80730,7
48914,81070,8
50191,82841,10
50191,82841,5
48080,79987,5
50018,82539,10
49869,82309,5
49634,81950,5
49388,81612,10
49185,81336,5
49070,81134,5
48125,79737,10
47884,79351,5
47539,78835,5
47288,78471,10
47093,78239,5
46925,77975,5
46690,77559,10
46271,76957,5
45723,76170,7
44183,74102,8
44183,74102,5
44102,73988,7
44029,73914,8
43952,73773,5
43766,73479,7
43554,73176,8
43339,72861,5
43216,72772,7
43216,72772,8
43230,72814,5
43241,72830,7
43297,72899,8
43313,72932,5
43319,72948,7
43281,72882,8
43281,72882,5
43373,73049,7
43516,73238,8
43668,73465,9
43789,73631,8
43789,73631,5
43848,73753,7
43984,73904,8
44053,74044,5
44151,74205,7
44247,74359,8
44256,74303,3
44208,74231,2
44067,74038,5
43985,73887,4
43927,73846,5
43815,73675,5
43679,73475,5
43544,73267,4
43404,73023,5
43226,72734,5
43048,72472,5
42869,72181,4
42723,71920,4
42490,71465,5
42104,70862,5
41665,70089,5
41163,69339,4
40864,68880,5
40594,68416,5
40364,68004,5
40114,67588,5
39934,67274,4
39785,66970,5
39634,66728,5
39506,66457,5
39368,66203,5
39272,66059,4
39229,65984,6
39216,65969,4
39208,65867,5
39127,65750,5
39075,65635,4
38977,65478,5
38903,66003,5
38802,65835,5
38699,65660,5
38599,65530,4
38521,65362,5
38381,65174,5
38282,65015,5
38206,64903,4
38135,64785,5
38026,64602,5
37926,64439,5
37811,64262,5
37692,64044,4
37506,63749,5
37300,63413,5
37090,63065,5
36865,62755,5
36677,62451,4
36482,62172,5
36299,61873,5
36102,61598,5
35942,61343,5
35774,61065,4
35550,60723,5
35356,60377,5
35092,60043,5
34925,59758,5
34735,59510,4
34627,59242,5
34398,58927,5
34286,58736,5
34131,58530,4
34078,58378,5
34031,58262,5
33976,58176,5
33939,58101,5
33885,57998,5
33798,57867,4
33723,57745,5
33726,57656,5
33626,57558,6
33597,57492,3
33549,57412,5
33545,57295,5
33431,57161,5
33337,56978,5
33226,56782,4
33130,56597,5
33017,56436,5
32942,56270,5
32830,56102,5
32740,55939,4
33421,55794,5
33352,55635,5
33235,55476,5
33158,55300,4
33066,55199,5
33004,55099,5
32969,55030,5
32948,54933,5
32896,54881,5
32866,54801,5
32823,54738,4
32800,54681,5
32769,54655,5
32773,54660,6
32776,54658,3
32768,54656,5
32754,54588,5
32720,54545,5
32701,54522,4
32706,54560,5
32719,54526,5
32732,54564,5
32740,54568,5
32725,54569,4
32717,54534,5
32683,54508,5
32677,54488,5
32660,54495,4
32647,54459,5
32643,54453,5
32642,54462,5
32672,54510,5
32711,54573,4
32754,54656,5
32827,54752,6
32894,54879,4
32986,55023,5
33082,55181,4
33221,55381,5
33367,55624,5
33539,55910,5
33737,56213,5
33931,56516,4
34157,56861,5
34387,57210,5
34605,57560,5
34859,57976,5
35141,58397,4
35424,58840,5
35745,59295,5
36008,59674,5
36269,60041,4
36538,60454,5
36847,60873,5
37113,61286,5
37390,61701,5
37685,62141,4
37968,62541,5
38218,62891,5
38429,63228,6
38664,63566,4
38884,63882,4
39073,64228,5
39339,64588,5
39572,64988,5
39818,65355,5
40040,65718,4
40236,66019,5
40363,66204,5
40459,66408,5
40605,66651,5
40813,66971,4
40973,67228,5
41125,67433,5
41258,67677,5
41488,68019,4
41699,68361,4
41918,68744,5
42142,69155,5
42457,69603,5
42697,69982,5
42949,70376,4
43221,70807,5
43430,71092,5
43554,71261,6
43666,71443,3
43808,71702,5
43977,71991,5
44127,72180,5
44213,72339,5
44315,72518,4
44393,72649,5
44497,72856,5
44670,73158,5
44881,73507,5
45178,73991,4
45527,74496,5
45813,74933,5
46118,75379,5
46396,75795,4
46726,76368,4
47204,77122,5
47750,77922,5
48282,78738,5
48861,79673,4
49541,80728,6
49396,81616,4
49906,82334,5
50210,82124,5
50470,82533,4
50627,82696,5
50620,82700,5
50612,82768,5
50656,82756,5
50589,82620,4
50408,82339,5
50188,82058,5
50083,81867,5
50034,81818,5
50021,81819,4
49996,81823,5
50035,81852,5
49973,81740,5
49819,81511,4
49623,81169,4
49323,80771,5
49005,80313,5
48712,79887,5
48486,79502,4
48233,79218,5
48085,79015,6
47939,78831,4
47817,78656,5
47651,78459,4
47525,78304,5
47430,78178,5
47317,78015,5
47180,77835,5
47037,77623,4
46865,77387,5
46698,77151,5
46552,76961,5
46306,76572,5
46030,76211,4
45770,75789,5
45512,75430,5
45239,75026,5
44956,74599,4
44681,74194,4
44419,73846,5
44217,73570,5
44083,73367,5
43950,73188,4
43855,73058,5
43765,72947,5
43716,72864,6
43680,72832,4
43670,72801,4
43682,72844,5
43742,72927,5
43762,72978,5
43790,73016,5
43824,73074,4
43892,73183,5
43980,73315,5
44055,73432,5
44150,73618,5
44341,73930,4
44531,74205,5
44662,74385,5
44824,74637,5
44988,74866,4
45071,74954,4
45078,74940,5
44979,74763,5
44808,74501,5
44648,74276,5
44517,74117,4
44463,74066,5
44420,74021,5
44382,73981,6
44271,73800,3
44119,73576,5
43896,73205,5
43564,72702,5
43197,72119,5
42689,71312,4
42152,70527,5
41679,69844,5
41281,69303,5
41007,68910,5
40793,68562,4
40566,68275,5
40384,68013,5
40245,67826,5
40169,67739,4
40139,67686,4
40080,67601,5
40006,67478,5
39905,67306,5
39813,67196,4
39780,67150,6
39761,67138,4
39787,67171,5
39801,67196,5
39831,67236,4
39888,67322,5
39971,67477,5
40098,67665,5
40248,67883,5
40427,68175,4
40675,68542,5
40955,68950,5
41220,69334,5
41468,69700,5
41724,70071,4
42003,70504,5
42329,70979,5
42691,71552,5
43149,72263,4
43711,73121,4
44307,73997,5
44836,74741,5
45212,75259,5
45558,75782,4
45942,76326,5
46246,76711,6
46479,77033,4
46736,77414,5
47014,77828,4
47321,78293,5
47646,78762,5
47944,79189,5
48288,79743,5
48783,80576,4
49466,81658,5
50340,82950,5
51446,84566,5
52390,85979,5
53228,87115,4
53755,87788,5
53945,87966,5
53868,87717,5
53108,86309,5
51683,84192,4
50490,82553,5
49709,81480,5
49224,80865,5
48980,80543,4
48779,80269,5
48631,80053,5
48486,79841,6
48366,79666,4
48220,79490,4
48105,79249,5
47903,78952,5
47719,78659,5
47543,78417,5
47451,78278,4
47407,78214,5
47441,78278,5
47531,78403,5
47633,78598,5
47845,78935,4
48120,79338,5
48369,79623,5
48487,79851,5
48657,80084,5
48833,80376,4
49076,80692,5
49233,80956,5
49423,81264,5
49690,81700,5
49982,82075,4
50042,82110,5
49963,81990,5
49857,81837,5
49775,81689,4
49696,81608,5
49662,81521,5
49560,81378,5
49484,81215,5
49403,81147,5
49337,81054,4
49216,80848,5
49038,80552,5
48793,80202,5
48489,79770,4
48226,79400,5
48021,79124,5
47861,78903,5
47745,78743,5
47647,78627,4
47580,78574,5
47542,78513,5
47508,78482,5
47513,78524,4
47552,78653,5
47623,78739,4
47716,78918,5
47810,79058,5
47834,79085,4
47803,79013,5
47762,78961,5
47706,78885,5
47623,78769,5
47533,78621,4
47373,78328,5
47036,77746,5
46479,76850,5
45918,75968,5
45325,75051,4
44760,74217,5
44327,73584,5
43981,73116,5
43659,72622,5
43378,72252,4
43150,71927,5
42928,71585,5
42685,71220,5
42420,70844,4
42157,70455,4
41941,70159,7
41788,69922,3
41621,69673,5
41457,69463,4
41317,69243,5
41160,69033,5
41016,68814,5
40887,68619,5
40771,68425,4
40612,68220,5
40482,68023,5
40342,67831,5
40252,67699,5
40157,67607,4
40103,67517,5
40054,67446,5
40004,67388,5
39956,67316,5
39921,67281,4
39911,67270,5
39896,67246,5
39853,67163,5
39768,67034,3
39669,66907,4
39592,66790,5
39532,66710,5
39482,66644,5
39437,66603,4
39437,66601,5
39442,66611,5
39435,66607,5
39445,66616,5
39444,66618,4
39451,66629,5
39432,66609,5
39405,66566,5
39367,66515,5
39322,66447,4
39276,66388,5
39246,66343,5
39214,66290,5
39187,66254,5
39147,66210,5
39116,66168,4
39071,66113,5
39040,66061,5
39006,66011,6
38957,65950,3
38930,65905,5
38895,65877,5
38873,65861,5
38879,65869,4
38877,65884,5
38883,65899,5
38888,65931,5
38894,65942,5
38884,65942,4
38880,65947,5
38879,65942,5
38853,65919,5
38826,65879,5
38791,65817,4
38744,65756,5
38705,65716,5
38662,65700,5
38666,65690,5
38654,65674,4
38639,65642,6
38593,65621,4
38616,65612,5
38624,65643,4
38639,65679,6
38672,65758,3
38707,65812,5
38737,65842,5
38739,65861,4
38790,65909,5
38820,65990,5
38877,66100,5
38936,66179,5
39001,66219,4
38956,66208,5
38947,66190,5
38946,66193,5
38972,66203,5
38958,66219,4
38957,66219,5
38959,66204,5
38926,66169,5
38895,66141,5
38877,66118,4
38883,66128,5
38892,66140,6
38909,66178,4
38908,66192,4
38921,66196,4
38914,66156,5
38892,66164,5
38884,66153,5
38887,66173,4
38896,66155,5
38899,66193,5
38895,66171,5
38872,66126,5
38829,66080,4
38788,66018,5
38782,66018,5
38786,66034,5
38793,66069,5
38789,66032,4
38776,66003,5
38740,65947,5
38704,65936,5
38688,65902,5
38682,65893,4
38682,65895,5
38680,65910,5
38668,65879,6
38650,65843,3
38641,65815,4
38600,65804,5
38593,65786,5
38590,65775,5
38580,65763,4
38557,65722,5
38521,65682,5
38496,65630,5
38459,65594,5
38430,65569,4
38412,65537,5
38401,65515,5
38371,66164,5
38362,66131,5
38326,66066,4
38273,65993,5
38232,65912,5
38200,65875,5
38168,65840,5
38148,65799,5
38123,65755,4
38074,65658,5
38009,65596,5
37988,65543,6
37953,65472,3
37898,65408,5
37862,65346,5
37799,65228,5
37711,65079,4
37621,64929,5
37527,64801,5
37489,64734,5
37435,64672,5
37385,64599,4
37331,64521,5
37278,64430,5
37203,64326,5
37157,64255,5
37111,64200,4
37082,64158,5
37077,64129,5
37052,64109,5
37022,64059,5
36984,63989,4
36946,63929,6
36930,63904,4
36897,63880,5
36879,63864,5
36878,63840,4
36851,63810,5
36831,63776,5
36819,63745,5
36807,63740,4
36814,63748,5
36824,63761,5
36821,63778,5
36822,63764,5
36813,63742,4
36818,63748,5
36812,63752,5
36819,63740,5
36796,63725,5
36791,63725,4
36786,63695,5
36759,63688,5
36751,63670,5
36747,63648,5
36694,63586,4
36670,63576,5
36659,63548,6
36611,63480,4
36560,63420,5
36532,63361,4
36478,63249,5
36358,63053,5
36210,62782,5
36077,62544,4
35918,62306,4
35795,62103,5
35683,61919,5
35590,61761,5
35505,61636,4
35420,61538,5
35376,61431,5
35341,61372,5
35307,61327,5
35279,61319,4
35298,61317,5
35314,61335,5
35317,61334,5
35296,61342,5
35321,61343,4
35296,61326,5
35290,61308,5
35274,61284,6
35247,61252,4
35231,61243,4
35223,61225,5
35237,61216,5
35193,61199,5
35190,61188,4
35193,61184,4
35225,61199,5
35201,61221,5
35214,61230,5
35219,61226,4
35236,61248,5
35244,61273,5
35279,61319,5
35308,61350,5
35306,61324,4
35290,61281,5
35243,61183,5
35152,61018,5
35034,60796,5
34906,60636,5
34782,60443,4
34645,60250,5
34545,60061,5
34454,59958,5
34371,59836,4
34300,59736,5
34249,59667,5
34229,59645,5
34227,59660,4
34241,59699,4
34274,59764,5
34296,59789,5
34331,59837,5
34371,59902,4
34408,60021,5
34486,60108,5
34575,60245,5
34630,60317,5
34650,60374,4
34689,60422,5
34715,60473,5
34757,60523,5
34794,60565,5
34813,60615,4
34847,60637,6
34851,60640,4
34853,60635,5
34841,60629,5
34828,60621,4
34820,60592,5
34813,60572,5
34791,60545,5
34768,60517,4
34734,60474,4
34720,60451,5
34707,60419,5
34699,60418,5
34716,60424,4
34713,60426,5
34719,60444,5
34716,60424,5
34707,60409,5
34705,60401,4
34705,60395,5
34696,60394,5
34708,60401,5
34721,60422,5
34734,60449,4
34753,60464,5
34783,60495,6
34811,60526,4
34842,60572,5
34873,60622,4
34918,60664,5
34950,60692,5
34966,60717,5
34977,60720,5
35005,60748,4
35035,60786,5
35089,60861,5
35161,60952,5
35242,61062,4
35319,61161,5
35387,61240,5
35454,61332,5
35535,61449,5
35623,61570,4
35699,61664,5
35742,61723,5
35782,61746,5
35787,61751,5
35781,61746,4
35779,61732,5
35787,61737,5
35784,61750,5
35775,61725,5
35769,61694,4
35750,61676,5
35749,61671,5
35744,61689,5
35765,61719,5
35787,61734,4
35779,61721,5
35762,61698,5
35737,61665,5
35729,61638,4
35708,61601,4
35687,61568,5
35659,61528,5
35647,61508,5
35613,61479,4
35598,61458,5
35581,61438,8
35569,61425,2
35560,61414,5
35554,61405,5
35535,61398,4
35559,61423,5
35588,61484,5
35638,61552,5
35685,61625,4
35708,61663,5
35741,61719,5
35784,61803,5
35873,61929,5
35967,62076,4
36074,62254,5
36172,62457,5
36346,62676,5
36485,62897,4
36635,63136,4
36786,63405,5
37003,63699,5
37162,63868,5
37189,63912,4
37212,63923,5
37229,63964,6
37322,64097,4
37432,64267,5
37558,64383,4
37562,64400,6
37561,64381,4
37552,64388,5
37618,64420,5
37616,64489,4
37664,64544,5
37688,64573,5
37745,64605,5
37710,64564,5
37659,64489,4
37630,64455,5
37634,64447,5
37619,64417,5
37614,64375,4
37581,64331,4
37542,64253,5
37529,64237,5
37523,64241,5
37536,64243,4
37486,64116,5
37385,63955,5
37273,63784,6
37171,63651,4
37124,63547,4
37091,63522,5
37048,63464,4
37010,63387,5
36970,63333,5
36916,63246,4
36874,63179,5
36836,63112,5
36803,63095,5
36769,63008,5
36722,62924,4
36661,62841,5
36600,62781,5
36538,62667,5
36514,62629,5
36494,62598,4
36471,62581,5
36445,62524,5
36403,62457,5
36357,62373,5
36298,62319,4
36274,62268,5
36257,62240,5
36248,62233,6
36229,62198,3
36180,62118,5
36134,62047,5
36094,61982,5
36068,61954,5
36069,61964,4
36077,61968,5
36087,61961,5
36061,61916,5
36029,61882,5
36020,61873,4
36026,61879,5
36048,61928,5
36075,61969,5
36102,62002,5
36117,61999,4
36091,61978,5
36084,61978,5
36086,61989,5
36094,62012,4
36105,61999,5
36100,61973,4
36076,61938,5
36032,61869,5
36007,61834,6
35998,61823,3
35984,61777,5
35957,61743,5
35909,61662,5
35847,61561,4
35786,61469,5
35752,61418,5
35744,61413,5
35732,61392,5
35734,61382,4
35704,61335,5
35643,61256,5
35604,61180,5
35575,61142,5
35559,61138,4
35577,61163,5
35575,61173,5
35554,61126,5
35490,61003,4
35410,60903,4
35332,60780,6
35268,60691,4
35181,60542,5
35085,60369,4
34956,60176,5
34832,60003,5
34734,59857,5
34650,59741,5
34587,59642,4
34526,59556,5
34493,59485,5
34443,59408,5
34389,59316,5
34353,59265,4
34340,59246,5
34349,59267,5
34366,59281,5
34362,59209,5
34311,59136,4
34260,59067,5
34214,58983,5
34178,58939,5
34168,58918,5
34139,58881,4
34116,58854,5
34076,58799,6
34057,58776,4
34040,58751,4
34027,58749,5
34021,58747,5
34028,58749,5
34031,58751,5
33998,58750,4
34028,58759,5
34038,58760,5
34056,58818,5
34052,58865,5
34134,58933,4
34163,58981,5
34166,58975,5
34124,58957,5
34138,58954,5
34141,58939,4
34129,58930,5
34129,58919,5
34111,58909,5
34109,58908,5
34109,58845,4
34111,58835,5
34070,58838,5
34075,58843,6
34084,58842,3
34123,58844,5
34065,58820,5
34063,58813,5
34067,58827,5
34100,58877,4
34116,58939,5
34159,58996,5
34169,59026,5
34184,59028,5
34203,59059,4
34212,59076,5
34226,59097,5
34237,59091,5
34246,59140,5
34246,59127,4
34238,59100,5
34226,59050,5
34216,59073,5
34213,59057,5
34203,59044,5
34196,59040,4
34197,59041,5
34184,59021,5
34164,58987,4
34159,59006,5
34151,58961,5
34152,58957,5
34141,58956,5
34154,59014,4
34153,58969,5
34130,58917,5
34117,58912,5
34116,58943,5
34134,58917,4
34150,58970,5
34174,59013,5
34201,59008,5
34177,58996,5
34158,58955,4
34139,58925,5
34126,58907,5
34111,58911,5
34114,58914,5
34113,58916,4
34119,58917,6
34106,58893,4
34097,58892,5
34086,58870,4
34073,58866,4
34080,58862,5
34089,58885,5
34091,58886,5
34079,58868,4
34070,58840,5
34056,58828,5
34053,58817,5
34066,58843,5
34091,58897,4
34130,58952,5
34158,58994,5
34178,59021,5
34207,59071,5
34242,59138,4
34293,59215,5
34322,59267,5
34348,59315,5
34369,59336,5
34383,59348,4
34374,59358,5
34386,59359,7
34408,59416,3
34455,59495,4
34514,59593,4
34599,59715,5
34647,59788,5
34672,59801,5
34659,59780,4
34663,59778,5
34677,59808,5
34706,59856,5
34749,59904,5
34777,59930,4
34781,59935,5
34775,59934,5
34772,59940,5
34776,59935,5
34799,59968,4
34821,60021,5
34853,60071,5
34878,60099,5
34885,60092,5
34876,60078,4
34883,60090,5
34888,60122,5
34923,60178,6
34965,60234,4
34996,60286,4
35009,60312,5
35031,60351,5
35044,60367,5
35061,60382,4
35100,60447,5
35159,60547,5
35233,60675,5
35317,60803,5
35376,60909,4
35412,60955,5
35429,60985,5
35462,61031,5
35513,61128,5
35577,61246,4
35647,61347,5
35693,61406,5
35717,61436,5
35735,61464,5
35746,61489,5
35773,61536,4
35825,61609,5
35876,61708,5
35942,61819,5
36012,61908,4
36041,62018,5
36106,62070,5
36140,62118,5
36169,62170,4
36142,62190,4
36185,62188,5
36159,62156,5
36155,62124,5
36095,62072,4
36094,62023,5
36075,62005,5
36066,62008,5
36099,62000,5
36036,61959,4
35999,61873,5
35934,61779,5
35934,61700,5
35821,61611,5
35764,61524,4
35701,61432,6
35663,61316,4
35547,61197,5
35456,61055,5
35378,60915,4
35282,60758,5
35165,60604,5
35046,60431,5
34947,60254,4
34824,60058,4
34692,59888,5
34600,59710,5
34493,59551,5
34380,59342,4
34267,59208,5
34164,59040,5
34066,58891,5
33971,58702,5
33871,58587,5
33775,58430,4
33648,58226,5
33508,58007,5
33377,57790,5
33250,57588,4
33136,57413,5
33026,57288,6
32909,57064,4
32772,56842,5
32651,56652,4
33304,56518,5
33218,56322,5
33138,56181,5
33056,56055,5
32983,55940,4
32898,55800,5
32834,55673,5
32766,55562,5
32701,55471,4
32670,55409,5
32637,55354,5
32603,55303,5
32575,55254,5
32549,55199,4
32510,55122,5
32463,55047,5
32428,54989,5
32392,54930,5
32365,54846,4
32255,54651,5
32213,54605,5
32191,54549,5
32155,54507,5
32140,54484,4
32106,54428,5
32094,54414,5
32091,54390,5
32089,54388,5
32070,54375,4
32069,54366,5
32068,54366,5
32061,54363,5
32067,54370,4
32072,54368,5
32072,54364,5
32069,54357,5
32062,54352,5
32057,54346,4
32069,54363,5
32087,54386,5
32100,54396,5
32084,54399,5
32095,54414,5
32100,54418,4
32101,54426,5
32124,54445,5
32125,54465,5
32133,54482,4
32145,54497,5
32158,54494,5
32149,54495,5
32142,54489,5
32141,54487,4
32149,54501,5
32148,54508,5
32153,54507,5
32157,54503,4
32148,54509,4
32159,54521,5
32162,54534,5
32169,54546,5
32166,54540,4
32176,54536,5
32162,54522,6
32161,54519,4
32156,54510,5
32153,54504,4
32150,54506,7
32153,54512,3
32173,54536,5
32175,54544,5
32190,54564,4
32181,54575,5
32200,54576,5
32194,54588,5
32204,54606,5
32220,54620,4
32227,54637,5
32230,54640,5
32234,54651,5
32243,54672,4
32255,54687,4
32271,54717,5
32280,54730,5
32289,54735,5
32283,54748,4
32283,54735,5
32294,54749,5
32296,54758,6
32280,54759,4
32308,54772,4
32309,54779,5
32317,54778,5
32265,54771,5
32297,54753,5
32289,54748,4
32290,54750,5
32238,54746,5
32277,54723,5
32277,54706,5
32249,54674,4
32232,54639,5
32223,54624,5
32222,54614,5
32208,54616,5
32263,54625,4
32230,54630,5
32235,54634,5
32234,54627,5
32286,54628,5
32239,54638,4
32248,54643,5
32269,54675,5
32305,54720,6
32294,54728,3
32311,54753,5
32319,54764,5
32336,54781,5
32340,54778,5
32342,54790,4
32354,54794,5
32341,54779,5
32350,54809,5
32346,54809,5
32352,54822,4
32353,54778,5
32360,54819,5
32356,54821,5
32368,54842,5
32371,54822,4
32382,54868,5
32385,54872,5
32390,54874,5
32394,54904,4
32384,54890,6
32392,54897,4
32408,54914,5
32411,54987,5
32423,54945,6
32435,54950,3
32440,54973,5
32441,55033,5
32458,55008,5
32484,55037,4
32487,55058,5
32511,55103,5
32525,55103,5
32531,55134,5
32548,55146,4
32569,55157,5
32574,55185,5
32595,55218,5
32613,55252,5
32621,55272,4
32627,55282,5
32620,55284,5
32621,55277,5
32619,55282,4
32626,55285,4
32630,55302,6
32641,55319,4
32647,55312,5
32647,55318,4
32641,55313,5
32626,55297,5
32619,55276,5
32615,55261,5
32598,55247,4
32594,55237,5
32578,55217,5
32576,55183,5
32554,55172,5
32546,55175,4
32556,55168,5
32558,55166,5
32559,55186,5
32569,55188,5
32571,55202,4
32572,55208,5
32571,55211,5
32568,55196,5
32567,55190,4
32569,55185,4
32563,55180,5
32557,55181,6
32556,55172,4
32549,55167,4
32541,55160,5
32530,55140,5
32533,55125,5
32521,55122,5
32518,55116,4
32523,55121,5
32526,55118,5
32511,55118,5
32509,55117,5
32502,55106,4
32494,55092,5
32499,55090,5
32493,55091,5
32502,55085,5
32487,55074,4
32487,55064,5
32479,55053,5
32472,55044,5
32465,55028,5
32455,55031,4
32464,55015,5
32448,55012,5
32448,55005,6
32442,54976,3
32423,54963,5
32413,54932,5
32408,54923,5
32395,54902,5
32370,54898,4
32358,54872,5
32343,54840,5
32320,54809,5
32306,54778,5
32301,54761,4
32286,54739,5
32276,54735,5
32258,54704,5
32243,54669,5
32211,54629,4
32176,54578,5
32168,54535,5
32133,54471,5
32084,54402,5
32012,54356,5
32017,54296,4
31978,54231,5
31944,54174,5
31869,54131,4
31889,54096,5
31866,54053,5
31844,54013,5
31796,53965,5
31786,53927,4
31773,53892,5
31756,53885,5
31791,53884,5
31760,53870,5
31759,53868,4
31749,53869,5
31807,53861,5
31741,53848,5
31734,53836,5
31733,53838,4
31769,53841,5
31730,53821,5
31711,53804,5
31698,53770,5
31678,53740,4
31656,53714,6
31641,53687,4
31637,53684,5
31626,53643,4
31618,53647,5
31608,53636,5
31587,53603,5
31580,53541,5
31563,53571,5
31562,53559,4
31548,53546,5
31533,53485,5
31527,53514,5
31525,53515,4
31526,53506,5
31523,53519,5
31513,53505,5
31516,53501,5
31502,53479,4
31500,53523,5
31492,53454,5
31487,53448,5
31462,53433,5
31470,53489,4
31473,53443,5
31470,53448,6
31466,53431,4
31459,53435,4
31456,53413,5
31447,53405,5
31453,53400,5
31450,53398,5
31444,53394,4
31431,53381,5
31430,53359,5
31417,53341,5
31412,53330,5
31386,53301,4
31386,53291,5
31366,53270,5
31352,53230,5
31330,53200,5
31321,53176,4
31303,53143,5
31294,53140,5
31292,53134,5
31294,53123,5
31281,53114,4
31272,53105,5
31255,53072,5
31239,53040,5
31223,53013,4
31201,52992,5
31180,52937,5
31149,52883,5
31124,52847,5
31095,52800,4
31069,52774,5
31056,52735,5
31039,52720,5
31028,52698,5
31024,52668,4
31003,52661,5
30995,52636,5
30990,52625,5
30970,52597,5
30967,52584,4
30962,52579,5
30958,52582,5
30966,52590,5
30965,52594,5
30975,52586,5
30977,52594,4
30981,52595,5
30986,52611,5
30981,52605,4
30989,52604,4
30985,52617,5
30996,52626,5
30999,52633,5
30994,52636,4
31001,52640,5
31006,52652,5
31017,52655,5
31013,52657,5
31005,52649,4
30998,52646,5
31005,52644,5
31003,52644,5
31005,52660,5
31009,52671,4
31017,52665,5
31001,52654,5
30997,52634,5
31001,52615,5
30976,52613,4
30980,52587,6
30957,52568,4
30956,52565,5
30940,52545,4
30932,52519,4
30924,52508,5
30918,52500,5
30905,52485,5
30918,52502,4
30911,52489,5
30903,52487,5
30904,52481,5
30910,52482,5
30908,52476,4
30898,52479,5
30905,52477,5
30876,52468,5
30900,52463,5
30879,52443,4
30877,52430,5
30833,52415,5
30856,52397,5
30853,52372,5
30835,52352,4
30783,52328,5
30805,52292,5
30788,52255,5
30763,52229,5
30776,52195,4
30742,52187,5
30719,52146,5
30685,52094,5
30722,52056,4
30632,52000,5
30608,51959,5
30595,51927,5
30616,51891,5
30558,51864,4
30537,51822,5
30516,51797,5
30509,51762,5
30471,51729,5
30476,51711,4
30456,51696,5
30456,51673,5
30449,51696,5
30451,51684,5
30447,51681,3
30451,51632,5
30444,51663,5
30442,51653,5
30432,51637,5
30422,51562,4
30414,51600,5
30408,51570,5
30391,51568,5
30393,51556,4
30393,51548,5
30393,51560,5
30400,51572,5
30404,51617,5
30406,51567,4
30404,51580,5
30412,51595,5
30426,51674,5
30441,51641,5
30456,51655,4
30469,51676,6
30484,51736,4
30492,51727,5
30501,51739,5
30521,51768,6
30540,51786,3
30560,51816,5
30566,51834,5
30589,51877,5
30610,51897,4
30624,51911,5
30643,51938,5
30650,51975,5
30672,51998,4
30696,52022,5
30711,52066,5
30733,52096,5
30749,52114,5
30764,52134,4
30776,52166,5
30784,52169,5
30801,52198,5
30821,52214,5
30824,52242,4
30837,52258,5
30841,52259,6
30848,52266,4
30853,52270,5
30861,52283,4
30865,52291,5
30871,52310,5
30876,52316,5
30880,52323,5
30887,52339,4
30905,52345,5
30911,52354,5
30910,52366,5
30912,52382,4
30927,52400,4
30935,52401,5
30929,52398,5
30929,52412,5
30925,52413,4
30939,52421,5
30942,52418,5
30945,52432,5
30960,52450,5
30966,52460,4
30969,52480,5
30966,52472,5
30978,52468,6
30975,52492,4
30995,52489,4
30995,52500,5
30995,52514,5
31002,52520,5
31005,52529,5
31006,52533,4
31014,52541,5
31019,52550,5
31023,52557,5
31042,52569,4
31034,52572,4
31036,52568,5
31035,52582,5
31037,52579,5
31039,52595,4
31048,52605,5
31055,52604,5
31059,52615,5
31060,52627,5
31058,52634,5
31063,52639,4
31066,52633,5
31080,52647,5
31074,52648,6
31084,52658,6
31089,52662,2
31083,52669,5
31094,52667,5
31083,52676,5
31104,52682,4
31099,52684,5
31105,52704,5
31115,52705,5
31114,52722,4
31100,52724,4
31135,52740,5
31142,52746,5
31148,52761,5
31108,52767,4
31156,52782,5
31167,52789,5
31172,52802,5
31138,52818,5
31187,52839,4
31200,52851,6
31207,52864,4
31228,52886,5
31231,52906,5
31248,52930,4
31255,52946,5
31309,52956,5
31276,52983,5
31290,52988,5
31287,52983,4
31341,52996,5
31308,53002,5
31304,53032,5
31318,53032,5
31348,53036,4
31323,53041,5
31327,53041,5
31328,53038,5
31332,53049,4
31339,53050,5
31338,53068,5
31337,53070,5
31344,53017,5
31339,53051,4
31334,53043,5
31326,53033,6
31332,52973,4
31323,53038,5
31332,53035,4
31333,53043,5
31331,53007,5
31326,53032,5
31330,53032,5
31329,53038,4
31330,53061,5
31324,53040,5
31327,53036,5
31337,53042,5
31333,53101,4
31334,53038,5
31328,53037,5
31337,53041,5
31332,53082,4
31328,53030,5
31327,53023,5
31319,53018,5
31311,53016,5
31305,52992,4
31307,53006,5
31312,52997,5
31312,52996,6
31306,52991,4
31305,52996,4
31294,52978,5
31299,52971,5
31296,52983,5
31302,52985,5
31303,52982,4
31303,52968,5
31302,52979,5
31294,52968,5
31287,52971,5
31289,52970,4
31284,52981,5
31291,52978,5
31294,52975,5
31290,52973,4
31288,52973,4
31284,52950,5
31280,52963,5
31278,52965,5
31297,52972,5
31295,52967,4
31297,52978,5
31295,52975,5
31295,52981,5
31299,52993,4
31309,52999,5
31312,53019,5
31317,53029,5
31322,53020,5
31320,53040,4
31318,53019,5
31321,53011,5
31325,53033,5
31339,53042,5
31338,53051,4
31345,53046,5
31335,53041,5
31318,53034,5
31330,53039,4
31322,53039,4
31336,53034,5
31343,53049,5
31336,53064,5
31351,53069,4
31356,53061,6
31345,53061,4
31343,53070,5
31351,53070,5
31351,53066,4
31353,53071,5
31343,53060,5
31340,53054,5
31335,53052,5
31338,53054,4
31333,53046,5
31333,53054,5
31334,53052,5
31324,53042,5
31333,53044,4
31333,53037,5
31322,53035,5
31322,53027,5
31323,53041,4
31335,53047,4
31317,53036,5
31317,53043,5
31322,53038,5
31321,53034,4
31323,53036,5
31333,53047,6
31337,53064,4
31331,53052,5
31331,53060,4
31332,53061,5
31334,53049,5
31320,53058,5
31333,53065,5
31335,53067,4
31334,53069,5
31295,53063,5
31336,53064,5
31326,53057,5
31320,53061,4
31278,53064,5
31334,53067,5
31334,53071,5
31324,53068,4
31318,53068,4
31330,53063,5
31324,53065,5
31329,53060,5
31362,53077,4
31334,53072,5
31336,53071,5
31325,53060,6
31371,53052,4
31305,53038,4
31308,53028,5
31297,53018,5
31335,53019,5
31287,53020,5
31293,53008,4
31270,52992,5
31274,52959,5
31251,52959,5
31243,52944,5
31239,52942,4
31233,52904,5
31226,52934,5
31235,52930,5
31226,52920,5
31207,52850,4
31204,52885,5
31197,52871,5
31192,52865,5
31173,52791,5
31163,52816,5
31144,52787,4
31122,52768,5
31113,52757,5
31102,52723,4
31077,52712,5
31070,52675,5
31051,52699,5
31025,52621,5
31024,52606,4
31013,52599,5
31016,52674,5
31022,52624,5
31017,52628,5
31027,52616,4
31007,52628,5
31002,52589,5
30985,52581,5
30982,52573,5
30979,52572,4
30983,52576,5
30978,52557,5
30966,52528,5
30945,52514,4
30933,52485,7
30919,52470,3
30908,52472,5
30925,52478,5
30915,52480,4
30916,52473,5
30907,52465,5
30902,52463,5
30909,52476,5
30919,52479,4
30919,52502,5
30917,52488,5
30916,52483,5
30911,52481,5
30908,52477,4
30912,52480,5
30907,52467,5
30903,52475,5
30897,52459,5
30899,52469,4
30916,52481,5
30909,52502,5
30928,52517,5
30930,52516,4
30935,52523,4
30941,52531,6
30946,52562,4
30950,52573,5
30973,52577,4
30970,52583,5
30969,52603,5
30968,52592,5
30976,52614,5
30991,52625,4
30994,52638,5
31005,52648,5
31005,52663,5
31008,52661,5
31019,52676,4
31018,52688,5
31029,52730,5
31063,52754,5
31072,52777,5
31080,52785,4
31087,52811,5
31094,52827,5
31117,52854,5
31136,52888,3
31141,52904,4
31144,52907,5
31155,52912,5
31163,52948,5
31203,52980,4
31226,53033,5
31248,53084,5
31271,53100,5
31269,53123,5
31277,53141,4
31302,53165,5
31326,53215,5
31343,53246,5
31357,53271,5
31369,53286,4
31378,53303,5
31388,53325,5
31411,53381,5
31450,53434,5
31483,53486,5
31508,53523,4
31523,53547,5
31533,53560,5
31546,53582,6
31550,53607,3
31566,53599,5
31565,53604,5
31561,53620,5
31542,53620,4
31582,53652,5
31612,53702,5
31638,53752,5
31618,53777,5
31684,53811,4
31700,53852,5
31724,53890,5
31698,53918,5
31758,53958,5
31774,53960,4
31767,53969,5
31808,54016,5
31818,54054,5
31847,54103,5
31865,54132,4
31927,54147,6
31881,54144,4
31891,54155,5
31900,54193,5
31975,54243,6
31954,54288,3
31984,54335,5
32006,54365,5
32040,54383,4
32036,54417,5
32058,54456,5
32093,54490,5
32111,54517,5
32111,54552,4
32133,54565,5
32134,54563,5
32142,54536,5
32137,54578,5
32143,54585,4
32148,54603,5
32164,54585,5
32196,54680,5
32220,54723,5
32248,54750,4
32241,54752,5
32268,54800,6
32282,54814,4
32288,54827,5
32291,54855,4
32297,54835,5
32308,54864,5
32322,54882,5
32333,54956,4
32343,54907,5
32346,54914,5
32344,54924,5
32338,54934,5
32347,54919,4
32351,54932,5
32368,54963,5
32379,54992,5
32397,54996,5
32398,55007,4
32411,55038,5
32427,55064,5
32442,55085,5
32468,55124,5
32482,55150,4
32515,55185,5
32517,55201,5
32515,55202,6
32514,55206,4
32530,55212,4
32542,55244,5
32561,55275,5
32574,55300,5
32602,55347,4
32611,55368,4
32613,55375,5
32622,55380,5
32625,55384,5
32641,55410,4
32651,55425,5
32666,55448,5
32671,55450,5
32673,55466,5
32677,55466,4
32686,55486,5
32692,55489,5
32705,55509,5
32716,55537,5
32736,55577,5
32753,55600,4
32766,55626,5
32774,55636,5
32788,55658,6
32800,55682,3
32810,55707,5
32826,55747,5
32862,55812,5
32896,55864,4
32926,55895,4
32939,55914,5
32939,55926,5
32937,55914,5
32941,55920,4
32937,55934,5
32961,55965,5
32972,55970,5
32983,55988,5
32979,55993,4
32984,56000,5
32989,56007,5
32990,56006,5
32995,56024,5
33008,56035,4
33010,56041,6
33012,56038,4
33003,56021,5
33008,56049,5
33011,56045,4
33009,56047,5
33012,56037,5
33006,56054,5
33015,56051,5
33015,56042,4
33003,56043,5
33000,56047,5
33004,56035,5
33012,56063,4
33029,56081,5
33042,56112,5
33055,56134,5
33071,56152,5
33084,56175,5
33097,56186,4
33102,56199,5
33131,56231,5
33157,56274,5
33162,56300,4
33179,56316,5
33165,56323,6
33183,56325,4
33194,56332,5
33210,56344,4
33176,56369,5
33236,56391,5
33250,56422,5
33269,56444,5
33228,56456,4
33272,56462,5
33291,56469,5
33302,56500,5
33310,56519,4
33329,56540,4
33341,56561,5
33345,56578,5
33395,56589,5
33365,56599,4
33392,56644,5
33418,56686,5
33502,56742,5
33465,56776,5
33486,56800,4
33496,56806,5
33525,56812,5
33492,56822,6
33515,56837,4
33514,56851,4
33519,56843,5
33512,56847,5
33509,56836,5
33493,56808,5
33482,56764,4
33478,56798,5
33478,56798,5
33482,56801,5
33476,56746,4
33475,56781,4
33464,56764,5
33465,56769,5
33465,56730,5
33467,56788,5
33473,56793,4
33485,56793,5
33480,56813,5
33482,56783,5
33466,56776,5
33475,56779,4
33485,56844,5
33481,56805,5
33489,56801,5
33488,56792,4
33468,56817,5
33462,56783,5
33473,56777,5
33469,56768,5
33465,56777,4
33439,56738,5
33437,56721,5
33420,56702,5
33403,56680,4
33404,56671,4
33401,56683,5
33412,56684,5
33408,56688,5
33401,56692,4
33403,56681,5
33401,56667,5
33390,56652,5
33389,56664,5
33399,56677,4
33395,56658,6
33384,56648,4
33374,56632,5
33350,56603,5
33340,56590,4
33337,56589,5
33349,56602,5
33345,56595,5
33343,56606,5
33340,56597,4
33335,56578,5
33330,56580,5
33339,56578,5
33336,56584,5
33341,56574,4
33330,56572,5
33318,56555,5
33308,56534,5
33299,56528,4
33304,56543,5
33320,56557,5
33319,56579,5
33326,56577,5
33334,56586,4
33334,56590,5
33339,56580,6
33335,56600,4
33350,56609,5
33354,56624,4
33361,56628,5
33365,56640,5
33347,56627,5
33351,56615,5
33348,56623,4
33371,56635,5
33373,56644,5
33374,56660,5
33377,56665,5
33372,56655,4
33369,56652,5
33360,56644,5
33362,56651,5
33383,56664,4
33382,56681,4
33373,56694,5
33388,56687,5
33386,56692,5
33377,56690,4
33388,56707,5
33407,56722,5
33413,56743,5
33419,56757,5
33428,56767,4
33421,56754,5
33424,56759,5
33424,56760,5
33440,56776,5
33444,56800,4
33467,56819,5
33467,56824,5
33463,56822,5
33476,56824,5
33465,56812,4
33478,56828,5
33482,56836,5
33484,56843,5
33477,56822,4
33465,56810,5
33447,56767,4
33440,56764,5
33417,56770,5
33430,56766,5
33432,56766,4
33432,56758,5
33380,56750,5
33414,56729,5
33411,56722,4
33404,56714,5
33372,56716,5
33411,56734,5
33414,56740,5
33403,56736,4
33422,56720,5
33400,56700,5
33391,56708,5
33393,56710,5
33441,56713,4
33392,56713,5
33385,56705,5
33375,56689,5
33405,56676,5
33361,56660,4
33352,56661,5
33356,56670,5
33373,56666,5
33352,56655,4
33338,56642,6
33325,56622,4
33323,56599,5
33317,56620,5
33320,56631,4
33331,56651,5
33331,56621,5
33336,56666,5
33346,56667,5
33343,56670,4
33338,56631,5
33351,56700,5
33350,56697,5
33360,56704,5
33352,56691,4
33351,56698,5
33351,56690,5
33356,56701,5
33359,56759,5
33373,56743,4
33376,56764,5
33395,56767,5
33395,56834,4
33399,56780,4
33399,56783,4
33397,56788,5
33402,56814,5
33399,56785,5
33403,56787,4
33398,56782,5
33392,56791,5
33390,56770,5
33388,56766,5
33378,56772,4
33384,56773,5
33392,56775,5
33400,56784,5
33386,56783,5
33392,56782,4
33388,56775,5
33387,56770,5
33387,56780,5
33392,56782,5
33390,56779,4
33386,56778,5
33391,56780,5
33392,56789,6
33400,56795,3
33398,56785,4
33394,56795,5
33404,56794,5
33410,56808,5
33404,56791,4
33381,56764,5
33364,56733,5
33350,56705,5
33342,56697,5
33335,56689,4
33325,56674,5
33319,56659,5
33309,56647,5
33290,56624,5
33299,56627,4
33292,56616,5
33292,56625,5
33288,56632,5
33295,56633,5
33297,56625,5
33297,56624,4
33295,56628,5
33299,56632,5
33295,56642,6
33300,56645,3
33301,56656,5
33310,56666,5
33311,56674,5
33313,56679,4
33311,56677,5
33330,56665,5
33330,56693,5
33345,56709,5
33348,56721,4
33350,56721,5
33350,56729,5
33343,56722,5
33354,56720,5
33350,56725,4
33360,56733,5
33357,56731,5
33356,56727,5
33352,56722,5
33347,56728,4
33358,56726,6
33351,56727,4
33368,56750,5
33374,56760,5
33370,56764,6
33376,56774,3
33377,56766,5
33379,56766,5
33385,56778,4
33381,56782,5
33391,56803,5
33400,56802,5
33405,56808,5
33406,56810,4
33399,56811,5
33411,56816,5
33413,56822,5
33421,56852,5
33434,56865,4
33434,56869,5
33435,56870,5
33443,56864,5
33442,56868,5
33403,56867,4
33441,56869,5
33446,56868,6
33450,56893,4
33406,56893,5
33459,56904,4
33460,56911,5
33474,56915,5
33461,56920,5
33485,56950,4
33504,56962,4
33511,56996,5
33566,56997,5
33519,57002,5
33529,56991,4
33520,56995,5
33591,57024,5
33535,57035,5
33537,57018,5
33534,57002,4
33554,56994,5
33521,56989,5
33517,56988,5
33521,56984,5
33531,57004,4
33534,57014,5
33538,57021,5
33552,57028,6
33549,57022,4
33558,57053,4
33582,57074,5
33587,57096,5
33612,57089,5
33619,57159,5
33631,57168,4
33631,57177,5
33651,57146,5
33668,57220,5
33669,57231,4
33692,57270,5
33712,57309,5
33724,57312,5
33733,57321,5
33733,57328,4
33740,57404,5
33760,57378,5
33790,57418,5
33803,57444,5
33806,57504,5
33812,57441,4
33806,57445,5
33803,57450,5
33811,57492,6
33828,57485,3
33845,57518,5
33849,57538,5
33859,57549,5
33868,57555,5
33875,57560,4
33889,57579,5
33912,57601,5
33930,57634,5
33959,57675,4
33960,57686,5
33961,57676,5
33961,57680,5
33966,57693,5
33966,57695,4
33979,57724,5
34005,57756,5
34028,57790,5
34038,57804,5
34053,57817,4
34051,57835,6
34065,57845,4
34083,57869,5
34098,57900,5
34123,57929,4
34132,57957,5
34142,57969,5
34160,57998,5
34185,58007,5
34194,58040,4
34211,58063,5
34237,58112,5
34258,58145,5
34265,58157,4
34272,58157,4
34268,58172,5
34289,58196,5
34305,58213,5
34318,58242,4
34345,58277,5
34359,58299,5
34371,58315,5
34362,58318,5
34375,58310,4
34371,58322,5
34382,58328,6
34388,58353,4
34415,58375,5
34410,58378,4
34412,58386,5
34417,58388,5
34426,58406,5
34451,58442,5
34473,58493,4
34500,58525,5
34524,58550,5
34525,58550,5
34542,58579,4
34557,58608,4
34574,58635,5
34608,58688,5
34651,58750,5
34686,58795,4
34689,58818,5
34704,58842,5
34719,58861,5
34737,58890,5
34768,58930,4
34796,58982,5
34824,59010,5
34837,59036,6
34845,59042,4
34849,59046,4
34856,59064,5
34849,59062,5
34866,59074,8
34873,59091,2
34876,59094,4
34883,59102,5
34890,59128,5
34896,59122,5
34895,59135,4
34915,59147,4
34929,59171,5
34919,59191,5
34954,59208,5
34973,59234,4
34981,59245,5
34945,59269,5
35003,59267,5
35007,59284,5
35025,59318,5
35013,59359,4
35087,59393,5
35109,59412,5
35113,59438,5
35137,59440,4
35137,59436,5
35150,59455,5
35163,59489,5
35232,59512,5
35194,59532,4
35205,59528,5
35182,59506,5
35229,59487,5
35166,59475,5
35188,59482,4
35189,59496,5
35207,59500,5
35184,59487,5
35175,59460,4
35151,59435,4
35131,59381,5
35137,59395,5
35147,59421,5
35150,59444,4
35165,59413,6
35165,59441,4
35153,59432,5
35142,59415,5
35138,59366,4
35142,59412,5
35152,59410,5
35145,59407,5
35144,59373,5
35128,59385,4
35115,59371,5
35125,59384,5
35130,59426,5
35153,59404,5
35134,59392,4
35138,59388,5
35134,59430,5
35124,59364,5
35132,59378,4
35146,59408,4
35172,59487,5
35192,59477,6
35197,59493,4
35208,59505,4
35211,59506,5
35202,59484,7
35196,59483,3
35207,59505,5
35215,59518,4
35233,59539,5
35220,59533,5
35205,59506,5
35193,59481,5
35202,59492,4
35212,59514,5
35221,59528,5
35231,59554,5
35241,59557,5
35224,59533,4
35209,59511,5
35192,59495,5
35198,59507,5
35214,59528,4
35230,59533,4
35221,59521,5
35201,59511,5
35181,59471,5
35163,59440,4
35162,59443,5
35169,59461,5
35174,59461,5
35164,59475,5
35178,59475,4
35175,59466,5
35170,59448,5
35182,59467,5
35194,59505,5
35207,59535,4
35236,59548,5
35229,59551,5
35212,59539,5
35200,59513,5
35188,59498,4
35179,59498,5
35191,59514,5
35209,59534,5
35212,59553,5
35221,59564,4
35212,59535,5
35197,59529,5
35196,59544,5
35199,59537,5
35218,59556,4
35232,59590,5
35252,59620,5
35250,59619,5
35251,59605,4
35242,59602,5
35252,59615,5
35250,59628,5
35259,59633,5
35259,59622,4
35238,59599,5
35223,59570,5
35215,59562,5
35218,59569,5
35234,59570,4
35225,59557,5
35209,59543,5
35192,59509,5
35156,59457,5
35124,59414,4
35090,59380,6
35083,59362,4
35074,59353,5
35069,59371,4
35074,59362,6
35068,59360,3
35051,59333,5
35028,59292,5
35014,59274,4
34990,59251,5
34984,59253,5
34989,59248,5
34989,59265,5
34977,59250,4
34950,59198,5
34935,59172,5
34914,59139,5
34863,59136,5
34894,59125,4
34900,59146,5
34894,59130,5
34852,59137,5
34913,59167,5
34935,59206,4
34964,59235,5
34939,59243,6
34966,59236,4
34948,59225,4
34929,59198,4
34958,59201,5
34934,59207,5
34942,59221,5
34954,59241,4
35008,59246,5
34964,59257,5
34962,59254,5
34967,59264,5
35018,59303,4
35018,59351,5
35063,59422,5
35097,59486,5
35145,59551,5
35170,59614,4
35193,59635,5
35194,59650,5
35200,59635,5
35209,59660,5
35223,59697,4
35240,59712,5
35237,59700,5
35242,59747,6
35252,59739,4
35248,59767,4
35277,59751,5
35318,59857,5
35344,59889,5
35351,59905,4
35339,59907,5
35333,59900,5
35345,59917,5
35345,59933,5
35354,59993,4
35352,59951,5
35353,59949,5
35347,59941,5
35331,59981,5
35338,59925,4
35337,59930,5
35344,59950,5
35367,60008,5
35392,60030,5
35408,60049,5
35409,60059,4
35410,60073,5
35411,60058,5
35385,60035,6
35366,60018,3
35355,59999,5
35354,59986,5
35346,59983,5
35335,59967,4
35330,59970,4
35319,59955,5
35316,59960,5
35321,59975,5
35320,59970,4
35314,59959,5
35306,59940,5
35284,59912,5
35284,59900,5
35259,59868,4
35248,59860,5
35250,59856,5
35256,59871,5
35248,59857,5
35245,59857,4
35242,59837,6
35235,59835,4
35228,59825,5
35224,59804,5
35217,59826,4
35215,59821,5
35215,59805,5
35210,59811,5
35201,59793,4
35210,59803,4
35211,59806,5
35216,59818,5
35219,59837,5
35236,59854,4
35236,59851,5
35230,59849,5
35231,59853,5
35242,59866,5
35253,59882,4
35272,59915,5
35289,59966,5
35315,59995,5
35342,60014,5
35341,60046,4
35357,60060,5
35374,60080,6
35383,60086,4
35401,60116,5
35421,60152,4
35425,60165,5
35433,60160,5
35438,60169,5
35446,60182,4
35450,60187,4
35458,60202,5
35456,60229,5
35475,60250,5
35490,60270,4
35505,60278,5
35503,60296,5
35512,60301,5
35530,60330,5
35546,60365,4
35577,60411,5
35611,60463,5
35642,60518,5
35659,60546,5
35678,60553,4
35688,60578,5
35691,60583,5
35696,60611,6
35714,60623,4
35731,60660,4
35758,60702,5
35775,60712,5
35769,60699,5
35766,60700,5
35768,60704,4
35756,60728,5
35780,60727,5
35790,60739,5
35796,60736,4
35740,60714,5
35770,60695,5
35754,60691,5
35760,60691,5
35727,60702,4
35788,60737,5
35800,60769,5
35837,60807,5
35864,60831,5
35849,60839,5
35862,60865,4
35886,60892,5
35955,60936,5
35944,60993,5
36002,61069,4
36041,61141,5
36113,61170,5
36074,61183,5
36073,61194,5
36093,61209,4
36130,61254,5
36128,61280,5
36162,61341,5
36190,61379,4
36220,61414,5
36244,61462,5
36276,61514,5
36316,61589,5
36364,61606,4
36397,61715,5
36441,61791,5
36501,61887,5
36550,61881,5
36564,61935,5
36569,61947,5
36579,61968,4
36594,61976,5
36624,62037,5
36663,62107,4
36712,62175,5
36756,62265,5
36772,62254,5
36789,62282,5
36806,62316,4
36834,62420,5
36864,62410,5
36900,62475,5
36960,62558,4
36990,62647,4
37008,62644,5
37020,62664,5
37049,62696,5
37078,62746,4
37096,62786,5
37157,62877,5
37218,62972,5
37246,63008,5
37266,63033,4
37279,63051,5
37299,63079,6
37305,63110,4
37330,63142,5
37357,63184,4
37389,63223,5
37404,63243,5
37409,63247,5
37404,63245,5
37402,63241,4
37407,63246,5
37427,63272,5
37444,63302,5
37458,63322,4
37472,63319,4
37448,63300,5
37443,63280,5
37448,63268,5
37427,63247,4
37421,63233,5
37397,63214,5
37381,63184,5
37353,63133,5
37337,63095,4
37320,63070,5
37305,63055,5
37300,63043,6
37299,63041,4
37300,63051,4
37301,63053,5
37298,63046,5
37317,63055,5
37323,63061,5
37323,63052,4
37310,63044,5
37305,63024,5
37289,63000,5
37279,62985,4
37271,62972,4
37266,62950,5
37267,62945,5
37248,62931,5
37251,62909,4
37229,62874,5
37203,62854,5
37206,62859,5
37222,62861,5
37215,62867,5
37228,62846,4
37202,62811,5
37170,62762,5
37128,62690,5
37098,62633,4
37071,62604,5
37065,62582,5
37054,62568,5
37041,62549,5
37016,62515,4
36993,62460,5
36972,62428,5
36959,62410,5
36951,62407,5
36942,62396,4
36940,62376,5
36918,62339,5
36893,62291,5
36850,62240,4
36831,62210,5
36840,62210,5
36833,62217,6
36839,62210,4
36837,62188,4
36796,62138,6
36755,62060,4
36712,62012,5
36687,62002,5
36692,61983,4
36676,61976,5
36660,61956,5
36604,61918,5
36618,61867,5
36594,61839,4
36583,61828,5
36526,61816,5
36563,61803,5
36562,61790,5
36535,61753,4
36478,61692,5
36467,61629,5
36454,61621,5
36449,61629,4
36489,61634,4
36451,61625,5
36429,61609,5
36417,61566,5
36441,61533,4
36372,61495,5
36358,61474,6
36340,61443,4
36363,61416,5
36295,61378,4
36268,61323,5
36219,61248,5
36187,61205,5
36171,61203,5
36168,61198,4
36171,61190,5
36161,61155,5
36149,61156,5
36119,61109,5
36092,61080,4
36088,61032,5
36094,61092,5
36102,61106,5
36111,61126,4
36118,61081,4
36103,61090,5
36089,61059,5
36076,61045,5
36073,61056,4
36074,61056,5
36078,61060,5
36073,61064,5
36074,61092,5
36065,61047,4
36061,61047,5
36063,61042,5
36067,61101,5
36064,61050,5
36063,61035,4
36040,61005,5
36028,61006,5
36021,60975,5
36020,60977,5
36033,60995,4
36044,61017,5
36055,61027,5
36047,61025,5
36046,61025,4
36049,61023,5
36049,61035,4
36067,61057,5
36081,61073,5
36092,61096,6
36091,61085,3
36086,61071,5
36079,61084,5
36091,61095,5
36097,61113,4
36127,61140,5
36136,61172,5
36137,61164,5
36129,61157,5
36126,61141,4
36138,61157,5
36133,61165,5
36143,61180,5
36155,61197,5
36162,61184,4
36141,61163,5
36145,61161,5
36141,61175,5
36146,61171,5
36159,61197,4
36161,61199,6
36171,61214,4
36167,61211,5
36158,61200,4
36169,61206,7
36175,61220,3
36188,61241,5
36193,61248,5
36190,61249,4
36189,61232,5
36167,61210,5
36182,61221,5
36185,61225,5
36189,61226,4
36197,61241,5
36193,61247,5
36201,61251,5
36190,61229,5
36176,61201,4
36171,61209,5
36166,61200,5
36168,61208,5
36161,61194,5
36154,61174,4
36124,61138,5
36111,61120,6
36105,61115,4
36105,61135,4
36113,61124,5
36111,61138,5
36100,61118,5
36087,61097,5
36076,61089,4
36057,61070,5
36064,61070,5
36053,61078,5
36057,61076,5
36057,61090,4
36042,61059,5
36033,61061,5
36037,61050,5
36039,61069,5
36056,61091,4
36058,61096,5
36055,61106,5
36060,61114,5
36062,61113,5
36073,61124,4
36072,61132,5
36073,61122,5
36055,61110,6
36038,61073,3
35987,61049,4
35977,60991,5
35940,60929,5
35904,60878,5
35829,60821,4
35832,60783,5
35799,60737,5
35772,60697,5
35705,60660,5
35723,60634,4
35710,60631,5
35704,60617,5
35720,60609,5
35689,60589,5
35676,60575,4
35671,60567,5
35715,60562,5
35679,60584,5
35697,60615,5
35705,60641,5
35770,60656,4
35722,60662,5
35729,60678,5
35739,60689,6
35758,60703,3
35763,60728,5
35771,60763,5
35789,60773,5
35804,60761,4
35793,60777,5
35798,60780,5
35804,60785,5
35806,60760,5
35813,60812,4
35817,60809,5
35811,60801,5
35805,60733,5
35796,60784,5
35783,60763,4
35786,60757,5
35778,60745,5
35791,60789,5
35799,60788,5
35781,60780,4
35785,60803,6
35787,60769,4
35794,60774,5
35796,60785,4
35795,60863,4
35808,60813,5
35798,60799,5
35795,60788,5
35789,60809,4
35785,60775,5
35780,60761,5
35777,60765,5
35788,60788,5
35788,60779,4
35785,60783,5
35786,60771,5
35778,60772,5
35776,60768,5
35778,60775,4
35796,60808,5
35809,60819,5
35810,60837,5
35807,60813,5
35811,60819,4
35809,60824,5
35802,60829,6
35823,60852,4
35843,60876,5
35842,60885,4
35838,60874,5
35835,60860,5
35814,60854,5
35819,60854,4
35829,60863,5
35841,60880,5
35854,60897,5
35849,60908,5
35848,60888,4
35840,60879,5
35841,60871,5
35834,60859,5
35831,60870,5
35849,60896,4
35848,60907,5
35855,60894,5
35849,60897,5
35854,60889,5
35855,60887,4
35857,60913,5
35877,60947,5
35905,60968,6
35917,60977,4
35914,60962,4
35896,60964,5
35897,60967,5
35912,60973,5
35920,61020,4
35963,61072,5
35979,61102,5
35983,61106,5
35986,61112,5
35994,61117,4
36006,61123,5
36021,61163,5
36044,61215,5
36080,61261,5
36085,61272,4
36086,61261,5
36083,61266,5
36087,61262,5
36079,61268,5
36106,61305,5
36127,61354,4
36151,61368,5
36161,61383,5
36153,61370,5
36172,61396,4
36185,61422,5
36202,61454,5
36232,61498,5
36265,61549,4
36265,61549,4
36270,61542,5
36265,61529,5
36260,61519,5
36258,61523,4
36252,61525,5
36278,61534,5
36261,61532,5
36248,61513,5
36256,61513,4
36258,61525,5
36276,61540,5
36272,61572,5
36314,61634,5
36351,61669,4
36356,61679,6
36317,61678,4
36369,61700,5
36382,61727,5
36402,61749,4
36391,61825,5
36482,61895,5
36520,61940,5
36533,61936,4
36533,61943,4
36536,61961,5
36560,61963,5
36552,61988,5
36629,62035,4
36599,62045,5
36612,62080,5
36628,62094,5
36703,62133,5
36673,62183,4
36700,62214,5
36735,62271,5
36785,62316,5
36786,62342,5
36781,62323,4
36769,62308,5
36781,62304,6
36782,62312,4
36798,62350,5
36829,62406,4
36855,62407,5
36876,62464,5
36884,62478,5
36888,62493,5
36907,62449,4
36913,62522,5
36947,62562,5
36952,62580,5
36961,62536,4
36955,62571,6
36955,62576,4
36963,62586,5
36965,62618,5
36979,62596,4
36970,62586,5
36971,62578,5
36964,62644,5
36980,62604,6
36995,62608,3
36997,62605,5
36997,62676,5
37006,62637,5
37024,62655,5
37049,62679,4
37066,62718,5
37084,62742,5
37111,62770,5
37130,62788,5
37130,62781,4
37136,62775,5
37136,62785,5
37149,62781,5
37145,62785,4
37144,62768,4
37124,62725,5
37090,62684,5
37074,62637,5
37062,62610,4
37029,62569,5
37003,62538,5
36984,62484,5
36957,62450,5
36924,62403,5
36898,62363,4
36884,62359,5
36890,62353,5
36884,62356,5
36881,62344,4
36867,62321,5
36839,62270,5
36804,62214,5
36783,62182,5
36779,62189,4
36784,62172,5
36782,62157,5
36752,62140,5
36728,62083,4
36682,62007,4
36638,61952,5
36628,61933,5
36618,61933,5
36616,61930,4
36595,61892,5
36568,61841,5
36529,61775,5
36482,61701,5
36469,61694,4
36468,61687,6
36482,61696,4
36469,61703,5
36469,61695,5
36447,61645,4
36409,61583,5
36377,61548,5
36378,61530,5
36363,61525,5
36369,61528,4
36357,61515,5
36346,61492,5
36319,61432,5
36289,61393,5
36270,61375,4
36279,61379,5
36275,61368,5
36259,61353,5
36246,61334,4
36220,61296,5
36197,61251,5
36188,61246,5
36200,61259,4
36210,61271,4
36220,61292,5
36216,61279,5
36187,61235,5
36154,61201,5
36139,61169,4
36131,61160,5
36134,61155,5
36138,61165,5
36129,61157,5
36130,61150,4
36111,61131,5
36106,61111,5
36109,61133,5
36112,61135,5
36109,61143,4
36116,61138,5
36106,61126,5
36078,61080,5
36029,61049,5
36058,61036,4
36058,61060,5
36073,61068,5
36034,61072,6
36067,61079,3
36072,61071,5
36057,61046,5
36020,61028,5
36045,61032,5
36032,60999,4
36016,60976,5
36022,60950,5
35964,60904,5
35940,60863,5
35940,60868,4
36006,60885,5
35971,60901,5
35974,60918,5
35970,60931,5
36006,60912,4
35955,60893,5
35948,60869,5
35928,60857,5
35950,60858,4
35941,60870,5
35950,60876,4
35947,60886,5
35939,60850,5
35923,60853,6
35916,60853,3
35919,60863,5
35934,60840,5
35953,60903,5
35963,60929,4
35972,60916,5
35954,60858,5
35966,60905,5
35953,60913,5
35980,60940,4
35994,60983,5
36000,60981,5
36012,60995,5
36007,60977,5
36000,61017,4
35987,60965,5
35992,60961,5
35999,60978,5
36004,61015,4
36001,60963,4
35985,60941,6
35970,60924,4
35967,60948,5
35970,60931,4
35973,60944,5
35991,60951,5
35986,60961,5
35987,60958,5
35982,60940,4
35973,60942,5
35984,60947,5
35992,60965,5
36003,60984,5
36022,61009,4
36023,61011,5
36010,60996,5
36013,60986,5
36001,60986,5
36006,60992,4
36006,60996,5
36001,60992,5
35992,60973,5
35971,60948,5
35957,60919,4
35944,60908,5
35937,60914,6
35944,60914,4
35946,60919,4
35950,60934,5
35941,60933,5
35949,60935,5
35944,60931,5
35957,60949,4
35967,60964,5
35972,60990,5
35987,60998,5
35994,60993,5
35988,60993,4
35998,60996,5
35983,60988,5
35979,61006,5
35980,60983,5
35974,60974,4
35968,60970,5
35954,60955,5
35941,60928,5
35916,60899,5
35905,60882,4
35892,60868,5
35886,60843,5
35871,60836,6
35860,60816,3
35846,60799,4
35825,60775,5
35814,60765,5
35807,60758,5
35820,60762,4
35828,60775,5
35814,60771,5
35813,60763,5
35815,60774,5
35813,60768,4
35796,60750,5
35787,60751,5
35798,60751,5
35785,60741,5
35769,60727,4
35771,60717,5
35761,60691,5
35757,60692,5
35742,60685,5
35741,60683,5
35742,60690,4
35740,60680,5
35733,60672,5
35735,60678,6
35731,60684,3
35731,60678,5
35735,60678,5
35744,60692,5
35742,60707,4
35735,60705,5
35731,60695,5
35733,60693,5
35741,60689,5
35737,60683,4
35733,60685,5
35707,60695,5
35735,60693,5
35734,60684,5
35727,60680,4
35676,60665,5
35723,60659,5
35716,60655,5
35725,60659,5
35676,60672,4
35711,60664,6
35718,60670,4
35720,60667,5
35749,60667,4
35724,60678,4
35726,60682,5
35737,60708,5
35806,60724,5
35757,60737,4
35751,60743,5
35758,60736,5
35801,60747,5
35771,60750,5
35778,60766,4
35786,60781,5
35812,60804,5
35798,60812,5
35803,60801,5
35787,60778,4
35784,60752,5
35775,60761,5
35765,60760,5
35780,60772,5
35781,60730,4
35775,60774,5
35779,60779,6
35771,60771,4
35775,60718,5
35778,60765,5
35793,60785,4
35803,60797,5
35803,60812,5
35802,60814,4
35799,60816,5
35799,60812,5
35814,60854,5
35813,60820,5
35811,60818,4
35811,60825,5
35815,60884,5
35807,60818,5
35810,60799,5
35807,60804,4
35800,60816,5
35795,60794,5
35798,60801,5
35814,60824,5
35820,60821,4
35813,60833,5
35822,60825,5
35829,60841,6
35819,60838,4
35817,60849,4
35838,60876,5
35854,60894,5
35866,60896,5
35855,60893,4
35853,60889,4
35844,60875,5
35845,60869,5
35848,60885,5
35864,60922,4
35880,60935,5
35878,60933,5
35877,60932,5
35888,60939,5
35892,60945,4
35887,60953,5
35891,60969,5
35912,60993,5
35926,60999,5
35925,61009,5
35921,61017,4
35931,61014,5
35937,61014,5
35924,61021,5
35940,61031,4
35955,61061,5
35961,61058,5
35966,61054,5
35967,61052,5
35958,61056,4
35971,61055,5
35970,61065,5
35986,61081,5
36000,61115,4
35997,61123,5
36006,61120,5
35990,61116,5
36003,61128,5
36015,61135,4
36018,61148,5
36053,61184,5
36068,61202,5
36056,61212,5
36054,61205,4
36058,61196,6
36054,61203,4
36062,61207,5
36064,61231,5
36078,61246,4
36084,61248,5
36077,61254,5
36084,61247,5
36097,61270,5
36107,61281,4
36121,61295,5
36146,61332,5
36154,61342,5
36141,61325,4
36133,61305,4
36114,61294,5
36123,61292,5
36124,61307,5
36130,61310,4
36142,61327,5
36143,61337,5
36141,61336,5
36146,61340,5
36145,61332,4
36136,61313,5
36130,61302,6
36119,61295,4
36123,61282,5
36106,61262,4
36100,61253,5
36097,61261,5
36105,61268,5
36083,61265,5
36094,61253,4
36096,61254,5
36107,61262,5
36050,61246,5
36089,61245,4
36094,61233,4
36088,61226,5
36029,61218,5
36073,61224,5
36080,61230,4
36096,61255,5
36123,61278,5
36122,61294,5
36135,61299,5
36131,61289,4
36180,61293,5
36119,61275,5
36102,61253,5
36099,61253,5
36161,61267,4
36129,61289,5
36139,61302,5
36150,61307,5
36150,61267,5
36108,61265,4
36131,61285,5
36146,61306,5
36154,61305,5
36141,61280,5
36116,61242,4
36095,61210,5
36099,61190,5
36137,61267,5
36179,61324,4
36200,61352,5
36198,61302,5
36185,61319,5
36158,61276,5
36147,61252,5
36142,61233,4
36156,61261,5
36146,61251,5
36113,61204,5
36068,61164,4
36030,61091,5
36033,61121,5
36094,61211,5
36162,61349,5
36199,61352,4
36190,61359,5
36190,61359,5
36202,61406,5
36229,61404,5
36256,61444,4
36286,61478,5
36304,61536,5
36336,61581,5
36360,61611,4
36359,61594,4
36343,61574,6
36341,61563,4
36331,61574,5
36344,61575,4
36343,61558,6
36327,61542,3
36309,61532,5
36291,61502,5
36285,61484,4
36298,61523,5
36328,61572,5
36374,61642,5
36404,61675,5
36392,61659,4
36377,61610,5
36353,61599,5
36351,61598,5
36355,61591,5
36350,61585,4
36333,61569,5
36323,61564,5
36353,61621,5
36376,61666,4
36408,61707,4
36439,61744,5
36455,61777,6
36456,61789,4
36466,61817,4
36459,61829,5
36454,61809,5
36443,61798,5
36444,61808,5
36471,61869,4
36509,61919,5
36532,61957,5
36542,61971,5
36528,61957,5
36495,61915,4
36490,61913,5
36504,61926,5
36503,61920,5
36495,61937,5
36491,61937,4
36492,61930,5
36482,61893,5
36462,61880,5
36471,61886,5
36471,61878,4
36453,61869,5
36468,61886,5
36475,61895,6
36475,61872,3
36450,61857,5
36466,61889,5
36497,61922,5
36498,61936,5
36492,61906,4
36473,61889,5
36456,61864,5
36454,61876,5
36484,61915,5
36503,61944,4
36518,61946,5
36505,61943,5
36517,61946,5
36509,61950,5
36507,61936,4
36512,61937,5
36526,61960,5
36528,61979,5
36526,61981,5
36534,61981,5
36529,61992,4
36532,62012,5
36546,62014,5
36535,61999,6
36526,61979,5
36528,62020,3
36567,62058,5
36580,62071,5
36564,62054,4
36508,62011,5
36520,61985,5
36538,62008,5
36552,62015,5
36500,62018,4
36542,62009,5
36540,61995,5
36519,61963,5
36475,61936,5
36499,61952,4
36512,61967,5
36521,61986,5
36556,61981,5
36500,61944,5
36462,61898,4
36441,61887,6
36511,61905,4
36482,61915,5
36479,61909,4
36460,61878,4
36473,61846,5
36403,61797,5
36378,61767,5
36346,61721,4
36323,61682,5
36308,61677,5
36320,61698,5
36331,61723,5
36353,61745,4
36376,61805,5
36381,61820,5
36384,61838,5
36373,61763,5
36372,61819,4
36391,61852,4
36416,61892,5
36439,61888,5
36468,61989,5
36493,62012,4
36476,62003,5
36467,61993,6
36458,61994,4
36475,62009,5
36478,62036,4
36492,62112,5
36505,62095,5
36517,62118,5
36559,62179,4
36587,62265,5
36583,62188,5
36569,62210,5
36616,62283,5
36669,62408,4
36713,62448,5
36756,62517,5
36792,62571,5
36807,62579,5
36829,62620,4
36886,62717,5
36919,62762,5
36940,62804,5
36949,62814,5
36964,62826,4
36998,62890,5
37036,62939,5
37042,62954,6
37045,62948,4
37004,62900,4
36959,62814,5
36929,62804,5
36981,62904,5
37064,63056,4
37154,63191,4
37237,63340,5
37312,63434,5
37354,63484,5
37375,63510,4
37363,63479,5
37323,63416,5
37305,63398,5
37318,63446,5
37368,63535,4
37447,63653,5
37521,63757,5
37577,63857,5
37609,63898,5
37606,63884,5
37598,63878,4
37620,63926,5
37654,63970,5
37687,64015,5
37704,64028,4
37703,64041,5
37727,64073,5
37766,64146,5
37790,64168,4
37778,64160,4
37772,64149,5
37786,64175,5
37838,64275,5
37894,64320,4
37903,64340,5
37879,64263,5
37810,64144,5
37740,64068,5
37709,64020,4
37713,64052,5
37746,64114,5
37765,64133,5
37814,64201,5
37869,64287,4
37904,64334,6
37890,64307,4
37861,64265,5
37833,64231,5
37815,64189,4
37832,64241,5
37864,64319,5
37898,64359,5
37928,64405,5
37926,64366,4
37900,64334,5
37877,64316,5
37890,64356,5
37926,64418,4
37965,64496,5
38032,64590,5
38072,64617,5
38058,64593,5
38040,64555,4
38038,64565,5
38027,64549,5
38006,64526,5
38002,64517,5
38016,64531,4
38001,64508,5
37968,64464,6
37935,64452,4
37985,64498,5
38008,64514,4
37976,64467,5
37901,64408,5
37921,64352,5
37897,64306,5
37885,64329,4
37886,64434,5
38033,64595,5
38106,64674,5
38105,64668,4
38103,64630,4
38065,64599,5
38057,64585,5
38066,64603,5
38124,64623,4
38097,64658,5
38115,64684,5
38119,64682,5
38184,64690,5
38129,64698,4
38156,64739,5
38196,64811,5
38232,64827,6
38195,64802,4
38188,64777,4
38186,64771,5
38186,64767,5
38186,64773,5
38191,64780,5
38198,64801,4
38214,64787,5
38240,64848,5
38240,64851,5
38235,64826,4
38215,64755,4
38206,64774,5
38200,64799,5
38237,64828,5
38233,64796,4
38237,64826,5
38243,64841,5
38243,64820,5
38228,64830,5
38205,64761,6
38180,64728,3
38175,64720,5
38171,64771,5
38174,64714,5
38190,64728,4
38188,64717,5
38182,64735,5
38169,64685,5
38161,64690,5
38169,64669,4
38121,64620,5
38098,64595,5
38121,64624,5
38135,64648,4
38156,64661,4
38161,64695,5
38196,64744,5
38232,64793,5
38256,64826,4
38283,64862,5
38309,64908,5
38342,64936,5
38352,64953,5
38370,64999,4
38386,64998,6
38383,64997,4
38363,64987,5
38371,65014,5
38424,65085,4
38482,65169,5
38512,65191,5
38540,65236,5
38564,65284,5
38573,65286,4
38553,65256,5
38526,65221,5
38520,65200,5
38508,65171,5
38485,65159,4
38485,65143,5
38482,65132,5
38485,65138,5
38489,65157,4
38516,65181,5
38543,65223,5
38551,65245,5
38579,65272,5
38566,65277,4
38559,65254,5
38547,65245,6
38543,65242,4
38537,65248,5
38533,65226,4
38527,65233,5
38543,65237,5
38554,65245,5
38547,65238,5
38534,65224,4
38532,65218,5
38531,65212,5
38532,65226,5
38555,65270,5
38577,65275,4
38570,65275,5
38550,65230,5
38525,65191,5
38518,65189,4
38498,65149,5
38484,65126,5
38478,65110,5
38471,65093,5
38462,65079,4
38472,65081,5
38487,65109,5
38504,65109,5
38470,65059,5
38423,64950,4
38350,64837,5
38305,64754,5
38247,64665,5
38175,64557,5
38120,64449,4
38050,64343,5
37993,64238,5
37949,64181,5
37937,64157,5
37962,64165,4
37953,64170,5
37930,64137,5
37915,64076,5
37866,64006,4
37808,63929,5
37787,63891,4
37778,63867,5
37787,63881,5
37764,63924,5
37830,63952,3
37846,63980,5
37860,63984,5
37801,63960,5
37829,63946,4
37824,63934,5
37822,63929,5
37794,63929,5
37814,63918,5
37802,63889,4
37785,63864,5
37814,63874,5
37810,63916,5
37848,63980,5
37894,64042,4
37976,64082,5
37936,64103,5
37934,64094,5
37895,64025,4
37872,63943,4
37801,63910,6
37830,63953,4
37865,64022,5
37980,64180,4
38049,64256,7
38049,64229,3
38033,64221,5
38028,64192,5
38014,64181,4
37978,64144,5
37961,64119,5
37952,64058,5
37938,64084,5
37949,64132,4
38013,64229,5
38073,64267,5
38113,64393,5
38168,64489,5
38197,64509,4
38137,64431,5
38093,64368,5
38167,64522,5
38335,64807,4
38518,65143,4
38621,65254,5
38653,65290,6
38610,65202,4
38510,65139,4
38456,65017,5
38443,65019,5
38460,65064,5
38442,65073,5
38486,65156,4
38607,65351,5
38668,65405,5
38656,65393,5
38648,65340,5
38554,65210,4
38429,65003,5
38360,64965,5
38447,65126,5
38568,65329,5
38707,65547,4
38838,65755,5
38953,65901,5
39004,65955,5
38983,65902,5
38938,65854,4
38932,65870,5
38957,65901,5
38979,65936,6
38971,65896,3
38916,65805,5
38861,65736,5
38831,65707,5
38816,65702,5
38853,65751,4
38895,65824,5
38909,65808,5
38823,65674,5
38700,65487,5
38611,65431,4
38730,65643,5
38892,65882,5
38982,65979,5
38967,65939,5
38934,65897,4
38893,65850,5
38858,65837,5
38858,65868,5
38918,65972,5
38985,66099,5
39060,66190,4
39089,66242,5
39097,66270,5
39116,66315,6
39112,66328,3
39043,66205,5
38999,66179,5
39035,66242,5
39119,66397,4
39202,66569,5
39294,66726,5
39395,66891,5
39510,67091,5
39581,67178,4
39579,67156,5
39530,67088,5
39444,66970,5
39370,66890,5
39351,66877,4
39376,66941,5
39476,67104,5
39522,67135,5
39507,67097,5
39478,67063,4
39488,67087,6
39496,67121,4
39519,67147,5
39538,67188,4
39609,67349,4
39746,67575,5
39876,67771,5
40004,67996,5
40136,68168,4
40129,68122,5
40058,68055,5
40085,68147,5
40213,68388,5
40332,68535,4
40322,68500,5
40272,68421,5
40245,68386,5
40188,68309,5
40157,68268,4
40187,68359,5
40264,68530,5
40396,68701,5
40462,68798,5
40489,68863,4
40458,68877,5
40537,68984,6
40642,69195,4
40757,69331,5
40735,69379,4
40835,69467,5
40892,69567,5
40907,69600,5
40920,69625,4
40904,69690,5
40942,69760,5
40926,69717,5
40933,69652,5
40840,69631,4
40861,69698,5
40871,69704,5
40897,69657,5
40818,69598,5
40763,69503,4
40656,69326,5
40553,69121,5
40390,68896,5
40271,68705,5
40174,68564,4
40115,68464,5
40087,68449,5
40067,68432,6
40031,68348,4
39989,68247,4
39957,68221,5
39912,68126,5
39846,68012,5
39772,67841,4
39699,67787,4
39639,67689,4
39559,67562,5
39503,67475,5
39477,67452,4
39482,67442,5
39467,67418,5
39459,67443,5
39450,67402,5
39460,67395,4
39449,67373,5
39439,67420,5
39437,67332,5
39396,67263,5
39349,67176,5
39285,67101,4
39205,66922,5
39127,66801,5
39058,66697,5
39019,66638,4
38993,66599,5
38972,66533,5
38929,66476,5
38901,66432,4
38870,66365,4
38832,66318,5
38811,66257,5
38795,66234,5
38798,66254,4
38798,66247,5
38797,66238,5
38791,66214,5
38763,66172,5
38742,66125,4
38715,66084,5
38705,66065,5
38698,66076,5
38691,66063,5
38685,66049,4
38666,66010,6
38663,65981,4
38645,65966,5
38643,65956,5
38648,65965,4
38659,65988,5
38647,65966,5
38627,65921,5
38591,65858,4
38542,65793,4
38514,65750,5
38490,65707,5
38484,65712,5
38500,65734,4
38503,65744,5
38497,65721,5
38475,65688,5
38457,65636,5
38427,65590,4
38382,65537,5
38397,65543,5
38402,65559,5
38415,65571,5
38412,65577,4
38410,65568,5
38415,65575,6
38411,65561,4
38409,65539,5
38398,65552,4
38395,65533,5
38381,65501,5
38350,65458,5
38325,65420,5
38318,65402,4
38328,65410,5
38330,65416,5
38345,65439,5
38354,65445,4
38349,65446,4
38354,65425,5
38348,65414,5
38342,65421,5
38337,65415,4
38342,65419,5
38336,65433,5
38349,65447,5
38351,65451,5
38348,65437,4
38361,65453,5
38360,65464,5
38383,65491,5
38399,65511,5
38421,65553,4
38447,65586,5
38439,65586,5
38446,65587,5
38442,65577,5
38436,65570,4
38448,65575,5
38443,65576,5
38447,65599,5
38460,65637,4
38483,65638,4
38473,65610,5
38455,65587,5
38414,65598,5
38459,65587,4
38462,65605,5
38473,65638,5
38437,65646,5
38493,65632,5
38481,65633,5
38482,65616,4
38474,65617,5
38479,65623,5
38498,65644,5
38517,65673,4
38572,65705,5
38552,65735,5
38569,65754,5
38588,65774,5
38661,65795,4
38602,65806,5
38629,65840,5
38659,65894,5
38720,65920,4
38689,65932,4
38697,65930,5
38693,65956,5
38721,65979,5
38740,66023,4
38772,66071,5
38799,66114,5
38806,66089,5
38793,66095,5
38795,66096,4
38795,66099,6
38813,66065,4
38828,66149,5
38850,66196,5
38876,66214,4
38867,66145,5
38873,66190,5
38869,66220,5
38924,66302,5
38977,66409,4
39018,66441,5
39056,66504,5
39080,66536,5
39076,66581,5
39046,66482,4
39036,66458,5
39017,66434,5
38999,66465,5
38994,66418,4
39018,66442,5
39040,66479,5
39046,66504,5
39055,66498,5
39082,66544,4
39101,66578,5
39136,66637,5
39185,66722,5
39228,66755,5
39218,66756,4
39202,66716,5
39193,66699,5
39188,66718,5
39214,66743,5
39255,66806,4
39300,66900,5
39362,67018,5
39443,67137,5
39517,67251,5
39606,67396,4
39680,67492,5
39718,67545,5
39746,67591,5
39776,67635,5
39803,67696,4
39847,67761,5
39874,67788,5
39914,67867,6
39974,67949,3
39998,67979,5
40021,68025,5
40044,68058,5
40041,68055,5
40024,68015,4
39995,67965,5
39974,67941,5
39957,67920,5
39956,67909,5
39989,67954,4
40015,67991,5
40029,68023,5
40047,68041,5
40044,68034,5
40038,68040,4
40040,68034,5
40060,68063,5
40093,68113,5
40107,68129,4
40106,68122,5
40082,68074,4
40058,68060,5
40053,68042,5
40049,68015,6
40045,68016,3
40043,68009,5
40046,68013,5
40039,67987,5
40020,67959,4
39998,67914,5
39947,67841,5
39902,67757,5
39845,67670,5
39811,67617,4
39797,67608,5
39805,67603,5
39799,67577,5
39764,67519,5
39709,67403,4
39630,67283,5
39570,67183,5
39537,67132,5
39529,67136,4
39537,67119,4
39520,67097,6
39499,67048,4
39461,66958,5
39394,66861,4
39348,66788,7
39334,66752,3
39317,66724,5
39298,66699,5
39282,66667,4
39234,66601,5
39197,66537,5
39192,66530,5
39199,66558,5
39212,66583,4
39181,66578,5
39213,66583,5
39220,66579,5
39209,66567,5
39164,66559,4
39213,66581,5
39244,66607,5
39245,66607,5
39202,66594,5
39227,66581,4
39195,66496,5
39148,66433,6
39162,66422,4
39140,66456,4
39163,66495,5
39196,66540,5
39249,66542,5
39182,66525,5
39184,66537,4
39204,66579,5
39321,66691,5
39340,66800,5
39376,66862,5
39397,66903,4
39410,66888,5
39387,66869,5
39388,66864,5
39403,66894,5
39409,66888,4
39416,66913,5
39423,66913,5
39403,66885,5
39387,66818,5
39395,66893,4
39446,66978,5
39507,67067,5
39550,67067,6
39561,67129,4
39543,67098,4
39505,67050,5
39505,67053,5
39518,67101,5
39572,67203,4
39636,67312,5
39685,67424,5
39685,67386,5
39665,67339,5
39635,67307,4
39650,67394,5
39674,67385,5
39704,67446,5
39735,67487,5
39739,67525,4
39742,67502,5
39748,67534,5
39783,67579,5
39844,67666,5
39881,67720,5
39897,67742,4
39871,67710,5
39845,67665,5
39815,67611,6
39800,67599,3
39829,67631,5
39838,67659,5
39849,67682,5
39855,67692,4
39836,67652,5
39820,67633,5
39810,67618,5
39805,67604,5
39799,67592,4
39777,67556,5
39764,67544,5
39735,67478,5
39698,67417,5
39669,67395,4
39669,67393,5
39663,67403,5
39670,67397,5
39668,67407,5
39673,67399,4
39651,67368,6
39656,67377,4
39691,67443,5
39718,67493,4
39745,67525,4
39746,67526,5
39716,67489,5
39679,67410,5
39633,67351,4
39625,67338,5
39615,67323,5
39613,67334,5
39601,67339,5
39610,67350,4
39601,67326,5
39587,67331,5
39609,67363,5
39636,67420,5
39674,67502,4
39727,67560,5
39729,67567,5
39711,67535,5
39684,67485,5
39677,67468,4
39671,67478,5
39686,67514,6
39716,67559,4
39730,67589,5
39756,67592,4
39725,67552,5
39700,67518,5
39687,67511,5
39712,67541,4
39737,67610,5
39767,67650,5
39782,67658,5
39772,67647,5
39766,67620,4
39769,67645,5
39783,67678,5
39817,67737,5
39867,67819,5
39907,67875,4
39909,67887,5
39904,67878,5
39934,67941,5
39993,68052,5
40034,68115,4
40050,68155,5
40093,68211,5
40094,68194,6
40065,68150,4
40048,68100,4
40039,68101,5
40033,68092,5
39997,68073,7
40010,68060,2
39986,68022,4
39964,67987,5
39917,67965,5
39947,67973,5
39955,67994,4
39975,68011,5
39905,67987,5
39932,67962,5
39929,67959,5
39904,67928,4
39876,67901,5
39863,67864,5
39858,67861,5
39840,67833,5
39853,67811,5
39796,67779,4
39778,67758,5
39748,67731,5
39797,67703,5
39722,67668,4
39707,67649,5
39692,67645,5
39705,67618,5
39658,67598,4
39635,67570,4
39630,67567,5
39621,67558,5
39603,67554,5
39599,67564,4
39617,67580,5
39620,67569,5
39651,67642,5
39673,67698,5
39706,67758,4
39765,67801,5
39813,67955,5
39863,68047,4
39915,68123,5
39960,68178,4
40014,68316,6
40060,68394,3
40122,68498,5
40210,68641,5
40252,68701,4
40278,68740,5
40278,68746,5
40323,68873,5
40357,68852,5
40382,68914,4
40428,68994,5
40460,69084,5
40452,69017,5
40440,68981,4
40421,68958,5
40402,68953,5
40375,68907,5
40374,68904,5
40381,68924,4
40397,68921,5
40388,68920,5
40387,68916,5
40387,68905,5
40375,68892,4
40367,68879,5
40369,68907,6
40388,68949,4
40419,68976,5
40437,69014,4
40450,69044,5
40477,69085,5
40498,69121,5
40522,69159,5
40550,69228,4
40603,69298,5
40647,69361,5
40669,69394,5
40673,69394,4
40677,69403,4
40670,69401,5
40675,69393,5
40678,69432,5
40722,69483,4
40752,69524,5
40747,69524,5
40746,69524,5
40761,69524,5
40768,69538,4
40763,69531,5
40766,69544,5
40779,69572,5
40807,69611,5
40811,69608,4
40815,69600,5
40819,69604,5
40816,69622,5
40819,69616,5
40826,69630,4
40843,69648,5
40851,69647,5
40839,69628,5
40805,69573,4
40786,69536,4
40760,69503,5
40747,69476,5
40724,69444,5
40723,69452,4
40728,69466,5
40721,69436,5
40704,69421,5
40696,69389,5
40688,69382,5
40689,69393,4
40697,69415,5
40727,69457,5
40750,69495,5
40751,69487,4
40749,69487,5
40739,69490,5
40741,69493,5
40752,69487,5
40749,69502,4
40772,69543,5
40797,69572,5
40801,69581,5
40797,69568,4
40791,69561,4
40784,69559,5
40786,69555,5
40790,69563,5
40803,69600,4
40833,69636,5
40829,69648,5
40830,69647,4
40833,69645,5
40820,69634,4
40811,69615,6
40826,69640,3
40833,69639,5
40831,69635,5
40776,69617,4
40805,69598,5
40807,69598,5
40815,69601,5
40754,69605,5
40826,69616,4
40833,69646,5
40849,69654,5
40807,69643,5
40842,69642,4
40846,69654,4
40859,69672,5
40914,69711,5
40917,69781,5
40959,69850,4
40997,69906,5
41065,69911,5
41005,69922,6
41022,69936,4
41044,69958,4
41093,69995,5
41097,70055,5
41122,70113,5
41134,70110,5
41130,70089,4
41121,70077,5
41120,70090,5
41122,70101,5
41138,70096,5
41159,70160,4
41191,70196,5
41209,70222,5
41210,70164,5
41207,70226,5
41221,70273,4
41244,70295,5
41260,70268,5
41309,70387,5
41327,70405,5
41333,70408,4
41310,70380,5
41292,70342,5
41285,70327,6
41268,70296,3
41269,70356,5
41275,70315,5
41278,70332,5
41281,70325,5
41268,70375,4
41257,70296,5
41253,70286,5
41256,70290,5
41271,70359,5
41329,70426,4
41396,70541,5
41432,70598,5
41481,70670,5
41542,70769,5
41594,70852,4
41654,70947,5
41719,71069,5
41803,71180,5
41850,71251,4
41858,71267,5
41891,71313,4
41921,71369,5
41974,71466,5
42053,71580,6
42145,71742,3
42277,71954,5
42425,72165,5
42487,72252,5
42534,72324,4
42588,72390,5
42626,72456,5
42668,72518,5
42736,72640,5
42789,72715,4
42798,72735,5
42821,72759,5
42852,72819,5
42911,72920,5
42984,73018,4
43065,73155,5
43148,73265,5
43149,73237,5
43115,73188,4
43086,73169,4
43122,73193,6
43157,73265,4
43213,73345,5
43266,73411,4
43315,73471,5
43316,73486,5
43320,73474,5
43319,73481,5
43345,73526,4
43391,73600,5
43454,73698,5
43541,73810,5
43592,73886,5
43621,73906,4
43639,73912,5
43645,73911,5
43634,73902,5
43632,73861,5
43597,73814,4
43570,73764,5
43560,73749,5
43581,73761,5
43586,73772,4
43590,73758,4
43564,73682,5
43491,73554,6
43418,73424,4
43367,73322,4
43316,73240,5
43247,73124,5
43151,72962,5
43029,72754,5
42893,72533,4
42789,72383,5
42740,72334,5
42748,72336,5
42761,72371,5
42773,72385,4
42784,72404,5
42763,72358,5
42713,72253,5
42647,72166,5
42629,72136,4
42623,72127,5
42634,72139,5
42631,72173,5
42676,72202,5
42665,72158,4
42605,72076,5
42554,72051,5
42602,72054,6
42589,72059,3
42584,72049,5
42521,72039,5
42549,72006,5
42539,71983,5
42558,72040,4
42569,72126,5
42666,72187,5
42662,72181,5
42615,72098,5
42546,71938,4
42412,71772,5
42369,71728,5
42384,71746,5
42490,71814,5
42472,71890,4
42530,71994,5
42576,72019,5
42585,71944,5
42492,71885,5
42491,71870,5
42499,71886,4
42503,71893,5
42483,71880,5
42473,71867,4
42459,71839,4
42453,71815,5
42479,71891,5
42541,71987,5
42611,72105,4
42667,72123,5
42674,72167,5
42628,72062,5
42510,71862,5
42400,71658,4
42347,71659,5
42321,71642,5
42327,71660,5
42355,71708,5
42400,71782,4
42415,71800,5
42463,71871,5
42526,72012,5
42603,72079,5
42678,72194,4
42726,72256,6
42726,72313,4
42690,72180,5
42632,72116,4
42677,72191,4
42776,72389,5
42858,72452,5
42892,72501,5
42903,72524,4
42883,72478,5
42777,72291,5
42675,72132,5
42642,72094,5
42665,72153,4
42734,72256,5
42776,72309,5
42740,72236,5
42664,72119,5
42626,72092,4
42634,72110,5
42676,72174,5
42725,72251,5
42783,72346,5
42839,72415,4
42854,72429,5
42860,72438,6
42878,72473,4
42933,72586,4
43051,72786,4
43170,72942,5
43226,72990,5
43180,72887,5
43073,72762,4
43045,72706,5
43014,72699,5
43056,72793,5
43205,73063,5
43375,73305,4
43444,73373,5
43447,73376,5
43479,73433,5
43583,73634,5
43743,73912,4
43955,74247,5
44198,74638,5
44392,74881,5
44362,74765,5
44251,74588,4
44209,74553,5
44227,74633,5
44321,74813,5
44571,75236,5
44877,75682,4
45008,75772,5
44967,75706,5
44997,75760,5
45059,75885,4
45167,76072,5
45295,76266,5
45334,76278,5
45289,76175,5
45214,76072,4
45197,76061,5
45192,76055,5
45156,76006,5
45126,75986,5
45241,76216,4
45524,76680,5
45752,76993,5
45832,77073,5
45890,77213,5
46013,77391,5
46129,77582,4
46226,77745,5
46300,77850,5
46295,77828,5
46313,77847,4
46397,78025,5
46520,78133,5
46473,78031,5
46399,77923,4
46334,77830,4
46274,77749,5
46248,77710,5
46208,77639,5
46204,77669,4
46238,77746,5
46358,77972,5
46620,78413,5
46957,78901,5
47090,79070,4
47055,78926,5
46903,78695,5
46781,78522,5
46685,78498,5
46788,78617,4
46815,78641,6
46743,78477,4
46501,78194,5
46417,77994,5
46386,78001,4
46424,78048,5
46425,78055,5
46412,78049,5
46430,78084,4
46450,78128,4
46538,78211,5
46542,78306,5
46534,78271,5
46466,78164,4
46490,78157,5
46538,78374,5
46766,78779,5
47061,79260,5
47260,79459,4
47299,79584,5
47414,79794,5
47600,80115,5
47782,80361,5
47834,80415,4
47772,80307,5
47726,80230,6
47730,80162,4
47700,80155,5
47633,80060,4
47611,80088,5
47777,80359,5
48058,80799,5
48182,80949,4
48173,80933,4
48152,80870,5
48264,81159,5
48494,81508,5
48581,81600,4
48637,81745,5
48775,81946,5
48971,81614,5
49340,82282,5
49272,83468,4
50085,84620,5
50776,85645,5
51237,86310,5
51608,86949,5
51966,87439,4
52180,87716,5
52283,87850,5
52244,87732,5
51956,87197,5
51491,86462,4
51055,85843,5
50840,85596,5
50847,85641,5
50921,85763,5
51035,85957,4
51168,86144,5
51231,86249,5
51262,86281,5
51267,86302,4
51250,86241,4
51139,86037,5
50953,85723,5
50836,85565,5
50803,85568,4
50815,85561,5
50781,85519,5
50762,85489,5
50742,85475,5
50727,85439,5
50734,85482,4
50823,85613,5
50837,85629,5
50850,85650,5
50845,85605,4
50793,85532,5
50777,85507,5
50760,85474,5
50740,85458,5
50720,85411,4
50641,85277,5
50598,85208,5
50550,85099,5
50422,84901,4
50296,84709,4
50188,84574,5
50159,84555,5
50191,84604,5
50212,84627,4
50187,84587,5
50164,84535,6
50096,84423,4
50028,84339,5
49962,84255,4
49991,84332,7
50065,84411,3
50054,84389,5
50031,84346,5
50021,84334,4
50015,84335,5
50008,84327,5
49959,84228,5
49891,84115,5
49804,83989,4
49714,83848,5
49627,83734,5
49630,83751,5
49687,83833,4
49731,83904,4
49758,83931,5
49784,83948,5
49751,83866,5
49686,83771,4
49640,83747,5
49661,83811,5
49733,83934,6
49749,83931,4
49733,83900,4
49690,83832,5
49654,83785,5
49674,83835,5
49728,83913,5
49791,83994,4
49842,84086,5
49864,84111,5
49924,84244,5
50077,84451,5
50111,84478,4
50117,84468,5
50090,84443,5
50089,84432,5
50095,84483,5
50223,84710,4
50418,85098,5
50644,85282,5
50595,85174,5
50434,84917,5
50238,84751,4
50318,84842,5
50594,85343,5
50988,85944,6
51330,86461,3
51509,86599,5
51393,86325,5
51069,85829,5
50926,85616,5
50829,85559,4
50844,85623,5
51015,85963,5
51432,86501,5
51685,86990,5
51877,87193,4
51733,86875,5
51506,86445,5
51248,86134,5
51142,85996,5
51133,86042,4
51333,86372,5
51671,86948,5
51829,86987,5
51614,86615,4
51428,86378,5
51458,86491,4
51568,86669,5
51668,86807,5
51753,86779,6
51658,86652,3
51466,86322,5
51276,86082,5
51129,85747,5
50978,85641,5
51073,85895,4
51438,86452,5
51635,86663,5
51580,86508,5
51448,86273,4
51230,85844,5
50672,84914,5
50070,84014,5
49884,83825,5
49849,83786,4
49898,84008,5
50143,84328,5
50133,84127,5
49649,83256,4
49183,82698,4
49225,82850,6
49520,83294,4
49732,83578,5
49763,83535,4
49566,83201,5
49406,82934,5
49231,82657,5
49107,82462,5
49082,82427,4
49098,82469,5
49157,82550,5
49158,82504,5
48948,82026,5
48379,81085,4
47805,80292,5
47536,79944,5
47466,79925,5
47568,80157,5
47875,80726,4
48340,81442,5
48885,82289,5
49380,83008,5
49778,83519,5
50027,83846,4
50205,83996,5
50181,83830,6
50076,83584,4
49979,83411,4
49991,83357,5
50089,83484,5
50248,83640,5
50347,83715,5
50331,83574,4
50163,83207,5
49907,82786,5
49672,82390,5
49462,82061,5
49297,81775,4
49142,81558,5
49062,81412,5
49039,81371,5
49039,81341,5
49058,81350,4
49086,81407,5
49120,81447,5
49113,81455,5
49160,81558,5
49273,81743,4
49393,81938,5
49413,81975,5
49279,81731,6
48936,81218,3
48568,80725,4
48296,80379,5
48104,80132,5
48000,79980,5
47863,79759,4
47735,79575,5
47611,79389,5
47523,79271,5
47418,79094,5
47326,78999,4
47300,78954,5
47258,78879,5
47164,78724,5
47031,78523,5
46880,78308,4
46736,78077,5
46628,77974,5
46632,77983,5
46656,78016,5
46704,78094,5
46742,78134,4
46732,78102,5
46715,78123,5
46782,78256,4
46878,78416,4
46922,78469,5
46913,78444,5
46911,78454,5
46913,78463,4
46897,78430,5
46854,78399,5
46870,78441,5
46883,78484,5
46892,78469,4
46853,78420,5
46840,78425,5
46856,78557,5
47027,78782,5
47213,79087,4
47420,79460,5
47616,79825,5
47935,80275,5
48224,80686,5
48367,80911,4
48461,81060,6
48563,81285,4
48712,81559,5
48916,81920,5
49196,82296,4
49429,82731,5
49634,83031,5
49794,83304,5
50000,83541,4
50101,83827,5
50343,84222,5
50638,84653,5
50845,84888,5
50944,85050,4
50979,85072,5
50995,85082,5
51041,85153,5
51115,85247,5
51175,85313,4
51203,85338,5
51226,85326,5
51263,85392,5
51252,85327,5
51198,85221,4
51163,85142,5
51165,85176,6
51173,85164,4
51143,85082,5
51121,85015,4
51096,84997,5
51042,84929,5
51031,84930,5
51050,84996,4
51084,85026,4
51124,85035,5
51067,84915,5
50977,84867,5
50950,84779,4
50955,84773,5
50958,84790,5
50947,84802,5
50925,84695,5
50880,84629,4
50893,84665,5
50936,84765,5
51020,84858,5
51038,84884,5
51069,84922,4
51109,84980,5
51147,85015,5
51174,85070,5
51234,85144,5
51226,85138,4
51226,85132,5
51263,85206,5
51338,85323,5
51421,85445,4
51446,85486,4
51473,85518,5
51523,85622,5
51619,85790,5
51745,85992,4
51855,86113,5
51874,86132,5
51900,86183,5
51949,86286,5
52074,86490,4
52240,86751,5
52400,86995,5
52614,87309,5
52794,87580,5
52967,87860,5
53181,88233,4
53463,88607,5
53560,88720,5
53605,88783,5
53642,88855,4
53700,88921,5
53723,88953,5
53726,88973,5
53789,89081,4
53877,89196,4
53923,89264,5
53951,89327,5
54025,89438,5
54104,89541,4
54125,89572,5
54212,89722,5
54362,89955,5
54531,90223,5
54743,90514,4
54876,90696,5
55043,90961,5
55201,91189,5
55417,91530,5
55679,91866,4
55809,92023,6
55854,92066,4
55867,92079,5
55833,92026,5
55772,91907,4
55631,91718,5
55539,91602,5
55534,91610,5
55543,91601,5
55548,91614,4
55539,91629,5
55567,91643,5
55582,91707,5
55668,91856,4
55803,92056,5
55962,92259,5
56030,92327,5
56000,92276,5
55977,92239,4
55946,92196,5
55952,92232,5
56054,92438,5
56220,92629,5
56288,92747,4
56439,92979,5
56698,93396,5
57007,93839,5
57277,94216,5
57632,94747,4
57912,95061,5
57975,95128,5
57960,95112,5
57921,95064,5
57898,95105,4
58006,95190,8
58056,95278,2
58107,95348,5
58153,95532,4
58377,95816,4
58654,96194,5
58975,96695,5
59251,97016,5
59301,96990,5
59168,96793,4
59119,96725,5
59096,96635,5
59006,96553,5
58985,96540,3
59014,96577,5
59030,96513,5
58955,96498,5
59040,96646,5
59137,96784,4
59210,96764,5
59098,96662,5
59002,96526,5
58931,96417,5
58887,96346,4
58856,96361,5
58909,96432,5
58990,96582,5
59106,96712,4
59178,96850,4
59302,97037,5
59420,97210,5
59492,97249,5
59483,97239,5
59356,97061,5
59259,96898,4
59085,96525,5
58824,96225,5
58666,96020,6
58589,95920,3
58558,95893,5
58603,95967,5
58598,95930,5
58549,95853,4
58470,95737,5
58234,95353,5
58098,95164,5
57993,95013,5
57949,95049,4
58026,95079,5
58078,95142,5
58136,95229,5
58214,95372,4
58302,95477,4
58460,95767,5
58739,96138,5
58897,96339,5
59005,96469,4
58995,96393,5
58898,96255,6
58902,96273,4
58947,96344,5
59016,96447,4
59142,96647,7
59209,96678,3
59127,96513,5
58988,96284,5
58839,96071,4
58766,95987,5
58761,95982,5
58783,96022,5
58866,96154,5
59000,96304,4
59150,96482,5
59250,96568,5
59275,96582,5
59292,96552,5
59313,96597,4
59379,96695,5
59405,96623,5
59268,96372,5
58922,95823,4
58642,95481,5
58497,95236,5
58241,94870,6
58051,94581,4
57857,94274,4
57700,94019,5
57557,93774,5
57296,93295,5
56888,92675,5
56459,92003,4
56030,91376,5
55662,90854,5
55431,90531,5
55192,90152,5
54874,89655,4
54526,89091,5
54053,88361,5
53376,87182,5
52277,85543,5
51648,84845,4
51216,84116,5
50810,83567,5
50533,83174,5
50335,82884,5
50210,82693,4
50079,82502,5
49937,82275,5
49796,82061,6
49714,81948,3
49732,82004,5
49785,82078,5
49855,82183,5
49957,82366,5
50146,82682,4
50410,83120,5
50692,83503,5
50800,83657,5
50861,83751,5
50924,83848,4
50997,83969,5
51072,84076,5
51131,84176,5
51168,84271,5
51250,84384,4
51289,84460,5
51292,84415,5
51241,84339,5
51142,84174,4
50959,83881,5
50715,83495,4
50494,83188,5
50374,83046,5
50337,82999,6
50313,82956,3
50264,82875,5
50166,82742,5
50020,82454,5
49817,82159,4
49620,81885,5
49466,81750,5
49505,81807,5
49554,81866,5
49517,81788,4
49386,81616,5
49217,81299,5
48985,80998,5
48858,80858,5
48840,80834,4
48867,80873,5
48869,80870,5
48828,80805,5
48770,80653,5
48656,80512,4
48609,80445,6
48643,80540,4
48789,80736,5
48927,80976,4
49060,81139,5
49117,81182,5
49139,81229,5
49188,81324,5
49235,81382,4
49287,81427,5
49317,81458,5
49288,81408,5
49248,81339,5
49241,81328,4
49323,81442,5
49408,81551,5
49474,81648,5
49531,81686,5
49506,81586,4
49425,81500,5
49371,81433,5
49364,81443,5
49415,81521,5
49540,81778,5
49722,82037,4
49865,82238,6
49999,82463,4
50178,82711,4
50300,82850,4
50285,82808,5
50163,82666,5
50104,82585,5
50156,82667,4
50249,82802,5
50318,82932,5
50287,82858,5
50296,82869,5
50411,83074,4
50574,83314,5
50739,83556,5
50939,83805,5
51079,83936,5
51062,83904,4
51094,83937,5
51172,84056,5
51344,84336,5
51550,84685,5
51827,85042,4
51990,85236,5
51998,85202,5
51965,85155,6
51900,85044,3
51921,85128,4
52076,85343,5
52200,85501,5
52257,85569,5
52205,85485,4
52111,85291,5
51905,84983,5
51801,84870,5
51828,84942,5
51899,85057,4
51939,85107,5
51932,85090,5
51923,85063,5
51920,85081,5
51985,85208,4
52062,85358,5
52114,85468,10
52188,85607,5
52318,85837,5
53236,87296,10
53236,87296,9
53427,87607,8
53671,87972,7
54045,88448,9
54045,88448,4
53999,88381,0
54000,88411,4
54032,88453,5
54015,88411,5
53948,88275,4
53840,88115,5
53761,87992,5
53726,87981,5
53773,88049,5
53863,88158,4
53968,88304,5
54032,88377,5
54023,88327,5
54003,88304,5
54032,88356,4
54121,88467,6
54233,88659,4
54436,88976,5
54611,89160,5
54577,89056,4
54401,88770,5
54276,88611,5
54325,88684,5
54409,88849,4
54666,89247,5
54910,89566,5
