RED,IR,EKG,TIME
26930,49944,9
26906,49932,8
26900,49940,5
26913,49934,7
26907,49920,8
26918,49930,5
26916,49908,7
26913,49929,8
26913,49929,7
26906,49871,5
26908,49938,8
26912,49944,7
26904,49944,7
26918,49995,8
26918,49995,7
26917,49951,5
26918,49941,8
26934,49946,7
26916,50009,5
26867,49952,8
26924,49951,7
26935,49974,10
26929,49967,7
26927,49971,5
26942,49979,8
26928,49940,7
26927,49966,5
26949,49970,8
26934,49966,7
26928,49969,5
26928,49970,8
26928,49970,7
26927,49939,7
26927,49967,8
26942,49971,7
26937,49999,5
26923,49976,8
26923,49976,7
26892,49969,12
26922,49964,5
26922,49960,5
26926,49969,5
26923,49956,10
26923,49956,5
26917,49949,5
26913,49910,10
26910,49933,5
26907,49939,5
26918,49946,10
26915,49952,5
26908,49946,7
26908,49946,8
26883,49954,5
26913,49967,7
26918,49965,8
26924,49967,5
26928,49959,7
26921,49968,8
26921,49968,5
26914,49964,7
26925,49958,8
26928,49967,5
26916,49965,7
26911,49907,8
26924,49965,9
26924,49965,8
26914,49965,5
26928,49987,7
26971,50001,8
26934,50000,5
26929,50011,7
26945,50020,8
26945,50020,5
26937,50004,7
26946,50015,8
26941,50011,2
26937,50008,2
26943,50007,4
26938,50037,4
26941,50011,5
26944,50014,5
26936,50018,5
26915,50017,4
26945,50019,5
26945,50013,5
26942,50007,5
26890,50016,5
26934,50006,4
26928,50007,5
26937,49998,5
26882,49999,5
26933,49990,5
26930,49991,4
26922,49984,5
26934,49984,6
26917,49988,4
26924,49991,5
26919,49975,4
26964,49987,5
26924,49976,5
26921,49982,5
26921,49977,4
26975,49989,4
26922,49991,5
26927,49981,5
26928,49996,5
26946,49994,4
26933,50000,5
26931,49996,5
26936,50012,5
26934,50011,5
26941,50027,4
26949,50038,5
26952,50028,5
26949,50006,5
26950,50027,5
26944,50028,4
26943,50022,5
26935,49975,5
26940,50021,6
26943,50012,4
26942,50011,4
26941,49986,5
26936,50016,5
26938,50022,5
26929,50005,5
26931,50032,4
26926,50014,5
26925,49995,5
26926,49987,5
26927,50063,4
26922,50008,4
26926,49998,5
26923,50006,5
26921,50043,5
26924,49995,4
26928,49997,5
26920,50002,5
26923,50017,5
26934,50006,5
26923,50004,5
26936,50006,3
26931,50006,5
26934,50012,5
26932,50002,5
26931,50009,4
26935,50002,5
26936,50014,5
26942,50037,5
26965,50057,5
26963,50070,4
26972,50078,5
26972,50088,5
26976,50082,5
26980,50086,4
26980,50091,4
26985,50090,5
26990,50096,5
26982,50091,5
26986,50092,4
26991,50101,5
26981,50104,5
26978,50093,5
26989,50085,5
26982,50093,4
26980,50080,6
26979,50085,4
26988,50091,5
26987,50095,5
26979,50089,4
26986,50093,5
26989,50103,5
26993,50115,5
27001,50121,5
27005,50117,4
27005,50110,5
26999,50123,5
26994,50116,5
27000,50123,5
26997,50127,4
26999,50116,5
27004,50120,5
27003,50133,5
27016,50144,4
27007,50133,4
27006,50120,5
26998,50118,5
26991,50107,5
26995,50094,4
26990,50091,5
26989,50090,6
26984,50078,4
26976,50085,5
26973,50067,4
26975,50062,5
26974,50062,5
26960,50053,5
26960,50051,5
26961,50036,4
26959,50023,5
26959,50027,5
26948,50009,5
26936,50002,5
26934,49980,4
26917,49975,5
26914,49959,5
26914,49962,5
26910,49963,5
26906,49955,4
26918,49953,5
26906,49952,5
26914,49943,5
26889,49933,4
26897,49925,5
26890,49910,5
26880,49901,5
26885,49909,5
26879,49912,4
26881,49908,5
26869,49907,5
26889,49903,5
26879,49905,5
26886,49904,4
26846,49895,5
26884,49893,5
26873,49892,5
26872,49881,5
26811,49878,4
26860,49872,5
26865,49862,5
26861,49860,5
26833,49861,5
26859,49863,4
26854,49856,5
26846,49855,5
26878,49830,5
26839,49826,5
26830,49822,4
26828,49811,5
26893,49810,5
26828,49807,5
26820,49802,4
26830,49794,5
26859,49802,5
26819,49796,5
26829,49804,5
26814,49804,4
26834,49802,5
26823,49802,5
26812,49798,5
26814,49793,5
26810,49764,4
26813,49776,5
26814,49777,5
26812,49777,5
26809,49715,5
26799,49766,4
26804,49770,6
26812,49776,4
26806,49716,5
26804,49779,5
26814,49774,6
26808,49772,3
26816,49792,5
26803,49767,5
26805,49766,4
26812,49766,4
26796,49818,5
26798,49762,5
26804,49761,5
26801,49758,4
26798,49814,5
26801,49756,5
26809,49751,5
26802,49763,5
26806,49783,4
26806,49759,5
26811,49758,5
26804,49756,5
26799,49761,5
26797,49763,4
26794,49752,5
26799,49752,6
26796,49748,4
26793,49749,5
26798,49741,4
26798,49746,5
26797,49742,5
26796,49750,5
26804,49751,4
26795,49745,4
26796,49737,5
26789,49732,5
26786,49732,5
26787,49738,4
26786,49718,5
26778,49722,5
26778,49718,5
26777,49713,5
26776,49717,4
26776,49713,5
26771,49715,5
26775,49705,5
26772,49709,5
26781,49714,4
26773,49716,5
26781,49712,5
26776,49710,6
26780,49711,4
26777,49706,4
26775,49708,5
26774,49714,5
26777,49703,5
26777,49710,5
26772,49713,4
26774,49703,5
26774,49698,5
26760,49696,5
26764,49700,4
26760,49682,4
26752,49677,5
26760,49672,5
26746,49681,5
26755,49670,4
26745,49673,5
26756,49668,5
26749,49670,5
26753,49673,5
26757,49668,5
26758,49668,4
26749,49666,5
26750,49668,5
26745,49669,6
26746,49669,3
26743,49668,5
26745,49659,5
26746,49657,5
26742,49660,5
26742,49654,4
26734,49647,5
26730,49637,5
26726,49617,5
26716,49614,4
26710,49620,4
26714,49607,5
26704,49611,5
26714,49609,5
26716,49602,4
26712,49607,5
26703,49594,5
26705,49601,5
26700,49586,5
26701,49589,4
26692,49593,6
26698,49580,4
26695,49588,7
26690,49588,3
26698,49591,6
26696,49596,3
26695,49591,5
26654,49596,5
26699,49585,5
26699,49584,4
26692,49574,5
26632,49574,5
26686,49562,5
26687,49561,5
26677,49557,4
26643,49562,5
26668,49556,5
26666,49549,5
26676,49559,4
26711,49559,4
26670,49555,5
26673,49555,5
26683,49551,5
26734,49547,4
26665,49554,5
26668,49551,6
26682,49561,4
26712,49555,5
26676,49561,4
26680,49564,5
26682,49566,5
26699,49561,5
26679,49564,5
26689,49563,4
26684,49555,5
26693,49549,5
26683,49567,5
26682,49565,5
26681,49569,4
26686,49522,5
26685,49576,5
26681,49573,5
26688,49566,5
26682,49512,4
26684,49576,5
26691,49573,5
26689,49573,5
26677,49579,4
26679,49561,5
26680,49569,5
26686,49567,6
26683,49612,4
26679,49567,4
26686,49568,5
26688,49574,5
26689,49640,5
26683,49581,5
26687,49583,4
26693,49574,5
26690,49616,5
26692,49584,5
26692,49590,5
26689,49581,4
26690,49590,5
26688,49578,5
26684,49577,5
26683,49576,5
26674,49566,4
26685,49563,5
26672,49552,5
26676,49556,5
26672,49536,5
26661,49526,4
26658,49529,5
26660,49527,5
26655,49519,6
26650,49515,3
26648,49514,5
26638,49509,5
26638,49494,5
26634,49488,5
26632,49484,4
26624,49480,5
26621,49468,5
26619,49462,5
26626,49460,5
26614,49456,4
26607,49442,5
26613,49451,5
26605,49443,5
26609,49437,5
26597,49430,4
26590,49428,5
26601,49413,5
26594,49400,5
26589,49402,5
26588,49397,5
26576,49392,4
26579,49389,5
26571,49378,5
26575,49389,4
26566,49382,4
26564,49377,5
26570,49369,5
26565,49373,5
26562,49361,4
26554,49362,5
26555,49362,5
26555,49357,5
26558,49357,5
26553,49356,4
26560,49364,5
26548,49353,5
26549,49357,5
26544,49348,5
26541,49339,4
26541,49340,5
26548,49348,5
26543,49343,5
26545,49336,5
26533,49327,4
26544,49329,6
26537,49332,4
26546,49340,5
26531,49335,5
26539,49330,4
26541,49331,5
26529,49318,5
26531,49322,5
26528,49317,4
26529,49307,5
26527,49318,5
26527,49310,5
26524,49306,5
26525,49315,4
26525,49317,5
26525,49321,5
26528,49316,5
26535,49322,5
26526,49326,4
26535,49332,5
26533,49320,5
26534,49328,5
26535,49332,5
26507,49329,4
26537,49325,5
26533,49330,6
26535,49334,4
26490,49326,5
26532,49333,4
26534,49330,5
26529,49332,5
26479,49324,5
26545,49324,4
26536,49320,4
26528,49334,5
26537,49323,5
26542,49338,5
26541,49333,4
26544,49334,5
26593,49346,5
26540,49345,5
26540,49343,5
26542,49346,4
26605,49345,5
26545,49338,5
26544,49346,5
26550,49345,5
26572,49349,4
26548,49345,5
26552,49351,5
26546,49352,5
26557,49343,5
26553,49355,4
26551,49353,5
26542,49345,5
26549,49313,5
26553,49347,5
26544,49344,4
26543,49341,5
26550,49297,5
26547,49335,5
26540,49342,5
26543,49340,4
26540,49312,5
26538,49336,5
26536,49333,5
26537,49340,4
26543,49368,5
26549,49342,5
26546,49334,5
26534,49334,5
26537,49396,5
26536,49336,4
26540,49328,5
26536,49328,5
26535,49376,5
26537,49333,4
26537,49348,5
26537,49340,5
26548,49352,5
26538,49351,5
26552,49351,4
26550,49352,5
26558,49355,5
26548,49357,5
26557,49360,4
26558,49360,4
26559,49368,5
26558,49370,5
26563,49370,5
26567,49371,4
26556,49377,5
26569,49382,5
26563,49376,5
26568,49373,5
26570,49376,4
26563,49389,6
26567,49382,4
26571,49383,5
26572,49382,5
26570,49387,4
26571,49378,5
26573,49387,5
26565,49378,5
26567,49391,5
26576,49388,4
26569,49383,5
26577,49377,5
26577,49382,5
26574,49382,5
26570,49395,4
26576,49382,5
26571,49387,5
26577,49398,5
26574,49395,4
26582,49393,4
26573,49384,5
26573,49383,5
26572,49386,5
26582,49392,4
26564,49380,5
26573,49387,5
26570,49380,5
26566,49375,5
26565,49369,4
26559,49361,5
26551,49359,5
26559,49349,5
26555,49356,5
26550,49352,4
26560,49362,5
26553,49351,5
26564,49361,5
26556,49348,5
26552,49351,4
26553,49358,5
26549,49352,5
26552,49358,5
26554,49348,5
26553,49357,4
26551,49352,5
26551,49350,5
26554,49352,6
26553,49361,3
26545,49357,5
26552,49360,5
26557,49359,5
26551,49352,5
26550,49355,4
26554,49352,5
26552,49347,5
26562,49355,5
26542,49354,5
26539,49348,4
26549,49348,5
26552,49350,5
26544,49354,5
26547,49344,5
26548,49358,4
26541,49346,5
26532,49350,5
26546,49339,5
26545,49351,5
26558,49354,5
26515,49361,4
26552,49356,5
26557,49355,5
26554,49356,6
26500,49359,3
26543,49355,5
26551,49345,5
26541,49357,5
26526,49348,4
26551,49353,5
26547,49356,5
26555,49352,5
26589,49356,5
26552,49356,4
26562,49361,5
26566,49365,5
26613,49376,5
26566,49365,5
26569,49379,4
26572,49394,5
26616,49396,5
26575,49397,5
26583,49398,5
26580,49404,4
26587,49405,6
26579,49402,4
26578,49403,5
26585,49403,5
26583,49379,6
26583,49412,3
26590,49422,5
26591,49425,5
26602,49385,4
26602,49431,4
26598,49441,5
26597,49443,5
26607,49394,5
26613,49446,4
26609,49449,5
26615,49461,4
26623,49466,5
26618,49467,5
26628,49477,4
26627,49481,5
26623,49532,5
26634,49483,5
26629,49494,5
26638,49496,4
26642,49561,5
26647,49499,6
26656,49504,4
26649,49508,5
26649,49540,4
26656,49521,5
26660,49519,5
26671,49544,5
26678,49551,4
26674,49557,4
26686,49563,5
26690,49572,5
26691,49581,5
26704,49581,4
26704,49597,5
26710,49600,5
26713,49601,5
26710,49602,5
26715,49603,4
26712,49597,5
26719,49612,5
26717,49606,5
26715,49616,5
26730,49608,4
26712,49609,5
26722,49617,5
26728,49625,6
26721,49619,4
26728,49627,4
26729,49623,5
26733,49627,5
26738,49637,5
26731,49642,5
26736,49640,4
26736,49637,5
26735,49644,5
26731,49638,5
26732,49639,4
26737,49639,4
26736,49635,5
26736,49642,5
26738,49641,5
26737,49641,4
26736,49630,5
26733,49637,5
26730,49637,5
26732,49622,5
26734,49632,5
26729,49637,4
26730,49637,5
26731,49629,5
26733,49626,6
26730,49632,3
26736,49631,5
26723,49622,5
26728,49631,5
26727,49624,5
26730,49632,4
26733,49629,5
26732,49628,5
26735,49630,5
26725,49640,5
26730,49639,4
26729,49639,5
26734,49649,5
26741,49639,5
26739,49648,4
26734,49652,4
26740,49640,5
26748,49654,5
26748,49649,5
26744,49658,4
26754,49657,6
26761,49660,4
26749,49670,5
26753,49672,5
26753,49669,4
26754,49660,5
26749,49658,5
26749,49658,5
26744,49663,5
26757,49659,4
26749,49667,5
26742,49657,5
26744,49656,5
26742,49659,5
26748,49658,9
26755,49659,1
26746,49661,4
26721,49640,5
26745,49665,4
26750,49665,4
26751,49660,5
26707,49667,5
26752,49668,5
26748,49658,4
26752,49660,5
26703,49672,6
26755,49671,4
26753,49673,5
26757,49669,4
26771,49671,5
26759,49673,5
26764,49672,5
26756,49676,5
26802,49670,4
26757,49680,5
26769,49678,5
26759,49676,5
26805,49673,5
26763,49678,4
26758,49672,5
26760,49680,5
26783,49670,5
26759,49678,5
26763,49677,4
26762,49674,5
26770,49666,5
26763,49674,5
26762,49681,4
26771,49670,4
26760,49636,5
26763,49685,6
26767,49684,4
26767,49687,4
26771,49636,5
26769,49683,5
26770,49686,5
26772,49694,5
26764,49675,4
26762,49692,5
26770,49693,5
26776,49695,5
26767,49725,5
26774,49686,4
26774,49691,5
26773,49692,5
26777,49747,5
26774,49699,5
26774,49694,4
26770,49694,5
26774,49729,5
26777,49685,5
26774,49693,5
26767,49689,4
26767,49695,5
26777,49687,5
26779,49699,5
26773,49702,4
26780,49718,5
26782,49716,5
26782,49713,5
26783,49717,5
26785,49713,4
26784,49712,5
26790,49708,5
26782,49709,5
26780,49700,5
26775,49708,4
26783,49702,5
26785,49697,5
26778,49700,5
26778,49702,5
26783,49701,4
26782,49700,5
26773,49704,5
26784,49699,5
26787,49694,5
26773,49702,5
26780,49705,4
26779,49696,5
26772,49701,5
26774,49699,4
26784,49704,4
26781,49705,5
26774,49704,5
26781,49704,5
26773,49705,4
26776,49705,5
26773,49701,5
26775,49693,5
26782,49696,5
26765,49693,4
26772,49707,5
26768,49691,5
26780,49704,5
26778,49706,5
26779,49697,4
26782,49696,5
26780,49712,5
26777,49707,5
26780,49709,5
26788,49698,4
26780,49705,6
26781,49701,4
26771,49707,5
26784,49698,4
26779,49710,4
26779,49702,5
26781,49700,5
26771,49707,5
26780,49699,4
26772,49709,5
26785,49708,5
26777,49713,5
26775,49709,5
26783,49713,4
26780,49703,5
26781,49706,5
26793,49718,5
26784,49724,5
26791,49722,4
26785,49721,5
26788,49725,5
26796,49719,5
26788,49734,5
26793,49733,4
26794,49738,5
26799,49740,6
26794,49735,4
26796,49742,5
26801,49738,4
26793,49735,5
26802,49747,5
26798,49745,5
26797,49733,4
26782,49739,4
26802,49735,5
26811,49741,5
26802,49739,5
26760,49735,4
26802,49748,5
26804,49744,5
26792,49743,5
26746,49734,5
26801,49736,4
26805,49738,5
26797,49736,5
26794,49743,5
26798,49742,5
26804,49743,4
26806,49741,5
26846,49740,5
26804,49744,5
26800,49747,5
26808,49737,4
26856,49741,5
26805,49745,5
26809,49750,5
26808,49750,4
26835,49743,4
26810,49743,5
26808,49744,5
26807,49745,5
26809,49747,4
26801,49747,5
26795,49742,5
26802,49734,5
26793,49703,5
26803,49735,4
26790,49724,6
26793,49731,4
26793,49682,5
26787,49736,5
26787,49731,6
26786,49726,3
26795,49694,5
26806,49736,5
26799,49736,5
26793,49740,4
26807,49777,5
26801,49745,5
26809,49747,5
26800,49747,5
26813,49810,4
26805,49740,5
26796,49746,5
26801,49738,5
26800,49779,4
26795,49730,5
26794,49732,5
26796,49726,5
26794,49751,5
26796,49735,4
26798,49734,5
26793,49734,6
26791,49739,4
26788,49729,5
26792,49730,4
26795,49734,7
26791,49736,3
26800,49730,5
26789,49722,5
26794,49720,4
26791,49730,5
26784,49730,5
26785,49727,5
26789,49731,5
26791,49723,4
26789,49724,5
26789,49727,5
26788,49727,5
26798,49721,4
26785,49731,4
26788,49737,5
26783,49735,5
26792,49730,5
26799,49733,4
26795,49736,5
26798,49742,5
26806,49741,6
26790,49738,4
26796,49724,4
26796,49727,5
26790,49732,5
26794,49728,5
26792,49741,5
26800,49733,4
26793,49732,5
26800,49735,5
26792,49735,5
26794,49725,5
26790,49731,4
26795,49733,5
26788,49726,5
26792,49724,5
26788,49718,5
26781,49721,4
26779,49725,5
26789,49714,5
26791,49730,5
26794,49735,5
26790,49731,4
26790,49740,5
26799,49740,5
26797,49740,6
26806,49754,3
26806,49760,5
26807,49753,5
26799,49764,5
26813,49768,5
26811,49774,4
26815,49783,5
26816,49775,5
26819,49781,5
26821,49784,5
26815,49785,4
26809,49787,5
26822,49796,5
26826,49790,5
26824,49800,5
26832,49805,4
26828,49806,5
26822,49801,5
26829,49813,5
26842,49808,4
26835,49815,5
26834,49813,4
26829,49807,5
26825,49811,5
26834,49813,6
26832,49814,3
26834,49810,5
26822,49815,5
26826,49817,5
26827,49817,4
26839,49822,5
26798,49820,5
26845,49820,5
26834,49825,5
26840,49835,4
26792,49826,5
26848,49841,5
26844,49837,5
26846,49847,5
26822,49847,4
26850,49854,5
26858,49858,5
26849,49854,5
26884,49856,4
26854,49858,4
26858,49851,6
26849,49858,4
26913,49854,5
26851,49856,4
26849,49850,5
26856,49850,5
26891,49855,5
26855,49858,5
26866,49863,4
26870,49865,5
26878,49860,5
26863,49873,5
26871,49873,5
26870,49873,4
26869,49846,5
26879,49868,5
26863,49873,5
26861,49867,5
26859,49814,4
26862,49867,5
26864,49861,5
26868,49873,5
26864,49807,5
26872,49876,4
26868,49871,5
26880,49875,6
26876,49891,4
26878,49876,4
26883,49882,5
26879,49882,5
26873,49937,5
26876,49874,5
26879,49888,4
26880,49879,5
26882,49938,5
26879,49887,5
26882,49878,5
26884,49884,4
26882,49906,5
26878,49883,5
26879,49879,5
26887,49890,5
26877,49881,4
26886,49877,5
26883,49881,5
26881,49881,5
26876,49888,5
26871,49880,4
26878,49890,5
26883,49874,5
26875,49876,6
26880,49882,3
26874,49877,4
26872,49870,5
26885,49873,5
26877,49874,5
26877,49869,4
26878,49872,5
26867,49868,5
26875,49853,5
26872,49864,5
26872,49861,4
26869,49867,5
26874,49861,5
26865,49866,5
26874,49860,5
26874,49866,4
26873,49875,5
26878,49873,5
26881,49880,5
26873,49885,5
26879,49887,5
26882,49884,4
26878,49887,5
26875,49879,5
26876,49882,5
26877,49896,4
26885,49885,5
26887,49890,5
26877,49888,5
26881,49885,4
26878,49883,5
26883,49884,5
26887,49896,5
26883,49888,5
26885,49890,4
26881,49896,5
26882,49884,5
26885,49882,5
26888,49893,5
26889,49886,4
26896,49889,5
26885,49888,5
26881,49885,5
26875,49881,5
26877,49883,4
26887,49891,6
26888,49877,4
26873,49872,5
26882,49876,5
26873,49877,4
26879,49871,5
26878,49872,5
26874,49872,5
26875,49871,4
26874,49872,4
26868,49873,5
26884,49864,5
26880,49880,5
26880,49872,4
26873,49881,5
26886,49881,5
26873,49880,5
26876,49882,5
26887,49882,4
26885,49886,5
26885,49881,5
26885,49874,5
26874,49878,5
26873,49876,4
26882,49879,5
26882,49879,6
26881,49880,4
26861,49870,7
26880,49884,2
26877,49874,5
26887,49882,5
26826,49884,5
26895,49887,5
26878,49884,4
26890,49884,5
26843,49890,5
26883,49894,5
26889,49891,4
26888,49892,5
26907,49889,5
26883,49888,5
26886,49884,5
26890,49894,4
26935,49883,5
26878,49877,5
26895,49882,5
26880,49868,5
26931,49877,4
26879,49877,5
26874,49880,5
26886,49876,5
26898,49865,5
26882,49880,4
26871,49878,5
26870,49867,5
26887,49863,5
26879,49872,5
26878,49868,4
26871,49870,5
26872,49822,5
26877,49861,5
26873,49873,5
26880,49868,4
26875,49807,5
26868,49865,5
26868,49867,5
26872,49865,4
26878,49854,5
26869,49859,5
26873,49853,5
26873,49862,5
26872,49906,5
26874,49862,4
26868,49867,5
26873,49867,5
26870,49927,5
26876,49868,4
26873,49869,5
26881,49870,5
26875,49908,5
26876,49866,5
26873,49859,4
26882,49866,5
26873,49880,5
26872,49863,5
26876,49870,5
26873,49868,4
26876,49863,5
26872,49864,5
26875,49861,5
26868,49860,4
26869,49863,4
26874,49869,5
26869,49862,5
26874,49861,5
26874,49863,4
26863,49869,6
26874,49858,4
26871,49857,5
26862,49861,5
26874,49862,4
26875,49862,5
26871,49857,5
26874,49864,5
26876,49862,5
26874,49861,4
26868,49860,5
26868,49863,5
26877,49866,5
26868,49858,5
26864,49860,4
26871,49846,5
26869,49842,5
26857,49843,5
26861,49850,5
26866,49844,4
26868,49843,5
26857,49842,5
26857,49842,5
26859,49836,4
26860,49832,5
26860,49836,6
26853,49842,4
26854,49831,5
26862,49842,4
26859,49838,5
26854,49843,5
26859,49844,5
26865,49839,5
26852,49841,4
26850,49834,5
26862,49839,5
26855,49844,5
26855,49836,5
26855,49832,4
26861,49829,5
26855,49836,5
26857,49836,5
26856,49832,5
26856,49835,4
26855,49833,5
26850,49832,5
26860,49828,5
26850,49834,4
26861,49835,4
26855,49834,5
26857,49833,5
26847,49831,5
26852,49832,4
26854,49828,5
26859,49832,5
26853,49826,5
26848,49832,5
26854,49832,4
26849,49829,5
26861,49828,5
26850,49819,5
26857,49822,5
26856,49831,4
26848,49820,5
26851,49830,5
26847,49826,5
26860,49824,5
26844,49829,5
26837,49831,4
26845,49825,5
26857,49827,5
26857,49834,6
26816,49828,3
26847,49832,5
26861,49829,5
26853,49833,5
26800,49837,4
26850,49824,4
26851,49826,5
26855,49824,5
26846,49830,5
26855,49829,4
26855,49821,5
26857,49820,5
26900,49828,5
26846,49824,5
26851,49824,4
26851,49826,5
26905,49826,5
26858,49830,5
26845,49829,5
26848,49827,4
26888,49827,6
26849,49828,4
26856,49831,5
26852,49828,5
26863,49836,6
26858,49831,3
26859,49826,5
26857,49834,5
26847,49805,5
26847,49829,4
26850,49815,5
26851,49825,5
26842,49771,5
26844,49820,4
26842,49822,5
26843,49825,5
26845,49768,5
26850,49815,5
26846,49823,5
26851,49828,4
26847,49842,5
26853,49829,5
26843,49829,5
26849,49823,4
26840,49884,5
26854,49826,6
26839,49821,4
26854,49825,5
26847,49869,4
26852,49819,5
26846,49824,5
26841,49814,5
26842,49843,5
26841,49814,4
26839,49818,5
26843,49810,5
26847,49818,5
26839,49813,4
26842,49816,4
26840,49817,5
26843,49819,5
26856,49819,5
26846,49814,4
26839,49813,5
26844,49814,5
26837,49817,5
26839,49817,5
26841,49824,4
26844,49826,5
26841,49819,5
26847,49812,6
26841,49821,4
26849,49818,4
26846,49815,5
26848,49825,5
26847,49819,5
26850,49818,5
26850,49824,4
26847,49830,5
26845,49839,5
26854,49828,5
26847,49835,5
26852,49820,4
26855,49826,5
26850,49830,5
26856,49820,5
26852,49830,4
26850,49823,5
26852,49831,5
26853,49833,5
26847,49830,5
26854,49827,5
26854,49835,4
26859,49829,5
26852,49828,5
26851,49837,6
26858,49834,3
26844,49831,5
26849,49832,5
26852,49829,5
26855,49834,5
26859,49840,4
26855,49838,5
26853,49840,5
26859,49841,5
26862,49846,5
26865,49853,4
26865,49852,5
26855,49855,5
26863,49852,5
26874,49849,4
26858,49842,4
26862,49843,5
26855,49839,5
26852,49835,5
26856,49831,4
26850,49836,6
26848,49832,4
26854,49832,5
26849,49838,5
26846,49829,4
26862,49834,5
26854,49831,5
26851,49837,5
26855,49829,5
26846,49828,4
26845,49819,5
26855,49819,5
26856,49827,5
26851,49825,5
26844,49828,4
26847,49820,5
26855,49828,5
26855,49836,5
26851,49828,5
26853,49819,4
26849,49817,5
26815,49817,5
26850,49818,5
26850,49818,4
26838,49823,5
26795,49821,6
26846,49820,4
26841,49818,5
26856,49821,4
26813,49833,5
26847,49828,5
26842,49819,5
26841,49823,5
26873,49827,4
26843,49817,5
26853,49810,5
26851,49823,5
26899,49823,5
26845,49826,4
26844,49828,5
26851,49823,5
26894,49826,5
26843,49821,5
26849,49825,4
26849,49831,5
26861,49827,5
26849,49834,5
26851,49830,4
26855,49836,4
26859,49807,5
26848,49837,6
26860,49832,4
26857,49840,4
26857,49784,5
26863,49839,5
26852,49834,5
26859,49833,5
26857,49794,4
26854,49837,5
26857,49833,5
26853,49841,5
26854,49832,5
26856,49836,4
26863,49841,5
26847,49839,5
26859,49876,5
26859,49843,5
26860,49830,4
26862,49840,5
26856,49905,5
26863,49839,5
26860,49835,5
26865,49841,4
26856,49871,5
26857,49840,5
26859,49840,6
26859,49838,3
26860,49833,4
26853,49829,5
26853,49829,5
26856,49838,5
26848,49837,4
26864,49831,5
26860,49844,5
26865,49845,5
26870,49847,5
26871,49843,4
26869,49859,5
26861,49850,5
26868,49851,5
26868,49847,5
26864,49844,4
26863,49843,5
26859,49837,5
26854,49837,5
26857,49832,5
26857,49835,5
26856,49836,4
26857,49833,5
26847,49834,5
26862,49842,5
26851,49841,4
26856,49839,5
26855,49833,5
26854,49834,5
26866,49838,4
26856,49845,5
26860,49833,5
26865,49833,5
26860,49847,5
26851,49841,4
26854,49840,5
26852,49841,5
26860,49831,5
26860,49839,5
26866,49838,4
26856,49839,5
26871,49844,5
26866,49840,5
26864,49847,5
26855,49844,4
26865,49842,6
26857,49846,4
26861,49850,5
26859,49838,5
26870,49847,4
26867,49853,5
26858,49848,5
26879,49852,5
26869,49854,4
26873,49858,4
26878,49863,5
26872,49857,5
26868,49860,5
26873,49856,4
26873,49862,5
26880,49872,5
26874,49873,5
26882,49861,5
26883,49860,4
26882,49868,5
26886,49876,5
26880,49864,5
26882,49865,5
26889,49871,4
26878,49876,5
26884,49867,6
26882,49879,4
26883,49871,5
26876,49865,4
26872,49870,5
26884,49866,5
26876,49875,5
26887,49875,5
26880,49877,4
26880,49879,5
26887,49867,5
26884,49869,5
26860,49878,4
26881,49871,5
26883,49878,5
26887,49875,6
26841,49887,4
26884,49877,4
26893,49873,5
26877,49881,5
26831,49871,5
26888,49889,5
26889,49884,4
26889,49878,5
26885,49884,5
26889,49875,5
26893,49881,5
26889,49873,4
26937,49879,5
26886,49880,5
26879,49884,5
26884,49886,5
26947,49880,4
26893,49885,5
26883,49887,5
26896,49882,5
26910,49877,4
26895,49884,4
26893,49892,5
26891,49896,5
26894,49887,5
26894,49892,4
26896,49894,6
26895,49890,4
26890,49844,5
26894,49887,5
26889,49881,6
26898,49889,3
26885,49840,5
26885,49886,5
26890,49879,5
26885,49882,4
26881,49850,5
26892,49883,5
26890,49873,5
26887,49882,5
26880,49912,4
26889,49877,5
26897,49886,5
26891,49889,5
26895,49957,5
26901,49904,4
26900,49898,5
26898,49908,5
26902,49950,5
26902,49907,4
26908,49909,4
26904,49907,5
26899,49929,4
26900,49911,5
26906,49904,4
26908,49893,6
26892,49894,3
26901,49891,5
26897,49890,5
26901,49888,4
26895,49894,5
26891,49891,5
26894,49893,5
26890,49894,5
26898,49899,4
26893,49895,5
26893,49893,5
26894,49901,5
26891,49897,5
26902,49895,4
26899,49890,5
26893,49898,5
26898,49900,5
26898,49891,4
26885,49887,4
26890,49890,5
26895,49896,6
26895,49884,4
26885,49891,4
26893,49892,5
26892,49886,5
26898,49891,5
26886,49894,5
26890,49889,4
26898,49888,5
26895,49900,5
26891,49891,5
26893,49895,5
26893,49900,4
26891,49894,5
26897,49892,5
26898,49894,5
26893,49898,5
26901,49894,4
26899,49892,5
26895,49890,5
26904,49895,5
26900,49903,5
26892,49893,4
26902,49904,5
26902,49894,5
26898,49902,6
26899,49897,3
26907,49893,4
26907,49898,5
26898,49902,5
26906,49900,5
26908,49905,4
26899,49906,5
26913,49904,5
26909,49915,5
26906,49910,5
26908,49911,4
26903,49912,5
26910,49914,5
26909,49913,5
26914,49917,5
26911,49914,4
26906,49916,5
26918,49910,5
26909,49913,5
26901,49915,5
26914,49916,5
26913,49914,4
26917,49917,5
26909,49915,5
26902,49920,6
26908,49915,3
26911,49914,5
26907,49918,5
26908,49915,5
26908,49922,4
26920,49916,5
26900,49928,5
26914,49928,5
26910,49921,5
26915,49924,4
26890,49931,5
26919,49926,5
26916,49929,5
26911,49924,5
26861,49923,4
26916,49934,5
26913,49921,5
26906,49929,5
26892,49922,5
26908,49924,4
26904,49920,6
26920,49926,4
26953,49925,5
26911,49925,5
26923,49924,4
26911,49929,5
26971,49920,5
26913,49928,5
26914,49928,4
26917,49930,4
26958,49936,5
26921,49934,5
26918,49933,5
26917,49935,4
26932,49927,5
26919,49925,5
26916,49929,5
26915,49920,5
26913,49900,4
26913,49909,5
26908,49916,5
26909,49910,5
26906,49865,5
26902,49917,4
26910,49909,5
26903,49910,6
26911,49859,4
26910,49918,5
26914,49919,5
26921,49929,4
26910,49931,5
26916,49937,5
26919,49935,5
26925,49938,4
26928,49984,5
26916,49944,5
26922,49926,5
26921,49928,4
26917,49993,4
26918,49925,5
26913,49935,5
26911,49923,5
26920,49956,4
26918,49930,5
26917,49927,5
26919,49923,5
26918,49923,5
26920,49928,4
26912,49934,5
26920,49932,5
26914,49936,6
26920,49929,4
26916,49932,4
26914,49926,5
26925,49923,5
26918,49937,5
26921,49935,5
26923,49923,4
26916,49933,5
26914,49931,5
26914,49918,5
26919,49929,4
26916,49927,4
26920,49934,5
26915,49935,5
26911,49932,5
26919,49933,4
26917,49936,5
26926,49943,5
26914,49943,5
26926,49946,5
26921,49948,5
26926,49946,4
26921,49954,5
26923,49951,5
26927,49948,6
26921,49957,3
26926,49949,5
26933,49954,5
26932,49958,5
26924,49956,5
26936,49959,4
26927,49963,5
26931,49966,5
26929,49969,5
26927,49959,5
26934,49967,4
26931,49974,5
26931,49980,5
26939,49978,5
26930,49990,4
26937,49989,4
26935,49999,5
26946,50002,5
26952,49992,5
26943,50012,4
26957,49996,6
26954,50009,4
26949,50015,5
26954,50020,5
26952,50028,4
26966,50042,5
26966,50049,5
26972,50056,5
26974,50072,5
26979,50065,4
26990,50064,5
26977,50067,5
26976,50064,5
26984,50072,5
26986,50085,4
26989,50083,5
26995,50091,5
27002,50086,5
26994,50089,5
26995,50092,4
26994,50102,5
26992,50092,5
26996,50102,5
27002,50106,4
26997,50107,5
27005,50106,6
27000,50105,4
26991,50100,5
26997,50109,4
27005,50112,5
27006,50112,5
26983,50114,5
27006,50113,5
27005,50119,4
27003,50132,5
26957,50127,5
27006,50116,5
26999,50121,5
27004,50108,4
26951,50119,5
27000,50111,5
27010,50112,5
26994,50109,5
27004,50108,4
26995,50119,5
26994,50115,5
26998,50111,5
27045,50114,4
27001,50114,4
27006,50124,5
27002,50126,6
27065,50120,4
27007,50120,4
27018,50132,5
27011,50141,5
27037,50138,5
27013,50146,5
27024,50150,4
27027,50149,5
27024,50153,5
27018,50165,5
27030,50164,5
27021,50161,4
27031,50126,5
27020,50167,5
27025,50158,5
27025,50162,5
27026,50118,4
27022,50170,5
27028,50177,5
27037,50174,5
27034,50149,5
27032,50178,4
27031,50181,5
27035,50188,5
27030,50223,5
27039,50200,4
27050,50198,5
27044,50196,5
27047,50262,5
27044,50206,5
27046,50201,4
27049,50203,5
27047,50249,5
27054,50206,5
27055,50214,5
27051,50205,4
27041,50217,5
27046,50212,5
27050,50209,5
27049,50208,5
27058,50215,4
27051,50217,5
27059,50213,5
27055,50218,5
27059,50235,5
27057,50227,5
27051,50224,4
27054,50220,5
27055,50223,5
27059,50215,4
27055,50217,4
27057,50224,5
27060,50235,5
27054,50219,5
27054,50221,4
27059,50230,5
27053,50226,5
27060,50217,5
27051,50222,5
27062,50213,4
27051,50226,5
27066,50229,5
27068,50238,5
27058,50241,5
27062,50238,4
27068,50237,5
27074,50247,5
27065,50254,5
27076,50248,5
27080,50244,4
27077,50259,6
27077,50258,4
27074,50254,5
27079,50259,5
27088,50262,4
27087,50264,5
27074,50260,5
27085,50263,5
27078,50264,4
27076,50266,5
27084,50269,5
27071,50255,5
27083,50262,5
27075,50269,4
27077,50262,5
27084,50264,5
27080,50268,5
27086,50280,5
27094,50276,4
27086,50274,5
27094,50285,5
27087,50282,5
27094,50284,5
27089,50285,4
27098,50294,5
27096,50289,5
27099,50295,5
27103,50301,5
27099,50306,4
27103,50297,5
27103,50289,5
27097,50293,5
27101,50283,4
27097,50281,4
27088,50282,5
27087,50279,5
27087,50273,5
27086,50263,4
27090,50266,5
27082,50270,5
27083,50280,5
27087,50267,5
27088,50277,4
27095,50289,4
27105,50293,5
27106,50312,5
27110,50311,6
27104,50311,3
27120,50317,5
27116,50311,5
27106,50300,5
27062,50299,5
27109,50301,7
27099,50304,2
27101,50297,5
27044,50289,5
27093,50279,5
27096,50276,4
27089,50263,5
27069,50264,5
27071,50264,5
27077,50254,4
27072,50254,4
27115,50250,5
27070,50254,5
27080,50245,5
27079,50241,4
27134,50239,6
27076,50239,4
27070,50234,5
27063,50231,5
27100,50238,6
27061,50231,3
27060,50234,5
27060,50216,5
27070,50221,5
27061,50219,4
27050,50219,5
27053,50211,5
27050,50187,5
27057,50221,5
27049,50204,4
27053,50218,5
27053,50157,5
27051,50194,5
27045,50212,5
27054,50193,4
27052,50155,5
27041,50197,5
27043,50188,5
27046,50181,4
27042,50190,5
27026,50151,6
27009,50104,4
26985,50074,5
26973,50108,4
26962,50032,5
26946,50010,5
26949,49998,5
26941,50054,5
26928,50004,4
26949,50013,5
26948,50032,5
26953,50068,5
26961,50048,5
26966,50058,4
26970,50068,5
26984,50072,5
26984,50088,5
26986,50104,5
26999,50104,4
27013,50122,5
27022,50119,5
27017,50131,5
27017,50133,4
27015,50144,4
27018,50147,5
27018,50146,6
27026,50149,4
27018,50145,4
27026,50151,5
27031,50150,5
27029,50154,5
27029,50150,5
27028,50159,4
27033,50161,5
27029,50164,5
27025,50165,5
27038,50159,5
27032,50162,4
27027,50161,5
27027,50154,5
27025,50146,5
27023,50145,5
27030,50133,4
27016,50149,5
27033,50138,5
27014,50144,5
27022,50133,5
27020,50147,4
27028,50141,5
27027,50137,5
27027,50152,6
27031,50147,3
27024,50154,4
27026,50151,5
27030,50156,5
27022,50146,5
27031,50142,4
27027,50141,5
27022,50139,5
27021,50139,5
27018,50132,5
27015,50128,4
27014,50124,5
27014,50134,5
27020,50121,5
27010,50126,5
27019,50131,4
27016,50126,5
27007,50121,5
27002,50122,5
27014,50104,5
27005,50109,5
27010,50110,4
27004,50112,5
27009,50114,5
27003,50114,6
27013,50115,3
27011,50114,5
27012,50119,5
27013,50115,5
27005,50110,4
27008,50117,5
27007,50112,5
27006,50103,5
27009,50107,5
27008,50103,4
26997,50104,5
27000,50103,5
26999,50102,5
27003,50114,5
27003,50097,4
27004,50104,5
27004,50100,5
27005,50099,5
27000,50091,5
26993,50093,4
26965,50100,6
27000,50100,4
26993,50098,5
26997,50099,5
26942,50092,4
27002,50099,5
26998,50099,5
26995,50090,5
26968,50090,4
26996,50091,4
26994,50094,5
26988,50099,5
27032,50089,5
26986,50093,4
27005,50088,5
26991,50088,5
27052,50093,5
26996,50081,5
26991,50089,4
26994,50087,5
27032,50089,5
26994,50081,5
26992,50087,5
26998,50083,4
26998,50076,5
26993,50089,6
26989,50088,4
26992,50090,5
26993,50057,4
26999,50082,5
26993,50080,5
26986,50093,5
26990,50030,5
26989,50086,4
27000,50083,5
26991,50083,5
26995,50030,5
26995,50079,4
26987,50078,6
26991,50075,4
26990,50080,5
26987,50071,5
26992,50075,4
26987,50070,5
26988,50119,5
26981,50065,5
26980,50071,5
26985,50069,4
26981,50133,5
26987,50066,5
26986,50075,6
26984,50074,4
26988,50095,4
26992,50082,5
26980,50077,5
26995,50077,5
26991,50078,5
26984,50069,4
26981,50067,5
26982,50065,5
26980,50057,5
26970,50053,4
26978,50055,4
26980,50057,5
26978,50055,5
26967,50053,5
26976,50054,4
26971,50055,5
26972,50042,5
26969,50049,5
26963,50049,5
26969,50039,5
26975,50044,4
26970,50037,5
26965,50035,5
26965,50038,5
26966,50039,4
26967,50040,5
26967,50038,5
26958,50027,5
26954,50034,5
26961,50041,4
26961,50033,5
26956,50029,5
26963,50031,5
26958,50031,5
26961,50024,4
26952,50032,5
26959,50027,5
26958,50032,5
26954,50025,4
26962,50029,5
26957,50025,5
26951,50027,5
26957,50023,5
26964,50030,4
26954,50023,6
26956,50029,4
26957,50024,5
26954,50018,5
26953,50026,4
26950,50017,5
26952,50015,5
26956,50017,5
26954,50019,5
26964,50025,4
26951,50021,5
26967,50019,5
26952,50025,5
26951,50028,5
26950,50019,4
26957,50027,5
26962,50020,5
26964,50027,5
26962,50042,4
26957,50026,4
26955,50027,5
26956,50020,5
26955,50021,5
26957,50031,4
26952,50030,5
26960,50024,6
26956,50020,4
26953,50021,5
26950,50021,4
26961,50021,5
26950,50017,5
26947,50014,5
26953,50024,5
26947,50020,4
26955,50022,5
26952,50020,5
26954,50020,5
26950,50016,5
26947,50017,4
26955,50014,5
26947,50022,5
26928,50021,5
26955,50027,5
26952,50032,4
26953,50023,5
26902,50025,5
26948,50020,5
26961,50030,4
26964,50035,4
26914,50028,5
26963,50024,5
26965,50025,5
26957,50028,4
26962,50022,5
26956,50015,5
26953,50009,5
26949,50011,5
27000,50007,4
26947,50008,5
26949,50002,5
26948,49998,5
27002,50004,5
26942,50014,4
26943,50013,5
26947,50013,5
26962,49997,5
26937,50005,5
26939,50012,5
26946,50005,4
26943,49990,5
26940,49995,5
26945,50002,6
26942,49997,3
26927,49952,5
26928,49996,5
26927,49991,5
26931,49988,4
26938,49938,5
26930,49979,5
26942,49985,5
26932,49986,5
26939,49949,4
26921,49978,5
26930,49982,5
26925,49977,5
26927,50021,5
26922,49978,4
26932,49979,5
26931,49984,5
26933,50043,5
26931,49981,5
26933,49982,4
26922,49989,5
26928,50025,5
26936,49995,5
26934,49987,5
26939,49973,5
26925,49996,4
26927,49978,5
26928,49979,5
26926,49986,4
26931,49986,4
26931,49982,5
26937,49986,5
26932,49974,5
26929,49978,4
26930,49971,5
26929,49976,5
26924,49979,5
26922,49975,5
26921,49976,4
26926,49976,5
26931,49976,5
26926,49973,5
26932,49983,5
26921,49967,4
26927,49978,5
26925,49973,6
26926,49970,4
26929,49978,5
26925,49985,4
26932,49977,7
26929,49986,3
26927,49973,5
26925,49978,5
26925,49982,4
26928,49972,5
26929,49979,5
26921,49964,5
26924,49970,4
26927,49967,5
26920,49976,5
26930,49985,5
26928,49969,5
26929,49978,4
26934,49973,5
26927,49985,5
26938,49979,5
26930,49985,5
26933,49978,4
26929,49982,5
26929,49982,5
26939,49989,6
26927,49988,4
26933,49982,4
26930,49982,5
26936,49981,5
26933,49983,5
26927,49984,5
26934,49992,4
26925,49980,5
26932,49988,5
26933,49987,5
26926,49980,4
26938,49991,4
26929,49993,5
26940,49990,5
26937,49986,5
26939,49987,4
26933,49982,5
26930,49976,5
26933,49977,5
26929,49989,5
26934,49979,5
26936,49978,4
26931,49991,5
26931,49983,5
26933,49981,6
26932,49978,3
26925,49974,5
26932,49988,5
26930,49978,5
26935,49989,5
26937,49987,4
26937,49983,5
26941,49990,5
26936,49995,5
26944,49993,5
26922,49990,4
26942,49988,5
26940,49993,5
26937,49990,5
26896,50000,4
26941,49988,4
26936,50000,5
26934,49997,5
26880,50005,5
26945,50001,4
26940,49998,6
26943,49995,4
26923,49988,5
26945,49992,5
26945,49991,6
26948,49996,3
26974,49996,5
26940,49999,5
26938,50002,5
26944,49998,4
26997,50007,5
26948,50003,5
26941,49999,5
26940,49995,5
26993,50005,4
26947,50004,5
26946,49998,5
26949,50000,5
26962,50007,4
26947,50007,4
26947,50003,5
26948,49997,5
26948,49980,5
26951,50002,4
26946,50016,5
26960,50009,6
26949,49966,4
26950,50003,5
26951,50004,5
26951,50007,4
26950,49957,5
26954,50015,5
26956,50013,5
26944,50005,4
26954,50019,5
26950,50015,5
26946,50008,5
26956,50016,5
26956,50068,4
26949,50013,5
26954,50016,5
26954,50015,5
26957,50065,5
26956,50010,4
26950,50016,5
26954,50009,5
26951,50031,5
26953,50011,4
26949,50011,4
26949,50007,5
26957,50014,6
26945,50002,4
26939,50004,4
26951,50010,5
26945,50000,5
26942,50004,5
26949,49998,5
26944,49996,4
26943,49991,5
26946,49996,5
26938,50000,5
26947,49994,5
26952,50006,4
26954,50004,5
26953,50015,5
26962,50026,5
26961,50029,5
26958,50024,4
26961,50041,5
26969,50029,5
26976,50041,5
26960,50033,5
26966,50028,4
26966,50031,5
26964,50025,5
26964,50027,6
26967,50026,3
26963,50025,5
26967,50036,5
26971,50027,5
26959,50027,5
26968,50038,4
26967,50031,5
26962,50040,5
26967,50031,5
26966,50029,5
26967,50030,4
26967,50038,5
26972,50033,5
26967,50038,5
26971,50034,5
26972,50036,4
26969,50038,5
26962,50027,5
26974,50031,5
26965,50034,5
26969,50026,5
26971,50028,4
26972,50021,5
26962,50031,5
26958,50026,4
26966,50019,4
26968,50029,5
26951,50026,5
26952,50031,5
26964,50033,4
26966,50022,5
26973,50027,5
26963,50025,5
26971,50034,5
26966,50036,4
26967,50030,5
26968,50036,5
26965,50046,5
26971,50035,5
26973,50044,4
26969,50026,5
26972,50034,5
26969,50039,5
26976,50038,5
26969,50041,4
26962,50040,6
26966,50033,4
26968,50039,5
26974,50035,5
26970,50041,4
26969,50034,5
26970,50039,5
26973,50044,5
26966,50040,4
26972,50047,4
26950,50049,5
26974,50045,5
26977,50048,5
26976,50048,4
26929,50040,5
26972,50047,5
26974,50043,5
26971,50052,5
26916,50047,4
26981,50039,5
26981,50053,5
26983,50037,5
26978,50045,5
26969,50039,4
26975,50038,5
26971,50050,6
27027,50045,4
26971,50047,5
26982,50047,4
26975,50051,5
27030,50049,5
26974,50046,5
26968,50044,4
26976,50047,4
27002,50046,5
26974,50042,5
26974,50049,5
26964,50044,4
26978,50039,5
26973,50038,5
26970,50031,5
26966,50037,5
26971,50004,4
26971,50031,5
26967,50045,5
26961,50038,5
26974,49993,5
26980,50040,4
26972,50048,5
26965,50038,5
26980,50013,6
26982,50049,4
26972,50041,5
26980,50056,4
26973,50079,5
26983,50058,5
26971,50049,5
26972,50043,4
26972,50107,5
26980,50058,5
26986,50050,5
26984,50058,4
26981,50104,4
26988,50064,5
26988,50061,5
26980,50069,5
26984,50083,4
26981,50060,5
26983,50064,5
26985,50057,5
26980,50055,5
26982,50056,5
26972,50046,4
26981,50049,5
26966,50055,5
26971,50049,5
26973,50039,4
26971,50045,5
26966,50055,5
26979,50061,5
26983,50068,5
26985,50071,4
26996,50080,5
26994,50089,5
26996,50095,5
26998,50088,5
26998,50093,4
27001,50099,5
26996,50096,5
26987,50087,5
27001,50092,4
27003,50092,4
27001,50097,5
26996,50097,5
26999,50089,5
26993,50093,4
26990,50091,6
26997,50086,4
26994,50086,5
26992,50093,5
26991,50096,4
26993,50089,5
26998,50090,5
27002,50091,5
26998,50091,5
26996,50085,4
26996,50094,5
26995,50085,5
26999,50098,5
27001,50096,5
27003,50109,4
27005,50109,5
27003,50109,5
27000,50108,5
27005,50110,4
27009,50107,4
27004,50110,5
27008,50128,5
27009,50124,5
27017,50134,4
27020,50139,5
27017,50143,6
27025,50144,4
27028,50142,5
27031,50149,4
27019,50148,5
27020,50143,5
27021,50137,5
27023,50139,5
27013,50140,4
27026,50141,5
27014,50152,5
27025,50149,5
27027,50151,5
27028,50157,4
27030,50157,5
27028,50149,5
27028,50151,5
27028,50159,5
27028,50157,4
27035,50153,5
27032,50160,5
27021,50150,5
27034,50158,4
27038,50163,5
27037,50162,5
27034,50168,5
27028,50178,5
27048,50180,4
27043,50177,5
27047,50175,5
27006,50177,5
27046,50178,5
27046,50182,4
27035,50175,5
26992,50178,5
27042,50178,5
27045,50183,5
27051,50180,4
27023,50181,5
27042,50176,5
27043,50186,5
27039,50182,5
27070,50176,4
27046,50178,4
27042,50182,5
27046,50172,5
27103,50175,6
27048,50173,3
27044,50168,5
27036,50177,5
27080,50171,5
27040,50170,4
27049,50177,5
27048,50177,5
27054,50177,5
27041,50179,5
27040,50175,4
27047,50177,5
27039,50156,5
27033,50163,5
27032,50166,5
27036,50163,4
27029,50111,5
27028,50153,5
27029,50150,5
27028,50147,5
27025,50088,4
27017,50145,6
27015,50134,4
27013,50137,5
27011,50151,5
27016,50140,6
27013,50139,3
27016,50146,5
27029,50206,5
27032,50161,4
27036,50158,4
27030,50166,5
27032,50228,5
27026,50170,5
27037,50164,4
27033,50166,5
27029,50183,5
27030,50151,5
27021,50149,5
27026,50154,4
27018,50151,5
27026,50145,5
27020,50153,5
27030,50149,5
27030,50158,4
27026,50159,5
27022,50168,6
27034,50164,4
27035,50167,5
27028,50172,4
27034,50174,5
27035,50175,5
27036,50176,5
27037,50176,4
27034,50174,4
27041,50176,5
27032,50169,5
27028,50174,5
27034,50180,4
27036,50172,5
27034,50181,5
27030,50181,5
27038,50178,5
27052,50179,4
27040,50189,5
27040,50185,5
27037,50184,5
27047,50183,5
27047,50185,4
27038,50193,5
27046,50190,5
27047,50188,6
27046,50193,4
27049,50189,4
27047,50193,5
27037,50193,5
27040,50188,5
27040,50183,5
27039,50180,4
27027,50181,5
27032,50177,5
27034,50169,5
27033,50180,4
27036,50167,4
27038,50176,5
27032,50177,5
27034,50181,5
27039,50178,4
27038,50187,5
27034,50181,5
27037,50180,5
27032,50181,5
27045,50188,5
27041,50192,4
27048,50195,5
27051,50201,5
27040,50187,6
27043,50194,3
27044,50196,5
27039,50199,5
27037,50197,5
27034,50185,5
27042,50188,4
27046,50184,5
27047,50195,5
27033,50186,5
27037,50192,5
27046,50180,4
27049,50182,5
27040,50182,5
27039,50181,5
27043,50188,4
27049,50191,5
27042,50189,5
27044,50194,5
27043,50192,5
27043,50201,4
27046,50189,6
27042,50190,4
27047,50194,5
27048,50195,5
27020,50192,4
27047,50191,5
27047,50194,5
27051,50187,5
26995,50189,5
27047,50183,4
27044,50190,8
27046,50182,2
26992,50180,5
27066,50179,5
27041,50187,4
27044,50179,5
27054,50186,5
27036,50187,5
27043,50174,4
27044,50172,4
27083,50180,5
27041,50174,5
27034,50176,5
27036,50164,4
27089,50167,5
27023,50152,6
27026,50152,4
27025,50159,5
27048,50147,4
27020,50147,5
27026,50146,5
27018,50151,5
27030,50136,5
27023,50153,4
27027,50143,5
27031,50163,5
27030,50125,5
27034,50162,5
27035,50162,4
27029,50165,5
27028,50117,5
27038,50162,5
27038,50155,5
27026,50162,4
27030,50126,5
27033,50153,5
27016,50153,5
27021,50145,4
27026,50176,5
27022,50142,5
27018,50140,6
27021,50148,4
27024,50200,4
27027,50135,5
27018,50142,5
27027,50141,5
27024,50182,5
27016,50135,4
27016,50143,5
27010,50135,5
27021,50150,5
27014,50144,5
27022,50139,4
27023,50133,5
27013,50135,5
27018,50135,5
27017,50132,5
27016,50138,4
27011,50141,5
27020,50135,5
27023,50131,5
27018,50128,5
27009,50129,4
27012,50134,5
27010,50132,5
27021,50123,6
27009,50136,3
27018,50127,5
27008,50120,5
27010,50114,5
27006,50112,5
26995,50113,4
27004,50102,5
27008,50109,5
26997,50104,5
26998,50112,5
27003,50103,4
26995,50099,5
26990,50086,5
26979,50077,5
26974,50063,5
26978,50052,4
26965,50054,5
26964,50052,5
26955,50043,5
26962,50037,5
26957,50044,5
26959,50039,4
26955,50036,5
26959,50030,5
26952,50037,4
26950,50030,5
26951,50029,5
26947,50030,5
26945,50024,5
26949,50026,4
26941,50027,5
26952,50019,5
26953,50022,5
26949,50024,5
26946,50022,4
26941,50011,5
26944,50020,5
26939,50012,5
26938,50011,5
26946,50017,4
26940,50011,5
26942,50013,5
26948,50015,5
26942,50016,5
26946,50017,4
26945,50023,6
26949,50013,4
26940,50019,5
26940,50020,4
26956,50020,4
26952,50027,5
26948,50023,5
26954,50021,5
26957,50021,4
26952,50028,5
26958,50028,5
26960,50029,5
26958,50036,5
26966,50042,4
26964,50039,5
26971,50044,5
26970,50053,5
26966,50060,5
26972,50051,4
26977,50055,5
26962,50056,5
26975,50061,5
26977,50060,5
26972,50069,4
26930,50056,5
26972,50048,6
26978,50055,4
26967,50050,5
26911,50051,4
26963,50048,5
26958,50042,5
26963,50048,5
26949,50047,4
26968,50048,5
26954,50048,5
26965,50049,5
26997,50045,5
26966,50046,4
26964,50035,5
26964,50043,5
27026,50040,5
26963,50030,5
26953,50035,5
26961,50036,4
26992,50032,5
26960,50036,5
26958,50034,6
26958,50035,3
26969,50029,5
26956,50030,5
26960,50029,5
26954,50023,5
26954,50001,4
26950,50022,5
26948,50022,5
26950,50023,5
26956,49977,4
26957,50030,4
26950,50032,5
26954,50031,5
26950,49977,5
26948,50024,4
26955,50034,5
26961,50036,4
26955,50050,5
26952,50037,5
26947,50033,4
26954,50031,5
26956,50077,5
26957,50022,5
26954,50028,5
26946,50027,5
26955,50090,4
26957,50028,5
26956,50032,5
26957,50027,5
26959,50058,4
26947,50040,5
26952,50037,5
26964,50032,5
26960,50045,5
26962,50031,4
26955,50040,5
26955,50041,5
26961,50046,5
26964,50042,4
26959,50040,5
26959,50047,5
26951,50040,5
26956,50038,5
26957,50041,4
26960,50039,5
26955,50040,5
26961,50035,5
26958,50040,5
26955,50029,4
26962,50033,6
26954,50028,4
26960,50035,5
26951,50031,5
26960,50028,4
26943,50025,5
26951,50023,5
26946,50031,5
26959,50030,5
26949,50026,4
26963,50034,5
26962,50033,5
26954,50036,5
26962,50031,4
26958,50035,4
26956,50030,5
26953,50032,5
26956,50040,5
26945,50028,4
26954,50022,5
26954,50024,5
26940,50015,6
26935,50011,4
26944,50009,4
26944,50009,5
26934,50008,5
26940,50004,5
26942,50007,5
26937,50000,4
26937,49998,5
26936,50005,5
26935,49992,5
26937,50000,5
26932,50001,4
26930,49999,5
26929,49990,5
26943,49996,5
26935,49992,4
26931,49991,4
26927,49992,5
26929,49989,5
26926,49989,5
26929,49999,5
26926,49984,4
26930,49993,5
26938,49986,5
26922,49990,6
26925,49995,3
26919,49981,5
26925,49981,5
26929,49977,5
26927,49989,5
26922,49983,4
26920,49974,5
26928,49981,5
26931,49982,5
26930,49978,5
26927,49976,4
26924,49976,5
26925,49976,5
26922,49972,5
26921,49971,5
26922,49968,4
26920,49977,5
26926,49974,5
26892,49979,5
26914,49980,4
26923,49970,5
26920,49964,4
26863,49962,5
26921,49967,5
26919,49967,6
26913,49973,3
26873,49969,5
26926,49971,5
26915,49971,5
26918,49969,4
26941,49964,5
26913,49968,5
26913,49961,5
26918,49965,5
26977,49967,4
26918,49966,5
26911,49962,5
26915,49967,5
26967,49971,5
26924,49963,4
26912,49967,5
26924,49968,5
26932,49966,5
26915,49966,4
26919,49970,4
26917,49969,6
26917,49955,4
26917,49971,5
26916,49973,4
26921,49976,5
26922,49929,5
26922,49979,5
26925,49981,5
26925,49971,4
26925,49920,5
26928,49980,5
26927,49968,5
26923,49980,5
26921,49967,4
26924,49974,5
26923,49971,5
26920,49967,5
26913,50012,5
26916,49970,4
26925,49970,5
26923,49965,5
26920,50033,5
26916,49959,5
26915,49961,4
26921,49955,5
26903,49981,6
26910,49950,4
26920,49955,4
26908,49963,5
26921,49957,5
26908,49950,5
26904,49948,5
26920,49951,4
26909,49947,5
26915,49954,5
26908,49944,5
26915,49947,5
26903,49949,4
26906,49945,5
26903,49946,5
26911,49948,5
26906,49940,5
26915,49946,4
26907,49946,5
26914,49944,5
26911,49948,5
26910,49950,5
26914,49955,4
26917,49946,5
26916,49958,5
26912,49949,6
26909,49949,3
26912,49955,4
26914,49952,5
26908,49955,5
26920,49950,5
26911,49951,4
26915,49954,5
26911,49954,5
26902,49948,5
26908,49952,5
26912,49956,4
26913,49950,5
26912,49956,5
26912,49955,5
26922,49958,5
26914,49955,4
26915,49964,5
26916,49965,5
26916,49962,5
26916,49965,5
26914,49963,5
26916,49957,4
26914,49971,5
26919,49960,5
26920,49962,5
26926,49964,4
26927,49975,5
26917,49978,5
26923,49975,5
26922,49963,4
26930,49975,5
26927,49971,5
26919,49976,5
26922,49972,5
26934,49982,4
26927,49968,5
26924,49975,5
26923,49973,5
26915,49975,5
26918,49974,4
26923,49964,5
26921,49970,5
26925,49968,5
26916,49964,5
26922,49975,4
26926,49967,6
26919,49969,4
26922,49966,5
26930,49978,5
26923,49982,4
26933,49986,5
26929,49977,5
26936,49984,5
26935,49981,4
26943,49988,4
26934,49990,5
26928,49977,5
26936,49983,5
26928,49973,4
26898,49984,5
26929,49977,5
26924,49968,5
26927,49961,5
26882,49971,4
26917,49969,5
26924,49966,5
26912,49958,5
26851,49946,5
26910,49951,5
26913,49955,4
26917,49949,6
26907,49949,4
26910,49957,5
26911,49949,4
26905,49952,5
26948,49952,5
26908,49946,5
26912,49947,5
26903,49952,4
26979,49953,5
26912,49963,5
26920,49968,5
26919,49959,4
26949,49959,5
26918,49967,5
26923,49968,5
26923,49973,5
26921,49966,4
26921,49970,5
26919,49977,5
26921,49970,5
26927,49945,5
26918,49976,4
26923,49972,5
26919,49972,5
26933,49928,6
26932,49980,4
26935,49984,5
26939,49991,4
26936,49949,5
26924,49988,5
26934,49986,5
26925,49984,4
26927,50005,5
26929,49981,5
26928,49984,5
26928,49975,4
26925,50033,4
26934,49982,5
26928,49985,5
26938,49987,5
26937,50040,4
26927,49990,5
26936,49989,5
26931,49993,5
26938,50010,5
26936,50000,5
26939,50000,4
26936,49995,5
26945,50000,5
26943,49995,5
26940,49996,4
26932,50001,5
26946,49996,5
26937,49999,5
26951,50005,5
26938,50001,4
26944,50011,5
26947,50011,5
26947,50005,5
26939,50012,5
26952,50013,4
26946,50010,5
26954,50017,5
26951,50012,5
26960,50011,4
26953,50023,5
26957,50023,5
26947,50015,5
26950,50026,5
26960,50014,4
26962,50021,6
26951,50018,4
26949,50017,5
26963,50022,5
26947,50013,4
26949,50017,5
26950,50014,5
26950,50011,5
26947,50014,5
26951,50018,4
26955,50019,5
26952,50013,5
26954,50016,5
26947,50016,5
26955,50014,4
26949,50026,5
26961,50030,5
26957,50027,5
26954,50025,4
26970,50042,4
26965,50050,5
26967,50054,5
26962,50042,5
26968,50044,4
26967,50039,5
26970,50042,6
26960,50039,4
26968,50036,5
26963,50041,4
26961,50044,5
26963,50031,5
26958,50043,5
26963,50032,5
26960,50036,4
26963,50026,5
26967,50037,5
26960,50033,5
26964,50029,5
26962,50036,4
26964,50036,5
26955,50026,5
26960,50034,5
26974,50027,4
26953,50036,4
26963,50032,5
26962,50031,5
26962,50034,5
26969,50027,4
26959,50033,5
26957,50026,5
26955,50039,5
26962,50036,5
26958,50034,4
26965,50030,5
26969,50045,5
26963,50038,5
26975,50046,5
26976,50056,4
26972,50048,5
26938,50059,5
26969,50055,5
26985,50060,5
26977,50059,4
26922,50058,5
26977,50057,5
26978,50060,5
26983,50065,5
26946,50057,4
26980,50060,5
26983,50059,5
26984,50061,5
27012,50067,5
26982,50070,4
26988,50064,5
26978,50068,5
27032,50064,5
26983,50066,4
26988,50058,5
26981,50066,5
27025,50061,5
26972,50053,5
26987,50068,4
26975,50064,5
26988,50060,5
26981,50059,5
26983,50056,5
26988,50063,4
26979,50033,5
26990,50066,5
26986,50066,5
26982,50065,5
26977,50008,4
26995,50065,6
26982,50068,4
26988,50067,5
26987,50012,4
26990,50068,6
26984,50062,3
26983,50067,5
26985,50070,5
26988,50074,4
26980,50062,5
26980,50068,5
26986,50111,5
26980,50063,5
26985,50067,4
26982,50063,5
26982,50121,5
26988,50072,5
26974,50062,5
26983,50059,4
26986,50093,5
26979,50067,5
26980,50071,5
26980,50061,5
26981,50066,4
26982,50067,5
26985,50065,6
26980,50067,4
26984,50065,5
26984,50067,4
26980,50072,5
26981,50069,5
26985,50072,5
26989,50077,4
26983,50075,4
26994,50089,5
26994,50080,5
26990,50073,5
26988,50078,4
26981,50079,5
26988,50079,5
26984,50077,5
26993,50082,5
26993,50078,4
26990,50083,5
26991,50072,5
26986,50079,5
26996,50080,5
26987,50074,4
26975,50067,5
26972,50069,5
26980,50062,6
26982,50061,4
26975,50050,4
26971,50052,5
26970,50054,5
26974,50061,5
26976,50057,4
26983,50059,4
26983,50058,5
26989,50070,5
26976,50066,5
26986,50084,4
26986,50074,5
26995,50079,5
26992,50075,5
26985,50081,5
26993,50083,4
26982,50079,5
26997,50077,5
26992,50078,5
26984,50071,5
26986,50064,5
26988,50073,4
26976,50075,5
26982,50058,5
26978,50065,6
26978,50076,3
26977,50065,5
26989,50072,5
26984,50073,5
26986,50075,5
26985,50074,4
26982,50069,5
26979,50068,5
26987,50077,5
26992,50067,4
26987,50076,4
26980,50070,5
26985,50073,5
26979,50069,5
26976,50062,4
26980,50064,5
26985,50068,5
26969,50058,5
26978,50052,5
26983,50058,4
26977,50059,6
26967,50055,4
26981,50061,5
26973,50051,5
26972,50065,4
26978,50062,5
26976,50065,5
26973,50058,5
26949,50072,5
26981,50071,4
26984,50066,5
26974,50065,5
26931,50072,5
26977,50063,5
26969,50070,4
26974,50060,5
26917,50060,5
26977,50058,5
26962,50061,4
26968,50061,5
26971,50048,5
26958,50041,5
26952,50029,5
26943,50019,4
26995,50021,5
26940,50010,6
26930,49998,4
26919,49979,5
26974,49974,4
26901,49948,5
26883,49925,5
26874,49918,5
26902,49900,5
26865,49888,4
26859,49869,5
26845,49855,5
26840,49825,5
26827,49815,5
26815,49805,4
26810,49796,5
26803,49748,5
26801,49771,5
26800,49779,5
26789,49777,4
26786,49715,5
26791,49774,5
26782,49765,5
26776,49755,4
26766,49706,5
26759,49725,5
26755,49721,6
26751,49713,4
26746,49746,4
26746,49702,5
26745,49701,5
26745,49710,5
26743,49751,5
26739,49698,4
26728,49691,5
26729,49697,5
26732,49744,5
26725,49698,5
26736,49699,4
26729,49713,5
26741,49735,5
26741,49719,5
26744,49732,5
26743,49728,4
26742,49721,5
26742,49722,5
26739,49716,5
26733,49705,5
26744,49716,4
26734,49710,5
26738,49705,5
26747,49718,6
26745,49726,3
26752,49732,5
26766,49754,5
26775,49762,5
26784,49791,5
26794,49804,4
26798,49800,5
26791,49802,5
26793,49800,5
26798,49793,5
26795,49799,4
26795,49807,5
26806,49803,5
26808,49813,5
26812,49815,5
26811,49816,4
26804,49824,5
26822,49840,5
26830,49847,5
26836,49846,4
26838,49860,5
26832,49868,4
26843,49881,5
26847,49890,5
26860,49900,4
26867,49912,5
26875,49924,5
26879,49927,5
26884,49933,5
26883,49935,4
26882,49934,5
26890,49944,5
26893,49959,5
26895,49958,5
26898,49966,4
26904,49971,5
26912,49986,5
26909,49982,5
26914,49999,5
26930,50015,4
26939,50016,5
26936,50025,5
26939,50024,5
26938,50016,5
26939,50030,4
26936,50034,6
26942,50035,4
26941,50041,5
26949,50044,4
26955,50050,5
26954,50053,5
26948,50050,5
26948,50050,5
26951,50045,4
26940,50036,5
26943,50046,5
26937,50043,5
26944,50036,5
26941,50039,4
26935,50037,5
26943,50031,5
26941,50022,5
26940,50029,5
26936,50019,4
26932,50027,5
26937,50018,5
26931,50022,5
26934,50028,5
26940,50021,4
26923,50031,5
26938,50033,6
26946,50044,4
26947,50046,4
26907,50039,4
26945,50061,5
26957,50060,5
26958,50060,5
26910,50062,4
26960,50068,5
26968,50082,5
26973,50098,8
26950,50110,2
26992,50123,4
26997,50127,5
27005,50133,5
27044,50152,5
27005,50167,5
27022,50178,5
27020,50187,4
27089,50186,5
27030,50187,5
27040,50197,6
27039,50193,3
27081,50196,5
27040,50201,5
27042,50191,5
27037,50192,5
27043,50187,4
27039,50193,5
27028,50178,5
27035,50188,5
27028,50157,4
27027,50189,5
27032,50189,5
27035,50189,5
27035,50135,5
27031,50185,4
27027,50181,5
27039,50174,5
27036,50128,5
27036,50184,5
27039,50192,5
27036,50186,4
27038,50194,5
27040,50190,5
27043,50186,5
27047,50191,5
27038,50235,4
27035,50189,5
27029,50176,5
27033,50174,5
27025,50225,4
27022,50153,5
27019,50153,5
27015,50148,5
27019,50168,4
27012,50146,4
27015,50149,5
27007,50138,5
27013,50143,5
27012,50154,4
27019,50147,5
27012,50147,5
27019,50152,5
27016,50148,5
27021,50151,4
27020,50138,5
27015,50147,5
27016,50148,5
27016,50158,5
27022,50150,4
27008,50134,6
27012,50143,4
27016,50129,5
27001,50128,5
26992,50127,4
27001,50114,5
26992,50113,5
26986,50103,5
26985,50112,5
26987,50101,4
26988,50102,5
26977,50104,5
26975,50084,5
26982,50096,4
26987,50085,5
26986,50088,5
26977,50091,5
26983,50093,5
26973,50089,4
26988,50087,5
26978,50076,5
26972,50077,5
26971,50076,4
26971,50064,4
26967,50059,5
26964,50057,5
26959,50055,5
26958,50053,5
26962,50051,4
26968,50043,5
26964,50049,5
26955,50060,5
26965,50065,5
26967,50064,4
26964,50060,5
26961,50073,5
26963,50064,5
26969,50062,4
26968,50062,4
26964,50053,5
26962,50052,5
26956,50055,5
26957,50051,5
26959,50046,4
26963,50051,5
26951,50042,5
26952,50035,6
26955,50039,3
26947,50027,5
26953,50024,5
26955,50032,5
26955,50038,5
26954,50033,4
26948,50028,5
26948,50038,5
26944,50035,5
26955,50026,5
26947,50026,4
26940,50023,5
26944,50008,5
26934,50007,5
26928,49993,5
26928,49993,4
26923,49995,5
26925,49980,5
26925,49971,5
26911,49971,4
26920,49974,5
26920,49978,4
26884,49972,5
26913,49972,5
26917,49970,6
26906,49962,3
26862,49960,5
26902,49945,5
26899,49934,5
26898,49929,4
26836,49927,5
26882,49917,5
26883,49910,5
26878,49900,5
26884,49894,4
26865,49897,5
26867,49880,5
26854,49871,5
26899,49857,5
26850,49850,4
26833,49832,5
26831,49823,5
26889,49819,5
26825,49819,4
26833,49823,4
26825,49813,6
26851,49809,4
26816,49823,5
26820,49820,4
26829,49816,5
26826,49812,5
26834,49816,5
26824,49822,5
26834,49826,4
26831,49781,5
26827,49816,5
26824,49806,5
26817,49808,5
26818,49744,4
26813,49797,5
26814,49803,5
26813,49787,5
26814,49755,5
26810,49778,4
26809,49783,5
26800,49764,5
26796,49795,5
26796,49757,5
26785,49752,4
26790,49751,5
26803,49815,6
26787,49757,4
26793,49750,4
26788,49755,4
26793,49793,5
26784,49748,5
26802,49759,5
26791,49753,4
26793,49761,5
26793,49747,5
26794,49751,5
26788,49751,5
26784,49747,4
26775,49744,5
26788,49748,5
26789,49739,5
26782,49749,5
26785,49736,4
26786,49730,5
26784,49746,5
26779,49741,5
26790,49747,5
26783,49739,4
26788,49734,5
26780,49745,5
26785,49734,6
26780,49734,4
26772,49722,4
26776,49728,5
26778,49737,5
26773,49728,5
26776,49736,4
26777,49729,4
26782,49731,5
26785,49733,5
26779,49723,5
26785,49735,4
26777,49736,5
26782,49748,5
26783,49748,5
26794,49748,5
26789,49747,4
26792,49753,5
26793,49749,5
26793,49762,5
26795,49749,5
26792,49758,5
26786,49760,4
26799,49758,5
26798,49761,5
26803,49760,6
26800,49763,3
26803,49766,5
26802,49777,5
26805,49774,5
26811,49780,5
26822,49783,4
26809,49789,5
26809,49788,5
26810,49791,5
26811,49779,4
26816,49796,4
26813,49788,5
26823,49795,5
26818,49793,5
26819,49786,4
26818,49793,5
26820,49786,5
26819,49797,5
26813,49792,5
26824,49806,4
26825,49798,6
26827,49799,4
26825,49805,5
26834,49800,5
26823,49799,4
26826,49804,5
26816,49798,5
26816,49791,5
26821,49795,5
26822,49792,4
26819,49784,5
26821,49791,5
26827,49788,5
26818,49794,5
26820,49793,4
26810,49804,5
26823,49805,5
26829,49801,5
26820,49809,4
26821,49806,4
26826,49812,5
26831,49799,5
26794,49815,5
26823,49807,4
26826,49803,5
26825,49799,6
26770,49796,4
26828,49803,5
26820,49793,4
26821,49787,5
26779,49789,5
26818,49790,5
26825,49783,5
26811,49791,4
26844,49792,5
26826,49782,5
26818,49779,5
26811,49783,5
26862,49778,4
26813,49780,5
26813,49780,5
26809,49778,5
26859,49774,5
26816,49764,4
26808,49771,5
26806,49771,5
26820,49770,5
26797,49762,4
26801,49766,4
26802,49763,5
26811,49755,6
26804,49761,4
26806,49770,4
26806,49776,5
26806,49730,5
26801,49768,5
26805,49769,5
26809,49770,4
26806,49714,5
26810,49774,5
26801,49765,5
26813,49779,5
26811,49756,4
26800,49777,5
26813,49773,5
26802,49779,5
26808,49811,5
26807,49773,4
26809,49778,5
26810,49775,5
26800,49830,5
26801,49770,5
26804,49767,4
26803,49765,5
26800,49803,5
26797,49755,5
26803,49766,4
26808,49772,4
26801,49779,5
26797,49758,5
26802,49760,5
26806,49759,4
26804,49769,5
26805,49766,5
26812,49762,5
26807,49768,5
26811,49775,4
26811,49776,5
26804,49771,5
26805,49779,5
26810,49762,5
26811,49762,4
26805,49767,5
26806,49764,5
26801,49763,5
26805,49749,5
26797,49743,5
26793,49747,4
26794,49745,5
26787,49758,5
26793,49747,5
26785,49745,4
26795,49742,5
26785,49744,5
26786,49739,5
26787,49737,4
26791,49744,4
26782,49752,5
26781,49739,5
26786,49739,5
26792,49738,4
26793,49734,5
26783,49730,5
26788,49726,5
26787,49739,5
26786,49733,4
26788,49738,5
26784,49741,5
26790,49734,5
26779,49739,5
26782,49732,4
26789,49734,6
26783,49732,4
26782,49734,5
26781,49730,5
26788,49735,4
26792,49729,5
26787,49735,5
26784,49732,5
26791,49728,5
26794,49724,4
26780,49734,5
26789,49730,5
26786,49739,5
26790,49735,4
26779,49736,4
26791,49738,5
26787,49736,5
26794,49735,5
26786,49744,4
26794,49742,5
26791,49745,5
26786,49736,5
26792,49737,5
26791,49745,4
26795,49750,5
26796,49759,6
26797,49755,4
26790,49741,5
26790,49754,4
26793,49751,5
26805,49751,5
26809,49754,5
26797,49759,5
26800,49754,4
26792,49756,5
26795,49754,5
26800,49760,5
26790,49753,5
26798,49757,4
26799,49753,5
26800,49754,5
26801,49761,5
26767,49765,4
26799,49751,4
26802,49759,5
26802,49761,5
26760,49763,5
26810,49764,4
26798,49760,6
26806,49760,4
26771,49774,5
26807,49755,5
26813,49750,4
26809,49759,5
26827,49767,5
26804,49756,5
26812,49767,5
26809,49758,4
26866,49770,5
26805,49760,5
26807,49766,5
26813,49771,5
26852,49772,4
26805,49771,5
26810,49768,5
26804,49761,5
26821,49769,5
26813,49771,4
26809,49774,4
26813,49779,5
26822,49769,5
26815,49779,5
26826,49785,3
26815,49781,5
26825,49740,5
26813,49796,5
26826,49789,4
26820,49787,4
26825,49730,5
26814,49777,5
26804,49775,5
26812,49771,4
26805,49746,5
26814,49778,5
26818,49769,5
26812,49765,5
26807,49814,4
26813,49763,5
26802,49767,5
26806,49768,5
26808,49831,5
26812,49770,4
26807,49766,6
26804,49759,4
26807,49807,5
26815,49764,5
26807,49765,6
26813,49769,3
26810,49780,5
26815,49778,5
26808,49778,4
26814,49780,4
26813,49779,5
26811,49765,5
26802,49765,5
26801,49762,4
26798,49757,5
26798,49754,5
26795,49744,5
26796,49752,5
26794,49747,4
26786,49739,5
26787,49734,5
26790,49734,5
26787,49739,5
26783,49735,4
26784,49730,5
26785,49726,6
26784,49730,4
26780,49725,5
26776,49723,4
26780,49720,5
26776,49717,5
26773,49719,5
26783,49716,5
26773,49728,4
26778,49721,5
26773,49721,5
26772,49709,5
26765,49714,4
26764,49705,4
26770,49705,5
26764,49703,5
26761,49705,5
26763,49694,4
26767,49700,5
26770,49702,5
26758,49704,5
26763,49701,5
26772,49705,4
26772,49703,5
26771,49708,5
26769,49704,6
26772,49704,4
26765,49708,4
26760,49704,5
26763,49709,5
26759,49711,5
26759,49711,5
26768,49707,4
26765,49701,5
26767,49705,5
26764,49701,5
26762,49703,5
26764,49696,4
26768,49706,5
26762,49708,5
26762,49710,5
26774,49705,4
26769,49714,4
26775,49717,5
26776,49722,5
26776,49728,5
26779,49723,5
26772,49730,4
26777,49730,5
26773,49718,5
26766,49724,6
26775,49722,3
26777,49731,5
26783,49727,5
26777,49731,5
26770,49725,5
26777,49724,4
26786,49740,5
26786,49745,5
26788,49750,5
26795,49758,5
26800,49763,4
26809,49775,5
26816,49772,5
26822,49788,5
26812,49790,5
26787,49796,4
26819,49800,5
26819,49801,5
26831,49808,5
26783,49811,4
26841,49824,6
26838,49825,4
26842,49829,5
26805,49844,5
26859,49841,6
26859,49859,3
26861,49865,5
26887,49861,5
26873,49863,5
26876,49866,4
26867,49871,5
26921,49867,5
26870,49868,5
26869,49871,5
26879,49869,4
26927,49872,5
26877,49873,5
26874,49875,5
26880,49877,5
26888,49877,4
26876,49877,5
26874,49880,5
26873,49888,5
26885,49872,4
26881,49878,4
26880,49891,6
26881,49885,4
26881,49852,5
26874,49879,4
26879,49890,5
26885,49880,5
26881,49831,5
26873,49881,5
26872,49880,5
26873,49880,4
26881,49860,5
26879,49887,5
26877,49881,5
26876,49889,4
26879,49914,5
26878,49883,5
26881,49894,5
26886,49901,5
26890,49947,4
26893,49889,5
26892,49904,5
26884,49896,5
26886,49933,5
26888,49898,4
26892,49902,5
26894,49894,6
26891,49910,4
26884,49896,4
26892,49898,4
26882,49895,5
26887,49894,5
26893,49890,5
26885,49898,4
26889,49898,5
26895,49898,5
26884,49892,5
26894,49893,5
26885,49901,4
26889,49900,5
26892,49909,5
26903,49906,5
26896,49909,5
26898,49909,4
26900,49916,5
26887,49906,5
26901,49911,5
26901,49917,5
26902,49916,4
26899,49918,5
26903,49918,5
26906,49920,6
26901,49917,4
26896,49913,4
26898,49914,5
26897,49912,5
26895,49915,5
26902,49921,4
26898,49906,4
26902,49910,5
26902,49913,5
26904,49910,5
26903,49909,4
26896,49915,5
26891,49907,5
26898,49902,5
26894,49912,5
26900,49907,4
26889,49909,5
26896,49914,5
26901,49916,5
26893,49917,5
26889,49918,5
26903,49912,4
26903,49921,5
26902,49913,5
26903,49913,5
26901,49924,4
26904,49920,5
26903,49921,5
26908,49921,5
26901,49915,5
26910,49926,4
26906,49920,5
26901,49927,5
26903,49925,5
26910,49926,4
26912,49922,4
26913,49929,5
26907,49924,5
26910,49935,5
26914,49932,4
26909,49928,5
26916,49936,5
26908,49937,5
26915,49936,5
26910,49941,4
26913,49936,6
26908,49938,4
26905,49936,5
26911,49934,5
26912,49940,4
26916,49931,5
26915,49926,5
26912,49930,5
26909,49925,5
26905,49919,4
26902,49921,5
26899,49916,5
26896,49917,5
26896,49924,4
26900,49913,4
26860,49915,5
26890,49908,5
26905,49910,5
26900,49910,4
26846,49906,5
26898,49916,5
26897,49913,5
26899,49922,5
26869,49931,4
26911,49942,5
26917,49942,6
26921,49948,4
26952,49964,5
26928,49970,4
26928,49964,5
26926,49959,5
26975,49958,5
26916,49959,5
26905,49936,4
26904,49931,5
26941,49921,5
26883,49912,5
26889,49906,5
26887,49896,4
26904,49900,5
26882,49893,5
26882,49898,5
26872,49898,4
26883,49875,4
26877,49890,5
26881,49887,5
26882,49897,5
26875,49852,4
26877,49899,5
26889,49909,5
26881,49900,5
26889,49858,5
26891,49918,4
26895,49923,5
26888,49921,5
26896,49903,5
26898,49928,5
26899,49926,4
26901,49922,5
26894,49965,5
26902,49933,5
26906,49930,5
26907,49927,4
26918,50008,5
26906,49939,5
26902,49935,5
26903,49942,5
26909,49970,4
26903,49934,5
26906,49942,5
26908,49936,5
26907,49962,5
26910,49947,4
26911,49961,5
26914,49955,5
26914,49965,5
26921,49962,4
26924,49967,5
26927,49980,5
26931,49985,5
26930,49987,5
26941,49998,4
26939,50005,5
26944,50008,5
26947,50015,5
26952,50025,5
26965,50037,4
26969,50045,5
26966,50058,5
26982,50066,5
26979,50075,5
26980,50088,4
26989,50084,5
26992,50086,5
26995,50102,5
26995,50112,5
27002,50105,5
27003,50106,4
26995,50104,5
26997,50112,5
27005,50114,4
27013,50113,4
27008,50113,5
27008,50119,5
27010,50114,5
27004,50113,4
27010,50114,5
27005,50122,5
27006,50128,5
27017,50122,5
27008,50133,4
27008,50123,5
27012,50130,5
27012,50131,5
27007,50127,5
27002,50126,4
27010,50120,5
27016,50120,5
26999,50119,4
27000,50116,5
27001,50110,4
27001,50105,6
26992,50111,3
26993,50100,5
26996,50097,5
26994,50097,4
26983,50100,5
26991,50102,5
26988,50108,5
26993,50087,4
26986,50090,5
26993,50097,5
26990,50103,5
26988,50105,5
27000,50106,4
26991,50111,5
26998,50121,5
26998,50124,5
27004,50129,5
27003,50136,4
27012,50138,5
27023,50143,5
27012,50151,6
27012,50143,4
27019,50140,4
27009,50143,5
27007,50126,5
27005,50129,5
27008,50130,5
27008,50120,4
27000,50125,5
27006,50119,5
26996,50119,5
27007,50122,4
26997,50125,4
27008,50123,5
26960,50125,8
27010,50128,2
27010,50135,4
27020,50125,5
26955,50129,5
27012,50127,5
27013,50127,5
27001,50129,5
26978,50133,4
26999,50131,5
27002,50117,5
27000,50126,6
27041,50124,3
26993,50118,5
26996,50115,5
26999,50120,5
27057,50117,5
27001,50124,4
26992,50118,5
26991,50112,5
27033,50118,5
26990,50117,5
26992,50122,4
26984,50112,5
27008,50103,5
26994,50107,5
26980,50111,4
26986,50105,4
26987,50068,5
26983,50096,5
26982,50099,5
26978,50094,4
26985,50047,6
26979,50089,4
26979,50097,5
26982,50089,5
26980,50037,6
26984,50097,3
26980,50094,5
26989,50103,5
26979,50110,5
26985,50109,4
26986,50101,5
26988,50113,5
26987,50170,5
26995,50127,5
27001,50123,4
26995,50127,5
26998,50184,5
27000,50128,5
26996,50118,5
26993,50133,4
27000,50151,5
27000,50131,5
27002,50132,5
26993,50127,4
27007,50138,5
27006,50140,6
27008,50138,4
27005,50134,5
27004,50134,4
27005,50148,5
27009,50146,5
27009,50138,5
27008,50143,5
27009,50143,4
27006,50144,5
27001,50138,5
27000,50138,5
27006,50145,5
27009,50135,4
27005,50134,5
27005,50143,5
27007,50143,5
27009,50148,5
27010,50149,4
27012,50137,5
27013,50144,5
27007,50135,5
27012,50142,4
27009,50141,4
27008,50137,5
27014,50146,6
27020,50142,4
27011,50129,4
27011,50135,5
27009,50129,5
27011,50126,5
27004,50124,5
27003,50123,4
26993,50126,5
26996,50103,5
26999,50113,5
26995,50113,5
26993,50104,4
26992,50126,5
26997,50123,5
26999,50111,5
27002,50118,5
27007,50127,4
27013,50138,5
27005,50135,5
27013,50130,5
27013,50135,5
27005,50128,4
27017,50144,5
27015,50129,5
27015,50132,6
27013,50144,3
27006,50128,4
27011,50125,5
27007,50128,5
27012,50133,5
27006,50132,4
27006,50135,5
27006,50126,5
27013,50136,5
27009,50135,5
27009,50129,4
27010,50125,5
27012,50134,5
27010,50136,5
27010,50132,5
27010,50133,4
27003,50129,5
27012,50124,5
27008,50124,5
27011,50128,5
27010,50122,5
27006,50117,4
27011,50127,5
27008,50125,5
27004,50131,5
26998,50122,4
27004,50126,5
26999,50113,5
27001,50123,5
26977,50124,4
26998,50117,5
27001,50125,5
27006,50123,5
26958,50120,5
27006,50119,4
27014,50119,5
27000,50116,5
26948,50110,5
27002,50122,5
26997,50106,4
26996,50112,5
27009,50108,5
27002,50102,5
26999,50107,5
26993,50100,4
27034,50102,6
26992,50097,4
26992,50108,5
26988,50094,5
27051,50100,4
26992,50105,5
27001,50100,5
26994,50109,5
27026,50105,4
26991,50097,4
27002,50107,5
26993,50115,5
27007,50106,5
27008,50109,4
27005,50117,5
26998,50119,5
27003,50081,5
27006,50121,5
27001,50117,4
27013,50126,5
27006,50075,5
27001,50124,5
27008,50120,5
27009,50128,4
26996,50093,5
27005,50122,6
27008,50126,4
27013,50118,5
27006,50149,4
27003,50118,5
27004,50111,5
27001,50120,5
27001,50171,5
27002,50113,4
27002,50112,5
26997,50114,5
26996,50158,5
27003,50108,4
26993,50094,4
26996,50099,5
26986,50107,5
26982,50085,5
26990,50082,4
26989,50085,5
26978,50084,5
26980,50085,5
26987,50090,5
26992,50089,4
26983,50086,5
26991,50100,5
26989,50095,6
26992,50099,3
26997,50098,4
26999,50103,5
26988,50093,5
27000,50104,5
26994,50100,5
26982,50098,4
26992,50093,5
26989,50097,5
26983,50097,5
27000,50088,5
26983,50094,4
26988,50086,5
26982,50091,5
26981,50092,5
26988,50086,4
26988,50089,4
26980,50085,5
26986,50089,5
26989,50102,5
26990,50092,5
26992,50097,4
26993,50089,5
26987,50095,5
26986,50097,5
26979,50090,4
26994,50106,5
26993,50100,5
26989,50092,5
26988,50088,5
26989,50093,4
26993,50086,5
26986,50083,5
26994,50093,5
26977,50085,5
26995,50084,4
26991,50097,5
26997,50095,5
26989,50098,5
26986,50089,5
26987,50097,4
26986,50099,5
26988,50086,5
26985,50077,5
26982,50087,4
26988,50088,5
26986,50089,4
26988,50077,5
26987,50075,5
26981,50075,4
26980,50081,5
26980,50082,5
26982,50090,5
26981,50086,5
26984,50079,4
26988,50080,5
26984,50085,5
26976,50086,5
26993,50082,5
26984,50089,4
26981,50089,5
26990,50085,5
26992,50088,5
26990,50093,5
26992,50088,4
26994,50092,5
26984,50085,5
26985,50085,5
26982,50088,4
26986,50095,4
26990,50088,6
26988,50086,4
26996,50094,5
26996,50090,4
26956,50091,5
26989,50089,5
26977,50085,5
26987,50083,5
26932,50077,4
26984,50080,5
26987,50078,5
26979,50082,5
26944,50077,5
26990,50080,4
26989,50068,5
26976,50080,5
27014,50083,5
26980,50084,5
26985,50085,4
26986,50087,5
27044,50094,5
26983,50084,5
26987,50085,5
26984,50090,4
27038,50083,5
26981,50082,5
26975,50070,5
26977,50076,4
26995,50064,4
26969,50069,5
26971,50062,5
26971,50061,5
26966,50040,4
26969,50062,5
26970,50056,5
26974,50062,5
26968,50022,5
26971,50060,4
26977,50062,5
26964,50064,5
26970,50009,5
26972,50062,5
26972,50067,5
26971,50053,4
26968,50051,5
26966,50059,5
26966,50054,6
26965,50053,3
26960,50084,5
26965,50054,5
26963,50041,5
26956,50048,5
26960,50108,4
26957,50043,5
26957,50040,5
26959,50035,5
26950,50069,4
26955,50039,4
26957,50039,5
26961,50031,5
26950,50047,5
26960,50043,4
26964,50027,5
26957,50040,5
26961,50039,5
26957,50033,5
26946,50033,4
26962,50028,6
26959,50031,4
26956,50039,5
26963,50040,5
26958,50036,6
26964,50037,3
26962,50036,5
26959,50038,5
26955,50037,5
26962,50045,4
26960,50040,5
26955,50033,5
26963,50045,5
26956,50047,5
26963,50046,4
26962,50049,5
26964,50038,5
26958,50039,5
26963,50034,4
26965,50032,5
26960,50041,5
26960,50034,5
26956,50036,5
26957,50042,4
26959,50029,5
26955,50034,6
26953,50017,4
26948,50035,5
26949,50033,4
26951,50028,5
26952,50019,5
26943,50016,5
26946,50018,5
26951,50029,4
26953,50016,5
26954,50026,5
26950,50019,5
26946,50021,5
26951,50013,4
26947,50015,5
26945,50021,5
26947,50014,5
26951,50029,4
26945,50023,4
26952,50028,5
26963,50026,5
26955,50021,5
26950,50026,4
26959,50033,5
26950,50026,5
26960,50030,6
26950,50026,4
26947,50017,4
26946,50011,5
26945,50017,5
26949,50012,5
26944,50009,5
26944,50008,4
26938,50012,5
26934,50005,5
26939,50009,5
26938,50005,5
26938,50004,4
26933,50014,5
26937,50002,5
26938,50003,5
26940,50003,5
26937,50007,4
26930,50010,5
26936,50007,5
26941,50001,5
26934,50004,5
26936,49998,4
26936,49997,5
26913,49991,5
26932,49988,6
26928,49983,3
26925,49989,6
26876,49985,4
26929,49973,5
26927,49994,5
26925,49981,4
26875,49982,5
26921,49974,5
26925,49982,5
26930,49987,5
26908,49980,4
26918,49980,5
26918,49977,5
26924,49971,5
26960,49980,5
26927,49971,4
26922,49977,5
26923,49977,5
26985,49979,5
26924,49973,5
26912,49976,5
26923,49982,4
26959,49980,5
26924,49976,5
26927,49972,6
26927,49982,3
26931,49980,5
26920,49984,5
26930,49984,5
26926,49977,4
26924,49952,5
26928,49987,5
26930,49988,5
26929,49990,5
26932,49934,4
26933,49982,5
26935,49993,5
26932,49983,5
26930,49937,5
26923,49993,4
26931,49988,5
26931,49987,5
26927,50003,5
26926,49991,5
26924,49989,4
26926,49999,6
26934,50040,4
26935,49990,5
26931,49985,5
26933,49991,4
26932,50043,5
26933,49988,5
26926,49994,5
26931,49994,4
26928,50003,5
26927,49986,5
26932,49984,5
26922,49981,5
26925,49989,4
26929,49976,5
26922,49981,5
26929,49977,5
26926,49978,5
26930,49984,4
26924,49979,5
26924,49987,5
26928,49986,5
26935,49990,5
26940,49994,4
26934,49993,5
26929,49982,6
26932,49982,4
26927,49990,5
26935,49993,4
26929,49990,5
26925,49984,5
26924,49990,5
26923,49986,4
26928,49983,4
26930,49976,5
26926,49982,5
26926,49987,5
26929,49992,4
26929,49992,5
26926,49990,5
26929,49991,5
26925,49985,5
26930,49988,4
26932,49997,5
26923,49997,5
26935,49996,5
26939,49993,5
26926,49995,4
26934,49993,5
26930,49994,5
26931,49989,6
26928,49994,4
26925,49987,4
26930,49984,5
26931,49992,5
26936,49994,5
26925,49986,5
26936,49984,4
26928,49992,5
26926,49988,5
26932,49993,5
26930,49998,4
26936,49993,4
26939,50013,5
26951,50011,5
26943,50017,5
26944,50014,4
26942,50019,5
26946,50011,5
26944,50018,5
26959,50010,5
26945,50013,5
26950,50016,4
26947,50012,5
26950,50023,5
26952,50021,5
26955,50022,4
26957,50022,5
26956,50029,5
26956,50016,5
26953,50030,5
26956,50017,4
26962,50016,5
26958,50025,5
26949,50025,5
26958,50021,5
26954,50032,4
26953,50026,5
26955,50036,5
26957,50039,5
26969,50038,4
26962,50040,4
26964,50045,5
26968,50044,5
26935,50041,5
26966,50045,4
26964,50045,6
26972,50049,4
26913,50044,5
26971,50045,5
26972,50046,4
26968,50056,5
26914,50047,5
26972,50043,5
26974,50049,5
26962,50048,4
26983,50041,5
26964,50043,5
26967,50043,5
26959,50050,5
27016,50047,4
26969,50047,5
26964,50044,5
26957,50041,5
27017,50038,5
26963,50038,4
26960,50034,5
26966,50032,5
26978,50039,5
26956,50034,4
26955,50024,4
26958,50038,6
26956,50016,4
26950,50031,5
26961,50021,4
26959,50023,5
26967,49998,5
26962,50022,5
26956,50029,5
26961,50031,4
26954,49991,5
26965,50040,5
26975,50041,5
26973,50047,5
26975,50030,4
26973,50054,5
26970,50066,5
26971,50052,5
26975,50095,5
26977,50056,4
26976,50060,5
26966,50050,5
26976,50104,5
26962,50044,5
26962,50039,4
26968,50048,5
26965,50084,5
26964,50051,5
26969,50053,4
26967,50036,5
26961,50058,5
26969,50041,5
26966,50045,5
26966,50046,4
26970,50047,5
26963,50061,5
26968,50049,5
26976,50050,5
26979,50051,4
26974,50055,5
26965,50056,5
26974,50054,5
26971,50052,5
26976,50057,4
26977,50051,5
26974,50050,5
26970,50044,5
26977,50046,5
26970,50057,4
26973,50052,5
26975,50051,5
26972,50054,5
26972,50056,4
26970,50048,4
26979,50056,5
26978,50065,5
26977,50063,5
26966,50062,4
26972,50059,5
26971,50069,5
26974,50054,5
26975,50062,5
26981,50062,4
26973,50059,5
26979,50064,5
26981,50063,5
26981,50055,5
26974,50060,4
26980,50064,5
26976,50058,5
26972,50064,5
26986,50071,5
26979,50069,5
26978,50063,4
26985,50060,5
26977,50072,5
26983,50069,5
26989,50073,4
26983,50068,5
26987,50075,5
26988,50073,5
26989,50070,4
26988,50071,4
26986,50078,5
26988,50078,5
26983,50075,5
26984,50078,4
26986,50077,5
26986,50073,5
26983,50072,5
26985,50079,5
26984,50082,4
26985,50082,5
26984,50082,6
26991,50084,4
26992,50084,5
26991,50084,4
26984,50086,7
26987,50086,3
26984,50082,5
26990,50080,5
26991,50077,4
26993,50086,5
26984,50079,5
26987,50090,5
26985,50079,5
26985,50079,4
26984,50082,5
26987,50081,5
26987,50080,5
26985,50075,4
26974,50074,4
26986,50080,5
26984,50077,5
26988,50078,5
26948,50079,4
26989,50077,5
26991,50074,5
26998,50080,6
26936,50071,4
26990,50080,4
26994,50081,5
26990,50082,5
26978,50080,5
26991,50078,5
26988,50081,4
26991,50087,5
27030,50093,5
26988,50087,5
26990,50081,5
26999,50083,4
27049,50076,5
26982,50083,5
26988,50074,5
26987,50079,5
27022,50067,4
26988,50066,5
26973,50064,5
26974,50059,5
26982,50057,5
26982,50066,4
26974,50068,5
26982,50067,5
26977,50050,6
26978,50076,3
26983,50081,5
26990,50081,5
26989,50037,5
26994,50097,5
26990,50087,5
27009,50091,4
26991,50040,5
26995,50100,5
27000,50096,5
26996,50093,4
26983,50091,5
26991,50090,5
26980,50081,5
26983,50080,5
26980,50122,4
26982,50076,5
26987,50075,5
26980,50071,5
26972,50130,5
26978,50074,5
26986,50086,4
26979,50080,5
26988,50107,5
26986,50081,6
26984,50084,3
26991,50089,5
26980,50100,5
26991,50087,5
26985,50087,4
26984,50095,5
26994,50093,5
26988,50095,5
26990,50099,5
26996,50098,4
26988,50095,5
26994,50096,5
26999,50102,5
26992,50102,5
27002,50113,4
26997,50115,5
26998,50115,5
27008,50116,5
27008,50122,5
27006,50124,4
27011,50117,6
27008,50124,4
27003,50116,5
27009,50115,4
27010,50123,4
27000,50119,5
26996,50110,5
27007,50109,5
26997,50114,4
27003,50112,5
27004,50106,5
26999,50111,5
27002,50107,5
27010,50114,4
27005,50123,5
26999,50114,5
27007,50116,5
27008,50114,5
27005,50127,4
27013,50118,5
27008,50125,5
27007,50120,5
27011,50127,5
27006,50130,4
27008,50134,5
27022,50134,6
27019,50144,4
27020,50156,5
27024,50146,4
27027,50154,5
27019,50149,5
27025,50157,5
27028,50150,4
27030,50151,4
27032,50160,5
27031,50156,5
27025,50160,5
27027,50167,4
27026,50161,5
27035,50159,5
27035,50162,5
27037,50167,5
27039,50172,4
27036,50169,5
27037,50172,5
27028,50168,5
27029,50164,5
27031,50163,4
27034,50165,5
27028,50168,5
27031,50163,6
27030,50157,4
27033,50160,4
27032,50159,5
27032,50161,5
27028,50164,5
27037,50158,5
27035,50163,4
27022,50152,5
27029,50155,5
27026,50157,5
27033,50148,4
27028,50146,4
26995,50140,5
27017,50152,8
27017,50141,2
27018,50154,4
26993,50147,5
27023,50145,5
27027,50143,5
27023,50154,5
26983,50149,5
27038,50164,4
27023,50167,5
27036,50152,5
27029,50153,6
27033,50153,3
27030,50160,5
27029,50159,5
27080,50147,5
27020,50144,5
27024,50146,4
27022,50137,5
27083,50137,5
27022,50144,5
27020,50140,5
27021,50135,4
27037,50135,5
27015,50142,5
27020,50146,5
27018,50136,4
27029,50138,4
27011,50130,5
27021,50145,5
27017,50137,5
27021,50105,4
27013,50143,6
27020,50136,4
27017,50139,5
27016,50081,5
27014,50128,4
27009,50126,5
27011,50123,5
27010,50076,5
27002,50115,5
27005,50122,5
27005,50112,4
27005,50142,5
26999,50110,5
27003,50119,5
27002,50109,4
27001,50169,5
27000,50108,5
26997,50102,5
27000,50119,5
26989,50147,4
26995,50109,5
26996,50102,5
26984,50105,5
26994,50117,4
27000,50098,4
26995,50103,6
26993,50085,4
26983,50102,5
26978,50088,4
26992,50084,5
26983,50081,5
26984,50082,5
26980,50083,5
26980,50075,4
26971,50075,5
26972,50072,5
26977,50073,5
26967,50078,5
26976,50072,4
26980,50074,5
26974,50068,5
26976,50070,5
26969,50063,5
26966,50071,4
26978,50074,5
26971,50074,5
26981,50068,5
26973,50077,5
26977,50072,4
26974,50071,5
26980,50082,6
26978,50080,4
26972,50085,4
26974,50073,5
26977,50078,5
26971,50073,5
26974,50076,5
26971,50065,4
26965,50071,5
26969,50067,5
26970,50064,5
26967,50070,5
26976,50068,4
26969,50065,5
26962,50057,5
26964,50061,5
26962,50060,5
26965,50056,4
26965,50063,5
26969,50048,5
26955,50050,5
26963,50052,5
26959,50054,4
26952,50052,5
26956,50046,5
26953,50043,5
26963,50050,4
26956,50048,4
26958,50045,5
26964,50046,5
26956,50050,5
26949,50037,4
26954,50037,5
26956,50045,5
26948,50036,5
26952,50038,5
26945,50031,4
26952,50036,5
26956,50041,5
26944,50028,5
26956,50029,5
26949,50036,4
26951,50031,5
26949,50024,5
26948,50030,5
26954,50031,5
26952,50038,5
26957,50041,4
26947,50048,5
26963,50051,5
26961,50061,5
26970,50058,4
26977,50066,5
26976,50063,5
26973,50066,5
26978,50080,4
26981,50071,4
26985,50069,5
26941,50069,5
26968,50060,5
26971,50052,4
26975,50054,5
26916,50061,5
26965,50059,5
26965,50058,5
26969,50061,4
26936,50067,5
26968,50058,5
26968,50063,5
26972,50062,5
26998,50059,4
26976,50074,6
26973,50072,4
26971,50067,5
27031,50067,5
26975,50077,4
26976,50062,5
26968,50063,5
27008,50057,5
26970,50050,5
26958,50038,4
26953,50040,5
26961,50029,5
26946,50025,5
26940,50008,4
26933,50002,4
26935,49983,5
26933,50003,5
26932,49984,5
26925,49982,4
26922,49942,5
26926,49987,5
26915,49978,6
26908,49964,4
26916,49908,4
26904,49961,5
26900,49953,5
26908,49951,5
26902,49949,5
26900,49956,4
26908,49943,5
26902,49943,5
26894,49998,5
26901,49938,5
26886,49923,4
26893,49921,5
26898,49990,5
26889,49929,5
26894,49935,5
26896,49933,4
26890,49961,5
26894,49937,5
26891,49928,5
26899,49946,5
26900,49941,4
26902,49940,5
26901,49943,5
26905,49941,6
26899,49940,3
26892,49939,5
26897,49942,5
26895,49944,5
26901,49942,5
26903,49943,4
26904,49957,5
26905,49962,5
26903,49956,5
26903,49945,5
26910,49947,4
26906,49941,5
26906,49952,5
26906,49949,5
26901,49955,5
26903,49952,4
26904,49948,5
26907,49946,5
26905,49956,5
26907,49955,4
26906,49951,5
26901,49961,4
26903,49945,5
26909,49945,5
26905,49960,6
26909,49952,3
26906,49953,5
26907,49953,5
26901,49955,5
26906,49957,4
26911,49962,5
26910,49965,5
26915,49963,5
26920,49964,5
26918,49966,4
26921,49977,5
26914,49965,5
26916,49960,5
26914,49962,5
26921,49962,4
26916,49963,5
26912,49960,5
26910,49952,5
26909,49969,5
26910,49949,4
26912,49952,6
26907,49954,4
26907,49962,5
26911,49958,4
26910,49961,6
26907,49949,3
26909,49958,5
26903,49957,5
26919,49958,4
26908,49951,5
26900,49949,5
26903,49954,5
26903,49946,5
26905,49948,4
26902,49956,5
26904,49959,5
26905,49945,5
26904,49943,5
26907,49953,4
26902,49947,5
26893,49953,5
26899,49950,5
26903,49939,5
26900,49948,4
26891,49933,5
26888,49945,6
26900,49937,4
26898,49944,5
26901,49949,4
26903,49931,5
26902,49935,5
26897,49937,5
26874,49926,4
26894,49930,4
26889,49939,5
26893,49929,5
26848,49929,5
26893,49929,4
26898,49919,5
26896,49923,5
26839,49927,5
26886,49926,5
26888,49910,4
26882,49914,5
26899,49915,5
26880,49914,5
26887,49905,5
26890,49912,4
26932,49923,5
26883,49909,5
26881,49920,6
26885,49915,4
26942,49923,4
26889,49920,5
26885,49923,5
26891,49922,5
26910,49917,5
26882,49917,4
26888,49918,5
26878,49914,5
26886,49905,5
26882,49909,4
26879,49912,4
26881,49902,5
26880,49861,5
26876,49897,5
26870,49882,4
26861,49870,5
26855,49801,5
26843,49846,5
26835,49835,5
26832,49824,5
26828,49785,4
26833,49820,5
26828,49819,5
26828,49816,6
26826,49844,3
26822,49807,5
26820,49817,5
26817,49798,5
26814,49856,5
26816,49793,4
26812,49794,5
26819,49804,5
26813,49847,5
26821,49812,5
26817,49798,4
26822,49818,5
26820,49836,5
26818,49812,5
26822,49808,4
26821,49814,4
26818,49804,5
26821,49806,5
26818,49808,5
26820,49793,4
26805,49798,6
26811,49804,4
26809,49795,5
26806,49802,5
26818,49810,4
26816,49793,5
26818,49796,5
26808,49794,5
26805,49778,5
26799,49776,4
26806,49778,5
26803,49786,5
26798,49789,5
26813,49787,5
26811,49791,4
26806,49800,5
26810,49806,5
26812,49807,5
26814,49798,4
26805,49782,4
26790,49783,5
26791,49773,5
26791,49769,5
26787,49756,4
26787,49760,5
26782,49771,6
26791,49769,4
26796,49770,5
26795,49778,4
26802,49776,5
26789,49771,5
26794,49771,5
26795,49767,5
26796,49781,4
26798,49774,5
26793,49779,5
26795,49774,5
26797,49768,5
26802,49779,4
26800,49777,5
26801,49793,5
26805,49775,5
26805,49791,5
26811,49782,4
26807,49788,5
26812,49783,5
26798,49791,5
26809,49779,4
26801,49788,4
26814,49787,5
26812,49798,6
26809,49792,4
26816,49802,4
26808,49801,5
26808,49794,5
26808,49799,5
26815,49795,5
26816,49793,4
26819,49804,5
26809,49801,5
26809,49798,5
26812,49798,5
26815,49802,4
26820,49797,5
26822,49797,5
26819,49803,5
26823,49797,5
26816,49802,4
26818,49797,5
26815,49793,5
26817,49798,5
26811,49796,5
26811,49787,4
26801,49790,5
26812,49794,5
26817,49792,5
26810,49798,4
26775,49790,5
26814,49790,4
26816,49788,5
26815,49795,5
26760,49793,4
26808,49787,5
26802,49785,5
26805,49785,5
26795,49778,5
26795,49781,4
26804,49761,5
26800,49765,5
26828,49761,5
26788,49755,5
26790,49745,4
26785,49758,5
26855,49753,5
26791,49761,5
26786,49753,5
26791,49754,5
26831,49749,4
26796,49762,5
26789,49767,5
26793,49760,5
26804,49747,4
26785,49746,5
26778,49748,5
26779,49741,5
26778,49716,4
26787,49741,5
26785,49733,5
26773,49728,5
26772,49693,5
26774,49732,4
26778,49728,5
26777,49722,5
26778,49673,5
26780,49736,5
26782,49731,5
26771,49735,4
26776,49742,5
26782,49725,5
26784,49734,5
26778,49738,4
26770,49778,6
26783,49729,4
26773,49734,5
26777,49741,5
26785,49798,4
26774,49729,5
26774,49728,5
26775,49738,5
26771,49751,4
26778,49736,4
26776,49724,5
26782,49726,5
26773,49735,5
26779,49735,4
26779,49736,5
26784,49744,5
26779,49737,5
26783,49736,5
26782,49738,4
26776,49737,5
26785,49740,5
26787,49747,5
26792,49750,5
26786,49749,4
26787,49750,5
26787,49757,6
26781,49760,4
26799,49764,5
26795,49759,4
26798,49757,5
26801,49764,5
26796,49766,5
26803,49772,5
26796,49773,4
26799,49770,5
26805,49773,5
26806,49771,5
26807,49775,4
26810,49775,4
26812,49784,5
26812,49781,5
26805,49784,5
26814,49787,4
26815,49790,5
26810,49790,5
26813,49802,5
26814,49807,5
26818,49801,4
26822,49813,5
26828,49805,5
26825,49814,5
26836,49819,5
26833,49839,4
26837,49836,5
26845,49839,5
26844,49840,5
26846,49841,5
26842,49837,4
26846,49833,5
26845,49838,5
26844,49831,5
26837,49824,5
26834,49821,4
26835,49824,5
26835,49820,5
26822,49815,5
26832,49821,4
26830,49817,4
26832,49815,5
26829,49819,5
26826,49822,5
26832,49826,5
26832,49827,3
26833,49824,5
26833,49828,5
26837,49834,5
26829,49824,4
26841,49832,5
26832,49836,5
26838,49823,5
26841,49831,5
26834,49829,4
26839,49836,5
26844,49841,5
26838,49838,5
26839,49847,5
26841,49852,4
26845,49833,5
26844,49838,5
26836,49845,5
26843,49846,5
26850,49837,4
26845,49839,6
26816,49840,4
26847,49854,5
26854,49845,4
26850,49848,7
26801,49847,3
26849,49840,5
26845,49851,5
26848,49843,4
26799,49850,5
26847,49853,5
26857,49855,10
26850,49849,8
26853,49862,5
26853,49863,5
26856,49856,5
26862,49870,8
26862,49870,5
26859,49869,5
26863,49852,8
26865,49863,5
26864,49871,5
26876,49881,5
26854,49869,8
26857,49861,5
26878,49869,5
26869,49870,8
26867,49881,5
26857,49876,5
26864,49880,5
26868,49872,8
26868,49872,5
26892,49882,5
26891,49879,8
26880,49886,1
26864,49875,2
26866,49891,5
26868,49883,4
26868,49874,5
26873,49887,5
26867,49877,5
26870,49877,5
26871,49882,4
26869,49886,5
26865,49882,5
26874,49879,6
26865,49886,4
26872,49882,4
26874,49880,5
26879,49888,5
26877,49890,10
26878,49887,9
26883,49888,5
26882,49898,8
26880,49851,5
26880,49881,5
26879,49902,8
26884,49901,5
26884,49901,5
26882,49912,8
26888,49905,5
26879,49909,5
26885,49910,5
26887,49906,8
26889,49920,5
26889,49916,5
26880,49856,8
26868,49874,5
26885,49910,5
26888,49917,5
26890,49922,8
26890,49922,5
26883,49907,5
26886,49906,8
26881,49911,5
26890,49899,5
26882,49909,8
26881,49899,5
26880,49900,5
26876,49892,5
26887,49899,8
