RED,IR,EKG,TIME
35541,66782,5
35493,66764,5
35487,66752,8
35483,66736,7
35482,66715,7
35427,66643,10
35427,66643,5
35415,66631,5
35416,66632,10
35420,66618,5
35410,66614,5
35415,66557,10
35424,66649,9
35424,66649,10
35428,66617,5
35435,66664,5
35451,66692,10
35445,66684,4
35453,66718,5
35459,66705,10
35459,66705,5
35457,66697,5
35463,66690,10
35451,66701,5
35440,66658,5
35423,66632,10
35423,66632,5
35424,66633,5
35432,66637,10
35461,66658,5
35423,66648,5
35398,66657,10
35436,66656,5
35434,66651,5
35445,66671,10
35445,66671,5
35453,66681,7
35440,66680,8
35465,66676,5
35464,66697,7
35481,66735,8
35481,66735,5
35486,66748,7
35479,66746,8
35498,66733,5
35503,66763,7
35518,66776,8
35530,66776,5
35506,66783,7
35529,66814,8
35529,66814,5
35521,66775,7
35535,66807,8
35544,66823,5
35536,66829,7
35533,66826,8
35540,66837,7
35540,66837,5
35520,66828,8
35541,66842,7
35559,66849,5
35550,66852,8
35550,66835,7
35556,66852,5
35595,66918,8
35595,66918,7
35589,66949,7
35598,66947,10
35602,66935,5
35575,66944,5
35618,66967,8
35618,66967,7
35615,66975,10
35624,66973,9
35621,66983,5
35619,66967,8
35619,66967,7
35560,66962,10
35607,66949,7
35609,66942,5
35572,66892,8
35572,66892,7
35575,66877,5
35562,66875,8
35567,66823,7
35531,66858,9
35552,66840,10
35552,66840,5
35558,66855,5
35561,66849,10
35539,66850,5
35559,66856,4
35561,66850,2
35560,66854,2
35590,66857,5
35548,66859,4
35562,66862,6
35559,66856,4
35598,66852,5
35555,66848,5
35560,66838,4
35552,66835,5
35574,66827,5
35550,66831,5
35549,66828,5
35556,66829,4
35559,66840,5
35551,66849,5
35566,66852,5
35559,66855,4
35567,66838,4
35565,66869,5
35572,66876,5
35569,66885,5
35582,66842,4
35586,66892,5
35577,66897,5
35587,66908,5
35592,66868,5
35592,66914,4
35591,66915,5
35595,66911,6
35589,66923,4
35588,66903,5
35588,66910,4
35580,66897,5
35594,66945,5
35584,66897,5
35584,66898,5
35580,66900,4
35586,66944,5
35583,66897,5
35588,66905,5
35582,66904,4
35584,66924,4
35594,66917,5
35601,66897,5
35599,66924,5
35602,66911,4
35598,66925,5
35594,66919,5
35593,66912,5
35591,66923,5
35595,66914,4
35602,66919,5
35601,66918,5
35602,66924,6
35594,66923,4
35606,66926,4
35598,66919,5
35595,66913,5
35606,66925,5
35600,66921,5
35604,66930,4
35608,66931,5
35605,66929,5
35610,66928,5
35615,66946,4
35614,66943,4
35609,66951,5
35615,66961,5
35622,66975,5
35629,66974,4
35633,66981,5
35633,66981,5
35636,67000,5
35638,67007,5
35649,67026,5
35663,67031,4
35661,67029,5
35658,67048,5
35665,67050,5
35667,67062,4
35673,67068,5
35673,67063,5
35686,67063,5
35677,67073,5
35676,67074,4
35670,67072,5
35688,67082,5
35683,67073,5
35694,67082,5
35678,67080,4
35683,67078,5
35674,67071,5
35681,67071,5
35673,67069,4
35682,67072,5
35678,67064,5
35671,67061,5
35672,67055,5
35670,67041,4
35669,67038,6
35652,67027,4
35653,67016,5
35650,66997,5
35641,66988,4
35626,66975,5
35628,66964,5
35613,66963,5
35615,66952,5
35617,66944,4
35618,66943,5
35616,66951,5
35610,66954,5
35619,66955,5
35612,66954,4
35619,66960,5
35628,66977,5
35631,66980,5
35639,66987,4
35643,67002,4
35647,67009,5
35647,67022,5
35654,67023,5
35658,67040,4
35666,67038,5
35670,67055,6
35667,67054,4
35639,67051,5
35668,67030,4
35656,67030,5
35653,67027,5
35608,67006,5
35646,67000,5
35636,66999,4
35634,66981,5
35601,66986,5
35645,66993,5
35642,67000,5
35640,66997,4
35654,66986,5
35638,66996,5
35640,67001,5
35645,66998,4
35685,66996,4
35646,67009,5
35648,67013,5
35646,67022,5
35691,67021,4
35658,67016,5
35651,67016,5
35657,67024,5
35660,67026,5
35652,67024,4
35643,67008,5
35657,67014,5
35651,67001,5
35643,67011,5
35654,67012,4
35641,67011,5
35646,66970,5
35658,66995,5
35648,67002,5
35649,67014,4
35646,66971,5
35651,67009,5
35649,67003,5
35645,66997,5
35648,66992,4
35642,66991,5
35639,66993,5
35632,66989,5
35640,67022,5
35637,66990,4
35634,66987,5
35636,66970,5
35625,67014,5
35624,66963,4
35623,66955,5
35623,66951,5
35617,66968,5
35612,66940,5
35608,66939,4
35614,66941,5
35610,66938,5
35609,66953,5
35625,66954,5
35624,66952,4
35625,66958,5
35624,66963,5
35634,66970,5
35629,66976,5
35626,66987,4
35644,66996,5
35641,67005,5
35651,67018,5
35657,67020,4
35652,67021,6
35656,67036,4
35659,67030,5
35657,67042,5
35667,67047,4
35668,67050,5
35674,67060,5
35680,67071,5
35679,67077,5
35677,67067,4
35674,67075,5
35682,67079,5
35687,67078,5
35688,67079,5
35690,67086,4
35694,67098,5
35698,67108,5
35697,67096,5
35698,67109,5
35703,67116,4
35700,67120,5
35705,67122,5
35708,67114,5
35704,67118,4
35705,67121,4
35706,67121,6
35711,67129,3
35710,67122,5
35716,67122,4
35704,67119,5
35711,67122,5
35712,67123,5
35709,67125,5
35708,67112,4
35701,67110,5
35704,67111,5
35702,67107,5
35707,67108,5
35710,67102,4
35709,67109,5
35706,67108,5
35706,67101,5
35705,67094,5
35704,67107,4
35706,67101,5
35704,67103,5
35706,67100,6
35708,67096,3
35697,67097,4
35700,67101,5
35706,67092,5
35707,67102,5
35695,67088,4
35702,67096,5
35701,67093,5
35697,67097,5
35697,67097,5
35703,67098,4
35700,67094,5
35695,67089,5
35694,67089,5
35697,67071,5
35694,67073,4
35683,67077,5
35680,67067,5
35681,67053,5
35665,67036,5
35660,67016,5
35632,67011,4
35637,66992,5
35635,66978,5
35635,66972,6
35593,66954,3
35625,66960,5
35627,66962,5
35622,66960,5
35596,66967,4
35632,66973,5
35633,66981,5
35639,66996,5
35654,67014,5
35653,67033,4
35662,67039,5
35670,67054,5
35718,67065,5
35686,67067,5
35690,67076,4
35686,67083,5
35728,67076,5
35688,67075,5
35667,67057,5
35671,67055,4
35689,67040,6
35662,67017,4
35646,67014,5
35642,67006,5
35642,66988,6
35647,66998,3
35647,66993,5
35649,67001,5
35648,66972,4
35652,67005,4
35653,67020,5
35649,67027,5
35665,66990,5
35666,67037,4
35665,67044,5
35671,67049,5
35684,67044,5
35684,67070,5
35687,67074,5
35686,67089,4
35693,67102,5
35697,67098,5
35693,67101,5
35694,67101,4
35696,67147,5
35687,67108,6
35695,67093,4
35692,67099,5
35690,67122,4
35684,67083,5
35696,67096,5
35704,67095,5
35689,67111,4
35696,67106,4
35698,67103,5
35693,67085,5
35695,67095,5
35686,67083,4
35685,67077,5
35678,67068,5
35667,67064,5
35669,67061,5
35669,67058,4
35666,67033,5
35653,67039,5
35655,67021,5
35641,67004,5
35651,67002,4
35636,66994,5
35625,66985,5
35633,66980,6
35621,66980,4
35620,66975,4
35619,66959,5
35613,66964,5
35620,66970,5
35619,66965,4
35617,66966,4
35618,66967,5
35624,66974,5
35615,66967,5
35620,66984,4
35626,66985,5
35629,66985,5
35625,66990,5
35632,67001,5
35635,66995,4
35630,66990,5
35631,66998,5
35628,66995,5
35628,66990,5
35634,66987,5
35629,66999,4
35623,66989,5
35621,66978,5
35624,66985,6
35612,66981,3
35601,66965,5
35605,66952,5
35606,66948,5
35598,66947,5
35581,66933,4
35579,66907,5
35577,66898,5
35564,66879,5
35550,66861,4
35557,66846,4
35538,66819,5
35524,66797,5
35508,66777,5
35503,66769,4
35497,66732,5
35487,66727,5
35477,66723,5
35467,66703,5
35461,66695,4
35461,66694,6
35460,66687,4
35459,66679,5
35460,66692,5
35447,66688,4
35454,66689,5
35452,66695,5
35464,66699,5
35458,66708,5
35459,66709,4
35454,66706,5
35464,66707,5
35461,66708,5
35461,66702,4
35459,66689,4
35457,66683,5
35450,66671,5
35436,66663,5
35437,66653,4
35424,66635,5
35428,66626,5
35397,66643,5
35419,66639,5
35418,66637,4
35434,66639,5
35393,66641,6
35426,66637,4
35422,66648,5
35417,66637,4
35409,66620,5
35416,66628,5
35421,66620,5
35417,66623,5
35443,66620,4
35413,66606,5
35403,66605,5
35405,66596,5
35435,66590,4
35391,66581,4
35393,66579,5
35380,66564,5
35394,66545,5
35371,66544,4
35366,66538,5
35363,66517,5
35368,66516,5
35354,66516,5
35361,66518,4
35362,66521,5
35356,66496,5
35346,66510,6
35349,66505,4
35345,66497,4
35349,66467,5
35351,66496,5
35349,66496,5
35343,66488,5
35348,66450,4
35338,66494,5
35342,66482,5
35338,66474,5
35338,66488,4
35338,66469,4
35325,66472,5
35328,66476,5
35343,66529,5
35336,66495,4
35335,66506,5
35339,66507,5
35355,66543,5
35346,66515,5
35356,66530,5
35365,66535,4
35370,66580,5
35390,66612,5
35417,66653,5
35434,66700,4
35443,66691,5
35428,66672,5
35424,66662,5
35407,66641,5
35400,66643,4
35409,66635,5
35398,66626,5
35392,66628,5
35389,66625,5
35396,66624,4
35395,66618,5
35390,66610,5
35394,66614,5
35383,66608,4
35386,66598,5
35385,66594,5
35373,66588,5
35379,66586,5
35378,66583,4
35378,66589,6
35372,66586,4
35380,66587,5
35382,66590,5
35371,66578,4
35379,66583,5
35377,66591,5
35380,66593,5
35387,66595,5
35382,66592,4
35379,66599,5
35387,66620,5
35393,66626,5
35402,66636,5
35412,66642,4
35406,66641,5
35420,66657,5
35418,66650,5
35416,66662,4
35426,66660,4
35421,66665,5
35422,66663,5
35421,66658,5
35432,66649,4
35416,66652,5
35429,66639,6
35410,66655,4
35425,66657,5
35426,66681,4
35425,66669,5
35430,66686,5
35446,66689,5
35447,66711,5
35459,66718,4
35467,66735,5
35475,66753,5
35477,66767,5
35493,66775,5
35489,66791,4
35507,66811,5
35515,66817,5
35517,66833,5
35518,66839,4
35532,66842,4
35539,66858,5
35542,66869,5
35543,66878,5
35555,66894,4
35558,66906,5
35564,66914,5
35572,66919,5
35578,66931,5
35586,66939,4
35602,66959,5
35594,66962,5
35605,66986,5
35608,66984,5
35615,66990,4
35617,66993,5
35624,67002,5
35616,67005,5
35633,67016,5
35615,67020,4
35633,67016,5
35635,67024,5
35636,67021,5
35597,67026,5
35643,67023,4
35647,67031,5
35644,67031,5
35598,67024,5
35641,67033,5
35642,67028,4
35635,67022,5
35644,67033,5
35646,67035,5
35644,67031,4
35647,67039,5
35687,67041,5
35656,67046,5
35657,67051,5
35662,67061,4
35706,67063,5
35666,67071,5
35676,67092,5
35683,67092,5
35696,67103,4
35688,67114,5
35694,67132,5
35707,67141,5
35717,67153,5
35715,67168,4
35720,67177,6
35733,67181,4
35732,67155,5
35735,67189,4
35728,67195,4
35740,67189,5
35733,67149,5
35730,67182,5
35730,67170,5
35733,67163,4
35723,67142,5
35718,67146,5
35710,67141,5
35713,67128,4
35713,67148,5
35710,67119,5
35706,67108,5
35699,67108,5
35693,67156,4
35688,67104,5
35694,67107,5
35697,67112,5
35702,67146,5
35706,67125,4
35705,67127,5
35705,67152,6
35718,67162,4
35722,67153,4
35725,67171,4
35737,67172,5
35730,67190,5
35731,67185,5
35728,67177,4
35733,67165,5
35717,67160,5
35723,67145,5
35711,67133,5
35707,67125,4
35700,67125,5
35709,67124,5
35707,67127,5
35703,67120,5
35702,67122,4
35702,67117,5
35702,67119,5
35701,67105,5
35703,67114,5
35701,67118,4
35697,67114,5
35697,67117,5
35707,67123,6
35709,67123,3
35712,67116,4
35715,67128,5
35707,67126,5
35711,67133,5
35718,67129,4
35717,67134,5
35706,67134,5
35712,67137,5
35711,67132,5
35713,67139,4
35707,67137,5
35715,67141,5
35709,67139,5
35715,67145,5
35716,67138,4
35707,67139,5
35708,67127,5
35703,67121,5
35699,67105,5
35694,67094,5
35677,67070,4
35668,67050,5
35654,67026,5
35643,67013,6
35644,66996,3
35634,66980,5
35637,66982,5
35638,66979,5
35628,66980,4
35626,66975,5
35623,66979,5
35626,66984,5
35631,66987,5
35637,66991,4
35642,66997,5
35646,67016,5
35655,67026,5
35657,67037,5
35667,67045,4
35675,67073,5
35685,67086,5
35693,67098,5
35697,67112,5
35711,67132,4
35721,67143,6
35726,67161,4
35735,67179,5
35738,67188,5
35746,67196,4
35748,67198,5
35751,67206,5
35754,67208,5
35750,67202,4
35760,67219,6
35762,67212,3
35738,67212,5
35752,67209,5
35753,67192,4
35753,67201,5
35718,67196,5
35738,67183,5
35744,67184,5
35739,67171,4
35700,67175,5
35745,67181,5
35729,67166,5
35728,67165,5
35722,67164,4
35721,67164,5
35720,67145,6
35720,67145,4
35749,67141,5
35721,67140,4
35713,67142,5
35715,67135,5
35755,67137,5
35718,67131,4
35708,67145,4
35723,67152,5
35751,67163,5
35736,67174,5
35735,67172,4
35736,67181,5
35738,67180,5
35744,67193,5
35746,67202,5
35744,67189,4
35733,67152,5
35718,67157,5
35708,67151,5
35699,67131,5
35695,67077,4
35695,67097,5
35673,67077,5
35651,67040,6
35630,66963,4
35613,66949,4
35599,66910,5
35566,66878,5
35549,66848,5
35517,66768,5
35468,66683,4
35422,66584,5
35358,66529,5
35316,66413,5
35269,66328,4
35227,66272,5
35202,66245,5
35163,66149,5
35131,66104,5
35126,66088,4
35112,66095,5
35108,66077,5
35113,66082,5
35111,66085,5
35125,66105,5
35128,66104,4
35126,66103,5
35133,66126,5
35146,66151,5
35188,66232,4
35234,66351,5
35305,66473,5
35371,66583,5
35428,66693,5
35474,66772,4
35518,66857,5
35562,66922,5
35597,66984,5
35625,67030,4
35648,67067,5
35667,67104,5
35681,67121,5
35682,67124,5
35680,67118,4
35672,67085,5
35656,67072,5
35655,67058,5
35653,67049,5
35642,67019,4
35622,66998,6
35613,66974,4
35591,66940,5
35581,66918,5
35556,66887,4
35535,66836,5
35517,66801,5
35503,66761,5
35483,66734,5
35481,66714,4
35459,66701,5
35457,66679,5
35442,66665,5
35439,66658,4
35430,66652,4
35435,66642,5
35432,66639,5
35421,66647,5
35425,66626,4
35425,66630,5
35425,66627,5
35415,66623,5
35418,66614,5
35400,66614,4
35408,66608,5
35411,66605,6
35402,66604,4
35409,66611,5
35409,66612,4
35410,66619,5
35414,66615,5
35417,66615,5
35409,66619,5
35415,66618,4
35406,66614,5
35414,66610,5
35399,66606,5
35397,66596,4
35401,66606,4
35399,66604,5
35397,66590,5
35408,66600,5
35396,66613,4
35407,66609,5
35413,66615,5
35407,66629,5
35407,66623,5
35424,66640,4
35434,66656,5
35432,66659,5
35442,66663,6
35440,66683,4
35450,66691,4
35466,66706,5
35465,66717,5
35469,66736,5
35451,66747,5
35484,66752,4
35483,66769,5
35495,66761,5
35459,66759,5
35485,66765,4
35481,66759,4
35482,66750,5
35454,66737,5
35465,66725,5
35473,66713,4
35461,66716,5
35480,66715,5
35458,66711,5
35460,66709,5
35465,66701,5
35492,66701,4
35446,66694,5
35443,66700,5
35455,66697,5
35479,66696,4
35461,66705,5
35456,66702,5
35450,66709,5
35474,66716,5
35467,66710,4
35468,66730,5
35459,66731,5
35468,66716,5
35462,66730,5
35467,66729,4
35461,66726,5
35466,66695,5
35468,66721,5
35460,66718,5
35459,66715,4
35458,66680,5
35466,66718,5
35457,66709,5
35462,66715,4
35459,66718,6
35457,66715,4
35456,66715,5
35459,66698,5
35451,66739,4
35447,66704,5
35454,66697,5
35452,66691,5
35448,66729,5
35447,66685,4
35445,66685,5
35440,66683,5
35437,66701,5
35441,66677,5
35433,66672,4
35432,66685,5
35443,66686,5
35439,66677,5
35440,66686,4
35441,66686,4
35444,66690,5
35451,66698,5
35446,66690,5
35449,66701,4
35448,66699,5
35454,66699,6
35449,66705,4
35452,66717,5
35455,66703,4
35454,66707,5
35449,66712,5
35456,66718,5
35453,66712,5
35452,66714,4
35455,66723,5
35447,66725,5
35468,66726,5
35449,66722,5
35460,66715,4
35451,66728,5
35446,66722,5
35447,66715,5
35449,66725,4
35454,66720,4
35454,66726,5
35456,66718,5
35448,66718,5
35452,66713,4
35448,66710,5
35453,66704,5
35444,66690,5
35435,66697,5
35438,66681,4
35439,66685,5
35428,66678,5
35431,66669,5
35431,66664,5
35426,66651,4
35422,66641,5
35407,66641,5
35411,66631,5
35399,66623,5
35402,66616,4
35396,66603,5
35391,66583,5
35373,66574,5
35369,66553,4
35364,66535,5
35346,66524,4
35330,66505,5
35326,66490,5
35324,66474,6
35322,66471,3
35318,66468,5
35315,66477,5
35322,66470,5
35315,66474,4
35319,66465,5
35306,66468,5
35317,66455,5
35317,66455,5
35310,66452,4
35316,66454,5
35309,66467,5
35315,66470,5
35330,66499,5
35336,66510,4
35344,66524,5
35354,66545,5
35353,66558,5
35372,66573,5
35379,66591,4
35395,66603,6
35395,66627,4
35403,66627,5
35413,66644,4
35409,66657,7
35399,66661,3
35415,66650,5
35414,66665,5
35420,66657,4
35374,66645,5
35409,66645,5
35413,66635,5
35413,66634,5
35364,66640,4
35406,66636,5
35413,66642,5
35407,66631,5
35407,66638,5
35418,66651,4
35417,66656,5
35416,66663,5
35454,66653,5
35413,66660,5
35416,66660,4
35421,66670,5
35470,66670,6
35422,66664,4
35422,66676,4
35419,66677,5
35448,66680,5
35426,66680,5
35445,66685,5
35431,66680,4
35436,66686,5
35436,66692,5
35427,66686,5
35437,66683,5
35435,66651,4
35431,66693,5
35432,66680,5
35433,66683,5
35419,66638,5
35423,66676,4
35417,66665,5
35424,66671,5
35417,66641,5
35418,66664,5
35414,66658,4
35414,66655,5
35407,66679,5
35412,66659,6
35403,66651,3
35411,66662,4
35412,66700,5
35413,66661,5
35413,66672,5
35419,66660,4
35417,66684,5
35413,66655,5
35414,66668,5
35418,66670,5
35415,66683,4
35416,66660,5
35418,66668,5
35419,66670,5
35411,66657,5
35417,66659,4
35404,66657,5
35413,66666,5
35404,66655,5
35410,66659,5
35413,66651,5
35414,66661,4
35414,66662,5
35419,66664,5
35406,66653,6
35409,66669,3
35414,66663,5
35421,66678,5
35425,66682,5
35429,66685,4
35429,66690,5
35435,66699,5
35433,66706,5
35422,66694,5
35421,66691,4
35432,66685,5
35427,66690,5
35422,66676,5
35423,66669,5
35421,66658,4
35403,66646,5
35396,66639,5
35399,66628,5
35397,66624,5
35389,66617,4
35393,66625,6
35387,66614,4
35385,66614,5
35385,66620,5
35391,66623,4
35385,66612,5
35389,66616,5
35389,66618,5
35393,66624,4
35389,66627,5
35388,66627,5
35389,66630,5
35392,66613,5
35388,66620,4
35387,66627,5
35392,66621,5
35394,66617,5
35384,66621,5
35395,66617,4
35385,66619,5
35385,66606,5
35386,66616,5
35392,66623,5
35391,66617,4
35384,66612,5
35399,66626,6
35390,66629,4
35386,66621,5
35387,66622,4
35389,66626,5
35389,66636,5
35385,66618,5
35394,66623,4
35397,66622,4
35393,66629,5
35396,66625,5
35401,66643,5
35401,66644,4
35395,66642,5
35405,66643,5
35415,66656,5
35416,66657,5
35418,66668,4
35413,66682,5
35423,66688,5
35431,66694,5
35424,66700,5
35444,66709,5
35456,66732,4
35448,66741,5
35428,66756,6
35469,66763,4
35471,66776,4
35477,66782,5
35449,66798,5
35488,66816,5
35501,66817,4
35509,66849,4
35501,66856,5
35522,66862,5
35533,66878,5
35544,66888,4
35573,66909,5
35549,66906,5
35551,66926,5
35564,66931,5
35605,66946,4
35583,66940,5
35580,66957,5
35593,66958,5
35607,66967,5
35588,66980,5
35593,66986,4
35597,66996,5
35609,66989,5
35609,66995,5
35605,66998,4
35596,67005,5
35609,66980,5
35603,67000,5
35606,66995,4
35608,66990,4
35601,66958,5
35609,66989,5
35612,66990,5
35616,66992,4
35611,66968,5
35616,67002,5
35612,67002,5
35618,67001,5
35608,67030,4
35628,67022,5
35625,67033,5
35643,67047,5
35641,67091,5
35654,67067,4
35659,67078,6
35659,67081,4
35671,67135,5
35671,67094,5
35674,67099,4
35677,67109,5
35679,67117,5
35680,67100,5
35674,67097,4
35668,67081,4
35659,67072,5
35670,67074,5
35665,67067,5
35663,67068,4
35669,67071,5
35671,67083,5
35660,67066,5
35669,67067,5
35670,67066,4
35669,67075,5
35666,67071,5
35671,67080,5
35683,67087,5
35683,67093,4
35683,67100,5
35693,67108,6
35691,67114,4
35695,67131,5
35702,67124,4
35703,67134,5
35711,67144,5
35716,67147,5
35705,67146,5
35709,67157,4
35719,67151,5
35713,67158,5
35722,67171,5
35727,67172,4
35725,67174,4
35730,67178,5
35734,67190,5
35748,67195,5
35745,67205,4
35745,67208,5
35747,67210,5
35750,67217,5
35754,67221,5
35757,67221,4
35750,67220,5
35750,67220,5
35753,67220,5
35752,67215,5
35755,67210,4
35752,67213,5
35754,67213,5
35745,67216,5
35749,67210,5
35752,67216,4
35756,67207,5
35755,67203,5
35758,67216,5
35757,67220,4
35756,67231,4
35756,67224,5
35757,67228,5
35767,67233,5
35766,67234,4
35776,67245,5
35774,67254,5
35784,67259,5
35790,67268,5
35787,67275,5
35800,67287,4
35802,67300,5
35806,67313,5
35814,67318,5
35817,67320,4
35820,67337,5
35824,67348,5
35824,67346,5
35837,67357,5
35839,67360,4
35838,67358,5
35840,67355,5
35833,67358,5
35835,67359,4
35840,67358,4
35836,67356,5
35830,67355,5
35837,67356,5
35837,67350,4
35797,67353,5
35826,67354,5
35826,67347,5
35828,67341,5
35795,67342,4
35819,67337,6
35825,67341,4
35827,67332,5
35806,67333,5
35821,67331,4
35818,67327,5
35825,67327,5
35837,67332,5
35811,67324,5
35814,67323,4
35820,67318,5
35852,67313,5
35817,67314,5
35811,67310,4
35812,67305,4
35833,67304,5
35809,67295,5
35800,67281,5
35792,67289,4
35801,67277,5
35793,67278,5
35795,67278,6
35796,67272,4
35788,67250,4
35793,67267,5
35792,67266,5
35775,67251,5
35776,67206,5
35768,67219,4
35755,67208,5
35742,67179,5
35733,67116,5
35726,67149,5
35717,67132,5
35710,67114,4
35715,67120,5
35709,67113,5
35710,67123,5
35710,67120,4
35711,67158,5
35714,67129,5
35715,67124,5
35714,67134,5
35719,67190,4
35730,67149,5
35721,67149,5
35723,67148,6
35728,67179,3
35728,67161,5
35739,67167,5
35736,67174,5
35742,67171,5
35728,67162,4
35729,67147,5
35723,67147,5
35714,67115,5
35700,67105,5
35692,67094,4
35679,67069,5
35672,67056,5
35676,67043,5
35668,67046,5
35671,67040,4
35663,67037,5
35669,67029,5
35661,67026,5
35655,67028,4
35657,67031,6
35654,67032,4
35667,67044,5
35663,67045,5
35669,67052,6
35676,67052,3
35673,67051,5
35673,67064,5
35680,67063,5
35671,67065,4
35680,67071,5
35680,67068,5
35673,67062,5
35679,67067,5
35671,67058,4
35684,67061,5
35669,67046,5
35669,67050,5
35659,67046,5
35668,67035,4
35669,67046,5
35662,67042,5
35674,67049,5
35670,67045,4
35665,67036,4
35665,67024,6
35658,67029,4
35653,67018,5
35650,67024,4
35651,67016,5
35646,67004,5
35631,66996,5
35641,66986,5
35637,66985,4
35626,66974,5
35625,66969,5
35625,66954,5
35610,66951,5
35621,66942,4
35615,66946,5
35611,66942,5
35618,66954,5
35612,66948,5
35615,66961,4
35625,66962,5
35630,66967,5
35623,66976,5
35631,66976,4
35638,66985,4
35629,66994,5
35645,67001,6
35649,67000,4
35648,67014,4
35649,67005,5
35645,67017,5
35656,67019,5
35656,67026,5
35649,67028,4
35675,67029,5
35662,67037,5
35659,67041,5
35662,67044,5
35660,67042,4
35664,67044,5
35660,67042,5
35633,67043,5
35664,67045,5
35664,67036,4
35667,67036,5
35623,67036,5
35656,67039,5
35662,67027,5
35653,67019,4
35627,67015,5
35649,67017,5
35649,67012,6
35647,67008,3
35665,67001,5
35639,66993,5
35633,66978,5
35635,66970,5
35675,66980,4
35626,66956,5
35626,66957,5
35618,66952,5
35648,66946,5
35610,66932,4
35610,66932,5
35612,66920,5
35612,66916,5
35595,66913,5
35597,66910,4
35596,66909,5
35593,66895,5
35584,66906,5
35588,66900,4
35591,66901,5
35578,66855,4
35584,66875,5
35576,66877,5
35572,66868,4
35566,66815,5
35564,66859,5
35569,66860,5
35564,66856,5
35566,66865,4
35571,66869,5
35575,66876,5
35573,66884,5
35585,66927,5
35579,66906,4
35587,66898,5
35600,66906,5
35605,66966,5
35604,66945,5
35621,66956,4
35623,66970,5
35636,67004,5
35641,66995,5
35647,67005,4
35644,67010,4
35651,67024,6
35654,67037,4
35663,67025,5
35660,67019,4
35656,67019,5
35657,67020,5
35653,67013,5
35649,67012,5
35654,67013,4
35658,67011,5
35656,67022,5
35667,67037,5
35675,67047,5
35676,67053,4
35677,67069,5
35685,67087,5
35692,67107,5
35713,67105,5
35706,67115,4
35723,67147,5
35728,67145,5
35730,67157,5
35734,67177,5
35740,67183,4
35745,67197,5
35754,67195,6
35759,67202,4
35759,67208,4
35765,67210,5
35762,67226,5
35774,67221,5
35768,67226,5
35766,67222,4
35770,67231,5
35773,67236,5
35768,67245,5
35776,67261,5
35778,67248,4
35777,67250,5
35781,67242,5
35766,67238,5
35775,67243,5
35773,67232,4
35775,67227,5
35769,67222,5
35766,67216,5
35758,67206,5
35747,67196,4
35747,67185,5
35748,67183,5
35747,67182,6
35741,67177,3
35736,67172,5
35741,67168,5
35736,67177,5
35741,67178,5
35744,67179,4
35748,67191,5
35744,67193,5
35750,67201,5
35752,67215,5
35757,67223,4
35764,67230,5
35770,67236,5
35774,67243,5
35781,67244,5
35784,67265,4
35780,67273,5
35784,67288,5
35800,67298,5
35801,67300,5
35804,67313,5
35806,67323,4
35818,67330,5
35823,67324,5
35821,67334,4
35823,67337,5
35815,67326,5
35823,67333,5
35830,67330,5
35818,67333,4
35799,67333,5
35823,67331,5
35822,67324,5
35809,67317,7
35763,67310,2
35801,67302,5
35812,67286,5
35793,67274,5
35740,67255,5
35772,67228,4
35761,67218,5
35748,67203,5
35753,67187,5
35735,67175,5
35735,67150,4
35726,67144,6
35758,67143,4
35707,67133,5
35718,67135,4
35720,67132,5
35752,67138,5
35719,67144,5
35718,67141,5
35714,67149,4
35732,67146,5
35728,67154,5
35714,67169,5
35722,67155,5
35722,67149,4
35725,67159,5
35718,67152,5
35724,67157,5
35714,67118,5
35717,67137,4
35709,67141,5
35703,67115,5
35696,67063,5
35689,67088,5
35677,67066,5
35668,67054,4
35660,67043,6
35660,67047,4
35659,67043,4
35666,67054,5
35664,67087,5
35669,67066,5
35667,67064,5
35666,67079,4
35679,67128,5
35678,67092,5
35686,67095,5
35692,67106,5
35695,67140,4
35702,67125,5
35704,67128,5
35707,67139,5
35702,67145,5
35719,67144,4
35710,67140,5
35708,67144,5
35711,67135,5
35708,67141,5
35710,67139,4
35708,67146,5
35706,67138,5
35711,67133,5
35709,67138,4
35711,67140,4
35699,67145,5
35713,67133,5
35706,67145,5
35704,67134,4
35705,67126,5
35691,67115,5
35695,67112,5
35687,67104,5
35687,67103,4
35676,67086,5
35679,67083,5
35667,67070,5
35667,67067,5
35664,67059,4
35672,67047,5
35660,67054,5
35658,67052,5
35654,67051,5
35650,67049,5
35654,67042,4
35655,67048,5
35656,67048,5
35655,67053,4
35659,67057,4
35664,67080,5
35665,67083,5
35668,67091,5
35679,67104,4
35685,67113,5
35683,67115,5
35691,67130,5
35694,67127,5
35701,67137,4
35687,67128,5
35702,67136,5
35690,67131,5
35679,67118,5
35689,67126,4
35690,67122,5
35683,67120,6
35685,67124,4
35693,67113,5
35691,67118,4
35686,67115,7
35675,67105,3
35674,67093,5
35670,67074,4
35663,67074,4
35646,67042,5
35642,67044,5
35636,67011,5
35617,66979,4
35616,66967,5
35595,66938,5
35588,66918,5
35569,66920,5
35576,66897,4
35567,66892,5
35554,66877,5
35550,66875,5
35550,66862,5
35546,66852,4
35541,66851,5
35539,66847,5
35536,66848,6
35534,66844,4
35525,66844,4
35536,66834,5
35539,66834,5
35514,66836,5
35526,66829,4
35523,66815,4
35517,66811,5
35479,66790,5
35497,66774,5
35494,66781,4
35499,66777,5
35451,66756,5
35489,66749,5
35484,66754,5
35493,66761,4
35500,66755,5
35491,66758,5
35481,66757,5
35486,66759,5
35519,66755,5
35489,66757,4
35478,66755,5
35482,66744,5
35509,66739,6
35468,66739,3
35469,66734,5
35465,66734,5
35471,66717,5
35457,66706,4
35446,66686,4
35445,66683,5
35445,66658,5
35432,66662,5
35426,66654,4
35427,66650,5
35416,66615,5
35410,66634,5
35419,66626,5
35415,66626,4
35410,66587,5
35397,66622,5
35410,66609,5
35397,66605,5
35389,66586,4
35394,66583,6
35377,66576,4
35372,66566,5
35372,66590,5
35369,66552,6
35363,66533,3
35357,66538,5
35355,66572,5
35344,66516,4
35341,66513,4
35345,66512,5
35346,66536,5
35346,66510,5
35347,66506,4
35339,66510,5
35349,66514,5
35347,66513,5
35343,66522,5
35345,66521,4
35343,66530,5
35358,66532,5
35347,66543,5
35360,66550,5
35365,66547,4
35368,66565,5
35375,66561,6
35376,66565,4
35372,66573,5
35382,66582,4
35385,66588,5
35389,66595,5
35392,66602,5
35396,66601,4
35397,66615,4
35408,66626,5
35407,66627,5
35412,66638,5
35416,66624,4
35410,66637,5
35409,66639,5
35427,66643,5
35426,66642,5
35412,66645,4
35420,66644,5
35418,66639,5
35426,66646,5
35420,66632,5
35422,66646,4
35425,66644,5
35427,66639,5
35423,66642,6
35428,66644,4
35429,66645,4
35428,66649,5
35433,66641,5
35439,66652,5
35442,66670,5
35439,66685,4
35446,66683,5
35462,66699,5
35472,66715,5
35467,66733,4
35488,66738,5
35486,66737,5
35490,66738,5
35503,66742,5
35488,66733,4
35487,66736,5
35499,66752,5
35495,66756,5
35511,66782,5
35512,66795,5
35530,66827,4
35545,66857,5
35567,66889,5
35581,66918,6
35611,66961,3
35616,66980,5
35646,67022,5
35661,67058,5
35683,67084,5
35698,67111,4
35710,67143,5
35720,67179,5
35743,67196,5
35754,67224,4
35766,67246,5
35770,67269,5
35792,67276,5
35799,67286,5
35806,67305,4
35807,67322,5
35820,67322,5
35817,67329,5
35825,67336,5
35818,67345,4
35816,67346,6
35839,67367,4
35838,67368,5
35839,67376,5
35821,67376,4
35850,67383,5
35841,67384,5
35852,67386,5
35815,67392,5
35848,67401,4
35855,67394,5
35854,67400,5
35867,67396,5
35867,67400,4
35861,67398,4
35866,67410,5
35906,67401,5
35862,67405,5
35870,67411,4
35877,67413,5
35918,67431,5
35883,67436,5
35887,67438,5
35879,67447,4
35904,67440,5
35882,67451,6
35888,67446,4
35883,67451,5
35893,67447,4
35895,67465,5
35903,67465,5
35906,67476,5
35904,67460,5
35909,67495,4
35915,67506,5
35917,67509,5
35928,67482,5
35927,67534,4
35943,67545,4
35945,67545,5
35948,67536,5
35951,67565,5
35958,67578,5
35966,67596,4
35973,67625,5
35972,67620,5
35985,67632,5
35994,67634,4
35996,67688,5
35985,67632,5
35989,67638,6
35993,67627,4
35990,67653,4
35985,67621,5
35979,67617,5
35982,67611,5
35980,67617,5
35982,67602,4
35978,67602,5
35978,67603,5
35985,67604,5
35994,67609,4
35985,67619,4
36001,67632,5
36001,67633,5
36002,67654,5
36003,67667,4
36026,67684,5
36032,67700,5
36035,67715,5
36046,67728,5
36053,67749,5
36060,67763,4
36077,67777,5
36078,67775,5
36079,67773,5
36075,67769,4
36069,67760,5
36070,67757,5
36069,67741,5
36061,67728,5
36051,67711,4
36044,67712,5
36051,67722,5
36045,67725,5
36061,67722,5
36049,67730,4
36055,67724,5
36052,67725,5
36063,67724,5
36053,67743,4
36058,67749,5
36063,67751,5
36075,67755,5
36091,67768,5
36077,67778,4
36078,67778,6
36091,67787,4
36093,67793,5
36098,67801,5
36095,67799,4
36106,67806,5
36096,67813,5
36107,67817,5
36103,67818,5
36100,67816,4
36106,67818,5
36099,67823,5
36108,67827,5
36121,67834,5
36121,67834,4
36125,67843,5
36128,67852,5
36128,67858,5
36120,67852,4
36130,67854,5
36121,67849,5
36127,67857,5
36129,67856,5
36120,67849,4
36124,67845,5
36115,67840,6
36118,67844,4
36115,67832,5
36117,67837,4
36118,67827,5
36112,67833,5
36114,67824,5
36111,67819,5
36106,67813,4
36105,67822,5
36105,67822,5
36107,67812,5
36113,67818,5
36116,67817,4
36115,67833,5
36121,67831,5
36118,67848,5
36125,67839,4
36124,67853,4
36141,67863,5
36105,67866,5
36138,67886,5
36141,67892,4
36140,67891,5
36111,67898,5
36146,67896,5
36148,67903,6
36146,67900,3
36134,67905,5
36159,67906,5
36156,67917,5
36157,67916,5
36187,67925,4
36167,67923,5
36152,67922,5
36156,67926,5
36201,67920,5
36155,67929,4
36162,67915,5
36162,67917,5
36175,67911,5
36151,67902,4
36147,67898,5
36133,67890,4
36145,67875,5
36131,67865,5
36126,67845,6
36111,67834,3
36111,67793,5
36098,67800,5
36085,67769,5
36071,67749,4
36063,67691,5
36055,67712,5
36048,67702,5
36040,67690,5
36038,67651,4
36033,67681,5
36033,67702,5
36040,67688,5
36037,67700,5
36038,67696,4
36042,67701,5
36047,67706,5
36048,67753,5
36057,67734,4
36061,67741,4
36063,67740,6
36074,67790,4
36074,67755,5
36076,67761,4
36074,67770,7
36076,67785,3
36080,67767,5
36081,67762,5
36070,67757,4
36066,67738,5
36051,67719,5
36049,67711,5
36047,67694,5
36030,67676,4
36017,67659,5
36014,67650,5
36024,67658,5
36019,67648,5
36020,67664,4
36020,67657,5
36019,67649,5
36012,67646,5
36012,67656,4
36014,67656,4
36025,67665,5
36027,67672,6
36027,67677,4
36029,67682,4
36032,67685,5
36043,67685,5
36033,67690,5
36033,67702,5
36038,67697,4
36036,67696,5
36034,67694,5
36046,67696,5
36045,67691,5
36045,67698,4
36032,67697,5
36042,67695,5
36033,67685,5
36040,67687,5
36032,67685,4
36036,67692,5
36038,67695,5
36035,67699,5
36035,67689,5
36032,67688,4
36031,67691,5
36025,67681,5
36027,67673,6
36034,67680,3
36026,67670,5
36028,67664,5
36017,67654,5
36020,67648,5
36018,67637,4
36007,67640,5
36015,67631,5
36003,67630,5
35998,67631,5
35999,67617,4
35993,67610,5
35989,67615,5
35992,67608,5
35994,67619,5
35996,67618,4
35994,67617,5
35999,67621,5
35990,67629,5
35994,67632,5
35994,67636,5
36000,67628,4
36010,67643,5
36013,67639,5
36019,67650,6
36019,67662,3
36013,67652,5
36012,67660,5
36017,67669,5
36024,67670,4
36023,67680,5
36023,67678,5
36028,67675,5
36021,67673,5
36029,67678,4
36019,67673,5
36010,67667,5
36024,67667,5
36026,67659,5
35992,67667,4
36007,67654,5
36014,67659,5
36008,67640,5
35966,67646,5
36008,67626,4
35996,67632,6
35994,67624,4
35955,67605,5
35986,67607,4
35974,67596,4
35979,67588,5
35987,67572,5
35967,67574,5
35966,67554,4
35964,67549,5
35989,67545,5
35951,67535,5
35939,67526,5
35947,67522,4
35981,67518,5
35929,67503,5
35939,67501,5
35939,67509,5
35945,67501,4
35935,67499,5
35939,67503,5
35922,67498,5
35934,67477,5
35930,67482,4
35914,67480,5
35918,67456,6
35911,67419,4
35903,67437,5
35894,67420,4
35890,67399,5
35879,67360,5
35877,67399,5
35882,67380,5
35868,67384,4
35875,67381,5
35877,67387,5
35874,67389,5
35870,67391,4
35868,67419,5
35878,67400,5
35875,67397,5
35873,67403,5
35889,67457,4
35884,67411,5
35889,67413,5
35885,67422,5
35894,67450,5
35889,67425,4
35897,67428,5
35884,67428,5
35889,67422,6
35883,67412,4
35875,67383,4
35870,67377,5
35860,67358,5
35852,67345,5
35831,67321,4
35827,67311,4
35839,67307,5
35836,67308,5
35831,67309,5
35837,67311,4
35829,67306,5
35835,67312,5
35829,67323,5
35833,67325,5
35840,67332,4
35838,67336,5
35848,67350,5
35841,67349,5
35847,67363,5
35855,67369,5
35860,67379,4
35869,67385,5
35871,67383,5
35873,67395,5
35867,67390,4
35872,67398,5
35874,67405,5
35873,67401,5
35882,67410,4
35882,67410,4
35884,67416,5
35877,67413,5
35876,67418,5
35881,67413,4
35887,67429,5
35889,67435,5
35894,67436,5
35898,67440,5
35894,67438,4
35895,67433,5
35892,67431,5
35891,67432,5
35888,67416,5
35879,67413,4
35875,67417,6
35883,67403,4
35873,67398,5
35870,67389,5
35858,67384,4
35863,67378,5
35859,67374,5
35856,67366,5
35846,67357,5
35847,67358,4
35847,67356,5
35851,67372,5
35855,67369,5
35863,67364,4
35863,67388,5
35867,67405,5
35870,67409,5
35877,67420,5
35893,67434,4
35898,67439,5
35898,67448,5
35899,67459,5
35902,67475,5
35908,67480,4
35921,67501,5
35921,67501,6
35930,67506,4
35931,67518,5
35943,67526,4
35928,67527,5
35933,67525,5
35938,67526,5
35927,67530,5
35939,67522,4
35927,67516,5
35917,67501,5
35931,67496,5
35909,67486,4
35909,67469,4
35873,67468,5
35900,67445,5
35886,67425,5
35874,67412,4
35829,67412,5
35869,67392,5
35863,67388,5
35859,67377,5
35852,67369,4
35859,67372,5
35852,67372,5
35847,67369,5
35894,67372,5
35858,67369,4
35853,67372,5
35849,67374,5
35894,67374,5
35861,67376,5
35853,67380,4
35847,67377,5
35879,67372,5
35853,67379,5
35853,67366,4
35839,67353,4
35842,67333,5
35832,67329,5
35822,67313,5
35818,67288,4
35797,67261,5
35798,67269,5
35789,67266,5
35788,67270,5
35786,67234,5
35810,67277,4
35804,67278,5
35803,67282,5
35801,67259,5
35800,67298,4
35820,67314,5
35823,67319,5
35819,67356,5
35842,67342,5
35836,67352,4
35839,67358,5
35845,67418,5
35845,67372,5
35840,67377,4
35843,67378,4
35851,67421,5
35850,67378,5
35849,67380,5
35853,67382,4
35853,67397,5
35857,67388,5
35850,67375,5
35855,67381,5
35852,67386,4
35854,67390,6
35859,67393,4
35850,67381,5
35849,67379,5
35843,67378,4
35847,67372,5
35847,67360,5
35842,67367,5
35836,67357,5
35837,67348,4
35835,67354,5
35830,67343,5
35827,67340,5
35820,67330,4
35823,67323,4
35822,67326,5
35818,67327,5
35814,67326,5
35814,67324,4
35832,67328,5
35836,67326,5
35828,67336,5
35827,67346,5
35833,67354,4
35832,67363,5
35845,67372,6
35847,67383,4
35851,67390,5
35851,67398,4
35857,67411,5
35866,67410,5
35872,67419,5
35872,67434,5
35872,67439,4
35875,67435,5
35882,67452,5
35880,67448,5
35872,67444,5
35884,67449,4
35885,67456,5
35877,67444,5
35882,67442,5
35865,67436,4
35881,67444,4
35871,67426,5
35866,67421,5
35871,67422,5
35862,67407,3
35854,67395,5
35853,67387,5
35844,67380,5
35842,67370,5
35840,67367,4
35831,67351,5
35819,67344,5
35822,67341,5
35825,67331,5
35814,67326,4
35804,67326,5
35805,67315,5
35816,67311,5
35807,67315,5
35818,67313,4
35814,67330,5
35823,67328,5
35815,67336,5
35818,67334,4
35814,67342,5
35813,67329,4
35822,67327,5
35815,67322,5
35815,67306,6
35816,67303,3
35806,67288,5
35790,67288,5
35795,67276,5
35786,67279,4
35795,67277,5
35801,67292,5
35790,67294,5
35774,67303,5
35799,67301,4
35805,67314,5
35806,67315,5
35770,67324,5
35819,67327,5
35820,67337,4
35827,67325,5
35802,67347,9
35822,67346,6
35825,67347,4
35823,67329,6
35836,67344,4
35820,67338,5
35828,67332,4
35815,67334,7
35861,67345,3
35819,67341,5
35826,67325,5
35814,67345,4
35843,67344,5
35822,67334,5
35817,67334,5
35825,67354,5
35837,67349,4
35821,67347,5
35823,67341,5
35822,67339,5
35823,67324,5
35820,67340,4
35817,67335,5
35810,67340,5
35805,67291,5
35812,67332,5
35817,67333,4
35817,67331,5
35804,67273,6
35807,67315,4
35809,67319,4
35808,67320,5
35806,67319,5
35809,67314,5
35818,67320,5
35819,67326,4
35810,67369,5
35825,67340,5
35831,67344,5
35824,67350,5
35823,67405,4
35833,67368,5
35836,67370,5
35845,67375,5
35854,67417,5
35853,67390,4
35851,67401,5
35847,67405,5
35862,67423,5
35870,67426,5
35871,67427,4
35860,67425,5
35866,67428,5
35863,67428,6
35861,67427,3
35875,67437,5
35869,67431,5
35866,67429,5
35866,67435,5
35873,67437,4
35867,67422,5
35864,67421,5
35859,67419,5
35864,67406,5
35858,67403,4
35855,67392,5
35850,67382,5
35850,67363,5
35847,67372,5
35841,67354,4
35833,67354,5
35830,67350,5
35826,67347,5
35836,67341,5
35830,67352,5
35828,67352,4
35838,67361,5
35840,67360,5
35845,67373,6
35849,67384,3
35846,67386,5
35861,67399,5
35862,67399,5
35858,67397,4
35862,67405,5
35867,67404,5
35870,67408,5
35860,67394,5
35858,67385,4
35852,67373,5
35848,67369,5
35854,67361,5
35844,67353,5
35846,67348,4
35848,67353,5
35837,67356,5
35844,67359,5
35837,67361,5
35845,67361,4
35845,67370,6
35852,67380,4
35860,67384,5
35862,67405,4
35870,67416,5
35879,67425,5
35884,67428,5
35880,67444,5
35899,67455,4
35904,67464,5
35914,67473,5
35908,67482,5
35917,67486,5
35926,67492,4
35924,67507,5
35924,67515,5
35918,67505,5
35923,67500,5
35936,67512,4
35931,67524,5
35934,67520,5
35934,67525,5
35940,67530,5
35943,67543,4
35953,67543,5
35957,67544,6
35942,67541,4
35950,67542,4
35948,67537,4
35954,67544,5
35933,67541,5
35945,67545,5
35949,67531,4
35948,67535,5
35911,67526,5
35949,67521,5
35941,67527,5
35937,67523,4
35902,67519,5
35936,67514,5
35937,67514,5
35946,67518,5
35940,67516,4
35932,67517,5
35937,67519,5
35937,67519,5
35978,67513,5
35944,67516,4
35950,67528,5
35951,67534,5
35992,67542,6
35949,67541,3
35960,67552,4
35969,67555,5
35980,67562,5
35967,67569,5
35969,67581,4
35966,67586,5
35980,67581,5
35982,67597,5
35991,67607,5
35988,67611,4
35983,67579,5
35988,67603,5
35988,67618,5
35996,67617,5
35995,67581,4
36002,67616,5
35999,67624,5
35995,67624,5
35989,67618,5
36001,67625,5
35992,67627,4
35998,67627,5
35997,67650,5
35992,67620,4
35983,67624,4
35985,67607,5
35986,67648,5
35977,67582,5
35975,67577,4
35963,67564,5
35961,67580,5
35943,67527,5
35943,67500,5
35931,67490,4
35919,67483,5
35908,67463,5
35909,67449,5
35909,67451,5
35904,67437,4
35904,67446,5
35907,67444,5
35902,67466,5
35910,67449,5
35910,67466,4
35909,67472,6
35923,67485,4
35928,67491,5
35933,67499,4
35926,67511,4
35936,67511,5
35941,67531,5
35948,67528,5
35952,67541,4
35953,67544,5
35961,67540,5
35947,67520,5
35948,67524,5
35941,67519,4
35928,67499,5
35921,67480,5
35914,67469,5
35912,67465,5
35903,67448,4
35904,67447,5
35919,67463,5
35914,67466,5
35916,67472,5
35912,67460,4
35918,67466,5
35912,67475,6
35930,67492,4
35925,67484,5
35933,67502,4
35942,67499,5
35934,67511,5
35948,67518,5
35942,67516,4
35942,67521,5
35947,67519,5
35942,67531,5
35946,67525,5
35950,67535,4
35950,67531,5
35944,67530,5
35953,67523,5
35952,67526,5
35935,67519,4
35941,67516,5
35953,67518,5
35940,67518,5
35943,67526,5
35944,67524,4
35950,67535,5
35950,67526,5
35944,67518,5
35943,67519,5
35935,67504,4
35943,67509,5
35928,67502,5
35927,67499,5
35931,67493,4
35920,67482,4
35925,67472,5
35920,67464,5
35917,67458,5
35917,67447,4
35902,67447,5
35894,67439,5
35893,67421,5
35879,67426,5
35884,67411,4
35881,67409,5
35879,67395,5
35879,67404,5
35877,67402,5
35858,67407,5
35889,67408,4
35884,67404,5
35882,67410,5
35851,67411,5
35889,67420,4
35886,67426,5
35888,67426,5
35850,67434,5
35894,67437,4
35902,67442,4
35897,67449,5
35906,67456,5
35904,67463,5
35908,67462,4
35910,67461,5
35943,67464,5
35908,67471,5
35921,67467,5
35906,67464,4
35957,67462,5
35901,67455,6
35914,67452,4
35908,67454,5
35923,67449,4
35901,67436,6
35894,67435,4
35887,67424,5
35885,67406,5
35881,67405,4
35870,67386,5
35862,67375,5
35857,67327,5
35844,67342,5
35838,67320,4
35833,67314,5
35822,67248,5
35814,67290,5
35807,67271,4
35808,67278,5
35802,67241,5
35812,67265,5
35797,67265,5
35806,67270,4
35809,67286,5
35804,67266,5
35798,67276,6
35809,67279,4
35816,67329,4
35823,67283,5
35818,67292,5
35821,67295,5
35815,67319,5
35812,67300,4
35823,67298,5
35813,67296,5
35819,67304,5
35812,67285,5
35813,67266,4
35804,67249,5
35791,67249,5
35790,67234,5
35775,67216,4
35772,67205,5
35773,67202,5
35765,67198,5
35778,67204,5
35776,67204,5
35769,67205,4
35763,67206,5
35766,67209,5
35772,67211,6
35771,67216,3
35782,67217,5
35787,67225,5
35785,67234,5
35782,67244,5
35793,67245,4
35802,67251,5
35802,67246,5
35795,67257,5
35792,67243,5
35794,67250,4
35789,67253,5
35795,67246,5
35793,67251,5
35799,67255,4
35803,67243,4
35791,67248,5
35794,67245,5
35801,67256,5
35792,67244,4
35796,67262,6
35807,67255,4
35798,67259,5
35796,67258,5
35798,67252,6
35802,67262,3
35798,67245,5
35792,67259,5
35806,67254,5
35791,67250,4
35792,67249,5
35791,67242,5
35791,67248,5
35800,67253,5
35791,67253,4
35797,67242,5
35801,67249,5
35798,67249,5
35802,67255,4
35805,67277,4
35810,67281,5
35816,67288,5
35820,67302,5
35827,67314,4
35838,67336,5
35844,67343,6
35849,67354,4
35865,67376,5
35869,67391,4
35872,67403,5
35882,67420,5
35887,67423,5
35897,67434,5
35906,67449,4
35904,67468,5
35920,67476,5
35918,67482,5
35920,67496,5
35927,67501,4
35943,67507,5
35941,67516,5
35933,67513,5
35940,67516,5
35940,67521,4
35938,67518,5
35940,67527,5
35942,67511,5
35948,67511,4
35939,67509,5
35905,67504,5
35932,67498,6
35929,67493,4
35923,67488,4
35882,67476,5
35921,67471,5
35907,67446,5
35898,67436,5
35864,67423,4
35877,67405,5
35879,67397,7
35876,67380,3
35887,67370,5
35855,67365,4
35865,67355,5
35855,67357,5
35892,67361,5
35857,67358,5
35860,67371,4
35869,67375,5
35897,67382,5
35874,67384,5
35871,67400,5
35881,67410,4
35906,67414,5
35887,67415,5
35898,67425,6
35894,67437,3
35903,67439,5
35906,67466,5
35920,67471,5
35921,67480,5
35913,67445,4
35921,67480,5
35923,67478,5
35924,67474,5
35926,67427,5
35924,67471,5
35934,67469,4
35932,67486,5
35934,67496,5
35948,67512,5
35951,67528,4
35965,67548,5
35975,67588,5
35975,67582,5
35988,67592,4
35990,67609,5
36002,67671,4
36010,67630,5
36010,67641,5
36018,67647,4
36022,67679,5
36028,67657,5
36026,67663,5
36028,67676,5
36033,67691,4
36033,67675,5
36032,67679,5
36033,67678,5
36034,67686,5
36043,67680,4
36043,67690,5
36041,67691,5
36041,67684,5
36048,67691,5
36049,67700,4
36048,67712,5
36058,67710,5
36055,67699,5
36057,67713,5
36051,67714,4
36054,67709,6
36056,67714,4
36057,67707,5
36052,67704,4
36047,67694,5
36042,67687,5
36036,67694,5
36040,67693,5
36036,67691,4
36037,67684,5
36039,67688,5
36052,67700,5
36043,67704,5
36055,67708,4
36059,67733,5
36077,67747,5
36085,67781,5
36092,67798,5
36109,67828,4
36117,67859,5
36145,67894,5
36161,67925,5
36178,67965,5
36183,67981,4
36195,68018,5
36211,68029,6
36234,68063,4
36236,68087,4
36255,68103,4
36260,68119,5
36266,68127,5
36272,68144,5
36281,68153,4
36271,68147,5
36271,68137,5
36267,68134,5
36252,68111,5
36237,68081,4
36194,68010,5
36144,67901,5
36071,67759,5
35998,67613,5
35900,67454,4
35817,67304,5
35742,67170,5
35675,67061,5
35623,66981,5
35581,66908,4
35545,66838,5
35530,66813,5
35514,66780,5
35503,66775,4
35492,66757,4
35492,66764,5
35490,66766,5
35495,66767,5
35507,66788,4
35504,66790,5
35521,66810,5
35526,66811,5
35514,66816,5
35519,66821,4
35538,66835,5
35542,66848,5
35538,66830,5
35510,66811,5
35518,66793,4
35510,66772,5
35502,66751,5
35458,66730,5
35490,66714,5
35474,66706,5
35474,66701,4
35440,66698,5
35475,66690,5
35456,66682,5
35448,66654,4
35429,66617,5
35409,66576,5
35376,66521,5
35357,66486,4
35370,66451,5
35316,66420,5
35310,66400,5
35305,66386,5
35339,66362,4
35283,66359,5
35288,66348,5
35284,66350,5
35301,66343,5
35276,66342,4
35276,66340,5
35273,66330,5
35281,66331,5
35278,66341,5
35281,66346,4
35291,66352,6
35291,66338,4
35304,66389,5
35326,66428,5
35332,66444,4
35354,66433,5
35373,66513,5
35394,66562,5
35416,66603,4
35445,66620,4
35486,66703,5
35504,66756,5
35535,66807,5
35572,66868,4
35595,66891,5
35620,66944,5
35642,66977,5
35659,67065,5
35680,67056,4
35711,67094,5
35734,67138,5
35747,67207,5
35776,67206,5
35789,67249,4
35812,67282,5
35830,67342,6
35859,67363,4
35881,67389,5
35897,67434,4
35918,67475,5
35942,67504,5
35962,67552,5
35975,67603,4
36005,67626,4
36026,67670,5
36044,67700,5
36062,67743,5
36086,67782,4
36105,67812,5
36120,67850,5
36147,67883,5
36170,67927,5
36193,67963,4
36196,67989,5
36222,68021,5
36232,68038,5
36233,68027,5
36224,68025,4
36222,68004,5
36215,67988,5
36204,67961,5
36193,67953,5
36179,67928,4
36163,67909,5
36156,67881,5
36151,67878,5
36143,67878,5
36138,67859,4
36135,67862,5
36140,67851,5
36146,67864,5
36144,67872,4
36153,67878,5
36146,67882,5
36164,67896,5
36163,67907,5
36166,67920,4
36174,67938,5
36194,67955,5
36204,67974,5
36204,67982,5
36208,67990,5
36214,67996,3
36225,68012,5
36228,68012,5
36236,68004,5
36217,67992,4
36216,67992,5
36208,67987,5
36212,67977,5
36198,67965,5
36203,67956,4
36198,67954,5
36200,67955,5
36194,67965,5
36190,67951,4
36200,67950,4
36197,67953,5
36191,67966,5
36200,67965,5
36217,67982,4
36213,67993,5
36217,68015,6
36234,68028,4
36239,68053,5
36267,68077,4
36278,68097,7
36278,68109,3
36288,68137,5
36306,68152,5
36311,68169,4
36322,68184,5
36323,68189,5
36332,68198,5
36333,68208,5
36346,68212,4
36350,68237,5
36356,68243,5
36365,68258,5
36370,68278,4
36357,68283,4
36383,68276,5
36382,68286,5
36381,68286,5
36338,68284,4
36381,68276,5
36378,68275,5
36368,68267,6
36328,68272,4
36374,68261,4
36369,68257,5
36367,68256,5
36387,68264,5
36370,68262,5
36368,68253,4
36359,68246,5
36409,68246,5
36365,68246,5
36359,68248,5
36364,68256,4
36397,68258,5
36368,68250,5
36369,68260,5
36371,68261,5
36392,68280,4
36386,68288,5
36382,68297,5
36395,68312,5
36398,68308,5
36411,68321,4
36409,68345,5
36418,68354,5
36428,68329,6
36426,68373,4
36433,68367,4
36439,68383,5
36445,68351,5
36443,68398,5
36450,68407,4
36451,68402,5
36443,68402,5
36452,68418,5
36449,68426,5
36459,68419,4
36449,68449,5
36448,68422,5
36448,68420,5
36458,68412,5
36449,68458,4
36446,68408,5
36451,68403,5
36442,68399,5
36439,68417,4
36433,68378,5
36432,68380,4
36433,68375,5
36422,68364,5
36423,68346,6
36414,68340,3
36403,68320,5
36395,68294,5
36389,68283,5
36376,68269,4
36373,68255,5
36370,68241,5
36362,68234,5
36356,68232,5
36354,68220,4
36360,68225,5
36353,68221,5
36354,68232,5
36366,68233,5
36362,68242,4
36361,68249,5
36367,68251,5
36373,68258,5
36384,68283,5
36386,68297,4
36397,68307,6
36403,68301,4
36399,68323,5
36415,68334,4
36415,68337,5
36407,68336,5
36403,68344,5
36413,68323,5
36395,68316,4
36392,68289,5
36380,68277,5
36373,68263,5
36363,68243,5
36360,68235,4
36355,68225,5
36357,68225,5
36362,68236,5
36364,68237,5
36357,68238,4
36366,68237,5
36352,68230,5
36358,68250,5
36370,68257,5
36369,68271,4
36373,68269,5
36383,68287,6
36381,68298,4
36392,68304,4
36401,68309,4
36396,68316,5
36403,68322,5
36405,68328,5
36409,68326,4
36405,68326,5
36400,68328,5
36397,68333,5
36405,68333,5
36410,68333,4
36406,68333,5
36404,68324,5
36406,68329,5
36404,68334,5
36405,68333,4
36402,68333,5
36403,68335,5
36410,68339,5
36410,68332,5
36398,68317,4
36405,68316,5
36386,68308,5
36392,68297,6
36382,68298,3
36370,68274,4
36386,68262,5
36365,68263,5
36358,68245,5
36352,68239,4
36348,68232,5
36345,68210,5
36332,68214,5
36334,68199,5
36338,68205,4
36335,68203,5
36308,68196,5
36341,68200,5
36331,68201,5
36338,68210,4
36294,68212,5
36337,68223,5
36338,68221,5
36359,68236,5
36398,68267,9
36398,68267,5
36367,68272,5
36373,68279,5
36367,68287,4
36424,68290,5
36375,68298,5
36383,68299,5
36384,68304,4
36401,68307,5
36385,68302,5
36376,68307,5
36376,68295,5
36380,68293,4
36379,68293,5
36377,68295,5
36374,68291,5
36369,68256,5
36360,68265,4
36360,68252,5
36339,68238,5
36341,68188,5
36331,68195,5
36312,68174,4
36298,68158,6
36294,68095,4
36294,68108,5
36268,68083,5
36270,68069,5
36254,68078,4
36251,68044,5
36247,68035,5
36241,68031,4
36233,68077,4
36230,68025,5
36247,68037,5
36247,68039,5
36246,68091,4
36253,68069,5
36251,68068,5
36257,68082,5
36261,68108,5
36269,68097,4
36270,68100,5
36267,68102,5
36273,68111,5
36272,68104,5
36270,68092,4
36268,68079,5
36253,68068,6
36249,68051,4
36242,68039,5
36231,68030,4
36228,68013,5
36236,68021,5
36229,68026,5
36238,68030,4
36226,68031,4
36240,68028,5
36234,68044,5
36244,68040,5
36237,68046,4
36244,68056,5
36247,68055,5
36254,68070,5
36265,68068,5
36249,68063,4
36255,68061,5
36256,68075,5
36259,68065,5
36249,68072,5
36259,68074,4
36248,68065,5
36261,68073,5
36254,68064,5
36248,68067,5
36255,68061,4
36251,68062,5
36253,68064,5
36253,68060,5
36253,68066,4
36246,68062,4
36249,68070,5
36249,68063,5
36253,68067,5
36245,68054,4
36240,68058,5
36238,68061,5
36239,68050,5
36242,68050,5
36241,68037,4
36231,68033,5
36232,68029,5
36235,68034,5
36231,68021,5
36221,68020,5
36220,68017,4
36228,68016,5
36225,68018,5
36216,68010,5
36229,68028,4
36239,68034,5
36230,68033,5
36232,68029,5
36240,68038,5
36233,68051,4
36238,68058,5
36246,68056,5
36256,68074,5
36258,68078,4
36256,68083,5
36256,68100,5
36260,68097,5
36264,68106,5
36266,68114,4
36277,68110,5
36267,68111,5
36274,68117,5
36273,68120,5
36274,68116,4
36276,68124,6
36273,68121,4
36261,68114,5
36263,68110,5
36265,68109,4
36254,68086,5
36227,68095,5
36252,68060,5
36243,68065,5
36234,68048,4
36197,68046,5
36233,68024,5
36223,68031,5
36220,68012,4
36195,67999,4
36217,68010,5
36208,68005,5
36211,67998,5
36238,67995,4
36200,67991,5
36215,68000,5
36206,67998,6
36255,68011,4
36219,68008,4
36209,68014,5
36218,68013,5
36245,68028,5
36221,68032,5
36220,68034,4
36228,68037,5
36227,68020,5
36222,68014,5
36216,68013,5
36214,67994,4
36204,67967,5
36191,67974,5
36186,67967,5
36189,67966,4
36185,67926,4
36194,67954,5
36189,67965,5
36188,67964,5
36197,67934,5
36194,67981,4
36192,67989,5
36192,67993,5
36202,68007,5
36211,68008,3
36214,68006,5
36213,68009,5
36219,68054,5
36211,68007,5
36208,68013,4
36221,68018,5
36211,68050,5
36215,68005,5
36205,67998,5
36204,67999,4
36196,68012,5
36197,67988,5
36204,67994,5
36199,67986,5
36199,67987,4
36201,67987,5
36202,67991,5
36207,67991,5
36214,67999,4
36215,67998,6
36209,68006,4
36193,67994,5
36207,67991,5
36204,68001,6
36196,67995,3
36204,68000,5
36198,68001,5
36200,67987,5
36203,67998,4
36204,67986,5
36197,67990,5
36200,67979,5
36202,67993,5
36202,67989,4
36199,67989,5
36200,68001,5
36203,67998,5
36195,68003,5
36199,68006,4
36210,68009,5
36211,68010,5
36218,68014,5
36212,68018,4
36206,68023,4
36216,68027,6
36217,68025,4
36225,68032,5
36231,68036,4
36223,68047,5
36229,68038,5
36220,68047,5
36224,68050,5
36229,68052,4
36228,68048,5
36220,68056,5
36224,68048,5
36227,68032,5
36217,68041,4
36221,68035,5
36217,68032,5
36212,68028,5
36204,68012,5
36208,68015,4
36204,68015,5
36207,68002,5
36202,68000,5
36204,67988,4
36190,67992,4
36186,67989,5
36185,67979,6
36191,67982,4
36186,67980,4
36188,67982,5
36191,67976,5
36187,67981,5
36196,67983,5
36196,67992,4
36200,67989,5
36199,67996,5
36209,68005,5
36209,68012,5
36204,68017,4
36211,68025,5
36207,68030,5
36208,68023,5
36210,68006,5
36194,68008,4
36187,67990,5
36190,67976,5
36176,67958,5
36175,67949,5
36171,67936,4
36160,67934,5
36171,67940,5
36160,67927,6
36145,67933,3
36163,67935,5
36167,67932,5
36160,67930,5
36131,67932,5
36162,67940,4
36169,67944,5
36162,67942,5
36139,67942,5
36163,67947,5
36173,67939,4
36173,67944,5
36184,67940,5
36164,67943,5
36160,67932,5
36160,67939,4
36198,67932,5
36157,67931,5
36169,67938,5
36168,67938,5
36197,67935,5
36164,67925,4
36165,67929,5
36151,67932,5
36184,67937,6
36162,67942,3
36166,67939,5
36165,67938,5
36167,67928,5
36171,67947,4
36166,67932,5
36169,67942,5
36167,67913,5
36168,67934,5
36162,67931,4
36167,67940,5
36157,67883,5
36162,67926,5
36164,67915,5
36154,67917,5
36157,67899,4
36154,67913,5
36151,67912,5
36155,67914,5
36146,67943,4
36156,67914,6
36151,67915,4
36158,67910,5
36146,67968,4
36146,67911,4
36143,67920,5
36145,67918,5
36153,67940,5
36158,67923,4
36150,67924,5
36143,67924,5
36149,67925,5
36153,67919,5
36157,67926,4
36157,67917,5
36157,67932,5
36159,67933,5
36166,67929,5
36167,67929,4
36154,67933,5
36157,67936,5
36167,67929,5
36159,67937,5
36152,67937,4
36156,67921,5
36146,67917,6
36141,67915,4
36150,67917,4
36149,67919,4
36153,67917,5
36151,67913,5
36163,67917,5
36158,67917,4
36146,67898,5
36154,67904,5
36144,67903,5
36150,67909,5
36153,67910,4
36154,67900,5
36154,67921,5
36167,67925,5
36169,67928,5
36176,67937,4
36169,67944,5
36183,67959,5
36185,67956,5
36185,67972,5
36191,67975,4
36191,67970,5
36195,67968,5
36180,67967,6
36187,67961,3
36191,67952,4
36166,67941,5
36169,67932,5
36174,67941,5
36174,67929,4
36167,67936,5
36169,67935,5
36180,67930,5
36171,67926,5
36177,67929,4
36170,67923,5
36174,67933,5
36171,67932,5
36182,67945,5
36185,67945,4
36184,67949,5
36192,67957,5
36189,67957,5
36187,67963,5
36191,67962,5
36192,67962,4
36196,67967,5
36198,67959,5
36193,67956,5
36186,67963,4
36187,67958,5
36194,67965,5
36185,67967,5
36195,67969,4
36199,67964,4
36200,67972,5
36196,67967,5
36204,67967,5
36195,67972,4
36188,67968,5
36191,67960,5
36185,67948,5
36190,67950,5
36187,67951,4
36190,67960,5
36176,67951,5
36176,67954,5
36189,67950,5
36182,67940,4
36153,67935,6
36177,67933,4
36165,67918,5
36170,67918,5
36129,67911,4
36165,67918,5
36165,67903,5
36158,67905,5
36156,67896,4
36162,67901,4
36158,67882,5
36151,67883,5
36186,67890,5
36148,67873,7
36148,67870,2
36122,67868,5
36188,67866,5
36141,67866,5
36140,67866,4
36136,67869,5
36156,67863,5
36134,67882,5
36143,67883,5
36150,67884,4
36150,67886,5
36150,67884,6
36150,67899,4
36159,67905,5
36158,67869,4
36160,67900,5
36155,67889,5
36152,67881,5
36152,67838,4
36147,67871,4
36132,67856,5
36127,67845,5
36117,67787,5
36112,67815,4
36101,67792,5
36094,67784,5
36086,67788,5
36087,67744,5
36076,67738,4
36068,67727,5
36068,67779,5
36067,67724,5
36061,67728,5
36063,67723,4
36068,67772,5
36073,67740,5
36069,67745,5
36081,67747,5
36085,67764,4
36087,67767,5
36085,67781,5
36092,67789,5
36097,67799,5
36103,67806,4
36109,67806,5
36111,67816,5
36115,67801,5
36110,67793,4
36106,67795,5
36101,67780,5
36099,67781,5
36093,67769,5
36087,67764,4
36088,67768,5
36083,67766,5
36093,67764,5
36099,67775,5
36090,67767,5
36092,67776,4
36091,67773,5
36091,67777,5
36105,67792,5
36107,67798,4
36100,67801,5
36104,67810,5
36115,67826,5
36123,67834,5
36131,67837,4
36133,67847,5
36145,67866,5
36144,67870,5
36157,67887,4
36150,67882,4
36147,67896,5
36151,67902,5
36156,67901,5
36167,67912,4
36177,67932,5
36167,67927,5
36171,67937,5
36187,67956,5
36182,67946,4
36182,67948,6
36183,67945,4
36187,67958,5
36182,67941,5
36189,67948,4
36180,67943,5
36179,67929,5
36174,67934,5
36178,67932,5
36180,67932,4
36176,67928,5
36177,67927,5
36175,67929,5
36169,67921,4
36173,67925,4
36170,67916,5
36169,67924,5
36169,67916,5
36176,67929,4
36167,67922,5
36170,67931,5
36179,67941,6
36182,67937,4
36176,67941,4
36181,67948,5
36186,67963,5
36189,67975,5
36200,67963,5
36199,67974,4
36210,67985,5
36205,67995,5
36214,68009,5
36217,68012,5
36222,68016,4
36217,68018,5
36214,68026,5
36226,68030,5
36218,68021,5
36226,68024,4
36227,68027,5
36232,68040,5
36206,68033,5
36225,68035,5
36231,68025,4
36219,68035,5
36179,68033,5
36220,68030,6
36224,68034,3
36233,68025,5
36203,68017,5
36215,68011,5
36215,68015,5
36212,68019,4
36245,68004,5
36218,68005,5
36213,68006,5
36204,67995,5
36248,67999,4
36201,67985,5
36196,67986,5
36198,67982,5
36222,67974,5
36194,67971,4
36194,67961,5
36188,67961,5
36188,67958,5
36188,67948,4
36177,67945,5
36178,67942,4
36172,67905,5
36167,67920,5
36171,67923,6
36166,67916,3
36165,67870,5
36161,67901,5
36162,67893,5
36148,67897,5
36151,67849,4
36152,67885,5
36135,67883,5
36129,67860,5
36136,67860,4
36126,67829,5
36108,67807,5
36104,67783,5
36092,67796,5
36069,67743,4
36055,67713,5
36049,67687,5
36043,67719,5
36033,67671,4
36031,67654,4
36022,67656,6
36032,67671,4
36031,67647,5
36030,67656,4
36025,67648,5
36036,67655,5
36041,67671,5
36045,67690,5
36043,67694,4
36048,67714,5
36059,67720,5
36069,67735,5
36068,67743,5
36076,67748,4
36078,67766,5
36076,67765,5
36074,67749,5
36072,67748,5
36071,67739,4
36070,67731,5
36066,67717,5
36054,67702,5
36060,67707,5
36053,67708,4
36062,67715,5
36061,67716,6
36058,67724,4
36070,67730,4
36064,67741,5
36074,67748,5
36081,67761,5
36092,67778,5
36097,67798,4
36108,67811,5
36118,67831,5
36126,67836,5
36132,67856,5
36141,67869,4
36147,67879,5
36157,67893,5
36167,67903,5
36160,67911,5
36169,67919,4
36165,67920,5
36172,67931,5
36179,67938,5
36186,67941,5
36187,67942,4
36178,67948,5
36176,67947,5
36192,67947,6
36182,67956,3
36190,67957,4
36185,67953,5
36183,67950,5
36187,67949,5
36187,67942,4
36178,67940,5
36181,67941,5
36174,67930,5
36173,67926,5
36173,67925,4
36163,67921,5
36165,67914,5
36156,67904,5
36163,67902,5
36156,67899,4
36149,67895,5
36156,67898,5
36161,67900,5
36154,67901,5
36151,67900,5
36152,67906,4
36158,67907,5
36162,67914,5
36162,67914,4
36168,67919,4
36170,67926,5
36173,67934,5
36177,67934,5
36173,67943,4
36190,67952,5
36185,67970,5
36190,67974,5
36192,67974,5
36192,67979,4
36173,67977,5
36205,67981,5
36207,67991,5
36202,67994,5
36169,67994,4
36204,68007,5
36206,68004,5
36198,68004,5
36173,68001,5
36212,68003,4
36208,68001,6
36204,68004,4
36213,67996,5
36203,67992,5
36202,67987,4
36201,67982,5
36237,67984,5
36193,67972,5
36186,67963,4
36188,67960,5
36213,67960,5
36168,67948,5
36168,67934,5
36169,67926,4
36172,67902,5
36141,67886,5
36139,67870,5
36130,67852,5
36127,67819,4
36115,67821,5
36104,67812,5
36097,67807,5
36096,67754,5
36097,67801,4
36095,67787,5
36087,67793,6
36087,67757,4
36086,67796,5
36095,67805,4
36095,67800,5
36094,67810,5
36116,67816,5
36112,67820,4
36109,67835,5
36123,67868,5
36115,67844,5
36126,67854,5
36113,67847,4
36129,67894,5
36112,67831,5
36108,67814,5
36102,67815,5
36094,67808,4
36089,67778,5
36075,67770,5
36072,67761,5
36079,67763,5
36078,67767,4
36070,67759,5
36076,67767,5
36079,67769,5
36073,67777,5
36079,67777,4
36080,67784,5
36089,67790,5
36095,67794,5
36089,67799,4
36090,67804,4
36088,67804,5
36091,67806,5
36107,67808,5
36099,67804,4
36088,67804,5
36094,67797,5
36088,67803,5
36082,67789,5
36087,67790,4
36083,67792,5
36089,67788,5
36085,67791,5
36087,67795,5
36087,67787,5
36091,67794,4
36080,67785,5
36088,67791,5
36091,67796,5
36078,67779,4
36068,67777,5
36076,67771,5
36074,67759,5
36064,67767,4
36071,67754,4
36072,67759,5
36068,67757,5
36055,67754,5
36060,67747,4
36062,67741,5
36059,67738,5
36054,67739,5
36056,67733,5
36063,67746,4
36065,67741,5
36059,67742,5
36059,67742,5
36060,67758,5
36069,67752,4
36071,67762,6
36066,67768,4
36072,67765,5
36073,67787,5
36072,67789,4
36073,67800,5
36086,67804,5
36090,67804,5
36087,67824,4
36084,67827,4
36093,67822,5
36097,67825,5
36093,67822,5
36097,67818,4
36089,67810,5
36089,67803,5
36083,67798,5
36076,67781,5
36072,67777,4
36065,67768,5
36057,67763,5
36056,67738,5
36050,67734,5
36039,67719,4
36033,67712,5
36022,67705,6
36021,67697,4
36017,67673,5
36011,67670,4
36006,67660,5
35993,67632,5
35965,67632,5
35987,67628,5
35986,67617,4
35985,67610,5
35952,67611,5
35975,67604,5
35977,67610,4
35969,67611,5
35947,67615,5
35977,67613,5
35981,67618,5
35980,67624,5
35999,67622,4
35980,67621,5
35980,67623,5
35989,67618,5
36017,67620,4
35986,67616,5
35968,67601,5
35971,67599,5
36002,67586,6
35949,67574,3
35958,67556,5
35951,67563,5
35957,67556,5
35944,67555,5
35943,67551,4
35943,67558,5
35945,67543,5
35950,67565,5
35950,67555,4
35942,67552,5
35954,67520,5
35950,67559,5
35945,67549,5
35947,67552,5
35946,67510,4
35940,67551,4
35939,67553,5
35945,67561,5
35948,67543,5
35941,67539,3
35940,67546,5
35942,67550,5
35931,67583,5
35946,67545,4
35926,67535,5
35940,67534,5
35932,67581,5
35935,67537,5
35938,67549,4
35935,67532,5
35936,67564,5
35927,67524,5
35930,67527,4
35920,67515,4
35915,67517,5
35909,67489,5
35901,67493,5
35894,67479,4
35886,67462,5
35890,67457,6
35888,67457,4
35880,67449,5
35876,67447,4
35880,67450,7
35886,67449,3
35880,67460,5
35887,67460,5
35895,67460,4
35884,67459,5
35895,67458,5
35897,67469,5
35886,67463,5
35890,67473,4
35892,67471,5
35891,67486,5
35897,67487,5
35903,67487,4
35899,67485,4
35894,67480,5
35897,67484,5
35905,67485,5
35890,67494,4
35891,67495,5
35896,67487,5
35893,67491,6
35890,67477,4
35885,67478,4
35891,67473,5
35879,67478,5
35886,67467,5
35887,67466,5
35879,67453,4
35875,67453,5
35872,67446,5
35869,67437,5
35860,67442,5
35869,67443,4
35864,67435,5
35860,67431,5
35867,67434,5
35870,67431,5
35860,67433,4
35871,67428,5
35866,67432,5
35867,67436,5
35866,67437,5
35867,67440,4
35861,67437,5
35870,67433,5
35857,67438,6
35856,67431,3
35864,67430,5
35860,67435,5
35858,67426,5
35850,67419,5
35850,67407,4
35843,67389,5
35832,67376,5
35831,67358,5
35826,67366,5
35823,67357,4
35825,67352,5
35813,67350,5
35823,67348,5
35821,67349,5
35811,67345,4
35825,67345,5
35824,67357,5
35822,67356,5
35820,67353,4
35826,67350,5
35815,67353,4
35827,67362,5
35814,67358,5
35822,67354,6
35802,67347,3
35819,67361,5
35815,67346,5
35823,67359,5
35786,67354,4
35823,67355,5
35827,67363,5
35829,67359,5
35796,67366,5
35834,67371,4
35837,67389,5
35846,67400,5
35851,67392,5
35849,67401,5
35852,67400,4
35856,67407,5
35891,67408,5
35857,67421,5
35858,67421,5
35866,67425,4
35911,67422,6
35865,67431,4
35872,67432,5
35869,67437,4
35894,67444,5
35871,67447,5
35889,67465,5
35888,67463,5
35894,67479,4
35901,67488,5
35904,67499,5
35903,67513,5
35918,67494,5
35925,67527,4
35930,67549,5
35934,67545,5
35936,67523,5
35947,67586,5
35951,67594,4
35959,67606,5
35968,67588,5
35973,67627,5
35982,67627,5
35982,67642,4
35998,67671,5
35997,67648,6
35991,67669,4
35994,67672,4
36008,67724,4
36014,67674,5
36011,67670,5
36013,67674,5
36010,67710,4
36013,67674,5
36014,67673,5
36003,67667,5
36001,67671,5
36000,67656,4
36003,67663,5
36001,67663,5
36005,67658,5
35996,67654,5
36000,67647,4
35999,67651,5
36002,67651,5
36003,67672,5
36005,67660,5
36004,67675,4
36019,67683,5
36009,67697,5
36026,67696,6
36031,67703,3
36026,67703,4
36030,67697,5
36027,67701,5
36024,67707,5
36015,67678,4
36015,67675,5
36005,67664,5
36003,67663,5
36013,67657,5
36003,67651,4
36006,67655,5
36005,67647,5
36005,67640,5
36000,67651,5
36002,67655,4
36003,67651,5
36003,67666,5
36012,67667,5
36006,67662,5
36019,67668,5
36016,67668,4
36023,67680,5
36019,67692,5
36023,67694,5
36027,67699,4
36030,67703,5
36029,67705,5
36037,67699,5
36041,67708,4
36042,67713,4
36045,67729,5
36040,67724,5
36051,67730,5
36050,67729,4
36050,67740,5
36058,67738,5
36057,67748,5
36055,67745,5
36050,67747,4
36056,67740,5
36059,67754,5
36067,67743,5
36058,67753,5
36062,67754,4
36076,67757,6
36066,67759,4
36058,67757,5
36074,67762,5
36075,67769,4
36068,67773,5
36071,67765,5
36069,67771,5
36074,67770,4
36072,67773,4
36069,67771,5
36066,67770,5
36075,67778,5
36074,67773,4
36080,67777,5
36088,67787,5
36082,67783,5
36085,67793,5
36090,67797,4
36088,67798,5
36098,67799,5
36092,67804,5
36094,67816,5
36101,67827,4
36101,67833,5
36079,67832,6
36110,67833,4
36106,67848,5
36122,67856,4
36087,67865,5
36122,67859,5
36126,67866,5
36128,67873,5
36119,67878,4
36133,67881,5
36142,67878,5
36136,67882,5
36158,67892,4
36136,67897,5
36140,67890,5
36139,67892,5
36176,67889,5
36136,67870,4
36129,67878,5
36128,67870,5
36158,67853,5
36117,67842,5
36109,67825,4
36108,67822,5
36103,67808,5
36081,67793,5
36078,67788,5
36073,67778,4
36084,67758,5
36078,67768,5
36084,67771,5
36081,67770,5
36083,67735,4
36080,67779,5
36093,67801,5
36091,67815,5
36107,67776,4
36104,67839,4
36118,67837,5
36130,67859,5
36134,67879,5
36142,67889,4
36146,67901,5
36150,67906,5
36150,67942,5
36143,67898,5
36151,67884,5
36145,67864,4
36121,67909,5
36116,67846,5
36126,67837,5
36119,67831,4
36117,67859,5
36123,67834,5
36115,67837,5
36117,67835,5
36118,67837,4
36116,67838,5
36120,67837,5
36123,67851,5
36122,67852,4
36123,67850,4
36121,67850,5
36130,67858,5
36126,67857,5
36133,67864,4
36140,67861,5
36138,67880,5
36137,67878,5
36145,67875,5
36148,67887,4
36143,67878,7
36151,67882,3
36144,67890,5
36145,67897,5
36152,67902,4
36146,67893,5
36156,67907,5
36159,67915,5
36162,67915,5
36160,67922,4
36157,67926,5
36168,67923,5
36157,67930,5
36176,67927,5
36168,67926,4
36169,67917,5
36165,67930,5
36164,67932,5
36168,67914,4
36158,67908,4
36162,67907,5
36160,67913,5
36157,67911,5
36160,67910,4
36159,67902,5
36150,67891,6
36153,67890,4
36158,67892,5
36143,67895,4
36139,67897,5
36149,67892,5
36154,67900,5
36151,67911,5
36156,67907,4
36161,67909,5
36160,67916,5
36159,67925,5
36167,67925,5
36168,67938,4
36170,67933,5
36180,67950,5
36176,67956,5
36181,67965,4
36190,67960,4
36195,67976,5
36195,67970,5
36196,67984,6
36208,67991,3
36197,67998,5
36202,67999,5
36201,67996,5
36202,67997,5
36201,67994,4
36204,67995,5
36199,67995,5
36201,67992,5
36202,67987,5
36199,67995,4
36201,67984,5
36201,67991,5
36201,67988,5
36192,67975,5
36194,67969,4
36183,67973,5
36177,67963,5
36182,67948,5
36151,67931,5
36157,67921,5
36156,67903,4
36144,67895,5
36105,67879,5
36137,67858,6
36119,67838,3
36117,67834,5
36067,67826,5
36109,67819,5
36110,67810,4
36102,67804,5
36112,67814,5
36106,67812,5
36113,67819,5
36104,67824,4
36160,67834,5
36120,67842,5
36129,67859,5
36130,67858,5
36168,67873,4
36137,67875,5
36142,67884,9
36139,67893,6
36163,67887,4
36153,67888,6
36146,67888,4
36139,67872,5
36142,67847,4
36122,67846,6
36122,67830,3
36105,67812,5
36102,67766,5
36096,67789,4
36095,67779,5
36086,67791,5
36090,67746,5
36085,67786,5
36095,67783,5
36088,67786,4
36089,67773,5
36096,67799,5
36101,67805,5
36099,67808,4
36103,67837,5
36097,67811,5
36110,67815,5
36106,67810,5
36103,67848,4
36095,67804,5
36104,67808,6
36090,67798,4
36095,67819,5
36097,67786,4
36086,67787,5
36084,67781,5
36084,67777,5
36084,67769,4
36076,67760,5
36076,67759,5
36075,67753,5
36068,67766,5
36069,67758,4
36078,67758,5
36074,67755,5
36070,67746,5
36065,67737,5
36061,67740,4
36060,67733,5
36050,67723,5
36056,67707,5
36041,67707,5
36040,67694,4
36031,67678,5
36026,67665,5
36023,67653,6
36012,67654,4
36011,67647,4
36007,67630,5
35995,67625,5
35992,67611,5
35995,67606,4
35987,67607,5
35986,67606,5
35991,67613,5
35992,67611,5
35995,67609,4
35991,67621,5
35994,67622,5
36004,67642,5
36002,67638,5
36013,67638,4
36011,67653,5
36014,67660,5
36023,67668,5
36025,67672,5
36030,67674,5
36023,67678,4
36028,67685,5
36039,67684,5
36036,67695,6
36035,67700,3
36043,67706,5
36043,67710,5
36046,67717,5
36042,67715,4
36053,67724,4
36051,67724,5
36051,67719,5
36048,67732,5
36055,67730,4
36057,67737,5
36061,67744,5
36060,67736,5
36059,67742,5
36069,67746,4
36063,67760,5
36069,67754,5
36073,67755,5
36075,67765,5
36077,67762,4
36069,67772,6
36079,67765,4
36077,67768,5
36079,67761,5
36070,67769,4
36071,67761,5
36071,67755,5
36075,67763,5
36074,67765,4
36065,67765,4
36071,67744,5
36063,67754,5
36062,67735,5
36061,67723,4
36051,67721,5
36049,67716,5
36029,67704,5
36042,67695,5
36037,67696,4
36043,67688,5
36006,67692,5
36047,67702,5
36045,67704,5
36048,67708,4
36013,67717,5
36051,67724,6
36053,67736,4
36064,67742,5
36073,67746,4
36081,67755,5
36074,67759,5
36069,67768,5
36115,67784,4
36089,67788,4
36079,67788,5
36084,67796,5
36127,67789,5
36075,67767,4
36076,67756,5
36067,67741,5
36069,67738,5
36053,67715,5
36046,67713,4
36049,67712,5
36047,67697,5
36045,67712,5
36052,67728,5
36049,67722,4
36056,67694,5
36060,67733,5
36060,67749,5
36067,67758,5
36069,67721,4
36079,67776,5
36085,67785,5
36081,67787,5
36097,67787,4
36084,67793,4
36090,67805,5
36097,67807,5
36099,67838,5
36102,67810,4
36099,67811,5
36095,67815,5
36099,67859,5
36099,67812,5
36103,67810,4
36093,67807,5
36098,67836,5
36098,67814,5
36096,67819,5
36109,67819,5
36097,67819,4
36106,67811,5
36092,67801,5
36097,67806,5
36082,67798,4
36084,67792,5
36081,67786,5
36081,67778,5
36073,67770,5
36077,67767,4
36069,67760,5
36064,67745,5
36055,67749,5
36057,67730,4
36054,67723,5
36051,67728,5
36050,67722,5
36053,67728,5
36049,67733,4
36065,67732,5
36055,67742,5
36069,67750,5
36067,67756,5
36063,67761,4
36075,67791,6
36087,67794,4
36091,67801,5
36095,67815,5
36097,67826,4
36101,67844,5
36110,67847,5
36116,67852,5
36115,67866,5
36126,67876,4
36127,67870,5
36126,67880,5
36123,67881,5
36125,67890,4
36129,67899,4
36132,67897,5
36133,67897,5
36132,67887,5
36130,67887,4
36124,67882,5
36128,67878,5
36121,67871,5
36119,67861,5
36112,67851,4
36107,67837,5
36106,67832,6
36090,67817,4
36087,67806,5
36085,67785,4
36070,67774,5
36067,67768,5
36065,67759,5
36063,67748,5
36058,67741,4
36053,67734,5
36064,67740,5
36055,67738,5
36055,67736,4
36055,67730,4
36050,67735,5
36056,67741,5
36049,67740,5
36048,67736,4
36053,67729,5
36044,67738,5
36040,67725,5
36045,67726,5
36039,67716,4
36046,67716,5
36030,67708,5
36023,67685,5
36014,67670,5
36011,67657,4
35998,67642,5
35996,67627,5
35991,67617,5
35992,67626,5
35968,67639,4
35999,67647,5
35999,67656,5
36005,67661,5
35972,67666,4
36012,67672,4
36012,67682,5
36018,67678,5
35988,67687,5
36032,67701,4
36030,67697,6
36034,67708,4
36041,67705,5
36026,67697,5
36036,67708,5
36033,67702,4
36073,67706,5
36023,67689,5
36023,67699,5
36015,67693,4
36061,67694,5
36021,67696,5
36011,67685,5
36022,67693,5
36038,67693,4
36013,67693,5
36023,67691,5
36018,67699,5
36026,67684,4
36013,67691,4
36019,67688,5
36018,67686,5
36018,67652,5
36017,67677,4
36007,67676,5
36023,67677,5
36014,67632,5
36002,67655,5
35996,67656,5
35997,67663,5
35996,67644,3
35997,67647,5
35992,67649,5
35998,67645,4
35995,67682,5
36001,67651,5
35997,67653,5
36000,67655,5
36001,67712,4
36012,67672,5
36009,67681,5
36021,67683,5
36022,67725,4
36024,67718,4
36022,67718,5
36023,67719,5
36022,67728,5
36033,67726,4
36029,67736,5
36028,67733,5
36032,67731,6
36034,67740,4
36036,67735,4
36034,67733,5
36034,67724,5
36028,67722,5
36030,67732,5
36022,67723,4
36022,67719,5
36024,67712,5
36019,67704,5
36007,67694,5
36021,67693,4
36010,67680,5
36007,67678,5
36002,67670,5
36000,67662,4
35992,67649,4
35990,67655,5
35990,67651,5
35980,67641,5
35981,67635,5
35978,67635,4
35979,67626,5
35977,67641,5
35984,67645,6
35981,67635,3
35983,67640,5
35982,67633,5
35985,67638,5
35981,67646,5
35988,67641,4
35984,67635,5
35976,67629,5
35972,67622,5
35964,67608,5
35965,67597,4
35958,67572,5
35944,67573,5
35943,67562,5
35938,67555,5
35934,67559,4
35947,67565,5
35935,67576,5
35949,67566,5
35938,67568,4
35948,67568,6
35939,67575,4
35947,67570,5
35952,67583,5
35960,67576,6
35952,67583,3
35948,67578,5
35946,67579,5
35942,67585,5
35948,67584,4
35951,67567,5
35948,67576,5
35939,67566,5
35935,67569,5
35941,67563,4
35938,67560,5
35934,67560,5
35934,67569,5
35930,67554,5
35935,67562,4
35940,67577,5
35930,67568,5
35939,67560,5
35934,67560,4
35938,67562,4
35928,67558,6
35932,67561,4
35926,67559,5
35932,67558,4
35932,67556,5
35929,67543,5
35900,67545,5
35932,67544,5
35927,67543,4
35924,67543,5
35891,67559,5
35929,67542,5
35935,67545,5
35932,67561,4
35903,67559,5
35933,67554,5
35937,67561,5
35942,67563,5
35952,67567,4
35940,67571,5
35934,67571,5
35947,67576,5
35993,67579,4
35947,67587,4
35949,67593,5
35953,67596,6
35981,67592,4
35954,67583,4
35952,67591,5
35950,67598,5
35958,67592,5
35948,67586,5
35954,67585,4
35955,67598,5
35950,67578,7
35952,67584,3
35941,67579,5
35935,67584,4
35940,67550,5
35944,67570,5
35941,67575,5
35936,67566,5
35937,67535,4
35935,67566,5
35932,67574,5
35934,67566,5
35941,67575,5
35939,67566,4
35940,67576,5
35943,67577,5
35941,67617,6
35944,67583,3
35955,67595,5
35960,67606,5
35964,67653,5
35967,67624,5
35972,67631,4
35978,67638,5
35976,67656,5
35978,67641,5
35977,67633,5
35980,67627,4
35985,67622,5
35969,67619,5
35972,67607,5
35967,67609,5
35969,67600,4
35962,67600,5
35973,67614,5
35971,67617,5
35980,67617,4
35977,67621,5
35985,67627,4
35980,67635,5
35989,67637,5
35995,67657,4
36000,67660,5
36004,67667,5
36011,67675,5
36007,67684,5
36018,67712,4
36021,67705,5
36028,67712,5
36025,67713,5
36028,67718,5
36037,67725,4
36031,67724,5
36038,67727,5
36043,67721,5
36036,67726,5
36043,67740,4
36039,67729,5
36048,67740,5
36046,67742,5
36045,67742,4
36044,67734,4
36050,67739,6
36033,67736,4
36037,67736,5
36044,67733,4
36043,67728,5
36041,67729,5
36040,67732,5
36041,67727,5
36039,67715,4
36033,67717,5
36037,67719,5
36045,67716,5
36031,67708,5
36026,67698,4
36039,67700,5
36026,67705,5
36031,67695,5
36034,67709,5
36025,67697,4
36022,67717,5
36030,67715,5
36036,67713,5
36039,67715,4
36042,67718,4
36030,67727,5
36045,67730,6
36045,67739,4
36061,67748,4
36059,67761,5
36058,67763,5
36065,67764,5
36074,67792,5
36075,67793,4
36078,67799,5
36081,67802,5
36093,67815,5
36096,67824,5
36097,67821,4
36090,67823,5
36093,67832,5
36107,67835,5
36097,67836,5
36106,67834,4
36106,67840,5
36104,67837,5
36101,67835,5
36108,67826,5
36064,67821,4
36094,67802,5
36091,67800,5
36076,67784,5
36029,67763,4
36059,67744,5
36053,67737,5
36044,67729,5
36018,67715,5
36037,67702,4
36031,67708,5
36030,67708,5
36055,67706,5
36037,67707,5
36041,67715,4
36045,67721,5
36083,67734,5
36052,67729,5
36056,67743,5
36063,67754,4
36092,67764,5
36074,67771,5
36081,67784,5
36079,67784,5
36087,67780,5
36080,67777,4
36068,67771,5
36077,67756,5
36057,67734,4
36062,67735,5
36058,67720,5
36041,67723,5
36050,67692,5
36055,67726,4
36053,67722,5
36047,67730,5
36053,67696,5
36048,67722,5
36063,67739,5
36059,67737,4
36056,67748,5
36058,67740,5
36066,67759,5
36072,67764,4
36072,67809,5
36083,67784,5
36088,67793,5
36095,67789,5
36097,67851,4
36094,67812,7
36098,67820,3
36102,67818,5
36100,67838,4
36101,67823,5
36104,67825,5
36106,67832,5
36113,67838,5
36111,67834,4
36118,67845,5
36117,67859,5
36123,67867,5
36129,67861,5
36130,67863,4
36126,67872,5
36129,67867,5
36121,67852,5
36132,67868,5
36123,67868,4
36123,67869,5
36125,67864,5
36122,67869,5
36126,67863,5
36122,67851,4
36115,67845,5
36122,67842,5
36113,67847,5
36110,67840,4
36123,67823,4
36108,67824,5
36110,67829,5
36109,67829,5
36111,67830,4
36100,67828,5
36111,67823,5
36104,67831,5
36111,67835,5
36113,67839,4
36120,67841,5
36116,67850,5
36117,67857,5
36115,67860,5
36127,67864,4
36123,67872,5
36133,67875,5
36132,67876,5
36143,67897,5
36145,67895,4
36137,67907,5
36152,67901,5
36151,67914,5
36150,67911,4
36166,67926,4
36160,67921,5
36163,67924,5
36160,67935,5
36160,67927,4
36162,67928,5
36167,67922,5
36157,67927,5
36166,67934,5
36162,67924,4
36158,67922,5
36158,67920,5
36155,67919,5
36153,67912,5
36156,67908,4
36156,67909,5
36150,67904,4
36146,67894,5
36141,67886,5
36134,67871,5
36131,67868,3
36127,67846,5
36124,67834,5
36104,67814,5
36100,67790,4
36090,67779,5
36083,67769,5
36077,67760,5
36067,67753,4
36065,67752,5
36065,67752,5
36070,67749,5
36062,67750,5
36079,67758,4
36066,67749,5
36073,67763,5
36049,67774,5
36085,67785,5
36090,67796,4
36093,67798,5
36053,67803,6
36107,67811,4
36105,67835,5
36121,67836,4
36095,67843,5
36125,67855,5
36121,67853,5
36115,67831,5
36140,67838,4
36106,67827,5
36105,67811,5
36097,67796,5
36125,67790,4
36086,67790,4
36085,67788,5
36085,67791,5
36123,67796,5
36099,67801,4
36096,67808,5
36097,67800,5
36105,67806,5
36097,67805,5
36103,67824,4
36102,67816,5
36106,67813,5
36107,67839,6
36118,67837,4
36117,67844,4
36119,67807,5
36117,67844,5
36119,67855,5
36123,67862,5
36126,67822,4
36120,67856,5
36122,67857,5
36133,67866,5
36127,67868,4
36131,67865,4
36128,67862,5
36140,67866,5
36127,67900,5
36127,67866,4
36135,67862,5
36122,67874,5
36127,67909,5
36125,67867,5
36127,67846,5
36118,67843,4
36109,67872,5
36111,67841,5
36112,67843,6
36112,67823,3
36100,67826,5
36097,67813,5
36094,67811,5
36087,67800,5
36084,67792,4
36098,67793,5
36078,67783,5
36087,67773,5
36082,67770,5
36087,67775,4
36088,67773,5
36083,67776,5
36078,67773,5
36080,67783,4
36086,67784,5
36094,67799,5
36094,67802,5
36095,67807,5
36095,67811,4
36097,67814,6
36101,67821,4
36110,67818,5
36106,67824,5
36106,67821,6
36112,67832,3
36106,67840,5
36110,67838,5
36111,67842,5
36100,67831,4
36111,67840,5
36110,67831,5
36108,67839,5
36112,67828,5
36100,67823,4
36104,67821,5
36100,67815,5
36100,67813,5
36091,67812,4
36095,67803,4
36083,67801,5
36087,67787,5
36074,67760,5
36069,67759,4
36048,67734,5
36048,67714,6
36043,67685,4
36016,67671,5
36022,67655,4
36013,67641,5
36010,67618,5
35990,67611,5
35991,67599,5
35987,67594,4
35981,67596,5
35987,67593,5
35988,67605,5
35988,67605,5
35980,67606,4
35985,67605,5
35988,67618,5
35996,67625,5
36002,67627,5
36006,67628,4
36005,67637,5
36007,67640,5
36007,67635,5
36007,67642,4
36009,67638,5
35999,67637,5
36002,67619,6
36005,67617,4
35989,67615,4
35987,67609,5
35979,67591,5
35978,67582,5
35979,67585,5
35982,67582,4
35985,67597,5
35988,67592,5
35981,67607,5
35988,67608,5
35970,67628,4
36003,67631,5
35998,67643,5
36011,67654,5
35972,67660,5
36021,67684,4
36036,67692,5
36032,67703,5
36007,67707,5
36047,67726,5
36051,67741,4
36054,67739,5
36067,67741,5
36059,67747,6
36067,67755,3
36063,67764,5
36109,67755,5
36076,67766,5
36067,67768,5
36067,67773,4
36122,67771,5
36076,67782,5
36084,67787,5
36086,67785,5
36106,67777,4
36087,67782,5
36081,67778,5
36075,67783,5
36080,67763,5
36077,67772,4
36071,67770,5
36064,67756,5
36072,67729,5
36058,67757,5
36065,67747,10
36065,67745,4
36065,67700,5
36057,67740,5
36063,67734,4
36062,67734,5
36058,67732,5
36055,67741,5
36068,67746,4
36064,67754,5
36075,67786,5
36070,67769,5
36074,67778,5
36085,67786,4
36083,67837,5
36090,67800,5
36095,67817,5
36102,67827,5
36114,67859,4
36111,67854,5
36122,67858,5
36126,67874,5
36134,67898,5
36138,67895,4
36145,67897,6
36152,67910,4
36159,67913,5
36159,67918,4
36158,67909,4
36145,67926,5
36149,67919,5
36144,67916,5
36153,67910,4
36146,67909,5
36131,67897,5
36131,67889,5
36128,67880,5
36133,67861,4
36119,67858,5
36113,67847,5
36108,67827,5
36093,67813,5
36092,67800,4
36076,67771,5
36081,67773,5
36068,67754,5
36060,67752,5
36059,67742,4
36062,67746,5
36071,67737,6
36068,67757,4
36055,67752,4
36069,67756,4
36066,67759,5
36071,67770,5
36072,67764,5
36083,67776,4
36083,67783,5
36082,67788,5
36084,67794,5
36084,67781,5
36082,67780,4
36080,67782,5
36077,67774,5
36077,67778,5
36070,67755,5
36067,67743,4
36056,67731,5
36047,67727,5
36043,67715,5
36041,67707,5
36054,67708,4
36045,67713,5
36049,67721,5
36042,67722,5
36052,67728,4
36054,67735,4
36055,67746,5
36058,67753,5
36063,67751,5
36067,67772,4
36064,67782,5
36079,67784,5
36080,67785,5
36079,67783,5
36077,67789,4
36076,67792,5
36087,67789,5
36090,67794,5
36084,67792,5
36077,67794,4
36073,67778,5
36080,67775,5
36084,67778,5
36074,67781,5
36071,67770,5
36068,67769,4
36066,67775,5
36073,67774,5
36070,67769,5
36066,67762,4
36064,67754,5
36065,67746,5
36038,67737,5
36061,67739,4
36051,67739,5
36059,67742,5
36018,67726,5
36053,67716,5
36044,67718,4
36044,67717,5
35994,67704,5
36035,67702,5
36034,67696,5
36039,67699,4
36040,67702,5
36032,67697,6
36029,67700,4
36030,67706,5
36069,67719,4
36040,67727,6
36046,67743,4
36058,67744,5
36101,67745,5
36052,67754,4
36070,67766,5
36067,67778,5
36092,67775,5
36071,67786,4
36075,67794,4
36087,67804,5
36084,67803,5
36085,67810,5
36080,67808,4
36085,67825,5
36086,67800,5
36094,67827,5
36098,67823,5
36093,67825,4
36089,67782,5
36086,67811,5
36076,67810,5
36079,67798,4
36068,67765,4
36070,67782,5
36062,67766,4
36061,67748,5
36051,67764,5
36051,67734,4
36038,67717,5
36034,67705,5
36027,67735,5
36015,67692,5
36011,67679,4
36019,67686,5
36012,67708,5
36012,67676,5
36015,67668,4
36014,67680,4
36006,67689,5
36016,67693,5
36025,67698,5
36017,67689,5
36019,67693,4
36025,67700,5
36017,67695,5
36023,67693,6
36016,67690,3
36009,67682,5
36008,67660,5
36004,67653,5
36002,67643,5
35989,67635,4
35985,67632,5
35984,67627,5
35990,67639,5
35981,67630,5
35990,67633,4
35986,67640,5
35988,67643,5
35990,67653,5
35998,67651,4
36007,67668,4
36005,67671,5
36011,67672,5
36008,67668,5
36011,67681,4
36019,67680,6
36005,67680,4
36013,67674,5
36006,67678,5
36005,67667,6
36005,67669,3
36008,67666,5
36005,67664,5
36002,67667,5
36000,67658,4
36006,67659,5
36003,67659,5
36003,67662,5
36006,67665,5
36006,67673,4
36000,67662,5
36000,67662,5
36004,67660,5
36005,67663,5
35996,67651,4
35991,67655,5
35995,67655,5
35990,67649,5
35991,67643,4
35992,67644,4
35991,67641,6
35982,67647,4
35980,67634,5
35993,67636,4
35976,67625,5
35984,67632,5
35983,67636,5
35985,67637,5
35988,67629,4
35991,67637,5
35985,67642,5
35988,67638,5
35994,67651,5
35991,67648,4
35997,67654,5
35993,67667,5
35998,67664,5
36001,67662,5
36000,67669,4
35997,67676,5
36007,67681,5
36012,67679,5
36006,67682,4
36008,67684,4
36009,67698,5
36014,67699,6
36015,67694,4
36010,67688,4
36008,67690,5
36010,67692,5
36012,67686,5
36011,67696,5
35973,67684,4
36000,67675,5
35997,67664,5
36000,67657,5
35949,67640,5
35976,67643,4
35982,67633,5
35982,67626,5
35956,67617,5
35967,67612,5
35969,67606,4
35968,67601,5
35985,67594,5
35963,67594,5
35960,67592,5
35952,67600,4
36011,67608,5
35960,67613,5
35964,67616,6
35971,67619,3
35996,67629,4
35978,67630,5
35970,67624,5
35971,67629,5
35982,67627,4
35968,67618,5
35969,67604,5
35959,67600,5
35952,67563,5
35950,67558,4
35936,67562,5
35932,67560,5
35939,67516,5
35935,67553,5
35931,67552,4
35934,67558,5
35947,67518,5
35934,67563,5
35938,67559,5
35926,67555,5
35931,67567,4
35939,67556,5
35935,67564,5
35938,67559,6
35934,67598,3
35941,67554,5
35934,67561,5
35938,67548,5
35936,67595,4
35929,67555,5
35932,67557,5
35924,67545,5
35923,67560,5
35920,67550,4
35927,67548,5
35935,67533,5
35920,67544,10
35932,67559,7
35932,67559,7
35928,67555,8
35930,67558,7
35931,67542,5
35925,67556,8
35930,67549,7
35936,67550,5
35921,67536,8
35921,67536,7
35928,67513,7
35921,67533,8
35930,67543,7
35924,67580,5
35944,67575,8
35944,67575,7
35935,67576,12
35933,67580,5
35943,67592,5
35955,67603,10
35955,67603,5
35953,67618,5
35969,67649,8
35962,67623,7
35963,67611,9
35976,67639,10
35976,67639,5
35973,67630,5
35972,67635,10
35985,67638,5
35977,67634,5
35972,67628,10
35973,67626,5
35958,67612,7
35958,67612,8
35967,67644,5
35962,67602,7
35959,67587,8
35964,67605,5
35960,67603,7
35970,67627,8
35970,67627,5
35982,67682,7
35991,67661,8
35976,67639,9
35999,67647,8
35999,67647,5
35987,67640,7
36000,67640,8
35989,67613,5
35981,67607,7
35953,67605,8
35971,67597,5
35969,67599,7
35969,67599,8
35967,67606,9
35971,67602,11
35933,67605,5
35990,67631,7
35990,67631,8
35983,67655,5
35990,67649,7
36013,67650,8
35996,67658,7
35992,67613,5
36005,67652,8
36005,67652,7
36045,67660,5
36016,67661,8
36009,67676,7
36008,67675,5
36000,67640,8
36002,67658,7
36002,67658,5
36030,67665,8
36033,67673,7
36006,67641,5
36003,67668,8
36001,67660,7
36009,67666,5
36004,67646,13
35997,67654,7
35951,67653,8
35992,67650,7
35996,67686,10
36011,67674,7
36011,67674,5
36002,67703,8
36010,67685,7
36008,67691,5
36011,67681,3
36027,67694,1
36035,67691,5
36025,67719,5
36037,67714,4
36040,67732,5
36035,67736,5
36048,67736,5
36055,67743,5
36062,67756,4
36058,67759,5
36068,67775,5
36076,67778,5
36075,67780,5
36071,67789,4
36078,67791,5
36075,67792,5
36081,67795,5
36074,67803,4
36081,67787,5
36079,67789,5
36073,67779,5
36064,67776,5
36067,67764,4
36058,67761,5
36047,67737,5
36051,67729,5
36035,67723,5
36026,67702,4
36021,67690,5
36021,67678,5
36019,67672,5
36010,67661,5
36008,67646,4
36005,67649,5
36004,67655,5
36005,67649,5
36010,67663,5
36009,67657,4
36008,67662,5
36018,67687,5
36021,67698,5
36034,67704,5
36030,67714,4
36042,67723,5
36038,67733,5
36055,67741,5
36052,67750,4
36063,67769,5
36068,67772,5
36067,67769,5
36068,67768,5
36064,67747,4
36058,67741,5
36052,67725,5
36043,67708,5
36034,67694,5
36035,67697,4
36039,67689,5
36031,67692,5
36039,67701,5
36042,67696,5
36028,67698,4
36034,67707,5
36033,67695,5
36041,67707,5
36035,67715,4
36046,67717,5
36052,67719,3
36043,67737,5
36056,67737,5
36051,67744,4
36063,67737,5
36061,67747,5
36055,67758,5
36064,67761,5
36063,67770,4
36067,67767,5
36069,67767,5
36072,67776,5
36074,67785,5
36077,67781,4
36076,67775,5
36073,67778,5
36069,67780,5
36077,67789,5
36077,67793,4
36083,67797,5
36061,67796,6
36079,67799,4
36079,67796,5
36080,67794,4
36046,67788,5
36073,67789,5
36081,67780,5
36091,67781,4
36081,67779,4
36082,67777,5
36078,67773,5
36077,67770,5
36111,67778,4
36064,67770,5
36079,67761,5
36074,67763,5
36116,67754,5
36076,67768,4
36065,67760,5
36070,67762,5
36099,67758,5
36064,67774,5
36079,67774,4
36075,67777,5
36082,67781,5
36087,67794,6
36086,67793,4
36086,67808,4
36097,67785,5
36103,67826,5
36100,67831,5
36105,67834,4
36112,67801,4
36108,67842,5
36106,67851,5
36110,67844,5
36109,67817,4
36121,67862,5
36114,67853,5
36118,67856,5
36120,67873,5
36123,67864,4
36129,67862,5
36117,67865,5
36117,67902,5
36127,67862,5
36121,67865,5
36126,67855,4
36111,67890,5
36109,67860,5
36127,67860,6
36123,67866,3
36114,67866,5
36105,67854,5
36118,67849,5
36110,67840,5
36110,67849,4
36103,67839,5
36106,67834,5
36107,67831,5
36102,67825,4
36098,67811,5
36096,67817,5
36098,67815,5
36092,67817,5
36095,67809,4
36095,67793,5
36083,67798,5
36091,67793,5
36074,67788,5
36074,67786,4
36084,67778,6
36080,67778,4
36068,67769,5
36067,67760,5
36060,67742,6
36045,67730,3
36048,67721,5
36033,67703,5
36033,67680,5
36021,67659,4
36003,67652,5
35997,67643,5
35999,67629,5
35995,67619,4
35984,67625,4
35990,67627,5
35995,67625,5
35994,67622,5
35999,67623,4
35998,67632,5
36000,67644,5
36013,67658,5
36021,67660,5
36020,67684,4
36029,67676,5
36019,67688,6
36029,67700,4
36038,67707,5
36039,67719,4
36042,67719,5
36047,67722,5
36033,67705,5
36037,67689,5
36024,67681,4
36019,67676,5
36008,67657,5
36012,67646,5
36003,67636,5
36001,67641,4
36001,67637,5
36010,67645,5
36008,67641,5
36002,67651,4
36008,67654,5
36010,67656,5
36016,67660,5
36019,67662,5
36019,67669,4
36020,67678,10
36027,67685,5
36021,67693,8
36039,67703,7
36023,67679,5
36026,67696,8
36026,67696,7
36013,67681,5
36028,67681,8
36030,67683,7
36020,67670,7
35985,67668,8
35985,67668,7
36014,67682,5
36008,67661,8
36013,67673,7
35973,67654,10
35991,67635,7
35991,67635,4
35950,67623,0
35950,67623,3
35982,67638,3
36017,67613,5
35992,67613,5
35984,67600,5
35977,67582,5
36015,67587,4
35965,67586,5
35972,67579,5
35970,67575,5
35999,67576,5
35959,67569,4
35963,67580,5
35971,67586,5
35978,67593,5
35972,67596,5
35980,67591,4
35984,67606,5
35983,67610,5
35990,67624,5
35997,67624,4
35993,67633,5
36003,67599,4
