RED,IR,EKG,TIME
29167,54039,9
29157,54033,8
29162,54035,7
29154,54041,5
29157,54027,8
29156,54021,7
29149,54006,5
29149,53999,8
29149,53999,7
29144,54001,5
29151,54004,8
29140,53995,7
29145,53982,5
29137,53966,8
29118,53966,12
29125,53962,8
29144,53954,7
29121,53962,5
29120,53954,8
29124,53958,7
29126,53957,5
29113,53943,8
29113,53943,7
29136,53942,9
29111,53940,10
29114,53949,5
29119,53936,5
29104,53921,10
29104,53921,5
29103,53920,5
29087,53908,10
29077,53878,5
29084,53887,7
29068,53879,8
29068,53879,5
29102,53877,7
29099,53871,8
29067,53875,5
29069,53867,7
29068,53872,8
29076,53867,5
29065,53850,7
29065,53850,8
29061,53844,5
29046,53840,7
29011,53825,8
29044,53826,5
29074,53823,7
29054,53839,8
29054,53839,5
29002,53838,7
29060,53849,8
29060,53837,7
29072,53870,8
29120,53883,5
29081,53882,7
29105,53948,8
29105,53948,5
29113,53914,7
29166,53952,8
29129,53971,5
29125,53970,7
29139,53973,8
29154,53984,5
29146,53994,7
29146,53994,8
29145,54007,5
29153,54004,7
29152,53977,8
29155,54013,5
29163,54002,7
29175,54038,8
29175,54038,7
29181,54043,7
29185,54050,8
29187,54066,7
29153,54075,5
29187,54121,2
29201,54082,3
29206,54126,5
29204,54106,4
29208,54159,5
29214,54095,5
29214,54105,5
29218,54110,4
29204,54132,5
29216,54106,4
29213,54111,5
29213,54108,5
29208,54119,4
29206,54111,5
29208,54106,5
29215,54106,5
29215,54112,5
29219,54112,4
29204,54112,5
29210,54107,5
29213,54094,5
29206,54098,5
29207,54091,4
29207,54102,5
29217,54114,5
29212,54091,5
29210,54100,5
29204,54096,4
29214,54095,5
29202,54096,5
29213,54093,5
29203,54083,4
29203,54087,4
29200,54080,6
29210,54081,4
29192,54076,5
29200,54072,4
29196,54072,5
29188,54069,5
29196,54067,5
29196,54074,5
29196,54063,4
29197,54063,5
29189,54056,5
29187,54061,5
29186,54060,5
29188,54060,4
29187,54047,5
29187,54060,5
29184,54048,5
29182,54049,5
29178,54044,4
29180,54038,5
29173,54025,5
29172,54013,5
29161,54014,5
29152,53995,4
29150,53995,5
29147,53989,6
29153,53992,4
29149,53980,4
29148,53974,4
29145,53969,5
29133,53958,5
29136,53959,5
29132,53942,4
29125,53931,5
29121,53933,5
29118,53916,5
29106,53911,5
29113,53892,4
29092,53887,5
29092,53887,5
29095,53880,5
29091,53889,5
29085,53864,4
29090,53871,5
29088,53876,5
29077,53854,5
29079,53850,5
29080,53845,4
29085,53852,5
29076,53844,5
29073,53835,5
29076,53839,5
29069,53840,4
29062,53837,5
29067,53835,5
29069,53843,5
29065,53832,4
29070,53836,4
29060,53840,5
29070,53833,5
29045,53847,5
29075,53847,4
29076,53848,5
29072,53847,5
29023,53848,5
29075,53849,5
29075,53856,4
29078,53849,5
29040,53856,5
29089,53858,5
29088,53869,5
29092,53874,5
29112,53878,4
29095,53873,5
29087,53887,5
29099,53890,5
29151,53886,4
29101,53898,5
29109,53904,5
29111,53899,5
29149,53898,5
29095,53884,4
29096,53876,5
29093,53864,5
29100,53858,5
29088,53863,4
29089,53866,5
29094,53866,5
29094,53851,5
29094,53871,5
29091,53879,4
29100,53885,5
29096,53850,5
29110,53913,5
29109,53908,5
29111,53898,4
29108,53859,6
29117,53910,4
29110,53912,5
29112,53907,5
29118,53914,4
29109,53919,5
29114,53913,5
29114,53907,5
29114,53953,5
29108,53914,4
29111,53902,5
29108,53906,5
29111,53963,5
29103,53907,4
29109,53913,4
29104,53907,5
29111,53934,5
29107,53917,5
29116,53907,4
29109,53913,5
29107,53912,5
29106,53905,5
29106,53910,5
29112,53908,4
29105,53915,5
29110,53903,7
29107,53910,3
29107,53904,5
29110,53909,4
29100,53908,5
29104,53909,5
29106,53914,5
29110,53918,5
29109,53913,4
29108,53917,5
29108,53912,5
29113,53911,5
29107,53915,5
29105,53916,4
29111,53913,5
29099,53917,5
29106,53914,5
29105,53924,4
29094,53910,4
29094,53905,5
29095,53908,5
29096,53900,5
29091,53903,4
29081,53895,5
29088,53898,5
29078,53883,5
29075,53880,5
29074,53860,4
29062,53872,5
29065,53859,5
29056,53856,5
29047,53856,5
29053,53850,4
29055,53846,5
29056,53854,5
29052,53851,5
29058,53859,5
29053,53870,4
29056,53872,5
29074,53878,5
29073,53892,5
29077,53902,5
29083,53917,5
29100,53927,4
29099,53950,5
29111,53964,5
29113,53971,6
29115,53983,3
29134,53994,5
29133,54002,5
29129,53987,5
29116,53966,4
29111,53953,5
29099,53938,5
29089,53929,5
29094,53929,5
29093,53929,4
29100,53955,5
29116,53975,5
29125,54011,5
29144,54043,5
29170,54084,4
29188,54113,5
29210,54146,5
29211,54166,5
29222,54176,5
29233,54185,4
29237,54210,6
29246,54207,4
29251,54222,5
29253,54219,4
29253,54215,6
29261,54223,3
29253,54228,5
29264,54225,5
29257,54222,4
29227,54215,5
29258,54209,5
29257,54211,5
29255,54199,5
29208,54199,4
29246,54198,5
29243,54197,5
29242,54193,5
29213,54192,5
29246,54197,4
29247,54184,5
29249,54194,5
29274,54198,5
29255,54192,5
29246,54189,4
29249,54187,5
29295,54197,6
29250,54185,4
29250,54191,5
29243,54186,4
29292,54194,5
29254,54190,5
29253,54194,5
29261,54202,4
29270,54204,4
29263,54215,5
29254,54203,5
29256,54207,5
29260,54196,4
29267,54217,5
29271,54224,5
29267,54223,5
29282,54198,5
29292,54262,4
29305,54277,4
29311,54295,5
29318,54270,5
29337,54348,5
29338,54372,4
29360,54397,5
29373,54416,5
29392,54445,6
29408,54485,4
29427,54522,4
29445,54595,5
29469,54599,5
29491,54625,5
29508,54658,5
29528,54738,4
29548,54721,5
29568,54759,5
29585,54802,5
29609,54865,4
29632,54859,4
29637,54898,5
29662,54925,5
29671,54943,5
29687,54957,4
29690,54977,5
29702,54989,5
29704,54995,5
29707,54996,5
29707,55005,5
29714,55001,4
29711,55004,5
29712,54996,5
29714,54992,6
29698,54995,3
29698,54975,5
29700,54973,5
29693,54958,5
29687,54947,5
29683,54940,4
29672,54939,5
29668,54928,5
29670,54916,5
29649,54902,5
29649,54888,4
29643,54878,5
29638,54860,5
29627,54848,5
29611,54820,4
29594,54801,5
29596,54791,5
29599,54767,5
29575,54762,5
29569,54742,4
29565,54726,6
29550,54710,4
29543,54696,5
29530,54667,5
29524,54671,4
29521,54658,5
29520,54651,5
29516,54636,5
29509,54639,5
29515,54628,4
29499,54635,5
29497,54625,5
29507,54642,5
29508,54647,5
29516,54672,4
29528,54689,5
29548,54696,5
29545,54706,5
29547,54721,4
29548,54715,4
29548,54724,5
29555,54713,5
29550,54712,5
29546,54710,4
29545,54702,5
29542,54697,6
29536,54693,4
29535,54685,5
29533,54678,4
29528,54669,5
29519,54670,5
29525,54660,5
29523,54638,5
29511,54638,4
29501,54616,5
29499,54600,5
29494,54605,5
29480,54586,5
29485,54584,4
29482,54572,5
29467,54570,5
29466,54556,5
29470,54549,5
29466,54558,4
29468,54539,5
29454,54537,5
29451,54536,5
29458,54536,4
29454,54529,4
29452,54514,5
29416,54522,6
29449,54520,4
29450,54520,4
29450,54524,5
29401,54509,5
29449,54507,5
29449,54516,5
29448,54521,4
29406,54519,5
29454,54516,5
29449,54520,5
29458,54534,5
29487,54541,4
29479,54564,5
29479,54572,5
29488,54594,5
29548,54606,5
29503,54607,4
29501,54620,5
29502,54625,5
29545,54628,5
29511,54631,5
29515,54635,4
29510,54638,5
29534,54637,5
29521,54649,6
29520,54649,3
29524,54649,4
29526,54648,5
29535,54657,5
29533,54664,5
29535,54673,4
29536,54639,5
29537,54675,5
29539,54687,5
29550,54698,5
29553,54655,4
29565,54741,5
29580,54755,5
29589,54775,5
29602,54786,5
29610,54803,4
29620,54821,5
29621,54832,5
29636,54901,5
29658,54901,5
29672,54937,5
29689,54967,4
29702,55039,5
29709,54983,5
29727,55011,5
29727,55025,4
29737,55065,5
29749,55057,5
29760,55079,5
29761,55086,4
29773,55097,4
29762,55085,5
29759,55054,5
29747,55032,5
29739,55032,4
29749,55029,5
29743,55051,5
29744,55027,5
29740,55024,5
29734,55004,4
29729,54997,5
29716,54996,5
29717,54999,5
29715,54985,5
29718,54985,4
29710,54971,6
29700,54967,4
29694,54965,5
29709,54968,5
29703,54968,4
29702,54972,5
29709,54971,5
29706,54974,5
29712,54984,5
29708,54979,4
29716,54974,5
29697,54973,5
29709,54968,5
29705,54973,4
29706,54972,4
29703,54972,5
29703,54970,5
29709,54969,5
29702,54972,4
29704,54967,5
29707,54973,5
29698,54967,5
29706,54973,5
29712,54981,4
29713,54973,5
29707,54976,6
29710,54983,4
29712,54983,5
29709,54992,4
29708,54987,5
29714,54985,5
29721,54994,5
29706,54982,5
29708,54969,4
29711,54968,5
29701,54968,5
29706,54976,5
29718,55001,5
29725,55005,4
29728,54991,5
29696,54966,5
29693,54947,5
29697,54962,4
29692,54962,4
29703,54964,5
29707,54964,5
29696,54957,5
29695,54955,4
29692,54969,5
29704,54991,5
29724,55011,5
29723,55007,5
29721,54996,4
29722,54994,5
29720,55001,5
29728,55030,5
29749,55055,5
29758,55065,4
29758,55069,5
29757,55064,5
29758,55058,5
29757,55057,5
29750,55060,4
29752,55056,5
29743,55050,5
29749,55047,5
29721,55051,5
29739,55037,5
29736,55034,4
29729,55029,5
29684,55018,5
29731,55018,5
29732,55012,4
29730,55009,5
29672,55014,5
29723,55014,5
29730,55013,4
29727,55010,5
29728,54998,5
29733,55003,5
29717,54998,5
29724,54990,4
29757,54995,5
29707,54994,5
29710,54992,5
29718,54992,5
29774,54982,4
29702,54978,5
29706,54973,5
29707,54967,5
29720,54965,5
29698,54963,4
29691,54949,5
29688,54933,5
29690,54927,5
29675,54931,5
29675,54921,5
29671,54917,4
29678,54881,5
29667,54912,5
29672,54906,4
29663,54895,5
29653,54838,5
29655,54884,5
29641,54876,5
29658,54871,4
29642,54835,5
29627,54856,5
29632,54831,5
29626,54829,5
29622,54844,4
29615,54800,5
29606,54792,5
29597,54778,5
29601,54827,5
29584,54759,4
29592,54753,5
29581,54753,6
29578,54777,4
29576,54726,5
29577,54721,4
29564,54716,5
29552,54717,5
29555,54693,5
29549,54688,5
29545,54691,4
29547,54689,5
29542,54683,5
29539,54679,5
29545,54683,4
29543,54676,5
29547,54693,5
29553,54690,5
29556,54710,5
29568,54722,4
29574,54741,5
29592,54762,5
29605,54798,5
29617,54841,5
29644,54884,4
29669,54914,5
29692,54952,5
29708,54974,6
29717,55015,4
29734,55038,4
29752,55061,5
29772,55090,5
29774,55112,5
29786,55142,5
29800,55166,4
29818,55173,5
29827,55192,5
29835,55210,5
29833,55220,5
29840,55231,4
29845,55226,5
29841,55239,5
29853,55245,5
29849,55230,4
29843,55236,4
29844,55238,5
29840,55234,5
29851,55223,5
29837,55217,5
29842,55225,4
29834,55216,5
29837,55207,5
29833,55211,6
29826,55200,3
29821,55192,5
29826,55188,5
29823,55189,5
29823,55188,5
29824,55180,4
29810,55169,5
29805,55161,5
29807,55152,5
29798,55154,5
29800,55138,4
29793,55129,5
29796,55139,5
29795,55141,5
29794,55135,5
29799,55145,4
29792,55127,5
29794,55132,5
29809,55162,5
29820,55177,4
29818,55158,5
29802,55137,4
29791,55117,5
29783,55113,5
29781,55087,6
29763,55079,3
29762,55090,5
29770,55101,5
29782,55111,5
29779,55116,4
29774,55105,5
29763,55091,5
29771,55088,5
29777,55095,5
29781,55121,4
29789,55136,5
29797,55152,5
29800,55146,5
29798,55148,5
29755,55128,4
29792,55127,5
29790,55127,5
29778,55121,5
29733,55110,5
29777,55118,4
29789,55115,6
29786,55111,4
29761,55117,5
29778,55123,4
29785,55110,4
29785,55117,5
29815,55124,5
29786,55115,5
29788,55119,4
29777,55106,5
29827,55111,5
29786,55104,5
29769,55105,5
29777,55093,4
29798,55092,5
29772,55081,5
29764,55079,5
29764,55068,5
29762,55067,4
29760,55059,5
29752,55052,5
29748,55052,5
29738,55008,5
29724,55010,4
29723,55004,5
29721,55004,6
29720,54964,4
29725,55016,5
29741,55028,4
29743,55037,5
29749,54997,5
29752,55051,5
29751,55066,4
29751,55067,4
29764,55064,5
29756,55071,5
29751,55064,5
29752,55073,4
29761,55118,5
29758,55067,5
29759,55070,5
29761,55081,5
29758,55125,4
29766,55076,5
29764,55080,5
29761,55075,5
29758,55095,5
29758,55067,4
29764,55064,5
29759,55062,5
29752,55065,6
29754,55062,4
29760,55061,4
29758,55066,5
29760,55073,5
29763,55063,5
29765,55069,5
29769,55066,4
29755,55060,5
29756,55068,5
29763,55064,5
29766,55069,4
29760,55076,4
29762,55069,5
29762,55074,5
29760,55073,5
29757,55061,4
29756,55077,5
29753,55067,5
29758,55065,5
29749,55052,5
29742,55036,5
29736,55020,4
29724,54991,5
29708,54978,5
29698,54958,5
29686,54922,4
29671,54900,5
29658,54873,5
29642,54858,5
29646,54855,5
29639,54844,4
29636,54829,5
29634,54832,5
29622,54826,5
29627,54821,5
29632,54824,4
29625,54828,5
29621,54823,5
29629,54827,5
29628,54826,4
29637,54837,4
29640,54857,5
29640,54852,5
29653,54859,7
29650,54865,2
29655,54869,6
29658,54880,4
29668,54880,5
29665,54898,5
29681,54929,4
29700,54954,5
29716,54982,5
29726,55002,5
29736,55022,5
29744,55035,4
29752,55060,5
29761,55064,5
29765,55073,5
29771,55083,5
29767,55094,4
29770,55095,5
29772,55100,5
29783,55098,5
29776,55114,5
29788,55115,4
29789,55129,5
29795,55137,5
29797,55137,5
29796,55145,4
29806,55153,5
29802,55139,6
29798,55144,4
29797,55143,5
29800,55144,4
29798,55138,5
29798,55142,5
29800,55143,5
29803,55135,5
29807,55138,4
29795,55144,5
29779,55149,5
29805,55147,5
29802,55154,5
29808,55159,4
29767,55155,5
29815,55167,5
29814,55169,5
29821,55171,5
29777,55173,4
29812,55178,5
29818,55183,5
29834,55187,5
29833,55187,4
29829,55174,4
29825,55181,5
29817,55185,6
29859,55173,4
29825,55188,4
29823,55187,5
29845,55212,5
29901,55238,5
29856,55244,5
29874,55279,4
29887,55319,5
29943,55363,5
29958,55428,5
29987,55503,5
30021,55556,4
30050,55598,5
30073,55645,5
30088,55695,5
30118,55727,5
30132,55731,4
30152,55797,5
30163,55811,5
30161,55833,5
30176,55795,5
30193,55877,5
30225,55911,4
30227,55926,5
30240,55934,5
30239,55965,4
30246,55978,4
30258,55979,5
30268,56021,5
30270,56015,5
30275,56023,4
30288,56039,5
30297,56114,5
30294,56059,5
30292,56057,5
30289,56062,4
30288,56086,5
30280,56032,5
30277,56021,5
30271,56004,5
30256,55996,4
30242,55952,5
30228,55926,5
30208,55882,5
30189,55852,5
30171,55808,6
30133,55755,3
30111,55688,5
30080,55631,5
30038,55566,5
29999,55510,4
29976,55451,5
29952,55405,5
29922,55357,5
29900,55312,4
29879,55284,4
29848,55234,5
29825,55185,5
29808,55138,5
29778,55097,4
29772,55069,5
29750,55039,5
29728,55001,5
29712,54965,5
29689,54919,4
29662,54882,5
29651,54849,5
29624,54817,5
29618,54796,5
29610,54766,4
29596,54751,6
29586,54732,4
29583,54721,5
29572,54707,5
29572,54698,4
29563,54691,5
29552,54688,5
29557,54675,5
29558,54673,5
29552,54681,4
29560,54679,5
29553,54685,5
29551,54676,5
29554,54674,4
29550,54656,4
29541,54639,5
29523,54633,5
29521,54612,5
29516,54596,4
29508,54582,5
29503,54591,5
29503,54589,5
29497,54582,4
29498,54569,4
29498,54579,5
29496,54582,5
29497,54583,5
29495,54580,5
29499,54583,4
29499,54594,5
29510,54592,5
29518,54610,5
29522,54622,5
29527,54641,4
29531,54659,5
29547,54672,5
29555,54702,5
29575,54719,5
29586,54745,4
29598,54769,5
29614,54793,5
29618,54811,5
29632,54839,5
29645,54854,4
29645,54880,5
29655,54891,5
29674,54911,6
29679,54927,3
29684,54956,5
29710,54970,5
29720,54983,5
29703,54987,5
29717,55008,4
29727,55011,5
29724,55023,5
29707,55020,5
29736,55030,5
29736,55027,4
29752,55033,5
29693,55034,5
29736,55031,5
29742,55028,5
29742,55033,4
29731,55032,5
29736,55032,5
29740,55028,5
29739,55023,5
29766,55025,5
29730,55012,4
29743,55011,5
29730,55006,5
29778,55011,6
29722,55002,3
29729,55000,5
29717,55006,5
29747,54998,5
29724,55002,4
29719,54995,5
29714,54993,5
29720,54993,5
29719,54998,5
29713,54991,4
29709,54988,5
29713,54958,5
29715,54991,5
29718,54999,5
29714,54995,4
29709,54944,5
29717,54985,5
29709,54986,5
29711,54978,5
29710,54930,4
29713,54976,6
29709,54975,4
29709,54968,5
29703,54990,4
29708,54967,6
29702,54972,3
29703,54961,5
29704,55011,5
29694,54950,4
29695,54936,5
29693,54948,5
29685,54977,5
29686,54933,5
29676,54923,4
29689,54923,5
29676,54941,5
29675,54919,5
29679,54922,5
29683,54924,4
29676,54925,5
29684,54919,5
29675,54911,5
29668,54903,5
29667,54913,4
29669,54903,5
29673,54913,6
29669,54903,4
29673,54904,5
29669,54895,4
29659,54902,5
29671,54895,5
29668,54908,5
29668,54905,4
29681,54921,4
29678,54925,5
29681,54925,5
29689,54943,5
29701,54945,4
29700,54957,5
29701,54965,5
29698,54965,5
29700,54967,5
29701,54965,4
29706,54980,5
29711,54977,5
29709,54980,5
29716,54989,5
29722,55007,4
29724,55011,5
29740,55032,5
29749,55036,6
29744,55052,4
29748,55062,4
29765,55066,5
29767,55071,5
29764,55079,5
29764,55088,5
29770,55084,4
29779,55091,5
29771,55092,5
29770,55089,5
29772,55111,4
29773,55103,4
29776,55107,5
29788,55122,5
29787,55133,5
29792,55128,4
29794,55138,5
29807,55145,5
29794,55147,5
29802,55144,5
29808,55151,5
29800,55147,4
29803,55151,5
29807,55149,5
29810,55151,6
29799,55156,3
29805,55160,5
29809,55160,5
29803,55161,5
29806,55169,5
29808,55163,4
29818,55169,5
29808,55172,5
29809,55159,5
29805,55157,5
29800,55154,4
29813,55153,5
29797,55151,5
29797,55145,5
29809,55149,4
29802,55143,5
29802,55148,5
29798,55144,5
29798,55151,5
29807,55154,4
29805,55166,6
29814,55181,4
29822,55189,5
29832,55194,5
29795,55200,4
29834,55206,5
29833,55207,5
29834,55193,5
29770,55189,5
29818,55178,4
29815,55164,5
29800,55140,5
29784,55135,5
29796,55130,5
29788,55118,4
29781,55115,5
29821,55114,5
29791,55115,5
29781,55117,5
29784,55105,4
29830,55111,5
29781,55103,5
29781,55098,5
29789,55102,4
29820,55110,5
29790,55114,6
29780,55117,4
29789,55110,5
29796,55109,4
29776,55099,5
29773,55091,5
29772,55070,5
29766,55033,5
29762,55063,4
29762,55044,5
29748,55043,5
29748,54986,5
29736,55027,5
29742,55017,4
29733,55022,5
29726,54950,5
29734,55007,5
29732,54998,5
29738,55002,4
29733,55014,5
29731,55014,5
29730,55013,5
29739,55006,4
29730,55065,4
29728,55009,5
29736,55007,6
29731,55011,4
29727,55069,4
29734,55013,5
29728,55005,5
29741,55028,5
29736,55026,5
29731,55011,4
29732,55007,5
29728,54999,5
29729,54995,5
29734,54994,5
29720,54987,4
29723,54992,5
29724,54977,5
29713,54978,5
29716,54978,5
29712,54986,4
29716,54978,5
29713,54973,5
29711,54962,5
29699,54954,5
29697,54956,4
29699,54952,5
29695,54941,5
29694,54945,5
29702,54953,5
29696,54950,4
29698,54938,5
29690,54940,5
29689,54931,5
29689,54938,4
29686,54926,5
29691,54927,5
29687,54931,5
29681,54923,5
29682,54913,4
29670,54897,5
29667,54883,5
29658,54878,5
29667,54886,5
29665,54893,4
29663,54903,5
29667,54895,5
29660,54889,5
29659,54885,5
29657,54882,5
29662,54880,4
29657,54885,5
29661,54891,5
29652,54886,5
29660,54887,4
29657,54874,5
29648,54858,5
29642,54836,5
29626,54833,5
29628,54828,4
29629,54831,5
29635,54837,5
29632,54832,5
29626,54828,4
29625,54833,5
29633,54827,5
29624,54830,5
29628,54829,5
29621,54819,4
29613,54812,5
29622,54822,5
29631,54843,5
29642,54866,5
29677,54911,4
29705,54975,6
29725,55001,4
29719,54988,5
29729,55001,5
29741,55044,4
29769,55086,5
29789,55106,5
29786,55104,5
29766,55057,5
29750,55032,4
29734,55023,5
29726,55001,5
29722,54990,5
29701,54970,5
29704,54950,4
29693,54936,5
29685,54930,5
29685,54935,5
29679,54923,4
29680,54907,5
29656,54919,5
29684,54920,5
29691,54922,5
29678,54939,4
29658,54945,5
29705,54956,6
29699,54965,4
29711,54984,5
29665,54985,4
29719,54985,5
29713,54978,5
29704,54976,5
29718,54982,5
29715,54993,4
29724,55004,5
29725,54998,5
29771,55007,5
29741,55018,5
29727,55024,4
29741,55027,5
29799,55039,5
29746,55049,5
29744,55049,4
29744,55054,4
29781,55049,5
29756,55056,5
29753,55059,5
29753,55063,4
29758,55062,5
29759,55056,5
29743,55050,5
29754,55057,5
29746,55021,4
29752,55053,5
29743,55048,5
29747,55049,5
29743,55005,5
29744,55053,5
29750,55053,4
29753,55060,5
29753,55023,5
29755,55052,5
29748,55057,4
29753,55057,5
29750,55091,5
29746,55053,5
29746,55064,5
29745,55060,4
29748,55110,4
29753,55066,5
29761,55067,5
29753,55055,5
29757,55103,3
29751,55061,5
29754,55059,5
29753,55055,5
29743,55069,4
29754,55054,5
29750,55053,5
29755,55063,5
29746,55061,5
29752,55063,4
29753,55064,5
29753,55060,5
29742,55054,5
29754,55053,5
29756,55063,4
29752,55053,5
29756,55050,5
29755,55057,5
29756,55061,5
29754,55057,4
29750,55064,6
29760,55070,4
29762,55071,5
29758,55068,5
29762,55070,6
29759,55077,3
29757,55074,5
29764,55083,5
29760,55079,4
29769,55080,4
29762,55085,5
29762,55082,5
29762,55076,5
29766,55076,4
29768,55077,5
29764,55075,5
29769,55079,5
29764,55077,5
29764,55076,4
29763,55068,5
29764,55068,5
29763,55074,5
29765,55073,5
29761,55071,4
29763,55072,5
29759,55073,6
29762,55072,4
29756,55080,5
29757,55074,4
29754,55073,5
29756,55074,5
29760,55074,5
29764,55075,5
29768,55073,4
29762,55074,5
29755,55075,5
29765,55076,5
29762,55081,4
29766,55075,4
29756,55077,5
29765,55079,5
29764,55086,5
29764,55076,4
29766,55074,5
29763,55071,5
29765,55079,5
29761,55067,5
29766,55069,4
29773,55078,5
29764,55083,5
29768,55074,6
29771,55080,4
29770,55078,4
29771,55077,5
29765,55074,5
29758,55087,5
29759,55078,5
29774,55077,4
29765,55085,5
29768,55082,5
29771,55070,5
29760,55077,5
29758,55080,4
29767,55082,5
29756,55079,5
29751,55072,5
29765,55079,4
29765,55071,4
29762,55082,5
29725,55077,5
29765,55081,5
29769,55089,5
29765,55084,4
29718,55077,5
29773,55085,5
29766,55085,6
29775,55086,3
29757,55079,5
29768,55085,5
29773,55086,5
29768,55073,5
29797,55092,4
29772,55083,5
29772,55082,5
29763,55085,5
29816,55085,5
29762,55081,4
29769,55082,5
29761,55079,5
29795,55081,5
29764,55080,5
29768,55082,4
29761,55070,5
29772,55082,5
29771,55086,5
29754,55088,4
29754,55073,5
29767,55053,4
29760,55081,5
29763,55084,5
29763,55080,6
29767,55041,3
29775,55088,5
29773,55084,5
29770,55087,5
29772,55040,4
29771,55088,5
29772,55092,4
29771,55087,5
29773,55107,5
29769,55087,4
29769,55080,5
29770,55090,5
29763,55141,5
29771,55089,5
29769,55083,4
29777,55090,5
29772,55133,5
29769,55091,5
29766,55085,5
29773,55094,4
29768,55101,6
29776,55092,4
29767,55082,5
29770,55088,4
29764,55091,4
29773,55090,5
29774,55093,5
29771,55087,5
29766,55090,4
29772,55095,5
29766,55092,5
29773,55097,5
29779,55093,5
29771,55098,4
29774,55092,5
29775,55095,5
29767,55085,5
29773,55099,5
29775,55088,4
29775,55093,5
29774,55089,5
29768,55103,5
29770,55093,5
29769,55091,4
29783,55095,5
29770,55091,6
29766,55092,4
29773,55088,5
29763,55087,4
29764,55095,5
29778,55090,5
29773,55090,5
29775,55101,4
29773,55087,5
29767,55089,5
29771,55086,5
29773,55090,5
29768,55095,4
29772,55091,5
29774,55099,5
29769,55097,5
29768,55096,5
29780,55103,4
29774,55109,5
29782,55107,5
29771,55102,5
29777,55107,5
29778,55115,4
29785,55108,5
29775,55102,5
29776,55100,6
29776,55111,4
29777,55098,4
29771,55093,5
29771,55097,5
29774,55093,5
29776,55099,5
29770,55099,4
29776,55099,5
29772,55103,5
29778,55097,5
29777,55106,4
29779,55108,5
29771,55105,5
29780,55098,5
29772,55101,5
29768,55096,4
29775,55093,5
29776,55089,5
29771,55095,5
29761,55090,5
29764,55086,5
29759,55088,4
29765,55086,5
29765,55084,5
29770,55087,5
29770,55090,4
29769,55086,5
29768,55084,5
29761,55085,5
29767,55091,5
29762,55075,4
29757,55083,5
29767,55083,5
29767,55079,5
29735,55073,4
29765,55078,4
29766,55085,5
29765,55085,5
29712,55084,5
29770,55086,4
29762,55081,5
29777,55090,5
29732,55087,5
29769,55081,5
29761,55082,4
29764,55074,6
29789,55071,4
29758,55077,5
29759,55072,5
29759,55075,4
29813,55079,5
29761,55078,5
29767,55082,5
29767,55074,5
29794,55085,4
29757,55071,5
29750,55067,5
29758,55076,5
29762,55070,5
29762,55069,4
29763,55067,5
29760,55070,5
29758,55056,5
29755,55080,4
29757,55067,4
29757,55068,5
29755,55024,5
29758,55077,5
29760,55075,4
29758,55072,5
29758,55024,6
29755,55069,4
29756,55074,5
29756,55081,4
29763,55086,5
29761,55078,5
29765,55071,5
29757,55080,5
29759,55114,4
29767,55075,5
29763,55077,5
29765,55074,5
29766,55132,5
29763,55079,4
29754,55085,5
29759,55079,5
29755,55095,5
29764,55068,5
29759,55061,4
29758,55070,5
29761,55078,5
29754,55074,5
29766,55075,4
29759,55083,4
29772,55092,5
29778,55085,5
29768,55101,5
29783,55103,4
29774,55113,5
29789,55123,5
29784,55124,5
29777,55119,5
29776,55108,4
29787,55104,5
29776,55100,5
29770,55097,5
29767,55093,5
29775,55094,4
29774,55096,5
29776,55086,5
29770,55099,5
29765,55091,5
29757,55088,4
29767,55082,5
29769,55074,5
29770,55080,5
29767,55075,5
29764,55079,4
29765,55067,5
29754,55074,5
29766,55077,5
29756,55064,4
29753,55077,4
29759,55073,5
29757,55063,5
29756,55068,5
29750,55059,4
29759,55059,5
29754,55065,5
29755,55073,5
29755,55067,5
29756,55068,4
29758,55074,5
29765,55072,5
29751,55074,5
29762,55068,5
29759,55081,4
29762,55073,5
29761,55074,5
29768,55080,7
29757,55079,3
29755,55072,5
29752,55065,4
29775,55056,5
29752,55053,5
29748,55044,5
29743,55036,4
29741,55041,5
29738,55051,5
29739,55047,5
29745,55058,4
29738,55058,5
29747,55054,5
29755,55054,5
29755,55066,5
29760,55070,4
29759,55072,5
29754,55080,5
29758,55076,5
29759,55088,5
29752,55073,4
29757,55070,5
29757,55068,6
29760,55057,4
29751,55057,5
29750,55058,4
29746,55051,7
29744,55051,3
29750,55050,5
29745,55048,5
29738,55044,4
29708,55038,5
29740,55040,5
29737,55025,5
29734,55027,4
29694,55031,4
29728,55035,5
29739,55029,5
29741,55033,5
29691,55033,4
29742,55034,5
29742,55035,5
29727,55033,5
29757,55021,5
29733,55031,4
29731,55032,5
29731,55030,5
29782,55018,6
29735,55028,4
29734,55029,4
29732,55030,5
29782,55028,5
29730,55024,5
29726,55019,5
29730,55023,4
29751,55013,5
29727,55017,5
29726,55019,5
29727,55006,5
29724,54994,4
29726,55012,5
29727,55013,5
29718,55013,5
29723,54974,4
29725,55004,4
29724,55004,5
29714,55009,5
29723,54944,5
29713,55007,5
29722,55007,4
29721,55004,5
29716,54987,5
29727,55008,6
29721,55004,3
29722,55009,5
29721,55039,5
29718,55003,5
29724,54999,5
29727,54995,4
29721,55062,5
29716,54993,5
29712,54987,5
29718,54982,5
29709,55021,4
29713,54979,5
29708,54976,5
29710,54978,5
29704,54979,5
29703,54959,4
29693,54957,5
29700,54950,5
29694,54960,5
29695,54951,4
29695,54954,5
29686,54946,4
29684,54917,5
29678,54904,5
29661,54891,6
29659,54868,3
29642,54866,5
29644,54848,5
29630,54842,5
29622,54822,4
29612,54814,5
29619,54806,5
29610,54799,5
29615,54799,5
29609,54800,4
29612,54791,5
29610,54788,5
29612,54798,5
29607,54789,5
29602,54788,4
29607,54783,5
29610,54793,5
29610,54786,5
29612,54788,5
29608,54785,4
29608,54771,6
29602,54780,4
29603,54783,5
29597,54780,4
29593,54787,5
29603,54789,5
29597,54788,5
29605,54778,5
29596,54786,4
29605,54787,5
29607,54787,5
29605,54782,5
29599,54778,5
29611,54781,4
29607,54790,5
29603,54786,5
29604,54794,5
29617,54808,5
29621,54809,4
29620,54813,5
29623,54818,5
29629,54822,5
29624,54824,5
29631,54824,4
29619,54827,5
29623,54821,6
29620,54807,4
29618,54817,5
29619,54819,4
29621,54815,5
29626,54818,5
29629,54820,5
29628,54824,4
29620,54826,5
29628,54823,5
29628,54832,5
29623,54834,5
29632,54828,4
29620,54819,5
29630,54824,5
29633,54816,5
29631,54825,5
29614,54822,4
29629,54813,5
29622,54815,5
29626,54821,5
29618,54814,5
29621,54808,4
29623,54819,5
29622,54815,5
29607,54813,6
29627,54812,4
29622,54804,4
29612,54807,5
29579,54805,5
29620,54807,5
29612,54800,5
29619,54801,4
29567,54795,5
29613,54803,5
29617,54796,5
29611,54801,4
29608,54797,5
29611,54800,5
29607,54792,5
29604,54787,5
29650,54789,4
29601,54793,5
29604,54780,5
29607,54779,5
29655,54777,5
29600,54783,5
29603,54777,4
29593,54773,5
29618,54766,5
29601,54773,6
29595,54764,3
29589,54762,5
29594,54755,5
29590,54762,5
29603,54773,5
29593,54764,4
29592,54729,5
29599,54761,5
29595,54750,5
29587,54760,4
29598,54702,4
29591,54757,5
29585,54759,5
29591,54755,5
29585,54717,4
29593,54750,6
29588,54751,4
29589,54746,5
29589,54778,5
29590,54750,4
29582,54746,6
29581,54743,4
29576,54795,5
29586,54742,5
29579,54742,4
29580,54743,5
29586,54789,5
29587,54746,5
29584,54743,5
29582,54743,4
29584,54755,5
29586,54742,5
29582,54743,5
29586,54742,5
29586,54745,4
29590,54745,5
29593,54752,5
29593,54746,5
29586,54741,4
29575,54745,4
29588,54750,5
29590,54746,5
29584,54727,5
29577,54736,4
29573,54725,5
29584,54738,6
29586,54731,4
29578,54727,5
29575,54726,4
29571,54727,5
29572,54719,5
29565,54730,5
29571,54718,5
29567,54712,4
29566,54714,5
29569,54709,5
29576,54717,5
29571,54712,5
29569,54711,4
29561,54716,5
29574,54710,5
29565,54712,5
29563,54704,5
29563,54704,4
29565,54708,5
29561,54705,5
29565,54703,5
29564,54701,4
29567,54698,4
29563,54709,5
29570,54710,6
29562,54700,4
29557,54703,4
29567,54704,5
29566,54705,5
29563,54709,5
29564,54709,5
29567,54705,4
29562,54708,5
29555,54708,5
29570,54710,5
29562,54704,5
29568,54701,4
29563,54704,5
29565,54710,5
29557,54699,5
29558,54704,5
29558,54704,4
29561,54703,5
29559,54708,5
29565,54709,5
29558,54704,5
29563,54699,4
29567,54695,5
29567,54701,5
29563,54707,5
29568,54713,4
29560,54708,4
29567,54708,5
29565,54710,5
29563,54708,5
29559,54704,4
29564,54715,5
29565,54707,5
29563,54707,5
29565,54713,5
29568,54711,4
29562,54704,5
29556,54705,5
29566,54710,5
29567,54700,5
29544,54694,4
29562,54700,5
29562,54697,5
29565,54697,5
29521,54706,5
29558,54700,5
29561,54703,4
29564,54702,5
29513,54702,5
29570,54711,5
29561,54707,4
29566,54717,5
29561,54718,5
29570,54719,5
29566,54716,4
29574,54717,5
29613,54733,5
29566,54732,5
29583,54739,5
29582,54744,4
29641,54741,5
29591,54760,5
29589,54770,5
29601,54773,5
29634,54776,4
29606,54800,5
29607,54806,5
29619,54812,5
29629,54825,5
29624,54832,4
29636,54840,6
29635,54844,4
29640,54827,5
29638,54862,5
29643,54870,4
29648,54874,5
29657,54833,5
29662,54891,5
29662,54896,4
29660,54899,4
29663,54868,5
29663,54920,5
29687,54925,5
29680,54927,4
29682,54949,5
29686,54939,5
29693,54951,5
29687,54946,5
29699,55009,4
29695,54963,5
29691,54959,5
29700,54958,5
29697,55018,5
29691,54974,4
29699,54979,5
29708,54979,5
29706,55001,5
29711,54985,5
29707,54986,4
29709,54993,5
29708,54991,5
29713,54987,5
29711,54990,5
29707,54995,4
29708,55000,5
29717,55002,5
29717,55005,5
29720,55002,4
29715,55004,4
29717,55007,5
29711,55011,5
29720,55002,5
29721,54999,4
29716,54998,4
29720,55004,5
29721,54995,5
29715,54999,5
29719,54997,3
29714,54997,5
29718,54998,5
29712,54989,5
29713,54994,5
29716,54994,4
29706,54997,5
29710,55002,5
29716,55000,5
29722,54992,5
29718,54996,4
29721,54996,5
29720,55003,5
29715,55001,5
29713,55002,5
29720,55010,4
29717,55014,5
29720,55017,5
29717,55009,5
29726,55011,4
29723,55012,6
29719,55006,4
29711,55013,5
29722,55009,5
29724,55005,6
29718,55006,3
29717,55007,5
29719,55006,5
29718,55000,5
29713,55000,4
29715,55003,5
29718,55004,5
29710,55001,5
29722,54996,5
29710,55003,4
29722,55006,5
29718,55009,5
29720,55005,5
29724,55010,5
29712,55004,4
29722,55008,5
29724,55002,5
29721,54998,5
29716,55007,4
29721,55004,4
29720,54995,6
29719,55002,4
29720,55005,5
29718,55004,4
29714,54998,7
29712,55005,3
29713,54998,5
29712,55004,5
29715,55002,4
29709,55002,5
29708,54997,5
29714,55005,5
29723,54995,5
29712,54993,4
29704,54999,5
29702,54988,5
29712,54994,5
29709,54990,5
29707,54989,4
29666,54979,5
29709,54994,5
29711,54980,5
29711,54988,5
29654,54985,4
29705,54989,5
29709,54982,6
29707,54987,4
29694,54982,4
29704,54985,4
29705,54987,5
29703,54979,5
29745,54979,5
29705,54981,4
29705,54979,5
29708,54991,5
29762,54983,5
29708,54978,5
29709,54985,4
29694,54980,5
29730,54978,5
29700,54979,5
29701,54990,5
29705,54982,4
29707,54977,5
29711,54983,5
29698,54979,5
29712,54980,5
29701,54955,4
29702,54986,5
29709,54989,5
29707,54975,6
29709,54937,4
29712,54986,4
29713,54981,5
29702,54981,5
29698,54938,5
29701,54993,5
29696,54969,4
29701,54971,5
29711,54998,5
29708,54985,5
29706,54969,4
29703,54983,5
29709,55033,5
29708,54981,5
29702,54973,5
29703,54979,4
29707,55029,5
29699,54983,5
29704,54992,5
29709,54988,5
29705,54995,5
29705,54983,4
29703,54987,5
29707,54979,5
29705,54986,6
29698,54976,3
29705,54975,5
29710,54977,5
29694,54984,5
29706,54979,5
29703,54975,4
29709,54973,5
29704,54982,5
29712,54974,5
29704,54972,4
29705,54973,4
29701,54974,5
29702,54972,5
29696,54968,5
29695,54963,4
29704,54967,5
29697,54971,5
29694,54969,5
29698,54962,5
29694,54974,4
29698,54968,6
29703,54963,4
29698,54970,5
29698,54975,5
29701,54971,4
29698,54960,5
29700,54966,5
29697,54971,5
29701,54974,5
29700,54965,4
29703,54971,5
29707,54972,5
29695,54962,5
29701,54971,5
29705,54976,4
29702,54971,5
29701,54974,5
29695,54978,5
29690,54970,4
29703,54970,4
29712,54972,5
29696,54968,5
29702,54979,5
29704,54968,4
29699,54967,5
29695,54967,6
29699,54965,4
29700,54968,5
29701,54979,4
29702,54980,5
29699,54975,5
29701,54975,5
29704,54983,5
29706,54980,4
29704,54985,5
29699,54985,5
29710,54990,5
29711,54986,5
29707,54992,4
29705,54986,5
29709,54981,5
29703,54992,5
29699,54982,5
29704,54985,4
29701,54983,5
29704,54981,5
29715,54980,5
29708,54988,4
29707,54990,5
29712,54987,5
29706,54990,6
29710,54989,4
29703,54986,4
29713,54988,5
29707,54988,5
29704,54987,5
29712,54982,5
29703,54979,4
29706,54982,5
29702,54987,5
29669,54969,5
29699,54973,5
29705,54975,4
29700,54970,5
29651,54977,5
29700,54980,5
29695,54973,5
29706,54981,4
29671,54967,5
29699,54975,5
29699,54966,5
29705,54966,5
29727,54978,4
29690,54967,5
29703,54971,5
29703,54976,5
29756,54977,4
29703,54979,5
29702,54976,5
29704,54981,5
29737,54978,5
29695,54981,4
29704,54976,5
29705,54976,5
29712,54969,5
29690,54965,5
29691,54969,4
29705,54973,5
29701,54959,5
29691,54969,5
29695,54961,5
29695,54973,4
29697,54936,5
29701,54968,5
29701,54970,5
29697,54967,5
29701,54929,5
29701,54967,4
29704,54975,5
29702,54971,5
29694,54974,4
29699,54981,4
29699,54979,5
29708,54975,5
29705,55014,5
29704,54977,4
29701,54975,5
29694,54967,5
29701,55031,5
29695,54974,5
29694,54972,4
29701,54969,5
29702,54996,5
29699,54972,5
29705,54980,5
29705,54966,4
29708,54982,5
29704,54968,5
29698,54988,5
29704,54983,5
29702,54982,4
29701,54980,7
29698,54984,3
29708,54981,5
29706,54978,5
29703,54982,4
29699,54983,5
29699,54985,5
29705,54987,5
29709,54976,4
29709,54976,4
29699,54981,5
29708,54974,5
29702,54982,5
29710,54976,4
29710,54983,5
29704,54983,5
29703,54979,5
29704,54980,5
29709,54982,4
29708,54971,5
29705,54970,5
29698,54974,5
29709,54976,5
29695,54977,4
29704,54976,5
29699,54973,6
29707,54970,4
29697,54977,5
29697,54978,4
29697,54979,5
29699,54977,5
29702,54981,5
29698,54976,5
29702,54980,4
29704,54982,5
29701,54972,5
29705,54982,5
29702,54988,4
29707,54974,4
29705,54980,5
29704,54983,5
29706,54988,5
29703,54985,4
29703,54983,5
29703,54984,5
29705,54985,5
29702,54988,5
29704,54982,4
29708,54983,5
29704,54988,5
29707,54988,5
29700,54981,5
29700,54974,4
29701,54988,5
29697,54983,5
29704,54976,5
29700,54974,5
29703,54980,4
29697,54985,5
29704,54976,5
29703,54987,5
29709,54984,5
29708,54986,4
29705,54991,5
29711,54991,5
29719,54985,5
29715,54991,4
29715,54992,5
29712,54995,5
29711,54986,5
29712,54993,5
29712,54989,5
29714,55001,4
29716,55002,5
29719,54999,5
29709,55003,5
29686,54997,4
29705,55003,5
29715,54990,5
29703,54993,5
29664,54992,5
29701,54991,4
29713,54987,5
29711,54980,5
29669,54995,5
29705,54997,5
29714,54996,4
29711,55000,5
29730,54988,5
29708,54994,5
29716,54995,4
29716,54994,4
29756,54995,6
29704,54986,4
29699,54990,5
29716,54986,4
29756,54991,7
29703,54990,3
29707,54986,5
29710,54983,5
29726,54983,4
29702,54992,5
29711,54975,5
29707,54990,5
29714,54985,5
29703,54988,4
29704,54982,5
29708,54977,5
29712,54952,5
29710,54982,5
29700,54979,4
29702,54989,5
29700,54934,5
29701,54980,5
29712,54977,5
29704,54984,4
29705,54971,5
29707,54980,6
29706,54984,4
29711,54975,4
29703,55013,4
29708,54982,5
29704,54979,5
29709,54974,5
29702,55038,4
29698,54983,5
29700,54982,5
29702,54981,5
29706,55016,5
29708,54974,4
29701,54985,5
29705,54979,5
29699,54985,5
29699,54975,5
29694,54976,4
29699,54971,5
29697,54978,5
29703,54978,5
29703,54977,5
29705,54983,4
29700,54975,5
29701,54975,5
29698,54971,6
29698,54969,4
29702,54971,4
29697,54966,5
29698,54978,5
29698,54974,5
29702,54972,4
29694,54964,4
29692,54975,5
29690,54965,5
29709,54967,5
29699,54966,4
29699,54965,5
29699,54968,5
29699,54962,5
29692,54957,5
29698,54964,4
29688,54962,5
29694,54952,5
29694,54950,5
29698,54958,5
29696,54961,5
29683,54950,4
29691,54953,5
29690,54952,5
29685,54943,6
29685,54941,3
29696,54943,5
29690,54932,5
29688,54947,5
29683,54933,5
29686,54938,4
29689,54931,5
29679,54926,5
29669,54922,5
29678,54924,4
29675,54923,4
29674,54918,5
29671,54907,5
29667,54905,5
29662,54909,4
29674,54908,5
29666,54901,5
29667,54907,5
29655,54907,5
29668,54895,4
29656,54896,6
29668,54894,4
29662,54895,7
29662,54892,3
29651,54896,4
29653,54888,5
29677,54884,5
29659,54890,5
29648,54884,5
29658,54886,4
29657,54888,5
29656,54891,5
29650,54880,5
29648,54879,5
29653,54870,4
29647,54870,5
29653,54873,5
29646,54875,5
29639,54869,4
29643,54864,5
29645,54872,5
29636,54865,5
29639,54857,5
29645,54855,4
29640,54859,5
29629,54858,6
29643,54860,4
29643,54855,5
29643,54862,4
29602,54866,5
29642,54865,5
29629,54849,5
29635,54848,5
29587,54854,4
29646,54846,5
29635,54848,5
29623,54840,5
29632,54832,5
29621,54830,4
29624,54828,5
29625,54824,5
29663,54830,5
29623,54824,4
29622,54824,4
29621,54828,5
29668,54830,5
29627,54830,5
29620,54828,4
29620,54817,5
29634,54810,5
29613,54824,6
29623,54808,4
29620,54820,4
29625,54813,5
29624,54808,5
29620,54815,5
29617,54801,5
29613,54764,4
29612,54795,5
29612,54794,5
29611,54803,5
29602,54745,5
29604,54799,5
29601,54798,4
29610,54794,5
29599,54756,5
29604,54788,5
29604,54784,4
29602,54793,5
29609,54823,5
29613,54786,5
29609,54790,5
29609,54800,4
29601,54849,5
29609,54792,5
29612,54790,6
29605,54796,3
29614,54827,5
29611,54801,5
29606,54804,5
29613,54793,5
29605,54803,4
29602,54795,5
29607,54794,5
29607,54796,5
29605,54801,5
29599,54792,4
29609,54784,5
29606,54792,5
29605,54797,5
29604,54793,5
29618,54794,4
29615,54797,5
29603,54800,5
29607,54799,5
29607,54795,5
29599,54782,5
29596,54791,4
29609,54784,5
29598,54782,5
29599,54789,4
29606,54790,4
29597,54788,5
29610,54788,5
29607,54775,5
29606,54781,4
29600,54779,5
29606,54778,5
29593,54785,5
29599,54783,5
29607,54776,4
29602,54778,5
29593,54787,5
29596,54783,5
29600,54783,5
29592,54779,4
29599,54779,5
29603,54784,5
29601,54777,5
29593,54774,5
29598,54776,4
29606,54764,6
29597,54784,4
29602,54784,5
29603,54772,4
29599,54781,4
29597,54775,5
29588,54782,5
29596,54773,5
29590,54773,4
29593,54774,5
29596,54766,5
29595,54774,5
29595,54763,5
29588,54767,4
29591,54767,5
29598,54770,5
29591,54771,5
29598,54772,5
29594,54779,4
29587,54763,5
29583,54768,5
29593,54760,5
29589,54761,5
29587,54762,4
29591,54756,5
29583,54756,6
29579,54755,4
29587,54750,5
29580,54755,4
29584,54759,5
29586,54752,5
29587,54750,5
29589,54753,4
29588,54748,4
29583,54738,5
29573,54740,5
29570,54735,5
29581,54735,4
29580,54743,5
29573,54736,5
29571,54734,5
29552,54729,5
29563,54731,5
29563,54728,4
29571,54723,5
29522,54716,5
29566,54726,5
29568,54719,4
29559,54710,5
29509,54711,5
29562,54718,5
29565,54722,5
29562,54709,4
29568,54713,5
29563,54716,5
29569,54716,5
29560,54719,5
29604,54724,4
29566,54722,5
29563,54716,5
29559,54715,5
29611,54714,4
29555,54716,4
29549,54706,5
29569,54709,5
29580,54713,5
29557,54706,4
29561,54698,5
29557,54700,5
29562,54699,5
29555,54709,5
29558,54709,5
29560,54706,4
29562,54672,5
29552,54706,5
29559,54710,5
29557,54709,4
29553,54664,5
29566,54709,5
29553,54705,5
29562,54705,5
29555,54681,4
29551,54705,5
29557,54697,5
29558,54703,5
29561,54735,5
29556,54694,4
29559,54708,5
29559,54709,5
29556,54761,5
29551,54702,4
29558,54701,5
29549,54702,5
29561,54736,5
29556,54695,5
29557,54712,4
29557,54705,6
29557,54703,4
29557,54701,5
29556,54699,5
29557,54702,4
29550,54694,5
29552,54700,5
29550,54687,5
29556,54691,5
29544,54684,4
29554,54690,5
29553,54693,5
29550,54689,5
29548,54686,5
29557,54690,4
29544,54683,5
29546,54689,5
29548,54690,5
29540,54692,4
29552,54689,4
29547,54688,5
29551,54695,5
29553,54702,5
29548,54696,4
29553,54691,5
29555,54702,6
29556,54698,4
29553,54693,5
29556,54694,4
29548,54704,5
29550,54689,5
29543,54701,5
29554,54691,5
29548,54696,4
29549,54690,5
29553,54701,5
29557,54700,5
29546,54701,5
29554,54702,4
29560,54700,5
29551,54705,5
29561,54707,5
29560,54698,5
29565,54706,4
29566,54710,5
29558,54715,5
29565,54711,6
29563,54721,3
29556,54719,4
29568,54728,5
29567,54721,5
29564,54727,5
29566,54725,4
29565,54730,5
29565,54721,5
29567,54726,5
29563,54735,5
29562,54725,4
29565,54722,5
29559,54724,5
29568,54725,5
29567,54723,5
29565,54721,4
29565,54728,5
29566,54732,5
29570,54726,5
29565,54729,5
29565,54722,5
29565,54716,4
29564,54711,5
29567,54722,5
29566,54722,6
29565,54724,3
29566,54730,5
29564,54728,5
29564,54731,5
29569,54723,4
29573,54720,5
29559,54730,5
29566,54738,5
29569,54727,5
29568,54739,4
29558,54735,5
29564,54736,5
29582,54737,5
29570,54730,5
29527,54741,4
29579,54748,5
29582,54739,5
29577,54750,5
29529,54756,5
29584,54752,4
29580,54762,6
29582,54763,4
29576,54764,5
29588,54766,5
29594,54776,6
29587,54771,3
29632,54783,5
29600,54792,5
29609,54802,4
29611,54807,4
29661,54811,5
29620,54821,5
29620,54813,5
29622,54827,4
29651,54834,5
29626,54838,5
29627,54840,5
29628,54845,5
29639,54854,4
29635,54849,5
29639,54860,5
29632,54862,5
29635,54824,5
29635,54861,4
29646,54883,5
29649,54892,6
29655,54849,4
29662,54893,5
29663,54905,4
29657,54909,5
29667,54874,5
29668,54923,5
29676,54924,5
29676,54927,4
29675,54961,5
29671,54936,5
29676,54938,5
29684,54936,4
29682,54998,4
29685,54947,5
29679,54952,5
29691,54949,5
29687,54994,4
29693,54964,5
29688,54949,5
29686,54960,5
29694,54974,5
29693,54972,4
29693,54967,5
29695,54970,5
29694,54973,6
29698,54977,4
29700,54980,4
29703,54981,5
29699,54991,5
29704,54987,5
29709,55001,5
29705,54993,4
29712,55001,5
29714,54996,5
29710,55003,5
29709,54998,5
29708,54994,4
29712,54996,5
29707,55004,5
29714,55002,5
29706,55004,4
29719,55003,4
29714,55005,5
29711,55018,5
29718,55017,5
29718,55009,5
29717,55005,4
29719,55016,5
29717,55017,5
29716,55015,6
29723,55012,3
29723,55025,5
29724,55013,5
29717,55017,5
29719,55014,5
29728,55026,4
29731,55025,5
29728,55024,5
29715,55018,5
29726,55026,5
29725,55013,4
29716,55014,5
29715,55018,5
29720,55017,5
29724,55024,4
29716,55015,4
29722,55017,5
29721,55012,5
29712,55011,5
29715,55007,4
29714,55006,6
29713,55008,4
29716,55012,5
29711,55016,5
29718,55007,4
29714,55013,5
29716,55000,5
29710,55011,5
29710,55006,5
29713,55011,4
29722,55018,5
29719,55013,5
29727,55016,5
29725,55019,5
29715,55021,4
29715,55012,5
29724,55018,5
29723,55015,5
29723,55013,5
29720,55021,4
29717,55021,5
29716,55022,5
29726,55019,5
29724,55015,4
29726,55025,4
29716,55023,6
29717,55025,4
29715,55021,5
29721,55029,4
29727,55021,5
29725,55027,5
29704,55022,5
29717,55038,5
29727,55036,4
29730,55038,5
29694,55044,5
29736,55042,5
29726,55043,5
29740,55046,4
29684,55043,5
29738,55045,5
29739,55045,5
29734,55037,5
29720,55043,4
29736,55051,5
29736,55050,5
29737,55044,5
29769,55042,5
29735,55052,4
29742,55053,5
29736,55051,6
29793,55054,4
29735,55056,4
29738,55058,4
29737,55053,5
29783,55055,5
29743,55063,5
29749,55072,4
29745,55071,5
29760,55071,5
29750,55078,5
29753,55079,5
29755,55075,4
29748,55044,5
29748,55072,5
29744,55075,5
29752,55076,5
29753,55024,4
29753,55072,5
29753,55077,5
29746,55075,5
29756,55020,5
29750,55078,5
29749,55071,4
29745,55067,5
29759,55088,6
29760,55069,4
29751,55074,4
29752,55074,5
29745,55121,5
29751,55065,5
29756,55079,4
29759,55078,4
29756,55126,5
29750,55073,5
29747,55072,5
29749,55071,4
29748,55090,5
29758,55084,5
29755,55076,5
29749,55082,5
29755,55085,4
29757,55074,5
29756,55081,5
29754,55082,5
29750,55082,5
29749,55089,5
29749,55085,3
29760,55084,5
29754,55082,5
29754,55074,5
29757,55086,4
29754,55080,5
29757,55084,5
29753,55082,5
29761,55085,5
29758,55085,4
29764,55083,5
29762,55079,5
29750,55079,5
29758,55082,4
29758,55075,4
29745,55068,5
29751,55072,5
29748,55054,5
29751,55066,4
29745,55069,5
29744,55060,5
29749,55060,5
29753,55064,5
29753,55071,4
29750,55071,6
29745,55064,4
29750,55061,5
29744,55058,5
29748,55056,4
29746,55053,5
29746,55062,5
29755,55052,5
29747,55061,5
29740,55064,4
29742,55059,5
29750,55055,5
29741,55061,5
29737,55053,4
29739,55049,4
29745,55054,5
29741,55045,5
29738,55053,5
29733,55045,4
29735,55051,5
29724,55049,5
29729,55041,5
29737,55042,5
29734,55039,4
29733,55039,5
29738,55046,6
29732,55047,4
29731,55037,5
29741,55038,4
29730,55034,5
29732,55041,5
29739,55037,5
29735,55041,5
29733,55038,4
29729,55034,5
29736,55032,5
29730,55037,5
29732,55039,5
29735,55040,4
29725,55034,5
29736,55034,5
29732,55037,5
29728,55031,4
29722,55025,4
29731,55027,5
29737,55030,5
29736,55034,5
29728,55028,4
29726,55036,5
29725,55023,5
29725,55027,5
29691,55025,5
29724,55020,4
29732,55025,5
29719,55031,5
29675,55030,5
29731,55025,5
29723,55026,4
29737,55035,5
29699,55034,5
29729,55027,5
29733,55026,5
29735,55029,4
29761,55030,5
29731,55036,5
29733,55023,5
29725,55019,5
29781,55023,4
29724,55018,5
29718,55028,5
29725,55014,5
29766,55021,5
29728,55026,4
29724,55024,5
29726,55016,5
29734,55023,5
29720,55013,4
29719,55016,5
29724,55019,5
29722,54989,5
29719,55014,5
29721,55008,4
29720,55005,5
29712,54951,5
29727,55003,5
29710,55006,5
29726,55002,4
29720,54957,5
29720,55009,5
29715,55001,5
29714,54998,5
29714,55009,4
29716,55001,6
29710,55004,4
29710,55001,5
29714,55035,5
29713,54987,6
29721,54984,3
29711,54988,5
29705,55030,5
29700,54979,4
29698,54974,4
29699,54973,5
29688,54982,5
29684,54957,5
29691,54956,4
29693,54952,5
29688,54962,5
29684,54952,5
29692,54960,5
29691,54955,4
29690,54949,5
29692,54945,5
29687,54950,5
29690,54947,5
29685,54939,4
29685,54937,5
29675,54933,6
29678,54927,4
29674,54927,5
29672,54920,4
29659,54911,5
29673,54911,5
29662,54904,5
29659,54894,5
29658,54895,4
29655,54894,5
29665,54893,5
29660,54890,5
29648,54896,4
29656,54885,4
29660,54896,5
29660,54886,5
29663,54885,5
29659,54882,4
29656,54886,5
29651,54891,5
29659,54880,5
29655,54886,5
29651,54883,4
29646,54883,5
29650,54870,5
29650,54872,6
29643,54860,4
29646,54871,4
29644,54868,5
29646,54867,5
29651,54861,5
29640,54859,5
29642,54852,4
29647,54850,5
29630,54857,5
29633,54852,5
29634,54856,5
29636,54857,4
29637,54851,5
29627,54847,5
29630,54836,5
29629,54831,4
29626,54833,5
29625,54834,5
29620,54820,5
29621,54825,5
29626,54826,5
29626,54821,4
29622,54820,5
29625,54825,5
29624,54814,6
29626,54822,3
29614,54809,5
29622,54809,5
29614,54800,5
29613,54800,5
29609,54800,4
29610,54795,5
29604,54796,5
29615,54788,5
29607,54789,5
29612,54788,4
29600,54786,5
29605,54790,5
29607,54777,5
29598,54782,5
29605,54790,4
29600,54776,5
29593,54782,5
29603,54776,5
29598,54786,4
29575,54783,6
29601,54777,4
29599,54775,5
29597,54781,5
29556,54772,6
29594,54776,3
29598,54779,5
29598,54780,5
29549,54786,5
29598,54779,4
29603,54789,5
29610,54803,5
29627,54811,5
29615,54828,5
29627,54838,4
29634,54840,5
29678,54858,5
29643,54861,5
29640,54861,5
29643,54858,4
29698,54877,5
29654,54883,5
29650,54887,5
29653,54884,4
29675,54889,4
29662,54892,6
29659,54883,4
29660,54888,5
29659,54881,4
29667,54896,5
29659,54903,5
29659,54900,5
29666,54868,5
29665,54909,4
29666,54917,4
29674,54914,5
29675,54880,5
29688,54942,5
29687,54942,4
29694,54962,5
29697,54963,5
29707,54988,5
29718,54995,5
29716,55006,4
29734,55063,5
29741,55038,5
29747,55044,5
29749,55059,5
29753,55127,4
29763,55075,5
29765,55086,6
29771,55100,4
29771,55142,4
29784,55115,4
29785,55135,5
29795,55133,5
29792,55152,5
29795,55141,4
29786,55143,5
29791,55147,5
29801,55160,5
29794,55154,5
29791,55144,4
29804,55152,5
29796,55135,5
29797,55135,5
29793,55137,5
29795,55132,4
29789,55129,5
29781,55119,5
29784,55111,5
29775,55108,5
29771,55104,4
29778,55104,5
29770,55097,5
29773,55088,6
29763,55081,4
29759,55087,4
29757,55085,5
29754,55078,5
29753,55061,5
29760,55060,4
29753,55056,4
29748,55049,5
29742,55041,5
29745,55039,5
29733,55038,4
29743,55022,5
29733,55010,5
29725,55005,5
29720,55001,5
29725,54999,4
29721,54997,5
29720,54994,5
29715,54984,5
29707,54981,5
29705,54972,5
29704,54966,4
29706,54966,5
29704,54978,5
29706,54969,5
29695,54961,4
29695,54954,5
29695,54952,5
29687,54946,5
29692,54939,5
29697,54941,4
29691,54944,5
29691,54941,5
29691,54945,5
29697,54944,4
29694,54943,5
29692,54945,5
29691,54946,5
29692,54952,5
29684,54949,4
29695,54952,5
29700,54951,5
29694,54945,5
29685,54950,5
29693,54942,4
29694,54943,6
29695,54938,4
29695,54943,7
29689,54950,3
29693,54938,4
29694,54938,5
29704,54935,5
29681,54931,5
29688,54941,5
29688,54935,4
29685,54934,5
29689,54934,5
29687,54937,5
29688,54938,4
29690,54932,4
29680,54934,5
29664,54943,5
29683,54942,5
29694,54938,4
29683,54945,5
29648,54942,5
29694,54947,5
29689,54945,5
29685,54939,4
29638,54953,5
29690,54941,6
29697,54948,4
29698,54957,5
29699,54944,4
29688,54943,5
29691,54932,5
29689,54932,5
29723,54937,5
29675,54930,4
29678,54914,5
29670,54923,5
29724,54918,5
29677,54916,5
29672,54915,4
29670,54919,5
29697,54920,5
29680,54915,5
29670,54915,4
29677,54915,4
29674,54906,5
29672,54913,5
29664,54908,5
29667,54911,4
29664,54875,5
29672,54912,5
29672,54904,5
29678,54915,5
29665,54862,4
29662,54911,5
29667,54917,5
29662,54896,5
29667,54875,5
29659,54903,4
29660,54897,5
29668,54895,5
29663,54933,5
29666,54893,5
29664,54898,4
29657,54895,5
29664,54952,5
29663,54889,5
29655,54894,5
29648,54891,4
29654,54916,5
29657,54887,5
29654,54888,5
29650,54878,5
29652,54895,4
29654,54882,5
29650,54885,5
29655,54888,5
29657,54884,4
29660,54883,5
29653,54881,5
29654,54882,5
29656,54880,5
29656,54891,4
29650,54887,5
29657,54891,5
29658,54900,5
29667,54887,5
29658,54895,4
29656,54894,5
29651,54889,5
29659,54890,5
29649,54881,5
29661,54887,4
29661,54893,5
29660,54896,5
29666,54882,5
29656,54894,5
29662,54889,5
29654,54889,4
29650,54879,5
29659,54891,5
29656,54882,4
29654,54889,4
29655,54883,5
29652,54887,5
29657,54884,5
29656,54890,4
29654,54880,5
29657,54879,5
29667,54885,5
29655,54876,5
29656,54879,4
29654,54885,5
29652,54881,5
29647,54887,5
29649,54883,5
29650,54886,4
29648,54883,5
29656,54878,5
29651,54875,5
29648,54878,5
29649,54868,4
29648,54874,6
29649,54866,3
29651,54875,5
29644,54877,5
29651,54876,4
29644,54882,5
29644,54879,5
29649,54878,5
29651,54867,4
29652,54880,5
29649,54879,5
29655,54878,5
29652,54889,5
29655,54889,4
29649,54881,5
29648,54885,5
29653,54887,5
29649,54888,5
29652,54889,4
29646,54894,5
29659,54882,5
29653,54884,6
29658,54887,4
29654,54886,4
29659,54896,5
29652,54892,5
29654,54894,5
29655,54890,5
29660,54893,4
29659,54899,5
29664,54895,5
29653,54896,5
29635,54897,4
29654,54892,4
29654,54886,5
29657,54893,5
29620,54900,5
29656,54903,4
29658,54898,5
29664,54906,5
29616,54896,5
29659,54907,5
29666,54906,5
29662,54897,4
29663,54906,5
29661,54909,5
29665,54903,6
29669,54906,3
29712,54906,5
29666,54898,5
29666,54912,5
29661,54905,5
29716,54901,4
29662,54909,5
29668,54910,5
29668,54906,5
29693,54902,5
29665,54911,4
29668,54914,5
29667,54919,5
29675,54916,5
29672,54921,4
29669,54923,4
29676,54920,5
29670,54883,5
29663,54916,5
29675,54916,4
29676,54917,6
29672,54874,4
29670,54917,5
29675,54924,5
29684,54927,6
29675,54902,3
29675,54933,5
29673,54924,5
29673,54929,5
29672,54946,4
29671,54929,5
29665,54927,5
29675,54918,5
29677,54979,5
29676,54925,4
29679,54930,5
29686,54947,5
29678,54976,5
29681,54933,5
29683,54935,4
29682,54934,5
29683,54952,5
29680,54940,5
29678,54917,4
29682,54929,4
29668,54922,6
29679,54928,4
29668,54924,5
29674,54915,4
29677,54922,5
29674,54928,5
29672,54927,5
29677,54933,5
29680,54923,4
29677,54929,5
29671,54926,5
29677,54922,5
29675,54933,5
29676,54927,4
29670,54926,5
29677,54922,5
29670,54918,5
29677,54924,5
29673,54927,4
29672,54921,5
29673,54926,5
29684,54925,5
29675,54921,5
29673,54926,4
29674,54920,5
29669,54916,6
29684,54922,4
29674,54921,4
29674,54930,4
29672,54926,5
29677,54930,5
29682,54931,5
29679,54932,4
29671,54935,5
29670,54925,5
29684,54934,5
29669,54928,5
29671,54937,4
29677,54931,5
29676,54936,5
29668,54942,5
29679,54942,5
29681,54928,4
29676,54933,5
29678,54940,5
29680,54940,5
29684,54934,5
29684,54938,4
29677,54940,5
29682,54944,5
29688,54947,6
29686,54951,4
29679,54943,4
29683,54952,5
29692,54957,5
29681,54946,5
29703,54956,4
29688,54961,4
29694,54962,5
29690,54954,5
29688,54953,5
29692,54960,4
29692,54944,5
29691,54958,5
29690,54962,5
29687,54959,5
29693,54969,4
29693,54965,5
29694,54955,5
29691,54963,5
29691,54956,5
29688,54961,5
29688,54965,4
29696,54954,5
29691,54965,5
29687,54960,6
29692,54959,3
29687,54962,5
29693,54958,5
29694,54969,5
29691,54965,5
29664,54962,4
29693,54961,5
29693,54963,5
29695,54958,5
29640,54962,4
29692,54959,5
29698,54960,5
29695,54960,5
29688,54961,5
29704,54969,4
29696,54963,5
29702,54964,5
29724,54966,5
29692,54970,5
29705,54959,4
29697,54961,6
29744,54962,4
29693,54966,5
29698,54969,5
29693,54967,4
29733,54967,5
29697,54968,5
29699,54962,5
29702,54968,5
29708,54969,4
29701,54956,5
29697,54965,5
29687,54966,5
29696,54939,5
29700,54970,4
29701,54970,5
29693,54964,5
29700,54915,5
29697,54956,5
29700,54970,4
29688,54961,5
29699,54917,5
29701,54967,5
29697,54965,4
29693,54960,5
29694,54969,6
29702,54960,4
29700,54968,5
29692,54961,4
29694,55016,5
29698,54958,5
29691,54963,5
29698,54970,5
29697,55016,4
29703,54969,5
29700,54957,5
29694,54954,5
29695,54980,5
29708,54957,4
29695,54960,5
29695,54958,5
29696,54958,5
29688,54959,4
29689,54964,4
29693,54960,5
29691,54968,5
29694,54957,5
29688,54959,4
29696,54956,5
29696,54962,5
29699,54961,6
29700,54956,4
29695,54969,4
29699,54959,5
29692,54962,5
29697,54960,5
29696,54960,5
29700,54966,4
29694,54962,5
29692,54976,5
29695,54967,5
29690,54963,5
29688,54959,4
29696,54954,5
29693,54960,5
29697,54964,5
29696,54952,5
29696,54958,4
29691,54959,5
29688,54948,5
29693,54960,5
29694,54958,5
29693,54955,4
29693,54955,5
29689,54958,5
29695,54960,5
29692,54954,4
29694,54962,5
29697,54961,5
29686,54964,5
29697,54957,5
29692,54956,4
29698,54961,5
29693,54964,5
29698,54962,5
29688,54958,5
29697,54954,4
29691,54959,5
29691,54952,5
29692,54953,5
29697,54956,5
29692,54959,4
29691,54955,5
29701,54952,5
29695,54956,5
29698,54956,5
29697,54963,5
29695,54959,4
29697,54962,5
29698,54960,5
29698,54969,4
29696,54959,4
29700,54976,5
29697,54961,5
29693,54974,5
29696,54966,4
29702,54964,5
29693,54963,5
29698,54964,5
29695,54962,5
29695,54960,4
29699,54955,5
29693,54959,5
29691,54949,5
29690,54953,5
29692,54952,4
29691,54956,5
29689,54952,5
29690,54965,5
29691,54956,5
29692,54951,4
29694,54958,6
29664,54956,4
29689,54951,5
29687,54954,5
29691,54958,4
29644,54950,5
29685,54948,5
29695,54959,5
29688,54953,4
29646,54952,4
29683,54953,5
29690,54950,5
29683,54959,5
29705,54949,4
29692,54948,5
29688,54955,5
29694,54946,5
29740,54943,5
29682,54954,4
29691,54966,5
29694,54961,5
29740,54955,5
29697,54955,5
29695,54953,4
29684,54956,5
29710,54952,5
29691,54956,5
29684,54951,5
29689,54949,4
29698,54935,5
29685,54945,5
29692,54953,5
29692,54943,5
29684,54907,4
29702,54956,5
29685,54947,5
29689,54947,5
29694,54907,4
29690,54952,4
29697,54950,4
29682,54955,5
29700,54938,5
29694,54956,5
29685,54957,4
29683,54956,5
29695,54992,5
29686,54953,6
29687,54957,3
29698,54950,5
29684,55011,5
29683,54946,5
29682,54946,5
29683,54941,4
29690,54983,5
29689,54948,5
29694,54949,5
29690,54955,5
29685,54963,4
29694,54950,5
29690,54956,5
29688,54946,5
29686,54947,5
29688,54949,4
29680,54942,5
29690,54944,5
29685,54952,5
29689,54952,4
29686,54946,5
29687,54942,4
29682,54944,5
29683,54949,5
29690,54944,6
29688,54948,3
29684,54938,5
29691,54951,5
29691,54938,5
29676,54944,4
29689,54946,5
29677,54941,5
29688,54942,5
29690,54940,5
29685,54947,4
29685,54941,5
29686,54945,5
29678,54946,5
29691,54944,5
29686,54944,4
29684,54943,5
29691,54941,5
29687,54949,5
29681,54944,5
29681,54944,4
29688,54938,6
29680,54940,4
29672,54933,5
29678,54922,4
29672,54938,6
29681,54925,3
29679,54938,5
29678,54935,5
29673,54938,4
29681,54938,5
29680,54935,5
29672,54939,5
29687,54939,5
29679,54933,4
29682,54936,5
29689,54934,5
29682,54938,5
29685,54934,5
29691,54943,4
29681,54936,5
29684,54942,5
29682,54936,5
29682,54927,5
29687,54941,4
29683,54938,5
29683,54945,6
29677,54945,4
29675,54936,5
29677,54931,4
29688,54930,5
29676,54937,5
29683,54932,5
29678,54928,4
29681,54926,5
29670,54927,5
29670,54917,5
29671,54920,5
29676,54919,4
29678,54919,5
29675,54918,5
29676,54921,5
29674,54909,5
29675,54916,4
29670,54921,5
29674,54921,5
29669,54924,5
29658,54912,5
29671,54923,4
29673,54916,5
29682,54907,5
29633,54917,6
29674,54927,4
29682,54925,4
29675,54922,5
29634,54924,5
29673,54921,5
29674,54919,5
29676,54924,4
29666,54918,5
29671,54925,5
29673,54919,5
29673,54910,4
29710,54921,5
29673,54910,5
29677,54912,5
29668,54918,5
29723,54906,4
29672,54905,5
29674,54916,5
29670,54911,5
29690,54907,5
29669,54907,5
29667,54912,4
29671,54919,5
29672,54911,5
29676,54916,6
29671,54913,3
29666,54917,5
29673,54895,5
29672,54918,5
29669,54912,5
29669,54907,4
29676,54864,5
29675,54910,5
29671,54908,5
29674,54908,5
29669,54856,4
29663,54894,5
29662,54904,5
29659,54901,5
29671,54911,4
29666,54901,5
29664,54898,5
29665,54895,5
29666,54947,5
29658,54895,4
29660,54892,6
29653,54888,4
29652,54931,5
29648,54876,5
29650,54881,4
29649,54878,5
29653,54882,5
29647,54873,5
29663,54879,5
29650,54865,4
29652,54869,5
29650,54861,5
29648,54856,5
29646,54863,5
29637,54862,4
29643,54852,5
29643,54852,5
29635,54855,5
29641,54852,5
29632,54837,4
29638,54835,5
29630,54832,5
29629,54834,5
29627,54829,4
29616,54820,5
29615,54810,6
29609,54789,4
29594,54773,5
29576,54740,4
29568,54709,5
29557,54682,5
29541,54666,5
29526,54632,5
29515,54611,4
29495,54567,5
29482,54540,5
29466,54502,5
29438,54460,5
29412,54431,4
29406,54397,5
29393,54376,5
29385,54363,5
29373,54352,5
29371,54337,4
29373,54332,5
29370,54347,5
29374,54345,5
29378,54357,4
29381,54359,4
29392,54381,5
29393,54387,6
29399,54401,4
29406,54421,4
29421,54439,5
29432,54458,5
29442,54466,5
29437,54476,5
29453,54490,4
29458,54493,5
29460,54503,5
29467,54515,5
29467,54529,5
29474,54532,4
29473,54538,5
29472,54544,5
29477,54541,5
29475,54551,5
29485,54547,4
29490,54562,5
29490,54561,5
29497,54566,5
29499,54580,5
29503,54584,4
29499,54594,5
29507,54595,5
29507,54602,6
29512,54608,3
29514,54617,4
29523,54617,5
29520,54628,5
29526,54627,5
29522,54632,4
29528,54636,5
29528,54642,5
29526,54646,5
29537,54649,5
29528,54657,4
29540,54648,5
29545,54658,5
29538,54655,5
29543,54658,5
29505,54658,4
29542,54650,5
29539,54650,5
29536,54654,5
29503,54663,5
29545,54661,5
29535,54654,4
29547,54673,5
29513,54673,5
29547,54662,5
29549,54680,4
29554,54676,5
29563,54680,5
29553,54676,5
29552,54679,4
29551,54674,4
29599,54684,5
29550,54671,5
29554,54691,5
29553,54680,4
29584,54677,5
29543,54670,5
29555,54676,5
29549,54683,5
29569,54670,4
29551,54678,5
29543,54666,5
29545,54667,5
29543,54652,5
29546,54674,4
29551,54674,6
29551,54673,4
29554,54642,5
29551,54675,5
29549,54683,4
29557,54672,5
29544,54632,5
29559,54680,5
29560,54677,5
29556,54677,4
29553,54686,5
29557,54691,5
29560,54683,5
29546,54681,4
29554,54727,4
29551,54680,5
29552,54676,5
29553,54679,5
29552,54738,4
29555,54677,5
29555,54681,5
29559,54680,5
29552,54712,5
29563,54687,4
29553,54686,5
29561,54682,6
29550,54689,4
29551,54679,5
29556,54680,4
29558,54688,5
29554,54685,5
29557,54677,5
29545,54679,5
29553,54688,4
29551,54679,5
29552,54684,5
29551,54683,5
29549,54676,5
29556,54678,4
29554,54689,5
29554,54686,5
29553,54681,5
29554,54677,4
29551,54687,4
29561,54688,5
29556,54684,5
29551,54683,5
29567,54691,4
29552,54687,5
29562,54690,5
29559,54693,5
29559,54690,5
29556,54686,4
29558,54677,5
29556,54688,5
29552,54686,5
29555,54684,5
29551,54671,4
29553,54665,5
29553,54671,5
29541,54667,5
29538,54668,5
29543,54669,4
29552,54670,5
29546,54675,5
29550,54672,5
29549,54674,5
29553,54674,4
29545,54667,5
29553,54681,5
29551,54678,5
29554,54669,5
29553,54678,4
29544,54666,5
29544,54669,5
29554,54663,5
29548,54675,4
29544,54670,5
29545,54673,5
29538,54676,5
29546,54662,5
29537,54679,4
29549,54672,5
29544,54661,5
29545,54665,5
29541,54672,5
29548,54679,4
29550,54670,5
29553,54670,5
29549,54669,5
29556,54692,5
29550,54683,4
29553,54680,5
29558,54685,4
29560,54682,5
29553,54687,5
29550,54691,6
29557,54679,3
29556,54690,7
29566,54688,3
29558,54691,4
29555,54690,4
29575,54699,5
29553,54694,5
29559,54678,5
29555,54685,4
29552,54689,5
29540,54690,5
29558,54693,5
29548,54693,5
29561,54691,4
29520,54689,5
29561,54683,5
29558,54689,5
29560,54692,5
29507,54690,4
29559,54695,5
29559,54692,6
29553,54691,4
29554,54690,5
29559,54698,4
29560,54698,7
29557,54691,3
29595,54690,5
29554,54692,5
29561,54698,4
29568,54703,5
29619,54705,5
29567,54712,5
29577,54710,4
29569,54710,4
29602,54711,5
29563,54709,5
29570,54719,5
29575,54730,4
29585,54724,5
29578,54735,5
29580,54723,5
29586,54734,5
29584,54700,4
29581,54738,5
29581,54741,5
29584,54740,6
29585,54694,4
29583,54752,5
29594,54746,4
29592,54747,5
29587,54701,5
29588,54745,5
29583,54752,4
29595,54755,5
29592,54781,5
29597,54761,5
29602,54773,5
29604,54767,4
29598,54821,5
29600,54782,5
29606,54780,5
29612,54793,4
29611,54841,4
29604,54797,5
29619,54800,5
29622,54801,5
29620,54822,5
29615,54804,4
29615,54806,5
29614,54808,5
29620,54819,6
29624,54822,3
29614,54818,5
29630,54812,5
29620,54824,5
29627,54821,5
29621,54812,4
29626,54827,5
29627,54826,5
29633,54831,5
29631,54848,5
29640,54850,4
29635,54848,5
29641,54849,5
29643,54853,5
29644,54849,5
29638,54854,4
29640,54856,5
29647,54854,5
29643,54857,5
29642,54863,4
29649,54862,5
29649,54862,4
29649,54867,5
29657,54865,5
29652,54866,6
29649,54875,3
29647,54881,5
29659,54868,5
29654,54879,5
29662,54883,4
29656,54880,5
29660,54882,5
29660,54888,5
29654,54876,5
29660,54882,4
29653,54875,5
29664,54895,5
29658,54888,5
29663,54889,5
29663,54891,4
29659,54893,5
29666,54889,5
29661,54893,5
29667,54890,5
29662,54893,4
29667,54899,6
29668,54899,4
29663,54899,5
29663,54900,4
29671,54891,4
29668,54895,5
29673,54893,5
29666,54907,5
29660,54901,4
29667,54897,5
29665,54902,5
29671,54894,5
29667,54889,5
29663,54900,4
29660,54900,5
29657,54890,5
29668,54897,5
29663,54894,5
29664,54897,4
29664,54895,5
29668,54893,5
29672,54898,5
29671,54894,5
29672,54902,4
29665,54903,5
29670,54903,6
29669,54902,4
29665,54899,5
29666,54899,4
29669,54897,5
29665,54897,5
29664,54904,5
29665,54905,4
29667,54905,4
29665,54896,5
29637,54898,5
29670,54904,5
29662,54903,4
29666,54898,5
29626,54896,5
29664,54897,5
29669,54903,5
29664,54893,4
29615,54894,5
29663,54894,5
29670,54898,5
29666,54895,5
29676,54891,4
29663,54894,5
29665,54900,5
29657,54896,6
29719,54897,4
29666,54888,4
29663,54901,5
29667,54887,5
29710,54899,5
29663,54900,5
29666,54894,4
29661,54898,5
29679,54890,5
29664,54885,5
29657,54888,4
29658,54876,4
29658,54873,5
29653,54879,5
29650,54880,5
29656,54883,4
29654,54843,5
29660,54879,5
29654,54889,5
29658,54886,5
29655,54831,5
29653,54881,4
29669,54887,5
29657,54887,5
29667,54877,5
29656,54893,4
29660,54887,5
29661,54892,5
29663,54928,5
29664,54888,5
29661,54893,4
29659,54890,5
29659,54941,5
29657,54896,5
29667,54887,5
29657,54881,4
29663,54916,5
29666,54878,5
29653,54888,5
29665,54886,4
29657,54895,4
29658,54898,5
29656,54886,5
29654,54888,5
29652,54885,4
29661,54877,6
29661,54884,4
29653,54877,5
29657,54886,5
29662,54892,4
29658,54882,5
29662,54889,5
29657,54889,5
29668,54890,5
29652,54888,4
29660,54885,5
29655,54884,5
29654,54891,5
29660,54877,5
29655,54880,4
29654,54895,5
29654,54892,5
29658,54881,5
29657,54885,5
29659,54886,4
29651,54871,5
29659,54881,5
29657,54874,5
29651,54876,4
29666,54873,5
29653,54875,6
29656,54876,4
29657,54873,5
29654,54861,4
29649,54857,5
29651,54855,5
29640,54851,5
29645,54841,5
29636,54833,4
29623,54818,5
29623,54804,5
29609,54801,5
29610,54772,5
29600,54775,4
29595,54760,5
29587,54744,5
29581,54746,5
29589,54737,5
29578,54724,4
29578,54718,5
29578,54721,5
29570,54712,5
29562,54722,5
29562,54720,4
29571,54720,5
29565,54714,6
29567,54714,4
29573,54720,4
29570,54718,5
29572,54712,5
29568,54717,5
29569,54720,5
29564,54708,4
29574,54711,5
29572,54707,5
29569,54705,5
29564,54703,5
29562,54689,4
29555,54696,5
29558,54685,5
29551,54684,5
29554,54681,5
29553,54679,4
29551,54679,5
29542,54675,5
29542,54666,5
29538,54656,5
29534,54642,4
29531,54635,5
29527,54631,5
29523,54618,5
29496,54606,4
29518,54601,4
29503,54590,5
29510,54584,5
29459,54586,5
29502,54586,4
29500,54588,5
29504,54577,5
29447,54578,5
29498,54571,5
29491,54575,4
29493,54575,5
29493,54575,5
29489,54575,5
29496,54573,5
29499,54578,4
29534,54562,5
29482,54560,5
29482,54560,5
29486,54541,5
29533,54548,5
29479,54532,4
29471,54539,5
29474,54531,5
29487,54540,5
29477,54528,4
29468,54529,5
29473,54532,5
29483,54530,5
29479,54530,4
29471,54531,4
29474,54549,5
29479,54508,5
29472,54554,5
29488,54551,4
29489,54554,5
29495,54514,5
29491,54567,5
29492,54585,5
29502,54591,4
29508,54570,5
29507,54600,6
29517,54622,4
29518,54631,5
29536,54664,4
29540,54659,7
29542,54681,3
29557,54685,5
29560,54751,5
29568,54715,4
29575,54728,5
29582,54748,5
29587,54788,5
29593,54765,5
29601,54779,4
29617,54797,5
29619,54822,5
29631,54826,5
29627,54840,5
29637,54845,4
29644,54851,5
29654,54863,5
29653,54870,5
29659,54872,4
29658,54883,5
29660,54890,5
29663,54895,6
29670,54903,4
29668,54904,4
29676,54917,5
29678,54907,5
29681,54916,5
29683,54916,5
29684,54926,4
29686,54934,5
29681,54930,5
29683,54937,5
29692,54940,5
29698,54948,4
29692,54951,5
29690,54947,5
29694,54948,5
29697,54951,5
29694,54951,4
29696,54951,5
29697,54955,5
29698,54956,5
29702,54950,5
29700,54957,4
29692,54963,5
29695,54954,5
29696,54952,6
29699,54944,3
29691,54949,5
29692,54942,5
29698,54947,5
29688,54949,5
29691,54948,4
29698,54946,5
29697,54941,5
29689,54949,5
29689,54938,5
29693,54939,4
29695,54944,5
29698,54942,5
29697,54943,5
29689,54952,5
29697,54964,4
29700,54962,5
29691,54954,5
29694,54957,5
29695,54958,5
29692,54960,5
29708,54965,4
29700,54952,5
29703,54959,5
29715,54962,6
29700,54960,3
29702,54958,5
29704,54952,5
29699,54966,5
29698,54947,4
29704,54954,5
29699,54957,5
29703,54952,5
29695,54958,5
29702,54962,4
29702,54965,5
29701,54965,5
29700,54957,5
29696,54960,5
29694,54952,4
29691,54956,5
29690,54947,5
29687,54952,5
29697,54955,5
29694,54945,4
29686,54954,6
29701,54953,4
29684,54947,5
29697,54954,5
29653,54950,6
29688,54947,3
29700,54945,5
29696,54955,5
29643,54950,4
29699,54954,4
29687,54951,5
29693,54947,5
29684,54951,5
29694,54943,4
29698,54944,5
29693,54945,5
29738,54943,5
29693,54949,5
29694,54951,4
29689,54952,5
29752,54956,5
29697,54954,5
29694,54947,5
29693,54954,4
29722,54944,5
29696,54942,6
29687,54952,4
29695,54942,5
29707,54937,4
29690,54931,5
29680,54920,5
29677,54917,5
29682,54879,5
29668,54908,4
29674,54891,5
29669,54900,5
29669,54855,5
29657,54893,5
29669,54898,4
29667,54898,5
29670,54847,5
29665,54899,5
29667,54903,4
29670,54904,5
29660,54910,5
29672,54892,5
29657,54893,5
29662,54892,4
29666,54935,5
29661,54887,5
29654,54888,6
29661,54885,4
29658,54930,4
29652,54878,5
29653,54870,5
29652,54875,5
29656,54888,5
29648,54862,4
29653,54856,5
29645,54860,5
29645,54855,5
29645,54855,5
29645,54846,4
29636,54835,5
29639,54830,5
29627,54830,5
29629,54825,4
29631,54823,4
29638,54813,5
29631,54820,5
29626,54825,5
29623,54824,5
29626,54817,4
29624,54825,5
29628,54821,5
29637,54824,6
29623,54817,3
29625,54822,5
29627,54823,5
29620,54822,5
29623,54821,5
29629,54829,4
29633,54819,5
29633,54824,5
29626,54831,5
29629,54820,5
29635,54830,4
29634,54829,5
29638,54835,5
29641,54837,5
29631,54834,5
29632,54842,4
29637,54838,5
29645,54840,5
29641,54841,5
29640,54854,5
29640,54843,5
29639,54858,4
29635,54843,5
29641,54851,5
29639,54846,4
29637,54842,5
29633,54846,5
29640,54844,5
29643,54846,5
29638,54841,4
29643,54851,5
29644,54847,5
29635,54863,5
29643,54845,5
29644,54860,4
29647,54850,5
29637,54843,5
29644,54849,5
29638,54845,5
29642,54838,4
29639,54842,5
29642,54849,5
29639,54851,5
29643,54859,5
29649,54850,4
29642,54855,6
29648,54844,4
29642,54855,5
29643,54850,5
29648,54856,4
29646,54855,5
29645,54853,5
29640,54860,5
29649,54859,4
29642,54865,5
29648,54863,5
29639,54861,5
29643,54857,5
29651,54868,4
29650,54863,5
29644,54859,5
29646,54867,5
29650,54867,5
29644,54860,4
29650,54871,5
29622,54864,5
29652,54874,5
29652,54879,5
29661,54876,4
29614,54885,5
29659,54882,6
29658,54873,4
29656,54887,5
29617,54890,4
29661,54882,5
29654,54891,5
29665,54891,5
29684,54884,5
29661,54887,4
29660,54873,5
29664,54889,5
29712,54883,5
29658,54878,4
29654,54884,4
29662,54895,5
29702,54892,5
29665,54887,5
29665,54887,4
29667,54896,5
29677,54891,5
29660,54895,5
29658,54893,5
29673,54895,4
29673,54883,5
29675,54907,5
29675,54905,6
29666,54902,4
29677,54867,4
29672,54913,5
29673,54912,5
29669,54909,5
29672,54860,5
29673,54911,5
29677,54904,4
29675,54909,5
29671,54897,5
29678,54908,5
29680,54907,4
29670,54910,5
29676,54941,5
29665,54903,5
29669,54897,4
29675,54901,4
29673,54960,5
29675,54893,5
29668,54895,5
29673,54899,5
29668,54935,4
29667,54890,5
29665,54900,5
29674,54904,5
29664,54902,4
29675,54896,5
29669,54897,5
29672,54905,5
29679,54907,5
29682,54905,4
29668,54911,5
29679,54914,5
29678,54914,5
29675,54914,5
29668,54908,4
29671,54912,5
29680,54908,5
29676,54905,5
29682,54914,5
29673,54912,4
29680,54916,5
29677,54916,5
29672,54918,5
29683,54914,4
29681,54917,5
29677,54908,4
29676,54910,5
29676,54912,5
29672,54903,4
29673,54912,5
29671,54912,5
29671,54912,5
29673,54903,5
29672,54897,4
29669,54908,5
29674,54892,5
29664,54908,5
29671,54904,5
29675,54891,4
29670,54900,5
29672,54899,5
29662,54895,5
29668,54895,5
29669,54892,4
29664,54895,5
29681,54893,5
29672,54902,5
29672,54902,5
29675,54906,4
29668,54893,6
29675,54908,4
29668,54909,5
29671,54906,4
29675,54906,4
29673,54900,5
29668,54893,5
29663,54907,5
29672,54898,4
29673,54902,5
29674,54896,5
29672,54895,5
29662,54894,5
29662,54904,4
29671,54895,5
29669,54895,5
29669,54886,5
29664,54898,5
29662,54895,4
29666,54897,5
29670,54893,5
29667,54900,5
29661,54887,5
29670,54892,4
29665,54892,5
29668,54895,5
29666,54897,5
29660,54895,5
29666,54905,4
29674,54898,5
29670,54899,5
29665,54897,5
29670,54900,4
29672,54897,4
29671,54894,5
29668,54904,5
29649,54897,5
29671,54895,4
29673,54897,5
29671,54892,5
29630,54894,5
29667,54894,5
29664,54894,5
29669,54897,4
29618,54897,5
29669,54899,5
29674,54894,6
29670,54900,3
29667,54892,5
29665,54887,5
29666,54895,5
29661,54893,5
29704,54899,4
29669,54901,5
29673,54893,5
29670,54899,5
29719,54889,5
29673,54894,4
29673,54892,5
29670,54893,5
29694,54896,5
29668,54905,4
29662,54900,4
29671,54891,5
29677,54906,5
29674,54898,5
29673,54909,4
29672,54906,6
29672,54872,4
29676,54898,5
29668,54898,5
29673,54906,6
29671,54857,3
29676,54910,5
29673,54909,5
29678,54902,5
29674,54865,4
29670,54901,5
29679,54902,5
29668,54896,5
29667,54920,5
29668,54899,4
29677,54897,5
29668,54904,5
29665,54942,5
29669,54905,5
29668,54900,4
29674,54898,5
29673,54935,5
29668,54903,5
29668,54897,4
29660,54895,4
29662,54902,6
29664,54900,4
29670,54890,5
29663,54897,4
29665,54901,5
29667,54895,5
29670,54903,5
29663,54894,5
29676,54895,4
29670,54899,5
29675,54892,5
29660,54900,5
29675,54898,5
29667,54890,4
29669,54896,5
29670,54894,5
29661,54898,5
29662,54894,5
29663,54896,4
29671,54899,5
29668,54898,5
29664,54893,5
29668,54882,5
29668,54889,4
29655,54886,5
29665,54895,6
29671,54898,4
29670,54891,4
29668,54902,4
29666,54893,5
29669,54895,5
29670,54890,5
29664,54898,4
29672,54887,5
29669,54890,5
29662,54896,5
29669,54887,5
29676,54895,4
29666,54897,5
29661,54893,5
29660,54892,5
29670,54897,5
29670,54897,4
29674,54899,5
29669,54890,5
29667,54895,5
29663,54896,5
29668,54882,4
29664,54893,5
29670,54902,5
29669,54890,6
29668,54893,4
29665,54891,4
29669,54886,5
29667,54902,5
29655,54887,5
29665,54891,4
29667,54886,4
29667,54892,5
29665,54887,5
29666,54896,5
29664,54896,4
29667,54880,5
29662,54887,5
29659,54881,5
29659,54880,5
29659,54885,4
29661,54889,5
29660,54891,5
29670,54896,5
29670,54889,5
29668,54899,5
29670,54893,4
29667,54905,5
29670,54901,5
29667,54898,6
29669,54900,3
29669,54897,7
29672,54900,3
29670,54899,5
29664,54895,5
29667,54901,4
29675,54905,5
29668,54906,5
29671,54907,5
29644,54908,4
29673,54898,5
29667,54900,5
29669,54905,5
29625,54900,5
29666,54892,4
29664,54892,5
29660,54892,5
29639,54901,5
29667,54895,5
29659,54900,4
29676,54895,6
29703,54897,4
29669,54898,5
29674,54897,5
29671,54898,4
29720,54905,5
29672,54900,5
29672,54904,5
29673,54904,5
29706,54903,4
29669,54890,5
29675,54899,5
29675,54902,5
29683,54898,5
29659,54903,4
29667,54896,5
29670,54900,5
29667,54874,5
29666,54894,4
29666,54897,5
29663,54895,5
29669,54852,5
29668,54896,5
29668,54893,4
29668,54900,5
29665,54858,6
29672,54891,4
29679,54901,5
29668,54907,4
29665,54905,5
29664,54902,5
29667,54892,5
29664,54895,5
29666,54943,4
29668,54896,5
29670,54905,5
29669,54901,5
29670,54954,5
29675,54892,4
29671,54903,5
29674,54902,5
29670,54926,5
29674,54911,4
29679,54911,4
29681,54916,5
29676,54910,5
29677,54913,5
29679,54913,4
29675,54918,5
29677,54914,5
29677,54912,6
29675,54911,4
29682,54918,4
29680,54913,5
29672,54913,5
29684,54922,5
29683,54916,5
29684,54918,4
29682,54913,5
29684,54925,5
29675,54917,5
29680,54915,5
29681,54918,4
29683,54924,5
29682,54914,5
29687,54913,5
29678,54913,5
29674,54918,4
29680,54918,5
29679,54914,5
29690,54913,5
29679,54914,5
29676,54916,4
29675,54915,5
29676,54908,5
29680,54909,5
29674,54913,4
29672,54920,5
29678,54917,5
29677,54910,5
29681,54914,5
29680,54915,4
29680,54922,5
29675,54916,5
29678,54912,5
29682,54919,5
29690,54928,4
29684,54929,5
29690,54934,5
29678,54928,5
29677,54938,5
29691,54934,4
29697,54929,5
29680,54938,5
29684,54931,5
29688,54927,5
29686,54928,5
29687,54915,4
29687,54920,5
29677,54931,5
29675,54929,4
29691,54931,4
29676,54932,5
29689,54940,5
29685,54928,5
29682,54925,4
29679,54923,5
29684,54929,5
29682,54918,5
29686,54916,5
29680,54919,4
29681,54918,5
29680,54918,5
29686,54923,5
29682,54916,5
29678,54925,4
29684,54923,5
29672,54927,5
29677,54912,5
29674,54914,5
29674,54919,4
29677,54913,6
29671,54917,4
29683,54914,5
29683,54917,5
29675,54912,4
29639,54916,5
29678,54913,5
29678,54918,5
29680,54919,4
29635,54908,5
29673,54915,5
29683,54916,5
29676,54917,5
29632,54926,4
29683,54908,5
29675,54907,5
29680,54908,5
29702,54919,5
29677,54904,4
29674,54920,5
29683,54919,5
29725,54910,5
29687,54913,5
29681,54920,4
29681,54911,5
29721,54918,6
29674,54911,4
29674,54913,5
29679,54911,4
29692,54908,5
29675,54909,5
29675,54905,5
29675,54915,5
29678,54892,4
29679,54915,5
29673,54905,5
29676,54907,5
29679,54867,4
29679,54912,5
29677,54905,5
29682,54911,5
29683,54865,5
29671,54913,5
29678,54917,4
29679,54917,5
29671,54906,5
29678,54915,6
29683,54921,3
29678,54917,5
29674,54950,5
29675,54912,5
29682,54922,5
29685,54919,4
29679,54979,5
29678,54920,5
29678,54919,5
29682,54910,5
29678,54948,4
29684,54922,5
29685,54917,5
29675,54918,5
29680,54925,5
29682,54910,4
29682,54909,5
29672,54908,5
29677,54902,5
29669,54907,4
29674,54913,5
29674,54907,5
29668,54905,5
29674,54910,5
29670,54903,5
29669,54905,4
29666,54898,5
29669,54908,5
29672,54908,5
29670,54904,4
29668,54892,5
29665,54901,5
29668,54900,5
29664,54895,5
29670,54897,4
29667,54899,5
29665,54899,5
29673,54899,5
29675,54914,5
29669,54908,4
29678,54905,5
29673,54909,5
29673,54911,5
29667,54909,5
29680,54904,4
29682,54898,6
29669,54910,4
29674,54917,5
29681,54912,4
29682,54907,7
29676,54907,3
29675,54915,5
29677,54910,5
29672,54911,4
29676,54909,5
29676,54925,5
29675,54908,5
29672,54908,5
29673,54916,4
29671,54915,5
29678,54911,5
29674,54910,5
29678,54915,5
29678,54909,4
29682,54924,5
29680,54913,5
29675,54916,5
29682,54924,5
29686,54927,4
29678,54929,5
29686,54923,6
29688,54930,4
29682,54929,5
29691,54931,4
29689,54929,5
29692,54937,5
29694,54936,5
29690,54943,4
29692,54942,5
29683,54933,5
29693,54938,5
29692,54941,5
29694,54921,4
29686,54928,5
29691,54932,5
29686,54935,5
29697,54932,5
29685,54938,4
29695,54944,5
29688,54941,5
29695,54931,5
29690,54936,5
29696,54942,4
29690,54935,5
29684,54934,5
29669,54931,6
29689,54928,4
29676,54922,4
29687,54924,5
29644,54930,5
29681,54922,5
29690,54927,5
29681,54927,4
29637,54925,5
29683,54917,5
29686,54926,5
29685,54921,4
29677,54914,4
29680,54922,5
29678,54919,5
29679,54912,5
29715,54923,4
29681,54914,5
29683,54919,5
29680,54926,5
29734,54913,5
29680,54915,5
29677,54915,4
29680,54920,5
29708,54912,5
29677,54926,6
29682,54920,3
29680,54922,5
29685,54923,5
29678,54918,5
29680,54916,5
29675,54911,4
29678,54876,5
29681,54912,5
29683,54918,5
29681,54913,5
29673,54869,4
29676,54916,5
29677,54916,5
29673,54910,5
29674,54873,4
29672,54915,6
29674,54911,4
29678,54910,5
29673,54947,5
29679,54919,4
29681,54915,6
29678,54909,4
29678,54970,5
29679,54912,5
29687,54923,6
29691,54919,3
29672,54958,5
29684,54915,5
29677,54921,5
29684,54918,4
29682,54940,5
29677,54928,5
29680,54928,5
29685,54924,5
29685,54919,4
29687,54923,5
29685,54929,5
29690,54924,5
29686,54921,5
29682,54926,4
29681,54921,5
29684,54920,5
29691,54924,5
29681,54927,4
29690,54922,5
29688,54921,6
29688,54927,4
29690,54930,5
29689,54925,4
29686,54937,5
29687,54936,5
29690,54927,5
29693,54926,5
29688,54930,4
29689,54927,5
29691,54932,5
29677,54934,5
29694,54921,5
29684,54923,4
29684,54928,5
29694,54925,5
29691,54922,5
29684,54923,5
29681,54929,4
29679,54926,5
29686,54929,5
29686,54932,5
29685,54934,4
29688,54936,4
29691,54923,5
29683,54924,6
29683,54930,4
29683,54933,4
29690,54925,5
29694,54924,5
29692,54936,5
29685,54927,5
29693,54922,4
29696,54932,5
29693,54934,5
29686,54930,5
29687,54936,5
29686,54936,4
29680,54932,5
29698,54940,5
29689,54929,5
29688,54932,5
29683,54932,4
29687,54938,5
29693,54936,5
29694,54930,5
29686,54934,5
29684,54934,4
29686,54927,5
29692,54942,5
29693,54939,6
29681,54936,3
29689,54927,4
29689,54927,5
29691,54936,5
29690,54933,5
29678,54924,4
29682,54933,5
29688,54926,5
29688,54930,5
29691,54926,5
29677,54927,4
29685,54933,5
29691,54925,5
29682,54928,5
29685,54931,5
29678,54924,4
29680,54920,5
29676,54923,5
29676,54924,5
29643,54910,5
29675,54924,5
29679,54924,4
29685,54928,5
29634,54921,5
29678,54922,5
29678,54922,4
29671,54914,5
29648,54930,5
29680,54919,5
29681,54923,4
29683,54919,4
29711,54914,5
29677,54921,5
29674,54914,5
29672,54917,4
29732,54920,5
29681,54923,5
29678,54920,5
29682,54922,5
29714,54912,4
29688,54916,5
29681,54911,5
29675,54911,5
29688,54913,5
29682,54911,4
29678,54910,6
29670,54912,4
29675,54892,5
29673,54909,5
29677,54920,4
29681,54914,5
29682,54872,5
29674,54909,5
29674,54908,5
29678,54918,4
29680,54863,5
29684,54902,5
29681,54913,5
29670,54908,4
29678,54909,4
29677,54906,5
29684,54921,5
29675,54921,5
29685,54963,4
29689,54910,5
29681,54916,5
29684,54915,5
29683,54968,5
29676,54912,4
29684,54909,5
29677,54911,6
29674,54941,4
29686,54908,5
29682,54910,4
29681,54914,5
29683,54930,5
29682,54918,5
29673,54925,5
29679,54924,4
29693,54916,5
29685,54918,5
29687,54921,5
29686,54920,5
29684,54920,4
29685,54916,5
29680,54918,5
29688,54921,5
29685,54927,4
29686,54916,4
29681,54917,5
29681,54916,5
29690,54925,5
29681,54922,4
29678,54915,5
29674,54923,5
29679,54923,5
29678,54923,5
29683,54926,4
29677,54921,5
29680,54921,5
29684,54926,5
29688,54924,5
29681,54924,4
29677,54927,5
29687,54939,5
29685,54923,5
29684,54925,5
29685,54921,4
29685,54925,5
29684,54928,5
29684,54927,5
29683,54923,5
29687,54925,4
29681,54923,5
29695,54931,5
29685,54927,5
29685,54921,5
29686,54922,4
29683,54926,5
29690,54919,5
29678,54927,5
29688,54925,4
29688,54929,5
29687,54931,5
29690,54926,5
29689,54938,5
29682,54929,4
29687,54922,5
29683,54936,5
29683,54941,5
29683,54938,5
29692,54937,4
29687,54944,5
29686,54935,5
29691,54935,5
29702,54943,5
29698,54946,4
29693,54944,5
29688,54940,5
29694,54938,5
29693,54936,5
29682,54932,5
29686,54928,4
29681,54922,5
29690,54928,5
29683,54929,4
29682,54933,4
29701,54935,5
29698,54940,5
29685,54941,5
29696,54935,4
29698,54943,5
29694,54939,5
29695,54941,5
29697,54941,5
29686,54939,4
29674,54942,5
29682,54932,5
29699,54942,5
29691,54940,5
29641,54931,4
29678,54931,5
29684,54934,5
29689,54937,4
29638,54927,5
29686,54929,4
29684,54918,6
29672,54913,3
29678,54903,5
29672,54904,4
29672,54895,4
29660,54892,5
29710,54883,5
29660,54885,5
29663,54873,4
29655,54884,5
29716,54877,5
29662,54877,5
29650,54877,5
29657,54877,4
29687,54867,5
29659,54878,5
29653,54875,5
29658,54878,5
29665,54880,4
29651,54871,5
29659,54876,5
29662,54881,6
29651,54844,4
29655,54886,4
29654,54886,5
29663,54891,5
29667,54843,5
29668,54886,5
29663,54891,4
29665,54890,5
29664,54867,5
29659,54884,5
29664,54894,4
29662,54896,4
29670,54917,5
29661,54896,5
29667,54891,5
29673,54896,4
29662,54942,5
29668,54896,5
29669,54898,5
29667,54900,5
29665,54930,5
29664,54902,4
29664,54906,5
29675,54897,5
29679,54910,6
29670,54908,3
29676,54909,5
29671,54911,5
29675,54918,5
29680,54910,5
29675,54906,4
29673,54906,5
29667,54908,5
29673,54904,5
29677,54911,5
29680,54905,4
29679,54911,5
29675,54911,5
29681,54905,5
29683,54908,4
29675,54909,4
29673,54905,5
29678,54906,5
29680,54908,5
29677,54917,4
29679,54916,6
29674,54907,4
29672,54902,5
29673,54906,5
29675,54902,6
29678,54913,3
29668,54907,5
29672,54919,5
29672,54923,5
29672,54918,4
29677,54917,5
29682,54917,5
29677,54915,5
29682,54926,5
29680,54916,4
29684,54920,5
29690,54929,5
29695,54928,5
29685,54931,5
29686,54925,4
29683,54930,5
29689,54922,5
29687,54922,5
29686,54930,4
29687,54923,4
29686,54920,6
29681,54928,4
29689,54926,5
29693,54927,4
29685,54926,5
29684,54922,5
29686,54928,5
29686,54927,5
29682,54930,4
29688,54930,5
29689,54924,5
29684,54920,5
29689,54923,5
29672,54922,4
29683,54917,5
29677,54922,5
29679,54929,5
29678,54921,5
29686,54916,4
29683,54914,5
29671,54917,5
29673,54919,5
29682,54913,5
29682,54925,4
29676,54924,5
29684,54920,6
29672,54925,4
29686,54923,4
29673,54917,4
29677,54927,5
29684,54928,5
29671,54922,5
29681,54919,4
29679,54918,5
29683,54921,5
29667,54924,5
29681,54929,5
29681,54918,4
29679,54915,5
29640,54918,5
29683,54915,5
29680,54922,5
29679,54916,4
29630,54913,5
29668,54919,5
29675,54924,5
29673,54910,5
29672,54905,4
29679,54914,5
29671,54916,5
29675,54911,6
29705,54914,4
29686,54904,4
29677,54915,5
29683,54914,5
29729,54909,5
29678,54912,4
29682,54914,4
29684,54915,5
29701,54915,5
29682,54911,5
29676,54912,4
29682,54911,5
29695,54913,5
29670,54911,5
29678,54909,5
29679,54911,4
29673,54873,5
29677,54906,5
29670,54900,5
29669,54898,5
29665,54852,5
29675,54892,4
29666,54896,5
29675,54897,5
29672,54854,6
29676,54911,4
29666,54897,4
29669,54907,5
29678,54917,5
29671,54897,5
29680,54903,4
29681,54897,5
29671,54955,5
29676,54905,5
29673,54900,4
29679,54905,5
29676,54954,5
29672,54905,5
29679,54907,5
29673,54905,4
29672,54931,5
29684,54900,5
29673,54900,5
29672,54913,5
29676,54911,4
29676,54908,6
29677,54898,4
29668,54903,5
29675,54905,5
29674,54904,4
29668,54900,5
29668,54899,5
29676,54900,5
29678,54906,5
29674,54906,4
29674,54907,5
29675,54916,5
29676,54918,5
29682,54905,4
29685,54910,4
29675,54912,5
29674,54908,5
29679,54907,5
29673,54904,4
29666,54889,5
29670,54894,5
29669,54897,5
29676,54894,5
29676,54892,4
29666,54890,5
29663,54902,6
29661,54896,4
29663,54882,5
29675,54889,4
29663,54888,5
29660,54888,5
29664,54875,5
29654,54876,5
29661,54881,4
29663,54879,5
29653,54874,5
29654,54875,5
29655,54872,5
29653,54859,4
29655,54850,5
29640,54857,5
29651,54851,5
29634,54839,4
29646,54839,4
29639,54839,5
29638,54835,5
29640,54848,5
29640,54843,4
29644,54838,5
29643,54847,5
29644,54865,6
29642,54866,4
29650,54865,4
29655,54865,5
29656,54871,5
29662,54878,5
29652,54869,5
29653,54879,4
29658,54883,5
29654,54881,5
29655,54875,5
29654,54886,5
29657,54883,4
29662,54883,5
29651,54882,5
29664,54876,5
29650,54873,5
29654,54880,4
29662,54881,5
29656,54884,5
29655,54888,5
29659,54881,5
29660,54877,4
29662,54874,5
29664,54874,5
29660,54873,5
29652,54870,4
29657,54878,7
29657,54874,3
29650,54874,5
29631,54870,5
29662,54872,4
29657,54877,5
29655,54873,5
29612,54879,5
29654,54879,5
29659,54882,4
29664,54881,5
29632,54876,5
29661,54874,5
29653,54870,5
29664,54871,4
29679,54877,5
29661,54866,5
29658,54876,5
29657,54880,5
29707,54872,5
29664,54885,4
29662,54885,5
29662,54876,5
29700,54881,4
29664,54887,4
29661,54891,5
29662,54887,5
29682,54886,5
29664,54891,4
29661,54892,5
29665,54885,5
29662,54861,5
29660,54883,5
29656,54877,4
29665,54885,5
29662,54844,5
29668,54880,5
29660,54887,5
29661,54882,4
29661,54837,5
29666,54882,6
29663,54878,4
29659,54880,5
29658,54883,4
29655,54873,7
29651,54869,3
29657,54876,5
29655,54912,5
29654,54879,4
29659,54873,5
29659,54874,5
29649,54930,5
29651,54866,4
29661,54871,4
29658,54865,5
29656,54892,5
29648,54861,5
29655,54858,4
29641,54858,5
29650,54854,5
29651,54843,5
29646,54844,5
29641,54849,4
29642,54847,5
29642,54843,5
29639,54842,5
29639,54844,5
29642,54840,4
29643,54839,5
29637,54840,5
29643,54840,5
29643,54837,5
29640,54839,4
29646,54836,5
29642,54840,5
29637,54838,5
29648,54842,5
29644,54844,4
29641,54836,10
29642,54848,5
29637,54842,5
29631,54836,7
29631,54836,8
29638,54845,7
29631,54843,8
29642,54824,5
29637,54840,7
29632,54843,8
29632,54843,5
29632,54850,7
29640,54836,8
29641,54808,5
29643,54838,7
29665,54850,8
29661,54840,5
29643,54840,7
29642,54834,8
29642,54834,5
29635,54811,7
29633,54825,8
29628,54837,5
29637,54834,7
29634,54839,8
29633,54838,5
29631,54825,7
29631,54825,8
29632,54833,7
29623,54833,5
29626,54821,8
29631,54802,7
29635,54806,5
29619,54816,8
29619,54816,7
29618,54837,7
29630,54816,8
29624,54812,7
29592,54808,5
29620,54806,8
29620,54806,7
29623,54814,11
29629,54800,7
29626,54815,5
29578,54816,8
29578,54816,7
29619,54805,5
29615,54782,8
29619,54802,7
29574,54801,9
29614,54795,10
29614,54795,9
29618,54790,10
29622,54794,5
29664,54789,5
29623,54801,10
29623,54801,5
29620,54789,5
29619,54801,10
29630,54792,5
29622,54789,5
29619,54795,10
29619,54795,5
29623,54800,5
29635,54761,10
29629,54808,5
29618,54800,7
29607,54799,8
29625,54749,5
29618,54789,7
29618,54789,8
29611,54788,9
29616,54790,10
29615,54826,5
29611,54781,7
29611,54781,8
29610,54787,5
29605,54789,7
29610,54826,8
29619,54783,5
29591,54794,7
29607,54777,8
29607,54777,5
29613,54789,7
29629,54782,8
29609,54784,5
29602,54781,7
29589,54773,8
29610,54783,5
29609,54773,7
