RED,IR,EKG,TIME
80257,125584,183899
80257,125584,10
80282,125596,7
80312,125664,8
80384,125718,5
80646,126137,7
80646,126137,8
80717,126229,5
80746,126272,7
80768,126226,8
80811,126361,5
80837,126402,7
80974,126591,8
80974,126591,5
81019,126613,7
81035,126671,8
81018,126677,5
81026,126666,7
81008,126741,8
80924,126517,7
80924,126517,5
80896,126502,8
80887,126481,7
80866,126516,5
80874,126467,8
80876,126446,7
80860,126439,5
80817,126410,8
80817,126410,7
80818,126397,5
80819,126387,8
80814,126395,7
80809,126395,5
80823,126409,8
80821,126416,7
80912,126554,4
80912,126554,4
80948,126602,4
80977,126645,5
81016,126684,5
81039,126723,5
81072,126789,5
81110,126823,4
81135,126875,5
81171,126912,6
81191,126932,4
81199,126959,5
81222,126982,4
81226,126982,5
81225,126975,5
81196,126943,5
81176,126906,5
81133,126850,4
81082,126774,5
81014,126670,5
80944,126568,5
80870,126474,4
80809,126407,5
80765,126336,5
80723,126293,5
80705,126267,5
80680,126247,4
80684,126249,5
80692,126265,5
80718,126298,5
80742,126342,5
80780,126388,4
80807,126443,5
80872,126529,5
80905,126574,6
80908,126562,4
80884,126510,4
80785,126359,5
80654,126188,5
80557,126046,5
80457,125906,4
80355,125781,4
80287,125684,5
80225,125607,5
80219,125591,5
80212,125576,4
80208,125594,5
80224,125627,5
80253,125664,5
80302,125722,5
80344,125797,4
80399,125866,5
80460,125944,5
80508,126023,5
80570,126108,5
80621,126177,5
80668,126234,4
80698,126288,5
80727,126332,5
80761,126366,6
80777,126395,3
80785,126408,5
80807,126423,5
80804,126436,5
80808,126420,4
80799,126432,5
80801,126420,5
80747,126424,5
80803,126419,5
80799,126425,4
80793,126397,5
80686,126385,5
80757,126366,5
80750,126352,5
80738,126341,4
80667,126319,5
80722,126307,5
80710,126303,5
80696,126287,5
80737,126255,4
80674,126234,6
80657,126215,4
80633,126183,5
80722,126169,4
80609,126149,5
80614,126151,5
80604,126161,5
80695,126178,5
80635,126199,4
80655,126217,5
80675,126251,5
80728,126294,5
80724,126339,5
80772,126388,4
80806,126450,5
80854,126483,5
80898,126578,5
80948,126658,5
81002,126731,4
81045,126709,5
81093,126847,5
81132,126903,5
81173,126972,5
81200,126917,4
81253,127061,5
81275,127115,6
81304,127151,4
81319,127172,4
81341,127196,5
81363,127219,5
81372,127251,5
81378,127328,5
81371,127229,4
81351,127196,5
81327,127162,5
81281,127219,5
81239,127037,5
81189,126966,4
81118,126871,5
81082,126861,5
81033,126744,5
80980,126672,5
80928,126617,4
80893,126565,5
80861,126511,5
80827,126485,5
80807,126456,5
80803,126436,4
80794,126447,5
80798,126452,5
80797,126451,6
80813,126456,3
80819,126480,5
80819,126477,5
80813,126470,5
80781,126392,5
80655,126209,4
80547,126067,5
80453,125949,5
80400,125874,5
80350,125799,5
80319,125765,4
80298,125744,5
80293,125739,5
80295,125743,5
80309,125766,4
80317,125764,4
80340,125808,5
80367,125861,5
80418,125918,5
80465,126004,4
80530,126082,6
80594,126179,4
80652,126269,5
80718,126342,5
80770,126425,4
80812,126485,5
80868,126553,5
80910,126605,5
80936,126649,5
80964,126685,4
80979,126707,5
81000,126715,5
81017,126751,5
81034,126778,5
81058,126815,4
81084,126873,5
81136,126926,5
81138,126929,5
81145,126911,4
81135,126912,5
81121,126889,5
81105,126868,5
81075,126829,5
81054,126795,4
81030,126775,5
80998,126727,6
80986,126702,4
80957,126652,5
80921,126631,4
80903,126590,5
80887,126578,5
80884,126571,5
80884,126571,5
80884,126580,4
80889,126591,5
80915,126618,5
80934,126657,5
80965,126693,4
81005,126760,4
81051,126824,5
81108,126903,5
81165,126980,5
81223,127070,4
81293,127169,5
81364,127257,5
81426,127352,5
81500,127451,5
81557,127534,4
81602,127587,5
81638,127654,5
81679,127695,5
81699,127725,5
81715,127732,4
81656,127740,5
81703,127726,5
81693,127717,5
81695,127706,5
81594,127702,4
81669,127689,5
81670,127676,5
81661,127669,5
81551,127647,4
81634,127614,5
81621,127608,5
81611,127609,5
81626,127596,5
81607,127594,4
81610,127606,5
81625,127597,5
81708,127616,5
81620,127630,5
81622,127630,5
81627,127630,4
81718,127615,5
81617,127593,5
81556,127496,5
81465,127365,4
81406,127243,5
81282,127120,5
81182,126987,5
81107,126869,4
81049,126780,4
81010,126754,5
80980,126723,5
80975,126730,5
80985,126670,4
81008,126779,5
81042,126839,5
81104,126899,5
81154,126887,5
81205,127066,4
81264,127129,5
81295,127186,6
81358,127230,4
81393,127318,5
81422,127347,4
81431,127368,7
81450,127444,3
81453,127376,5
81439,127371,5
81451,127375,4
81465,127499,5
81468,127404,5
81484,127442,5
81533,127519,4
81623,127725,5
81688,127725,5
81724,127785,5
81786,127854,5
81821,127915,4
81838,127920,5
81833,127906,5
81818,127895,5
81811,127868,5
81773,127817,4
81722,127750,5
81685,127698,5
81622,127609,5
81566,127523,5
81509,127459,4
81474,127403,5
81451,127377,5
81431,127351,5
81425,127353,4
81435,127355,4
81436,127376,5
81460,127401,5
81493,127450,5
81520,127493,4
81569,127568,5
81605,127602,5
81649,127677,5
81718,127765,5
81772,127836,4
81808,127887,5
81852,127941,5
81880,127989,5
81909,128018,5
81927,128045,4
81288,128073,5
81319,128110,5
81322,128128,5
81320,128130,5
81331,128128,4
81327,128125,5
81298,128090,5
81269,128047,5
81252,128013,4
81229,127981,5
81190,127925,5
81137,127857,5
81100,127815,5
81073,127764,4
81014,127683,5
80952,127602,5
80925,127555,5
80891,127519,5
80867,127504,4
80861,127487,5
80853,127471,5
80818,127406,5
80759,127319,5
80681,127183,4
80504,126938,6
80353,126732,4
80222,126550,5
80093,126382,4
80010,126252,6
79901,126097,3
79821,125985,5
79769,125926,5
79721,125865,4
79674,125803,5
79649,125763,5
79640,125774,5
79644,125778,5
79648,125779,4
79656,125804,5
79690,125852,5
79726,125894,5
79761,125959,5
79799,126003,4
79841,126049,5
79880,126090,5
79885,126093,5
79894,126125,5
79911,126162,4
79945,126205,5
79963,126219,6
79989,126247,7
79995,126304,1
80043,126345,4
80054,126355,5
80078,126390,5
80003,126386,5
80088,126386,4
80075,126378,5
80087,126362,5
79974,126349,5
80030,126281,5
79992,126245,4
79968,126223,5
79936,126186,5
79920,126141,5
79884,126092,5
79846,126047,4
79887,125980,5
79736,125873,5
79668,125782,5
79635,125742,5
79724,125712,4
79591,125685,5
79580,125678,5
79582,125683,6
79639,125696,3
79602,125686,5
79598,125710,5
79629,125752,5
79684,125810,5
79717,125884,4
79784,125970,5
79854,126064,5
79930,126109,5
79960,126203,5
79987,126263,4
80031,126324,5
80054,126258,5
80086,126373,5
80095,126394,5
80108,126408,4
80109,126330,4
80090,126380,5
80060,126350,5
80040,126321,5
80025,126334,5
80001,126251,4
79963,126203,5
79945,126185,5
79931,126264,6
79880,126076,3
79829,126007,5
79809,125981,5
79777,126036,5
79768,125927,4
79753,125935,5
79765,125942,5
79792,125983,5
79780,125937,5
79757,125919,4
79750,125903,5
79674,125760,5
79532,125574,5
79431,125444,5
79367,125355,4
79312,125261,5
79224,125152,5
79151,125059,5
79131,125032,4
79106,125001,5
79093,124991,6
79101,125000,4
79107,125025,5
79136,125053,4
79146,125059,5
79156,125094,5
79212,125157,5
79265,125252,5
79327,125332,4
79399,125441,5
79489,125575,5
79595,125708,5
79629,125753,5
79673,125808,4
79730,125901,5
79778,125953,5
79828,126012,5
79862,126058,4
79895,126136,4
79943,126173,5
79964,126189,5
79949,126189,5
79964,126216,4
79979,126208,5
79977,126208,5
79967,126205,6
79966,126198,4
79970,126216,4
79950,126194,5
79944,126176,5
79948,126189,5
79961,126201,5
79963,126195,4
79956,126187,5
79946,126190,5
79946,126182,5
79921,126136,5
79902,126124,4
79895,126111,5
79896,126104,5
79879,126088,5
79885,126084,4
79877,126098,4
79882,126090,5
79886,126080,5
79882,126097,5
79917,126147,5
79943,126175,4
79970,126237,5
80020,126305,5
80101,126426,6
80172,126505,3
80209,126562,5
80276,126650,5
80349,126757,5
80403,126829,5
80453,126889,4
80496,126948,5
80545,127019,5
80569,127039,5
80553,127036,5
80546,127003,4
80541,127000,5
80520,126955,5
80464,126912,5
80439,126852,4
80386,126782,5
80340,126703,5
80252,126592,5
80206,126542,5
80199,126527,4
80183,126492,6
80097,126489,4
80156,126474,5
80151,126492,5
80161,126480,4
80071,126497,5
80173,126511,5
80210,126540,5
80202,126537,5
80132,126513,4
80129,126413,5
80033,126282,5
79972,126189,5
79954,126099,4
79829,126001,4
79805,125984,5
79808,125989,5
79907,125987,5
79816,126004,4
79838,126031,5
79860,126065,5
79937,126071,5
79896,126095,5
79930,126162,4
79988,126244,5
80050,126299,6
80065,126362,4
80111,126423,5
80173,126518,4
80210,126497,5
80218,126557,5
80265,126630,5
80311,126681,5
80330,126641,4
80368,126766,5
80410,126827,5
80453,126891,5
80474,126819,4
80474,126911,5
80490,126931,5
80511,126966,5
80536,127013,5
80568,127047,4
80569,127051,5
80583,127065,5
80576,127139,5
80565,127018,5
80543,127014,4
80537,126994,5
80522,127068,5
80496,126936,6
80464,126905,4
80446,126867,4
80420,126871,5
80371,126743,5
80332,126703,5
80306,126680,4
80289,126661,4
80256,126618,5
80252,126606,5
80244,126617,5
80269,126623,4
80273,126631,5
80274,126640,5
80306,126677,5
80326,126713,5
80357,126747,4
80384,126800,5
80407,126844,5
80447,126878,5
80481,126926,5
80515,126986,5
80547,127022,4
80587,127094,5
80639,127154,5
80674,127205,5
80701,127254,4
80735,127278,5
80772,127345,5
80818,127400,5
80831,127431,4
80869,127474,4
80912,127529,5
80938,127564,5
80947,127571,5
80947,127571,4
80933,127546,5
80902,127497,5
80843,127426,5
80783,127343,5
80707,127225,4
80637,127121,5
80582,127046,5
80507,126958,5
80458,126901,5
80440,126860,4
80414,126835,6
80403,126828,4
80409,126815,5
80394,126818,5
80402,126839,4
80421,126866,5
80448,126888,5
80473,126936,5
80507,126978,4
80513,127000,5
80527,126992,5
80506,126946,5
80440,126855,5
80399,126806,4
80379,126780,5
80331,126723,5
80313,126682,5
80286,126666,5
80290,126669,4
80285,126686,5
80296,126679,5
80295,126680,5
80316,126709,5
80343,126753,4
80368,126784,5
80383,126830,6
80427,126874,4
80441,126912,4
80478,126950,4
80533,127016,5
80559,127060,5
80593,127102,5
80629,127153,4
80659,127199,5
80682,127247,5
80718,127266,5
80727,127294,5
80756,127322,4
80780,127363,5
80772,127353,5
80792,127383,5
80817,127416,5
80785,127437,4
80848,127457,5
80855,127455,5
80837,127443,5
80741,127431,5
80810,127402,4
80777,127336,5
80741,127303,5
80611,127251,5
80656,127177,4
80597,127094,4
80532,127020,5
80507,126957,5
80451,126905,5
80415,126848,4
80392,126826,5
80480,126819,5
80393,126842,5
80407,126854,5
80417,126880,4
80543,126923,5
80480,126970,5
80524,127028,5
80549,127066,5
80641,127139,4
80633,127168,5
80656,127197,5
80672,127227,5
80705,127243,5
80725,127299,5
80747,127339,4
80760,127347,5
80787,127337,5
80835,127463,4
80878,127521,5
80909,127559,5
80927,127498,5
80947,127612,5
80961,127636,4
80952,127616,5
80949,127548,5
80932,127597,5
80925,127565,5
80903,127549,4
80888,127601,5
80892,127524,5
80892,127516,5
80884,127512,5
80873,127625,4
80871,127521,5
80876,127528,6
80898,127556,4
80899,127623,4
80904,127561,4
80924,127566,5
80929,127589,5
80906,127587,5
80905,127550,4
80867,127467,5
80742,127299,5
80630,127140,5
80528,126982,5
80426,126867,4
80363,126776,5
80289,126680,5
80239,126645,5
80239,126624,5
80239,126607,4
80233,126602,5
80232,126629,5
80249,126655,5
80290,126709,5
80330,126775,4
80382,126841,5
80448,126946,5
80501,126994,6
80531,127046,3
80553,127060,4
80571,127084,5
80597,127142,5
80618,127149,5
80634,127170,4
80659,127217,5
80689,127244,5
80697,127248,5
80699,127260,5
80711,127281,4
80731,127318,5
80776,127373,5
80803,127428,5
80840,127456,5
80843,127451,4
80831,127446,5
80824,127421,5
80814,127405,5
80793,127384,5
80778,127357,5
80757,127347,4
80743,127339,5
80738,127324,5
80725,127299,6
80703,127273,3
80681,127231,5
80665,127214,5
80660,127213,5
80648,127201,4
80663,127211,5
80668,127222,5
80681,127251,5
80706,127271,5
80725,127301,4
80748,127330,5
80786,127396,5
80828,127459,5
80860,127512,5
80936,127614,4
81014,127732,5
81088,127833,5
81164,127934,5
81228,128019,4
81301,128111,4
81369,128220,6
81430,128292,4
81473,128360,5
81526,128414,4
81525,128413,5
81529,128409,5
81513,128403,5
81515,128389,5
81514,128389,4
81491,128377,5
81490,128366,5
81485,128356,5
81486,128354,5
81480,128348,4
81476,128348,5
81471,128347,5
81462,128348,5
81492,128376,5
81500,128403,6
81543,128485,3
81540,128567,5
81672,128650,5
81713,128681,4
81741,128726,4
81627,128684,5
81676,128627,6
81650,128589,4
81616,128539,4
81570,128527,5
81570,128492,5
81556,128463,5
81534,128444,5
81585,128405,4
81488,128363,5
81470,128363,5
81465,128335,5
81578,128355,5
81484,128374,4
81499,128387,5
81514,128414,5
81588,128421,5
81535,128446,5
81572,128516,4
81592,128524,5
81638,128583,5
81669,128648,5
81721,128708,5
81759,128768,4
81795,128759,5
81816,128839,5
81839,128856,6
81859,128894,3
81878,128817,5
81879,128929,5
81897,128948,5
81917,128977,5
81908,128862,4
81896,128930,5
81877,128915,5
81883,128913,5
81870,128922,5
81853,128892,4
81858,128886,5
81843,128878,5
81836,128971,5
81816,128838,5
81805,128815,4
81787,128806,5
81778,128870,5
81749,128740,5
81736,128731,4
81741,128728,6
81741,128768,4
81732,128721,5
81727,128714,5
81726,128717,4
81731,128725,5
81724,128720,5
81731,128729,5
81728,128724,5
81740,128740,4
81742,128749,5
81757,128761,5
81772,128792,5
81812,128840,5
81828,128870,4
81878,128916,5
81899,128951,5
81893,128948,5
81898,128952,4
81888,128936,4
81893,128946,5
81894,128934,5
81889,128935,5
81884,128941,4
81891,128943,5
81893,128947,6
81880,128931,4
81877,128931,5
81874,128923,4
81867,128911,5
81839,128865,5
81816,128839,5
81814,128835,5
81813,128832,4
81812,128822,5
81796,128825,5
81798,128818,5
81787,128773,5
81691,128638,4
81618,128561,5
81584,128511,5
81537,128427,5
81470,128348,4
81433,128300,4
81414,128290,5
81414,128271,5
81384,128234,5
81372,128218,4
81369,128226,5
81379,128224,5
81387,128232,6
81390,128247,4
81404,128271,4
81418,128288,5
81432,128295,5
81441,128325,5
81467,128347,5
81483,128372,4
81494,128388,5
81511,128407,5
81522,128422,5
81529,128434,5
81523,128423,4
81521,128424,5
81511,128412,5
81509,128392,5
81492,128382,4
81489,128372,5
81506,128391,5
81508,128398,5
81492,128383,5
81505,128391,5
81496,128382,4
81491,128360,5
81449,128304,5
81417,128261,5
81395,128238,4
81346,128166,5
81308,128103,5
81269,128053,5
81230,127995,5
81180,127921,4
81116,127843,5
81059,127765,5
81018,127709,5
80959,127597,4
80823,127496,4
80850,127472,5
80826,127454,5
80809,127423,5
80710,127399,4
80798,127418,5
80820,127426,5
80812,127416,5
80719,127418,5
80820,127448,4
80852,127477,6
80859,127495,4
80899,127501,5
80886,127516,5
80878,127517,4
80895,127536,5
80990,127538,5
80898,127534,5
80904,127558,5
80922,127598,4
81026,127601,5
80957,127621,5
80966,127618,5
80961,127629,4
80975,127612,4
80930,127584,5
80926,127574,5
80916,127568,5
80902,127514,4
80881,127518,5
80875,127506,5
80878,127508,6
80871,127433,4
80876,127503,4
80877,127526,5
80894,127539,5
80914,127467,5
80913,127576,5
80924,127590,4
80922,127576,5
80896,127504,5
80778,127352,5
80684,127214,5
80608,127121,4
80522,127073,5
80428,126864,5
80375,126811,5
80338,126776,4
80332,126881,4
80327,126755,5
80319,126733,5
80319,126741,5
80331,126822,4
80339,126781,5
80357,126803,5
80370,126827,5
80389,126870,5
80416,126873,4
80422,126884,5
80428,126879,5
80446,126900,5
80460,126933,5
80465,126949,4
80474,126952,5
80467,126949,5
80479,126957,5
80468,126949,5
80465,126930,4
80463,126931,5
80473,126951,5
80467,126942,5
80466,126960,4
80486,126970,5
80486,126972,5
80481,126962,5
80469,126935,5
80461,126943,4
80443,126908,5
80416,126876,5
80391,126837,5
80366,126793,5
80331,126760,5
80306,126715,4
80251,126621,5
80170,126500,5
80108,126427,5
80067,126382,4
80026,126315,5
79988,126267,5
79963,126242,5
79952,126223,4
79946,126228,4
79944,126218,5
79942,126217,5
79957,126246,5
79976,126270,4
80009,126315,5
80039,126345,5
80067,126395,5
80113,126445,5
80124,126458,4
80118,126468,5
80137,126508,5
80165,126539,5
80199,126560,5
80231,126605,4
80248,126648,6
80284,126685,4
80283,126687,5
80293,126690,5
80319,126752,4
80353,126792,5
80387,126832,5
80418,126884,5
80459,126936,4
80489,126970,4
80488,126962,5
80487,126959,5
80485,126963,5
80472,126947,4
80456,126915,5
80437,126880,5
80387,126839,5
80326,126721,5
80222,126539,4
80101,126396,5
79990,126247,5
79866,126063,5
79723,125868,4
79623,125720,4
79554,125631,5
79498,125547,5
79428,125454,5
79396,125434,5
79390,125429,4
79390,125440,5
79408,125472,5
79423,125514,5
79488,125571,4
79509,125593,5
79520,125611,5
79499,125692,5
79637,125771,5
79683,125841,4
79703,125858,5
79590,125840,5
79639,125747,5
79537,125602,5
79432,125456,5
79324,125355,4
79284,125251,5
79193,125123,5
79117,125012,6
79140,124960,3
79052,124939,5
79041,124913,5
79008,124895,5
79119,124888,4
79036,124918,4
79076,124972,5
79124,125055,5
79246,125144,5
79281,125284,4
79375,125414,5
79445,125497,5
79538,125623,5
79629,125785,5
79723,125882,4
79788,125986,5
79851,126022,5
79916,126159,5
79979,126230,5
80020,126286,4
80059,126242,6
80068,126357,4
80102,126400,5
80143,126478,5
80196,126436,6
80241,126607,3
80292,126681,5
80318,126692,5
80329,126721,4
80333,126706,4
80330,126712,5
80323,126688,5
80299,126778,5
80293,126670,4
80289,126644,5
80273,126636,5
80252,126698,5
80221,126560,5
80181,126497,4
80139,126447,5
80093,126426,5
80054,126323,5
80017,126291,5
80016,126275,4
80011,126286,5
80014,126281,6
80014,126296,4
80048,126302,5
80029,126298,4
80041,126324,5
80091,126393,5
80136,126454,5
80171,126520,4
80223,126589,5
80275,126649,5
80323,126726,5
80359,126766,5
80379,126816,4
80428,126860,5
80473,126931,5
80507,126985,5
80546,127032,5
80584,127073,4
80617,127130,5
80618,127146,5
80631,127152,5
80640,127170,5
80652,127191,4
80659,127192,5
80671,127213,5
80683,127225,6
80689,127239,4
80694,127229,4
80675,127222,5
80664,127207,5
80658,127186,5
80626,127138,4
80567,127057,5
80507,126961,5
80442,126875,5
80355,126730,5
80241,126582,4
80166,126493,5
80119,126427,5
80060,126339,5
80007,126292,5
79980,126246,4
79978,126242,5
79982,126252,5
79970,126253,5
79987,126280,5
80023,126312,5
80040,126344,4
80059,126364,5
80081,126403,5
80118,126455,6
80156,126505,3
80158,126496,5
80144,126455,5
80059,126335,5
79931,126141,4
79816,125996,5
79720,125856,5
79618,125712,5
79523,125597,5
79472,125526,4
79409,125442,5
79366,125374,5
79334,125348,5
79328,125351,5
79348,125376,4
79363,125401,5
79391,125444,5
79440,125503,5
79499,125589,5
79567,125687,4
79632,125767,6
79694,125874,4
79777,126001,5
79854,126085,4
79921,126157,4
79963,126226,5
79991,126277,5
80037,126333,5
80064,126372,4
80041,126381,5
80090,126400,5
80110,126428,5
80122,126440,5
80051,126457,4
80142,126469,5
80176,126509,5
80180,126525,5
80072,126501,5
80164,126494,4
80159,126478,5
80142,126466,5
80125,126430,5
80092,126393,5
80073,126351,4
80042,126318,5
80100,126271,6
79945,126189,4
79910,126133,4
79880,126084,5
79956,126043,5
79814,126004,5
79795,125971,5
79785,125955,4
79843,125971,5
79782,125976,5
79801,125993,5
79811,126017,5
79859,126056,4
79880,126113,5
79910,126159,5
79958,126215,5
80003,126225,5
80062,126372,4
80104,126422,5
80131,126460,5
80176,126445,5
80242,126630,5
80313,126711,4
80354,126784,5
80404,126783,5
80446,126901,6
80486,126966,3
80536,127035,6
80573,127116,4
80584,127096,5
80617,127123,5
80632,127156,4
80628,127255,5
80621,127150,5
80611,127114,5
80585,127076,5
80564,127130,4
80506,126976,5
80462,126914,5
80419,126841,5
80367,126811,5
80319,126720,4
80291,126652,5
80237,126600,5
80206,126565,5
80184,126529,4
80175,126516,5
80169,126497,4
80163,126502,5
80176,126516,5
80180,126517,4
80196,126538,5
80197,126566,5
80218,126594,5
80252,126621,5
80269,126655,4
80269,126666,5
80276,126652,5
80254,126628,5
80194,126500,5
80067,126328,4
79939,126145,5
79838,126017,5
79736,125871,5
79644,125743,5
79582,125670,4
79533,125623,5
79518,125599,5
79510,125579,5
79522,125615,4
79534,125643,4
79580,125699,6
79637,125770,4
79695,125874,5
79778,125968,4
79848,126095,5
79938,126200,5
80008,126296,5
80072,126400,5
80136,126480,4
80196,126548,5
80235,126605,5
80256,126648,5
80276,126673,5
80299,126698,4
80317,126699,5
80317,126703,5
80321,126706,5
80329,126723,5
80343,126748,4
80363,126783,5
80374,126778,5
80359,126771,5
80347,126745,4
80338,126733,5
80316,126711,5
80287,126673,6
80271,126642,4
80248,126599,4
80204,126555,5
80162,126503,5
80136,126458,5
80112,126431,5
80093,126394,4
80087,126394,5
80084,126402,5
80087,126401,5
80103,126430,5
80126,126456,4
80155,126512,5
80210,126592,5
80273,126679,5
80339,126776,5
80423,126878,4
80491,126990,5
80565,127085,5
80631,127183,5
80691,127277,5
80762,127388,4
80844,127501,5
80926,127587,5
80982,127676,5
81044,127762,4
81091,127833,5
81139,127891,5
81124,127946,5
81217,127997,5
81256,128055,4
81280,128076,5
81191,128090,5
81305,128104,5
81297,128097,5
81299,128099,4
81211,128082,5
81275,128071,5
81272,128064,5
81262,128040,4
81272,128002,4
81198,127963,5
81164,127907,5
81118,127849,5
81182,127801,4
81039,127743,6
80995,127688,4
80973,127651,5
81037,127617,5
80910,127559,4
80878,127522,5
80839,127451,5
80812,127381,5
80717,127274,5
80637,127165,4
80544,127046,5
80464,126896,5
80365,126807,5
80307,126715,5
80258,126651,4
80213,126521,5
80196,126581,5
80189,126581,5
80205,126581,5
80196,126499,4
80207,126595,5
80216,126611,5
80221,126622,5
80230,126615,4
80251,126658,5
80259,126675,6
80276,126692,4
80286,126775,5
80282,126689,4
80266,126666,5
80180,126533,5
80055,126453,5
79938,126205,5
79871,126096,4
79793,125991,5
79736,126002,5
79724,125911,5
79731,125922,5
79747,125958,4
79789,126024,5
79833,126086,5
79912,126191,5
79994,126315,4
80096,126450,4
80198,126602,5
80308,126762,5
80423,126921,6
80545,127069,3
80638,127207,5
80741,127361,5
80820,127460,5
80882,127552,5
80937,127605,4
80965,127655,5
80981,127665,5
80996,127683,5
81003,127700,5
81006,127704,4
81012,127722,5
81028,127743,5
81045,127769,5
81081,127814,5
81108,127841,4
81100,127831,5
81087,127812,5
81083,127791,5
81057,127776,4
81029,127718,5
80985,127671,4
80955,127622,5
80919,127572,5
80882,127510,6
80820,127436,3
80764,127349,5
80695,127253,5
80647,127196,5
80608,127136,4
80587,127132,5
80577,127127,5
80582,127114,5
80600,127150,5
80612,127169,4
80659,127214,5
80697,127278,5
80748,127364,5
80799,127455,5
80877,127538,4
80939,127630,5
81010,127742,5
81086,127862,5
81157,127953,4
81261,128082,4
81360,128235,6
81461,128359,4
81547,128476,5
81625,128579,4
81687,128658,7
81741,128754,3
81809,128827,5
81851,128890,5
81901,128951,4
81947,129007,5
81977,129061,5
82002,129099,5
82016,129102,5
82007,129099,4
82006,129081,5
81989,129058,5
81955,129007,5
81902,128946,5
81850,128866,4
81791,128792,5
81719,128689,5
81656,128587,5
81581,128492,4
81519,128406,5
81469,128341,5
81433,128308,6
81410,128272,4
81394,128265,4
81382,128260,5
81394,128261,5
81409,128276,5
81411,128281,5
81345,128293,4
81425,128313,5
81443,128328,5
81446,128329,5
81344,128323,5
81430,128284,4
81336,128136,5
81189,127947,5
81018,127789,5
80972,127651,4
80871,127509,4
80795,127419,5
80807,127367,5
80744,127357,5
80745,127367,5
80755,127391,4
80879,127408,5
80809,127475,5
80868,127549,6
80946,127650,3
81115,127782,5
81129,127917,5
81227,128035,5
81304,128145,5
81401,128255,4
81444,128328,5
81499,128406,5
81539,128462,5
81574,128470,5
81595,128537,4
81618,128578,5
81631,128589,5
81645,128525,5
81653,128612,4
81667,128631,4
81669,128649,5
81679,128568,5
81721,128722,5
81737,128721,4
81725,128719,6
81726,128698,4
81706,128687,5
81688,128647,5
81656,128598,6
81598,128606,3
81543,128447,5
81478,128351,5
81396,128244,5
81310,128240,4
81226,128011,5
81145,127891,5
81056,127762,5
80985,127713,5
80922,127605,4
80888,127552,5
80853,127517,5
80842,127515,5
80850,127502,4
80848,127520,4
80875,127536,5
80888,127574,5
80915,127603,5
80953,127653,4
80984,127705,5
81023,127757,6
81066,127821,4
81105,127865,5
81150,127931,4
81184,127979,5
81225,128032,5
81243,128065,5
81270,128098,5
81298,128143,4
81336,128175,5
81358,128195,5
81373,128223,5
81383,128244,5
81402,128260,4
81397,128245,5
81400,128242,5
81395,128257,5
81387,128245,4
81363,128217,4
81343,128175,5
81294,128093,5
81214,127974,5
81147,127882,4
81047,127727,5
80914,127522,5
80748,127307,6
80589,127086,4
80415,126844,4
80279,126676,5
80214,126584,5
80151,126488,5
80078,126396,5
80031,126333,4
80002,126293,5
79957,126235,5
79932,126206,5
79907,126166,5
79901,126152,4
79883,126136,5
79877,126129,5
79870,126105,5
79828,126037,4
79722,125866,4
79540,125579,5
79350,125345,5
79214,125148,5
79099,124977,5
78993,124840,4
78868,124666,5
78769,124532,5
78712,124451,6
78649,124364,3
78603,124310,5
78581,124279,5
78572,124272,5
78581,124280,5
78593,124302,4
78616,124342,5
78656,124395,5
78704,124468,5
78756,124545,5
78818,124625,4
78886,124707,5
78915,124755,5
78934,124768,5
78968,124823,4
79005,124883,5
79029,124903,5
79050,124923,5
79060,124936,5
79062,124933,4
79052,124928,6
79049,124924,7
79022,124919,2
79041,124910,5
79040,124908,4
79021,124880,5
78920,124855,5
78954,124773,5
78912,124729,5
78883,124692,4
78758,124633,5
78801,124574,5
78764,124516,5
78737,124470,4
78654,124394,4
78610,124313,5
78578,124244,5
78538,124203,5
78560,124140,4
78468,124103,5
78454,124085,5
78438,124061,5
78529,124057,5
78433,124063,4
78442,124065,5
78457,124092,6
78518,124112,4
78482,124130,5
78484,124142,4
78498,124142,5
78529,124167,5
78518,124180,5
78542,124198,5
78545,124220,4
78552,124183,5
78557,124225,5
78546,124223,5
78545,124217,4
78541,124125,4
78547,124216,5
78539,124207,5
78540,124189,5
78520,124083,4
78502,124132,5
78465,124085,5
78435,124060,5
78418,124059,5
78394,123998,4
78371,123965,5
78366,123945,5
78329,123996,5
78316,123885,5
78309,123877,4
78301,123873,5
78301,123970,5
78302,123871,5
78307,123871,5
78277,123831,4
78232,123801,5
78152,123636,5
77996,123383,5
77832,123188,4
77741,123077,4
77695,123007,5
77624,122886,5
77538,122785,5
77499,122737,4
77480,122722,5
77463,122697,5
77458,122673,5
77455,122682,5
77452,122673,5
77429,122642,4
77417,122621,5
77424,122646,5
77448,122681,5
77499,122748,4
77552,122816,5
77615,122928,5
77686,123016,5
77743,123102,5
77825,123223,4
77913,123341,5
77985,123440,5
78056,123536,5
78112,123607,4
78130,123619,4
78124,123603,5
78119,123610,5
78127,123615,5
78136,123631,4
78134,123612,5
78132,123606,5
78109,123581,5
78087,123541,5
78054,123498,4
78028,123460,6
77996,123428,4
77962,123400,5
77948,123364,5
77942,123357,4
77922,123315,5
77896,123283,5
77869,123241,5
77828,123163,5
77758,123077,4
77711,123030,5
77714,123005,5
77684,122974,5
77663,122956,4
77656,122962,5
77648,122944,5
77657,122952,5
77663,122963,5
77680,122989,4
77706,123005,5
77699,123014,5
77707,123023,5
77696,123018,5
77692,123003,4
77688,122984,5
77680,122978,6
77656,122931,4
77595,122853,5
77559,122806,4
77530,122768,5
77514,122737,5
77480,122690,5
77446,122657,5
77437,122641,4
77387,122571,5
77349,122522,5
77316,122479,5
77275,122425,4
77262,122400,5
77244,122400,5
77257,122409,5
77270,122424,5
77282,122452,5
77289,122463,4
77301,122462,5
77260,122403,5
77197,122296,5
77065,122191,3
77045,122095,5
76978,121994,5
76950,121973,5
76877,121985,5
76968,122015,4
77015,122071,5
77076,122149,5
77030,122235,5
77151,122257,4
77185,122314,4
77250,122396,5
77328,122483,5
77384,122590,5
77443,122677,4
77516,122780,5
77703,122912,5
77695,123043,5
77802,123193,5
77901,123304,4
78021,123351,6
77948,123384,4
77968,123401,5
78017,123477,5
78082,123513,6
78071,123553,3
78118,123624,5
78155,123665,5
78178,123669,5
78193,123725,4
78210,123751,5
78211,123737,5
78201,123653,5
78202,123732,4
78205,123717,4
78180,123697,5
78140,123550,5
78089,123575,5
78051,123508,4
78001,123448,5
77955,123346,5
77928,123344,5
77898,123306,5
77846,123244,4
77824,123268,5
77813,123195,6
77809,123198,4
77810,123187,5
77817,123305,4
77820,123217,5
77839,123234,5
77854,123247,5
77875,123352,5
77908,123340,4
77956,123398,5
77981,123443,5
78022,123506,5
78030,123490,4
78015,123469,4
77987,123439,5
77964,123388,5
77934,123373,5
77914,123330,4
77880,123296,5
77883,123296,5
77871,123287,5
77870,123275,5
77863,123278,4
77876,123289,5
77885,123312,5
77898,123317,6
77921,123360,4
77967,123439,4
78031,123511,5
78065,123573,5
78090,123588,5
78099,123602,5
78112,123607,4
78083,123555,5
78066,123566,5
78079,123572,5
78079,123575,4
78087,123572,4
78072,123555,5
78073,123574,5
78085,123578,5
78094,123598,4
78124,123637,5
78155,123663,5
78155,123674,5
78161,123671,5
78155,123667,5
78160,123677,4
78155,123672,5
78163,123684,5
78179,123718,6
78207,123758,3
78240,123786,5
78262,123820,5
78296,123883,5
78360,123953,5
78393,124001,4
78434,124056,5
78460,124086,5
78471,124084,5
78444,124057,4
78441,124041,5
78428,124049,5
78423,124032,5
78424,124041,5
78425,124030,4
78426,124033,5
78421,124010,5
78401,124000,5
78384,123961,5
78354,123938,4
78333,123901,6
78301,123868,4
78310,123862,5
78296,123855,5
78282,123832,4
78252,123801,5
78223,123747,5
78212,123741,5
78194,123731,5
78208,123729,4
78213,123761,5
78229,123772,5
78231,123790,5
78249,123773,4
78247,123794,5
78263,123812,5
78261,123812,5
78268,123820,5
78276,123839,4
78279,123826,5
78267,123802,5
78221,123761,5
78199,123717,5
78177,123697,4
78145,123635,5
78043,123607,6
78115,123608,4
78100,123598,5
78098,123595,4
78030,123618,5
78131,123627,5
78151,123650,5
78155,123678,4
78150,123726,4
78237,123782,5
78256,123794,5
78256,123813,5
78314,123793,4
78247,123793,5
78221,123743,5
78151,123645,5
78234,123625,5
78130,123619,4
78090,123570,5
78021,123462,5
78018,123371,5
77912,123314,5
77883,123284,4
77854,123257,5
77867,123239,5
77859,123249,6
77856,123262,4
77870,123268,4
77879,123235,5
77899,123317,5
77917,123336,5
77949,123388,4
77999,123363,4
78030,123502,5
78071,123560,5
78115,123602,5
78114,123502,4
78107,123596,5
78111,123598,5
78111,123602,5
78097,123610,5
78076,123544,4
78002,123441,5
77897,123268,5
77754,123173,5
77641,122927,5
77560,122823,5
77463,122697,4
77413,122745,5
77379,122590,5
77318,122492,5
77259,122415,4
77203,122385,5
77164,122311,5
77168,122315,5
77152,122296,4
77158,122300,4
77155,122268,5
77121,122232,5
77094,122201,5
77083,122191,4
77080,122183,5
77090,122197,5
77107,122237,5
77136,122273,5
77165,122286,4
77147,122282,5
77155,122279,5
77158,122317,5
77209,122363,5
77251,122444,4
77285,122483,6
77343,122562,4
77385,122622,5
77412,122644,5
77415,122649,4
77426,122656,5
77428,122668,5
77433,122677,5
77432,122678,4
77429,122671,4
77425,122671,5
77420,122661,5
77413,122639,5
77395,122613,4
77382,122614,5
77392,122627,5
77408,122661,5
77458,122729,5
77546,122868,4
77632,122969,5
77674,123014,5
77695,123040,5
77673,122989,5
77626,122958,4
77616,122924,5
77593,122893,6
77582,122878,4
77573,122865,5
77545,122832,4
77542,122823,5
77539,122823,5
77537,122829,5
77547,122835,4
77552,122850,5
77586,122888,5
77603,122920,5
77609,122914,5
77612,122914,4
77614,122915,5
77624,122944,5
77632,122951,5
77651,122971,5
77661,122985,4
77672,123004,5
77684,123021,5
77691,123041,5
77714,123071,5
77749,123104,4
77761,123121,5
77770,123129,5
77775,123139,5
77786,123161,4
77793,123176,4
77832,123237,5
77862,123262,5
77869,123265,5
77869,123265,4
77876,123280,5
77902,123297,5
77901,123335,5
77912,123333,5
77916,123337,4
77922,123354,5
77923,123346,5
77919,123350,6
77930,123351,4
77878,123332,4
77907,123317,5
77888,123290,5
77870,123267,5
77746,123204,5
77779,123137,5
77751,123109,4
77750,123097,5
77658,123104,5
77741,123090,4
77748,123099,4
77745,123100,5
77761,123087,5
77731,123081,5
77727,123077,4
77730,123084,5
77832,123086,5
77735,123084,5
77734,123095,5
77715,123046,4
77768,123008,5
77660,122969,5
77633,122941,5
77615,122888,5
77609,122820,4
77507,122748,5
77457,122695,5
77402,122588,5
77352,122501,5
77315,122498,4
77286,122446,6
77254,122425,4
77261,122342,5
77263,122416,4
77252,122407,4
77252,122401,5
77271,122340,5
77287,122463,5
77295,122476,4
77298,122461,5
77249,122348,5
77204,122336,5
77127,122221,5
77060,122114,4
77015,122120,5
76961,121980,5
76919,121924,5
76887,121901,5
76882,121989,4
76871,121873,5
76865,121856,5
76879,121880,6
76915,122004,4
76962,122004,4
77025,122091,5
77097,122195,5
77165,122301,5
77190,122322,4
77230,122388,5
77298,122477,5
77345,122545,5
77398,122619,5
77433,122676,4
77499,122758,5
77532,122792,5
77538,122806,5
77565,122843,5
77608,122887,4
77632,122927,5
77657,122964,5
77674,123004,5
77710,123038,5
77693,123006,4
77667,122982,5
77668,122966,5
77649,122953,5
77647,122946,5
77636,122946,4
77655,122964,5
77641,122946,5
77629,122921,5
77621,122921,4
77623,122920,5
77610,122901,5
77607,122887,5
77582,122869,5
77552,122810,4
77472,122686,5
77423,122634,5
77403,122620,5
77400,122599,5
77387,122598,4
77391,122606,5
77402,122613,5
77392,122601,5
77383,122589,5
77396,122608,4
77420,122645,6
77442,122677,4
77483,122751,5
77539,122838,5
77601,122885,6
77591,122885,3
77591,122897,5
77628,122935,5
77648,122961,4
77668,122995,5
77698,123042,5
77743,123106,5
77774,123132,5
77762,123134,4
77815,123197,5
77862,123256,5
77876,123286,5
77901,123310,5
77930,123358,4
77971,123387,5
77939,123337,5
77889,123282,5
77850,123235,5
77813,123168,4
77751,123093,5
77705,123037,6
77676,122995,4
77664,122975,4
77635,122922,4
77607,122903,5
77614,122929,5
77653,122976,5
77703,123046,4
77756,123119,5
77821,123216,5
77907,123313,5
77945,123380,5
78026,123485,4
78127,123644,5
78197,123729,5
78208,123755,5
78218,123733,5
78169,123677,4
78127,123608,5
77996,123512,5
78008,123437,5
77990,123410,5
77958,123372,4
77846,123351,5
77926,123338,5
77932,123343,6
77927,123330,3
77896,123331,4
77937,123353,5
77970,123404,5
78005,123458,5
78119,123531,4
78123,123625,5
78203,123739,5
78267,123811,5
78395,123848,5
78350,123930,4
78404,124025,5
78471,124094,5
78582,124155,5
78564,124224,5
78634,124321,4
78663,124359,5
78682,124357,5
78712,124436,5
78746,124471,5
78768,124499,5
78806,124506,4
78848,124641,5
78912,124695,5
78903,124664,6
78896,124600,3
78912,124703,5
78924,124703,5
78918,124701,5
78906,124608,4
78918,124701,5
78908,124682,5
78898,124675,5
78892,124705,5
78895,124671,4
78898,124671,5
78885,124654,5
78873,124730,5
78870,124645,5
78870,124618,4
78850,124605,5
78861,124724,5
78863,124635,5
78885,124645,5
78894,124687,4
78933,124778,6
78982,124818,4
79031,124864,5
79039,124872,4
79092,124971,5
79160,125077,5
79219,125138,5
79275,125219,5
79344,125305,4
79412,125420,5
79465,125469,5
79503,125526,5
79567,125647,5
79670,125779,4
79739,125880,5
79810,125984,5
79895,126093,5
79985,126230,5
80056,126310,4
80099,126377,5
80169,126470,5
80236,126568,5
80290,126648,4
80334,126703,4
80372,126756,5
80412,126804,6
80427,126812,4
80407,126788,4
80396,126787,5
80383,126763,5
80342,126700,5
80292,126635,5
80238,126555,4
80188,126478,5
80122,126370,5
80015,126227,5
79939,126148,5
79904,126095,4
79861,126032,5
79832,125995,5
79813,125977,5
79807,125965,5
79791,125959,4
79802,125957,5
79795,125966,5
79811,125987,5
79819,126011,5
79853,126039,4
79879,126076,5
79890,126103,5
79888,126064,6
79796,125937,3
79723,125833,5
79669,125774,5
79620,125683,5
79544,125591,5
79490,125532,4
79472,125498,5
79451,125478,5
79432,125449,5
79411,125418,5
79403,125421,4
79408,125432,5
79430,125458,5
79443,125499,5
79498,125567,5
79561,125642,4
79591,125693,5
79651,125780,5
79733,125895,5
79800,125976,4
79857,126061,6
79903,126136,4
79962,126197,5
80014,126268,5
80038,126299,4
80048,126319,5
80071,126344,5
80084,126366,5
80092,126367,5
80091,126371,4
80086,126360,5
80082,126367,5
80095,126369,5
80074,126339,5
80008,126320,4
80043,126300,5
80032,126269,5
80000,126231,5
79887,126188,5
79935,126150,4
79914,126109,5
79874,126055,5
79753,126023,5
79831,126000,4
79817,125968,5
79786,125934,6
79771,125890,4
79737,125855,5
79734,125865,4
79713,125855,5
79826,125859,5
79742,125887,5
79762,125898,5
79778,125924,4
79890,125944,5
79810,125974,5
79837,126025,5
79867,126058,5
79929,126085,4
79928,126151,5
79984,126226,5
80021,126276,5
80062,126307,4
80084,126362,4
80101,126403,5
80152,126452,5
80162,126410,5
80202,126528,4
80239,126586,5
80272,126647,5
80306,126588,6
80334,126701,4
80350,126742,4
80374,126748,5
80363,126710,5
80364,126747,5
80349,126731,5
80347,126720,4
80326,126742,5
80299,126649,5
80267,126612,5
80224,126559,5
80191,126612,4
80143,126432,5
80110,126406,5
80106,126382,5
80088,126431,4
80070,126336,4
80057,126324,5
80041,126317,5
80066,126358,5
80062,126332,5
80069,126364,4
80109,126411,5
80136,126448,5
80147,126441,5
80140,126441,4
80107,126376,5
80038,126289,5
79978,126199,5
79912,126110,5
79866,126061,4
79849,126026,5
79816,125996,5
79804,125982,5
79801,125972,5
79794,125967,4
79805,125982,5
79804,126002,5
79837,126044,5
79886,126113,4
79954,126208,4
80029,126319,5
80102,126417,5
80171,126519,5
80255,126619,4
80337,126742,6
80387,126825,4
80475,126941,5
80565,127063,5
80637,127159,4
80698,127238,5
80743,127295,5
80763,127337,5
80795,127368,5
80817,127393,4
80794,127375,5
80829,127399,5
80854,127450,5
80847,127422,5
80829,127401,4
80806,127361,5
80772,127330,5
80741,127285,5
80684,127194,4
80636,127152,4
80605,127088,5
80555,126999,5
80489,126920,5
80427,126845,4
80377,126772,5
80338,126728,6
80293,126661,4
80264,126634,5
80257,126631,4
80271,126648,5
80283,126655,5
80288,126665,5
80320,126705,5
80349,126755,4
80399,126834,5
80426,126874,5
80485,126951,5
80566,127053,5
80627,127152,4
80691,127239,5
80740,127321,5
80800,127393,5
80871,127500,4
80940,127570,4
80984,127653,5
81064,127764,5
81136,127855,5
81177,127922,4
81236,127986,5
81267,128038,5
81291,128076,5
81318,128113,5
81317,128095,4
81318,128101,5
81310,128093,5
81295,128057,5
81264,128010,5
81211,127940,4
81139,127848,5
81025,127765,5
81003,127653,5
80938,127576,5
80900,127526,4
80776,127474,5
80833,127428,5
80803,127380,5
80780,127361,4
80692,127354,5
80776,127359,5
80769,127363,5
80790,127376,5
80849,127395,5
80811,127419,4
80816,127409,5
80804,127407,5
80899,127384,5
80776,127321,4
80639,127127,5
80483,126926,5
80481,126811,5
80303,126687,5
80219,126578,4
80154,126481,5
80134,126425,5
80098,126409,5
80091,126411,5
80101,126434,4
80132,126444,5
80165,126516,5
80216,126593,5
80258,126669,4
80325,126669,5
80386,126849,5
80433,126896,4
80489,126976,5
80563,126977,4
80609,127145,6
80653,127197,3
80693,127240,5
80716,127260,5
80736,127306,4
80769,127333,5
80762,127338,5
80777,127433,5
80789,127391,5
80813,127416,4
80837,127443,5
80885,127617,5
80890,127522,5
80905,127541,5
80906,127522,4
80897,127599,5
80906,127521,5
80886,127509,5
80868,127484,4
80841,127457,5
80811,127392,5
80769,127349,6
80734,127278,4
80640,127165,4
80594,127095,5
80554,127040,5
80509,126986,5
80496,126962,5
80487,126974,4
80511,126998,5
80545,127052,5
80583,127125,5
80656,127226,5
80753,127373,4
80863,127502,5
80956,127629,5
81051,127759,5
81140,127902,4
81249,128050,4
81382,128231,5
81476,128361,5
81603,128548,5
81745,128729,5
81859,128889,4
81957,129012,5
82024,129102,5
82070,129171,6
82120,129231,3
82153,129270,5
82166,129289,5
82184,129318,5
82204,129336,5
82202,129340,4
82196,129323,5
82179,129318,5
82181,129316,5
82190,129317,5
82179,129298,4
82177,129324,5
82184,129329,5
82191,129336,5
82198,129343,4
82206,129357,4
82225,129382,5
82232,129386,5
82223,129381,5
82215,129378,4
82213,129352,6
82153,129241,4
82032,129089,5
81933,128963,5
81848,128837,6
81781,128748,3
81688,128636,5
81646,128587,5
81626,128572,5
81625,128543,4
81620,128550,5
81617,128556,5
81626,128575,5
81639,128590,5
81659,128605,4
81697,128668,5
81738,128730,5
81783,128799,5
81817,128839,4
81859,128893,4
81891,128933,5
81928,128981,5
81935,128999,5
81945,128999,4
81959,129003,5
81956,129011,6
81955,129020,4
81957,129016,5
81971,129025,4
81972,129032,5
81971,129045,5
82007,129080,5
82015,129098,5
82008,129116,4
82038,129113,5
82044,129134,5
82053,129139,5
81968,129138,5
82024,129104,4
82020,129085,5
81992,129059,5
81871,129004,5
81906,128925,4
81847,128827,5
81744,128710,5
81630,128557,5
81527,128387,5
81410,128234,4
81328,128123,5
81325,128031,5
81188,127928,6
81126,127843,4
81090,127802,4
81184,127785,5
81049,127750,5
81048,127751,5
81056,127758,5
81129,127782,4
81075,127793,5
81091,127810,5
81107,127840,5
81142,127856,5
81110,127846,4
81110,127842,5
81123,127860,5
81129,127813,5
81126,127853,4
81116,127840,5
81111,127834,5
81111,127731,5
81063,127757,5
81025,127725,5
81014,127692,4
80985,127566,5
80954,127612,5
80919,127560,6
80895,127526,4
80862,127510,4
80852,127479,5
80834,127445,5
80820,127430,5
80832,127540,4
80840,127467,5
80834,127448,5
80816,127434,5
80752,127425,5
80657,127170,4
80568,127079,5
80486,126959,5
80400,126878,5
80372,126793,4
80355,126771,5
80332,126749,5
80336,126753,5
80326,126765,5
80348,126788,4
80363,126812,6
80395,126844,4
80433,126916,5
80501,127016,5
80570,127094,4
80630,127186,5
80692,127269,5
80751,127356,5
80821,127439,5
80849,127472,4
80871,127491,5
80883,127520,5
80906,127533,5
80907,127553,4
80917,127567,4
80932,127583,5
80941,127593,5
80942,127613,5
80979,127662,4
80981,127664,5
81011,127709,5
81035,127723,5
81043,127736,5
81047,127746,4
81056,127755,5
81051,127746,6
81055,127735,4
81013,127682,5
80973,127643,4
80957,127614,5
80937,127579,5
80878,127507,5
80825,127426,5
80782,127358,4
80733,127276,5
80639,127154,5
80589,127099,5
80576,127090,4
80561,127062,4
80545,127055,5
80548,127053,5
80556,127079,5
80581,127095,4
80568,127095,5
80589,127108,5
80607,127145,5
80644,127175,5
80660,127219,4
80691,127260,5
80717,127293,5
80746,127339,6
80759,127342,4
80742,127331,4
80744,127338,5
80764,127355,5
80767,127358,5
80760,127354,5
80769,127349,4
80755,127351,5
80753,127321,5
80696,127244,5
80651,127175,4
80600,127112,4
80534,127009,5
80471,126920,5
80421,126834,5
80363,126799,4
80346,126771,5
80310,126714,5
80269,126667,5
80273,126663,5
80281,126674,5
80292,126686,4
80292,126708,5
80320,126752,5
80355,126785,5
80353,126780,4
80345,126767,5
80296,126743,5
80257,126616,5
80128,126423,5
80034,126301,4
79882,126203,5
79889,126099,5
79795,125948,5
79679,125825,4
79556,125791,4
79634,125772,5
79624,125766,5
79636,125776,5
79665,125803,4
79691,125861,5
79732,125902,5
79755,125939,5
79884,126024,5
79873,126120,4
79941,126214,6
80018,126316,4
80211,126453,5
80203,126576,5
80262,126648,4
80300,126703,5
80398,126807,5
80431,126888,5
80485,126953,5
80525,127015,4
80569,127068,5
80599,127102,5
80593,127091,5
80594,127079,4
80604,127044,5
80620,127149,5
80616,127135,5
80633,127137,5
80625,127047,4
80633,127150,5
80623,127139,5
80606,127111,6
80610,127052,4
80599,127105,4
80592,127097,5
80588,127087,7
80570,127122,3
80561,127040,5
80499,126955,4
80450,126900,5
80441,126981,5
80416,126849,5
80403,126822,5
80390,126820,4
80378,126884,5
80369,126788,5
80355,126761,5
80358,126770,4
80377,126830,5
80398,126833,5
80432,126893,5
80477,126937,5
80523,127010,4
80567,127076,5
80585,127089,5
80604,127130,5
80675,127231,5
80733,127320,4
80787,127382,5
80824,127460,5
80875,127532,5
80929,127575,5
80937,127586,4
80941,127595,5
80937,127594,5
80935,127583,5
80926,127564,4
80908,127536,4
80884,127488,5
80845,127438,5
80777,127337,5
80699,127225,4
80658,127189,5
80629,127155,5
80607,127117,5
80586,127090,5
80566,127086,4
80576,127076,5
80573,127071,5
80576,127084,5
80607,127130,5
80651,127183,5
80687,127243,4
80719,127304,5
80763,127344,5
80775,127356,5
80723,127265,4
80609,127117,5
80559,127042,5
80511,126967,5
80444,126872,4
80382,126784,4
80336,126742,5
80306,126701,5
80297,126689,5
80273,126658,4
80279,126673,5
80296,126705,5
80327,126749,5
80365,126809,5
80426,126880,4
80476,126964,5
80551,127069,5
80614,127133,4
80662,127226,5
80754,127348,4
80821,127448,7
80897,127540,3
80949,127605,5
80988,127652,5
81017,127695,4
81056,127739,5
81048,127740,5
81056,127743,5
81058,127753,4
81072,127765,4
81083,127778,5
81090,127790,5
81098,127810,5
81123,127839,4
81120,127820,5
81110,127806,5
81099,127806,5
81110,127813,5
81088,127794,4
81079,127774,5
81076,127760,5
81050,127748,6
81053,127729,6
81012,127695,2
80981,127661,5
80980,127648,5
80966,127610,5
80870,127590,5
80931,127575,4
80913,127553,5
80925,127564,5
80825,127560,5
80926,127565,4
80934,127584,5
80958,127616,5
80927,127648,5
81013,127692,5
81061,127760,4
81108,127843,5
81235,127951,5
81247,128036,5
81314,128121,5
81372,128215,5
81548,128296,4
81481,128337,5
81506,128361,5
81518,128372,6
81590,128378,3
81528,128400,5
81527,128401,5
81522,128412,5
81559,128429,5
81546,128445,4
81561,128464,5
81575,128489,5
81590,128462,5
81596,128496,4
81586,128481,5
81562,128442,5
81533,128322,5
81485,128331,5
81425,128246,4
81330,128113,5
81226,127855,5
81105,127811,5
81027,127698,5
80953,127602,5
80884,127503,5
80838,127474,4
80847,127472,5
80856,127487,5
80875,127599,6
80912,127578,3
80966,127652,5
81031,127765,5
81092,127931,4
81102,127837,4
81106,127830,5
81068,127766,5
81003,127739,5
80965,127645,4
80938,127593,5
80904,127539,5
80873,127517,5
80845,127485,5
80835,127466,4
80840,127456,5
80841,127466,5
80855,127469,5
80838,127472,5
80852,127480,4
80879,127512,5
80908,127560,6
80927,127591,4
80966,127657,5
81036,127751,4
81090,127836,5
81155,127922,5
81225,128009,5
81294,128088,4
81346,128173,4
81396,128244,5
81428,128299,5
81471,128348,5
81509,128397,4
81536,128410,5
81525,128400,5
81521,128400,5
81520,128393,5
81517,128404,4
81529,128412,5
81514,128407,5
81507,128397,5
81510,128383,5
81492,128352,4
81467,128327,5
81428,128277,5
81407,128238,6
81385,128206,4
81348,128175,4
81328,128140,5
81319,128123,5
81300,128100,5
81282,128067,4
81252,128035,4
81233,128025,5
81229,128013,5
81250,128033,5
81247,128039,4
81280,128073,5
81316,128126,5
81345,128177,5
81391,128240,5
81428,128302,4
81479,128368,5
81534,128450,5
81607,128551,5
81655,128624,5
81722,128699,5
81798,128806,4
81850,128894,5
81899,128938,5
81949,129003,6
81980,129053,3
82023,129113,5
82059,129163,5
82092,129207,5
82143,129289,4
82183,129329,4
82205,129348,5
82195,129343,5
82192,129311,5
82152,129287,4
82124,129241,5
82084,129180,5
82027,129094,5
81985,129040,5
81929,128975,4
81881,128899,5
81840,128853,5
81817,128824,5
81796,128790,5
81791,128790,4
81785,128791,6
81767,128799,4
81822,128841,5
81843,128866,5
81874,128915,4
81820,128932,5
81907,128949,5
81897,128942,5
81873,128865,4
81665,128708,5
81675,128612,5
81585,128480,5
81500,128355,5
81400,128244,4
81353,128167,5
81317,128138,5
81324,128150,5
81399,128144,5
81338,128176,4
81372,128219,5
81403,128272,5
81545,128313,5
81478,128371,5
81514,128414,4
81543,128463,5
81640,128516,6
81628,128575,4
81660,128608,4
81701,128681,4
81754,128726,5
81768,128758,5
81768,128759,5
81777,128761,4
81769,128707,5
81777,128771,5
81792,128783,5
81795,128793,5
81826,128764,4
81883,128922,5
81948,129011,5
82009,129121,5
82049,129060,5
82041,129159,4
82064,129175,5
82057,129161,5
82060,129191,5
82037,129123,5
82017,129095,4
81979,129035,5
81929,129072,5
81898,128910,6
81851,128853,3
81805,128768,4
81750,128812,5
81730,128716,5
81736,128698,5
81725,128703,4
81709,128724,5
81715,128697,5
81722,128712,5
81726,128715,5
81752,128760,4
81813,128838,5
81866,128914,5
81933,128999,5
81996,129101,5
82082,129211,4
82173,129351,5
82287,129499,5
82375,129638,5
82490,129798,5
82601,129931,5
82661,130012,4
82733,130099,5
82771,130147,5
82790,130176,4
82820,130212,4
82826,130224,5
82825,130223,5
82823,130227,5
82814,130204,4
82803,130184,5
82770,130156,5
82752,130124,5
82735,130098,5
82694,130047,4
82685,130040,5
82685,130035,5
82677,130037,5
82694,130039,5
82680,130039,4
82698,130056,5
82709,130083,5
82720,130097,5
82734,130126,5
82754,130150,4
82779,130170,6
82768,130148,4
82704,130051,5
82628,129949,4
82574,129875,5
82510,129768,5
82430,129682,5
82393,129649,5
82363,129585,4
82347,129565,5
82308,129526,5
82297,129514,5
82292,129503,5
82294,129515,4
82301,129528,5
82329,129552,5
82351,129586,5
82367,129609,5
82390,129636,4
82405,129662,5
82451,129727,5
82490,129773,5
82509,129803,4
82541,129855,4
82584,129912,5
82591,129919,5
82580,129899,5
82561,129870,4
82543,129855,5
82534,129844,5
82541,129843,5
82543,129874,5
82605,129973,4
82715,130116,5
82786,130209,5
82860,130306,5
82943,130431,5
83032,130553,4
83117,130657,5
83185,130743,5
83221,130799,5
83259,130835,5
83261,130841,4
83254,130838,5
83252,130816,5
83246,130813,5
83178,130815,5
83254,130837,4
83257,130845,5
83276,130880,5
83207,130902,5
83305,130916,4
83322,130939,5
83342,130972,5
83307,131031,5
83452,131117,5
83525,130507,4
83600,130626,5
83735,130736,5
83774,130869,5
83854,130975,5
83920,131074,4
84097,131158,5
84037,131231,5
84099,131316,5
84142,131381,5
84271,131445,4
84232,131498,5
84262,131533,5
84293,131583,5
84377,131663,4
84438,131797,6
84552,131960,4
84683,132158,5
84825,132322,5
84961,132531,4
85078,132688,5
85168,132817,5
85224,132801,5
85265,132937,5
85326,133023,4
85387,133101,5
85455,133114,5
85545,133313,5
85596,133381,5
85622,133427,5
85640,133428,4
85580,133338,5
85507,133244,5
85448,133176,5
85403,133179,4
85335,133033,5
85314,133002,5
85291,132971,5
85278,133059,4
85265,132936,5
85241,132903,5
85235,132895,5
85231,132944,5
85239,132899,4
85244,132917,5
85273,132949,5
85304,133007,5
85353,133076,5
85416,133154,4
85487,133274,5
85576,133366,5
85633,133437,5
85655,133482,5
85690,133531,4
85724,133567,5
85743,133592,5
85767,133634,5
85805,133667,5
85847,133747,4
85884,133802,5
85949,133875,5
86033,134000,6
86087,134032,3
86103,134084,5
86150,134144,5
86179,134184,5
86222,134233,5
86263,134281,4
86302,134358,5
86386,134459,5
86405,134482,5
86408,134481,5
86393,134445,4
86345,134375,5
86275,134273,5
86173,134112,5
86000,133868,5
85770,133552,4
85517,133205,5
85283,132885,5
85041,132557,5
84804,132244,4
84618,131992,5
84439,131744,4
84262,131512,5
84135,131345,5
84024,131219,6
83948,131088,3
83856,130960,5
83734,130807,5
83654,130690,5
83531,130503,4
83357,130249,5
83129,129930,5
82936,129672,5
82757,129427,5
82555,129134,4
82343,128863,5
82205,128653,5
82026,128412,5
81858,128173,5
81691,127946,4
81518,127726,5
81379,127514,5
81242,127329,5
81149,127201,4
81087,127131,5
81030,127056,6
80995,127014,4
80986,126999,5
80989,127014,4
80994,127011,5
80978,126973,5
80900,126854,5
80787,126680,5
80659,126506,4
80528,126322,5
80404,126158,5
80304,126025,5
80232,125917,5
80172,125866,4
80187,125875,5
80195,125878,5
80189,125891,5
80207,125903,4
80228,125947,5
80264,125999,4
80274,126069,5
80360,126137,5
80449,126246,4
80528,126364,5
80514,126447,5
80666,126547,6
80738,126625,4
80775,126686,4
80705,126711,5
80811,126737,5
80831,126760,5
80836,126764,5
80838,126754,4
80814,126753,5
80826,126770,5
80874,126823,5
81027,126934,5
81041,127070,4
81117,127195,5
81201,127299,5
81379,127390,5
81340,127483,4
81396,127555,4
81441,127604,5
81508,127648,5
81492,127684,5
81520,127730,5
81549,127758,4
81556,127738,5
81543,127755,5
81546,127741,6
81545,127733,3
81535,127650,5
81513,127708,5
81506,127699,5
81489,127649,5
81436,127486,4
81392,127538,5
81357,127485,5
81348,127449,5
81316,127390,5
81319,127441,4
81336,127451,5
81333,127446,5
81329,127506,5
81338,127464,4
81357,127500,4
81379,127543,5
81414,127663,5
81438,127604,5
81480,127664,4
81499,127682,6
81494,127754,4
81493,127671,5
81494,127678,5
81484,127681,4
81482,127674,5
81480,127663,5
81463,127631,5
81436,127577,5
81370,127489,4
81311,127420,5
81262,127331,5
81194,127250,5
81134,127169,5
81088,127103,4
81057,127048,5
80988,126956,5
80952,126936,5
80954,126937,4
80984,126976,5
81008,127012,5
81045,127080,5
81101,127147,5
81139,127179,4
81131,127152,5
81068,127060,6
81019,126995,4
80993,126971,5
80961,126935,4
80932,126885,5
80913,126859,5
80865,126764,5
80793,126676,5
80770,126651,4
80749,126624,5
80742,126605,5
80729,126613,5
80743,126630,5
80768,126656,4
80780,126679,5
80788,126698,5
80800,126719,5
80827,126757,4
80866,126803,5
80896,126843,5
80930,126899,5
80962,126937,5
80963,126926,4
80965,126935,5
80997,126990,5
81041,127024,6
81050,127043,4
81059,127061,4
81086,127111,5
81115,127133,5
81112,127135,5
81125,127159,5
81145,127166,4
81147,127167,5
81139,127163,5
81122,127157,5
81131,127146,5
81109,127128,4
81084,127075,5
81063,127056,5
81034,127016,5
81011,126991,4
80982,126951,5
80970,126919,5
80955,126898,5
80921,126851,5
80875,126790,5
80861,126786,4
80862,126791,5
80869,126806,5
80884,126821,5
80902,126855,4
80943,126903,5
80958,126910,5
80964,126934,5
80984,126966,5
81024,127011,4
81055,127040,5
81072,127074,5
81092,127112,5
81114,127127,4
81097,127116,4
81112,127136,5
81148,127181,5
81191,127243,5
81161,127287,4
81286,127375,5
81371,127517,5
81453,127617,5
81424,127700,5
81609,127831,4
81719,127985,6
81810,128105,4
81822,128175,5
81908,128225,5
81936,128259,4
81907,128208,5
81925,128134,5
81799,128048,5
81716,127918,5
81593,127739,4
81565,127568,5
81340,127393,5
81201,127201,5
81031,126965,4
80971,126822,4
80838,126732,5
80784,126670,5
80765,126628,5
80782,126648,4
80795,126691,5
80807,126708,5
80833,126760,5
80904,126818,4
81001,126981,4
81071,127088,5
81147,127185,6
81183,127116,4
81177,127191,5
81165,127180,4
81163,127191,5
81176,127099,5
81168,127197,5
81158,127183,5
81153,127152,5
81144,127163,4
81112,127101,5
81056,127029,5
81027,126988,4
81012,127064,4
81005,126964,5
80995,126946,5
80986,126936,5
80987,127061,4
80976,126930,5
80979,126941,5
80999,126959,5
81034,127065,5
81071,127077,4
81130,127160,5
81201,127270,5
81301,127395,5
81345,127441,5
81375,127496,4
81452,127609,5
81531,127697,5
81580,127778,5
81644,127856,5
81707,127959,4
81770,128027,5
81767,127993,5
81746,127984,5
81733,127978,4
81721,127967,5
81692,127904,5
81650,127854,5
81602,127802,5
81562,127729,4
81492,127636,5
81454,127585,5
81415,127530,5
81364,127456,5
81295,127376,5
81245,127313,4
81221,127260,5
81169,127190,5
81121,127129,5
81122,127123,4
81130,127145,5
81152,127166,5
81183,127221,5
81236,127324,5
81324,127423,4
81381,127500,5
81456,127630,5
81557,127764,5
81660,127865,4
81710,127964,5
81782,128061,5
81854,128152,5
81885,128175,5
81884,128184,4
81896,128213,5
81918,128228,5
81901,128198,5
81899,128208,5
81889,128196,4
81885,128187,6
81869,128168,4
81849,128139,5
81850,128134,5
81854,128150,4
81858,128152,5
81862,128147,5
81858,128151,5
81868,128163,4
81856,128126,4
81826,128092,5
81804,128070,5
81772,128004,5
81712,127928,4
81653,127837,5
81599,127772,5
81558,127723,5
81506,127655,5
81487,127639,4
81487,127637,5
81482,127632,5
81496,127640,5
81501,127668,5
81522,127697,4
81564,127747,5
81572,127768,5
81598,127794,5
81607,127805,5
81576,127757,4
81499,127628,5
81421,127531,5
81361,127447,5
81299,127364,4
81214,127236,4
81157,127172,5
81100,127160,5
81130,127128,5
81120,127115,4
81108,127103,5
81028,127111,5
81122,127134,5
81136,127157,5
81181,127229,5
81155,127340,4
81321,127439,5
81421,127570,5
81522,127704,6
81623,127855,3
81750,128007,5
81834,128133,5
81937,128287,5
82131,128437,5
82139,128551,4
82197,128625,5
82223,128650,5
82337,128668,5
82237,128658,4
82208,128625,4
82199,128603,5
82226,128583,5
82159,128549,5
82118,128477,4
82053,128420,5
82041,128367,5
82000,128349,5
81964,128298,5
81948,128280,4
81944,128211,6
81940,128256,4
81928,128243,5
81901,128204,5
81892,128089,6
81866,128178,3
81846,128133,5
81829,128124,5
81832,128053,5
81827,128139,4
81836,128142,5
81855,128141,5
81863,128216,5
81893,128211,4
81908,128231,5
81934,128280,5
81992,128455,5
82033,128408,5
82067,128444,4
82075,128471,5
82105,128587,5
82132,128537,5
82143,128559,5
82164,128593,4
82204,128669,5
82248,128713,6
82286,128753,4
82316,128817,5
82367,128877,4
82417,128963,5
82503,129066,5
82552,129133,5
82627,129242,5
82693,129334,4
82738,129375,5
82748,129391,5
82737,129362,5
82730,129333,4
82690,129308,5
82670,129254,5
82616,129205,5
82587,129167,5
82568,129133,4
82524,129073,5
82488,129021,5
82454,128978,5
82426,128964,5
82435,128989,4
82451,128985,5
82478,129029,5
82506,129084,6
82552,129140,4
82568,129148,4
82573,129167,5
82557,129135,5
82495,129021,5
82411,128889,4
82322,128780,4
82247,128697,5
82191,128610,5
82119,128527,5
82072,128453,4
82025,128394,5
81994,128373,5
81999,128365,5
82005,128373,5
82016,128402,4
82061,128465,5
82117,128564,5
82186,128636,5
82245,128737,5
82311,128821,5
82385,128896,4
82438,128998,5
82519,129090,5
82563,129156,6
82641,129256,3
82692,129325,5
82712,129340,5
82722,129347,5
82716,129347,4
82711,129355,4
82733,129370,5
82722,129368,5
82726,129369,5
82754,129416,4
82779,129444,5
82769,129436,5
82771,129435,5
82765,129420,5
82754,129417,4
82759,129409,5
82753,129397,5
82745,129393,5
82738,129388,5
82719,129351,4
82688,129312,6
82649,129253,4
82601,129184,5
82562,129148,5
82519,129087,4
82477,129033,5
82480,129039,5
82475,129038,5
82468,129022,4
82468,129020,8
82471,129032,1
82485,129035,5
82524,129105,5
82476,129151,4
82602,129217,5
82672,129321,5
82720,129400,5
82695,129487,5
82853,129561,4
82912,129650,5
82992,129763,5
82985,129849,5
83110,129922,5
83183,130030,4
83256,130131,5
83358,130199,6
83366,130268,4
83406,130326,5
83446,130373,4
83584,130424,5
83492,130426,5
83517,130478,5
83539,130498,4
83628,130510,5
83547,130515,5
83524,130479,5
83499,130460,5
83496,130386,4
83390,130281,5
83308,130168,5
83228,130048,5
83123,129881,5
83050,129816,4
82983,129734,5
82943,129691,5
82918,129572,5
82883,129616,5
82883,129613,4
82891,129629,5
82907,129539,5
82930,129671,6
82943,129699,3
82953,129691,5
82939,129663,4
82905,129598,5
82776,129410,5
82638,129237,4
82534,129170,5
82430,128944,5
82322,128793,5
82224,128675,5
82143,128672,4
82028,128384,5
81907,128228,5
81841,128147,5
81786,128132,5
81751,128025,4
81735,128001,5
81727,128017,5
81742,128028,5
81733,128001,5
81741,128013,5
81758,128037,4
81774,128071,5
81800,128099,5
81820,128134,4
81842,128168,4
81873,128204,5
81877,128200,5
81882,128203,5
81890,128220,4
81892,128239,5
81904,128239,5
81904,128249,5
81920,128258,5
81931,128268,4
81911,128247,5
81913,128237,5
81908,128241,5
81901,128218,5
81896,128217,4
81889,128203,5
81876,128193,5
81864,128164,5
81822,128086,5
81745,128019,4
81714,127963,6
81694,127918,4
81639,127844,5
81585,127778,4
81542,127715,4
81504,127676,5
81453,127600,5
81385,127496,5
81344,127475,4
81360,127484,5
81355,127480,5
81363,127491,5
81375,127518,5
81411,127539,4
81432,127585,5
81434,127589,5
81455,127630,5
81507,127699,5
81544,127756,4
81599,127810,5
81643,127886,5
81704,127979,5
81769,128057,5
81797,128092,4
81817,128119,5
81858,128186,6
81909,128254,4
81945,128311,4
81984,128359,4
82024,128415,5
82052,128460,5
82079,128469,5
82079,128460,4
82070,128457,5
82065,128465,5
82056,128449,5
82026,128410,5
82000,128361,4
81955,128287,5
81896,128210,5
81800,128048,5
81698,127949,5
81639,127849,4
81585,127776,5
81530,127696,5
81492,127648,5
81470,127610,5
81440,127604,4
81424,127571,5
81396,127515,5
81387,127537,5
81403,127553,4
81417,127571,4
81435,127618,5
81458,127659,5
81479,127656,5
81492,127649,4
81432,127547,5
81249,127406,5
81248,127316,5
81169,127200,5
81095,127091,4
80916,126972,5
80937,126892,5
80897,126832,5
80849,126755,5
80726,126668,4
80771,126671,5
80762,126673,5
80796,126703,5
80873,126747,5
80858,126801,5
80907,126868,4
80960,126955,5
81099,126996,5
81038,127061,4
81113,127168,5
81186,127238,5
81287,127320,5
81268,127380,5
81329,127439,4
81381,127513,5
81431,127553,5
81421,127581,5
81455,127633,5
81494,127662,4
81496,127633,5
81509,127691,5
81527,127723,5
81555,127752,5
81550,127656,4
81518,127684,5
81496,127661,5
81462,127638,5
81433,127467,4
81374,127478,4
81320,127416,6
81277,127362,4
81221,127259,5
81115,127151,4
81089,127089,5
81024,127016,5
80972,127020,5
80915,126848,5
80890,126823,4
80875,126811,5
80861,126888,5
80845,126759,5
80843,126757,5
80854,126770,4
80859,126821,5
80870,126807,5
80889,126815,5
80898,126839,5
80915,126860,4
80914,126842,5
80897,126849,5
80915,126861,6
80900,126852,3
80913,126860,4
80918,126859,5
80916,126879,5
80941,126895,5
80913,126875,4
80928,126881,5
80941,126894,5
80946,126906,5
80952,126921,5
80968,126942,4
80989,126980,5
81010,126996,5
80994,126976,5
80991,126977,5
80991,126971,4
80977,126947,5
80957,126923,5
80942,126895,5
80906,126851,5
80868,126796,4
80791,126665,4
80739,126603,5
80697,126552,5
80653,126492,5
80609,126420,3
80559,126363,5
80515,126310,5
80476,126226,5
80366,126068,4
80260,125935,5
80186,125829,5
80104,125698,5
80040,125626,5
80004,125574,4
79982,125565,5
79984,125556,5
79970,125529,5
79966,125528,5
79974,125542,4
79961,125531,5
79957,125510,5
79946,125502,5
79932,125483,5
79913,125448,4
79874,125413,6
79874,125412,4
79867,125402,5
79871,125391,4
79856,125361,6
79812,125290,3
79684,125107,5
79552,124895,5
79426,124725,4
79349,124640,5
79278,124563,5
79233,124491,5
79189,124443,5
79176,124418,4
79152,124397,5
79139,124368,5
79125,124380,5
79157,124404,5
79203,124467,4
79269,124567,5
79369,124726,5
79508,124919,5
79656,125134,5
79757,125268,4
79883,125433,5
80024,125634,6
80151,125803,4
80255,125951,4
80358,126077,5
80435,126201,5
80531,126289,5
80555,126335,5
80575,126413,4
80658,126491,5
80698,126531,5
80720,126554,5
80663,126590,5
80767,126633,4
80796,126671,5
80794,126664,5
80704,126650,5
80790,126663,5
80775,126631,4
80767,126618,5
80746,126602,5
80734,126571,5
80722,126553,5
80689,126502,4
80748,126472,5
80662,126466,5
80652,126459,6
80639,126448,3
80751,126449,5
80642,126458,5
80636,126461,5
80648,126460,5
80716,126493,4
80687,126527,5
80724,126569,5
80759,126628,5
80822,126700,5
80873,126798,4
80897,126820,5
80917,126860,5
80965,126864,5
81002,126955,5
81011,126981,4
81025,127008,5
81043,126946,5
81088,127087,5
81099,127101,4
81117,127136,5
81168,127157,4
81243,127327,5
81313,127421,5
81395,127540,6
81503,127735,3
81618,127854,5
81697,127962,5
81774,128062,5
81846,128283,4
81909,128236,5
81932,128255,5
81916,128227,5
81892,128270,5
81836,128121,4
81760,127991,5
81656,127863,5
81558,127773,5
81485,127620,5
81386,127495,4
81309,127401,5
81253,127314,5
81208,127270,5
81181,127214,4
81138,127163,4
81138,127159,6
81136,127175,4
81148,127188,5
81167,127211,4
81198,127238,5
81220,127297,5
81246,127331,5
81245,127323,5
81248,127325,4
81235,127281,5
81149,127132,5
81045,127007,5
80964,126907,5
80902,126823,4
80845,126747,5
80782,126636,5
80721,126578,5
80700,126548,5
80684,126547,4
80681,126548,5
80696,126564,5
80716,126595,5
80768,126670,4
80841,126764,5
80902,126854,5
80996,127004,6
81120,127186,4
81228,127328,4
81340,127475,5
81451,127624,5
81544,127761,5
81640,127884,5
81718,127970,4
81746,128024,5
81788,128079,5
81821,128121,5
81843,128146,5
81856,128153,4
81852,128175,5
81886,128218,5
81918,128254,5
81954,128312,5
82001,128384,4
82030,128394,5
82017,128410,5
82031,128413,5
82025,128402,5
82015,128391,4
82004,128364,5
81977,128331,5
81942,128282,6
81918,128238,3
81872,128164,5
81819,128091,5
81762,128009,5
81692,127930,5
81666,127901,4
81635,127864,5
81614,127821,5
81612,127847,5
81624,127854,5
81632,127871,4
81658,127924,5
81704,127970,5
81746,128029,5
81797,128112,4
81853,128187,4
81897,128262,5
81965,128353,5
82060,128477,5
82136,128585,4
82199,128683,6
82272,128777,6
82349,128882,3
82435,128972,5
82473,129044,4
82517,129101,5
82510,129172,5
82590,129191,5
82584,129179,5
82572,129148,4
82442,129099,5
82491,129058,5
82455,128997,5
82378,128881,5
82231,128814,4
82287,128774,5
82239,128694,5
82191,128642,5
82193,128593,4
82131,128568,4
82125,128554,5
82109,128533,5
82192,128531,5
82123,128543,4
82133,128564,5
82138,128572,6
82232,128563,4
82125,128560,5
82098,128516,4
82016,128361,5
81892,128132,5
81728,127983,5
81645,127876,5
81555,127734,4
81453,127574,5
81364,127478,5
81299,127408,5
81267,127345,5
81244,127262,4
81230,127320,5
81256,127354,5
81278,127403,5
81324,127359,4
81369,127517,4
81416,127595,5
81491,127709,5
81576,127773,5
81656,127919,4
81710,127996,5
81779,128110,5
81847,128257,6
81874,128225,4
81893,128241,4
81898,128254,5
81904,128357,5
81908,128250,5
81896,128235,5
81901,128244,4
81891,128311,5
81902,128255,5
81922,128286,5
81925,128287,5
81921,128291,4
81906,128259,5
81913,128260,5
81895,128228,5
81872,128199,4
81851,128185,4
81833,128144,5
81803,128093,5
81754,128054,5
81713,127967,5
81662,127908,4
81635,127869,5
81575,127802,5
81578,127792,5
81577,127801,4
81571,127790,5
81572,127797,5
81570,127790,5
81592,127814,5
81605,127846,4
81622,127881,5
81658,127938,5
81716,128012,5
81767,128083,5
81827,128158,4
81880,128254,5
81954,128353,5
82020,128461,5
82100,128558,4
82163,128630,5
82239,128738,5
82300,128819,5
82323,128831,5
82325,128835,4
82304,128813,6
82294,128795,4
82272,128744,5
82194,128654,5
82140,128551,4
82092,128495,5
82030,128406,5
81960,128331,5
81915,128263,5
81877,128206,4
81840,128164,5
81815,128136,5
81792,128110,5
81805,128124,5
81817,128139,4
81822,128165,5
81840,128170,5
81848,128172,5
81844,128169,4
81800,128091,5
81689,127924,5
81613,127838,5
81570,127786,5
81525,127725,4
81496,127678,5
81473,127648,6
81449,127627,4
81439,127626,5
81437,127604,4
81421,127594,5
81440,127606,5
81452,127630,5
81473,127654,5
81491,127690,4
81529,127734,5
81559,127788,5
81593,127847,5
81640,127894,4
81668,127935,4
81724,128025,5
81796,128111,5
81840,128169,5
81887,128235,4
81929,128299,5
81956,128334,5
81992,128384,5
82003,128384,5
81991,128385,4
82033,128432,5
82061,128482,5
82108,128538,5
82060,128544,5
82118,128542,4
82108,128538,5
82086,128486,5
81950,128436,5
82010,128395,5
81971,128335,4
81919,128236,5
81786,128155,5
81785,128068,5
81726,127986,4
81665,127906,4
81613,127763,5
81497,127690,5
81483,127657,5
81472,127646,4
81568,127644,6
81479,127645,4
81470,127668,5
81495,127687,5
81594,127707,5
81539,127737,3
81578,127819,5
81626,127878,5
81695,127928,5
81704,127991,4
81761,128058,5
81808,128142,5
81872,128177,5
81887,128228,5
81921,128281,4
81957,128337,5
81981,128279,5
81989,128373,5
81987,128374,4
81981,128356,4
81973,128238,5
81939,128291,5
81886,128204,5
81847,128163,5
81813,128092,4
81757,128034,6
81706,127976,4
81684,127937,5
81668,128001,4
81662,127905,7
81635,127881,3
81636,127885,5
81648,128021,5
81677,127947,4
81709,127996,5
81748,128064,5
81802,128184,5
81824,128149,5
81819,128136,4
81778,128058,5
81703,127973,5
81651,127881,5
81605,127845,4
81584,127807,4
81559,127778,5
81546,127751,5
81519,127714,5
81502,127704,4
81500,127699,5
81505,127702,5
81513,127716,6
81526,127731,4
81569,127788,4
81589,127842,5
81629,127880,5
81677,127966,5
81738,128041,5
81776,128101,4
81825,128158,5
81879,128227,5
81930,128311,5
81977,128339,5
81986,128384,4
82018,128433,5
82068,128478,5
82087,128523,5
82109,128535,4
82118,128560,5
82138,128590,5
82169,128612,5
82160,128605,5
82167,128641,5
82185,128656,4
82179,128642,5
82180,128629,5
82174,128626,6
82173,128616,3
82125,128546,5
82069,128473,5
82048,128431,5
81998,128376,5
81942,128297,4
81880,128202,5
81811,128122,5
81762,128033,5
81678,127905,5
81591,127808,4
81564,127762,5
81534,127743,5
81514,127694,5
81496,127683,4
81498,127694,5
81510,127718,5
81524,127719,5
81523,127733,5
81551,127773,4
81584,127802,6
81598,127836,4
81623,127879,5
81655,127915,5
81688,127975,6
81727,127997,3
81742,128018,5
81774,128085,5
81822,128147,5
81849,128177,4
81869,128215,5
81910,128271,5
81958,128331,5
81983,128352,5
81984,128359,4
82003,128381,5
82018,128399,5
82012,128399,5
82007,128398,4
81991,128367,5
81973,128334,5
81915,128252,5
81826,128101,5
81738,127981,4
81645,127855,5
81535,127734,6
81463,127602,4
81402,127531,5
81371,127507,4
81280,127478,5
81330,127461,5
81339,127458,5
81353,127491,5
81278,127523,4
81417,127571,5
81462,127621,5
81489,127683,5
81498,127766,5
81587,127812,4
81603,127831,5
81634,127866,5
81646,127804,5
81530,127701,4
81462,127625,5
81437,127574,5
81501,127524,5
81343,127443,5
81312,127421,4
81311,127424,5
81393,127417,5
81315,127417,6
81324,127444,4
81345,127463,4
81414,127522,5
81411,127557,5
81448,127621,5
81523,127711,5
81582,127765,4
81644,127893,5
81724,128001,5
81792,128098,5
81869,128126,5
81924,128280,4
81975,128344,5
82039,128437,5
82108,128427,5
82153,128590,4
82195,128646,5
82228,128686,5
82257,128703,5
82285,128768,5
82299,128770,5
82300,128783,4
82333,128894,5
82371,128883,5
82376,128897,6
82384,128895,3
82386,129008,5
82388,128897,5
82393,128898,5
82371,128866,5
82346,128921,4
82354,128856,5
82355,128853,5
82342,128831,5
82317,128825,5
82303,128786,4
82296,128770,5
82283,128733,5
82236,128697,5
82232,128693,4
82247,128684,5
82236,128690,5
82217,128677,5
82232,128692,5
82237,128699,4
82244,128719,6
82246,128711,4
82259,128736,5
82293,128776,5
82324,128816,4
82353,128869,5
82379,128911,5
82420,128961,5
82474,129038,5
82512,129087,4
82542,129135,5
82615,129237,5
82670,129307,5
82714,129372,4
82743,129406,4
82780,129445,5
82796,129480,5
82808,129503,5
82808,129493,4
82809,129492,5
82804,129467,5
82771,129430,5
82730,129375,5
82665,129285,4
82592,129185,5
82515,129059,6
82391,128902,4
82302,128790,5
82236,128686,4
82161,128598,5
82105,128522,5
82057,128467,5
82028,128439,5
82037,128435,4
82027,128439,5
82035,128460,5
82059,128475,5
82082,128510,4
82104,128553,4
82126,128588,5
82145,128610,5
82158,128626,5
82145,128582,4
82066,128463,5
81991,128366,5
81934,128293,5
81892,128226,5
81837,128155,4
81790,128101,5
81774,128073,5
81770,128072,6
81753,128049,4
81751,128048,4
81761,128069,5
81779,128093,5
81806,128122,5
81839,128176,5
81884,128244,4
81930,128315,5
81989,128380,5
82030,128443,5
82089,128526,4
82158,128616,4
82209,128672,5
82249,128735,5
82275,128778,5
82288,128796,4
82327,128838,5
82333,128847,5
82345,128858,5
82353,128885,5
82382,128912,5
82393,128930,4
82405,128946,5
82364,128976,5
82481,129052,5
82505,129070,4
82496,129069,5
82397,129077,5
82508,129077,5
82494,129061,5
82490,129040,4
82413,129016,5
82444,128990,5
82417,128955,5
82382,128891,4
82393,128831,4
82309,128786,5
82267,128738,5
82237,128691,5
82314,128658,4
82178,128620,5
82170,128616,5
82167,128605,5
82231,128609,5
82176,128626,4
82199,128656,6
82218,128706,4
82284,128748,5
82289,128795,5
82335,128856,4
82393,128915,5
82443,128951,5
82481,129044,5
82516,129109,5
82571,129188,4
82621,129161,5
82649,129281,5
82683,129303,5
82693,129344,5
82722,129261,4
82725,129370,5
82733,129380,5
82737,129403,5
82747,129411,4
82718,129374,5
82714,129352,5
82684,129322,6
82660,129373,4
82605,129209,4
82547,129125,5
82508,129070,7
82462,129122,3
82419,128954,5
82378,128894,4
82349,128850,5
82315,128871,5
82314,128803,5
82297,128787,5
82299,128789,4
82317,128826,5
82336,128844,5
82367,128885,5
82386,128911,4
82413,128937,5
82415,128948,5
82403,128918,5
82324,128795,5
82229,128655,4
82151,128576,5
82088,128478,5
82008,128367,5
81931,128269,5
81877,128203,4
81858,128176,5
81835,128136,5
81813,128128,5
81815,128133,5
81844,128170,4
81872,128221,5
81904,128264,5
81960,128330,5
82025,128427,4
82100,128529,4
82154,128618,5
82212,128697,5
82304,128834,5
82373,128916,4
82436,129000,5
82481,129066,5
82531,129117,5
82570,129166,5
82600,129208,4
82613,129227,5
82632,129261,5
82664,129293,5
82682,129344,5
82721,129377,5
82740,129420,3
82773,129446,5
82774,129442,5
82769,129440,5
82738,129399,4
82730,129399,5
82722,129363,5
82687,129328,5
82658,129282,4
82623,129235,4
82583,129176,5
82540,129136,5
82499,129058,5
82434,128981,4
82403,128929,5
82367,128888,5
82349,128865,5
82352,128859,5
82342,128872,4
82347,128878,5
82355,128889,6
82386,128924,4
82406,128950,5
82443,129036,4
82502,129087,7
82543,129155,3
82591,129217,5
82645,129292,5
82690,129375,4
82746,129455,5
82804,129518,5
82840,129579,5
82895,129664,4
82951,129738,4
82997,129783,5
83016,129818,5
83024,129822,5
83024,129817,4
83026,129828,5
83030,129825,5
83029,129833,5
83032,129843,5
83036,129845,4
82996,129840,5
83022,129816,5
82994,129773,6
82941,129716,4
82816,129640,4
82838,129565,5
82772,129460,5
82707,129384,5
82558,129306,5
82604,129241,4
82563,129175,5
82520,129140,5
82482,129092,5
82467,129065,4
82453,129052,5
82465,129055,5
82550,129071,5
82477,129082,5
82488,129089,4
82492,129090,5
82605,129089,5
82489,129087,5
82461,129040,5
82349,128847,5
82245,128641,4
82090,128520,5
82033,128437,5
81961,128330,6
81907,128256,3
81865,128212,5
81846,128178,5
81837,128177,5
81832,128120,5
81835,128189,4
81869,128227,5
81894,128265,5
81925,128217,5
81963,128355,4
82000,128418,5
82043,128481,5
82075,128430,5
82120,128564,5
82170,128642,4
82206,128709,5
82255,128784,4
82281,128791,5
82309,128814,5
82316,128838,4
82335,128953,6
82326,128850,4
82327,128854,5
82339,128860,5
82326,128949,4
82322,128848,5
82329,128857,5
82331,128857,5
82329,128867,4
82310,128819,4
82297,128794,5
82287,128787,5
82268,128744,5
82215,128693,4
82181,128626,5
82130,128572,5
82083,128488,5
81997,128382,5
81950,128315,4
81920,128267,5
81882,128214,5
81848,128164,5
81810,128122,5
81801,128109,4
81791,128096,5
81774,128075,6
81772,128070,4
81785,128085,5
81794,128102,4
81799,128116,5
81827,128163,5
81864,128210,5
81902,128266,4
81929,128291,4
81970,128376,5
82040,128462,5
82100,128547,5
82162,128630,4
82212,128694,5
82270,128778,5
82312,128827,5
82320,128832,5
82324,128822,4
82321,128820,5
82301,128798,5
82279,128755,5
82237,128704,5
82195,128641,4
82138,128574,5
82088,128496,5
82021,128391,6
81956,128319,4
81933,128273,4
81899,128243,5
81871,128224,5
81878,128213,5
81865,128205,4
81875,128219,5
81893,128248,5
81907,128269,5
81918,128287,5
81955,128342,4
81976,128364,5
81975,128366,5
81964,128335,5
81912,128246,5
81847,128170,4
81824,128120,5
81770,128065,5
81744,128026,5
81729,128007,5
81725,128000,5
81721,127999,4
81718,128002,5
81720,128018,5
81745,128024,5
81752,128055,4
81787,128115,5
81847,128183,5
81904,128268,5
81970,128345,4
82020,128420,5
82073,128517,5
82132,128578,5
82173,128614,5
82203,128688,4
82256,128747,5
82289,128799,5
82312,128829,5
82338,128856,5
82356,128890,4
82363,128899,5
82360,128888,5
82302,128882,5
82367,128906,5
82382,128937,4
82424,128958,6
82314,128949,4
82394,128928,5
82385,128900,4
82346,128861,4
82229,128816,5
82288,128786,5
82243,128729,5
82195,128656,4
82182,128578,5
82078,128505,5
82010,128369,5
81891,128216,5
81909,128111,4
81745,128030,5
81682,127946,5
81652,127890,5
81701,127868,5
81609,127859,4
81607,127848,5
81601,127849,5
81651,127871,5
81626,127894,5
81652,127932,4
81690,127981,5
81734,128020,6
81784,128114,4
81812,128149,4
81847,128181,4
81899,128190,5
81931,128321,5
81969,128379,5
82006,128428,5
82062,128393,4
82108,128550,5
82109,128558,5
82128,128577,5
82141,128585,4
82163,128624,5
82164,128641,5
82183,128647,5
82191,128740,5
82200,128668,4
82194,128655,5
82171,128637,5
82159,128723,5
82117,128551,5
82057,128443,4
81959,128320,5
81863,128217,5
81736,127997,5
81577,127758,4
81443,127591,5
81341,127449,5
81227,127308,5
81159,127211,5
81120,127168,4
81116,127174,5
81113,127152,5
81089,127125,5
81102,127150,5
81108,127167,4
81140,127185,5
81155,127227,5
81196,127293,5
81266,127379,5
81285,127382,4
81285,127391,5
81262,127359,5
81189,127238,5
81116,127141,5
81067,127086,5
81027,127031,4
81003,126961,5
80921,126869,5
80884,126850,4
80881,126837,5
80880,126825,5
80876,126826,5
80888,126841,5
80908,126889,4
80942,126932,5
80971,126976,5
81024,127046,5
81087,127140,5
81156,127233,4
81242,127349,5
81333,127466,5
81433,127627,5
81505,127706,5
81553,127774,4
81627,127873,5
81690,127956,5
81731,128025,5
81770,128083,4
81812,128128,4
81852,128175,6
81862,128187,4
81868,128199,5
81887,128230,4
81911,128253,5
81933,128297,5
81943,128314,5
81965,128310,5
81957,128315,4
81933,128295,5
81934,128280,5
81928,128268,5
81904,128230,5
81873,128190,4
81852,128157,5
81829,128137,5
81806,128097,5
81746,128018,5
81707,127965,4
81693,127946,5
81674,127911,5
81651,127904,5
81637,127878,4
81636,127888,4
81641,127880,5
81635,127865,5
81652,127887,5
81667,127921,4
81681,127947,5
81715,127980,5
81748,128033,8
81788,128084,2
81828,128167,4
81851,128175,5
81885,128233,5
81942,128297,5
81972,128345,5
82001,128397,4
82014,128447,5
82081,128513,5
82135,128585,5
82173,128609,5
82112,128629,4
82218,128682,5
82235,128719,5
82257,128727,5
82161,128739,5
82256,128741,4
82243,128705,5
82218,128666,5
82128,128602,5
82117,128523,4
82074,128466,5
82021,128387,5
82036,128326,5
81920,128257,5
81884,128218,4
81879,128208,5
81969,128190,5
81853,128184,5
81876,128207,5
81892,128236,4
81971,128276,5
81954,128320,5
81968,128364,5
82008,128420,5
82076,128463,4
82066,128473,5
82060,128472,5
82033,128412,5
81959,128249,4
81894,128238,5
81869,128175,3
81836,128139,5
81795,128018,5
81778,128073,4
81761,128049,5
81741,128044,5
81761,127954,5
81765,128072,5
81783,128097,4
81805,128132,5
81841,128199,5
81893,128257,5
81939,128312,5
81983,128376,4
82037,128546,5
82094,128541,5
82135,128573,5
82155,128619,5
82174,128747,4
82211,128683,5
82245,128720,6
82244,128727,4
82246,128782,4
82261,128757,4
82276,128775,5
82283,128780,5
82291,128789,5
82299,128792,4
82311,128820,5
82328,128840,5
82323,128828,5
82316,128820,5
82304,128819,4
82300,128807,5
82301,128792,5
82272,128775,5
82271,128752,5
82238,128728,4
82219,128680,5
82142,128580,5
82084,128482,5
81999,128380,5
81926,128254,4
81827,128144,5
81761,128051,5
81732,128023,6
81715,127996,3
81700,127968,5
81663,127925,5
81651,127910,5
81648,127903,5
81627,127855,4
81596,127829,5
81578,127798,5
81569,127811,5
81581,127829,5
81594,127842,4
81617,127882,5
81663,127963,5
81710,128033,5
81763,128088,5
81796,128149,4
81852,128209,5
81889,128282,5
81953,128346,5
81978,128389,5
82030,128472,5
82085,128542,4
82128,128597,5
82142,128621,5
82144,128615,6
82142,128599,3
82125,128579,5
82107,128575,5
82086,128524,5
82058,128488,4
82027,128443,5
81980,128371,5
81941,128324,5
81912,128277,5
81874,128248,4
81864,128220,5
81864,128227,5
81852,128222,5
81867,128239,5
81898,128264,4
81910,128294,5
81931,128336,5
81963,128375,5
81987,128396,4
81994,128409,4
81987,128384,6
81939,128317,4
81868,128227,5
81841,128186,4
81806,128152,5
81774,128085,5
81732,128036,5
81696,127982,5
81673,127950,4
81653,127931,5
81652,127932,5
81646,127919,5
81643,127934,5
81672,127964,4
81697,128007,5
81737,128071,5
81757,128153,5
81871,128269,5
81964,128373,4
82030,128477,5
81989,128531,5
82138,128619,5
82210,128703,4
82233,128730,4
82172,128785,5
82284,128811,6
82298,128828,4
82318,128853,4
82339,128844,5
82320,128845,5
82326,128872,5
82344,128882,5
82441,128887,4
82354,128908,5
82348,128878,5
82343,128872,5
82446,128888,5
82341,128874,4
82331,128863,5
82329,128865,5
82350,128828,5
82285,128812,5
82246,128746,4
82206,128687,5
82163,128597,5
82115,128566,5
82062,128482,5
82032,128433,4
82025,128383,5
82020,128443,5
82024,128434,6
82023,128439,3
82022,128352,4
82048,128480,5
82065,128504,5
82085,128546,5
82127,128544,4
82194,128694,5
82268,128807,5
82345,128885,5
82392,129039,5
82449,129044,4
82501,129116,5
82558,129194,5
82603,129370,5
82657,129332,5
82705,129407,4
82762,129469,5
82775,129564,5
82792,129510,5
82803,129527,4
82813,129535,6
82814,129542,4
82790,129493,5
82764,129466,5
82734,129420,4
82690,129348,5
82623,129243,5
82540,129138,5
82468,129043,5
82403,128962,4
82362,128902,5
82318,128843,5
82305,128833,5
82307,128844,5
82311,128844,4
82319,128857,5
82320,128879,5
82347,128909,5
82380,128954,5
82413,128994,4
82428,129006,5
82443,129055,5
82459,129031,5
82389,128939,4
82322,128834,5
82264,128763,6
82189,128667,4
82127,128572,5
82069,128497,4
82022,128439,5
81993,128398,5
81973,128396,5
81983,128391,5
81985,128404,4
81997,128424,5
82024,128459,5
82051,128520,5
82110,128586,5
82159,128654,4
82208,128722,5
82287,128830,5
82345,128905,5
82386,128969,5
82432,129013,4
82463,129054,5
82486,129092,5
82509,129128,5
82524,129161,4
82549,129162,5
82563,129192,5
82577,129221,6
82590,129235,4
82603,129245,4
82604,129247,5
82618,129275,5
82648,129305,5
82635,129310,5
82636,129280,4
82633,129290,5
82625,129273,5
82609,129255,5
82578,129213,5
82548,129159,4
82509,129107,5
82470,129054,5
82436,129009,5
82382,128941,4
82357,128895,4
82331,128866,5
82302,128833,5
82275,128794,5
82253,128764,5
82257,128768,4
82255,128776,5
82264,128793,5
82288,128814,5
82319,128872,4
82385,128963,5
82435,129043,5
82485,129112,5
82536,129186,5
82576,129233,4
82619,129289,5
82652,129331,5
82698,129389,5
82724,129420,5
82696,129490,4
82814,129554,5
82857,129602,5
82878,129646,5
82807,129668,4
82920,129676,4
82928,129686,5
82914,129689,5
82863,129672,5
82901,129656,4
82875,129639,6
82863,129598,4
82888,129561,5
82791,129487,5
82737,129418,4
82690,129370,5
82754,129307,5
82629,129276,5
82606,129259,5
82604,129258,4
82698,129286,5
82653,129309,5
82666,129348,5
82677,129368,5
82722,129381,4
82703,129390,5
82686,129366,5
82637,129275,5
82553,129141,4
82501,129122,4
82475,129060,5
82417,128992,6
82370,128845,4
82328,128866,4
82300,128826,5
82275,128803,5
82265,128694,5
82253,128767,5
82256,128781,4
82272,128806,5
82299,128830,5
82317,128873,5
82345,128908,5
82383,128946,4
82420,129082,5
82461,129071,5
82496,129120,5
82548,129172,5
82573,129334,4
82612,129270,5
82627,129300,5
82652,129322,5
82656,129389,4
82683,129353,5
82701,129386,5
82709,129398,5
82714,129421,5
82739,129440,4
82782,129505,5
82802,129524,5
82808,129525,5
82807,129525,5
82808,129533,4
82812,129524,5
82796,129515,5
82784,129505,5
82780,129493,5
82783,129489,4
82771,129483,5
82759,129460,5
82740,129436,5
82727,129418,5
82710,129395,4
82673,129357,5
82664,129343,5
82680,129350,5
82666,129345,4
82661,129351,4
82666,129340,5
82665,129344,5
82670,129351,5
82683,129376,5
82697,129380,4
82721,129416,5
82749,129469,5
82780,129507,5
82811,129548,4
82834,129585,5
82877,129632,5
82914,129683,5
82943,129717,5
82950,129729,4
82968,129764,5
82991,129798,5
82993,129796,5
82995,129778,5
82994,129769,4
82968,129749,5
82942,129703,5
82903,129660,5
82834,129567,4
82818,129530,5
82769,129492,5
82733,129421,5
82689,129366,5
82654,129325,4
82630,129304,6
82623,129278,4
82593,129246,5
82602,129270,5
82624,129282,4
82625,129286,5
82634,129274,5
82614,129266,5
82567,129179,5
82444,128989,4
82330,128855,5
82209,128670,5
82115,128570,5
82050,128464,5
81960,128331,4
81884,128224,5
81834,128159,5
81789,128115,5
81754,128080,4
81731,128036,5
81720,128026,5
81737,128043,5
81755,128080,5
81783,128143,3
81844,128205,5
81895,128289,5
81968,128389,5
82045,128494,5
82105,128568,4
82156,128642,5
82210,128733,5
82242,128799,5
82321,128864,5
82366,128929,4
82417,128983,5
82381,129036,5
82455,129048,5
82486,129081,4
82505,129124,4
82444,129162,5
82583,129218,5
82592,129236,5
82614,129252,5
82581,129250,4
82607,129251,5
82607,129250,5
82591,129233,6
82664,129230,3
82593,129230,5
82583,129208,5
82560,129193,5
82630,129125,5
82469,129043,4
82426,128997,5
82389,128937,5
82410,128871,5
82298,128823,5
82276,128781,4
82255,128756,5
82249,128717,5
82208,128696,5
82211,128699,4
82212,128697,4
82215,128663,5
82219,128724,5
82230,128746,5
82252,128763,4
82253,128678,6
82272,128799,4
82317,128849,5
82328,128868,5
82347,128789,6
82368,128936,3
82396,128967,5
82409,128984,5
82420,129018,5
82426,128995,4
82430,129013,5
82448,129032,5
82454,129143,5
82468,129056,5
82490,129082,4
82490,129093,5
82491,129195,5
82493,129105,5
82508,129101,4
82504,129109,4
82497,129153,5
82495,129103,5
82495,129095,5
82495,129079,4
82466,129083,5
82471,129055,6
82450,129044,4
82443,129028,5
82429,129005,4
82413,128976,5
82348,128886,5
82301,128807,5
82232,128711,5
82140,128569,4
82024,128402,5
81916,128262,5
81804,128122,5
81729,128025,5
81673,127944,4
81637,127916,5
81640,127901,5
81635,127900,5
81631,127903,4
81637,127911,4
81644,127926,5
81650,127929,5
81673,127966,5
81698,128002,4
81741,128047,5
81753,128085,5
81799,128150,6
81854,128226,4
81899,128281,4
81918,128279,5
81891,128236,5
81799,128109,5
81716,128005,5
81671,127940,4
81637,127880,5
81581,127820,5
81541,127756,5
81485,127683,5
81463,127653,4
81446,127637,5
81436,127631,5
81440,127625,5
81452,127648,4
81465,127658,4
81477,127690,5
81506,127724,5
81545,127781,5
81594,127860,5
81669,127948,4
81726,128052,5
81808,128156,5
81850,128189,6
81911,128293,3
81989,128404,5
82059,128497,5
82114,128569,5
82165,128647,5
82210,128708,4
82267,128769,5
82281,128799,5
82307,128829,5
82329,128857,5
82350,128888,4
82364,128913,5
82395,128969,5
82396,128951,5
82395,128954,4
82387,128950,4
82400,128946,5
82386,128939,5
82380,128927,5
82367,128915,4
82362,128898,6
82332,128861,4
82307,128828,5
82280,128795,5
82266,128763,4
82221,128707,5
82189,128651,5
82159,128621,5
82096,128542,5
82029,128511,4
82072,128497,5
82059,128494,5
82057,128488,5
81965,128498,5
82061,128497,4
82069,128496,5
82071,128503,5
81973,128518,5
82082,128554,4
82105,128567,5
82124,128602,5
82165,128617,5
82176,128654,5
82180,128655,4
82187,128681,5
82304,128724,6
82244,128758,4
82253,128792,5
82286,128821,4
82420,128857,5
82318,128879,5
82335,128883,5
82345,128900,5
82396,128912,4
82366,128918,5
82357,128925,5
82361,128924,5
82362,128891,4
82332,128863,4
82312,128863,5
82314,128850,5
82295,128737,5
82266,128783,4
82236,128729,5
82194,128667,5
82132,128464,5
82021,128418,5
81908,128262,4
81797,128126,5
81687,127907,5
81582,127812,6
81486,127674,4
81409,127575,5
81351,127558,4
81283,127403,5
81254,127381,5
81255,127387,5
81253,127498,4
81271,127405,5
81301,127452,5
81323,127496,5
81352,127611,4
81373,127555,4
81406,127616,5
81448,127661,5
81462,127698,5
81467,127683,4
81443,127614,5
81349,127484,5
81230,127347,5
81166,127249,5
81104,127157,5
81032,127050,4
80964,126978,5
80931,126930,5
80916,126906,5
80909,126907,4
80912,126919,5
80930,126930,5
80958,126964,5
80989,127032,5
81051,127104,4
81098,127190,5
81195,127299,5
81236,127364,5
81315,127467,4
81399,127591,4
81469,127687,5
81543,127782,5
81598,127868,5
81657,127941,4
81694,127978,5
81711,128018,5
81739,128048,5
81761,128087,5
81789,128117,4
81800,128146,6
81829,128159,4
81850,128199,5
81863,128233,5
81894,128284,4
81937,128319,5
81941,128328,5
81935,128312,5
81943,128322,5
81928,128305,4
81916,128288,5
81904,128255,5
81869,128221,5
81834,128170,4
81810,128120,4
81770,128069,5
81720,128007,5
81678,127956,5
81634,127900,4
81602,127853,5
81565,127797,5
81556,127796,5
81553,127792,5
81564,127808,4
81568,127822,5
81584,127851,6
81619,127882,4
81657,127932,5
81688,127998,4
81744,128076,5
81807,128166,5
81879,128262,5
81944,128358,5
82000,128445,4
82081,128541,5
82139,128636,5
82184,128695,5
82246,128770,4
82292,128840,5
82346,128889,5
82373,128943,5
82398,128978,5
82428,129013,4
82459,129052,5
82490,129088,5
82512,129133,5
82539,129166,5
82552,129188,4
82564,129206,5
82579,129214,5
82565,129218,5
82574,129219,5
82578,129190,4
82551,129177,5
82463,129146,5
82501,129109,5
82458,129040,5
82391,128955,4
82227,128844,5
82222,128715,5
82135,128588,5
82034,128445,4
81895,128331,5
81876,128241,5
81820,128148,5
81762,128074,5
81778,128054,4
81717,128039,5
81720,128043,5
81724,128058,5
81846,128064,5
81747,128080,5
81761,128106,4
81781,128140,5
81879,128158,5
81811,128176,5
81825,128189,4
81829,128180,5
81829,128143,5
81721,128013,5
81591,127838,4
81502,127719,4
81430,127586,5
81360,127518,5
81284,127414,5
81248,127360,4
81202,127252,5
81208,127326,5
81212,127342,5
81236,127368,5
81257,127323,4
81323,127505,5
81388,127609,5
81459,127713,5
81559,127833,5
81650,127970,4
81751,128104,6
81833,128234,4
81917,128423,5
82004,128455,5
82077,128566,4
82146,128651,5
82205,128844,5
82247,128788,5
82278,128827,4
82297,128850,4
82295,128909,5
82320,128865,5
82319,128875,5
82321,128871,4
82330,128911,5
82349,128926,5
82351,128918,5
82340,128901,5
82324,128877,4
82301,128853,5
82281,128827,5
82247,128776,5
82222,128732,4
82178,128689,4
82142,128635,5
82103,128572,5
82059,128510,5
82017,128430,5
81954,128374,4
81915,128317,5
81875,128265,5
81860,128243,5
81847,128236,4
81851,128237,4
81843,128251,5
81868,128262,5
81885,128285,5
81910,128329,4
81939,128366,5
81982,128419,5
82032,128499,5
82085,128590,5
82168,128706,5
82250,128815,4
82323,128907,5
82399,129028,5
82487,129131,6
82566,129242,3
82638,129348,5
82717,129454,5
82779,129554,5
82868,129649,5
82936,129749,4
82985,129820,5
83041,129881,5
83084,129946,5
83099,129979,4
83101,129959,4
83090,129942,5
83059,129900,5
83019,129829,5
82943,129733,4
82851,129595,5
82746,129463,5
82659,129333,5
82570,129217,5
82494,129115,4
82433,129041,6
82394,128979,4
82348,128928,5
82333,128911,5
82323,128901,6
82332,128916,3
82341,128928,5
82352,128937,5
82384,128984,5
82415,129039,4
82433,129051,5
82440,129065,5
82426,129046,5
82410,128986,4
82310,128847,5
82208,128714,5
82138,128626,5
82083,128551,5
82042,128487,4
82012,128458,5
82006,128455,5
82016,128468,5
82027,128486,5
82058,128521,4
82089,128583,5
82144,128661,6
82216,128774,4
82308,128888,5
82379,129031,4
82507,129176,5
82608,129317,5
82711,129447,5
82720,129570,5
82880,129683,4
82947,129742,5
82970,129789,5
82899,129809,5
83018,129848,4
83029,129861,5
83042,129861,5
83021,129877,5
83053,129884,5
83044,129878,4
83060,129884,5
83118,129886,5
83057,129910,5
83063,129894,5
83046,129874,4
83148,129866,5
83030,129849,5
83006,129813,6
82979,129774,4
83010,129730,4
82907,129669,5
82862,129609,5
82815,129541,5
82772,129455,5
82700,129394,4
82652,129317,5
82614,129270,5
82589,129203,5
82584,129232,4
82571,129237,5
82585,129253,5
82595,129177,5
82621,129283,5
82643,129335,4
82671,129380,5
82716,129332,5
82776,129510,5
82831,129605,5
82900,129703,5
82988,129844,4
83068,129942,5
83166,130060,5
83252,130167,6
83329,130376,3
83375,130349,5
83405,130392,5
83422,130405,5
83420,130511,4
83423,130394,4
83408,130382,5
83397,130374,5
83383,130404,5
83383,130346,4
83365,130329,5
83351,130307,5
83339,130294,5
83322,130272,5
83308,130272,4
83316,130252,5
83303,130235,5
83307,130246,5
83307,130247,5
83315,130260,4
83339,130305,6
83368,130341,4
83395,130379,5
83405,130379,5
83402,130379,4
83349,130281,5
83272,130178,5
83190,130070,5
83113,129954,4
83012,129813,4
82903,129660,5
82821,129566,5
82778,129504,5
82742,129464,4
82735,129452,5
82729,129465,5
82751,129476,5
82774,129533,5
82824,129594,4
82870,129669,5
82942,129776,5
83016,129887,5
83104,129997,5
83183,130107,4
83273,130215,5
83345,130304,6
83392,130391,4
83455,130465,5
83508,130539,4
83542,130600,5
83589,130671,5
83631,130715,5
83668,130767,4
83706,130813,4
83738,130869,5
83799,130953,5
83872,131046,5
83894,131064,4
83924,131103,5
83935,131122,5
83952,131146,5
83955,131145,5
83950,131137,4
83932,131127,5
83931,131111,5
83924,131094,5
83901,131080,5
83893,131055,4
83873,131036,5
83856,131011,5
83833,130994,6
83835,130981,4
83818,130968,4
83819,130974,5
83812,130971,5
83821,130965,5
83823,130981,4
83821,130971,4
83829,130997,5
83861,131043,5
83898,131085,5
83933,131152,4
83976,131218,5
84040,131289,5
84102,131374,5
84155,131465,5
84209,131521,4
84249,131561,5
84250,131595,5
84255,131592,5
84274,131596,5
84266,131590,5
84263,131595,4
84223,131591,5
84273,131608,5
84273,131621,5
84282,131635,4
84211,131653,5
84301,131670,5
84330,131690,5
84338,131710,4
84268,131761,5
84413,131818,5
84461,131885,5
84493,131939,5
84537,131990,4
84554,132004,5
84515,131947,5
84468,131878,5
84506,131816,5
84371,131765,4
84337,131697,5
84295,131659,5
84382,131617,5
84259,131598,5
84242,131587,4
84234,131575,6
84263,131565,4
84220,131557,5
84218,131558,4
84218,131559,4
84232,131559,5
84240,131570,5
84250,131585,5
84256,131608,4
84277,131564,5
84287,131649,5
84292,131646,5
84288,131647,5
84282,131547,4
84287,131629,5
84273,131640,5
84274,131630,5
84271,131567,5
84277,131629,4
84288,131637,5
84283,131648,5
