RED,IR,EKG,TIME
49723,105407,8
49733,105417,8
49731,105439,5
49737,105435,5
49738,105432,5
49747,105444,8
49748,105455,5
49749,105457,5
49747,105454,8
49752,105464,5
49752,105466,5
49748,105458,8
49748,105458,5
49762,105468,5
49731,105458,5
49743,105468,8
49773,105481,5
49773,105509,5
49786,105519,8
49794,105535,5
49792,105563,5
49807,105586,5
49831,105601,8
49828,105617,5
49834,105608,5
49856,105653,8
49856,105653,5
49850,105686,5
49873,105700,8
49889,105735,5
49880,105726,5
49893,105741,5
49900,105755,8
49911,105784,5
49949,105812,5
49928,105834,8
49935,105827,5
49946,105861,5
49964,105876,5
49992,105939,8
49992,105939,5
49990,105966,5
49998,105927,8
49996,105933,5
50005,105963,5
50038,105966,8
50012,105960,5
49972,105971,5
50003,105966,5
50004,105966,8
50011,105981,5
50012,105973,5
50005,105981,8
50005,105981,5
50016,105927,5
50009,105968,8
50013,105983,5
50007,105974,5
49998,105980,5
49990,105979,8
50011,105985,5
50022,105981,5
50005,105989,8
50015,105986,5
50015,105978,5
50008,105984,5
50016,105983,8
50016,105983,5
50018,105967,5
50013,105963,8
49998,105955,5
49994,105938,5
49984,105931,5
49984,105943,8
49980,105930,5
49977,105878,5
49959,105905,8
49996,105909,5
49980,105917,5
49980,105917,8
49978,105912,5
49963,105912,5
49970,105908,5
49976,105914,8
49980,105918,5
49987,105919,5
49980,105887,8
49982,105888,5
49991,105916,5
50001,105921,5
49979,105913,8
49979,105913,5
49988,105924,5
49980,105909,8
49994,105927,5
49984,105918,5
49992,105916,8
49985,105919,5
49980,105916,5
49975,105891,2
49975,105899,2
49986,105893,5
49959,105885,5
49978,105889,5
49965,105891,5
49967,105890,4
49975,105878,5
49974,105901,5
49979,105893,6
49964,105890,3
49973,105883,5
49971,105874,5
49971,105877,5
49960,105874,4
49962,105870,4
49953,105860,5
49955,105860,5
49956,105845,5
49943,105862,4
49943,105834,5
49937,105827,5
49933,105817,5
49927,105808,5
49924,105795,4
49914,105772,5
49902,105753,5
49908,105744,5
49895,105729,5
49879,105702,4
49871,105677,6
49854,105659,4
49849,105630,5
49845,105620,5
49821,105605,6
49816,105570,3
49814,105555,5
49804,105535,5
49795,105522,5
49788,105498,4
49776,105494,5
49764,105477,5
49774,105465,5
49764,105464,5
49757,105457,4
49746,105437,5
49744,105414,5
49735,105412,5
49727,105413,4
49727,105394,4
49719,105390,5
49718,105386,5
49720,105374,5
49727,105382,4
49714,105375,5
49716,105363,6
49704,105341,4
49694,105325,5
49682,105302,4
49668,105262,5
49654,105247,5
49644,105239,5
49636,105222,5
49639,105225,4
49638,105225,5
49639,105226,5
49641,105227,5
49641,105231,5
49648,105236,4
49649,105234,5
49656,105241,5
49643,105250,5
49645,105243,5
49650,105237,4
49643,105236,5
49658,105236,5
49647,105238,5
49645,105240,4
49651,105240,4
49655,105242,5
49658,105241,6
49656,105245,4
49655,105240,4
49653,105247,5
49656,105248,5
49655,105246,5
49653,105249,5
49657,105260,4
49660,105251,5
49659,105259,5
49664,105275,5
49662,105275,5
49664,105272,4
49668,105270,5
49665,105268,5
49661,105256,5
49651,105260,5
49653,105256,4
49652,105259,5
49654,105257,5
49651,105259,5
49668,105259,5
49664,105272,7
49664,105271,2
49668,105278,5
49668,105288,6
49679,105294,4
49676,105294,4
49670,105298,5
49673,105306,5
49678,105305,5
49685,105302,4
49667,105305,4
49683,105310,5
49673,105309,5
49684,105319,5
49669,105312,4
49684,105320,5
49688,105312,5
49685,105313,5
49687,105306,5
49694,105318,4
49684,105319,5
49692,105317,5
49696,105319,5
49685,105332,5
49691,105334,5
49699,105332,4
49709,105345,5
49708,105342,5
49700,105355,6
49707,105354,3
49703,105352,5
49708,105355,5
49715,105354,5
49702,105349,5
49706,105357,4
49704,105361,5
49710,105363,5
49704,105363,5
49708,105355,5
49708,105370,4
49709,105371,5
49711,105381,5
49707,105359,5
49718,105380,4
49714,105380,5
49719,105392,5
49719,105364,5
49714,105389,5
49718,105380,4
49710,105381,6
49727,105395,4
49723,105391,5
49723,105397,5
49731,105400,4
49732,105424,5
49728,105397,5
49725,105419,5
49731,105415,5
49745,105443,4
49741,105425,5
49746,105429,5
49743,105428,5
49737,105434,5
49730,105418,4
49728,105408,5
49710,105371,5
49705,105358,5
49708,105347,5
49698,105338,4
49694,105340,5
49692,105339,5
49707,105349,5
49706,105350,4
49705,105356,4
49706,105366,6
49711,105372,4
49714,105370,5
49711,105373,4
49709,105368,5
49712,105375,5
49718,105367,5
49706,105367,5
49716,105362,4
49712,105373,5
49709,105370,5
49712,105369,5
49713,105364,5
49712,105374,4
49715,105361,5
49717,105373,5
49713,105375,5
49715,105380,5
49709,105383,4
49719,105383,5
49719,105392,5
49725,105387,5
49732,105399,5
49734,105413,4
49734,105409,5
49734,105399,6
49729,105403,4
49717,105402,5
49725,105395,4
49727,105402,5
49720,105396,5
49727,105402,5
49735,105401,4
49723,105402,5
49725,105407,5
49725,105405,5
49730,105418,5
49729,105416,4
49732,105417,5
49738,105413,5
49740,105418,5
49731,105427,5
49735,105429,4
49735,105437,5
49748,105435,5
49746,105448,5
49744,105444,5
49746,105442,4
49741,105440,5
49739,105430,5
49744,105433,6
49744,105441,4
49749,105443,4
49748,105441,5
49749,105441,5
49749,105446,5
49747,105451,5
49751,105461,4
49757,105463,5
49757,105456,5
49756,105459,5
49754,105457,4
49751,105455,4
49745,105454,5
49747,105460,5
49753,105450,5
49748,105445,4
49742,105448,5
49752,105446,5
49740,105443,5
49751,105444,5
49747,105458,5
49748,105447,4
49751,105451,5
49751,105454,5
49748,105451,5
49754,105457,4
49737,105463,5
49757,105461,5
49763,105475,5
49754,105470,5
49740,105463,4
49766,105470,5
49761,105463,5
49762,105473,5
49758,105482,5
49757,105470,4
49752,105481,5
49764,105467,5
49777,105478,5
49762,105480,5
49763,105489,4
49768,105498,5
49781,105484,5
49767,105482,5
49763,105470,4
49754,105461,6
49748,105447,4
49739,105433,5
49719,105405,5
49717,105398,4
49716,105390,5
49712,105381,5
49713,105369,5
49714,105374,5
49716,105363,4
49714,105377,5
49711,105369,5
49715,105387,5
49718,105374,5
49714,105394,4
49723,105391,5
49717,105384,5
49720,105381,5
49716,105383,5
49713,105387,4
49724,105386,5
49721,105395,5
49714,105392,5
49721,105386,5
49717,105393,4
49719,105393,6
49722,105385,4
49722,105385,5
49727,105387,4
49726,105402,4
49722,105388,5
49727,105391,5
49716,105390,5
49724,105404,4
49731,105394,5
49736,105408,5
49724,105402,5
49735,105408,5
49728,105406,4
49724,105409,5
49731,105403,5
49727,105404,5
49721,105406,5
49735,105405,4
49736,105412,5
49736,105415,5
49735,105418,5
49741,105433,5
49734,105423,4
49746,105432,5
49740,105436,6
49744,105449,4
49748,105450,5
49751,105456,4
49755,105454,5
49749,105463,5
49752,105469,5
49764,105476,5
49761,105467,4
49761,105464,5
49759,105476,5
49762,105466,5
49767,105464,4
49765,105487,4
49766,105490,5
49772,105492,5
49774,105498,5
49767,105498,4
49781,105509,5
49768,105503,5
49768,105498,5
49769,105487,5
49765,105490,4
49765,105483,5
49769,105480,5
49765,105470,5
49762,105460,5
49756,105457,4
49756,105455,5
49746,105453,5
49751,105444,5
49744,105446,5
49750,105445,4
49751,105452,5
49752,105452,5
49744,105440,5
49745,105445,5
49752,105441,4
49748,105436,5
49741,105437,5
49752,105444,5
49748,105439,5
49749,105443,4
49749,105451,5
49749,105457,5
49747,105458,5
49762,105464,5
49759,105475,4
49759,105465,5
49767,105477,5
49772,105474,5
49760,105462,4
49755,105467,5
49750,105459,5
49745,105454,5
49740,105438,5
49737,105425,4
49735,105421,5
49732,105415,5
49724,105395,5
49713,105376,5
49721,105383,4
49713,105395,5
49722,105401,5
49735,105418,5
49739,105429,5
49745,105455,4
49754,105462,5
49747,105490,5
49766,105490,5
49783,105506,5
49793,105531,5
49778,105542,4
49806,105560,5
49811,105582,5
49825,105587,4
49809,105596,4
49831,105615,5
49831,105615,5
49833,105637,5
49847,105656,4
49851,105666,5
49871,105678,5
49870,105687,5
49892,105708,5
49881,105727,4
49896,105765,5
49912,105777,5
49935,105789,5
49931,105805,5
49937,105822,4
49941,105828,5
49949,105838,6
49942,105855,4
49957,105862,5
49959,105880,4
49965,105901,7
49974,105932,3
49981,105939,5
49995,105955,5
50003,105954,4
50003,105983,5
50016,105987,5
50014,105991,5
50018,105988,5
50025,106009,4
50030,106015,5
50036,106030,5
50035,106023,5
50041,106045,4
50050,106064,4
50046,106084,5
50056,106097,5
50073,106097,5
50067,106109,4
50082,106127,5
50083,106142,5
50091,106145,6
50096,106145,4
50094,106143,4
50095,106169,5
50100,106171,5
50110,106183,5
50114,106177,5
50105,106182,4
50112,106194,5
50113,106185,5
50115,106204,5
50123,106208,5
50126,106212,4
50129,106228,5
50130,106216,5
50129,106233,5
50142,106240,5
50144,106241,4
50136,106254,5
50133,106260,5
50146,106259,5
50150,106267,5
50143,106268,4
50147,106267,5
50162,106271,5
50159,106277,6
50150,106276,3
50149,106272,5
50148,106285,5
50157,106285,5
50168,106298,5
50163,106292,4
50168,106292,5
50164,106286,5
50160,106281,5
50154,106266,5
50148,106255,4
50145,106253,5
50140,106245,5
50131,106238,5
50125,106237,5
50142,106243,4
50141,106248,5
50143,106264,5
50157,106268,5
50156,106285,5
50154,106274,5
50159,106276,4
50150,106278,5
50145,106266,5
50152,106278,6
50155,106275,3
50160,106278,5
50155,106289,5
50162,106285,5
50158,106294,4
50163,106281,4
50165,106286,5
50160,106288,5
50160,106289,5
50158,106286,4
50161,106294,5
50159,106292,5
50161,106295,5
50168,106294,5
50162,106297,4
50170,106293,5
50168,106297,5
50162,106292,5
50173,106300,5
50161,106294,4
50158,106288,6
50164,106292,4
50163,106282,5
50159,106294,5
50159,106285,6
50166,106280,3
50161,106295,5
50153,106288,5
50148,106282,5
50154,106281,9
50154,106276,0
50144,106255,5
50150,106242,5
50133,106244,5
50134,106225,4
50131,106211,5
50113,106192,5
50105,106174,5
50092,106150,4
50091,106130,4
50079,106113,5
50068,106104,5
50064,106086,5
50049,106081,4
50048,106052,5
50032,106040,6
50033,106026,4
50025,106006,5
50017,105984,4
49992,105974,5
49997,105961,5
49994,105931,5
49975,105910,5
49969,105875,4
49963,105866,5
49948,105840,5
49940,105823,5
49950,105809,5
49929,105782,4
49923,105779,5
49905,105764,5
49919,105755,5
49902,105740,5
49893,105742,4
49893,105736,5
49895,105724,5
49890,105724,5
49889,105716,5
49870,105693,4
49880,105700,5
49868,105694,6
49862,105677,4
49857,105679,4
49848,105648,5
49853,105668,5
49850,105644,5
49855,105650,5
49842,105632,4
49838,105630,5
49839,105599,5
49818,105585,5
49812,105553,5
49797,105536,4
49785,105492,5
49763,105464,5
49752,105451,5
49741,105415,5
49739,105405,4
49720,105393,5
49726,105415,5
49724,105402,5
49734,105403,5
49727,105409,4
49730,105418,5
49728,105404,5
49727,105386,6
49726,105395,4
49727,105394,4
49712,105384,5
49720,105384,5
49726,105380,5
49715,105372,4
49704,105374,4
49705,105370,5
49707,105368,5
49709,105363,5
49702,105355,4
49699,105354,5
49700,105344,5
49697,105340,5
49695,105344,5
49702,105343,4
49701,105342,5
49712,105343,5
49702,105343,5
49707,105361,5
49704,105339,5
49707,105364,4
49701,105350,5
49700,105345,5
49696,105343,5
49705,105343,4
49700,105337,5
49700,105338,5
49701,105354,5
49698,105353,5
49702,105362,4
49707,105363,5
49711,105356,5
49714,105376,5
49717,105366,5
49706,105369,4
49720,105370,5
49718,105388,5
49726,105389,5
49727,105386,4
49727,105401,4
49729,105405,5
49721,105396,5
49731,105400,5
49729,105407,4
49734,105400,6
49736,105411,4
49725,105409,5
49736,105410,5
49733,105419,4
49736,105412,5
49727,105416,5
49734,105411,5
49737,105420,5
49733,105410,4
49732,105420,5
49732,105417,5
49734,105422,5
49731,105418,5
49729,105417,4
49730,105413,5
49740,105412,5
49725,105414,5
49728,105418,5
49734,105418,4
49743,105421,5
49734,105413,5
49732,105417,5
49733,105402,5
49736,105413,4
49727,105411,6
49734,105418,4
49745,105417,5
49734,105421,4
49724,105415,4
49732,105419,5
49733,105422,5
49736,105418,5
49736,105411,4
49733,105413,5
49736,105423,5
49736,105420,5
49743,105441,5
49735,105425,4
49739,105433,5
49744,105429,5
49728,105442,5
49735,105437,5
49746,105442,4
49745,105451,5
49727,105443,5
49742,105445,5
49739,105445,5
49742,105451,4
49735,105455,5
49744,105459,6
49748,105453,4
49754,105465,5
49753,105455,4
49762,105467,5
49760,105474,5
49761,105485,5
49779,105487,4
49771,105479,4
49759,105474,5
49754,105467,5
49766,105449,5
49739,105431,4
49734,105412,5
49721,105411,5
49736,105393,5
49726,105387,5
49716,105396,4
49718,105389,5
49721,105394,5
49722,105404,5
49730,105403,5
49721,105407,4
49736,105404,5
49723,105411,5
49733,105415,5
49732,105415,5
49728,105401,4
49728,105406,5
49723,105408,5
49733,105412,5
49728,105407,5
49740,105415,4
49724,105421,5
49730,105423,5
49734,105423,5
49731,105413,5
49727,105417,4
49724,105414,5
49731,105440,5
49725,105419,5
49734,105410,4
49727,105417,4
49734,105433,5
49729,105417,5
49724,105424,5
49735,105419,5
49735,105420,4
49736,105419,5
49724,105411,5
49728,105414,5
49731,105415,4
49734,105412,5
49725,105418,5
49735,105424,5
49736,105423,5
49731,105423,4
49737,105430,5
49749,105430,5
49743,105439,5
49743,105438,5
49745,105442,4
49745,105448,5
49742,105443,5
49740,105455,5
49751,105448,5
49748,105452,4
49751,105454,5
49750,105450,5
49743,105456,5
49751,105445,5
49752,105459,5
49751,105463,4
49764,105465,5
49757,105469,5
49759,105484,4
49763,105476,5
49763,105486,5
49761,105479,5
49762,105488,5
49760,105489,4
49761,105489,5
49764,105473,5
49764,105482,5
49765,105478,5
49766,105478,4
49767,105478,5
49761,105479,5
49765,105477,5
49759,105482,5
49761,105474,4
49759,105477,5
49764,105482,5
49755,105476,5
49765,105473,5
49757,105477,4
49767,105484,6
49757,105473,4
49758,105478,5
49759,105479,5
49764,105473,4
49762,105473,5
49767,105480,5
49757,105472,5
49755,105473,5
49764,105478,4
49761,105476,5
49758,105479,5
49758,105477,5
49762,105496,4
49774,105496,5
49773,105494,5
49777,105489,5
49768,105500,5
49770,105499,4
49767,105488,5
49770,105499,5
49767,105494,5
49769,105494,5
49770,105494,4
49773,105505,5
49779,105509,5
49770,105523,5
49780,105522,5
49782,105510,4
49772,105511,5
49763,105496,5
49766,105486,5
49760,105465,5
49753,105457,4
49744,105443,5
49736,105436,5
49729,105425,5
49731,105420,5
49728,105411,4
49728,105419,5
49729,105424,5
49736,105440,5
49747,105443,5
49746,105446,4
49734,105442,5
49739,105439,5
49753,105437,6
49748,105442,3
49748,105436,5
49748,105439,5
49747,105455,5
49744,105442,5
49769,105452,4
49743,105453,5
49748,105449,5
49747,105445,5
49751,105437,5
49748,105437,4
49738,105439,5
49751,105437,5
49739,105438,5
49742,105435,5
49742,105435,4
49739,105436,5
49741,105433,5
49746,105447,5
49747,105434,5
49745,105439,5
49748,105432,4
49745,105439,5
49743,105435,5
49744,105425,6
49745,105416,3
49737,105419,5
49737,105435,5
49736,105432,5
49737,105423,4
49741,105433,4
49740,105437,5
49738,105434,5
49743,105456,5
49752,105443,4
49741,105449,5
49746,105456,5
49751,105487,5
49755,105466,5
49750,105464,4
49751,105459,5
49753,105469,5
49756,105471,5
49752,105467,5
49754,105466,4
49757,105473,6
49754,105468,4
49752,105465,5
49754,105468,5
49757,105470,6
49762,105471,3
49760,105475,5
49756,105476,5
49758,105463,5
49759,105465,4
49755,105478,5
49757,105473,5
49754,105477,5
49760,105474,5
49760,105472,4
49762,105478,5
49761,105480,5
49759,105482,5
49768,105486,4
49764,105485,5
49769,105495,5
49772,105492,5
49775,105496,5
49778,105500,4
49773,105500,5
49770,105514,6
49785,105516,4
49775,105520,5
49786,105531,4
49791,105529,5
49790,105532,5
49791,105536,5
49792,105542,5
49791,105550,4
49805,105550,5
49804,105558,5
49801,105570,5
49807,105581,5
49817,105575,4
49812,105578,5
49806,105572,5
49811,105563,5
49808,105568,5
49798,105548,4
49785,105538,5
49793,105519,5
49777,105513,5
49785,105511,4
49774,105507,4
49780,105513,5
49785,105518,6
49777,105529,4
49788,105533,4
49790,105539,5
49795,105548,5
49794,105546,5
49797,105555,5
49793,105559,4
49802,105554,5
49790,105566,5
49801,105555,5
49796,105558,5
49797,105546,4
49801,105551,5
49792,105547,5
49799,105537,5
49801,105547,5
49801,105549,4
49804,105557,7
49796,105556,3
49800,105553,5
49796,105565,5
49798,105569,4
49805,105575,5
49809,105597,5
49821,105613,6
49829,105604,4
49826,105620,4
49833,105619,5
49825,105616,5
49832,105620,5
49826,105619,4
49836,105613,4
49843,105632,5
49845,105634,5
49840,105652,5
49850,105661,4
49859,105669,5
49856,105679,5
49857,105692,5
49872,105698,5
49877,105714,4
49882,105717,5
49875,105734,5
49889,105745,5
49891,105754,5
49898,105768,5
49919,105777,4
49918,105795,5
49928,105803,5
49934,105824,6
49954,105842,3
49937,105843,5
49948,105855,5
49949,105875,5
49968,105885,5
49969,105887,4
49960,105902,5
49968,105914,5
49975,105921,5
49981,105913,5
49978,105931,4
49993,105930,5
49996,105928,5
49986,105939,5
49987,105935,4
49989,105938,5
49992,105935,5
49992,105955,5
50001,105953,5
49998,105968,4
50010,105970,6
50012,105991,4
50013,105996,5
50015,105998,5
50024,106011,4
50020,106017,5
50032,106027,5
50038,106041,5
50041,106051,5
50041,106050,4
50048,106052,5
50054,106067,5
50055,106100,5
50062,106094,5
50066,106105,4
50082,106129,5
50084,106149,5
50090,106164,5
50104,106181,5
50109,106184,4
50109,106181,5
50113,106179,5
50100,106178,5
50119,106186,4
50106,106180,4
50109,106167,6
50101,106162,4
50099,106160,5
50089,106164,4
50100,106160,5
50099,106175,5
50099,106179,5
50101,106188,5
50112,106196,4
50118,106198,5
50121,106218,5
50120,106224,5
50131,106230,5
50135,106231,4
50141,106236,5
50143,106240,5
50133,106250,5
50145,106256,5
50148,106258,4
50147,106261,5
50151,106256,5
50143,106268,5
50155,106262,5
50151,106272,4
50158,106276,5
50158,106287,6
50163,106294,4
50176,106303,4
50171,106320,4
50177,106328,5
50189,106340,5
50194,106356,5
50201,106363,4
50193,106371,5
50199,106383,5
50216,106402,5
50211,106399,5
50214,106398,4
50218,106398,5
50215,106407,5
50228,106415,5
50220,106435,5
50233,106443,4
50245,106456,5
50241,106460,5
50248,106468,5
50250,106473,5
50248,106469,4
50257,106483,5
50260,106495,5
50265,106504,6
50264,106502,4
50262,106497,4
50273,106514,5
50276,106523,5
50275,106529,5
50275,106535,5
50283,106527,4
50286,106539,5
50283,106546,5
50291,106541,5
50282,106549,4
50288,106537,4
50293,106545,5
50287,106549,5
50289,106555,5
50286,106563,4
50290,106561,5
50297,106561,5
50291,106566,5
50288,106569,5
50297,106565,5
50295,106555,4
50290,106564,5
50297,106568,5
50292,106574,5
50294,106571,4
50311,106565,5
50297,106581,5
50299,106584,5
50289,106587,5
50314,106603,4
50319,106598,5
50312,106597,5
50304,106604,5
50323,106611,5
50322,106616,4
50325,106615,5
50316,106618,5
50333,106618,5
50328,106631,5
50324,106625,4
50338,106631,5
50330,106631,5
50328,106625,5
50322,106630,4
50344,106625,6
50328,106624,4
50323,106617,5
50326,106606,5
50331,106597,4
50320,106588,5
50309,106597,5
50314,106602,5
50324,106613,5
50312,106613,4
50325,106625,5
50324,106628,5
50329,106611,5
50318,106617,5
50328,106618,4
50317,106604,5
50318,106582,5
50313,106600,5
50320,106611,5
50315,106605,4
50327,106570,5
50315,106592,5
50308,106583,5
50307,106584,5
50311,106577,4
50300,106578,6
50294,106571,4
50297,106557,5
50296,106569,4
50286,106557,4
50287,106552,5
50284,106539,5
50275,106552,5
50280,106529,4
50268,106524,5
50266,106508,5
50261,106486,5
50252,106479,5
50250,106464,4
50235,106433,5
50228,106405,5
50221,106378,5
50195,106352,5
50187,106344,4
50183,106308,5
50173,106295,5
50156,106274,5
50147,106246,5
50130,106221,4
50121,106198,5
50109,106189,6
50110,106172,4
50104,106154,5
50094,106141,4
50091,106125,5
50081,106108,5
50070,106102,5
50069,106090,5
50054,106074,4
50056,106056,5
50050,106042,5
50044,106029,5
50032,106030,4
50032,106005,4
50020,105986,5
50012,105961,5
50003,105962,5
49990,105935,4
49992,105922,5
49983,105909,5
49970,105898,5
49978,105890,5
49965,105883,4
49952,105867,5
49959,105863,5
49949,105848,5
49942,105833,5
49940,105822,4
49934,105805,5
49916,105789,5
49914,105783,5
49921,105771,5
49911,105764,4
49901,105760,5
49899,105741,5
49887,105742,5
49889,105734,5
49891,105728,4
49885,105720,5
49886,105713,5
49883,105714,5
49876,105706,5
49879,105711,4
49872,105703,4
49875,105697,5
49868,105697,5
49869,105697,5
49873,105694,3
49869,105685,5
49862,105685,5
49868,105668,5
49853,105648,4
49844,105636,5
49841,105621,5
49826,105591,5
49816,105567,5
49799,105531,4
49797,105517,5
49776,105499,5
49763,105478,5
49764,105474,5
49762,105475,4
49764,105475,5
49761,105478,5
49761,105475,5
49760,105473,5
49760,105483,4
49763,105476,6
49768,105473,4
49761,105466,5
49755,105463,5
49757,105452,6
49754,105458,3
49760,105453,5
49766,105465,5
49744,105452,4
49756,105458,4
49754,105459,5
49761,105445,5
49738,105451,5
49754,105431,4
49754,105438,5
49751,105454,5
49743,105449,5
49747,105436,5
49756,105448,4
49753,105442,5
49765,105450,5
49748,105456,5
49751,105443,5
49748,105453,4
49772,105450,5
49749,105446,6
49741,105447,4
49745,105440,5
49760,105449,4
49754,105452,5
49755,105455,5
49758,105458,5
49760,105462,5
49753,105461,4
49757,105460,5
49748,105458,5
49761,105458,5
49758,105462,5
49759,105467,4
49759,105470,5
49760,105461,5
49764,105483,5
49771,105482,4
49773,105491,4
49771,105471,5
49767,105481,5
49756,105476,5
49757,105479,4
49765,105484,5
49760,105489,5
49767,105490,6
49765,105485,4
49778,105501,4
49780,105495,5
49774,105487,5
49765,105491,5
49769,105508,5
49764,105496,4
49780,105496,5
49770,105493,5
49774,105507,5
49768,105493,5
49761,105496,4
49768,105494,5
49774,105495,5
49773,105489,5
49772,105500,5
49772,105504,4
49783,105485,5
49776,105506,5
49767,105500,5
49771,105505,5
49778,105494,4
49777,105500,5
49773,105515,5
49776,105505,6
49764,105503,3
49771,105497,4
49767,105497,5
49777,105508,5
49780,105491,5
49771,105512,4
49773,105513,5
49777,105518,5
49779,105517,5
49782,105522,5
49789,105531,4
49793,105533,5
49793,105543,5
49789,105531,5
49796,105535,5
49788,105539,4
49795,105543,5
49789,105542,5
49801,105543,5
49800,105550,5
49791,105535,5
49785,105533,4
49797,105548,5
49795,105542,5
49802,105554,6
49803,105552,3
49810,105571,5
49809,105567,5
49805,105551,5
49807,105555,5
49800,105555,4
49790,105526,5
49785,105505,5
49775,105491,5
49774,105488,4
49770,105469,5
49762,105472,5
49755,105471,5
49771,105482,5
49760,105476,4
49769,105486,5
49765,105489,5
49774,105498,5
49775,105494,5
49778,105498,4
49768,105504,6
49774,105500,4
49773,105502,5
49771,105501,5
49772,105504,4
49772,105498,9
49776,105511,1
49780,105512,5
49774,105513,5
49779,105502,4
49774,105509,5
49773,105501,5
49775,105495,5
49779,105509,5
49772,105509,4
49778,105496,5
49778,105496,5
49781,105500,5
49776,105509,5
49775,105510,4
49787,105519,5
49779,105499,5
49783,105509,5
49782,105517,4
49771,105509,5
49776,105507,6
49772,105494,4
49775,105503,5
49767,105514,4
49777,105509,5
49779,105518,5
49775,105516,5
49772,105512,5
49775,105519,4
49782,105507,5
49791,105521,5
49788,105525,5
49779,105527,5
49788,105529,4
49792,105527,5
49802,105532,5
49787,105525,5
49786,105527,5
49782,105532,4
49806,105534,5
49793,105536,5
49798,105525,5
49793,105532,5
49796,105532,4
49798,105538,5
49789,105535,6
49784,105535,4
49793,105535,4
49795,105541,4
49787,105543,5
49783,105534,5
49794,105529,5
49792,105535,4
49790,105535,5
49783,105543,5
49793,105528,5
49793,105533,5
49795,105538,4
49797,105532,5
49789,105519,5
49789,105536,5
49796,105537,5
49789,105536,4
49794,105547,5
49794,105540,5
49802,105544,5
49795,105549,5
49795,105568,4
49810,105563,5
49813,105568,5
49805,105558,6
49806,105578,4
49803,105555,4
49797,105557,5
49792,105552,5
49812,105568,5
49806,105555,5
49803,105573,4
49801,105565,5
49808,105567,5
49810,105570,5
49799,105570,4
49806,105575,4
49805,105559,5
49808,105581,5
49809,105570,5
49805,105573,4
49814,105577,5
49812,105584,5
49807,105577,5
49816,105569,5
49820,105585,5
49813,105585,4
49825,105591,5
49817,105584,5
49818,105592,5
49807,105586,4
49804,105575,5
49814,105579,5
49801,105568,5
49793,105541,5
49787,105527,4
49781,105515,5
49783,105507,5
49778,105504,5
49773,105495,5
49781,105498,4
49774,105506,5
49783,105505,5
49786,105509,5
49786,105517,5
49783,105512,4
49781,105516,5
49785,105510,5
49777,105516,5
49774,105513,4
49782,105513,6
49792,105506,4
49782,105508,5
49787,105519,5
49777,105504,4
49781,105509,5
49774,105504,5
49774,105512,5
49773,105512,5
49779,105512,4
49772,105506,5
49781,105515,5
49783,105498,5
49775,105515,5
49773,105510,4
49783,105512,5
49774,105511,5
49785,105522,5
49788,105531,5
49785,105510,4
49773,105507,5
49793,105525,5
49777,105509,5
49788,105505,5
49783,105503,4
49781,105523,6
49784,105516,4
49786,105519,5
49793,105526,4
49793,105535,4
49787,105525,5
49791,105538,5
49795,105527,5
49794,105553,4
49799,105535,5
49801,105546,5
49797,105557,5
49796,105557,5
49805,105555,4
49797,105562,5
49796,105565,5
49801,105564,5
49802,105563,5
49804,105579,4
49808,105582,5
49820,105586,5
49820,105578,5
49819,105586,5
49804,105587,4
49823,105602,5
49824,105600,6
49827,105601,4
49815,105606,5
49824,105611,4
49823,105616,5
49828,105616,5
49836,105616,5
49830,105620,5
49838,105623,4
49831,105614,5
49856,105622,5
49841,105633,5
49829,105625,4
49838,105633,4
49854,105633,5
49844,105635,5
49845,105640,5
49846,105643,4
49856,105658,5
49854,105668,5
49856,105665,5
49864,105680,5
49868,105682,4
49869,105688,5
49879,105710,5
49869,105714,5
49883,105703,5
49880,105729,4
49890,105733,5
49893,105745,5
49897,105735,5
49897,105756,5
49901,105771,4
49910,105777,5
49904,105780,5
49915,105786,5
49918,105791,5
49922,105813,4
49931,105821,5
49936,105825,5
49940,105833,5
49941,105846,5
49947,105867,4
49955,105861,5
49955,105860,5
49952,105862,5
49954,105874,5
49946,105848,4
49943,105848,5
49943,105852,5
49940,105853,5
49943,105842,4
49940,105856,5
49954,105852,5
49947,105861,5
49948,105878,5
49953,105886,4
49972,105894,5
49969,105905,5
49975,105908,5
49976,105913,5
49977,105911,4
49982,105914,5
49970,105912,5
49980,105927,5
49991,105930,5
49992,105949,4
49999,105955,5
49993,105954,5
50006,105964,5
50007,105980,5
50003,105979,5
50012,105990,4
50017,106014,5
50021,106011,5
50040,106022,4
50033,106039,4
50042,106047,5
50052,106062,5
50056,106080,5
50062,106094,4
50060,106099,5
50070,106104,5
50072,106103,5
50071,106110,5
50067,106119,4
50078,106119,5
50082,106134,5
50083,106144,5
50099,106145,5
50098,106175,4
50109,106193,5
50115,106198,6
50121,106212,4
50135,106231,5
50135,106244,4
50146,106244,7
50144,106261,3
50158,106268,5
50150,106277,5
50153,106294,4
50164,106293,5
50166,106305,5
50183,106309,5
50181,106318,4
50175,106328,4
50189,106331,5
50183,106347,5
50201,106360,5
50189,106367,4
50194,106359,5
50197,106375,5
50190,106369,5
50188,106366,5
50197,106365,4
50196,106361,5
50198,106371,5
50200,106368,6
50202,106363,4
50197,106363,4
50204,106372,5
50194,106374,5
50196,106361,5
50202,106371,5
50198,106373,4
50196,106374,5
50211,106374,5
50203,106390,5
50200,106382,5
50205,106393,4
50218,106407,5
50219,106410,5
50218,106410,5
50220,106421,5
50215,106415,4
50205,106428,5
50222,106420,5
50216,106417,5
50223,106419,5
50209,106420,4
50218,106414,5
50226,106427,5
50237,106430,6
50228,106452,3
50241,106461,5
50244,106459,5
50247,106472,5
50261,106462,5
50248,106468,4
50250,106479,5
50245,106462,5
50261,106462,5
50235,106448,5
50235,106439,4
50229,106419,5
50236,106421,5
50222,106421,5
50222,106417,5
50226,106416,4
50232,106425,5
50233,106419,5
50228,106440,5
50233,106437,5
50233,106426,5
50241,106442,4
50238,106448,5
50236,106455,5
50242,106441,6
50243,106452,3
50250,106470,5
50241,106474,5
50258,106459,5
50260,106480,4
50248,106483,5
50258,106485,5
50245,106471,5
50252,106470,5
50255,106475,4
50245,106475,5
50248,106486,5
50252,106471,5
50255,106481,5
50256,106488,4
50259,106505,5
50256,106492,5
50248,106487,5
50266,106492,5
50260,106508,4
50272,106511,6
50269,106500,4
50268,106495,5
50262,106514,5
50279,106523,6
50268,106524,3
50272,106524,5
50269,106526,5
50276,106532,5
50276,106526,4
50273,106523,5
50269,106524,5
50280,106526,5
50275,106517,4
50282,106516,4
50274,106522,5
50281,106530,5
50281,106530,5
50281,106535,4
50292,106536,5
50278,106546,5
50288,106560,5
50280,106541,5
50283,106541,4
50286,106539,5
50272,106539,6
50282,106527,4
50276,106525,5
50274,106524,4
50266,106513,5
50260,106487,5
50254,106471,5
50254,106469,5
50244,106454,4
50242,106440,5
50230,106420,5
50221,106406,5
50212,106390,5
50194,106371,4
50197,106359,5
50196,106327,5
50184,106324,5
50169,106307,5
50163,106291,4
50163,106272,5
50150,106263,5
50147,106248,5
50140,106232,4
50135,106219,4
50125,106210,5
50120,106200,6
50111,106186,4
50105,106165,4
50094,106150,5
50089,106138,5
50073,106109,5
50063,106079,5
50061,106063,4
50045,106052,5
50037,106024,5
50028,106010,5
50017,105992,5
50014,105986,4
50010,105957,5
49998,105944,6
49985,105915,4
49971,105895,5
49961,105869,4
49942,105846,5
49936,105816,5
49912,105781,5
49898,105746,5
49892,105724,4
49876,105707,5
49873,105692,5
49869,105683,6
49868,105678,3
49865,105680,4
49865,105684,5
49870,105677,5
49853,105670,5
49859,105660,4
49850,105656,5
49851,105646,5
49834,105634,5
49839,105627,5
49831,105620,4
49828,105610,5
49819,105608,5
49830,105600,5
49825,105597,5
49826,105593,4
49798,105571,5
49810,105574,5
49799,105564,5
49807,105559,5
49801,105554,5
49802,105554,4
49800,105546,5
49799,105537,5
49813,105542,5
49795,105553,4
49797,105555,5
49801,105546,5
49815,105551,5
49796,105551,5
49799,105551,4
49799,105544,5
49810,105552,5
49801,105551,5
49806,105557,4
49799,105567,5
49809,105559,5
49803,105558,5
49804,105563,5
49802,105557,4
49806,105549,5
49799,105556,5
49802,105566,5
49801,105565,5
49807,105548,4
49797,105565,6
49798,105567,4
49814,105559,5
49805,105540,5
49810,105567,4
49805,105568,5
49810,105563,5
49807,105567,5
49801,105566,5
49805,105565,4
49801,105570,5
49805,105573,5
49807,105563,5
49813,105563,5
49804,105554,4
49801,105570,5
49806,105560,5
49797,105553,5
49805,105554,4
49796,105559,4
49808,105559,5
49803,105550,5
49802,105556,5
49799,105552,4
49799,105547,5
49800,105550,6
49798,105545,4
49794,105551,5
49800,105541,4
49788,105544,5
49793,105548,5
49792,105546,5
49798,105548,5
49799,105552,4
49802,105555,5
49800,105550,5
49796,105550,5
49793,105550,5
49794,105542,4
49791,105539,5
49793,105535,5
49796,105546,5
49796,105545,5
49799,105548,4
49805,105547,5
49799,105557,5
49803,105557,5
49809,105566,5
49805,105561,4
49805,105572,5
49802,105573,6
49805,105582,4
49812,105577,4
49810,105587,4
49813,105588,5
49822,105595,5
49816,105611,5
49821,105607,4
49818,105597,5
49824,105614,5
49831,105611,5
49832,105608,5
49833,105612,4
49826,105612,5
49837,105615,5
49822,105612,5
49827,105612,5
49823,105604,4
49816,105596,5
49811,105568,5
49803,105553,5
49796,105551,5
49787,105538,4
49787,105532,5
49788,105527,5
49790,105535,5
49786,105545,5
49796,105543,4
49795,105555,5
49791,105554,5
49797,105550,5
49793,105551,5
49796,105551,4
49796,105550,5
49802,105554,5
49799,105553,5
49802,105558,4
49801,105547,5
49805,105555,5
49804,105559,5
49800,105551,5
49794,105551,4
49793,105546,5
49793,105548,5
49796,105545,5
49794,105546,5
49798,105546,5
49794,105548,4
49801,105547,5
49795,105560,5
49805,105552,5
49807,105557,4
49808,105568,5
49816,105574,5
49805,105581,5
49820,105580,5
49823,105582,4
49815,105571,5
49794,105566,5
49806,105576,5
49808,105578,5
49818,105584,4
49800,105584,5
49819,105586,5
49830,105590,5
49810,105594,4
49824,105593,4
49816,105593,5
49828,105599,5
49821,105613,5
49843,105623,4
49824,105614,6
49835,105626,4
49839,105638,5
49854,105634,5
49837,105627,4
49833,105631,5
49840,105632,5
49840,105637,5
49838,105623,5
49835,105630,4
49842,105641,5
49839,105636,5
49845,105640,5
49840,105632,5
49833,105631,4
49826,105618,5
49832,105620,5
49834,105628,5
49824,105616,5
49828,105614,4
49831,105618,5
49821,105613,5
49821,105619,5
49828,105606,5
49829,105615,4
49832,105625,6
49827,105608,4
49830,105613,5
49834,105613,4
49823,105611,4
49825,105622,5
49822,105630,5
49825,105615,5
49815,105622,4
49832,105614,5
49824,105632,5
49836,105611,5
49830,105606,5
49832,105607,4
49831,105624,5
49825,105616,5
49828,105613,5
49829,105612,5
49830,105610,4
49827,105611,5
49826,105622,5
49824,105614,5
49826,105621,5
49826,105611,4
49827,105615,5
49822,105610,5
49824,105603,5
49822,105599,5
49825,105608,4
49831,105612,5
49831,105619,5
49830,105617,5
49838,105614,5
49830,105620,4
49834,105619,5
49841,105623,5
49837,105637,5
49835,105631,4
49841,105643,5
49844,105651,5
49842,105639,5
49839,105641,5
49842,105652,5
49849,105667,4
49857,105672,5
49856,105667,5
49857,105671,6
49853,105666,3
49857,105656,5
49850,105649,5
49840,105645,5
49830,105628,5
49832,105610,4
49817,105607,5
49825,105597,5
49812,105594,5
49809,105574,5
49815,105563,4
49817,105589,5
49811,105589,5
49821,105594,5
49819,105591,5
49825,105596,4
49827,105597,5
49821,105596,5
49815,105596,5
49826,105601,4
49817,105593,5
49822,105589,4
49821,105591,5
49818,105603,5
49815,105593,6
49815,105600,3
49817,105593,5
49809,105588,5
49813,105583,5
49818,105582,4
49807,105588,5
49813,105590,5
49816,105587,5
49817,105586,5
49813,105590,4
49810,105586,5
49815,105601,5
49820,105593,5
49820,105601,5
49826,105607,4
49832,105608,5
49825,105607,5
49833,105614,5
49820,105602,5
49817,105603,4
49832,105619,6
49831,105613,4
49826,105621,5
49834,105622,5
49834,105639,6
49842,105636,3
49843,105658,5
49850,105658,5
49852,105658,4
49855,105662,4
49853,105665,5
49842,105675,5
49858,105685,5
49867,105690,4
49876,105713,5
49868,105716,5
49885,105715,5
49881,105730,5
49894,105739,4
49901,105751,5
49896,105755,5
49899,105762,5
49903,105768,5
49910,105778,4
49900,105773,5
49905,105771,6
49902,105770,4
49924,105780,5
49916,105787,4
49913,105791,5
49907,105780,5
49913,105789,5
49909,105787,5
49910,105796,4
49913,105796,5
49921,105799,5
49913,105807,5
49923,105808,4
49918,105814,4
49931,105808,5
49929,105826,5
49933,105830,5
49936,105826,4
49936,105822,5
49940,105843,5
49941,105851,5
49935,105844,5
49945,105864,4
49953,105865,5
49953,105874,5
49953,105868,6
49952,105899,4
49952,105895,4
49966,105909,5
49978,105929,5
49980,105949,5
49990,105940,5
49988,105935,4
49987,105946,5
49984,105958,5
49987,105947,5
49995,105951,5
49997,105959,4
50004,105961,5
50007,105969,5
50002,105976,5
50001,105974,5
50009,105973,4
50007,105982,5
50006,105975,5
50001,105976,5
50004,105971,5
50013,105961,4
50002,105963,5
50009,105968,5
50005,105962,6
50006,105968,3
50000,105978,5
49999,105977,5
50011,105977,5
50017,105987,5
50008,105982,4
50017,105998,5
50017,105996,5
50012,105997,5
50020,105992,5
50011,105997,4
50012,106006,5
50020,105998,5
50028,106013,5
50031,106018,5
50019,106027,4
50034,106027,5
50033,106016,5
50036,106024,5
50029,106040,5
50039,106047,5
50027,106043,4
50038,106038,5
50042,106054,5
50044,106048,6
50048,106065,3
50053,106067,5
50060,106084,5
50062,106071,5
50051,106085,4
50057,106082,5
50064,106081,5
50062,106080,5
50053,106070,5
50060,106079,4
50062,106088,5
50066,106096,5
50062,106103,5
50073,106111,5
50079,106126,4
50080,106123,5
50078,106136,5
50088,106144,5
50090,106153,5
50096,106169,4
50111,106178,6
50107,106191,7
50114,106193,2
50123,106203,5
50134,106207,4
50123,106223,5
50125,106237,5
50135,106252,5
50148,106255,5
50141,106273,4
50147,106270,5
50152,106288,5
50162,106291,5
50158,106286,4
50168,106299,4
50161,106302,5
50165,106310,5
50170,106318,5
50180,106325,4
50182,106332,5
50190,106346,5
50180,106337,5
50189,106344,5
50193,106356,4
50195,106363,5
50196,106362,6
50195,106369,4
50194,106374,5
50208,106392,4
50212,106393,5
50215,106407,5
50207,106417,5
50227,106429,5
50230,106435,4
50237,106452,5
50238,106458,5
50244,106472,5
50260,106484,5
50262,106497,4
50279,106504,5
50266,106506,5
50275,106517,5
50287,106534,4
50302,106556,4
50284,106554,5
50288,106573,5
50307,106581,5
50309,106571,4
50304,106586,5
50301,106583,5
50301,106583,6
50302,106577,4
50294,106568,4
50290,106562,5
50284,106546,5
50283,106529,5
50277,106527,5
50286,106529,4
50280,106541,5
50287,106540,5
50293,106555,5
50300,106566,5
50297,106567,4
50301,106547,5
50298,106571,5
50301,106578,5
50306,106583,5
50300,106590,4
50307,106587,5
50305,106585,5
50308,106580,5
50302,106604,5
50310,106588,4
50305,106586,5
50305,106590,5
50308,106614,5
50305,106588,4
50306,106587,4
50309,106586,5
50307,106603,5
50315,106596,5
50311,106595,4
50312,106594,5
50313,106607,5
50311,106604,5
50313,106610,5
50320,106622,4
50313,106615,5
50312,106630,5
50321,106623,5
50316,106608,5
50316,106615,4
50321,106613,5
50322,106624,5
50317,106630,5
50329,106635,5
50326,106645,5
50328,106647,4
50337,106644,5
50331,106651,5
50342,106658,5
50342,106654,4
50349,106662,5
50341,106670,5
50339,106657,5
50350,106674,5
50351,106664,4
50345,106672,5
50353,106683,5
50353,106679,5
50348,106674,4
50356,106679,5
50342,106675,5
50348,106670,5
50344,106666,5
50339,106660,4
50339,106660,5
50333,106647,5
50328,106643,5
50324,106622,5
50330,106620,4
50321,106608,6
50307,106594,4
50301,106583,5
50296,106561,5
50292,106546,4
50278,106530,5
50269,106518,5
50268,106508,5
50261,106496,5
50265,106485,4
50254,106475,5
50244,106450,5
50244,106440,5
50235,106437,5
50228,106435,4
50226,106425,5
50221,106421,5
50214,106395,5
50205,106394,4
50208,106379,4
50204,106372,5
50195,106352,5
50185,106330,5
50174,106314,4
50167,106293,5
50160,106286,6
50151,106265,4
50149,106248,5
50142,106233,4
50132,106220,5
50123,106204,5
50117,106191,5
50103,106179,5
50101,106159,4
50088,106132,5
50070,106095,5
50060,106056,5
50045,106041,5
50031,106019,4
50024,106003,5
50014,105974,5
50014,105990,5
50008,105963,5
50001,105960,4
49998,105954,5
49996,105951,5
49990,105931,5
49981,105932,5
49988,105924,4
49976,105906,5
49969,105900,5
49959,105895,5
49961,105888,4
49966,105886,4
49957,105880,5
49968,105878,5
49957,105867,5
49951,105847,4
49948,105847,5
49957,105838,5
49943,105831,5
49925,105815,5
49925,105820,4
49937,105804,5
49924,105790,5
49924,105796,5
49918,105790,5
49925,105784,4
49910,105773,5
49901,105763,5
49897,105756,5
49907,105748,5
49896,105737,4
49886,105727,5
49875,105704,5
49883,105701,5
49873,105700,5
49873,105696,4
49872,105697,5
49874,105682,5
49874,105681,5
49868,105675,4
49859,105673,4
49859,105657,5
49867,105671,5
49854,105672,5
49852,105666,4
49851,105673,5
49855,105671,5
49852,105656,5
49851,105663,5
49855,105679,4
49853,105656,5
49845,105659,5
49853,105652,5
49851,105668,5
49844,105642,5
49838,105641,4
49842,105644,5
49849,105642,5
49831,105640,5
49839,105632,4
49843,105633,5
49840,105629,5
49831,105623,5
49839,105628,5
49833,105621,4
49826,105608,5
49831,105610,5
49831,105607,5
49825,105602,5
49818,105604,4
49823,105602,5
49822,105597,5
49814,105601,5
49819,105592,4
49819,105598,4
49814,105589,6
49816,105598,4
49815,105587,5
49819,105595,4
49816,105588,7
49820,105598,3
49814,105597,5
49811,105592,5
49825,105592,4
49824,105600,5
49815,105596,5
49832,105595,5
49829,105597,5
49827,105605,4
49823,105613,5
49834,105613,5
49830,105608,5
49820,105607,5
49826,105616,4
49828,105618,5
49823,105610,5
49829,105605,5
49832,105611,5
49831,105620,4
49829,105617,5
49832,105617,6
49835,105618,4
49835,105624,4
49827,105613,4
49828,105603,5
49827,105595,5
49818,105594,5
49807,105575,4
49801,105564,5
49791,105540,5
49792,105529,5
49784,105523,5
49770,105499,4
49772,105505,5
49781,105502,5
49781,105510,5
49778,105520,5
49777,105517,4
49777,105520,5
49785,105524,5
49780,105518,5
49783,105513,5
49785,105518,4
49786,105519,5
49778,105522,5
49785,105518,6
49783,105519,4
49773,105518,4
49777,105512,5
49774,105521,5
49784,105512,5
49774,105516,5
49774,105514,4
49772,105505,5
49778,105506,5
49778,105518,5
49784,105520,4
49781,105501,4
49784,105516,5
49781,105520,5
49782,105519,5
49794,105532,4
49781,105538,5
49783,105538,5
49792,105543,5
49791,105542,5
49786,105540,5
49788,105541,4
49798,105535,5
49787,105544,5
49776,105548,6
49796,105544,3
49799,105552,5
49800,105552,5
49804,105554,5
49799,105555,5
49799,105561,4
49803,105554,5
49817,105547,5
49797,105559,5
49807,105566,5
49802,105567,4
49821,105566,5
49797,105569,5
49804,105574,5
49805,105565,5
49810,105564,4
49797,105563,5
49810,105565,5
49801,105576,5
49813,105570,4
49805,105578,5
49814,105575,4
49806,105577,5
49811,105578,5
49807,105573,6
49803,105574,3
49804,105568,5
49805,105549,5
49799,105562,5
49800,105562,4
49802,105558,5
49805,105560,5
49798,105566,5
49811,105560,5
49803,105577,4
49795,105587,5
49812,105575,5
49809,105575,5
49805,105579,5
49817,105586,4
49813,105581,5
49811,105575,5
49809,105580,5
49806,105585,5
49803,105574,4
49814,105573,6
49807,105566,4
49809,105577,5
49805,105574,5
49806,105573,4
49809,105578,5
49811,105585,5
49820,105591,5
49815,105589,4
49824,105599,5
49814,105594,5
49822,105595,5
49820,105612,5
49828,105615,4
49828,105618,5
49838,105625,5
49836,105625,5
49828,105629,5
49835,105631,4
49845,105635,5
49839,105637,5
49839,105645,5
49833,105648,5
49848,105648,4
49835,105641,5
49833,105627,6
49836,105626,4
49830,105615,5
49823,105605,4
49827,105594,5
49815,105566,5
49797,105569,5
49804,105561,5
49798,105556,4
49802,105577,5
49799,105579,5
49805,105576,5
49816,105577,4
49810,105575,4
49808,105580,5
49814,105592,5
49810,105588,5
49812,105582,4
49804,105577,5
49809,105581,5
49811,105582,5
49810,105585,5
49812,105588,4
49807,105573,5
49814,105573,5
49811,105566,6
49805,105565,4
49801,105561,4
49810,105568,5
49802,105565,5
49799,105552,5
49808,105558,5
49803,105553,4
49789,105547,5
49796,105549,5
49793,105547,6
49799,105553,4
49802,105561,4
49797,105547,5
49794,105538,5
49789,105541,5
49798,105536,5
49780,105525,4
49780,105522,5
49781,105532,5
49788,105529,5
49781,105530,5
49791,105530,4
49782,105534,5
49788,105541,5
49789,105537,6
49791,105533,3
49794,105535,5
49796,105548,5
49794,105551,5
49801,105556,5
49805,105563,4
49804,105565,5
49798,105566,5
49808,105568,5
49809,105567,5
49813,105572,4
49799,105567,5
49807,105567,5
49817,105579,5
49805,105589,5
49790,105579,4
49809,105577,5
49810,105583,5
49813,105586,5
49804,105592,5
49804,105585,5
49815,105579,4
49806,105600,5
49824,105588,5
49805,105579,5
49808,105589,4
49813,105584,5
49833,105595,5
49815,105581,5
49819,105583,4
49820,105586,5
49838,105595,5
49818,105596,5
49819,105600,5
49822,105597,4
49826,105613,5
49822,105610,5
49828,105617,5
49832,105621,5
49831,105625,4
49830,105625,5
49830,105625,5
49839,105630,5
49832,105630,5
49840,105640,4
49834,105645,6
49831,105628,4
49834,105622,5
49843,105632,5
49837,105637,4
49839,105649,5
49847,105641,5
49838,105658,5
49845,105647,5
49848,105659,4
49859,105689,5
49859,105675,5
49864,105685,5
49872,105701,4
49875,105732,4
49870,105720,5
49885,105725,5
49883,105723,5
49882,105743,4
49890,105736,5
49889,105736,5
49886,105747,5
49889,105751,5
49902,105758,4
49901,105774,5
49904,105772,6
49908,105777,4
49905,105769,5
49904,105776,4
49905,105766,5
49899,105771,5
49909,105763,5
49900,105755,5
49883,105745,4
49894,105740,5
49882,105737,5
49882,105732,5
49890,105730,5
49881,105724,4
49892,105741,5
49885,105744,5
49904,105740,5
49886,105742,5
49893,105746,4
49897,105741,5
49900,105755,5
49894,105744,5
49900,105741,4
49896,105752,5
49897,105749,5
49888,105751,6
49886,105741,4
49896,105747,4
49893,105741,5
49886,105747,5
49899,105750,5
49906,105749,5
49900,105761,4
49904,105769,5
49898,105768,5
49909,105764,5
49911,105779,5
49907,105791,4
49918,105807,5
49925,105812,5
49930,105826,5
49939,105841,5
49943,105844,4
49943,105843,5
49949,105854,5
49949,105859,5
49952,105863,5
49950,105870,4
49958,105883,5
49963,105907,5
49974,105911,5
49986,105934,4
49987,105949,4
49995,105970,5
50006,105977,5
50014,105985,5
50009,106000,4
50020,106016,5
50027,106024,5
50023,106045,5
50046,106056,5
50050,106065,4
50058,106079,5
50062,106082,5
50057,106098,5
50063,106094,5
50062,106108,4
50075,106121,5
50082,106122,5
50078,106119,5
50080,106128,5
50083,106125,5
50077,106120,4
50065,106111,5
50072,106112,5
50077,106113,5
50073,106116,4
50070,106122,5
50073,106126,5
50073,106125,5
50080,106124,5
50081,106125,4
50068,106124,5
50072,106115,5
50068,106119,5
50083,106118,4
50066,106120,4
50069,106125,5
50070,106123,5
50076,106132,5
50073,106121,4
50092,106124,5
50086,106134,5
50092,106155,5
50107,106157,5
50098,106152,4
50097,106156,6
50097,106168,4
50118,106169,5
50102,106177,5
50104,106163,4
50102,106185,5
50113,106192,5
50105,106193,5
50110,106194,5
50114,106209,4
50125,106207,5
50118,106206,5
50130,106223,5
50124,106217,5
50125,106213,4
50122,106225,5
50121,106209,5
50127,106213,5
50120,106190,5
50110,106195,4
50112,106184,5
50097,106186,5
50108,106165,4
50107,106175,4
50107,106190,5
50115,106191,5
50115,106201,5
50120,106214,5
50128,106230,4
50139,106232,5
50132,106252,5
50134,106244,5
50141,106254,5
50139,106250,4
50136,106269,5
50139,106253,5
50137,106244,5
50138,106244,5
50141,106250,4
50134,106244,5
50133,106233,5
50134,106232,5
50131,106233,5
50130,106226,4
50131,106222,5
50120,106219,5
50123,106226,6
50127,106229,4
50129,106228,4
50132,106223,5
50133,106236,5
50132,106227,5
50125,106209,4
50122,106220,4
50128,106205,5
50114,106204,5
50105,106187,5
50101,106189,4
50108,106187,5
50102,106199,5
50104,106182,5
50099,106185,5
50112,106180,4
50097,106179,5
50102,106175,5
50097,106167,5
50097,106164,5
50066,106115,54
50066,106115,4
50072,106106,4
50061,106094,5
50057,106098,5
50056,106094,4
50057,106073,5
50043,106069,5
50047,106057,5
50034,106061,4
50036,106043,4
50023,106042,5
50035,106024,5
50025,106015,5
50022,106001,4
50017,106005,6
50010,105993,4
50009,105990,5
50001,105978,5
49999,105968,6
49995,105967,3
49993,105953,5
49997,105955,5
49995,105942,5
49981,105937,4
49987,105936,5
49983,105926,5
49974,105910,5
49974,105909,5
49965,105896,4
49962,105886,5
49955,105869,5
49955,105870,5
49942,105843,5
49944,105843,4
49933,105827,5
49925,105823,5
49920,105809,5
49917,105792,4
49917,105783,4
49909,105784,6
49904,105759,4
49894,105749,5
49895,105747,4
49883,105726,5
49865,105706,5
49860,105680,5
49846,105652,5
49827,105613,4
49802,105586,5
49802,105571,5
49793,105541,5
49779,105517,5
49761,105502,4
49768,105504,5
49770,105504,5
49766,105491,5
49774,105502,5
49765,105487,4
49760,105485,5
49759,105471,5
49773,105458,5
49741,105449,5
49746,105443,4
49738,105438,5
49747,105423,6
49726,105425,4
49720,105409,5
49720,105385,4
49719,105373,5
49702,105363,5
49683,105343,5
49689,105330,4
49678,105315,4
49683,105310,5
49671,105304,5
49673,105302,5
49673,105293,4
49664,105292,5
49665,105304,5
49668,105296,5
49664,105271,5
49654,105288,4
49660,105287,5
49660,105286,5
49663,105275,5
49664,105278,5
49662,105284,4
49665,105299,5
49658,105292,5
49664,105297,6
49661,105300,4
49671,105299,4
49662,105316,5
49668,105294,5
49664,105304,5
49667,105311,5
49670,105327,4
49676,105324,5
49677,105327,5
49683,105329,5
49688,105342,4
49689,105337,4
49687,105354,5
49683,105351,5
49693,105368,5
49695,105364,4
49698,105370,5
49707,105380,5
49709,105378,5
49701,105382,5
49713,105387,5
49710,105383,4
49703,105372,5
49706,105378,5
49708,105387,6
49711,105376,3
49709,105380,5
49704,105379,5
49700,105371,5
49710,105379,5
49710,105375,4
49707,105371,5
49706,105379,5
49712,105382,5
49707,105388,5
49712,105378,4
49715,105389,5
49708,105395,5
49711,105400,5
49717,105405,5
49702,105395,4
49716,105400,5
49715,105378,5
49706,105380,5
49711,105369,4
49701,105371,5
49702,105375,4
49701,105373,5
49696,105379,5
49710,105369,4
49704,105374,5
49704,105367,5
49710,105386,5
49712,105389,5
49706,105388,4
49718,105399,5
49710,105397,5
49720,105410,5
49727,105411,5
49725,105415,4
49722,105417,5
49716,105415,5
49725,105422,5
49724,105413,5
49730,105412,4
49731,105403,5
49718,105406,5
49721,105398,7
49716,105403,3
49724,105401,4
49716,105409,6
49722,105409,4
49721,105401,5
49719,105402,5
49715,105394,4
49706,105386,5
49698,105373,5
49691,105338,5
49684,105320,4
49673,105314,5
49678,105316,5
49675,105312,5
49675,105306,5
49673,105311,4
49679,105322,5
49687,105331,5
49692,105341,5
49692,105334,5
49688,105350,4
49695,105348,5
49699,105356,5
49702,105353,5
49705,105361,5
49705,105368,4
49702,105371,5
49706,105381,6
49710,105377,4
49712,105381,5
49721,105388,4
49700,105387,5
49713,105390,5
49722,105395,5
49716,105397,5
49708,105409,4
49725,105405,5
49731,105415,5
49726,105408,5
49734,105411,4
49732,105413,4
49735,105424,5
49733,105436,5
49755,105446,5
49743,105460,4
49755,105466,5
49753,105475,5
49776,105477,5
49766,105477,5
49752,105474,4
49763,105489,5
49773,105488,5
49765,105495,6
49775,105496,4
49776,105509,4
49783,105515,5
49777,105521,5
49788,105526,5
49788,105533,5
49778,105512,4
49787,105530,5
49786,105533,5
49782,105535,5
49786,105516,5
49787,105529,4
49786,105533,5
49787,105535,5
49775,105523,5
49785,105526,5
49783,105526,4
49784,105523,5
49780,105535,5
49784,105531,5
49779,105517,5
49778,105523,4
49781,105536,5
49780,105516,5
49780,105521,5
49774,105530,4
49785,105532,5
49782,105524,5
49779,105523,5
49781,105522,5
49778,105522,4
49770,105517,5
49772,105507,5
49773,105503,5
49774,105497,5
49767,105498,4
49773,105503,5
49772,105500,5
49773,105509,5
49767,105504,5
49777,105508,4
49776,105505,5
49781,105509,5
49779,105526,5
49779,105520,5
49775,105526,5
49781,105531,4
49786,105525,5
49776,105526,5
49784,105520,4
49776,105513,4
49782,105513,5
49782,105521,5
49774,105521,5
49783,105527,4
49786,105514,5
49779,105521,5
49778,105529,5
49776,105524,5
49792,105527,4
49787,105540,5
49787,105548,5
49789,105545,5
49788,105537,5
49795,105536,4
49780,105536,5
49784,105531,5
49773,105521,5
49776,105500,5
49771,105495,4
49758,105491,6
49760,105486,4
49757,105469,5
49756,105480,5
49755,105480,4
49766,105492,5
49775,105501,5
49774,105513,5
49771,105509,5
49775,105519,4
49779,105523,5
49782,105538,5
49784,105525,5
49780,105523,4
49778,105521,4
49780,105521,5
49776,105519,5
49785,105526,5
49780,105526,4
49783,105535,5
49792,105532,5
49791,105528,5
49782,105516,5
49778,105514,4
49776,105514,5
49776,105513,6
49775,105521,4
49776,105514,5
49782,105528,4
49780,105522,5
49784,105528,5
49783,105535,5
49783,105534,5
49789,105538,4
49786,105530,5
49790,105540,5
49792,105535,5
49785,105534,5
49791,105530,4
49785,105534,5
49789,105544,5
49778,105543,5
49793,105538,5
49789,105544,4
49792,105541,5
49773,105531,5
49791,105525,5
49788,105530,4
49788,105532,5
49767,105531,5
49780,105527,5
49778,105519,5
49782,105516,4
49774,105503,5
49774,105507,5
49762,105491,5
49768,105493,5
49767,105490,4
49760,105484,5
49761,105486,5
49761,105488,5
49776,105485,5
49769,105489,4
49757,105484,5
49760,105482,5
49771,105484,5
49755,105482,5
49759,105483,5
49748,105485,4
49759,105489,5
49758,105473,5
49753,105481,5
49757,105484,3
49766,105493,5
49765,105493,5
49758,105493,5
49768,105505,4
49773,105485,4
49773,105512,5
49768,105505,5
49782,105518,5
49783,105506,4
49787,105536,5
49785,105527,5
49787,105531,5
49796,105536,5
49796,105546,4
49791,105543,5
49796,105539,5
49791,105554,5
49789,105542,5
49789,105543,4
49788,105552,6
49796,105576,4
49795,105551,5
49804,105565,5
49807,105570,6
49807,105582,3
49813,105575,5
49809,105581,5
49803,105584,5
49809,105586,4
49811,105589,5
49815,105592,5
49815,105594,5
49822,105602,5
49823,105600,4
49814,105613,5
49823,105620,5
49825,105614,5
49830,105630,4
49834,105638,5
49827,105623,5
49827,105618,5
49826,105632,5
49838,105628,4
49829,105620,5
49834,105620,6
49825,105611,4
49828,105604,5
49818,105599,4
49823,105591,5
49811,105606,5
49819,105606,5
49818,105599,5
49820,105608,4
49823,105607,5
49829,105619,5
49827,105629,5
49822,105616,5
49834,105614,4
49827,105622,5
49826,105616,5
49832,105612,5
49828,105618,5
49838,105630,4
49835,105618,5
49831,105626,5
49832,105622,5
49837,105622,4
49843,105638,4
49838,105635,5
49834,105629,6
49837,105627,4
49843,105638,4
49844,105647,5
49844,105656,5
49845,105654,5
49850,105651,5
49849,105663,4
49851,105673,5
49867,105668,5
49861,105680,5
49870,105687,5
49865,105693,4
49869,105699,5
49873,105705,5
49871,105712,5
49874,105714,5
49880,105714,4
49881,105731,5
49884,105734,5
49886,105745,5
49895,105762,5
49902,105757,4
49896,105762,5
49908,105780,5
49898,105779,6
49909,105779,4
49913,105797,4
49926,105806,5
49928,105829,5
49938,105834,5
49945,105849,4
49946,105855,4
49951,105863,5
49955,105877,5
49956,105886,5
49969,105895,4
49968,105886,5
49961,105888,5
49956,105886,5
49946,105870,5
49952,105868,4
49946,105862,5
49946,105857,5
49925,105844,5
49928,105843,5
49934,105834,5
49935,105814,4
49917,105815,5
49930,105818,5
49924,105818,6
49930,105808,3
49922,105812,5
49926,105806,5
49932,105798,5
49923,105797,5
49931,105807,4
49915,105805,5
49916,105799,5
49917,105788,5
49932,105789,5
49909,105795,4
49918,105806,5
49916,105801,5
49920,105803,5
49915,105808,4
49915,105811,5
49923,105803,5
49911,105809,5
49924,105811,5
49930,105810,4
49931,105808,6
49929,105811,4
49929,105813,5
49930,105811,5
49923,105816,4
49929,105814,5
49927,105818,5
49918,105811,5
49919,105812,5
49928,105794,4
49919,105793,5
49909,105788,5
49914,105771,5
49894,105766,5
49898,105740,4
49885,105743,5
49884,105727,5
49879,105732,5
49880,105722,5
49894,105730,4
49887,105739,5
49888,105754,5
49893,105738,5
49884,105738,4
49879,105735,4
49876,105728,6
49878,105728,4
49881,105713,5
49875,105715,4
49872,105723,5
49877,105729,5
49879,105731,5
49875,105726,5
49871,105720,4
49869,105725,5
49875,105712,5
49873,105709,5
49873,105708,5
49868,105713,4
49870,105713,5
49876,105716,5
49869,105709,5
49880,105723,5
49879,105722,4
49874,105723,5
49872,105713,5
49878,105719,5
49880,105719,5
49872,105705,4
49866,105700,5
49864,105698,6
49863,105691,4
49849,105683,5
49859,105677,4
49859,105686,5
49850,105682,5
49851,105674,5
49855,105682,4
49846,105679,5
49857,105670,5
49842,105667,5
49851,105656,5
49842,105658,4
49838,105657,5
49836,105651,5
49838,105659,5
49838,105647,5
49827,105643,4
49834,105641,5
49835,105641,5
49829,105638,5
49832,105639,5
49840,105628,4
49824,105612,5
49822,105617,5
49822,105604,6
49814,105592,4
49817,105587,4
49816,105591,5
49801,105584,5
49811,105588,9
49801,105588,1
49806,105586,4
49812,105593,5
49808,105587,5
49812,105589,5
49803,105578,4
49806,105581,4
49805,105566,5
49792,105577,5
49795,105564,5
49792,105562,4
49799,105555,5
49790,105559,5
49786,105552,5
49783,105556,5
49795,105549,5
49792,105564,4
49795,105558,5
49787,105560,5
49790,105556,5
49797,105553,4
49791,105560,5
49787,105562,5
49787,105549,5
49793,105548,5
49786,105547,4
49794,105552,5
49790,105549,5
49786,105543,5
49772,105545,5
49785,105547,4
49782,105539,5
49787,105543,5
49771,105540,5
49778,105526,5
49782,105519,4
49776,105514,5
49754,105504,5
49752,105471,5
49742,105455,4
49729,105425,5
49724,105402,4
49707,105386,5
49704,105374,5
49705,105366,4
49717,105371,5
49700,105378,5
49702,105385,5
49704,105376,5
49708,105376,4
49705,105368,5
49703,105366,5
49700,105352,5
49694,105352,5
49694,105342,4
49683,105342,5
49685,105342,5
49694,105333,5
49679,105338,5
49689,105343,4
49685,105333,5
49683,105321,5
49677,105326,5
49679,105323,5
49682,105333,4
49684,105312,6
49687,105337,4
49680,105334,5
49678,105329,4
49668,105318,4
49676,105318,5
49678,105314,5
49669,105307,5
49661,105310,4
49659,105293,5
49654,105280,5
49657,105276,5
49649,105288,5
49655,105265,4
49649,105268,5
49658,105273,5
49656,105278,5
49666,105283,5
49663,105275,4
49665,105284,5
49658,105290,5
49653,105286,5
49647,105274,5
49656,105284,4
49654,105265,5
49654,105265,6
49645,105262,4
49659,105264,5
49640,105263,4
49656,105263,5
49649,105269,5
49645,105269,5
49648,105264,5
49644,105278,4
49644,105269,5
49650,105261,5
49644,105267,5
49657,105274,4
49650,105279,4
49654,105271,5
49654,105273,5
49655,105263,5
49650,105269,4
49648,105275,5
49653,105268,5
49649,105277,5
49651,105272,5
49648,105254,4
49648,105264,5
49645,105260,5
49642,105263,5
49647,105259,5
49646,105261,4
49650,105259,5
49653,105260,5
49643,105272,5
49649,105264,5
49652,105258,4
49641,105249,5
49651,105264,5
49645,105263,5
49653,105257,5
49649,105263,4
49649,105263,5
49658,105270,5
49649,105261,5
49647,105259,5
49659,105266,4
49653,105271,5
49645,105265,5
49649,105265,5
49655,105266,5
49656,105266,4
49656,105264,5
49656,105267,5
49652,105256,5
49649,105263,4
49657,105271,5
49648,105266,5
49652,105270,5
49657,105262,5
49654,105274,4
49652,105270,5
49663,105278,5
49653,105273,5
49652,105281,5
49652,105289,4
49651,105277,5
49660,105278,5
49664,105273,5
49648,105269,5
49649,105279,4
49660,105286,5
49661,105282,5
49651,105282,5
49649,105283,5
49655,105288,5
49657,105286,4
49657,105288,5
49662,105296,5
49658,105303,4
49672,105298,4
49672,105306,5
49671,105301,5
49669,105305,5
49665,105302,4
49675,105317,5
49682,105327,5
49673,105316,5
49668,105308,5
49679,105325,4
49682,105323,5
49679,105330,5
49667,105322,5
49686,105325,5
49680,105328,4
49682,105326,5
49685,105324,6
49681,105325,4
49681,105328,5
49685,105330,4
49695,105326,7
49673,105321,3
49685,105324,5
49682,105333,5
49691,105318,4
49681,105333,5
49680,105333,5
49686,105335,5
49689,105335,5
49678,105334,4
49680,105335,5
49689,105327,5
49681,105330,5
49683,105327,4
49685,105327,5
49682,105331,5
49676,105308,5
49682,105322,5
49688,105322,4
49677,105321,5
49684,105314,5
49683,105335,6
49684,105336,4
49689,105329,4
49689,105324,5
49680,105329,5
49681,105328,5
49680,105327,5
49678,105336,4
49679,105323,5
49676,105316,5
49681,105332,5
49674,105336,5
49683,105321,4
49683,105331,5
49680,105334,5
49677,105320,5
49662,105295,5
49657,105292,4
49659,105270,5
49649,105273,5
49639,105248,5
49634,105250,5
49629,105224,4
49636,105225,5
49631,105218,5
49615,105202,6
49625,105205,3
49621,105214,5
49623,105217,5
49621,105220,5
49623,105216,5
49619,105218,4
49620,105213,5
49629,105215,5
49622,105209,5
49623,105195,5
49624,105204,4
49622,105200,5
49618,105201,5
49618,105209,5
49612,105200,5
49617,105192,4
49609,105179,5
49610,105172,5
49604,105166,5
49607,105177,5
49600,105172,5
49603,105178,4
49606,105176,5
49608,105184,5
49605,105177,6
49605,105174,3
49605,105173,5
49607,105188,5
49615,105182,5
49618,105200,4
49619,105201,4
49621,105204,5
49620,105196,5
49623,105213,5
49618,105208,4
49618,105197,5
49606,105184,5
49604,105180,5
49609,105185,5
49614,105192,4
49616,105196,5
49614,105192,5
49608,105202,5
49608,105203,5
49621,105206,4
49624,105210,6
49613,105209,4
49615,105202,5
49621,105204,5
49620,105213,6
49614,105204,3
49618,105204,5
49620,105214,5
49624,105222,5
49614,105209,4
49623,105210,5
49622,105208,5
49617,105202,5
49620,105202,5
49621,105211,4
49623,105222,5
49618,105215,5
49620,105222,5
49623,105220,4
49628,105225,4
49628,105220,5
49633,105223,5
49627,105213,5
49627,105218,4
49635,105228,5
49635,105228,6
49630,105224,4
49628,105232,5
49628,105231,4
49631,105220,5
49625,105222,5
49631,105222,5
49619,105221,5
49611,105217,4
49620,105217,5
49614,105210,5
49614,105193,5
49608,105188,5
49614,105183,4
49610,105186,5
49603,105176,5
49599,105166,5
49597,105162,5
49592,105155,4
49587,105151,5
49600,105143,5
49586,105135,5
49584,105129,5
49571,105126,4
49579,105108,5
49567,105097,6
49551,105085,4
49548,105059,4
49549,105026,5
49526,105016,5
49522,105001,5
49510,104988,5
49512,104964,4
49492,104965,5
49496,104942,5
49492,104952,5
49486,104940,5
49491,104942,4
49499,104938,5
49484,104918,5
49479,104900,5
49467,104901,5
49465,104883,4
49452,104871,5
49448,104841,5
49430,104822,5
49419,104802,5
49409,104780,4
49402,104763,5
49398,104753,5
49393,104755,6
49386,104745,4
49402,104754,4
49394,104754,5
49393,104759,5
49397,104754,5
49396,104777,4
49397,104752,4
49390,104754,5
49394,104747,5
49390,104757,5
49381,104751,4
49391,104751,5
49389,104748,5
49393,104748,5
49400,104754,5
49395,104750,4
49392,104757,5
49393,104746,5
49397,104749,5
49390,104754,5
49392,104753,5
49395,104752,4
49401,104760,5
49394,104760,5
49402,104764,6
49401,104773,3
49411,104788,5
49408,104799,5
49416,104794,5
49425,104782,5
49414,104792,4
49418,104778,5
49408,104774,5
49406,104774,5
49404,104764,5
49400,104768,4
49403,104763,5
49403,104761,5
49397,104766,5
49402,104758,4
49404,104762,4
49384,104743,5
49382,104726,5
49381,104721,5
49363,104704,4
49365,104687,6
49354,104675,4
49349,104676,5
49353,104666,5
49344,104645,4
49339,104629,5
49332,104627,5
49325,104622,5
49321,104610,5
49317,104607,4
49311,104593,5
49309,104582,5
49308,104581,5
49306,104572,5
49309,104573,4
49307,104584,5
49311,104579,5
49310,104573,5
49299,104570,6
49308,104579,3
49309,104570,5
49304,104581,5
49301,104572,5
49305,104575,4
49311,104584,4
49312,104590,6
49308,104599,4
49317,104597,5
49314,104597,4
49319,104587,5
49308,104595,5
49314,104602,5
49317,104605,5
49321,104606,4
49329,104611,5
49326,104613,5
49322,104617,5
49326,104614,5
49314,104598,4
49326,104588,5
49315,104580,5
49300,104563,5
49293,104551,5
49294,104548,4
49287,104536,5
49291,104541,5
49277,104537,5
49281,104537,5
49280,104519,4
49272,104513,5
49272,104505,6
49266,104507,4
49263,104494,5
49254,104483,4
49261,104488,5
49256,104473,5
49243,104466,5
49233,104455,4
49247,104447,4
49244,104450,5
49245,104462,5
49248,104471,5
49248,104477,4
49267,104499,5
49257,104494,5
49269,104507,5
49272,104517,5
49270,104517,4
49280,104516,5
49293,104532,5
49285,104522,5
49278,104534,5
49284,104524,4
49289,104522,5
49282,104527,5
49284,104533,5
49274,104528,5
49290,104519,4
49281,104524,5
49278,104534,5
49283,104520,5
49285,104525,5
49285,104531,4
49288,104545,5
49294,104548,5
49301,104563,5
49313,104583,5
49302,104604,4
49325,104621,5
49315,104606,5
49328,104616,5
49329,104626,4
49324,104618,5
49324,104609,5
49327,104611,5
49323,104624,5
49328,104619,5
49322,104645,4
49327,104626,5
49323,104621,5
49334,104636,5
49337,104661,4
49332,104650,5
49348,104659,5
49352,104681,5
49368,104707,5
49368,104714,4
49386,104726,5
49400,104748,5
49397,104771,5
49412,104785,5
49403,104783,4
49405,104794,5
49406,104789,5
49413,104792,5
49407,104794,5
49412,104793,4
49415,104791,5
49415,104787,5
49409,104790,5
49410,104791,4
49410,104799,5
49417,104789,4
49411,104798,5
49411,104798,5
49413,104796,4
49426,104801,5
49419,104802,5
49426,104799,5
49424,104808,5
49419,104809,4
49427,104826,5
49427,104824,5
49426,104823,5
49436,104832,5
49440,104845,4
49436,104840,5
49441,104845,5
49445,104850,5
49442,104853,5
49444,104871,4
49441,104880,5
49453,104877,5
49459,104880,5
49453,104876,5
49453,104871,4
49446,104876,6
49456,104882,4
49462,104884,5
49459,104891,5
49467,104904,4
49473,104894,5
49464,104889,5
49473,104890,5
49471,104898,4
49457,104891,4
49462,104882,5
49456,104879,5
49447,104863,5
49450,104857,4
49442,104848,5
49444,104854,5
49437,104850,5
49449,104856,5
49453,104864,4
49459,104869,5
49459,104870,5
49458,104879,5
49460,104880,5
49461,104881,4
49455,104892,5
49454,104894,5
49473,104890,5
49471,104899,5
49468,104897,4
49473,104899,5
49465,104907,5
49477,104919,5
49470,104911,5
49479,104908,4
49475,104909,5
49476,104922,5
49476,104920,5
49473,104911,5
49478,104912,4
49475,104912,5
49474,104928,5
49473,104920,5
49471,104914,5
49485,104926,4
49474,104929,5
49487,104929,5
49494,104945,6
49481,104927,3
49477,104942,5
49480,104932,5
49476,104937,5
49484,104925,5
49476,104926,4
49486,104942,5
49487,104948,5
49492,104957,5
49493,104953,5
49487,104961,4
49498,104962,5
49494,104955,5
49511,104973,5
49500,104971,5
49497,104971,4
49502,104958,5
49519,104976,5
49497,104971,5
49501,104968,5
49509,104972,5
49508,104973,4
49507,104979,5
49501,104980,5
49497,104977,6
49514,104976,3
49512,104977,5
49512,104966,5
49512,104971,5
49506,104948,4
49495,104962,5
49502,104953,5
49494,104948,5
49484,104925,5
49491,104932,4
49481,104925,5
49477,104921,5
49476,104897,5
49471,104913,5
49468,104905,4
49467,104906,5
49470,104902,5
49473,104895,5
49461,104882,5
49459,104886,4
49457,104896,6
49458,104858,4
49449,104856,5
49444,104852,5
49444,104859,6
49446,104835,3
49441,104835,5
49439,104820,5
49439,104829,5
49442,104826,4
49435,104831,5
49436,104826,5
49429,104814,5
49437,104817,4
49437,104811,5
49442,104817,5
49430,104812,5
49419,104800,5
49429,104790,4
49425,104792,5
49410,104790,5
49418,104776,5
49406,104762,5
49400,104744,4
49389,104725,5
49379,104709,6
49372,104696,4
49373,104688,5
49369,104686,4
49371,104676,5
49375,104689,5
49377,104700,5
49374,104692,5
49371,104702,4
49373,104691,5
49379,104685,5
49371,104697,5
49373,104686,5
49371,104693,4
49377,104695,5
49376,104681,5
49374,104688,5
49377,104688,4
49373,104696,4
49382,104696,5
49387,104706,5
49379,104697,5
49378,104698,4
49380,104708,5
49388,104713,5
49391,104718,6
49378,104720,4
49392,104709,4
49388,104723,5
49387,104726,5
49391,104724,5
49395,104730,5
49393,104728,4
49394,104734,5
49395,104720,5
49392,104716,5
49388,104723,5
49388,104718,4
49395,104724,5
49386,104733,5
49402,104737,5
49403,104749,5
49397,104750,4
49402,104756,5
49406,104769,5
49417,104771,5
49408,104770,5
49408,104772,4
49417,104762,5
49416,104774,5
49412,104772,6
49417,104779,3
49410,104777,5
49423,104780,5
49422,104780,5
49422,104795,5
49425,104792,4
49428,104786,5
49422,104793,5
49436,104799,5
49432,104812,5
49431,104808,4
49430,104820,5
49431,104818,5
49431,104819,5
49444,104825,5
49438,104822,4
49441,104819,5
49423,104811,5
49421,104784,5
49421,104782,5
49422,104773,5
49390,104757,4
49404,104749,5
49399,104737,5
49403,104743,6
49383,104729,3
49400,104722,5
49402,104732,5
49393,104736,5
49402,104746,4
49403,104747,4
49407,104753,5
49404,104754,5
49424,104764,5
49411,104772,4
49412,104763,5
49422,104775,5
49435,104780,5
49427,104790,5
49418,104786,4
49420,104789,5
49427,104794,5
49429,104790,5
49428,104804,5
49425,104801,4
49429,104804,6
49428,104798,4
49418,104795,5
49420,104796,5
49429,104786,4
49422,104798,5
49420,104780,5
49416,104765,5
49413,104753,5
49412,104746,4
49402,104737,5
49398,104730,5
49393,104711,5
49398,104728,5
49394,104727,4
49396,104735,5
49396,104747,5
49398,104741,5
49408,104741,4
49405,104740,4
49394,104755,5
49394,104736,5
49398,104742,5
49396,104727,4
49395,104743,5
49401,104741,6
49403,104746,4
49401,104741,5
49409,104760,4
49403,104745,5
49405,104755,5
49400,104752,5
49394,104755,5
49402,104740,4
49405,104753,5
49406,104746,5
49402,104759,5
49403,104765,5
49412,104749,4
49403,104750,5
49408,104759,5
49409,104762,5
49408,104754,5
49406,104761,4
49410,104757,5
49415,104767,5
49409,104766,5
49404,104759,4
49409,104752,4
49409,104771,5
49413,104752,6
49414,104761,4
49408,104769,4
49410,104770,5
49413,104778,5
49414,104778,5
49429,104795,5
49424,104794,4
49415,104804,5
49421,104803,5
49423,104801,5
49422,104795,5
49438,104806,4
49427,104805,5
49428,104810,5
49429,104801,5
49434,104811,5
49430,104810,4
49427,104810,5
49432,104815,5
49439,104811,5
49431,104816,5
49429,104826,4
49438,104824,5
49442,104827,5
49444,104831,6
49446,104832,7
49439,104827,1
49427,104841,5
49448,104851,5
49456,104845,5
49452,104859,4
49459,104863,4
49458,104873,5
49463,104878,5
49463,104874,5
49467,104881,4
49470,104883,5
49468,104880,5
49467,104885,5
49472,104892,5
49465,104889,4
49472,104903,5
49478,104900,5
49478,104909,5
49490,104926,5
49496,104935,5
49490,104931,4
49487,104934,5
49484,104924,5
49485,104920,5
49484,104925,4
49486,104923,5
49482,104920,5
49483,104924,5
49486,104920,5
49490,104929,4
49483,104921,5
49483,104926,5
49489,104935,5
49499,104939,5
49493,104941,4
49498,104938,5
49490,104941,5
49494,104942,5
49501,104940,4
49494,104934,5
49476,104931,5
49495,104938,5
49489,104935,5
49486,104919,4
49488,104918,6
49498,104922,4
49491,104926,5
49504,104933,5
49511,104947,4
49511,104970,5
49526,104985,5
49514,104992,5
49541,105002,5
49528,105009,4
49530,105001,5
49523,104996,5
49540,104991,5
49530,105007,5
49524,105009,4
49531,105020,5
49544,105016,5
49531,105019,5
49536,105026,5
49543,105027,4
49546,105023,5
49537,105041,5
49548,105041,5
49563,105057,4
49556,105039,4
49549,105062,6
49562,105067,4
49557,105065,5
49560,105061,4
49568,105086,5
49585,105100,5
49592,105108,5
49591,105118,5
49591,105128,4
49591,105121,5
49584,105118,5
49589,105138,5
49582,105113,5
49580,105107,4
49577,105100,5
49584,105124,5
49575,105092,5
49579,105101,5
49575,105091,4
49576,105099,5
49574,105089,5
49574,105095,5
49573,105087,5
49575,105100,4
49570,105088,5
49569,105099,5
49576,105103,5
49584,105096,5
49579,105095,4
49577,105104,5
49577,105087,5
49570,105097,5
49572,105099,4
49574,105095,4
49577,105100,5
49583,105111,5
49581,105099,5
49585,105118,4
49588,105124,5
49587,105133,5
49598,105139,5
49600,105136,5
49600,105158,4
49598,105151,5
49605,105152,5
49612,105154,5
49614,105166,5
49614,105162,4
49612,105167,5
49611,105175,5
49616,105182,5
49617,105186,5
49619,105184,4
49625,105199,5
49625,105195,5
49621,105199,5
49633,105205,5
49629,105213,4
49635,105207,5
49640,105217,5
49632,105211,5
49636,105219,5
49638,105222,4
49640,105230,5
49652,105235,5
49638,105232,5
49648,105242,4
49650,105252,5
49659,105260,5
49654,105257,5
49664,105269,5
49672,105288,5
49668,105301,3
49672,105297,5
49682,105302,5
49685,105294,5
49682,105306,4
49683,105306,5
49682,105310,5
49679,105301,5
49684,105287,5
49670,105281,4
49665,105281,5
49658,105270,5
49664,105279,5
49666,105265,5
49664,105281,4
49667,105284,5
49670,105293,5
49675,105303,5
49680,105295,5
49668,105311,4
49681,105306,6
49678,105299,4
49682,105302,5
49676,105306,4
49673,105303,6
49689,105313,3
49683,105317,5
49680,105317,5
49684,105315,4
49684,105326,5
49681,105314,5
49686,105316,5
49687,105319,5
49688,105324,4
49684,105315,5
49686,105321,5
49677,105331,5
49685,105333,5
49701,105339,4
49695,105337,5
49687,105356,5
49709,105362,5
49719,105381,5
49705,105383,4
49714,105394,5
49719,105393,6
49724,105405,4
49726,105386,5
49737,105405,4
49738,105415,5
49727,105419,5
49747,105432,5
49761,105455,5
49759,105464,4
49761,105482,5
49769,105491,5
49791,105506,5
49784,105519,4
49784,105527,4
49784,105541,5
49800,105548,5
49803,105558,5
49809,105573,4
49810,105582,5
49811,105583,5
49818,105595,5
49832,105595,5
49832,105601,4
49830,105604,5
49835,105631,5
49843,105638,6
49845,105648,4
49848,105630,4
49854,105662,5
49848,105664,5
49856,105668,5
49856,105678,5
49864,105683,4
49865,105683,5
49870,105680,5
49868,105711,5
49866,105689,5
49869,105688,4
49869,105699,5
49867,105710,5
49872,105701,5
49885,105703,4
49879,105702,4
49878,105716,5
49891,105722,5
49884,105716,5
49889,105735,5
49899,105738,4
49900,105741,5
49891,105747,5
49890,105743,6
49899,105756,3
49909,105756,5
49908,105781,5
49917,105777,5
49916,105789,5
49919,105789,4
49915,105804,5
49925,105805,5
49928,105815,5
49929,105808,5
49936,105817,4
49931,105821,5
49925,105826,5
49937,105823,5
49937,105838,5
49936,105842,4
49948,105841,5
49949,105867,5
49949,105865,5
49960,105878,4
49957,105892,5
49966,105897,4
49975,105907,5
49976,105912,5
49972,105921,6
49984,105929,3
50000,105935,5
49984,105936,5
50000,105954,5
50003,105957,4
50009,105970,5
50006,105973,5
50009,105974,5
50015,105987,5
50015,105981,4
50007,105978,5
50000,105961,5
50000,105960,5
49998,105944,5
49993,105924,4
49983,105924,5
49975,105916,5
49983,105912,5
49985,105912,5
49981,105931,4
49990,105939,6
49997,105951,4
50008,105961,5
50005,105965,4
50009,105964,4
50009,105968,5
50009,105968,5
50009,105982,5
50007,105983,4
50011,105984,5
50025,105986,5
50015,105984,5
50011,105982,5
50015,105992,4
50014,105991,5
50023,105997,5
50018,105991,5
50020,106001,5
50018,105999,4
50023,106006,5
50029,106005,5
50037,106026,5
50032,106029,5
50032,106041,4
50048,106051,5
50057,106049,6
50056,106074,4
50067,106088,5
50066,106091,4
50072,106099,5
50069,106100,5
50067,106105,5
50069,106108,5
50077,106113,4
50078,106122,5
50075,106115,5
50067,106123,5
50079,106131,4
50084,106129,5
50091,106142,5
50081,106143,5
50094,106144,5
50085,106136,4
50084,106135,5
50084,106128,5
50076,106121,5
50079,106112,5
50076,106114,4
50095,106120,5
50075,106117,5
50063,106105,6
50072,106107,4
50084,106114,4
50071,106109,5
50079,106110,5
50079,106108,5
50086,106110,5
50076,106107,4
50072,106102,5
50064,106090,5
50069,106088,5
50073,106094,5
50055,106078,4
50062,106072,5
50060,106074,5
50059,106085,5
50058,106072,4
50062,106074,4
50065,106067,5
50057,106074,5
50051,106067,5
50050,106071,5
50048,106065,4
50057,106065,5
50054,106058,5
50054,106063,6
50055,106084,3
50041,106054,5
50048,106066,5
50045,106049,5
50042,106061,5
50041,106049,4
50042,106045,5
50047,106048,5
50039,106057,5
50047,106042,5
50048,106052,4
50038,106047,5
50036,106035,5
50043,106032,5
50031,106040,5
50036,106024,4
50037,106032,5
50038,106033,5
50030,106030,5
50034,106033,4
50037,106029,5
50027,106017,4
50039,106023,5
50026,106013,5
50031,106016,4
50021,106010,5
50026,106003,5
50021,106001,5
50013,105985,5
50008,105976,4
50008,105969,5
50007,105954,5
49997,105952,5
50000,105943,5
50001,105942,4
49989,105936,5
49983,105931,5
49975,105907,5
49971,105896,5
49962,105893,4
49957,105882,5
49948,105850,5
49936,105818,5
49926,105790,5
49911,105757,4
49900,105736,6
49883,105720,4
49877,105718,5
49879,105695,4
49876,105696,4
49880,105697,5
49883,105700,5
49869,105700,5
49876,105702,4
49869,105692,5
49863,105673,5
49872,105667,5
49854,105668,5
49860,105666,4
49853,105664,6
49855,105655,4
49851,105650,5
49841,105641,5
49844,105640,4
49847,105628,5
49839,105621,5
49828,105607,5
49828,105609,5
49826,105611,4
49833,105609,5
49829,105611,6
49831,105601,4
49824,105602,5
49827,105597,4
49818,105605,5
49823,105602,5
49826,105600,5
49826,105596,5
49812,105593,4
49822,105588,5
49827,105600,5
49825,105596,5
49825,105591,4
49825,105600,4
49822,105615,5
49829,105608,5
49829,105611,5
49823,105610,4
49832,105615,5
49833,105617,5
49830,105605,5
49835,105603,5
49823,105623,4
49834,105620,5
49836,105629,5
49842,105618,5
49842,105616,5
49830,105625,4
49840,105620,5
49837,105609,5
49837,105607,5
49812,105599,5
49819,105606,4
49834,105611,5
49822,105589,5
49815,105583,5
49825,105602,5
49821,105591,4
49814,105579,5
49824,105584,5
49818,105578,5
49820,105583,5
49814,105577,4
49824,105582,5
49815,105578,5
49816,105578,5
49810,105583,5
49821,105572,4
49810,105564,5
49807,105560,5
49808,105558,5
49811,105554,4
49801,105549,5
49800,105547,5
49794,105541,5
49803,105521,5
49785,105531,4
49796,105545,5
49799,105537,5
49799,105530,5
49796,105544,5
49798,105543,4
49798,105552,5
49802,105530,5
49804,105554,5
49819,105555,5
49805,105565,4
49801,105566,5
49811,105564,5
49810,105564,5
49810,105562,5
49809,105579,5
49807,105568,4
49806,105565,5
49808,105565,5
49809,105587,4
49804,105559,4
49797,105561,5
49799,105558,5
49807,105570,5
49796,105553,4
49805,105550,5
49796,105552,5
49806,105552,5
49801,105548,5
49805,105557,4
49794,105556,5
49802,105549,5
49799,105549,5
49796,105550,5
49806,105548,4
49799,105552,5
49803,105552,5
49803,105555,5
49807,105548,5
49814,105550,4
49805,105546,6
49803,105547,4
49804,105550,5
49805,105563,5
49801,105564,4
49802,105551,5
49805,105551,5
49792,105542,5
49793,105552,5
49801,105546,4
49796,105549,5
49798,105550,5
49799,105550,5
49801,105545,4
49796,105549,4
49797,105555,5
49805,105555,5
49810,105554,5
49804,105548,4
49804,105552,5
49796,105551,5
49799,105556,5
49798,105544,4
49802,105555,4
49797,105559,5
49798,105553,5
49802,105551,5
49804,105547,5
49795,105560,4
49802,105551,5
49805,105555,5
49807,105556,5
49812,105563,5
49800,105556,4
49807,105567,5
49809,105561,5
49811,105561,5
49803,105576,5
49813,105572,4
49817,105571,5
49813,105573,5
49804,105563,5
49807,105576,5
49819,105575,4
49804,105579,5
49808,105575,5
49802,105571,6
49810,105567,3
49811,105564,5
49804,105568,5
49815,105565,5
49811,105568,5
49811,105575,4
49812,105583,5
49814,105584,5
49813,105573,5
49817,105588,5
49815,105587,4
49819,105587,5
49823,105586,5
49825,105576,5
49814,105594,5
49814,105590,4
49819,105589,5
49821,105594,5
49818,105598,5
49827,105594,5
49827,105600,5
49822,105591,4
49814,105598,5
49823,105583,5
49816,105593,6
49801,105570,3
49809,105556,5
49802,105549,5
49796,105542,5
49774,105540,4
49791,105535,4
49783,105511,5
49784,105517,5
49785,105523,5
49786,105529,4
49781,105528,5
49788,105530,5
49800,105535,5
49791,105527,5
49786,105536,4
49792,105526,5
49809,105531,5
49790,105540,5
49787,105529,5
49790,105535,4
49795,105538,6
49796,105537,4
49791,105532,5
49794,105538,5
49791,105538,6
49793,105542,3
49791,105533,5
49795,105530,5
49795,105523,5
49798,105546,4
49788,105530,5
49789,105535,5
49797,105524,5
49791,105544,4
49797,105533,4
49797,105551,5
49801,105538,5
49806,105556,5
49806,105558,4
49808,105552,5
49807,105566,5
49809,105558,5
49798,105549,5
49803,105549,4
49798,105560,5
49803,105543,6
49799,105554,4
49811,105553,5
49811,105571,4
49804,105551,5
49798,105560,5
49804,105563,5
49801,105577,5
49801,105575,4
49803,105573,5
49815,105568,5
49815,105578,5
49816,105579,5
49820,105587,4
49825,105586,5
49823,105586,5
49822,105594,5
49818,105588,4
49811,105583,4
49821,105579,5
49815,105590,5
49820,105593,5
49815,105596,4
49821,105594,5
49827,105595,5
49825,105598,6
49821,105603,4
49824,105602,4
49832,105604,5
49827,105606,5
49820,105595,5
49826,105596,5
49824,105590,4
49817,105593,5
49815,105583,5
49824,105590,5
49810,105580,5
49807,105584,4
49813,105581,5
49811,105588,5
49818,105577,5
49813,105579,5
49819,105595,4
49815,105585,5
49814,105592,5
49818,105592,5
49809,105592,5
49822,105605,4
49821,105597,5
49825,105595,5
49817,105600,6
49829,105606,3
49827,105605,5
49827,105599,5
49831,105603,5
49830,105609,5
49831,105602,4
49826,105613,5
49828,105608,5
49829,105610,5
49832,105615,5
49822,105606,4
49830,105615,5
49822,105611,5
49830,105613,5
49830,105616,5
49836,105617,4
49824,105614,5
49831,105618,5
49827,105612,5
49833,105620,5
49834,105628,5
49833,105634,4
49849,105638,5
49847,105648,5
49850,105641,5
49849,105636,4
49842,105650,5
49837,105628,5
49840,105625,5
49833,105630,4
49839,105611,5
49823,105597,5
49824,105607,5
49824,105588,5
49817,105579,4
49813,105589,5
49818,105578,5
49825,105602,5
49823,105606,5
49819,105604,4
49831,105612,5
49819,105605,5
49819,105607,5
49835,105607,5
49834,105613,4
49812,105606,6
49831,105614,4
49830,105612,5
49824,105609,5
49821,105605,4
49827,105615,5
49831,105602,5
49826,105616,5
49836,105611,5
49826,105609,4
49831,105614,5
49835,105618,5
49843,105609,5
49830,105606,4
49828,105623,5
49839,105635,5
49855,105638,5
49848,105648,5
49851,105655,4
49850,105662,5
49856,105666,5
49861,105661,5
49853,105661,5
49857,105667,4
49855,105646,5
49856,105664,6
49853,105656,4
49854,105660,5
49845,105645,4
49857,105674,5
49855,105679,5
49859,105675,5
49856,105660,5
49867,105677,4
49868,105681,5
49857,105684,5
49874,105697,5
49862,105691,5
49872,105695,4
49878,105693,5
49873,105730,5
49874,105716,5
49880,105725,4
49886,105721,5
49881,105751,5
49889,105739,5
49897,105745,5
49892,105744,4
49892,105748,5
49895,105743,5
49897,105750,6
49899,105752,4
49894,105755,4
49894,105757,5
49894,105756,5
49899,105762,5
49900,105755,5
49904,105762,4
49901,105751,5
49912,105763,5
49909,105771,5
49904,105776,5
49907,105777,4
49910,105780,5
49916,105781,5
49926,105790,5
49918,105796,5
49926,105798,4
49925,105798,5
49923,105806,5
49931,105821,5
49926,105820,5
49936,105829,4
49940,105830,5
49937,105845,5
49941,105841,5
49943,105837,4
49941,105837,5
49948,105852,5
49947,105856,5
49949,105869,5
49951,105869,4
49959,105874,5
49959,105876,5
49952,105870,5
49964,105880,5
49962,105876,4
49955,105862,5
49960,105871,5
49959,105877,5
49954,105868,5
49954,105856,4
49946,105840,5
49943,105830,5
49933,105822,5
49929,105814,5
49933,105822,5
49939,105825,7
49938,105841,2
49972,105839,5
49940,105852,4
49954,105853,5
49954,105851,5
49953,105855,5
49958,105865,5
49948,105861,4
49957,105864,5
49958,105866,5
49965,105879,5
49967,105889,5
49964,105891,4
49970,105900,5
49973,105906,5
49973,105927,5
49981,105929,5
49984,105930,4
49984,105950,5
49990,105955,5
50009,105971,5
50014,105991,5
50017,105987,4
50021,106010,6
50026,106028,4
50045,106045,5
50039,106043,5
50040,106042,4
50042,106050,5
50043,106060,5
50048,106055,5
50041,106058,4
50039,106052,4
50041,106049,5
50050,106062,5
50045,106069,5
50057,106077,4
50056,106083,5
50068,106092,5
50052,106094,5
50060,106095,5
50065,106107,4
50072,106108,5
50067,106107,5
50070,106110,5
50067,106110,5
50062,106100,4
50077,106109,5
50069,106104,6
50076,106108,4
50070,106105,5
50092,106106,4
50076,106114,5
50080,106118,5
50079,106114,5
50089,106122,5
50082,106118,4
50081,106122,5
50076,106143,5
50088,106137,5
50093,106136,5
50094,106160,4
50091,106145,5
50089,106145,5
50096,106142,5
50098,106157,4
50094,106141,5
50088,106140,5
50095,106154,5
50098,106159,5
50092,106157,4
50096,106146,5
50100,106169,5
50108,106174,5
50109,106193,5
50123,106200,4
50120,106202,5
50124,106212,5
50121,106208,5
50125,106216,5
50133,106219,4
50135,106231,5
50143,106235,5
50132,106260,5
50143,106253,5
50137,106257,4
50149,106254,5
50145,106272,5
50147,106250,5
50156,106254,5
50151,106240,4
50147,106240,5
50135,106225,5
50131,106214,5
50114,106211,5
50118,106206,4
50110,106197,5
50112,106196,5
50119,106203,5
50128,106225,4
50133,106224,5
50133,106241,5
50143,106233,5
50139,106249,5
50147,106251,4
50151,106262,5
50154,106267,5
50159,106271,5
50166,106275,5
50161,106288,4
50158,106291,5
50162,106302,5
50170,106306,5
50173,106299,5
50172,106300,4
50171,106298,5
50166,106298,4
50162,106321,5
50171,106314,5
50179,106323,5
50176,106322,3
50179,106326,5
50179,106336,5
50180,106347,4
50191,106357,4
50195,106365,5
50194,106372,5
50205,106379,5
50209,106382,4
50213,106379,5
50213,106383,5
50202,106378,5
50205,106384,5
50204,106389,4
50215,106391,5
50220,106405,5
50226,106413,5
50226,106428,5
50232,106416,4
50230,106437,5
50236,106432,6
50246,106452,4
50241,106458,5
50255,106471,4
50259,106472,7
50257,106487,3
50252,106495,5
50259,106511,5
50263,106516,4
50272,106513,5
50274,106522,5
50268,106515,5
50276,106526,5
50271,106524,4
50274,106526,5
50279,106520,5
50273,106524,5
50275,106514,4
50270,106515,5
50270,106518,5
50270,106519,5
50269,106519,5
50267,106510,4
50277,106523,5
50269,106513,5
50270,106520,6
50273,106519,4
50267,106511,4
50272,106521,5
50271,106514,5
50267,106509,5
50269,106515,5
50263,106506,4
50269,106512,5
50266,106506,5
50261,106500,5
50254,106495,5
50264,106490,4
50257,106491,5
50255,106478,5
50249,106480,5
50245,106475,5
50245,106469,4
50251,106463,5
50241,106458,5
50235,106441,5
50224,106419,5
50203,106389,4
50217,106370,5
50196,106356,5
50187,106347,6
50188,106342,3
50208,106349,5
50196,106350,5
50185,106351,5
50202,106356,5
50198,106349,4
50186,106344,5
50189,106347,5
50187,106339,5
50186,106333,5
50187,106338,4
50194,106335,5
50194,106346,5
50181,106323,5
50179,106329,5
50179,106323,4
50176,106317,5
50181,106305,5
50173,106307,5
50170,106305,5
50166,106303,5
50159,106274,4
50165,106277,5
50159,106278,5
50147,106261,6
50152,106267,3
50151,106262,5
50147,106254,5
50143,106249,5
50141,106274,4
50139,106243,5
50138,106233,5
50135,106228,5
50126,106223,5
50120,106192,4
50117,106184,5
50110,106186,5
50114,106185,10
50108,106172,5
50112,106174,5
50112,106172,5
50100,106165,8
50090,106153,5
50094,106152,5
50088,106144,8
50078,106142,5
50085,106128,5
50077,106111,5
50080,106110,8
50075,106113,5
50065,106068,5
50065,106068,8
50063,106072,5
50052,106068,5
50041,106063,8
50055,106056,5
50055,106062,5
50058,106099,5
50047,106066,8
50048,106025,5
50047,106038,5
50035,106031,8
50035,106031,5
50035,106015,5
50035,106014,5
50024,105991,8
50022,106009,5
50017,106004,5
50027,106006,8
50029,106007,5
50020,105995,5
50019,105978,8
50020,105990,5
50027,105995,5
50018,105992,5
50029,106003,8
50029,106003,5
50026,105994,5
50025,106012,8
50033,106011,5
50032,106017,5
50029,106007,5
50020,106004,8
50023,106001,5
50019,105996,5
50036,106004,8
50010,105989,5
50003,105973,5
49967,105878,8
49967,105878,5
49972,105884,5
49981,105898,5
49974,105886,8
49944,105883,5
49961,105879,5
49971,105892,8
49967,105905,5
49964,105873,5
49955,105870,5
49960,105873,8
49963,105863,5
49959,105880,5
49952,105859,8
49952,105859,5
49923,105856,5
49925,105837,8
49944,105843,5
49930,105841,5
49949,105840,5
49944,105839,8
49937,105822,5
49929,105836,5
49947,105829,8
49952,105837,5
49932,105830,5
49927,105834,5
49933,105817,8
49933,105817,5
49933,105820,5
49939,105828,8
49950,105824,5
49931,105797,5
49928,105801,5
49922,105803,8
49964,105798,5
49937,105806,5
49917,105786,8
49924,105799,5
49929,105802,5
49933,105818,8
49933,105818,5
49929,105839,5
49925,105809,5
49934,105771,8
49939,105803,5
49923,105810,5
49941,105808,8
49910,105794,5
49911,105795,5
49924,105810,5
49919,105805,8
49935,105805,5
49922,105791,5
49923,105794,8
49923,105794,5
49921,105760,5
49919,105812,8
49933,105795,5
49926,105798,5
49886,105797,5
49913,105798,8
49925,105795,5
49925,105818,5
49922,105805,8
49924,105793,5
49926,105795,5
49933,105796,5
49917,105785,8
49917,105785,5
49929,105796,5
49913,105797,8
49915,105785,2
49919,105797,3
49920,105816,6
49921,105784,4
49913,105787,5
49912,105779,4
49914,105777,5
49922,105778,5
49911,105772,5
49920,105780,5
49916,105770,4
49913,105773,5
49916,105783,5
49901,105770,5
49913,105780,5
49918,105777,4
49914,105771,5
49915,105769,5
49910,105775,5
49910,105766,5
49916,105779,4
49906,105778,5
49925,105775,5
49913,105780,5
49914,105776,4
49919,105790,4
49918,105782,5
49909,105783,6
49909,105776,4
49906,105779,4
49905,105779,5
49919,105778,5
49915,105774,5
49910,105783,5
49912,105782,4
49908,105777,5
49907,105772,5
49912,105780,6
49911,105777,4
49910,105783,4
49913,105774,5
49917,105766,5
49904,105774,5
49902,105766,5
49916,105772,4
49908,105770,5
49912,105767,5
49909,105765,5
49909,105758,5
49911,105766,4
49910,105767,5
49907,105771,5
49910,105763,5
49907,105760,5
49906,105767,4
49913,105765,5
49908,105757,5
49905,105751,5
49908,105756,4
49907,105756,5
49911,105750,5
49898,105753,5
49894,105755,5
49895,105757,4
49897,105755,5
49901,105751,5
49896,105754,5
49902,105754,5
49902,105754,4
49899,105761,5
49905,105757,5
49902,105751,5
49905,105762,5
49899,105757,5
49893,105752,4
49884,105738,5
49895,105740,5
49898,105748,5
49898,105743,4
49878,105747,5
49896,105741,5
49889,105741,5
49898,105744,5
49899,105741,4
49892,105757,5
49898,105756,5
49903,105750,5
49906,105763,4
49908,105766,4
49908,105781,5
49922,105787,5
49936,105789,5
49927,105806,4
49924,105786,5
49915,105792,5
49928,105778,5
49911,105774,5
49904,105760,4
49895,105734,6
49886,105720,4
49890,105728,5
49886,105710,5
49877,105705,4
49874,105694,5
49869,105694,5
49878,105712,5
49879,105710,5
49877,105697,4
49882,105713,5
49884,105713,5
49883,105708,5
49875,105694,5
49877,105708,4
49875,105709,5
49874,105719,5
49883,105728,5
49876,105716,4
49888,105714,4
49883,105721,5
49882,105734,5
49874,105714,5
49883,105712,4
49874,105713,5
49884,105733,6
49877,105713,4
49867,105699,5
49888,105708,4
49876,105709,5
49871,105712,5
49881,105700,5
49877,105702,5
49873,105704,4
49872,105705,5
49877,105714,5
49874,105717,5
49883,105730,5
49883,105715,4
49883,105712,5
49880,105720,5
49885,105710,5
49879,105709,5
49878,105698,4
49872,105704,5
49876,105703,5
49875,105696,6
49875,105707,4
49879,105715,4
49877,105706,5
49876,105713,5
49882,105710,5
49887,105716,4
49875,105720,5
49874,105720,5
49890,105727,5
49884,105734,5
49893,105729,4
49893,105741,5
49895,105744,5
49897,105745,5
49897,105751,5
49889,105738,4
49901,105747,5
49899,105755,5
49899,105756,5
49901,105761,5
49903,105755,5
49894,105753,4
49899,105747,5
49890,105739,5
49898,105747,6
49897,105745,3
49895,105745,5
49898,105740,5
49902,105757,5
49905,105749,5
49899,105747,4
49892,105750,5
49894,105744,5
49893,105753,5
49895,105747,4
49898,105750,4
49895,105740,5
49897,105743,5
49886,105745,5
49896,105743,4
49894,105745,5
49891,105729,5
49885,105729,5
49895,105719,5
49883,105739,4
49886,105738,6
49896,105729,4
49889,105738,5
49886,105739,5
49895,105734,6
49888,105731,3
49893,105727,5
49890,105726,5
49893,105732,5
49880,105732,4
49890,105724,5
49887,105729,5
49883,105732,5
49891,105733,5
49892,105741,4
49893,105736,5
49893,105733,5
49887,105734,5
49884,105731,4
49884,105728,4
49893,105727,5
49895,105737,5
49879,105743,5
49890,105747,4
49894,105753,5
49900,105753,6
49889,105765,4
49901,105755,5
49904,105752,4
49891,105751,5
49882,105746,5
49888,105749,5
49886,105738,5
49889,105724,4
49889,105718,5
49874,105710,5
49877,105705,5
49873,105709,5
49886,105680,4
49869,105684,5
49868,105689,5
49876,105698,5
49893,105705,5
49875,105716,4
49875,105709,5
49884,105723,5
49885,105708,5
49869,105714,5
49880,105700,4
49878,105704,5
49882,105719,6
49883,105721,4
49875,105699,4
49874,105711,4
49878,105702,5
49868,105704,5
49875,105706,5
49869,105699,4
49878,105686,5
49870,105704,5
49881,105712,5
49883,105709,5
49875,105702,4
49878,105718,5
49883,105711,5
49887,105724,5
49890,105743,5
49887,105749,4
49887,105740,5
49890,105737,5
49890,105743,5
49889,105734,5
49889,105729,4
49891,105715,5
49882,105737,5
49889,105725,6
49883,105720,4
49889,105717,4
49891,105734,5
49885,105734,5
49893,105743,5
49891,105746,4
49900,105764,4
49904,105764,5
49914,105775,5
49911,105776,5
49912,105794,4
49921,105795,5
49918,105805,5
49923,105810,5
49927,105822,5
49923,105816,4
49927,105809,5
49925,105817,5
49931,105818,5
49938,105824,5
49925,105820,5
49934,105823,4
49936,105825,5
49936,105823,5
49931,105830,6
49936,105829,3
49935,105830,5
49935,105832,5
49950,105845,5
49942,105845,5
49951,105859,4
49943,105863,5
49955,105868,5
49956,105882,5
49958,105881,5
49962,105881,4
49960,105893,5
49958,105887,5
49967,105887,5
49978,105891,4
49971,105900,4
49973,105911,5
49974,105914,5
49983,105917,5
49972,105916,4
49989,105924,6
49992,105926,4
49991,105939,5
49987,105946,5
50005,105956,4
49996,105964,5
49994,105973,5
50004,105968,5
50014,105992,5
50007,105983,4
50018,106004,5
50020,106015,5
50026,106022,5
50029,106024,5
50031,106029,4
50033,106028,5
50034,106032,5
50040,106033,5
50035,106037,5
50035,106014,4
50023,106019,5
50030,106017,5
50027,105998,5
50021,105994,4
50012,105997,4
50014,105982,6
50015,105988,4
50015,105989,5
50015,105998,4
50021,106006,5
50020,106013,5
50028,106025,5
50023,106024,5
50029,106034,4
50037,106037,5
50033,106036,5
50034,106033,5
50037,106028,5
50035,106038,4
50032,106031,5
50033,106023,5
50030,106038,5
50021,106032,5
50033,106034,4
50030,106032,5
50030,106030,5
50015,106028,5
50040,106038,5
50043,106045,4
50044,106048,5
50041,106062,6
50053,106061,4
50060,106074,5
50057,106081,4
50069,106089,5
50067,106096,5
50068,106105,5
50073,106114,4
50086,106112,5
50073,106104,5
50071,106099,5
50059,106110,5
50079,106110,4
50075,106113,5
50079,106119,5
50079,106126,5
50086,106127,5
50079,106134,4
50084,106135,5
50088,106143,5
50079,106137,5
50084,106145,5
50091,106154,4
50099,106154,5
50097,106146,5
50095,106158,6
50101,106176,4
50096,106169,4
50109,106169,5
50106,106190,5
50115,106187,5
50117,106197,5
50121,106197,4
50107,106194,5
50110,106201,5
50111,106185,5
50111,106210,4
50122,106191,4
50115,106200,5
50119,106201,5
50113,106227,5
50114,106202,4
50117,106211,5
50122,106207,5
50119,106213,5
50115,106215,5
50125,106208,5
50124,106220,4
50125,106217,5
50125,106219,5
50128,106220,5
50121,106218,4
50131,106222,5
50131,106231,5
50133,106227,5
50133,106240,5
50134,106243,4
50135,106243,5
50143,106244,5
50142,106259,5
50136,106252,5
50141,106266,4
50143,106266,5
50149,106263,5
50153,106271,5
50147,106278,4
50149,106281,4
50154,106286,5
50162,106287,5
50159,106279,5
50163,106296,4
50161,106305,6
50155,106297,4
50160,106296,5
50171,106309,5
50174,106304,4
50177,106310,5
50178,106313,5
50180,106321,5
50180,106330,5
50183,106333,4
50187,106342,5
50182,106351,5
50190,106350,5
50191,106355,5
50198,106355,4
