RED,IR,EKG,TIME
57182,120268,8
57181,120237,5
57176,120255,5
57156,120244,10
57163,120228,5
57159,120231,5
57132,120161,10
57132,120161,5
57133,120143,5
57131,120146,10
57128,120176,5
57126,120174,5
57129,120166,10
57139,120172,5
57139,120172,5
57140,120182,10
57128,120173,5
57133,120154,5
57130,120152,10
57142,120153,5
57144,120160,5
57130,120169,10
57130,120169,5
57132,120131,5
57139,120169,10
57143,120183,9
57147,120219,10
57147,120219,5
57158,120220,12
57163,120237,8
57169,120256,7
57169,120256,8
57154,120256,5
57188,120267,7
57181,120282,8
57196,120291,5
57205,120301,7
57247,120391,8
57247,120391,5
57233,120412,7
57256,120419,8
57258,120422,5
57264,120413,7
57261,120362,8
57229,120374,9
57229,120374,8
57232,120354,5
57239,120380,7
57265,120388,8
57251,120407,5
57240,120408,7
57270,120458,8
57270,120458,5
57280,120455,7
57288,120470,8
57281,120475,5
57282,120472,7
57270,120476,8
57290,120481,5
57294,120490,7
57294,120490,8
57292,120519,7
57304,120505,5
57300,120504,8
57298,120489,7
57302,120512,5
57331,120555,8
57331,120555,7
57332,120594,7
57333,120577,8
57342,120585,7
57337,120595,5
57338,120601,8
57338,120601,7
57373,120629,10
57371,120641,9
57383,120674,9
57383,120674,10
57380,120628,5
57384,120684,8
57386,120684,7
57407,120701,9
57407,120701,10
57428,120710,9
57410,120711,7
57410,120711,1
57410,120711,2
57421,120718,5
57408,120722,4
57406,120718,5
57411,120732,5
57412,120720,5
57405,120726,5
57415,120708,4
57410,120722,5
57414,120714,5
57410,120717,6
57411,120701,3
57402,120718,4
57412,120706,5
57406,120714,5
57407,120696,5
57408,120710,4
57399,120712,5
57402,120682,5
57400,120687,5
57400,120689,5
57393,120688,4
57393,120691,5
57405,120720,5
57406,120714,5
57417,120724,5
57421,120740,4
57422,120772,5
57431,120763,5
57427,120748,5
57426,120743,5
57422,120743,5
57422,120725,4
57403,120708,5
57402,120697,5
57392,120682,6
57390,120675,3
57384,120673,5
57390,120675,5
57393,120671,5
57394,120689,5
57399,120697,4
57399,120696,5
57404,120711,5
57411,120711,5
57409,120708,4
57411,120715,4
57418,120722,5
57412,120733,5
57412,120734,5
57412,120728,4
57409,120736,5
57409,120730,5
57410,120728,5
57412,120725,5
57419,120722,4
57412,120728,6
57416,120727,4
57409,120719,5
57414,120711,5
57409,120719,4
57413,120721,5
57414,120719,5
57417,120723,5
57421,120734,5
57426,120748,4
57433,120750,5
57439,120766,5
57443,120770,5
57448,120790,5
57439,120783,4
57435,120787,5
57444,120780,5
57436,120779,5
57447,120784,4
57444,120783,4
57435,120778,5
57453,120778,5
57440,120776,5
57435,120762,4
57422,120740,5
57402,120716,6
57396,120661,4
57371,120632,5
57356,120601,4
57347,120561,5
57317,120552,5
57322,120527,5
57315,120511,5
57308,120499,4
57305,120512,5
57302,120517,5
57306,120522,5
57309,120537,5
57316,120538,4
57328,120552,5
57327,120561,5
57331,120569,5
57339,120592,5
57352,120589,4
57351,120608,5
57357,120617,5
57369,120634,5
57367,120647,4
57377,120650,4
57384,120668,5
57389,120662,6
57392,120676,4
57394,120683,4
57404,120692,5
57405,120720,5
57413,120731,5
57430,120740,5
57433,120759,4
57438,120772,5
57449,120788,5
57440,120798,5
57454,120800,5
57459,120824,4
57459,120825,5
57457,120852,5
57487,120857,5
57494,120875,5
57489,120875,4
57481,120887,5
57507,120894,5
57501,120887,5
57497,120887,5
57495,120880,4
57490,120883,5
57485,120858,5
57469,120853,6
57496,120849,4
57474,120837,4
57473,120837,5
57465,120828,5
57486,120848,5
57479,120856,4
57492,120859,4
57491,120873,5
57503,120879,5
57494,120878,5
57485,120868,4
57480,120858,5
57486,120853,5
57479,120859,5
57478,120848,5
57477,120847,4
57482,120831,5
57485,120855,5
57480,120843,5
57471,120861,5
57481,120836,5
57486,120856,4
57481,120857,5
57488,120869,5
57489,120854,5
57493,120877,4
57490,120874,5
57485,120864,5
57469,120854,5
57469,120837,5
57468,120827,4
57464,120821,5
57463,120829,5
57444,120789,5
57459,120804,4
57448,120786,4
57440,120787,5
57435,120773,5
57432,120772,5
57443,120777,4
57440,120789,5
57433,120779,5
57443,120756,5
57437,120760,5
57426,120749,4
57428,120743,6
57427,120738,4
57405,120714,5
57403,120702,5
57396,120687,4
57383,120681,5
57384,120653,5
57379,120648,5
57368,120633,5
57360,120622,4
57357,120602,5
57355,120589,5
57335,120571,5
57326,120561,5
57333,120555,4
57313,120525,5
57319,120522,5
57303,120509,5
57303,120493,5
57290,120487,4
57297,120482,5
57295,120484,5
57285,120478,5
57293,120468,4
57299,120474,4
57287,120465,6
57288,120469,4
57290,120471,5
57284,120470,4
57288,120474,5
57284,120474,5
57281,120469,5
57286,120460,5
57283,120463,4
57289,120464,5
57275,120455,5
57279,120447,5
57277,120449,5
57272,120458,4
57291,120452,5
57278,120455,5
57281,120446,5
57270,120440,5
57272,120447,4
57273,120458,5
57281,120458,5
57288,120461,5
57286,120470,5
57294,120469,4
57290,120474,5
57294,120481,6
57296,120477,4
57298,120495,4
57299,120504,4
57310,120517,5
57302,120529,5
57303,120511,5
57304,120521,4
57305,120537,5
57306,120537,5
57314,120523,5
57311,120512,5
57306,120509,4
57306,120497,5
57291,120478,5
57282,120459,5
57276,120446,5
57272,120437,4
57260,120431,5
57264,120440,5
57271,120454,5
57283,120457,5
57285,120469,4
57288,120466,5
57297,120473,5
57286,120488,5
57301,120481,5
57303,120498,4
57305,120507,5
57310,120498,5
57293,120499,5
57308,120505,4
57307,120505,4
57305,120508,5
57292,120506,5
57306,120503,5
57308,120496,4
57303,120502,5
57281,120489,5
57290,120497,5
57295,120491,5
57288,120492,4
57300,120500,5
57301,120498,5
57307,120499,5
57308,120508,5
57317,120508,5
57298,120504,4
57305,120517,5
57309,120511,5
57318,120505,5
57305,120505,4
57286,120489,5
57292,120482,5
57305,120492,5
57290,120477,5
57303,120482,4
57297,120481,5
57303,120489,5
57296,120496,5
57302,120502,5
57293,120507,4
57293,120490,5
57309,120503,5
57309,120511,5
57306,120506,5
57307,120495,4
57301,120510,5
57299,120509,5
57304,120512,5
57302,120505,4
57309,120502,6
57309,120511,4
57310,120516,5
57313,120535,5
57312,120525,4
57305,120532,5
57319,120534,5
57317,120559,5
57320,120546,5
57324,120540,4
57324,120543,5
57323,120561,5
57320,120540,5
57323,120537,5
57322,120558,4
57325,120545,5
57322,120546,5
57333,120546,5
57326,120550,5
57323,120557,4
57324,120547,5
57325,120551,5
57317,120547,5
57323,120550,4
57326,120553,4
57326,120561,6
57321,120557,3
57334,120563,5
57328,120557,4
57328,120565,5
57336,120571,5
57334,120561,5
57340,120565,5
57326,120566,7
57328,120571,2
57352,120572,5
57335,120574,5
57335,120581,5
57332,120570,4
57337,120572,5
57351,120578,5
57345,120575,5
57337,120581,5
57341,120587,4
57338,120576,5
57342,120591,5
57341,120585,6
57342,120587,4
57348,120596,4
57348,120590,5
57342,120595,5
57343,120595,5
57343,120593,5
57345,120602,4
57344,120583,5
57337,120577,5
57338,120573,5
57331,120566,4
57322,120570,4
57324,120572,5
57332,120579,5
57326,120556,5
57329,120569,4
57339,120571,5
57348,120582,5
57345,120584,5
57352,120586,5
57348,120584,5
57349,120594,4
57347,120605,5
57350,120604,5
57349,120603,6
57351,120603,3
57346,120592,5
57352,120604,5
57358,120610,5
57347,120604,5
57341,120573,4
57332,120564,5
57321,120543,5
57313,120528,5
57300,120512,5
57300,120494,4
57296,120488,5
57289,120494,5
57293,120484,5
57287,120486,4
57292,120481,4
57296,120496,5
57301,120506,5
57301,120508,5
57305,120512,4
57303,120525,6
57306,120519,4
57302,120524,5
57308,120518,5
57296,120512,6
57304,120513,3
57296,120504,5
57314,120502,5
57283,120513,5
57303,120506,4
57297,120493,5
57294,120492,5
57273,120492,5
57297,120484,5
57286,120475,4
57279,120469,5
57265,120467,5
57278,120461,5
57281,120452,5
57277,120454,4
57283,120453,5
57274,120453,5
57283,120455,5
57276,120447,4
57290,120454,4
57275,120460,6
57266,120429,4
57270,120436,5
57277,120420,4
57255,120409,5
57254,120405,5
57253,120404,5
57257,120400,5
57251,120404,4
57239,120397,5
57237,120395,5
57238,120383,5
57236,120377,5
57236,120377,4
57243,120368,5
57231,120356,5
57236,120376,5
57236,120375,5
57240,120370,4
57239,120347,5
57241,120369,5
57231,120363,5
57235,120366,5
57236,120361,4
57228,120351,5
57231,120355,6
57232,120354,4
57223,120374,4
57229,120349,4
57232,120365,5
57220,120355,5
57225,120380,5
57232,120366,4
57228,120359,5
57230,120362,5
57227,120369,5
57227,120370,5
57234,120360,4
57229,120358,5
57228,120360,5
57226,120350,5
57218,120358,5
57228,120358,4
57222,120347,5
57225,120349,5
57222,120344,5
57214,120350,5
57219,120352,4
57218,120357,5
57210,120342,5
57215,120357,6
57214,120343,4
57227,120350,4
57233,120346,5
57220,120354,5
57228,120349,5
57223,120352,5
57224,120352,4
57225,120344,5
57221,120347,5
57218,120351,5
57221,120351,4
57216,120355,4
57219,120352,5
57228,120355,5
57227,120352,5
57216,120348,4
57222,120350,5
57220,120352,5
57229,120343,5
57220,120342,5
57213,120345,5
57219,120347,4
57224,120343,5
57214,120349,5
57227,120349,6
57224,120352,3
57223,120349,5
57230,120363,5
57222,120371,5
57224,120358,5
57236,120366,4
57232,120370,5
57227,120380,5
57238,120391,5
57241,120400,5
57252,120399,4
57244,120399,5
57237,120377,5
57241,120384,5
57226,120360,4
57224,120344,4
57209,120311,5
57190,120308,5
57198,120297,5
57199,120287,4
57197,120294,6
57189,120289,4
57200,120298,5
57194,120316,5
57201,120310,4
57201,120321,5
57208,120338,5
57216,120329,5
57211,120336,5
57210,120341,4
57218,120335,5
57217,120338,5
57211,120345,5
57217,120338,5
57226,120345,4
57215,120346,5
57215,120352,5
57218,120345,5
57212,120346,5
57223,120336,4
57217,120337,5
57211,120335,5
57210,120326,5
57200,120319,4
57205,120323,4
57219,120325,6
57203,120323,4
57213,120328,5
57199,120344,4
57220,120337,5
57220,120347,5
57229,120343,5
57195,120331,5
57213,120332,4
57201,120316,5
57195,120303,5
57196,120300,5
57189,120286,5
57192,120299,4
57202,120302,5
57212,120302,5
57201,120313,5
57208,120324,5
57218,120344,4
57238,120360,5
57217,120373,5
57238,120379,5
57246,120405,5
57260,120417,4
57261,120425,5
57271,120445,6
57278,120448,4
57280,120452,5
57278,120456,4
57276,120472,5
57291,120479,5
57283,120480,5
57291,120502,4
57299,120509,4
57295,120511,5
57304,120498,5
57310,120529,5
57317,120543,4
57316,120552,5
57315,120552,5
57333,120581,5
57340,120604,5
57337,120603,5
57347,120644,4
57363,120649,5
57365,120659,5
57375,120684,5
57398,120727,4
57399,120722,5
57413,120741,5
57412,120736,6
57413,120768,4
57408,120748,4
57422,120763,5
57425,120768,5
57422,120790,5
57427,120784,5
57424,120794,4
57440,120810,5
57441,120825,5
57452,120835,5
57467,120843,5
57456,120843,4
57463,120856,5
57467,120861,5
57475,120872,5
57472,120891,4
57475,120898,5
57481,120913,5
57483,120916,5
57491,120923,5
57489,120936,5
57503,120937,4
57511,120976,5
57522,120999,5
57537,121031,5
57550,121064,4
57581,121116,5
57596,121146,5
57600,121157,5
57610,121184,5
57623,121188,4
57624,121204,5
57637,121229,5
57646,121249,5
57654,121262,5
57662,121262,4
57660,121264,5
57665,121252,5
57641,121243,5
57641,121237,5
57633,121215,4
57623,121185,5
57602,121131,5
57583,121118,5
57576,121103,4
57568,121067,5
57551,121057,4
57547,121050,5
57553,121042,5
57550,121045,4
57541,121052,5
57546,121050,5
57555,121062,5
57549,121061,5
57555,121063,4
57551,121052,5
57555,121047,5
57559,121051,5
57549,121042,5
57539,121025,4
57528,121011,5
57532,120985,5
57514,120972,5
57516,120952,5
57491,120920,4
57486,120891,5
57464,120877,5
57454,120834,5
57439,120809,5
57417,120792,4
57416,120761,6
57411,120763,4
57402,120747,5
57409,120739,4
57401,120722,4
57383,120689,5
57377,120689,5
57363,120652,5
57353,120628,4
57344,120602,5
57334,120581,5
57315,120563,5
57309,120536,5
57300,120531,4
57301,120527,5
57292,120520,5
57295,120528,5
57292,120510,5
57296,120513,4
57291,120510,5
57293,120512,5
57289,120525,5
57302,120522,5
57283,120541,4
57295,120527,5
57306,120541,6
57301,120532,4
57288,120540,5
57308,120530,4
57308,120541,5
57302,120529,5
57295,120531,5
57298,120521,5
57301,120528,4
57299,120530,5
57316,120532,5
57299,120533,5
57301,120532,4
57300,120539,4
57327,120537,5
57316,120543,5
57306,120551,5
57309,120547,5
57319,120549,4
57306,120541,5
57301,120545,5
57310,120541,6
57295,120530,3
57294,120535,5
57299,120530,5
57305,120536,5
57305,120528,5
57310,120548,4
57314,120548,5
57312,120555,5
57306,120537,5
57310,120554,5
57315,120557,4
57308,120550,5
57310,120536,5
57323,120549,5
57324,120558,5
57323,120557,5
57311,120577,4
57323,120574,5
57313,120554,5
57319,120570,4
57331,120585,4
57325,120573,5
57332,120585,5
57324,120583,5
57328,120608,5
57334,120607,3
57347,120619,5
57351,120621,5
57353,120635,5
57350,120623,4
57357,120614,5
57352,120616,5
57338,120601,5
57336,120580,5
57329,120565,4
57325,120567,5
57328,120573,5
57326,120582,5
57325,120572,5
57328,120593,4
57333,120581,5
57343,120608,5
57347,120606,5
57355,120614,5
57350,120613,9
57344,120607,5
57343,120593,5
57334,120601,5
57332,120591,6
57336,120570,3
57320,120572,5
57321,120559,5
57312,120547,4
57321,120555,4
57318,120556,5
57320,120549,5
57308,120550,5
57323,120551,4
57315,120548,5
57319,120541,5
57316,120541,5
57314,120535,5
57305,120526,4
57302,120514,5
57304,120503,5
57297,120504,5
57296,120495,5
57295,120505,4
57290,120507,5
57296,120518,6
57294,120503,4
57304,120498,5
57291,120512,4
57305,120501,5
57292,120510,5
57298,120509,5
57296,120512,5
57297,120515,4
57298,120513,5
57298,120524,5
57315,120529,5
57312,120544,4
57316,120536,4
57315,120544,5
57317,120534,5
57312,120540,5
57322,120536,4
57313,120533,5
57320,120540,5
57316,120541,5
57316,120545,5
57314,120547,4
57312,120540,5
57305,120531,5
57309,120527,6
57314,120531,4
57313,120515,4
57310,120512,5
57306,120531,5
57314,120534,5
57313,120528,5
57305,120519,4
57300,120521,5
57301,120504,5
57302,120515,5
57304,120507,5
57294,120504,4
57296,120496,5
57287,120491,5
57287,120498,5
57287,120496,5
57291,120501,4
57297,120500,5
57287,120490,5
57288,120488,5
57286,120471,5
57286,120474,4
57275,120472,5
57281,120482,5
57297,120483,6
57302,120504,3
57294,120522,5
57315,120527,5
57310,120539,5
57311,120528,5
57309,120519,4
57304,120518,5
57297,120496,5
57296,120484,5
57295,120455,5
57267,120443,4
57276,120437,5
57261,120431,5
57276,120425,5
57273,120442,5
57276,120442,4
57275,120470,5
57306,120481,5
57291,120500,5
57303,120516,5
57311,120525,5
57327,120539,4
57324,120543,5
57331,120548,5
57329,120555,6
57331,120543,3
57328,120558,5
57333,120576,5
57338,120564,5
57330,120557,4
57331,120573,5
57343,120581,5
57339,120573,5
57342,120564,5
57342,120576,4
57343,120587,6
57341,120589,4
57351,120600,5
57342,120594,5
57351,120591,4
57344,120600,5
57366,120624,5
57350,120617,5
57355,120613,5
57363,120623,4
57372,120651,6
57368,120641,4
57367,120641,5
57367,120631,5
57364,120631,4
57373,120632,5
57372,120655,5
57375,120666,5
57379,120676,5
57390,120690,4
57403,120708,5
57405,120705,5
57413,120715,5
57412,120727,4
57420,120737,4
57421,120749,5
57420,120763,5
57424,120765,5
57430,120767,4
57440,120785,5
57440,120787,5
57448,120798,5
57461,120807,5
57449,120816,4
57465,120817,5
57466,120834,6
57471,120825,4
57472,120832,5
57472,120831,4
57468,120850,5
57468,120861,5
57480,120857,5
57492,120872,5
57496,120883,4
57494,120886,5
57490,120897,5
57503,120908,5
57505,120911,5
57511,120929,4
57524,120942,5
57523,120954,5
57535,120971,5
57535,120976,4
57544,120973,4
57536,120975,5
57540,120975,5
57543,120990,5
57540,120993,4
57555,121020,5
57567,121038,5
57570,121041,6
57581,121056,4
57577,121062,4
57587,121076,5
57593,121077,5
57579,121074,5
57598,121076,5
57594,121079,4
57586,121060,5
57587,121057,5
57579,121048,5
57580,121054,5
57580,121061,4
57584,121065,5
57588,121076,5
57598,121102,5
57601,121118,5
57612,121127,4
57618,121129,5
57623,121139,5
57625,121146,5
57635,121156,5
57629,121161,4
57626,121172,5
57640,121163,5
57635,121171,6
57638,121179,3
57652,121185,4
57650,121189,5
57648,121185,5
57646,121188,5
57642,121187,4
57639,121179,5
57647,121189,5
57649,121187,5
57643,121183,5
57649,121194,4
57647,121196,5
57656,121207,5
57641,121206,5
57665,121214,5
57665,121224,4
57658,121230,5
57662,121237,5
57674,121247,5
57677,121239,5
57668,121230,5
57656,121223,4
57671,121236,5
57673,121235,5
57672,121251,5
57674,121248,4
57683,121257,5
57674,121262,5
57680,121246,5
57704,121267,4
57694,121264,4
57682,121275,5
57694,121283,5
57714,121288,5
57709,121303,4
57712,121308,5
57715,121330,5
57716,121316,5
57722,121331,5
57714,121320,4
57713,121338,5
57723,121335,5
57714,121331,5
57726,121342,5
57724,121341,4
57720,121331,6
57723,121331,4
57725,121350,5
57717,121333,5
57717,121324,4
57721,121350,5
57723,121345,5
57732,121359,5
57740,121343,5
57730,121364,4
57733,121364,5
57740,121365,5
57739,121370,5
57740,121360,5
57743,121358,4
57735,121367,5
57737,121383,5
57735,121354,5
57730,121360,4
57734,121365,4
57734,121368,5
57720,121351,5
57730,121359,5
57729,121358,4
57741,121365,5
57736,121367,6
57738,121370,4
57746,121380,5
57739,121379,4
57745,121387,5
57743,121382,5
57744,121369,5
57738,121364,5
57735,121368,4
57724,121343,5
57713,121323,5
57717,121321,5
57714,121322,5
57713,121320,4
57717,121319,5
57717,121325,5
57725,121344,5
57732,121347,5
57729,121346,4
57736,121361,5
57739,121370,5
57738,121371,5
57730,121370,4
57741,121368,4
57740,121362,5
57739,121370,7
57735,121362,3
57739,121365,4
57746,121372,5
57745,121367,5
57743,121371,5
57736,121374,5
57744,121371,4
57744,121371,5
57738,121369,5
57742,121368,5
57735,121372,5
57738,121364,4
57736,121359,5
57736,121354,5
57736,121354,5
57728,121364,5
57734,121345,4
57733,121356,5
57725,121332,5
57716,121346,5
57720,121323,5
57705,121317,4
57716,121319,5
57715,121308,5
57705,121317,5
57706,121309,5
57710,121316,4
57714,121309,5
57712,121315,5
57709,121304,5
57703,121314,4
57698,121303,4
57704,121302,5
57706,121299,5
57708,121302,5
57699,121293,4
57701,121299,5
57696,121297,5
57705,121284,5
57690,121289,5
57693,121275,4
57681,121261,5
57687,121272,5
57689,121255,5
57688,121261,5
57681,121260,5
57678,121260,4
57677,121241,5
57670,121236,5
57666,121235,5
57671,121224,4
57667,121228,5
57667,121216,5
57671,121227,5
57665,121220,5
57661,121212,4
57669,121210,5
57663,121207,5
57648,121208,5
57651,121191,4
57650,121180,4
57644,121176,5
57623,121170,5
57637,121170,5
57635,121172,4
57638,121164,5
57616,121159,5
57633,121159,5
57632,121155,5
57634,121156,4
57621,121151,6
57624,121151,4
57626,121140,5
57634,121133,5
57647,121149,4
57624,121142,5
57620,121145,5
57622,121129,5
57641,121141,5
57618,121132,4
57618,121125,5
57622,121123,5
57625,121114,5
57618,121116,5
57613,121117,4
57614,121116,5
57615,121122,5
57608,121117,5
57612,121118,5
57608,121119,4
57616,121100,5
57614,121110,5
57604,121108,4
57614,121100,4
57610,121090,4
57602,121114,5
57598,121112,5
57607,121113,5
57604,121094,4
57599,121100,5
57598,121103,5
57594,121088,5
57599,121101,5
57601,121088,4
57596,121082,5
57595,121073,5
57588,121082,5
57585,121064,5
57587,121054,4
57575,121054,5
57576,121074,5
57573,121055,5
57579,121052,5
57577,121055,4
57580,121063,5
57577,121040,5
57584,121050,6
57570,121046,4
57576,121043,4
57583,121046,5
57576,121044,5
57574,121042,5
57570,121043,4
57576,121044,4
57571,121045,7
57576,121050,3
57587,121058,5
57575,121059,4
57587,121074,5
57592,121075,5
57587,121073,5
57595,121076,5
57590,121057,4
57573,121059,5
57569,121034,5
57557,121003,5
57541,120971,5
57528,120943,5
57516,120932,4
57511,120906,5
57504,120900,5
57491,120898,6
57503,120907,3
57510,120922,5
57525,120928,5
57527,120938,5
57521,120945,5
57528,120942,4
57527,120951,5
57525,120942,5
57524,120947,5
57523,120940,4
57516,120944,4
57523,120940,5
57520,120926,5
57516,120929,5
57514,120931,4
57517,120936,5
57513,120935,5
57510,120928,5
57502,120933,5
57520,120926,4
57516,120925,6
57512,120926,4
57508,120917,5
57513,120924,5
57512,120926,6
57514,120916,3
57505,120920,5
57503,120913,5
57515,120910,5
57505,120908,4
57510,120912,5
57503,120915,5
57502,120897,5
57501,120898,5
57489,120895,4
57488,120878,5
57489,120876,5
57490,120881,5
57492,120873,5
57492,120885,4
57489,120902,5
57496,120896,5
57500,120899,5
57501,120890,4
57490,120891,4
57498,120891,6
57495,120887,4
57490,120892,5
57489,120891,4
57499,120897,5
57504,120899,5
57503,120900,5
57499,120902,5
57493,120899,4
57496,120895,5
57503,120896,5
57509,120902,5
57488,120910,5
57503,120900,4
57507,120904,5
57507,120895,5
57485,120894,5
57510,120894,5
57503,120901,4
57499,120900,5
57481,120900,5
57499,120899,5
57498,120894,5
57502,120889,4
57500,120898,5
57493,120886,6
57492,120886,4
57502,120887,4
57504,120876,4
57490,120877,5
57484,120870,5
57495,120872,5
57501,120871,4
57488,120867,5
57492,120865,5
57478,120852,5
57494,120864,5
57480,120864,4
57484,120870,5
57482,120854,5
57480,120859,5
57485,120862,5
57487,120865,4
57482,120859,5
57484,120841,5
57468,120861,5
57472,120847,5
57474,120850,4
57478,120825,5
57470,120842,5
57471,120841,6
57469,120833,4
57469,120819,4
57465,120831,5
57458,120832,5
57460,120834,5
57458,120842,4
57456,120822,4
57457,120823,5
57465,120817,5
57457,120839,5
57465,120822,4
57459,120826,5
57465,120826,5
57463,120842,5
57457,120814,5
57454,120807,4
57455,120812,5
57439,120813,5
57458,120814,5
57452,120805,5
57444,120802,5
57462,120801,4
57457,120795,5
57444,120785,5
57435,120784,6
57444,120777,3
57433,120761,5
57430,120762,5
57427,120754,5
57419,120748,5
57423,120742,4
57415,120736,5
57408,120729,5
57413,120732,5
57424,120729,5
57415,120729,4
57410,120726,5
57408,120733,5
57413,120720,5
57408,120722,4
57412,120708,4
57409,120712,5
57404,120730,5
57413,120735,5
57401,120721,4
57408,120700,6
57395,120680,4
57385,120675,5
57373,120644,5
57357,120619,4
57349,120594,5
57339,120585,5
57339,120589,5
57330,120574,5
57324,120560,4
57336,120558,5
57330,120571,5
57326,120574,5
57337,120586,5
57343,120598,4
57354,120608,5
57341,120612,5
57352,120605,5
57349,120601,5
57350,120606,4
57345,120597,5
57342,120602,5
57350,120606,5
57356,120615,4
57356,120615,4
57357,120620,6
57362,120619,4
57360,120615,5
57357,120625,4
57356,120606,5
57350,120606,5
57352,120605,5
57345,120605,5
57342,120597,4
57346,120600,5
57346,120596,5
57348,120606,5
57347,120601,5
57359,120622,4
57356,120624,5
57357,120624,5
57350,120625,5
57357,120618,5
57356,120616,4
57344,120605,5
57344,120593,5
57336,120582,5
57343,120604,5
57343,120594,4
57344,120607,5
57351,120610,6
57352,120612,4
57348,120605,4
57352,120599,4
57346,120608,5
57350,120607,5
57355,120601,5
57336,120587,4
57351,120597,5
57348,120602,5
57336,120601,5
57333,120600,5
57355,120605,4
57344,120601,5
57349,120613,5
57333,120607,5
57354,120617,5
57351,120625,4
57356,120632,5
57355,120640,5
57361,120642,5
57357,120628,5
57358,120629,4
57374,120625,5
57357,120631,5
57349,120620,6
57359,120630,4
57372,120627,4
57359,120629,5
57356,120613,5
57357,120615,5
57349,120623,5
57353,120622,4
57348,120622,5
57355,120624,5
57357,120629,5
57363,120654,4
57367,120649,4
57372,120669,5
57372,120649,5
57370,120652,5
57371,120661,4
57370,120656,4
57372,120626,5
57374,120652,5
57365,120645,5
57367,120632,5
57359,120625,4
57357,120639,5
57356,120626,5
57360,120632,5
57362,120647,4
57358,120649,5
57367,120657,5
57368,120659,5
57383,120676,5
57370,120674,4
57382,120675,5
57386,120694,5
57381,120712,5
57390,120690,5
57388,120688,4
57384,120696,5
57389,120708,5
57396,120727,5
57410,120726,4
57408,120740,4
57415,120750,5
57420,120743,5
57406,120733,5
57406,120731,4
57402,120713,6
57394,120696,4
57372,120671,5
57366,120644,5
57358,120635,4
57348,120616,5
57334,120598,5
57341,120594,5
57338,120614,5
57346,120604,4
57340,120618,5
57348,120632,5
57356,120651,5
57362,120652,5
57360,120655,4
57359,120661,5
57366,120649,5
57363,120660,5
57364,120655,5
57364,120648,4
57367,120656,5
57361,120656,5
57364,120654,5
57365,120666,4
57372,120670,4
57366,120666,6
57373,120670,4
57374,120670,5
57373,120662,4
57374,120668,5
57367,120663,5
57362,120661,5
57377,120666,5
57378,120680,4
57377,120686,5
57382,120692,5
57383,120691,5
57394,120695,5
57385,120691,4
57387,120705,5
57383,120686,5
57372,120685,5
57371,120679,5
57365,120679,4
57379,120670,5
57380,120677,5
57377,120693,5
57396,120713,5
57387,120715,4
57390,120717,5
57392,120726,5
57401,120728,5
57404,120732,5
57399,120736,4
57409,120742,5
57395,120730,5
57405,120725,5
57391,120719,4
57400,120708,5
57392,120722,5
57391,120722,5
57389,120707,5
57383,120705,4
57386,120706,5
57387,120707,5
57388,120696,5
57385,120690,5
57376,120685,4
57367,120669,5
57373,120678,5
57373,120673,5
57373,120661,5
57365,120668,4
57363,120662,5
57355,120655,5
57363,120648,5
57345,120643,5
57334,120635,4
57345,120635,5
57352,120628,5
57348,120618,5
57328,120622,5
57344,120615,4
57343,120616,5
57339,120620,5
57324,120621,5
57349,120624,4
57339,120612,4
57347,120619,5
57355,120633,5
57356,120638,5
57352,120638,4
57361,120647,5
57383,120655,4
57355,120654,5
57362,120659,5
57366,120659,5
57385,120662,3
57368,120668,5
57364,120671,5
57373,120664,5
57375,120667,4
57363,120661,5
57361,120650,5
57356,120646,5
57359,120636,5
57362,120641,4
57357,120659,5
57370,120662,5
57371,120652,5
57379,120670,5
57371,120669,4
57381,120667,5
57375,120648,5
57367,120663,5
57357,120636,5
57349,120626,4
57348,120614,6
57349,120613,4
57349,120607,5
57343,120621,4
57348,120641,7
57361,120645,3
57365,120661,5
57376,120670,5
57382,120713,4
57383,120698,5
57388,120708,5
57391,120705,5
57385,120719,5
57391,120710,4
57390,120699,5
57398,120715,5
57395,120729,5
57406,120742,5
57410,120736,4
57408,120746,5
57416,120741,9
57407,120748,2
57408,120739,4
57406,120729,4
57417,120758,5
57414,120758,6
57420,120751,4
57411,120741,4
57408,120756,4
57417,120751,5
57413,120752,5
57419,120766,5
57412,120742,4
57415,120747,5
57414,120740,5
57405,120745,5
57406,120737,5
57406,120742,4
57407,120753,5
57409,120737,5
57409,120739,5
57415,120752,5
57418,120745,4
57414,120749,5
57413,120759,5
57426,120770,5
57433,120787,5
57429,120788,4
57429,120793,5
57437,120798,5
57435,120782,6
57441,120790,4
57436,120784,4
57434,120790,5
57435,120790,5
57426,120792,5
57435,120792,5
57439,120785,4
57439,120799,5
57440,120802,5
57439,120791,5
57437,120805,4
57446,120811,5
57452,120817,5
57451,120819,5
57452,120824,5
57448,120832,4
57442,120831,5
57458,120843,5
57452,120831,5
57455,120831,5
57460,120841,5
57455,120842,4
57462,120842,5
57465,120852,5
57464,120853,6
57459,120855,3
57475,120862,5
57471,120873,5
57478,120867,5
57474,120875,5
57477,120860,4
57468,120862,5
57468,120863,5
57477,120852,5
57475,120870,5
57481,120874,4
57482,120886,5
57483,120888,5
57500,120909,5
57508,120926,4
57509,120931,4
57517,120936,5
57506,120934,5
57501,120924,5
57492,120928,4
57505,120910,6
57492,120896,4
57475,120876,5
57480,120880,5
57479,120871,6
57470,120864,3
57470,120862,5
57470,120862,5
57472,120873,5
57463,120878,4
57488,120881,5
57487,120888,5
57497,120906,5
57488,120913,5
57501,120917,4
57500,120921,5
57504,120912,5
57523,120921,5
57511,120934,5
57511,120932,4
57512,120943,5
57538,120957,5
57528,120960,5
57525,120964,4
57527,120959,4
57537,120957,6
57515,120948,4
57525,120956,5
57524,120956,4
57535,120951,5
57529,120962,5
57524,120969,5
57528,120970,5
57527,120965,4
57530,120975,5
57528,120984,5
57534,120981,5
57548,120979,5
57544,120991,4
57546,120988,5
57547,120988,5
57544,120975,5
57547,120986,5
57545,120990,5
57545,121003,4
57550,121011,5
57550,121016,5
57566,121027,5
57560,121026,4
57564,121051,5
57570,121050,6
57570,121051,4
57570,121049,4
57573,121073,4
57579,121054,5
57576,121064,5
57574,121063,5
57568,121080,4
57591,121083,5
57590,121089,5
57601,121095,5
57595,121097,5
57601,121104,4
57598,121107,5
57596,121114,5
57603,121104,5
57602,121107,5
57600,121109,4
57601,121113,5
57601,121113,5
57609,121108,5
57605,121113,5
57605,121120,4
57618,121134,5
57622,121141,5
57627,121154,6
57630,121167,4
57635,121165,4
57639,121169,5
57636,121184,5
57634,121184,5
57638,121196,4
57653,121195,4
57641,121202,5
57651,121206,5
57654,121216,5
57647,121213,4
57651,121202,5
57652,121219,5
57653,121232,5
57662,121239,5
57668,121244,4
57667,121259,5
57674,121271,5
57696,121293,5
57704,121315,5
57717,121324,5
57705,121340,4
57712,121328,5
57719,121323,5
57708,121318,5
57707,121322,4
57702,121295,5
57694,121292,5
57690,121282,5
57680,121273,5
57685,121268,4
57685,121276,5
57685,121274,5
57692,121293,5
57695,121300,5
57714,121318,4
57719,121332,5
57728,121353,5
57729,121353,5
57725,121354,4
57729,121375,4
57729,121373,5
57744,121383,5
57741,121394,5
57741,121401,4
57753,121402,6
57762,121421,4
57755,121416,5
57764,121425,5
57769,121436,4
57764,121428,5
57769,121448,5
57766,121441,5
57764,121435,5
57771,121436,4
57768,121445,5
57779,121449,5
57778,121455,5
57779,121468,5
57778,121472,4
57792,121491,5
57792,121488,5
57799,121499,5
57801,121505,5
57806,121510,4
57802,121503,5
57789,121505,5
57810,121513,5
57806,121515,4
57813,121507,4
57794,121520,6
57816,121534,4
57812,121542,5
57835,121549,4
57804,121550,5
57825,121559,5
57836,121564,5
57839,121563,5
57837,121579,4
57841,121571,5
57840,121590,5
57847,121577,5
57855,121582,5
57842,121583,4
57847,121585,5
57838,121593,5
57878,121604,5
57859,121612,5
57854,121617,4
57871,121625,5
57879,121619,5
57859,121620,5
57862,121624,5
57855,121626,4
57871,121625,5
57859,121623,6
57864,121629,4
57863,121641,4
57870,121628,4
57878,121642,5
57877,121653,5
57880,121652,5
57879,121640,4
57882,121671,5
57884,121674,5
57893,121684,5
57896,121679,5
57906,121705,4
57910,121710,6
57913,121721,4
57903,121721,5
57918,121719,5
57902,121736,4
57919,121724,5
57919,121757,5
57914,121738,5
57922,121721,6
57915,121726,3
57916,121740,5
57910,121721,5
57925,121724,5
57915,121722,5
57907,121718,4
57912,121716,5
57918,121723,5
57913,121718,5
57915,121731,5
57921,121728,4
57918,121738,5
57907,121726,5
57918,121733,5
57906,121732,4
57922,121731,5
57922,121723,5
57922,121727,5
57921,121733,5
57911,121717,4
57898,121701,5
57910,121701,5
57901,121693,5
57890,121689,5
57885,121652,5
57867,121646,4
57864,121615,5
57853,121603,5
57853,121591,5
57844,121574,4
57837,121570,5
57841,121583,5
57843,121578,5
57845,121580,5
57839,121573,4
57834,121574,5
57833,121565,5
57830,121546,5
57822,121535,5
57813,121519,4
57815,121514,5
57809,121505,5
57810,121508,5
57808,121491,4
57790,121480,4
57783,121458,5
57773,121450,5
57773,121425,5
57767,121417,4
57759,121407,6
57756,121403,4
57746,121387,5
57742,121383,5
57741,121380,4
57733,121373,5
57740,121373,5
57731,121365,5
57728,121362,5
57744,121377,4
57730,121375,5
57726,121363,5
57729,121361,5
57721,121359,5
57721,121339,4
57714,121320,5
57708,121317,5
57704,121315,5
57705,121307,5
57705,121305,4
57700,121299,5
57708,121296,5
57705,121296,5
57698,121295,4
57703,121300,4
57692,121289,6
57698,121300,4
57705,121291,5
57699,121293,4
57698,121296,5
57701,121293,5
57701,121296,5
57697,121291,5
57700,121306,4
57693,121291,5
57695,121289,5
57694,121290,5
57691,121282,5
57682,121283,4
57697,121288,5
57691,121278,5
57673,121282,5
57696,121300,5
57697,121295,4
57690,121283,5
57677,121285,5
57685,121279,6
57685,121272,4
57685,121283,4
57669,121281,5
57687,121273,5
57681,121266,5
57688,121257,5
57691,121262,4
57676,121259,5
57683,121269,5
57679,121259,5
57701,121255,4
57677,121267,5
57677,121262,5
57683,121261,5
57702,121246,5
57681,121257,4
57673,121256,5
57681,121256,5
57687,121268,5
57682,121272,5
57680,121260,5
57683,121251,4
57676,121247,5
57677,121247,5
57671,121246,6
57670,121253,3
57672,121238,5
57674,121256,5
57679,121260,5
57679,121266,5
57679,121262,4
57689,121282,5
57692,121281,5
57691,121280,5
57694,121287,5
57690,121288,4
57696,121288,5
57688,121289,5
57693,121280,5
57684,121270,4
57691,121272,4
57690,121273,5
57692,121287,5
57689,121270,5
57692,121273,4
57692,121274,6
57693,121293,4
57689,121294,5
57690,121281,5
57696,121293,6
57691,121283,3
57698,121292,5
57689,121288,5
57704,121302,6
57702,121306,3
57708,121301,5
57703,121309,5
57705,121297,5
57704,121296,5
57701,121306,4
57708,121298,5
57705,121310,5
57703,121308,5
57720,121325,5
57701,121320,4
57707,121314,5
57708,121300,5
57696,121300,5
57706,121301,4
57706,121301,4
57701,121295,6
57706,121292,4
57694,121289,5
57692,121293,4
57694,121287,5
57695,121289,5
57686,121291,5
57693,121282,5
57695,121281,4
57689,121274,5
57690,121270,5
57678,121268,5
57687,121257,5
57683,121251,4
57680,121263,5
57678,121260,5
57681,121256,5
57668,121259,5
57679,121249,4
57675,121255,5
57670,121247,5
57671,121255,5
57678,121256,5
57682,121249,4
57683,121254,5
57670,121254,6
57684,121256,4
57673,121258,4
57670,121240,4
57661,121231,5
57661,121211,5
57651,121196,5
57636,121176,4
57636,121158,5
57624,121156,5
57620,121139,5
57615,121138,5
57614,121121,4
57611,121126,5
57618,121131,5
57619,121141,5
57620,121146,5
57632,121158,4
57628,121159,5
57627,121158,5
57634,121162,5
57635,121161,5
57634,121167,4
57631,121169,5
57635,121173,5
57636,121178,6
57638,121168,4
57634,121171,4
57635,121163,5
57631,121161,5
57630,121156,5
57627,121146,5
57619,121136,4
57620,121128,5
57618,121121,5
57603,121117,5
57597,121116,4
57596,121111,4
57602,121108,5
57591,121097,5
57583,121081,5
57586,121079,4
57584,121077,5
57591,121092,5
57573,121081,5
57585,121075,5
57585,121080,5
57579,121078,4
57575,121070,5
57582,121063,5
57572,121049,6
57568,121049,3
57580,121047,5
57565,121046,5
57560,121029,5
57557,121027,5
57582,121030,4
57559,121020,5
57562,121017,5
57544,121003,5
57565,120995,5
57539,121002,4
57540,120999,5
57551,120986,5
57550,120984,5
57537,120993,4
57537,120991,4
57532,120981,5
57536,120969,5
57532,120987,5
57530,120975,4
57528,120972,6
57522,120949,4
57529,120972,5
57523,120957,5
57523,120958,4
57524,120937,5
57517,120953,5
57520,120940,5
57521,120938,5
57524,120958,4
57523,120962,5
57523,120946,5
57519,120948,5
57520,120983,5
57518,120954,4
57521,120942,5
57517,120942,5
57509,120957,5
57509,120935,5
57509,120936,4
57513,120920,5
57507,120930,5
57513,120915,5
57507,120923,4
57500,120921,4
57504,120918,6
57497,120910,4
57502,120912,5
57504,120899,4
57500,120905,5
57493,120899,5
57490,120893,5
57495,120894,5
57484,120892,4
57491,120871,5
57484,120877,5
57487,120870,5
57484,120873,5
57483,120866,4
57475,120864,5
57478,120855,5
57471,120849,5
57470,120847,5
57469,120838,4
57459,120829,5
57463,120827,5
57463,120810,5
57447,120813,5
57446,120800,4
57452,120799,5
57449,120791,6
57438,120794,4
57446,120782,4
57434,120781,4
57441,120791,5
57434,120773,5
57433,120781,5
57433,120770,4
57429,120761,5
57433,120776,5
57440,120789,5
57439,120772,5
57430,120784,4
57438,120782,5
57428,120771,5
57431,120757,5
57419,120744,5
57418,120732,4
57393,120703,5
57382,120678,5
57382,120673,5
57369,120658,5
57370,120626,4
57360,120621,5
57349,120621,5
57343,120610,6
57345,120599,4
57343,120583,4
57333,120578,5
57326,120557,5
57328,120557,5
57333,120553,4
57324,120545,4
57318,120546,5
57318,120540,5
57325,120549,5
57315,120556,4
57321,120566,5
57323,120572,5
57328,120574,5
57326,120559,5
57319,120543,4
57311,120533,5
57295,120523,5
57291,120494,5
57290,120500,5
57292,120503,5
57283,120507,4
57293,120502,5
57290,120515,5
57303,120530,5
57308,120549,4
57322,120566,5
57334,120581,5
57334,120603,5
57335,120599,5
57323,120608,4
57347,120611,5
57335,120607,5
57341,120588,5
57315,120605,5
57336,120609,4
57348,120616,5
57356,120630,5
57340,120635,5
57367,120652,4
57358,120656,5
57370,120669,5
57376,120676,5
57382,120680,5
57379,120689,4
57388,120695,6
57407,120702,4
57385,120709,5
57389,120705,5
57396,120713,4
57414,120724,5
57395,120732,5
57401,120744,5
57409,120741,5
57413,120745,4
57413,120750,5
57412,120752,5
57406,120751,5
57416,120755,5
57408,120762,4
57420,120760,5
57416,120771,5
57415,120744,5
57418,120763,5
57420,120763,4
57417,120760,5
57415,120734,5
57412,120750,5
57417,120754,5
57409,120735,4
57403,120732,6
57411,120736,4
57404,120742,5
57397,120730,4
57402,120747,5
57403,120738,5
57406,120734,5
57410,120737,5
57399,120765,4
57407,120747,5
57408,120753,5
57413,120750,5
57417,120768,5
57416,120763,4
57428,120752,5
57408,120754,5
57412,120761,5
57405,120751,5
57405,120752,4
57411,120737,5
57409,120742,5
57417,120770,5
57412,120769,5
57418,120784,4
57431,120795,5
57434,120802,5
57430,120801,5
57433,120792,4
57428,120797,4
57425,120775,5
57417,120760,5
57404,120746,5
57393,120735,4
57393,120732,5
57403,120733,5
57400,120733,5
57411,120745,5
57413,120757,4
57425,120789,5
57438,120798,5
57442,120816,5
57441,120832,5
57445,120853,4
57457,120858,5
57462,120858,5
57462,120862,5
57465,120863,5
57465,120867,4
57466,120870,5
57468,120879,5
57474,120884,5
57467,120880,5
57481,120883,4
57474,120880,5
57474,120887,5
57477,120890,5
57483,120888,4
57477,120882,4
57473,120879,5
57462,120886,5
57469,120886,5
57481,120892,4
57473,120886,5
57476,120891,5
57471,120885,5
57473,120897,5
57481,120893,4
57466,120889,5
57477,120883,5
57468,120877,5
57462,120856,5
57454,120843,5
57452,120854,4
57461,120857,5
57453,120854,5
57466,120864,5
57468,120862,4
57452,120864,5
57459,120861,5
57457,120866,5
57460,120863,5
57460,120862,4
57464,120864,5
57460,120864,5
57454,120860,5
57460,120860,4
57458,120857,4
57450,120851,5
57456,120847,5
57454,120857,5
57458,120848,4
57449,120839,5
57449,120843,6
57454,120844,4
57454,120838,5
57441,120840,4
57454,120842,7
57450,120838,3
57447,120842,5
57448,120838,5
57450,120828,4
57427,120816,5
57433,120808,5
57445,120816,5
57436,120819,5
57428,120815,4
57433,120806,5
57437,120790,5
57428,120802,5
57422,120782,5
57422,120774,4
57421,120768,5
57409,120749,5
57425,120753,5
57395,120722,4
57389,120707,4
57370,120679,5
57387,120664,6
57359,120630,4
57329,120594,4
57299,120533,5
57294,120473,5
57247,120420,5
57216,120363,5
57183,120301,4
57161,120254,5
57125,120193,5
57104,120148,5
57086,120100,5
57054,120058,4
57029,120018,5
57015,119985,5
57001,119969,5
56992,119951,5
57002,119971,4
57009,120003,5
57015,119994,5
57009,119978,5
57010,119999,5
57001,119978,5
56990,119962,4
56982,119949,5
56978,119940,6
56958,119909,4
56952,119886,4
56955,119909,5
56954,119888,5
56956,119897,5
56955,119902,4
56974,119937,5
56977,119956,5
56998,119974,5
57024,120021,5
57039,120053,4
57039,120088,5
57054,120108,5
57067,120124,5
57069,120123,5
57072,120133,8
57078,120145,3
57079,120153,3
57090,120169,5
57088,120157,5
57090,120167,5
57101,120174,4
57095,120169,5
57105,120180,5
57105,120193,6
57112,120193,3
57110,120201,5
57131,120218,5
57129,120227,5
57127,120231,5
57132,120244,4
57143,120254,5
57151,120262,5
57150,120278,5
57163,120304,4
57180,120321,4
57190,120332,5
57204,120363,5
57216,120378,5
57213,120396,4
57226,120402,5
57220,120400,5
57223,120388,5
57218,120391,5
57226,120405,4
57230,120419,6
57244,120451,4
57255,120477,5
57261,120488,5
57267,120499,6
57275,120503,3
57286,120510,5
57281,120509,5
57288,120513,5
57294,120513,4
57294,120524,5
57290,120524,5
57290,120533,5
57303,120532,5
57311,120555,4
57310,120552,5
57318,120565,5
57322,120585,5
57321,120583,4
57319,120583,4
57326,120609,5
57331,120588,5
57329,120591,5
57331,120596,4
57332,120605,5
57336,120606,6
57354,120621,4
57350,120629,5
57342,120647,4
57349,120645,5
57357,120640,5
57361,120656,5
57366,120655,5
57362,120649,4
57365,120658,5
57370,120661,5
57360,120657,5
57359,120663,5
57370,120666,4
57371,120682,5
57370,120681,5
57376,120687,5
57382,120669,5
57374,120661,4
57369,120648,5
57358,120659,5
57378,120673,5
57376,120681,4
57372,120697,4
57385,120700,5
57381,120702,6
57383,120693,4
57370,120674,4
57360,120659,5
57343,120653,5
57350,120630,5
57339,120601,5
57337,120595,4
57313,120580,5
57335,120575,5
57325,120590,5
57326,120558,5
57322,120561,4
57314,120571,5
57314,120568,5
57313,120569,5
57332,120570,5
57317,120565,4
57303,120560,5
57310,120547,5
57333,120533,5
57309,120543,5
57300,120533,4
57301,120525,5
57314,120527,5
57303,120539,6
57309,120545,4
57310,120548,4
57311,120534,5
57305,120525,5
57296,120508,5
57288,120510,4
57286,120487,4
57283,120500,5
57276,120476,5
57271,120482,5
57275,120438,4
57265,120461,5
57263,120465,5
57277,120482,5
57268,120462,5
57267,120467,4
57277,120463,5
57256,120447,4
57260,120428,5
57243,120402,5
57229,120388,5
57227,120372,4
57226,120371,5
57215,120358,5
57216,120350,5
57207,120311,4
57177,120291,5
57153,120219,5
57124,120181,5
57098,120132,5
57086,120116,4
57082,120081,5
57070,120073,5
57068,120067,5
57070,120076,4
57074,120058,4
57058,120058,5
57056,120042,5
57043,120038,5
57050,120019,4
57044,120026,5
57041,120007,5
57041,120018,5
57032,120026,5
57039,120022,4
57040,120037,6
57054,120049,4
57065,120064,5
57071,120068,5
57073,120093,4
57083,120093,5
57095,120110,5
57091,120120,5
57096,120118,5
57097,120114,4
57096,120123,5
57097,120117,5
57095,120120,5
57103,120124,5
57104,120131,4
57107,120142,5
57113,120163,5
57123,120175,5
57136,120194,5
57144,120232,4
57165,120262,5
57176,120286,5
57189,120311,5
57215,120344,4
57229,120386,5
57245,120423,6
57265,120461,4
57275,120472,5
57280,120487,4
57278,120488,5
57293,120512,5
57299,120512,5
57303,120525,5
57296,120523,4
57301,120538,5
57308,120539,5
57307,120547,5
57315,120546,5
57321,120567,4
57335,120594,5
57338,120611,5
57355,120636,5
57370,120669,5
57372,120685,4
57388,120697,5
57392,120711,5
57408,120734,5
57413,120756,5
57420,120769,4
57440,120793,5
57447,120820,6
57459,120835,4
57456,120850,4
57473,120849,4
57474,120864,5
57474,120865,5
57470,120866,5
57484,120882,4
57494,120886,5
57494,120903,5
57504,120921,5
57520,120939,5
57512,120945,4
57522,120939,5
57521,120950,5
57525,120970,5
57526,120981,5
57529,120974,4
57527,120985,5
57546,120996,5
57530,120994,5
57539,120989,5
57533,120984,4
57528,120979,5
57521,120992,5
57553,121011,5
57559,121033,5
57560,121048,4
57554,121055,5
57581,121069,5
57583,121079,5
57590,121078,4
57593,121103,4
57596,121104,5
57601,121114,5
57611,121132,5
57635,121143,4
57621,121150,5
57617,121150,5
57627,121154,5
57644,121192,5
57636,121193,4
57648,121207,6
57656,121227,4
57670,121239,5
57673,121250,5
57678,121258,6
57682,121269,3
57682,121276,5
57698,121282,5
57701,121302,5
57696,121307,4
57702,121290,5
57699,121318,5
57713,121327,5
57716,121329,5
57715,121312,4
57712,121335,5
57712,121336,5
57703,121338,5
57721,121342,5
57711,121342,4
57721,121342,5
57719,121360,5
57732,121375,5
57722,121364,4
57729,121371,5
57736,121373,5
57733,121396,5
57745,121382,5
57744,121389,4
57744,121405,6
57754,121422,4
57767,121435,5
57767,121441,5
57773,121452,4
57774,121460,5
57785,121464,5
57784,121476,5
57785,121471,5
57790,121472,4
57780,121470,5
57788,121485,5
57791,121484,5
57783,121476,5
57775,121467,4
57773,121469,5
57780,121455,5
57777,121443,5
57769,121447,5
57772,121457,4
57772,121479,5
57793,121498,5
57804,121514,5
57811,121531,4
57821,121548,4
57832,121559,6
57828,121567,4
57837,121574,5
57844,121586,4
57839,121593,5
57849,121602,5
57853,121605,5
57847,121612,5
57853,121616,4
57851,121611,5
57848,121615,5
57856,121611,5
57855,121618,5
57857,121618,4
57855,121614,5
57866,121643,5
57866,121630,5
57868,121643,5
57871,121657,4
57879,121657,5
57885,121669,5
57891,121683,5
57899,121704,5
57906,121711,4
57906,121702,5
57901,121705,5
57904,121704,5
57894,121691,4
57886,121684,4
57886,121685,5
57894,121684,5
57898,121703,5
57901,121700,4
57909,121713,5
57906,121733,5
57907,121735,5
57925,121735,5
57918,121731,4
57919,121735,5
57910,121728,5
57920,121726,5
57920,121725,5
57912,121731,5
57907,121728,4
57909,121727,5
57921,121725,5
57917,121726,6
57912,121728,3
57926,121733,5
57925,121746,5
57927,121747,5
57935,121766,5
57931,121764,4
57927,121753,5
57934,121747,5
57926,121755,5
57925,121754,4
57925,121736,4
57922,121733,5
57920,121740,5
57913,121721,5
57905,121722,4
57918,121721,5
57915,121722,5
57906,121724,5
57910,121728,5
57926,121734,4
57920,121739,6
57916,121742,4
57903,121738,5
57913,121738,5
57923,121740,6
57925,121737,3
57927,121748,5
57921,121748,5
57929,121740,5
57920,121746,4
57937,121744,5
57920,121742,5
57925,121750,5
57923,121747,5
57932,121734,4
57919,121737,5
57914,121737,5
57917,121739,5
57922,121736,4
57913,121718,4
57919,121711,5
57908,121701,5
57899,121700,5
57898,121698,4
57905,121684,5
57897,121682,6
57887,121658,4
57890,121667,5
57882,121658,4
57882,121655,5
57880,121637,5
57871,121641,5
57867,121643,5
57866,121625,4
57858,121598,5
57852,121586,5
57836,121578,5
57828,121535,5
57794,121492,4
57787,121458,5
57769,121430,5
57762,121410,5
57747,121423,5
57747,121387,4
57749,121392,5
57749,121391,5
57753,121418,5
57756,121404,4
57758,121404,4
57745,121401,5
57752,121390,6
57750,121391,4
57736,121379,4
57742,121375,5
57738,121364,6
57733,121367,4
57724,121353,5
57722,121339,4
57719,121324,5
57712,121319,5
57711,121307,5
57695,121277,5
57685,121252,4
57675,121258,5
57667,121244,5
57662,121228,5
57650,121218,5
57655,121210,4
57654,121218,5
57657,121220,5
57665,121222,5
57658,121244,5
57676,121230,4
57668,121240,5
57667,121229,5
57660,121208,6
57654,121208,4
57653,121213,4
57659,121207,5
57654,121207,5
57653,121203,5
57644,121200,4
57656,121215,5
57656,121209,5
57650,121202,5
57644,121199,5
57639,121186,4
57636,121187,5
57645,121181,5
57638,121183,5
57644,121188,5
57641,121187,4
57652,121195,5
57645,121200,5
57651,121198,5
57648,121195,5
57643,121196,5
57638,121204,4
57649,121198,5
57650,121192,5
57642,121192,6
57652,121192,3
57654,121190,5
57650,121188,5
57644,121196,5
57645,121187,5
57639,121181,4
57637,121172,5
57641,121176,5
57642,121183,5
57634,121182,4
57632,121179,4
57640,121177,5
57639,121168,5
57629,121172,5
57641,121170,4
57633,121174,5
57635,121174,5
57635,121179,5
57635,121161,5
57627,121168,4
57631,121165,6
57625,121166,4
57628,121168,5
57627,121164,5
57622,121162,4
57621,121166,5
57637,121159,5
57630,121165,5
57623,121163,5
57621,121150,4
57629,121158,5
57628,121155,5
57619,121150,5
57629,121150,5
57613,121151,4
57623,121150,5
57615,121139,5
57620,121153,5
57610,121148,4
57618,121145,4
57626,121146,5
57627,121140,5
57602,121146,5
57617,121129,4
57613,121123,5
57604,121131,6
57605,121115,4
57602,121114,5
57605,121110,4
57601,121104,5
57614,121102,5
57603,121095,5
57590,121099,5
57599,121105,4
57612,121095,5
57588,121085,5
57584,121090,5
57585,121095,5
57597,121081,4
57584,121079,5
57582,121070,5
57581,121072,5
57580,121058,5
57577,121058,4
57576,121058,5
57579,121071,5
57575,121052,5
57578,121059,4
57580,121056,4
57572,121049,5
57571,121027,6
57569,121054,4
57575,121041,5
57572,121046,4
57567,121046,5
57572,121049,5
57565,121046,5
57571,121048,4
57566,121058,5
57568,121049,5
57568,121051,5
57566,121062,5
57573,121082,4
57574,121059,5
57580,121063,5
57570,121048,5
57562,121049,5
57555,121017,4
57546,120993,5
57540,120965,5
57521,120931,5
57508,120914,5
57498,120911,4
57495,120890,5
57486,120884,5
57481,120863,6
57471,120862,3
57479,120870,4
57479,120877,5
57483,120879,5
57478,120876,5
57489,120873,4
57480,120882,5
57482,120875,5
57482,120880,5
57484,120887,5
57491,120877,4
57483,120886,5
57489,120894,5
57494,120886,5
57484,120880,5
57480,120872,4
57480,120868,5
57472,120866,5
57480,120859,5
57475,120849,5
57467,120843,5
57469,120849,4
57456,120840,5
57468,120842,5
57474,120839,5
57464,120846,4
57467,120854,5
57474,120860,5
57482,120863,5
57478,120870,5
57480,120870,4
57476,120866,5
57470,120869,5
57479,120866,5
57474,120853,4
57467,120858,4
57469,120853,5
57476,120867,5
57478,120872,5
57469,120874,4
57488,120865,5
57488,120880,5
57484,120875,5
57490,120878,5
57481,120872,4
57475,120873,6
57476,120860,4
57479,120858,5
57477,120861,5
57481,120859,4
57472,120865,5
57480,120872,5
57469,120853,5
57470,120857,5
57469,120852,4
57474,120853,5
57469,120849,5
57468,120859,5
57467,120847,5
57476,120851,4
57471,120858,5
57469,120844,5
57462,120834,5
57454,120834,4
57452,120828,4
57458,120823,5
57450,120824,5
57455,120818,5
57445,120815,4
57446,120802,5
57444,120799,6
57445,120803,4
57445,120800,5
57447,120788,4
57443,120783,5
57429,120783,5
57440,120787,5
57433,120773,5
57435,120777,4
57419,120765,5
57429,120768,5
57426,120763,5
57420,120760,5
57402,120745,4
57421,120737,5
57420,120737,5
57414,120738,5
57412,120743,5
57409,120734,4
57415,120738,5
57410,120739,5
57432,120731,5
57411,120738,4
57415,120733,4
57407,120731,5
57429,120735,6
57407,120739,4
57409,120730,4
57404,120735,5
57420,120740,5
57413,120743,5
57410,120733,5
57409,120721,4
57422,120726,5
57401,120729,5
57396,120718,5
57403,120717,5
57397,120710,4
57404,120709,5
57400,120712,5
57394,120698,5
57396,120691,5
57403,120714,4
57395,120711,5
57400,120708,5
57402,120696,5
57399,120713,5
57403,120718,5
57400,120720,4
57407,120737,5
57405,120733,5
57411,120734,5
57408,120735,4
57412,120742,5
57407,120716,5
57399,120704,5
57383,120688,4
57393,120699,4
57383,120655,5
57363,120635,5
57357,120636,5
57356,120626,4
57347,120611,5
57350,120601,5
57341,120598,5
57345,120615,5
57354,120614,4
57354,120620,5
57357,120631,5
57360,120645,5
57368,120652,5
57371,120646,6
57366,120649,3
57363,120652,5
57361,120653,5
57371,120653,5
57368,120660,4
57375,120664,5
57377,120663,5
57377,120666,5
57376,120655,5
57377,120664,4
57379,120673,5
57370,120665,5
57379,120666,5
57375,120667,4
57375,120671,4
57372,120668,5
57383,120671,5
57378,120673,5
57383,120684,4
57390,120704,5
57395,120702,5
57387,120701,5
57391,120706,5
57391,120707,4
57390,120696,7
57396,120700,3
57395,120702,5
57388,120689,5
57381,120680,4
57386,120685,5
57386,120691,5
57389,120706,5
57392,120698,5
57395,120706,4
57398,120704,5
57400,120718,5
57401,120719,5
57403,120721,5
57412,120726,4
57412,120725,5
57418,120738,5
57407,120737,5
57416,120733,4
57407,120745,4
57412,120732,5
57411,120728,6
57413,120729,4
57400,120726,4
57403,120727,5
57397,120718,5
57400,120732,5
57406,120722,5
57401,120724,4
57405,120731,5
57419,120731,5
57411,120739,5
57409,120739,5
57419,120745,4
57417,120754,5
57418,120754,5
57426,120773,5
57429,120777,5
57430,120782,4
57431,120778,5
57438,120793,5
57447,120804,5
57442,120810,5
57451,120822,4
57453,120838,5
57448,120820,5
57446,120812,6
57446,120819,4
57448,120823,4
57459,120823,5
57453,120828,5
57450,120828,5
57459,120847,4
57464,120851,5
57450,120866,5
57472,120867,5
57479,120889,5
57477,120909,4
57482,120918,5
57501,120947,5
57512,120957,5
57525,120963,5
57524,120978,4
57515,120991,5
57534,120991,5
57536,121015,5
57559,121022,5
57543,121031,5
57554,121039,4
57547,121045,5
57574,121069,5
57572,121094,6
57578,121113,3
57590,121142,5
57614,121175,5
57623,121198,5
57638,121220,5
57652,121247,4
57662,121274,5
57673,121299,5
57681,121306,5
57680,121305,4
57683,121299,4
57688,121336,5
57691,121335,5
57696,121340,5
57703,121335,4
57703,121380,5
57729,121405,5
57745,121447,5
57758,121478,5
57790,121532,4
57795,121556,6
57815,121573,4
57820,121605,5
57817,121603,5
57818,121601,6
57830,121616,3
57832,121655,5
57837,121634,5
57840,121641,5
57845,121641,4
57855,121671,5
57846,121655,5
57849,121649,5
57846,121653,5
57853,121663,4
57852,121672,5
57858,121680,8
57859,121675,3
57847,121661,3
57825,121653,4
57836,121639,5
57833,121629,5
57838,121616,5
57823,121604,4
57815,121600,5
57818,121589,6
57804,121571,4
57797,121536,5
57775,121490,4
57756,121460,5
57738,121425,5
57734,121433,5
57731,121432,5
57739,121429,4
57738,121440,5
57738,121419,5
57726,121406,5
57717,121377,5
57715,121368,4
57692,121350,5
57685,121316,5
57675,121290,5
57656,121264,5
57639,121238,4
57642,121231,5
57640,121230,5
57636,121226,5
57642,121222,4
57639,121221,4
57639,121234,5
57629,121220,6
57632,121203,4
57612,121182,4
57608,121159,5
57592,121132,5
57585,121117,5
57576,121103,5
57576,121075,4
57554,121055,5
57554,121057,5
57541,121040,5
57549,121028,5
57541,121028,4
57541,121018,5
57531,121020,5
57526,120991,5
57517,120972,5
57506,120984,4
57518,120976,5
57508,120974,5
57504,120950,5
57496,120947,5
57500,120955,4
57493,120944,5
57499,120945,5
57505,120954,6
57497,120944,3
57498,120947,4
57493,120951,5
57492,120946,5
57499,120949,5
57499,120951,4
57489,120955,5
57501,120954,5
57495,120962,5
57500,120956,5
57498,120937,4
57495,120936,5
57485,120903,5
57481,120898,5
57477,120883,5
57459,120867,4
57444,120830,5
57438,120817,5
57426,120801,5
57421,120787,5
57420,120771,5
57411,120764,4
57415,120768,5
57398,120774,5
57421,120776,6
57425,120786,3
57420,120790,5
57403,120790,5
57429,120805,5
57419,120806,5
57428,120804,4
57418,120789,5
57425,120797,5
57421,120791,5
57424,120801,4
57434,120802,5
57438,120812,5
57433,120817,5
57439,120821,5
57452,120820,4
57445,120822,5
57441,120821,5
57449,120821,5
57463,120832,5
57449,120830,4
57454,120826,6
57448,120830,4
57455,120840,5
57451,120840,5
57455,120842,4
57443,120833,5
57456,120828,5
57445,120826,5
57439,120802,5
57433,120810,4
57431,120784,5
57432,120787,5
57429,120800,5
57443,120813,5
57444,120804,4
57444,120829,5
57439,120836,5
57445,120834,5
57454,120854,4
57447,120843,4
57451,120839,5
57454,120838,5
57455,120860,5
57447,120839,4
57461,120843,5
57461,120850,6
57461,120877,4
57467,120868,5
57470,120889,4
57486,120895,5
57488,120912,5
57490,120915,5
57495,120931,5
57503,120926,4
57507,120939,5
57504,120932,5
57505,120940,5
57504,120946,5
57505,120951,4
57504,120947,5
57499,120947,5
57512,120951,5
57516,120949,5
57515,120962,4
57505,120965,5
57515,120973,5
57516,120977,5
57522,120995,4
57526,120998,4
57528,121008,5
57535,121013,6
57537,121020,4
57544,121025,4
57552,121038,5
57558,121035,5
57555,121044,5
57559,121050,5
57561,121053,4
57567,121061,5
57562,121057,5
57562,121076,5
57575,121077,5
57569,121071,4
57569,121080,5
57567,121072,5
57567,121080,5
57567,121067,5
57566,121055,4
57563,121040,5
57545,121032,5
57549,121029,5
57550,121023,5
57551,121031,4
57542,121022,5
57543,121034,5
57551,121042,5
57562,121058,4
57560,121070,4
57575,121079,5
57577,121083,5
57579,121108,5
57588,121102,4
57595,121118,5
57593,121116,5
57590,121114,5
57599,121132,5
57594,121135,4
57599,121121,5
57601,121128,5
57597,121130,5
57607,121139,5
57612,121141,4
57616,121141,5
57608,121150,5
57611,121147,5
57601,121144,5
57611,121141,5
57617,121159,4
57611,121153,5
57612,121158,5
57616,121167,5
57620,121172,4
57616,121164,5
57626,121170,5
57620,121180,5
57617,121166,5
57613,121181,4
57617,121180,5
57627,121165,5
57612,121179,5
57617,121175,4
57635,121185,4
57629,121201,5
57646,121208,5
57652,121223,5
57639,121237,4
57656,121244,5
57663,121255,5
57665,121258,5
57660,121264,5
57667,121278,4
57677,121273,6
57684,121292,4
57669,121289,5
57693,121301,5
57701,121311,4
57696,121313,5
57702,121322,5
57700,121346,5
57710,121333,5
57708,121340,4
57712,121336,5
57706,121334,5
57710,121336,5
57711,121345,5
57736,121348,4
57715,121347,5
57710,121349,5
57712,121345,5
57716,121347,4
57711,121346,4
57707,121359,5
57718,121352,5
57713,121355,5
57720,121376,4
57727,121379,5
57730,121380,6
57725,121376,4
57725,121387,5
57737,121384,4
57733,121397,5
57735,121381,5
57744,121397,5
57741,121409,5
57754,121417,4
57759,121431,5
57773,121454,5
57781,121468,5
57778,121470,5
57767,121475,4
57772,121460,5
57773,121457,5
57760,121445,5
57762,121447,5
57749,121420,4
57747,121407,5
57739,121391,5
57734,121401,5
57738,121381,4
57734,121389,4
57741,121399,5
57744,121405,5
57746,121393,5
57735,121399,4
57739,121398,5
57738,121396,5
57736,121400,5
57738,121391,5
57727,121378,4
57733,121378,5
57737,121373,5
57727,121380,5
57737,121377,5
57732,121372,4
57730,121364,5
57730,121365,5
57721,121363,5
57718,121378,5
57735,121370,4
57737,121378,4
57730,121387,5
57733,121392,5
57741,121386,5
57743,121384,3
57740,121395,5
57744,121394,5
57746,121391,5
57745,121405,4
57736,121391,4
57736,121385,5
57736,121375,5
57726,121358,5
57716,121341,4
57709,121333,5
57711,121341,5
57703,121333,5
57710,121343,5
57721,121358,4
57725,121362,5
57727,121377,5
57748,121399,5
57741,121405,5
57747,121398,4
57761,121416,6
57760,121416,4
57761,121419,5
57757,121424,5
57753,121422,6
57757,121425,3
57763,121435,5
57755,121435,5
57768,121441,5
57772,121447,4
57774,121460,5
57775,121480,5
57796,121480,5
57785,121498,4
57795,121508,4
57801,121506,5
57802,121512,5
57794,121519,5
57808,121523,4
57810,121529,5
57817,121531,5
57811,121543,5
57822,121542,5
57825,121559,4
57833,121576,5
57840,121590,6
57848,121599,4
57848,121618,5
57851,121622,4
57862,121626,7
57865,121633,3
57869,121640,5
57868,121640,5
57876,121653,4
57865,121648,5
57872,121656,5
57868,121664,5
57881,121670,5
57884,121663,4
57876,121671,5
57892,121680,5
57886,121677,5
57886,121672,5
57865,121670,4
57885,121664,5
57888,121673,5
57880,121658,5
57853,121645,4
57872,121642,5
57868,121627,5
57872,121628,6
57857,121629,4
57876,121646,4
57877,121668,5
57879,121671,5
57899,121679,5
57894,121696,5
57889,121692,4
57894,121694,5
57911,121689,5
57897,121689,5
57886,121691,5
57898,121683,4
57909,121686,5
57900,121705,5
57902,121695,5
57900,121704,5
57903,121699,4
57899,121701,5
57897,121692,5
57896,121699,5
57889,121676,5
57891,121680,4
57882,121694,5
57894,121677,5
57886,121656,6
57891,121669,3
57883,121673,4
57880,121675,5
57888,121670,5
57894,121693,5
57901,121692,5
57887,121704,4
57892,121689,5
57897,121680,5
57890,121688,5
57885,121681,4
57894,121710,5
57892,121686,5
57893,121692,5
57887,121693,5
57893,121716,4
57899,121697,5
57898,121694,5
57896,121694,5
57895,121684,5
57900,121688,5
57895,121684,4
57894,121675,5
57889,121670,5
57885,121669,5
57879,121660,4
57883,121652,5
57881,121669,5
57875,121659,5
57866,121652,4
57874,121644,4
57873,121655,5
57874,121643,5
57875,121656,5
57869,121644,4
57864,121642,5
57856,121630,5
57856,121637,5
57867,121639,5
57862,121626,4
57860,121628,5
57871,121639,5
57864,121639,5
57863,121631,5
57858,121624,4
57861,121623,6
57848,121607,4
57846,121602,5
57840,121594,5
57844,121584,4
57837,121578,5
57831,121573,5
57833,121568,5
57833,121559,5
57816,121563,4
57827,121548,5
57816,121551,5
57807,121537,5
57820,121536,4
57812,121537,4
57814,121540,5
57813,121519,5
57804,121509,5
57801,121508,4
57794,121494,5
57798,121497,5
57791,121488,5
57787,121478,5
57791,121490,4
57786,121485,5
57785,121477,6
57783,121473,4
57786,121474,5
57782,121469,4
57784,121476,5
57779,121460,5
57777,121469,5
57774,121467,5
57773,121453,4
57774,121464,5
57777,121459,5
57772,121460,5
57770,121469,5
57771,121467,4
57782,121472,5
57776,121464,5
57772,121463,5
57782,121463,4
57775,121466,4
57772,121463,5
57771,121453,5
57769,121435,5
57767,121439,4
57752,121423,5
57749,121398,5
57739,121371,6
57729,121355,4
57708,121336,4
57713,121311,5
57712,121327,5
57706,121326,5
57715,121343,5
57723,121351,4
57723,121356,5
57715,121364,5
57726,121362,5
57731,121350,5
57723,121350,4
57708,121358,5
57715,121337,5
57713,121338,5
57725,121344,5
57702,121337,4
57711,121331,5
57716,121344,5
57713,121337,5
57718,121332,5
57710,121334,4
57717,121338,5
57709,121324,5
57735,121326,6
57713,121330,3
57714,121325,4
57702,121324,5
57730,121312,5
57708,121314,5
57708,121321,4
57701,121318,5
57707,121315,5
57706,121317,5
57703,121310,5
57695,121308,4
57697,121298,5
57691,121298,5
57697,121297,5
57697,121296,5
57693,121283,4
57692,121298,5
57694,121300,5
57692,121291,5
57704,121294,5
57706,121299,5
57694,121304,4
57702,121296,5
57695,121309,5
57698,121313,5
57697,121318,5
57705,121325,4
57703,121324,5
57708,121328,5
57713,121335,4
57714,121324,4
57703,121361,5
57704,121333,5
57705,121332,5
57699,121326,4
57704,121336,5
57699,121318,5
57711,121325,5
57698,121312,5
57706,121327,4
57697,121315,5
57705,121312,5
57700,121307,5
57700,121305,5
57706,121305,4
57695,121307,6
57697,121300,4
57701,121298,5
57697,121303,5
57699,121301,4
57687,121290,5
57696,121293,5
57691,121288,5
57685,121280,5
57687,121284,4
57694,121293,5
57682,121283,5
57688,121289,5
57682,121281,4
57691,121276,4
57684,121274,5
57682,121269,5
57669,121256,5
57665,121258,4
57677,121264,5
57672,121255,5
57665,121268,5
57675,121257,5
57666,121260,4
57682,121262,5
57671,121258,6
57674,121253,4
57668,121252,5
57673,121251,4
57669,121236,5
57658,121244,5
57660,121243,5
57661,121243,5
57658,121241,4
57663,121232,5
57663,121237,5
57665,121239,5
57655,121238,5
57658,121242,4
57660,121223,5
57653,121225,5
57656,121225,5
57653,121226,4
57650,121210,4
57654,121217,5
57649,121201,5
57645,121207,5
57647,121207,4
57640,121198,5
57637,121196,5
57628,121175,6
57636,121180,4
57626,121187,4
57633,121173,5
57623,121171,5
57617,121166,5
57617,121155,5
57628,121166,4
57629,121168,5
57628,121181,5
57634,121180,5
57630,121183,5
57638,121173,4
57639,121181,5
57638,121175,5
57627,121183,5
57632,121175,5
57634,121184,4
57633,121190,5
57638,121179,5
57639,121179,5
57625,121171,5
57618,121154,4
57614,121140,5
57608,121134,5
57592,121109,5
57579,121063,4
57573,121057,5
57562,121049,5
57549,121030,5
57555,121030,5
57545,121023,4
57552,121017,5
57541,121038,5
57561,121029,5
57560,121045,5
57578,121049,4
57559,121056,5
57571,121050,5
57576,121064,5
57570,121051,5
57582,121061,4
57569,121065,5
57571,121070,5
57574,121073,5
57598,121068,5
57569,121057,5
57574,121066,4
57567,121057,5
57581,121057,5
57566,121046,5
57564,121053,4
57567,121064,5
57582,121064,5
57561,121060,5
57572,121064,4
57569,121068,4
57575,121066,5
57582,121077,5
57569,121062,5
57577,121075,4
57579,121053,5
57579,121071,5
57583,121069,5
57577,121067,5
57574,121034,4
57564,121045,5
57555,121051,6
57563,121041,4
57570,121057,5
57574,121062,4
57565,121060,7
57573,121059,3
57572,121076,5
57575,121053,5
57573,121051,4
57568,121048,5
57561,121071,5
57572,121058,5
57566,121056,5
57567,121056,4
57562,121070,5
57571,121059,5
57562,121059,5
57559,121046,4
57558,121047,4
57566,121045,5
57558,121031,5
57552,121028,5
57555,121034,4
57557,121030,5
57552,121033,5
57549,121027,5
57545,121027,4
57545,121020,4
57554,121026,5
57551,121032,5
57554,121022,5
57556,121029,5
57557,121023,4
57552,121026,5
57549,121018,5
57549,121023,5
57544,121016,5
57548,121017,4
57531,121007,5
57545,120993,5
57532,120985,5
57537,120990,5
57537,120983,4
57541,120970,5
57523,120975,5
57535,120977,5
57535,120975,5
57516,120971,4
57526,120974,5
57528,120967,5
57516,120960,6
57520,120961,3
57523,120958,5
57513,120955,5
57513,120938,5
57511,120934,5
57510,120931,4
57505,120930,5
57500,120932,5
57498,120932,5
57513,120912,5
57500,120921,4
57499,120920,5
57505,120919,5
57498,120918,5
57504,120919,5
57492,120924,4
57501,120912,5
57503,120917,5
57502,120925,5
57494,120908,5
57495,120912,5
57492,120915,4
57492,120905,5
57488,120915,5
57492,120912,6
57503,120913,3
57497,120912,5
57500,120910,5
57492,120920,5
57498,120912,4
57497,120929,5
57499,120928,5
57502,120932,5
57506,120940,5
57497,120917,4
57492,120910,5
57486,120899,5
57481,120888,5
57469,120868,5
57460,120845,4
57443,120807,5
57428,120786,5
57425,120774,5
57412,120765,5
57417,120753,4
57411,120754,6
57411,120752,4
57417,120752,5
57403,120753,5
57418,120762,6
57423,120766,3
57428,120768,5
57414,120775,5
57420,120767,5
57422,120777,4
57418,120762,5
57392,120754,5
57416,120762,5
57409,120763,4
57423,120760,5
57421,120767,5
57428,120760,5
57417,120760,5
57419,120762,4
57435,120766,5
57413,120756,5
57412,120767,5
57421,120760,5
57434,120751,4
57410,120749,5
57401,120742,6
57409,120749,4
57411,120755,5
57412,120757,4
57406,120738,5
57406,120738,5
57417,120748,5
57414,120752,5
57410,120757,4
57414,120744,5
57405,120725,5
57410,120747,5
57412,120743,5
57407,120759,4
57411,120756,5
57430,120785,5
57433,120801,5
57427,120799,4
57437,120800,4
57440,120806,5
57445,120802,5
57440,120819,5
57442,120815,4
57435,120809,5
57439,120797,5
57437,120794,6
57429,120813,4
57435,120789,4
57432,120791,5
57433,120795,5
57435,120814,5
57432,120800,5
57432,120793,4
57433,120789,5
57428,120787,5
57424,120784,5
57419,120782,5
57420,120783,7
57426,120786,2
57437,120792,5
57428,120789,5
57423,120791,5
57425,120783,4
57434,120784,5
57433,120797,5
57429,120780,5
57419,120774,5
57421,120784,4
57425,120771,5
57421,120763,5
57412,120758,6
57409,120763,3
57404,120745,5
57412,120749,5
57414,120751,5
57400,120743,5
57408,120746,4
57411,120757,5
57412,120744,5
57407,120747,5
57411,120748,5
57409,120756,4
57404,120737,5
57406,120731,5
57409,120736,5
57404,120736,5
57402,120731,4
57403,120731,5
57407,120732,5
57399,120739,5
57395,120738,5
57405,120739,5
57405,120739,4
57395,120732,5
57401,120743,5
57404,120739,4
57405,120739,4
57407,120736,5
57407,120742,5
57406,120751,5
57405,120745,4
57408,120746,5
57408,120750,5
57408,120751,5
57411,120762,5
57418,120777,4
57430,120786,5
57437,120799,5
57441,120807,5
57436,120819,5
57433,120809,4
57426,120796,5
57424,120790,5
57430,120782,5
57413,120754,5
57406,120740,4
57404,120751,6
57403,120738,4
57400,120742,5
57402,120759,5
57404,120757,4
57404,120760,5
57413,120773,5
57417,120783,5
57430,120792,4
57430,120800,4
57427,120807,5
57432,120808,5
57438,120820,5
57446,120822,4
57435,120830,5
57439,120826,5
57438,120830,5
57446,120821,5
57440,120817,4
57433,120816,5
57443,120819,5
57434,120806,5
57421,120790,5
57412,120796,4
57417,120778,5
57412,120761,6
57406,120746,4
57391,120735,5
57394,120728,4
57389,120728,5
57392,120720,5
57387,120718,5
57388,120711,5
57380,120713,4
57388,120718,5
57397,120712,5
57382,120699,5
57385,120708,5
57379,120701,4
57396,120699,5
57373,120693,5
57373,120692,5
57370,120688,4
57382,120676,4
57360,120671,5
57362,120651,5
57354,120645,5
57341,120644,4
57355,120632,5
57337,120627,5
57346,120633,6
57338,120618,4
57339,120628,4
57334,120629,5
57338,120615,5
57324,120596,5
57323,120597,5
57329,120590,4
57320,120573,4
57317,120557,5
57318,120582,5
57321,120589,5
57329,120596,4
57323,120595,5
57316,120583,5
57317,120570,5
57306,120580,5
57314,120603,4
57320,120599,5
57318,120601,5
57337,120622,5
57337,120647,5
57343,120628,4
57345,120622,5
57337,120617,5
57335,120611,5
57335,120599,4
57331,120599,5
57321,120599,5
57327,120610,5
57336,120611,5
57326,120616,4
57330,120618,5
57339,120607,5
57336,120624,5
57340,120618,5
57347,120634,4
57350,120646,5
57355,120653,5
57370,120673,5
57378,120685,5
57380,120694,4
57383,120698,5
57373,120697,5
57370,120697,5
57369,120692,5
57368,120682,5
57376,120687,4
57388,120708,5
57383,120715,5
57399,120728,5
57408,120738,4
57407,120763,5
57418,120766,5
57414,120758,5
57409,120742,4
57404,120742,5
57398,120721,5
57383,120691,5
57377,120670,5
57363,120665,4
57358,120659,5
57360,120653,5
57365,120666,5
57366,120669,5
57378,120686,4
57381,120699,5
57386,120714,5
57392,120720,5
57388,120721,5
57396,120727,4
57393,120729,6
57402,120742,4
57401,120743,5
57407,120756,5
57413,120754,4
57416,120760,5
57413,120754,5
57412,120761,5
57413,120768,5
57412,120769,4
57413,120752,5
57412,120763,5
57415,120753,5
57408,120751,4
57406,120757,4
57413,120757,5
57415,120755,5
57418,120769,5
57414,120772,4
57423,120776,5
57417,120788,5
57417,120768,5
57424,120771,5
57418,120786,4
57414,120774,5
57413,120768,6
57416,120763,4
57402,120754,5
57410,120744,4
57403,120742,5
57405,120757,5
57413,120764,5
57420,120768,5
57413,120767,4
57412,120762,5
57424,120783,5
57424,120788,5
57424,120788,5
57425,120775,4
57410,120786,5
57428,120772,5
57425,120778,5
57421,120782,4
57412,120787,4
57432,120793,5
57434,120809,5
57443,120818,5
57427,120830,4
57454,120822,5
57444,120834,5
57450,120835,5
57457,120851,5
57464,120849,4
57460,120847,5
57471,120863,5
57473,120861,5
57475,120866,5
57468,120873,4
57471,120870,5
57501,120871,5
57480,120880,5
57481,120894,5
57476,120886,4
57489,120902,5
57484,120907,5
57496,120927,5
57504,120925,5
57506,120941,4
57512,120950,5
57517,120950,5
57518,120950,5
57514,120953,5
57516,120961,4
57519,120967,5
57520,120966,5
57519,120954,5
57530,120979,4
57532,120993,5
57545,121017,5
57552,121015,5
57560,121035,5
57550,121030,5
57547,121027,4
57555,121043,5
57553,121036,5
57546,121027,5
57546,121022,4
57529,121013,5
57532,121005,5
57535,120998,5
57537,120988,5
57539,121009,4
57535,121004,6
57541,121005,4
57542,121007,5
57549,121031,5
57550,121045,6
57557,121045,3
57560,121052,5
57567,121066,5
57573,121082,5
57579,121081,4
57582,121094,5
57585,121102,5
57588,121105,5
57595,121120,4
57592,121122,5
57597,121104,5
57583,121107,5
57584,121110,5
57583,121094,4
57575,121090,5
57580,121077,5
57579,121082,5
57576,121080,5
57578,121081,4
57573,121077,5
57579,121075,6
57583,121097,4
57573,121092,5
57584,121084,4
57581,121084,7
57572,121072,3
57581,121076,5
57574,121073,5
57567,121052,4
57571,121066,5
57566,121065,5
57577,121074,5
57579,121080,5
57578,121084,4
57572,121092,5
57578,121086,5
57574,121091,5
57575,121091,4
57580,121087,4
57576,121097,5
57579,121094,5
57580,121101,5
57591,121102,4
57582,121102,5
57588,121101,5
57592,121096,6
57585,121107,4
57588,121101,4
57592,121118,5
57593,121110,5
57595,121121,5
57592,121122,5
57601,121127,4
57604,121145,5
57602,121141,5
57598,121132,5
57603,121146,5
57608,121134,4
57608,121136,5
57602,121128,5
57601,121128,5
57602,121126,5
57599,121122,4
57598,121127,5
57591,121122,5
57592,121130,5
57604,121127,5
57607,121145,4
57608,121152,5
57616,121148,5
57621,121161,6
57628,121180,3
57619,121184,5
57632,121194,5
57626,121195,5
57637,121203,5
57644,121207,4
57644,121224,5
57648,121238,5
57645,121240,5
57659,121238,5
57665,121250,4
57670,121260,5
57661,121271,5
57678,121286,5
57683,121279,5
57679,121280,4
57660,121273,5
57673,121279,5
57690,121287,5
57679,121286,5
57658,121271,5
57674,121259,4
57666,121258,5
57662,121233,5
57669,121241,6
57665,121230,3
57665,121251,5
57662,121265,5
57691,121270,5
57678,121283,4
57679,121286,4
57670,121278,5
57698,121279,5
57688,121293,5
57685,121287,4
57678,121283,5
57688,121291,5
57692,121292,5
57692,121303,5
57690,121311,4
57688,121301,5
57690,121307,5
57693,121301,5
57689,121310,5
57700,121291,4
57693,121305,6
57697,121316,4
57697,121311,5
57698,121287,5
57694,121311,4
57685,121309,5
57700,121297,5
57687,121295,5
57684,121291,5
57680,121284,4
57676,121279,5
57682,121294,5
57682,121279,5
57680,121271,4
57677,121268,4
57671,121283,5
57667,121260,5
57672,121253,5
57669,121257,4
57667,121265,5
57674,121267,5
57682,121273,5
57670,121258,5
57668,121238,4
57655,121208,10
57637,121196,5
57633,121190,5
57635,121183,4
57634,121178,5
57635,121184,5
57627,121163,5
57628,121162,5
57624,121169,4
57626,121149,5
57619,121146,5
57623,121150,5
57621,121153,5
57614,121158,4
57616,121157,5
57613,121153,5
57620,121159,5
57628,121164,4
57622,121167,4
57630,121174,5
57635,121176,5
57630,121189,5
57637,121185,4
57640,121192,5
57636,121196,5
57636,121186,6
57631,121177,4
57634,121163,4
57635,121172,5
57629,121170,5
57628,121163,5
57626,121172,5
57628,121181,4
57638,121179,5
57628,121168,5
57630,121174,5
57625,121177,5
57627,121170,4
57616,121165,5
57618,121153,5
57614,121153,5
57622,121160,5
57624,121156,4
57628,121170,5
57627,121178,5
57637,121193,5
57652,121202,5
57657,121244,4
57682,121284,5
57695,121277,5
57676,121255,6
57655,121230,3
57643,121202,4
57647,121204,5
57648,121195,5
57646,121189,5
57629,121178,4
57621,121149,5
57616,121127,5
57598,121119,5
57612,121139,5
57618,121164,4
57636,121170,5
57626,121155,5
57623,121140,5
57621,121139,5
57616,121127,4
57603,121129,5
57621,121150,5
57618,121151,5
57609,121144,5
57610,121124,5
57605,121128,4
57601,121118,5
57601,121096,5
57589,121105,5
57581,121099,4
57589,121095,5
57572,121057,5
57550,121016,5
57526,120981,4
57505,120930,4
57486,120907,5
57478,120873,5
57453,120839,5
57455,120839,4
57453,120820,5
57446,120809,5
57428,120818,5
57445,120793,5
57437,120783,4
57422,120754,5
57402,120745,5
57410,120750,5
57419,120752,5
57408,120742,4
57412,120720,6
57401,120701,4
57388,120684,5
57372,120674,5
57384,120641,4
57352,120630,5
57352,120615,5
57336,120600,5
57343,120586,5
57318,120568,4
57323,120569,5
57322,120574,5
57319,120567,5
57322,120561,4
57318,120563,4
57317,120556,5
57310,120545,5
57307,120550,5
57308,120539,4
57309,120553,5
57320,120550,5
57323,120579,5
57325,120593,4
57338,120607,4
57335,120600,5
57353,120633,6
57368,120656,3
57373,120670,5
57375,120685,4
57376,120670,5
57381,120688,5
57377,120689,5
57385,120725,5
57387,120707,4
57397,120732,5
57402,120740,5
57406,120760,5
57409,120743,5
57410,120753,4
57413,120752,5
57405,120756,5
57409,120749,5
57414,120748,5
57411,120756,4
57423,120755,5
57405,120747,5
57412,120750,5
57414,120757,4
57411,120762,4
57417,120772,5
57426,120789,6
57431,120803,4
57430,120796,4
57428,120808,5
57430,120806,5
57431,120804,5
57432,120808,5
57434,120816,4
57440,120816,5
57444,120815,5
57445,120820,5
57451,120833,5
57456,120829,4
57448,120827,5
57443,120819,5
57444,120806,5
57438,120795,5
57428,120781,4
57414,120757,5
57412,120735,5
57395,120720,5
57385,120695,5
57381,120677,4
57375,120692,5
57379,120692,5
57378,120695,5
57390,120708,4
57381,120724,4
57392,120718,5
57400,120720,5
57402,120728,5
57400,120732,4
57394,120724,5
57399,120725,5
57398,120740,5
57401,120727,5
57406,120741,4
57410,120755,5
57418,120751,5
57428,120754,5
57414,120771,5
57425,120779,4
57431,120785,5
57419,120785,5
57437,120806,5
57434,120796,5
57437,120801,5
57436,120803,4
57433,120800,5
57442,120800,5
57442,120802,5
57438,120808,4
57449,120824,5
57443,120819,5
57443,120827,5
57448,120828,5
57442,120829,4
57449,120835,5
57449,120844,5
57469,120839,5
57464,120847,4
57461,120844,4
57463,120847,5
57472,120861,5
57468,120857,5
57463,120853,4
57458,120860,5
57466,120862,5
57459,120860,5
57467,120867,5
57474,120870,4
57474,120874,6
57469,120890,4
57478,120878,5
57476,120872,5
57467,120883,4
57472,120882,5
57468,120885,5
57480,120891,5
57463,120894,5
57491,120902,4
57491,120912,5
57485,120908,5
57472,120895,5
57479,120898,5
57485,120902,4
57483,120902,5
57489,120898,5
57476,120903,5
57478,120900,4
57481,120906,4
57507,120899,5
57484,120910,6
57486,120899,4
57488,120905,4
57506,120895,5
57483,120905,5
57484,120905,5
57477,120903,5
57490,120902,4
57478,120898,5
57486,120911,5
57487,120909,5
57484,120901,5
57495,120908,4
57490,120910,5
57491,120912,5
57492,120899,5
57488,120919,5
57492,120922,4
57496,120923,5
57491,120902,5
57502,120929,5
57503,120928,5
57505,120934,4
57504,120934,5
57496,120924,5
57497,120921,6
57490,120919,4
57494,120927,4
57487,120907,5
57497,120916,5
57495,120915,5
57495,120934,4
57489,120914,4
57500,120932,5
57492,120912,5
57496,120946,5
57505,120940,4
57501,120942,5
57499,120929,5
57504,120951,5
57508,120952,5
57511,120951,4
57500,120945,5
57506,120957,5
57506,120961,5
57506,120944,5
57505,120944,5
57507,120949,4
57510,120940,5
57505,120950,5
57513,120945,6
57511,120948,3
57515,120947,5
57513,120962,5
57516,120961,5
57514,120967,5
57511,120960,4
57523,120973,5
57525,120974,5
57525,120978,5
57525,120983,4
57527,120979,4
57526,120981,5
57532,120977,5
57522,120979,5
57534,120981,4
57519,120977,5
57526,120973,5
57516,120974,5
57519,120975,5
57526,120978,4
57524,120972,6
57517,120967,4
57509,120952,5
57514,120964,5
57503,120967,6
57518,120964,3
57514,120965,5
57514,120965,5
57525,120960,5
57509,120966,4
57526,120973,5
57526,120973,5
57518,120980,5
57523,120983,5
57526,120976,4
57529,120980,5
57521,120956,5
57502,120949,5
57501,120932,5
57485,120910,4
57477,120880,5
57478,120884,5
57473,120863,5
57453,120847,4
57449,120831,5
57448,120826,6
57445,120827,4
57449,120836,5
57459,120843,4
57452,120845,5
57463,120853,5
57464,120860,5
57460,120858,5
57462,120861,4
57470,120858,5
57463,120848,5
57459,120859,5
57462,120844,5
57457,120848,4
57459,120840,5
57453,120839,5
57444,120844,5
57447,120821,5
57439,120826,4
57443,120824,5
57435,120802,5
57436,120802,5
57431,120804,5
57425,120800,4
57423,120795,5
57434,120800,6
57433,120793,4
57427,120785,4
57416,120787,4
57437,120794,5
57434,120797,5
57428,120800,5
57414,120784,4
57426,120784,5
57422,120783,5
57421,120758,5
57401,120741,5
57402,120733,4
57395,120721,5
57390,120709,5
57395,120711,5
57386,120724,5
57386,120720,4
57394,120723,5
57400,120707,5
57389,120714,5
57393,120714,5
57384,120713,4
57395,120705,5
57389,120697,5
57383,120702,6
57385,120695,4
57386,120694,4
57381,120700,5
57380,120697,5
57372,120697,5
57372,120673,4
57378,120685,4
57369,120678,5
57369,120688,5
57371,120661,5
57367,120666,5
57369,120657,4
57361,120661,5
57371,120641,5
57364,120668,5
57359,120662,4
57360,120674,5
57359,120664,5
57358,120660,5
57359,120661,5
57359,120664,5
57364,120669,4
57364,120658,5
57355,120652,5
57361,120652,6
57354,120677,3
57356,120658,5
57359,120651,5
57354,120660,5
57363,120657,5
57364,120659,4
57360,120656,5
57365,120662,7
57358,120657,3
57358,120654,5
57364,120659,4
57364,120660,5
57361,120648,5
57354,120667,5
57365,120658,4
57369,120668,4
57368,120660,5
57368,120674,5
57370,120684,5
57369,120682,4
57374,120692,6
57390,120688,4
57381,120694,5
57375,120700,5
57382,120688,4
57378,120692,5
57382,120701,5
57380,120699,5
57379,120700,5
57381,120709,4
57394,120710,5
57392,120720,5
57397,120740,5
57402,120737,5
57408,120746,4
57405,120748,5
57404,120743,5
57396,120731,5
57385,120727,5
57387,120712,4
57381,120699,5
57372,120683,5
57369,120669,5
57362,120665,4
57362,120652,4
57369,120655,6
57358,120663,4
57366,120676,5
57369,120678,4
57381,120689,5
57381,120713,5
57386,120718,5
57396,120744,5
57393,120734,4
57400,120750,5
57399,120739,5
57412,120753,5
57416,120762,5
57412,120782,4
57424,120790,5
57423,120790,5
57433,120802,5
57436,120817,5
57434,120819,4
57436,120815,5
57444,120827,5
57453,120836,5
57446,120855,5
57461,120859,4
57461,120863,5
57459,120880,6
57471,120872,4
57472,120882,5
57478,120888,4
57483,120907,5
57477,120899,5
57488,120911,5
57499,120933,4
57488,120935,5
57500,120932,5
57493,120924,5
57490,120924,5
57493,120931,4
57499,120956,5
57503,120965,5
57516,120999,5
57534,121017,5
57543,121029,4
57554,121062,5
57546,121076,5
57562,121074,5
57567,121073,5
57563,121073,4
57552,121066,5
57572,121085,5
57568,121085,6
57571,121092,4
57548,121095,4
57581,121108,5
57585,121120,5
57589,121131,5
57591,121135,5
57595,121146,4
57603,121166,5
57594,121162,5
57621,121180,5
57614,121179,4
57603,121190,4
57623,121197,5
57645,121202,5
57625,121208,5
57629,121220,4
57634,121224,5
57650,121239,5
57637,121251,5
57650,121248,5
57645,121257,5
57660,121256,4
57662,121275,5
57658,121264,5
57659,121274,5
57666,121270,4
57673,121285,5
57669,121294,5
57677,121308,5
57676,121290,5
57677,121309,5
57672,121304,4
57674,121308,5
57669,121297,5
57679,121306,5
57669,121297,4
57672,121297,5
57669,121306,5
57672,121306,5
57679,121316,5
57683,121319,4
57681,121363,5
57693,121354,5
57692,121351,5
57696,121354,4
57697,121378,6
57698,121376,4
57703,121375,5
57713,121383,5
57703,121380,4
57718,121382,5
57714,121395,5
57716,121384,5
57718,121396,5
57724,121402,4
57718,121420,5
57730,121427,5
57729,121417,5
57723,121412,5
57725,121403,4
57712,121394,5
57701,121366,5
57685,121346,5
57671,121310,5
57668,121295,4
57659,121287,5
57645,121271,5
57647,121255,5
57640,121249,5
57641,121261,4
57643,121259,6
57645,121263,4
57636,121261,5
57647,121252,4
57641,121256,4
57634,121243,5
57634,121224,5
57625,121205,5
57613,121192,4
57607,121183,5
57608,121167,5
57597,121150,5
57590,121144,5
57581,121126,4
57576,121119,5
57567,121095,5
57557,121077,5
57550,121068,5
57548,121056,4
57542,121050,5
57540,121037,5
57540,121038,5
57536,121033,5
57526,121029,4
57538,121034,5
57534,121034,5
57532,121015,5
57524,121008,5
57531,121021,4
57526,121011,5
57526,121006,5
57519,120997,5
57509,120985,5
57505,120977,4
57499,120966,5
57498,120966,5
57502,120971,5
57506,120983,4
57512,120986,5
57507,120987,5
57508,120993,5
57513,121001,5
57512,121002,4
57520,120995,5
57520,121002,5
57505,120998,5
57511,120994,5
57516,120997,4
57513,120983,5
57506,120985,5
57512,120975,5
57505,120982,5
57508,120973,4
57510,120985,5
57513,120981,5
57513,120983,5
57518,120982,5
57507,120984,4
57501,120992,5
57508,120981,5
57513,120978,5
57505,120976,5
57503,120975,4
57501,120977,5
57488,120981,5
57506,120988,5
57512,120982,4
57509,120986,4
57486,120984,5
57518,120993,5
57514,120998,5
57508,120992,5
57498,120992,3
57513,120989,5
57510,120993,5
57507,120994,5
57517,120983,4
57512,120989,5
57508,120981,5
57503,120980,5
57521,120963,5
57496,120962,4
57499,120954,5
57492,120964,5
57516,120952,5
57498,120957,5
57505,120961,4
57501,120963,5
57508,120960,5
57504,120966,5
57501,120962,5
57499,120982,4
57506,120970,6
57512,120990,4
57524,121011,5
57521,121009,4
57527,121012,6
57531,121026,3
57520,121012,5
57521,121008,5
57517,120988,4
57512,120986,5
57506,120959,5
57497,120943,5
57477,120925,5
57481,120928,4
57477,120915,5
57472,120915,5
57471,120927,5
57477,120919,5
57489,120925,4
57496,120951,5
57497,120983,5
57510,120978,5
57511,120984,5
57514,121008,4
57520,121019,5
57531,121013,11
57543,121033,7
57543,121033,5
57534,121023,5
57530,121024,10
57522,121047,5
57526,121022,7
57521,120956,8
57522,121015,9
57522,121015,10
57529,121012,5
57539,121039,7
57546,121044,8
57542,121035,5
57567,121076,7
57567,121076,8
57541,121076,5
57562,121078,7
57561,121083,8
57569,121084,5
57575,121078,7
57580,121119,8
57580,121119,5
57578,121137,7
57588,121141,8
57590,121150,5
57589,121145,7
57593,121091,8
57606,121181,9
57606,121181,8
57608,121178,5
57607,121193,7
57639,121185,8
57605,121199,5
57616,121197,7
57629,121223,8
57629,121223,5
57635,121213,7
57632,121231,8
57628,121241,5
57635,121224,7
57625,121227,8
57649,121248,7
57649,121248,5
57641,121257,8
57653,121278,7
57652,121257,5
57653,121258,8
57654,121248,7
57657,121257,10
57657,121257,7
57657,121268,5
57665,121281,8
57625,121281,5
57650,121286,7
57668,121287,5
57659,121265,8
57659,121265,7
57685,121263,8
57662,121254,7
57653,121253,7
57630,121247,8
57664,121282,7
57664,121282,5
57676,121314,8
57674,121317,7
57680,121316,5
57679,121306,10
57687,121304,9
57687,121304,8
57680,121289,7
57688,121296,9
57646,121233,10
57646,121233,5
57652,121233,5
57642,121233,10
57640,121224,5
57640,121229,5
57607,121175,10
57607,121175,5
57610,121163,5
57610,121140,10
57598,121145,5
57584,121129,5
57600,121114,10
57608,121076,5
57574,121064,7
57438,120839,8
57438,120839,5
57428,120740,7
57426,120786,8
57406,120778,9
57429,120799,10
57429,120799,5
57428,120811,7
57434,120827,8
57437,120823,5
57482,120914,12
57482,120914,8
57492,120959,7
57496,120958,8
57508,120965,5
57516,120961,7
57559,121059,8
57559,121059,5
57550,121059,7
57558,121066,8
57566,121079,5
57565,121088,1
57573,121047,4
57594,121119,5
57604,121166,5
57610,121177,5
57633,121202,4
57636,121209,5
57631,121226,5
57644,121233,5
57646,121237,5
57651,121238,4
57656,121250,5
57663,121260,5
57652,121262,6
57668,121280,3
57670,121271,5
57667,121281,5
57666,121267,5
57660,121273,5
57657,121252,4
57643,121226,5
57645,121220,5
57639,121216,5
57636,121220,5
57629,121214,4
57631,121208,5
57628,121213,5
57640,121227,5
57649,121239,5
57654,121236,4
57656,121252,5
57662,121253,5
57663,121269,5
57666,121261,5
57675,121285,5
57675,121283,4
57678,121289,5
57691,121311,5
57691,121318,4
57692,121317,4
57685,121324,5
57699,121333,5
57697,121323,5
57690,121323,4
57691,121314,5
57688,121299,5
57676,121310,5
57681,121300,5
57680,121297,4
57688,121318,5
57687,121311,5
57694,121319,5
57708,121330,5
57711,121355,4
57714,121346,5
57714,121351,5
57719,121363,5
57718,121364,5
57713,121353,4
57712,121359,6
57715,121354,4
57710,121342,5
57705,121357,5
57720,121363,4
57719,121380,5
57726,121398,5
57731,121400,5
57734,121402,4
57726,121401,4
57730,121407,5
57716,121408,5
57735,121406,5
57737,121406,4
57734,121406,5
57720,121412,5
57738,121401,5
57746,121406,5
57735,121407,4
57736,121416,5
57734,121415,5
57737,121412,6
57740,121412,4
57754,121405,4
57743,121414,5
57735,121409,6
57744,121416,4
57757,121423,5
57738,121415,4
57736,121402,5
57743,121411,5
57753,121414,5
57736,121407,5
57731,121398,4
57737,121411,5
57745,121411,5
57735,121405,5
57732,121400,5
57736,121378,4
57721,121370,5
57710,121369,5
57707,121359,5
57705,121355,4
57705,121330,4
57703,121347,5
57695,121336,5
57699,121332,5
57696,121307,4
57694,121322,5
57696,121319,5
57691,121304,5
57681,121304,5
57684,121312,4
57691,121309,5
57692,121310,5
57694,121322,5
57684,121301,5
57688,121304,4
57694,121304,5
57679,121318,5
57669,121283,5
57674,121279,5
57674,121270,4
57664,121263,5
57652,121236,5
57646,121209,5
57633,121197,5
57623,121188,4
57618,121177,5
57625,121187,5
57629,121185,5
57637,121209,5
57642,121195,4
57646,121208,5
57642,121227,5
57643,121220,5
57643,121214,4
57638,121220,5
57648,121220,5
57647,121222,5
57651,121231,5
57645,121224,4
57652,121217,5
57651,121230,5
57650,121226,5
57638,121207,5
57636,121204,4
57639,121202,5
57639,121204,5
57624,121200,5
57633,121203,5
57629,121196,4
57637,121193,5
57633,121186,5
57632,121194,5
57624,121190,5
57630,121187,5
57630,121197,4
57627,121201,5
57622,121179,5
57637,121181,5
57622,121172,4
57623,121164,5
57623,121157,5
57613,121159,5
57613,121155,4
57614,121161,4
57603,121158,5
57615,121162,5
57610,121155,5
57616,121161,4
57608,121143,5
57610,121140,5
57613,121151,5
57604,121131,5
57596,121130,4
57591,121119,5
57591,121123,5
57594,121110,5
57587,121105,5
57582,121093,4
57581,121090,6
57569,121085,4
57577,121085,5
57575,121087,5
57572,121092,4
57572,121081,5
57570,121074,5
57569,121069,5
57573,121074,5
57560,121067,4
57569,121064,5
57567,121060,5
57566,121053,5
57562,121069,4
57565,121077,4
57563,121073,5
57571,121065,5
57566,121076,5
57563,121068,4
57570,121076,5
57573,121075,5
57560,121071,5
57569,121083,4
57572,121055,4
57567,121069,5
57557,121060,5
57561,121066,5
57548,121055,5
57557,121043,4
57551,121040,5
57545,121041,5
57535,121035,5
57550,121027,5
57541,121031,4
57550,121022,5
57527,121030,5
57552,121036,5
57543,121041,5
57553,121032,4
57551,121036,5
57551,121040,5
57549,121040,5
57548,121024,5
57555,121021,4
57543,121015,5
57537,121017,5
57541,120998,6
57554,120996,3
57527,120997,5
57526,120987,5
57524,120988,5
57539,120991,5
57530,120987,4
57525,120998,5
57524,121003,5
57526,120993,5
57536,121006,5
57538,121005,4
57527,121004,5
57540,121005,5
57537,121011,5
57538,121008,5
57532,121001,4
57540,120989,5
57524,120984,5
57522,120989,5
57516,120979,5
57518,120958,5
57523,120977,4
57523,120986,5
57525,120987,5
57523,120987,6
57526,120981,3
57521,120983,5
57527,120999,5
57531,121013,5
57524,120999,4
57528,121002,4
57539,121009,5
57548,121055,5
57558,121049,5
57546,121051,4
57556,121063,5
57568,121080,5
57565,121056,5
57560,121045,5
57552,121037,4
57545,121021,5
57540,121017,5
57531,120995,5
57521,120989,5
57515,120981,4
57508,120964,6
57519,120956,4
57512,120968,5
57515,120977,5
57524,120988,6
57529,120999,3
57534,121007,5
57532,121018,5
57535,121013,5
57540,121013,4
57538,121003,5
57533,121001,5
57533,121002,5
57532,120995,4
57531,120985,4
57532,121000,5
57535,120996,5
57519,120993,5
57528,120990,4
57528,120989,5
57526,120990,5
57530,121003,5
57529,120999,5
57523,120980,4
57518,120984,5
57523,120985,6
57519,120971,4
57528,120983,5
57519,120979,4
57527,120995,5
57524,120990,5
57528,121014,5
57540,121010,5
57535,121016,4
57536,121014,5
57539,121008,5
57535,121003,5
57522,120988,5
57520,120988,4
57525,120989,5
57521,120988,5
57530,120992,5
57529,120996,5
57532,121000,4
57539,120997,5
57533,120990,5
57533,121005,5
57525,121002,4
57532,120998,4
57537,121010,5
57543,121018,6
57546,121037,4
57549,121028,4
57545,121041,5
57555,121034,5
57544,121043,5
57555,121044,5
57550,121041,4
57553,121034,5
57544,121030,5
57550,121032,5
57548,121024,5
57540,121024,4
57530,121009,5
57537,121010,5
57530,120999,5
57529,120991,5
57530,120988,4
57530,120995,5
57522,120981,5
57527,120977,5
57524,120982,5
57519,120978,4
57525,120987,5
57528,120981,5
57524,120981,6
57514,120978,3
57518,120989,4
57528,120985,5
57524,120997,5
57510,120994,5
57520,120989,4
57523,120989,5
57524,120982,5
57500,120982,5
57517,120975,5
57514,120972,4
57515,120962,5
57524,120962,5
57508,120956,5
57507,120940,5
57505,120940,4
57519,120938,5
57509,120946,5
57504,120942,5
57498,120940,5
57519,120934,5
57506,120938,4
57500,120943,5
57508,120935,5
57508,120950,6
57495,120936,3
57505,120944,5
57498,120937,5
57495,120928,5
57501,120936,5
57497,120915,4
57492,120918,5
57480,120905,5
57479,120909,5
57480,120906,5
57479,120906,4
57476,120874,5
57469,120889,5
57477,120888,5
57470,120881,4
57470,120873,5
57464,120878,5
57461,120868,5
57467,120872,5
57473,120881,4
57464,120871,6
57468,120875,4
57466,120878,5
57470,120888,5
57475,120883,4
57483,120898,5
57486,120906,5
57479,120916,5
57487,120899,8
57483,120896,3
57484,120883,3
57468,120897,5
57458,120850,5
57454,120840,5
57439,120809,4
57422,120785,5
57419,120786,5
57418,120778,5
57410,120768,4
57405,120755,4
57397,120756,5
57410,120762,5
57408,120760,5
57415,120765,4
57413,120768,5
57416,120772,6
57420,120765,4
57413,120765,5
57412,120775,4
57412,120761,5
57421,120766,10
57419,120765,9
57416,120752,5
57396,120728,8
57396,120728,5
57377,120724,5
57363,120724,8
57379,120719,5
57391,120716,5
57389,120725,8
57385,120724,5
57386,120725,5
57389,120730,5
57395,120731,8
57395,120737,5
57403,120747,5
57376,120697,8
57376,120697,5
57347,120684,5
57359,120668,5
57355,120670,8
57356,120678,5
57357,120661,5
57362,120653,8
57366,120670,5
57380,120678,5
57378,120691,8
57359,120675,5
57364,120674,5
57372,120688,5
57384,120719,8
57384,120719,5
57392,120759,5
57390,120723,8
57384,120678,3
57386,120714,0
57420,120722,4
57383,120732,5
57396,120725,5
57395,120728,4
57392,120726,5
57387,120718,5
57392,120725,5
57392,120723,4
57389,120713,4
57392,120713,5
57384,120712,5
57381,120708,5
57378,120694,4
57376,120688,5
57373,120687,5
57372,120686,5
57369,120671,5
57365,120669,4
57351,120647,5
57356,120647,5
57347,120649,5
57343,120624,5
57341,120630,5
57346,120624,4
57343,120621,5
57341,120625,5
57336,120618,5
57340,120620,4
57338,120634,5
57342,120629,5
57345,120637,5
57341,120630,5
57339,120628,4
57343,120632,5
57344,120641,5
57353,120643,5
57346,120647,4
57354,120640,4
57355,120644,5
57355,120641,5
57359,120657,5
57354,120655,4
57351,120660,5
57351,120664,5
57354,120663,5
57355,120673,5
57361,120666,4
57364,120679,6
57365,120671,4
57362,120672,5
57360,120685,5
57371,120678,4
57378,120699,5
57377,120714,5
57382,120724,5
57396,120733,5
57405,120756,4
57412,120767,5
57408,120777,5
57419,120786,5
57420,120801,5
57432,120810,4
57436,120829,5
57443,120844,5
57447,120860,5
57459,120867,5
57449,120871,4
57446,120853,5
57438,120834,5
57437,120832,5
57443,120823,4
57426,120798,5
57416,120790,6
57422,120790,4
57418,120795,5
57418,120795,4
57431,120804,5
57432,120824,5
57430,120835,5
57442,120859,5
57466,120875,4
57471,120898,5
57469,120913,5
57467,120906,5
57478,120923,5
57483,120924,4
57487,120936,5
57482,120932,5
57491,120938,5
57492,120950,5
57495,120961,4
57496,120963,5
57496,120969,5
57516,120961,5
57509,120977,5
57503,120989,4
57521,120995,5
57521,120994,5
57525,121004,5
57528,121019,4
57535,121019,4
57533,121023,5
57534,121035,5
57546,121052,5
57538,121059,4
57536,121057,5
57553,121073,5
57552,121077,5
57554,121065,5
57548,121074,4
57548,121066,5
57545,121066,5
57543,121053,5
57547,121055,5
57547,121059,4
57557,121071,5
57559,121079,5
57557,121087,5
57563,121091,5
57562,121113,3
57579,121112,5
57580,121111,5
57575,121138,5
57580,121133,5
57582,121139,4
57592,121138,5
57584,121135,5
57595,121151,5
57597,121146,4
57584,121151,4
57600,121158,5
57601,121147,5
57604,121157,5
57599,121152,4
57585,121149,5
57591,121140,5
57581,121137,5
57581,121140,5
57585,121136,4
57581,121136,5
57591,121129,4
57583,121132,5
57577,121121,5
57578,121126,6
57577,121111,3
57569,121108,5
57561,121088,5
57559,121076,5
57555,121066,4
57542,121047,5
