RED,IR,EKG,TIME
40626,89562,183354
40626,89559,1
40617,89558,3
37715,82846,5
37711,82834,5
37700,82833,4
37710,82832,5
37706,82829,5
37697,82817,5
37709,82830,5
37702,82821,4
37700,82831,5
37703,82818,5
37700,82821,5
37703,82824,5
37695,82818,4
37700,82828,5
37701,82815,6
37694,82812,4
37694,82817,4
37692,82804,4
37692,82807,5
37689,82797,5
37680,82787,5
37672,82777,4
37677,82778,5
37667,82778,5
37676,82767,5
37665,82766,5
37663,82771,4
37662,82771,5
37672,82774,5
37668,82782,5
37671,82784,5
37670,82783,4
37666,82780,5
37672,82784,5
37669,82787,5
37666,82783,5
37672,82780,4
37670,82779,5
37669,82769,5
37670,82774,6
37670,82771,3
37662,82769,4
37669,82767,5
37663,82767,5
37649,82762,5
37657,82764,4
37663,82764,5
37657,82766,5
37655,82764,5
37663,82764,5
37660,82757,4
37664,82765,5
37664,82764,5
37660,82762,5
37659,82764,5
37659,82764,4
37656,82760,5
37662,82770,5
37658,82771,5
37659,82766,5
37656,82747,5
37651,82763,4
37658,82755,5
37654,82759,5
37645,82762,4
37650,82752,4
37655,82765,5
37656,82764,5
37655,82759,5
37651,82769,4
37660,82771,5
37650,82772,5
37660,82764,5
37652,82774,5
37658,82773,4
37650,82767,5
37656,82768,5
37658,82765,5
37658,82765,5
37650,82772,4
37658,82778,5
37651,82780,5
37659,82769,5
37661,82778,5
37658,82784,4
37656,82775,6
37660,82778,4
37659,82774,5
37659,82779,5
37657,82775,4
37654,82769,5
37658,82770,5
37652,82783,5
37657,82768,4
37659,82771,5
37646,82765,5
37653,82771,5
37649,82768,5
37660,82769,4
37654,82766,5
37662,82775,5
37647,82766,5
37647,82765,5
37655,82774,4
37651,82766,5
37656,82764,5
37650,82776,5
37644,82774,5
37652,82767,4
37664,82773,5
37659,82779,6
37655,82775,4
37645,82773,5
37652,82771,4
37654,82766,5
37652,82773,5
37647,82766,5
37655,82762,4
37654,82766,4
37648,82774,5
37656,82777,5
37653,82762,5
37641,82769,4
37650,82776,5
37653,82773,5
37651,82758,5
37652,82760,5
37647,82761,5
37660,82774,4
37653,82772,5
37648,82760,5
37661,82765,6
37648,82773,3
37659,82786,5
37655,82782,5
37651,82778,5
37658,82782,5
37659,82795,4
37658,82788,5
37659,82783,5
37654,82785,5
37656,82782,4
37657,82789,4
37655,82785,5
37654,82783,5
37654,82774,5
37647,82775,4
37653,82775,5
37647,82772,5
37644,82765,5
37641,82761,5
37642,82758,4
37640,82759,5
37638,82751,5
37634,82751,5
37636,82745,5
37636,82742,5
37639,82749,4
37645,82749,5
37657,82765,5
37646,82766,5
37639,82767,4
37643,82774,5
37648,82770,5
37651,82767,5
37645,82759,5
37644,82767,4
37642,82768,5
37640,82754,5
37634,82759,5
37649,82752,4
37649,82762,5
37642,82762,5
37645,82746,5
37641,82757,5
37638,82759,4
37639,82752,5
37640,82753,5
37637,82754,5
37630,82754,5
37632,82750,4
37644,82755,6
37638,82757,4
37636,82760,5
37635,82751,5
37642,82756,4
37637,82755,5
37635,82750,5
37635,82763,5
37642,82754,5
37633,82744,4
37638,82747,5
37635,82753,5
37628,82757,5
37634,82755,4
37640,82753,4
37639,82760,5
37644,82751,5
37644,82772,5
37639,82767,4
37646,82765,5
37646,82767,5
37646,82775,5
37645,82772,5
37644,82763,4
37639,82762,5
37645,82767,5
37634,82760,5
37637,82763,5
37644,82763,4
37642,82768,5
37638,82766,5
37646,82772,5
37638,82775,5
37638,82768,4
37644,82773,5
37640,82767,5
37642,82769,5
37644,82770,5
37643,82768,4
37643,82769,5
37649,82775,5
37642,82771,5
37641,82768,4
37643,82763,4
37637,82760,5
37644,82762,5
37635,82765,5
37637,82763,3
37636,82763,5
37626,82767,5
37642,82760,5
37638,82758,5
37632,82754,4
37627,82754,5
37637,82742,5
37636,82744,5
37632,82756,5
37637,82765,4
37646,82753,5
37635,82753,5
37630,82743,5
37634,82750,5
37636,82747,4
37632,82749,5
37631,82745,5
37641,82746,5
37622,82746,4
37632,82738,5
37627,82747,4
37637,82732,5
37631,82741,5
37631,82741,6
37634,82748,3
37629,82751,5
37633,82744,5
37621,82733,5
37628,82740,4
37628,82738,5
37630,82731,5
37622,82725,5
37616,82713,5
37614,82697,4
37602,82708,5
37610,82705,5
37610,82701,5
37612,82696,5
37610,82700,4
37605,82706,5
37615,82711,5
37615,82716,5
37616,82711,4
37617,82716,4
37616,82716,6
37612,82714,4
37620,82717,5
37614,82715,4
37616,82705,7
37611,82717,3
37622,82705,5
37614,82709,5
37606,82710,4
37604,82713,5
37611,82706,5
37625,82706,5
37607,82702,5
37609,82702,4
37604,82698,5
37614,82699,5
37610,82716,5
37612,82713,5
37614,82708,4
37616,82708,5
37612,82713,5
37615,82710,5
37624,82711,5
37606,82713,4
37608,82704,5
37617,82711,6
37612,82711,4
37612,82701,4
37605,82703,4
37604,82698,5
37610,82703,5
37610,82707,5
37607,82705,4
37605,82698,5
37612,82709,5
37609,82706,5
37611,82699,5
37615,82709,4
37615,82712,5
37609,82708,5
37614,82701,5
37614,82714,5
37607,82709,4
37615,82708,5
37604,82706,5
37610,82702,5
37615,82709,5
37608,82710,4
37606,82716,5
37616,82718,5
37616,82712,6
37611,82714,4
37612,82711,4
37606,82716,5
37616,82706,5
37624,82714,5
37611,82722,4
37603,82707,5
37612,82715,5
37620,82717,5
37611,82706,5
37616,82715,4
37605,82715,5
37620,82717,5
37610,82711,5
37608,82712,5
37612,82712,4
37614,82716,5
37619,82715,5
37611,82713,5
37621,82718,5
37616,82717,5
37616,82726,4
37619,82718,5
37610,82720,5
37625,82713,6
37622,82718,3
37615,82722,5
37609,82718,5
37617,82720,5
37621,82716,4
37619,82718,4
37615,82720,5
37619,82711,5
37617,82719,5
37617,82715,4
37614,82714,5
37610,82704,5
37617,82708,5
37609,82705,5
37609,82687,4
37610,82690,5
37602,82691,5
37610,82687,5
37604,82708,5
37601,82697,4
37604,82708,6
37606,82708,4
37600,82712,5
37616,82704,5
37614,82713,4
37615,82710,5
37611,82714,5
37619,82708,5
37613,82717,5
37613,82721,4
37619,82714,5
37618,82718,5
37618,82726,5
37618,82722,4
37626,82731,5
37623,82717,5
37614,82721,5
37616,82721,5
37620,82726,4
37613,82730,5
37609,82728,5
37619,82729,5
37627,82713,5
37617,82725,4
37625,82727,5
37618,82728,6
37624,82739,4
37625,82729,5
37631,82746,4
37633,82747,5
37629,82740,5
37623,82746,5
37631,82737,5
37624,82747,4
37628,82733,5
37638,82758,5
37622,82762,5
37642,82767,4
37637,82771,4
37638,82762,5
37633,82770,5
37642,82773,5
37639,82766,4
37635,82774,5
37639,82778,5
37637,82790,5
37642,82781,5
37644,82780,4
37643,82783,5
37642,82792,5
37641,82801,6
37656,82799,4
37649,82800,4
37652,82805,5
37652,82808,5
37650,82803,5
37642,82797,5
37659,82801,4
37652,82808,5
37655,82811,5
37665,82819,5
37652,82818,5
37664,82810,4
37658,82807,5
37665,82807,5
37652,82809,5
37653,82812,4
37654,82823,5
37657,82827,5
37654,82818,5
37657,82819,5
37665,82823,5
37665,82817,4
37669,82823,5
37663,82829,5
37664,82831,5
37668,82832,4
37665,82828,5
37668,82833,5
37662,82829,5
37661,82828,5
37666,82829,4
37666,82845,5
37671,82833,5
37665,82833,5
37670,82848,5
37667,82840,4
37669,82843,5
37660,82828,5
37662,82840,5
37667,82834,4
37660,82843,4
37659,82838,5
37664,82832,5
37666,82831,5
37661,82820,4
37663,82812,6
37659,82820,4
37654,82810,5
37659,82818,5
37660,82825,4
37671,82827,5
37664,82838,5
37661,82839,5
37670,82829,5
37676,82842,4
37663,82843,5
37667,82842,5
37673,82848,5
37665,82843,5
37674,82841,4
37677,82853,5
37669,82857,5
37680,82861,5
37680,82860,5
37685,82856,4
37683,82868,5
37684,82868,5
37677,82861,5
37684,82859,4
37680,82859,4
37680,82859,6
37674,82862,4
37682,82866,5
37674,82864,4
37674,82863,5
37681,82855,5
37677,82872,5
37677,82863,5
37682,82864,4
37682,82872,5
37679,82872,5
37686,82874,5
37686,82874,5
37688,82863,4
37677,82870,5
37675,82869,5
37682,82871,5
37680,82867,5
37680,82869,4
37681,82868,5
37683,82872,5
37687,82875,5
37686,82881,4
37686,82871,4
37685,82879,5
37690,82880,6
37688,82879,4
37683,82875,4
37683,82872,5
37688,82877,5
37692,82883,5
37691,82890,5
37686,82882,4
37689,82876,5
37689,82889,5
37683,82873,5
37692,82884,5
37701,82885,4
37696,82885,5
37696,82887,5
37690,82889,5
37695,82877,5
37691,82883,4
37690,82890,5
37702,82884,5
37694,82890,5
37693,82884,5
37699,82898,4
37689,82891,5
37695,82891,5
37702,82890,5
37693,82893,4
37694,82899,4
37704,82899,5
37701,82895,5
37698,82895,5
37697,82900,5
37697,82905,4
37698,82906,5
37695,82912,5
37703,82917,5
37708,82913,4
37707,82921,5
37700,82919,5
37704,82922,5
37712,82924,5
37712,82935,4
37712,82937,5
37714,82914,5
37719,82920,5
37711,82923,5
37713,82932,5
37717,82930,4
37709,82924,5
37699,82934,5
37706,82931,5
37704,82925,4
37706,82919,5
37703,82910,5
37700,82911,5
37698,82899,4
37698,82885,5
37696,82899,5
37702,82901,5
37694,82907,5
37709,82915,4
37701,82922,5
37705,82926,5
37701,82917,5
37712,82917,5
37702,82926,4
37711,82929,5
37708,82923,5
37713,82931,5
37709,82933,5
37719,82932,4
37714,82925,6
37716,82938,4
37714,82929,5
37713,82936,5
37714,82932,4
37715,82929,5
37710,82927,5
37716,82936,5
37710,82936,4
37715,82934,4
37714,82931,5
37711,82937,5
37714,82931,5
37719,82932,4
37712,82934,5
37720,82948,5
37718,82946,5
37716,82938,5
37719,82936,4
37719,82958,5
37716,82940,5
37719,82943,6
37718,82945,4
37728,82948,4
37718,82951,5
37720,82955,5
37724,82949,5
37723,82950,5
37722,82965,4
37720,82963,5
37734,82967,5
37721,82961,5
37722,82967,5
37726,82967,4
37736,82964,5
37734,82969,5
37732,82971,5
37736,82967,4
37733,82971,4
37733,82975,5
37735,82976,5
37732,82975,5
37736,82974,5
37737,82977,4
37737,82979,5
37740,82985,5
37739,82974,6
37744,82983,3
37731,82980,5
37737,82987,5
37738,82982,5
37730,82974,5
37738,82977,4
37733,82979,5
37738,82975,5
37733,82980,5
37730,82980,5
37737,82981,4
37737,82973,5
37726,82970,5
37729,82967,5
37733,82977,5
37731,82967,4
37734,82966,5
37726,82968,5
37736,82968,5
37724,82965,4
37724,82969,6
37731,82973,4
37730,82977,5
37725,82973,5
37731,82973,6
37731,82973,3
37731,82969,5
37733,82973,5
37739,82974,5
37733,82974,4
37737,82978,5
37733,82985,5
37731,82976,5
37733,82979,5
37737,82980,4
37741,82970,5
37729,82980,5
37737,82970,5
37731,82963,5
37727,82964,4
37732,82962,5
37732,82962,5
37729,82962,5
37721,82957,4
37724,82944,4
37722,82944,6
37709,82930,4
37708,82930,5
37710,82913,4
37709,82918,5
37705,82909,5
37695,82924,5
37709,82911,5
37719,82923,4
37714,82936,8
37712,82928,2
37709,82939,5
37695,82935,5
37712,82924,4
37708,82925,5
37716,82941,5
37717,82933,5
37714,82937,5
37706,82932,4
37709,82925,5
37711,82934,5
37710,82932,5
37710,82934,5
37704,82938,4
37704,82937,5
37710,82928,6
37710,82927,4
37710,82920,4
37711,82926,4
37706,82914,5
37709,82917,5
37705,82925,5
37701,82922,4
37705,82927,5
37698,82929,5
37711,82930,5
37712,82929,5
37706,82923,4
37702,82921,5
37701,82920,5
37697,82912,5
37699,82927,5
37711,82928,4
37701,82919,5
37707,82927,5
37703,82935,5
37715,82931,5
37707,82924,4
37710,82928,5
37708,82932,5
37700,82932,6
37710,82933,4
37705,82932,4
37712,82922,5
37709,82935,5
37714,82926,5
37707,82935,4
37712,82935,5
37705,82935,5
37713,82936,5
37707,82931,5
37716,82947,4
37703,82935,5
37712,82931,5
37706,82936,5
37711,82928,5
37704,82935,4
37708,82929,5
37708,82932,5
37705,82930,5
37711,82929,5
37707,82922,5
37706,82921,4
37711,82916,5
37704,82924,5
37707,82925,6
37708,82924,3
37702,82910,5
37702,82905,5
37701,82912,5
37698,82916,4
37698,82902,4
37700,82901,5
37699,82903,5
37694,82902,5
37694,82897,4
37692,82905,5
37697,82902,5
37698,82899,5
37697,82901,5
37699,82894,4
37691,82891,5
37700,82899,5
37697,82908,5
37702,82888,5
37694,82899,4
37689,82895,6
37689,82899,4
37698,82895,5
37700,82900,5
37696,82898,4
37688,82900,5
37694,82898,5
37692,82899,5
37685,82885,5
37689,82897,4
37696,82887,5
37686,82891,5
37686,82890,5
37692,82886,4
37697,82885,4
37684,82892,5
37680,82895,5
37682,82883,5
37694,82893,4
37690,82892,5
37700,82889,5
37689,82884,5
37688,82887,5
37691,82889,4
37700,82887,5
37685,82888,6
37686,82888,4
37695,82894,5
37701,82889,4
37689,82887,5
37690,82889,5
37687,82880,5
37687,82872,5
37674,82878,4
37686,82869,5
37687,82876,5
37677,82873,5
37677,82874,5
37692,82870,4
37685,82877,5
37683,82875,5
37686,82868,5
37685,82869,5
37679,82877,4
37686,82862,5
37685,82867,5
37683,82869,5
37673,82868,4
37679,82873,5
37681,82875,5
37688,82869,6
37685,82870,4
37671,82866,4
37673,82867,5
37677,82871,5
37679,82864,5
37682,82865,5
37676,82864,4
37677,82858,5
37676,82875,5
37681,82868,5
37679,82860,5
37672,82867,4
37676,82872,5
37678,82859,5
37672,82866,5
37678,82857,5
37681,82872,4
37680,82872,5
37678,82863,5
37678,82877,5
37682,82861,5
37679,82858,4
37666,82848,5
37669,82849,5
37664,82842,5
37665,82839,4
37656,82841,5
37657,82823,5
37655,82829,5
37650,82811,5
37655,82809,4
37649,82819,5
37658,82816,5
37650,82818,5
37670,82826,5
37661,82826,4
37662,82832,5
37659,82830,5
37667,82833,5
37659,82826,5
37656,82824,4
37654,82825,5
37666,82825,5
37655,82824,5
37662,82823,4
37658,82838,5
37654,82831,4
37662,82815,5
37658,82823,5
37661,82816,4
37650,82810,5
37651,82809,5
37645,82812,5
37649,82809,5
37652,82804,4
37649,82814,5
37654,82807,5
37646,82806,5
37652,82803,5
37650,82806,4
37655,82808,5
37650,82796,5
37654,82810,5
37646,82805,5
37655,82810,4
37655,82799,5
37650,82798,5
37647,82794,5
37645,82789,5
37641,82798,4
37640,82796,6
37648,82796,4
37643,82792,5
37647,82792,4
37647,82801,4
37639,82789,5
37642,82790,5
37651,82804,5
37656,82791,4
37649,82799,5
37646,82799,5
37650,82802,5
37647,82796,5
37647,82798,4
37648,82802,5
37647,82797,5
37654,82793,5
37643,82802,5
37646,82802,4
37658,82805,5
37651,82802,5
37645,82804,5
37649,82799,5
37649,82799,4
37649,82807,5
37650,82799,6
37647,82794,4
37646,82800,5
37645,82798,4
37648,82801,5
37646,82793,5
37646,82798,5
37639,82799,4
37642,82796,4
37650,82796,5
37648,82789,5
37646,82793,5
37639,82787,4
37641,82790,5
37648,82793,5
37651,82794,5
37637,82791,5
37638,82785,5
37635,82780,4
37646,82786,5
37631,82784,5
37640,82781,6
37633,82789,3
37641,82794,5
37644,82779,5
37640,82788,5
37639,82788,5
37643,82784,4
37643,82779,5
37637,82785,5
37635,82781,5
37639,82774,5
37635,82783,4
37635,82782,5
37642,82773,5
37646,82787,5
37639,82779,4
37639,82785,5
37639,82782,5
37635,82779,5
37637,82776,5
37634,82780,5
37629,82773,4
37627,82770,5
37631,82765,5
37619,82758,5
37632,82754,5
37621,82755,4
37627,82753,5
37612,82745,5
37612,82733,5
37614,82736,4
37617,82725,5
37610,82728,5
37614,82734,5
37618,82739,5
37613,82737,4
37617,82735,5
37618,82745,5
37615,82736,5
37615,82737,4
37608,82737,4
37613,82744,5
37619,82745,5
37616,82743,5
37619,82746,4
37620,82738,5
37621,82736,6
37619,82740,4
37615,82735,5
37622,82736,4
37616,82735,7
37616,82746,3
37618,82736,5
37615,82738,5
37613,82732,4
37618,82741,5
37616,82741,5
37614,82747,5
37618,82744,5
37618,82729,4
37619,82742,5
37620,82741,5
37619,82745,5
37622,82749,5
37620,82745,4
37614,82740,5
37623,82749,5
37614,82737,5
37617,82738,4
37622,82739,4
37612,82740,5
37623,82744,6
37621,82738,4
37615,82745,4
37622,82747,5
37623,82743,5
37617,82743,5
37622,82749,5
37624,82741,4
37619,82745,5
37617,82742,5
37631,82743,5
37622,82740,5
37623,82740,4
37620,82751,5
37622,82747,5
37625,82733,5
37613,82748,5
37621,82747,4
37626,82741,5
37615,82736,5
37622,82741,5
37626,82748,5
37619,82742,4
37611,82746,5
37616,82740,5
37626,82744,6
37623,82740,3
37610,82728,5
37617,82733,5
37617,82743,5
37611,82731,5
37614,82732,4
37613,82741,5
37625,82736,5
37611,82736,5
37610,82735,5
37615,82737,4
37612,82739,5
37612,82732,5
37611,82734,5
37614,82744,5
37622,82743,4
37616,82738,5
37614,82741,5
37614,82736,5
37625,82742,5
37617,82749,5
37616,82744,4
37616,82740,5
37619,82744,5
37620,82745,6
37620,82744,3
37612,82741,5
37615,82736,5
37619,82742,5
37615,82741,4
37609,82741,5
37616,82737,5
37626,82743,5
37623,82735,5
37622,82740,4
37617,82736,5
37616,82740,5
37616,82737,5
37626,82746,5
37622,82735,4
37617,82743,5
37615,82744,5
37623,82736,5
37610,82731,5
37613,82732,4
37615,82726,6
37611,82733,4
37613,82728,5
37598,82716,5
37613,82708,4
37602,82706,5
37606,82713,5
37602,82717,5
37613,82715,4
37602,82716,5
37606,82713,5
37618,82720,5
37605,82725,5
37600,82722,4
37604,82708,5
37610,82720,5
37608,82719,5
37610,82724,5
37614,82727,4
37611,82717,5
37605,82713,5
37607,82715,5
37604,82705,5
37605,82710,4
37600,82709,5
37599,82715,6
37595,82711,4
37604,82710,5
37600,82705,4
37603,82705,5
37607,82720,5
37613,82711,5
37610,82715,4
37605,82713,4
37612,82722,5
37605,82730,5
37609,82721,5
37606,82714,4
37611,82708,5
37607,82698,5
37603,82708,5
37606,82708,5
37598,82715,4
37611,82711,5
37605,82721,5
37607,82723,5
37603,82717,5
37609,82719,4
37607,82718,5
37605,82722,5
37610,82724,6
37610,82723,4
37607,82730,4
37603,82725,5
37612,82714,5
37607,82723,5
37608,82718,5
37605,82735,4
37604,82724,5
37612,82722,5
37610,82720,5
37612,82728,4
37614,82727,4
37603,82727,5
37607,82727,5
37610,82718,5
37607,82724,4
37605,82712,5
37603,82725,5
37602,82729,5
37603,82710,5
37607,82706,5
37601,82712,4
37599,82713,5
37603,82713,5
37605,82714,6
37614,82703,3
37598,82712,5
37603,82713,5
37596,82712,5
37601,82708,5
37597,82710,4
37605,82703,5
37593,82715,5
37605,82708,5
37599,82706,5
37601,82703,4
37601,82705,5
37599,82703,5
37604,82706,5
37602,82705,4
37607,82702,4
37600,82695,5
37591,82708,5
37598,82686,5
37601,82698,4
37595,82700,6
37599,82693,4
37588,82693,5
37598,82701,5
37594,82696,4
37603,82696,5
37600,82686,5
37594,82696,5
37596,82692,5
37600,82684,4
37596,82691,5
37595,82682,5
37588,82685,5
37594,82687,5
37588,82683,4
37588,82677,5
37585,82670,5
37586,82660,5
37578,82653,4
37578,82653,4
37574,82644,5
37574,82640,5
37562,82640,5
37558,82621,4
37561,82631,5
37557,82628,6
37567,82631,4
37571,82639,5
37575,82635,4
37573,82632,5
37571,82644,5
37568,82644,5
37571,82656,5
37568,82649,4
37580,82646,5
37571,82638,5
37572,82639,5
37581,82640,5
37581,82642,4
37565,82646,5
37569,82647,5
37567,82635,5
37572,82635,5
37571,82631,4
37566,82629,5
37562,82629,5
37556,82617,5
37559,82620,4
37562,82626,4
37556,82620,5
37554,82619,6
37565,82618,4
37563,82634,5
37558,82624,4
37561,82623,5
37565,82632,5
37566,82626,5
37562,82634,4
37564,82628,5
37569,82626,5
37570,82620,5
37567,82621,5
37568,82633,4
37558,82630,5
37557,82630,5
37561,82629,5
37570,82636,5
37571,82627,4
37565,82636,5
37559,82632,5
37563,82634,5
37566,82644,5
37567,82644,4
37568,82629,5
37566,82632,5
37561,82642,5
37570,82640,4
37571,82639,4
37568,82641,5
37560,82648,5
37570,82642,5
37581,82637,4
37568,82649,5
37565,82649,5
37569,82647,5
37566,82640,5
37575,82642,4
37574,82643,5
37576,82641,5
37566,82641,5
37571,82637,5
37571,82638,4
37566,82644,5
37571,82639,5
37558,82640,5
37562,82640,5
37570,82640,5
37562,82638,4
37569,82635,5
37573,82632,5
37574,82636,5
37565,82637,4
37566,82643,5
37570,82651,5
37569,82643,5
37577,82641,4
37572,82645,5
37580,82649,5
37570,82643,5
37574,82651,5
37579,82650,4
37580,82647,5
37574,82658,5
37575,82659,5
37580,82651,5
37587,82659,4
37579,82653,5
37572,82653,5
37584,82642,5
37581,82661,5
37581,82661,4
37580,82663,6
37579,82667,4
37579,82663,5
37571,82658,5
37583,82661,4
37570,82658,5
37578,82648,5
37580,82657,5
37577,82645,4
37584,82649,4
37572,82641,5
37575,82650,5
37568,82642,5
37565,82645,4
37571,82644,5
37569,82649,5
37566,82640,5
37572,82657,5
37576,82642,4
37579,82658,5
37571,82669,5
37577,82660,5
37570,82657,5
37571,82663,4
37575,82659,5
37570,82669,5
37574,82660,5
37580,82669,5
37577,82664,4
37576,82670,5
37572,82670,5
37570,82659,5
37578,82670,5
37579,82669,4
37585,82661,5
37575,82661,5
37574,82669,5
37581,82668,4
37584,82667,4
37587,82673,5
37577,82667,5
37579,82673,5
37578,82671,4
37580,82670,5
37587,82680,5
37588,82671,5
37580,82675,5
37584,82671,3
37592,82678,5
37580,82683,5
37587,82679,5
37590,82682,5
37599,82684,4
37590,82681,5
37599,82676,5
37595,82682,5
37589,82698,5
37592,82691,4
37599,82693,5
37594,82703,5
37590,82700,5
37589,82695,5
37598,82698,4
37594,82698,5
37604,82701,5
37594,82708,5
37596,82703,4
37593,82710,5
37598,82717,4
37601,82706,5
37608,82710,5
37602,82714,6
37602,82721,3
37602,82717,5
37607,82711,5
37603,82718,5
37606,82718,5
37608,82729,4
37609,82726,5
37606,82724,5
37605,82724,5
37608,82723,4
37600,82727,5
37603,82722,5
37604,82732,5
37606,82729,5
37615,82737,4
37608,82727,5
37604,82735,5
37613,82744,5
37611,82741,5
37615,82738,4
37622,82740,6
37614,82753,4
37609,82741,5
37616,82737,4
37611,82748,7
37616,82748,3
37614,82750,5
37625,82748,5
37618,82745,4
37621,82748,5
37621,82751,5
37618,82739,5
37621,82749,5
37615,82758,4
37622,82759,5
37626,82765,5
37619,82755,5
37630,82760,5
37628,82760,4
37619,82766,5
37629,82770,5
37629,82766,5
37631,82763,5
37627,82761,4
37628,82769,5
37628,82767,6
37618,82768,4
37622,82763,4
37630,82760,4
37629,82760,5
37619,82759,5
37619,82752,5
37627,82757,4
37614,82755,5
37616,82737,5
37618,82742,5
37611,82747,5
37619,82746,4
37615,82760,5
37615,82759,5
37630,82760,5
37625,82767,5
37631,82762,4
37631,82766,5
37629,82761,5
37630,82778,5
37625,82777,5
37630,82767,4
37628,82769,5
37630,82767,5
37632,82771,6
37632,82776,4
37637,82777,4
37624,82774,5
37626,82777,5
37629,82766,5
37631,82770,4
37623,82768,4
37621,82768,5
37625,82766,5
37631,82773,5
37634,82768,4
37629,82770,5
37629,82773,5
37631,82774,5
37633,82783,5
37632,82783,4
37641,82777,5
37640,82778,5
37640,82784,5
37630,82786,5
37634,82784,5
37641,82777,4
37636,82785,5
37635,82782,5
37634,82790,6
37635,82785,3
37629,82789,5
37642,82793,5
37639,82794,5
37645,82789,5
37643,82808,4
37641,82800,5
37637,82808,5
37646,82808,5
37643,82808,4
37642,82817,4
37644,82812,5
37647,82808,5
37650,82816,5
37649,82815,4
37647,82822,5
37661,82826,5
37658,82819,5
37653,82821,5
37657,82820,4
37655,82822,6
37658,82812,4
37650,82818,5
37647,82818,5
37650,82824,4
37645,82822,5
37655,82818,5
37651,82816,5
37654,82815,5
37651,82820,4
37647,82814,5
37658,82817,5
37663,82827,5
37660,82820,4
37653,82825,4
37654,82812,5
37654,82818,5
37647,82819,5
37648,82812,4
37656,82818,5
37658,82811,5
37658,82824,5
37654,82815,5
37655,82822,4
37656,82823,5
37662,82818,6
37658,82830,4
37655,82828,5
37652,82827,4
37655,82828,5
37658,82820,5
37657,82833,5
37668,82837,5
37665,82845,4
37666,82848,8
37672,82858,2
37668,82846,5
37659,82845,5
37667,82848,4
37671,82856,5
37673,82860,5
37670,82848,5
37675,82856,4
37670,82862,4
37674,82851,5
37663,82862,5
37677,82857,5
37677,82855,4
37668,82855,5
37670,82858,5
37669,82854,6
37669,82854,4
37669,82846,4
37670,82847,5
37653,82839,5
37656,82833,5
37655,82838,5
37663,82848,4
37668,82846,5
37657,82849,5
37673,82859,5
37677,82869,5
37666,82859,4
37670,82873,5
37684,82873,5
37676,82863,5
37684,82877,5
37685,82885,4
37679,82876,5
37685,82880,5
37688,82875,5
37685,82872,5
37685,82873,4
37681,82879,5
37677,82878,5
37686,82880,6
37681,82888,3
37684,82886,5
37682,82878,5
37677,82888,5
37683,82885,5
37692,82878,4
37684,82888,5
37685,82891,5
37686,82893,5
37694,82902,5
37684,82908,4
37694,82904,5
37694,82920,5
37698,82920,5
37693,82910,5
37695,82924,4
37697,82916,5
37691,82908,5
37691,82923,5
37694,82918,5
37705,82932,5
37706,82923,4
37701,82934,5
37704,82926,5
37708,82931,4
37704,82934,4
37696,82927,5
37701,82937,5
37702,82937,5
37713,82931,4
37709,82934,5
37710,82934,5
37711,82936,5
37705,82944,5
37703,82935,4
37709,82946,5
37719,82949,5
37713,82938,5
37705,82951,5
37721,82949,4
37715,82953,5
37709,82947,5
37714,82950,5
37721,82948,5
37707,82947,4
37709,82944,6
37718,82949,4
37719,82957,5
37714,82952,4
37721,82941,4
37710,82955,5
37705,82959,5
37716,82949,5
37710,82949,4
37718,82954,5
37717,82961,5
37714,82960,5
37713,82954,5
37708,82956,4
37714,82944,5
37715,82948,5
37704,82951,5
37712,82950,5
37716,82945,4
37711,82948,5
37714,82946,5
37715,82960,6
37720,82958,4
37720,82957,4
37722,82962,5
37725,82957,6
37721,82956,4
37720,82956,5
37712,82966,4
37723,82957,5
37719,82961,5
37716,82960,5
37713,82953,4
37715,82953,4
37714,82952,5
37712,82947,5
37720,82951,5
37719,82943,4
37713,82934,4
37709,82923,5
37696,82921,5
37692,82910,5
37702,82910,4
37696,82909,5
37697,82904,5
37702,82916,5
37692,82919,5
37702,82932,4
37702,82917,5
37704,82921,5
37707,82924,5
37696,82913,5
37703,82918,4
37695,82918,5
37695,82915,5
37697,82918,5
37699,82912,5
37698,82913,4
37693,82909,5
37698,82915,5
37702,82910,5
37703,82910,4
37697,82908,4
37691,82908,5
37688,82905,5
37692,82902,5
37694,82915,4
37700,82913,5
37694,82907,5
37689,82902,5
37698,82907,5
37691,82906,5
37692,82904,4
37694,82902,5
37693,82904,5
37696,82912,5
37692,82904,4
37697,82900,5
37693,82904,5
37695,82906,5
37684,82901,5
37694,82911,4
37687,82912,5
37688,82907,5
37705,82909,5
37694,82909,5
37698,82901,4
37693,82902,5
37696,82901,5
37696,82906,5
37697,82914,4
37708,82912,4
37694,82917,5
37694,82923,5
37699,82929,5
37696,82920,4
37705,82926,6
37700,82917,4
37703,82931,5
37701,82925,5
37708,82924,4
37708,82923,5
37697,82923,5
37695,82921,5
37707,82926,5
37705,82921,4
37703,82920,5
37690,82933,5
37692,82917,5
37694,82919,5
37700,82913,4
37697,82911,5
37698,82913,5
37696,82904,5
37699,82908,5
37692,82910,4
37698,82906,5
37686,82909,6
37694,82910,4
37691,82904,4
37694,82912,5
37697,82896,5
37696,82897,5
37691,82899,5
37695,82897,4
37687,82906,5
37692,82901,5
37690,82903,5
37694,82901,5
37687,82898,4
37688,82902,5
37686,82896,5
37695,82896,5
37692,82906,5
37687,82897,4
37680,82891,5
37691,82909,5
37683,82891,5
37690,82892,5
37691,82889,4
37685,82897,5
37684,82901,5
37693,82903,6
37692,82893,3
37683,82893,4
37689,82890,5
37693,82897,5
37687,82900,5
37685,82891,4
37686,82903,5
37682,82883,5
37686,82890,5
37685,82896,5
37687,82890,4
37688,82890,5
37688,82891,5
37692,82894,5
37688,82890,5
37686,82887,4
37689,82887,5
37690,82893,5
37681,82878,5
37684,82863,5
37673,82865,5
37679,82862,4
37666,82854,5
37671,82849,5
37665,82846,6
37661,82834,3
37665,82832,5
37657,82826,5
37651,82834,5
37657,82841,4
37662,82833,4
37656,82837,5
37659,82838,5
37651,82838,5
37665,82838,4
37665,82836,5
37663,82839,5
37656,82832,5
37663,82843,5
37658,82837,5
37658,82843,4
37657,82835,5
37661,82841,5
37660,82843,5
37652,82837,4
37657,82839,6
37653,82823,4
37650,82824,5
37653,82821,5
37647,82833,6
37655,82827,3
37648,82823,5
37651,82830,5
37649,82824,5
37653,82834,4
37651,82817,5
37648,82816,5
37654,82820,5
37657,82825,4
37655,82828,4
37654,82826,5
37655,82825,5
37652,82814,5
37644,82817,4
37648,82818,5
37651,82819,5
37656,82821,5
37643,82822,5
37652,82820,4
37645,82829,5
37649,82817,6
37642,82818,4
37656,82823,5
37658,82827,4
37643,82829,5
37656,82828,5
37654,82824,5
37642,82816,5
37647,82826,4
37660,82825,5
37645,82817,5
37659,82819,5
37646,82819,5
37644,82812,4
37649,82821,5
37650,82817,5
37650,82812,5
37655,82809,4
37654,82815,4
37648,82811,5
37651,82821,5
37649,82822,5
37646,82811,4
37659,82822,5
37640,82810,5
37650,82817,6
37646,82818,4
37646,82809,4
37641,82818,5
37643,82803,5
37651,82804,5
37649,82813,5
37646,82803,4
37641,82811,5
37646,82808,5
37647,82801,5
37649,82815,5
37653,82814,4
37645,82813,5
37652,82817,5
37643,82819,5
37646,82817,5
37649,82819,4
37647,82820,5
37647,82811,5
37652,82818,5
37646,82807,5
37651,82818,4
37641,82815,5
37641,82807,5
37650,82819,6
37649,82820,3
37649,82814,5
37647,82807,5
37640,82811,5
37643,82822,5
37652,82816,4
37646,82820,5
37650,82814,5
37640,82817,5
37642,82811,5
37643,82800,4
37638,82801,5
37642,82802,5
37642,82786,5
37639,82781,5
37626,82792,4
37639,82776,5
37628,82777,5
37630,82761,5
37614,82769,5
37620,82761,5
37621,82768,4
37619,82760,5
37622,82763,5
37633,82764,4
37616,82764,4
37622,82770,5
37631,82768,5
37622,82774,5
37629,82773,4
37630,82765,5
37628,82770,5
37632,82773,5
37637,82770,5
37627,82764,4
37627,82766,5
37632,82763,5
37628,82769,5
37622,82761,5
37621,82764,4
37621,82764,5
37620,82770,5
37617,82760,5
37630,82767,5
37623,82773,4
37623,82755,6
37626,82768,4
37624,82764,5
37619,82764,5
37626,82759,4
37622,82769,5
37627,82770,5
37624,82769,5
37618,82753,4
37627,82758,5
37622,82767,5
37625,82760,5
37624,82761,5
37628,82757,4
37625,82757,5
37626,82769,5
37629,82769,5
37617,82763,5
37621,82766,4
37625,82764,5
37631,82771,5
37625,82767,5
37619,82761,5
37625,82778,4
37623,82770,5
37623,82762,6
37621,82766,4
37620,82770,5
37630,82779,4
37619,82766,5
37625,82764,5
37615,82762,5
37630,82760,4
37627,82766,4
37627,82762,5
37620,82770,5
37628,82764,5
37619,82766,4
37620,82765,5
37632,82767,5
37627,82761,5
37631,82765,5
37626,82761,4
37620,82752,5
37616,82765,5
37618,82769,5
37630,82765,5
37622,82754,4
37627,82760,5
37619,82757,5
37622,82757,6
37620,82758,4
37622,82760,4
37621,82764,5
37623,82754,5
37614,82748,5
37616,82765,5
37620,82755,4
37622,82761,5
37622,82762,5
37619,82755,5
37627,82758,4
37615,82750,4
37620,82764,5
37623,82752,5
37616,82764,5
37617,82756,4
37616,82759,5
37625,82759,5
37625,82760,5
37615,82756,5
37615,82761,5
37617,82763,4
37626,82758,5
37623,82765,5
37626,82757,5
37625,82761,4
37617,82764,5
37615,82756,5
37616,82750,5
37614,82745,5
37624,82747,4
37615,82743,5
37611,82738,5
37611,82731,5
37607,82728,5
37605,82722,4
37605,82722,5
37605,82718,5
37609,82712,5
37604,82715,4
37607,82726,4
37600,82723,5
37605,82725,5
37602,82725,5
37612,82733,4
37606,82725,6
37611,82740,4
37603,82731,5
37607,82736,5
37609,82735,4
37617,82731,5
37615,82739,5
37609,82739,5
37603,82740,5
37612,82739,4
37622,82741,5
37615,82737,5
37606,82735,5
37607,82735,5
37608,82735,4
37608,82730,5
37603,82723,5
37598,82735,5
37609,82731,5
37609,82727,4
37611,82737,5
37608,82743,5
37611,82743,5
37616,82737,4
37614,82749,4
37620,82744,6
37617,82746,4
37618,82742,5
37615,82744,4
37629,82749,5
37618,82750,5
37626,82754,5
37613,82747,5
37624,82747,4
37620,82757,5
37617,82749,5
37621,82756,5
37624,82753,5
37617,82753,4
37621,82761,5
37621,82757,5
37622,82752,5
37620,82748,5
37619,82754,4
37620,82750,5
37620,82747,5
37622,82750,5
37619,82743,5
37621,82755,4
37614,82748,5
37615,82745,5
37617,82752,5
37612,82738,4
37614,82740,4
37622,82744,5
37618,82748,5
37616,82747,5
37620,82755,4
37615,82751,5
37615,82754,5
37615,82756,5
37623,82757,5
37623,82751,4
37622,82763,5
37615,82749,5
37623,82765,5
37629,82763,5
37623,82764,4
37624,82762,5
37619,82753,5
37619,82762,5
37619,82762,6
37617,82758,3
37620,82745,5
37629,82740,5
37612,82740,5
37617,82735,5
37616,82735,4
37616,82740,5
37613,82741,5
37610,82742,5
37611,82729,4
37609,82720,4
37596,82723,5
37600,82712,5
37604,82710,5
37595,82703,4
37590,82701,5
37599,82696,5
37589,82699,5
37586,82681,5
37582,82685,4
37589,82689,6
37581,82690,4
37582,82673,5
37582,82662,5
37588,82677,6
37583,82679,3
37584,82669,5
37576,82664,5
37568,82658,5
37568,82640,4
37563,82639,5
37556,82637,5
37554,82618,5
37553,82617,5
37549,82600,4
37551,82601,5
37548,82589,5
37540,82603,5
37540,82590,4
37546,82593,5
37541,82584,5
37552,82587,5
37540,82590,5
37548,82581,4
37529,82557,5
37535,82567,6
37530,82549,4
37522,82550,5
37530,82539,4
37515,82521,7
37510,82528,3
37520,82546,5
37550,82609,5
37602,82735,4
37661,82885,5
37731,83044,5
37831,83262,5
37942,83508,5
38054,83764,4
38150,83979,5
38244,84173,5
38324,84322,5
38369,84421,5
38392,84454,4
38391,84434,5
38364,84376,5
38334,84295,5
38283,84184,4
38225,84057,5
38153,83911,5
38099,83772,6
38028,83621,4
37953,83467,4
37893,83299,5
37808,83124,5
37721,82934,5
37622,82730,5
37529,82515,4
37427,82308,5
37337,82095,5
37250,81901,5
37154,81716,5
37090,81541,4
37015,81415,5
36964,81284,5
36920,81190,5
36862,81090,5
36824,80974,4
36775,80845,5
36723,80726,5
36655,80605,5
36603,80489,5
36560,80377,4
36513,80292,5
36476,80199,5
36425,80090,6
36385,79992,3
36338,79897,5
36290,79770,5
36230,79633,5
36163,79504,5
36119,79379,4
36054,79248,5
36003,79133,5
35943,79016,5
35897,78901,5
35854,78812,4
35802,78710,5
35764,78622,5
35736,78536,5
35701,78480,5
35695,78438,4
35669,78404,5
35662,78386,5
35650,78359,5
35650,78364,5
35635,78343,5
35619,78317,4
35610,78279,5
35600,78256,5
35592,78245,6
35594,78229,3
35585,78214,5
35582,78190,5
35575,78196,5
35563,78178,4
35560,78166,5
35569,78162,5
35572,78150,5
35554,78141,5
35554,78133,4
35548,78112,5
35539,78091,5
35537,78085,5
35530,78080,5
35533,78080,4
35534,78080,5
35523,78050,5
35521,78058,5
35519,78048,5
35516,78056,4
35514,78055,6
35522,78056,4
35526,78061,5
35536,78052,5
35520,78060,4
35528,78057,5
35536,78076,5
35549,78078,5
35543,78093,4
35545,78094,4
35549,78083,5
35547,78108,5
35546,78098,5
35562,78101,4
35563,78115,5
35574,78126,5
35562,78117,5
35568,78127,5
35574,78136,4
35577,78147,5
35575,78154,5
35591,78158,5
35580,78160,5
35578,78147,4
35591,78144,5
35581,78144,6
35582,78141,4
35588,78146,5
35584,78163,4
35593,78164,5
35602,78161,5
35600,78172,5
35590,78172,5
35600,78177,4
35596,78187,5
35608,78197,5
35616,78199,5
35625,78215,4
35632,78238,4
35636,78244,5
35636,78248,5
35641,78255,5
35649,78249,4
35634,78259,5
35656,78286,5
35654,78303,5
35671,78319,5
35678,78326,4
35679,78329,5
35685,78340,5
35690,78347,6
35685,78350,4
35694,78367,4
35707,78394,5
35716,78413,5
35720,78417,5
35725,78430,5
35737,78440,4
35739,78444,5
35735,78461,5
35744,78470,5
35757,78481,5
35754,78475,4
35762,78492,5
35769,78506,5
35769,78510,5
35775,78523,4
35782,78531,4
35790,78545,5
35795,78579,5
35813,78595,5
35821,78620,5
35831,78633,4
35825,78642,5
35835,78647,5
35838,78640,5
35836,78661,4
35831,78640,5
35816,78626,5
35819,78598,5
35805,78569,5
35790,78540,4
35770,78508,5
35773,78481,5
35765,78458,5
35751,78439,5
35746,78425,4
35739,78406,5
35728,78394,5
35711,78364,5
35714,78348,5
35705,78326,4
35686,78305,5
35681,78288,5
35677,78266,5
35670,78265,4
35669,78256,6
35669,78255,4
35672,78254,5
35671,78257,5
35661,78245,4
35667,78241,5
35669,78254,5
35671,78261,5
35677,78261,5
35674,78280,4
35689,78297,5
35688,78304,5
35692,78312,5
35702,78325,5
35710,78328,4
35703,78334,5
35710,78329,5
35705,78333,5
35715,78341,5
35709,78341,4
35713,78345,5
35711,78337,5
35717,78339,5
35712,78332,4
35705,78341,4
35711,78348,6
35716,78342,4
35717,78350,5
35709,78341,4
35712,78358,5
35723,78376,5
35721,78384,5
35733,78385,5
35739,78406,4
35755,78421,8
35753,78422,2
35748,78432,5
35740,78439,5
35764,78452,4
35766,78465,5
35766,78475,5
35775,78481,5
35776,78487,5
35784,78496,4
35781,78504,5
35789,78490,5
35791,78491,5
35791,78496,5
35784,78507,4
35793,78523,5
35801,78521,6
35797,78519,4
35798,78517,4
35802,78529,4
35799,78534,5
35803,78533,5
35799,78535,5
35805,78543,4
35808,78532,5
35797,78524,5
35787,78510,5
35789,78500,5
35790,78488,4
35782,78476,5
35774,78479,5
35776,78466,5
35773,78458,5
35772,78468,4
35779,78480,5
35789,78482,5
35780,78503,5
35794,78519,5
35805,78520,4
35803,78527,5
35803,78535,5
35805,78530,5
35807,78560,5
35827,78577,4
35838,78605,5
35846,78640,5
35870,78679,5
35880,78692,4
35893,78710,4
35906,78728,5
35900,78737,5
35912,78747,5
35908,78758,4
35914,78770,5
35926,78793,5
35927,78797,5
35927,78794,5
35927,78801,4
35934,78800,5
35932,78812,5
35938,78812,5
35935,78802,5
35929,78800,5
35938,78793,4
35924,78799,5
35932,78791,5
35940,78807,5
35949,78837,4
35960,78868,5
35984,78917,5
35998,78954,5
36005,78970,5
36026,78993,4
36035,79005,5
36040,79030,5
36047,79045,5
36056,79077,4
36070,79106,4
36086,79135,5
36108,79175,5
36115,79199,5
36130,79220,4
36130,79227,5
36137,79261,5
36147,79275,5
36169,79301,5
36186,79348,4
36198,79369,6
36208,79396,4
36224,79427,5
36227,79449,5
36252,79471,4
36258,79487,5
36264,79506,5
36292,79543,5
36289,79561,5
36302,79584,4
36304,79600,5
36307,79614,5
36310,79624,5
36321,79631,5
36328,79642,4
36328,79653,5
36328,79647,5
36325,79648,5
36326,79657,4
36325,79645,4
36320,79643,5
36320,79641,5
36324,79639,5
36320,79641,4
36318,79639,5
36324,79654,5
36325,79658,5
36329,79656,5
36326,79663,4
36331,79666,5
36333,79664,5
36332,79663,5
36322,79648,5
36325,79656,4
36318,79627,5
36308,79625,5
36301,79597,5
36297,79582,5
36289,79571,4
36286,79563,5
36286,79566,5
36279,79566,5
36281,79569,5
36285,79571,4
36295,79568,5
36281,79586,5
36298,79591,6
36299,79591,3
36302,79608,5
36304,79605,5
36306,79610,5
36307,79614,5
36301,79625,4
36311,79623,5
36315,79632,5
36321,79634,5
36318,79651,5
36328,79662,4
36329,79673,5
36335,79681,5
36334,79687,5
36341,79684,5
36340,79691,4
36339,79698,5
36355,79712,5
36344,79715,5
36356,79725,5
36364,79736,5
36364,79741,4
36363,79748,5
36366,79745,5
36364,79729,6
36357,79727,3
36358,79713,5
36346,79725,5
36358,79700,5
36354,79707,4
36348,79716,5
36358,79708,5
36349,79714,5
36360,79704,5
36358,79709,4
36352,79715,5
36363,79720,5
36353,79729,5
36360,79722,5
36365,79732,4
36368,79749,5
36369,79756,5
36375,79761,5
36374,79761,5
36373,79761,4
36383,79771,6
36383,79776,4
36382,79778,5
36381,79770,5
36381,79758,6
36378,79750,3
36369,79750,5
36371,79746,5
36371,79734,4
36360,79729,4
36363,79725,5
36365,79731,5
36356,79734,5
36358,79729,4
36369,79732,5
36364,79735,5
36365,79744,5
36375,79749,5
36371,79771,4
36376,79778,5
36383,79802,5
36392,79814,5
36392,79806,5
36402,79831,4
36400,79824,5
36392,79826,6
36393,79816,4
36386,79803,5
36392,79806,4
36395,79803,5
36392,79804,5
36383,79800,5
36382,79795,5
36374,79788,4
36369,79782,5
36375,79779,5
36382,79794,5
36373,79804,4
36384,79817,4
36394,79822,5
36389,79830,5
36400,79855,5
36393,79836,4
36398,79836,5
36395,79836,5
36388,79831,5
36382,79831,5
36380,79828,4
36384,79833,5
36392,79839,5
36397,79848,6
36399,79866,4
36401,79877,4
36396,79879,5
36405,79868,5
36400,79854,5
36395,79847,5
36386,79834,4
36387,79832,5
36386,79825,5
36380,79831,5
36385,79829,5
36390,79843,4
36395,79863,5
36393,79855,5
36395,79838,5
36388,79830,4
36383,79824,4
36375,79814,5
36371,79812,5
36373,79799,5
36370,79792,5
36367,79796,4
36360,79787,5
36354,79780,5
36355,79778,6
36360,79770,3
36346,79749,5
36336,79744,5
36327,79723,5
36321,79718,5
36317,79713,4
36312,79696,4
36302,79682,5
36299,79683,5
36314,79690,5
36308,79686,4
36308,79681,5
36304,79670,5
36300,79669,5
36292,79664,5
36291,79656,4
36293,79649,5
36285,79662,5
36286,79656,5
36299,79654,4
36283,79645,6
36287,79638,4
36289,79641,5
36284,79653,5
36286,79633,4
36281,79625,5
36269,79617,5
36264,79596,5
36264,79585,5
36252,79572,4
36244,79558,5
36249,79550,5
36234,79538,5
36246,79536,5
36228,79527,4
36221,79504,5
36208,79475,5
36196,79455,5
36190,79430,5
36173,79407,4
36173,79395,5
36165,79398,5
36171,79400,5
36168,79394,4
36159,79377,4
36156,79366,6
36154,79357,4
36147,79347,5
36149,79353,4
36147,79353,5
36143,79348,5
36137,79344,5
36135,79322,5
36130,79298,4
36115,79279,5
36102,79250,5
36081,79230,5
36075,79198,5
36067,79178,4
36072,79181,5
36058,79165,5
36057,79155,5
36063,79160,5
36050,79145,4
36046,79156,5
36052,79155,5
36049,79158,5
36061,79166,5
36055,79158,4
36052,79167,5
36042,79152,6
36050,79144,4
36040,79114,4
36030,79087,4
36004,79068,5
35998,79045,5
35985,79014,5
35972,78984,4
35962,78959,5
35941,78930,5
35929,78894,5
35911,78860,5
35889,78817,4
35869,78776,5
35864,78752,5
35847,78723,5
35839,78703,5
35825,78687,4
35819,78665,5
35814,78642,5
35806,78618,5
35781,78596,5
35765,78566,4
35747,78534,5
35740,78495,5
35719,78444,6
35700,78415,4
35678,78371,4
35659,78318,5
35635,78287,5
35621,78244,5
35610,78212,4
35598,78197,4
35589,78175,5
35583,78176,5
35593,78179,5
35594,78169,4
35583,78169,5
35581,78168,5
35584,78175,5
35587,78173,5
35574,78161,4
35583,78150,5
35568,78126,5
35549,78104,5
35546,78085,5
35526,78048,5
35512,78025,4
35493,77990,5
35479,77942,5
35462,77916,5
35456,77882,4
35435,77846,5
35422,77819,5
35406,77794,5
35398,77766,5
35379,77732,4
35371,77706,5
35358,77676,5
35342,77664,5
35335,77637,4
35322,77602,4
35306,77567,5
35277,77512,5
35264,77473,5
35245,77433,4
35228,77398,5
35215,77375,5
35208,77352,5
35198,77347,5
35185,77325,4
35180,77314,6
35179,77294,4
35177,77286,5
35168,77274,5
35173,77276,4
35164,77282,5
35164,77271,5
35162,77265,5
35164,77257,5
35152,77253,4
35156,77246,5
35146,77251,5
35150,77253,5
35150,77257,5
35162,77266,4
35161,77270,5
35163,77284,5
35165,77290,5
35166,77301,4
35177,77302,5
35176,77309,5
35180,77321,5
35176,77323,5
35184,77324,4
35192,77335,5
35190,77348,7
35205,77364,3
35207,77360,5
35202,77366,4
35205,77374,5
35212,77388,5
35221,77401,5
35222,77400,5
35221,77407,4
35218,77404,5
35222,77406,5
35221,77415,5
35220,77429,5
35229,77432,4
35227,77448,5
35236,77444,5
35239,77450,5
35225,77430,5
35217,77420,4
35218,77396,5
35201,77384,5
35210,77362,5
35198,77354,4
35184,77335,5
35181,77328,5
35172,77323,5
35179,77315,5
35178,77320,4
35182,77343,5
35188,77361,5
35212,77397,5
35218,77426,5
35229,77452,4
35251,77476,5
35261,77505,5
35284,77545,5
35296,77592,5
35320,77639,4
35327,77654,5
35357,77711,5
35379,77778,5
35405,77830,5
35446,77892,4
35462,77949,5
35491,77982,5
35500,78005,5
35501,78021,5
35522,78035,4
35505,78036,5
35513,78032,5
35515,78031,5
35546,78129,4
35650,78370,5
35779,78661,5
35914,78943,5
36036,79184,5
36140,79380,4
36205,79532,5
36260,79639,5
36307,79703,5
36328,79757,5
36351,79778,4
36360,79787,5
36365,79815,5
36373,79812,5
36377,79816,5
36357,79786,4
36347,79744,5
36339,79705,4
36305,79647,5
36292,79596,5
36269,79550,5
36259,79526,3
36248,79493,5
36242,79489,5
36238,79485,4
36247,79488,4
36245,79499,5
36271,79557,5
36309,79643,5
36356,79740,4
36387,79806,5
36430,79868,5
36459,79937,5
36495,80003,5
36544,80116,4
36604,80240,5
36669,80392,5
36738,80544,5
36836,80734,5
36922,80923,4
37024,81132,5
37107,81308,6
37186,81476,4
37258,81632,5
37334,81779,4
37382,81905,7
37439,82018,3
37497,82160,5
37568,82309,5
37649,82502,4
37736,82657,5
37811,82850,5
37928,83113,5
38056,83397,4
38193,83701,4
38336,84027,5
38504,84414,5
38670,84781,5
38841,85195,4
39043,85648,5
39217,86010,5
39386,86411,5
39601,86882,5
39838,87382,4
40104,87961,5
40435,88688,5
40734,89283,6
40963,89789,4
41182,90253,4
41394,90687,5
41547,91020,5
41741,91502,5
41992,92040,5
42281,92679,4
42642,93429,5
43028,94238,5
43449,95152,5
43930,96172,5
44408,97161,4
44891,98197,5
45362,99131,5
45851,99516,5
46275,100414,4
46691,101268,4
47116,102165,5
47542,102979,5
47813,103472,5
48002,103892,5
48276,104429,4
48492,104864,5
48717,105349,5
48987,105936,6
49271,106555,3
48783,107099,5
49060,107668,5
49346,108283,5
49676,109019,5
50119,109970,4
50670,111169,5
51249,112387,5
51815,113596,5
52458,114909,5
53048,115491,4
53565,116564,5
54113,117640,5
54587,118549,5
55023,119380,5
55408,120142,4
55766,120871,5
56129,121532,5
56441,122086,5
56835,122533,4
56776,122287,5
56609,121906,4
56346,121338,5
56037,120712,5
55664,119945,6
55311,119197,3
54916,118433,5
54586,117781,5
54240,117116,5
53964,116611,4
53691,116040,5
53412,115475,5
53117,114904,5
52829,114324,5
52341,113287,4
51850,112430,5
51475,111689,5
51026,110772,5
50514,109804,5
49981,108715,4
49408,107564,5
48817,106437,5
48268,105349,5
47725,104309,5
47232,103373,4
46770,102525,6
46385,101792,4
45905,100836,5
45354,99740,4
44763,98556,4
44131,97321,5
43508,96554,5
42859,95287,5
42271,94144,4
41742,93114,5
41364,92376,5
41022,91628,5
40692,90916,5
40365,90223,4
40054,89624,5
39822,89138,5
39595,88659,5
39360,88155,5
39101,87697,4
38941,87371,5
38786,87026,5
38638,86706,5
38463,86380,5
38310,86059,4
38126,85684,5
37958,85290,6
37756,84906,4
37568,84525,5
37376,84163,4
37194,83776,5
36998,83383,5
36867,83144,5
36804,83008,4
36750,82856,5
36644,82698,5
36586,82543,5
36497,82355,5
36416,82186,4
36335,82043,5
36286,81973,5
36270,81946,5
36260,81950,5
36269,81966,4
36254,81919,5
36254,82542,5
36256,82560,5
36249,82550,5
36215,82491,4
36145,82326,5
36053,82145,5
35975,81981,6
35893,81820,4
35783,81566,4
35647,81300,5
35494,80943,5
35304,80531,5
35111,80113,5
34892,79624,4
34636,79071,5
34394,78522,5
34144,77971,5
33926,77521,4
33741,77113,5
33540,76668,5
33328,76226,5
33140,75796,5
32923,75343,5
32720,74874,4
33237,74421,5
33081,74047,5
32927,73703,5
32720,73243,5
32390,72162,4
31571,70031,5
30946,68610,5
30720,68135,5
30615,67817,4
30462,67364,5
30219,66758,5
30018,66298,5
29849,65857,5
29609,65183,4
29173,64771,5
28654,63376,5
28033,61646,5
27364,60026,4
26829,58798,4
26457,57971,5
26206,57391,5
26097,57173,5
26148,57415,4
26373,58051,5
26714,58973,5
27122,59982,5
27528,60994,5
28018,62280,4
28545,63432,6
28535,63067,4
28246,62332,5
28259,62356,5
28240,62292,4
28129,62050,5
28004,61784,5
27889,61521,5
27838,61427,5
27754,61213,4
27576,60731,5
27238,59834,5
26851,58864,5
26492,57971,5
26267,57467,4
26192,57299,5
26144,57207,5
26110,57161,5
26126,57234,4
26212,57543,4
26398,58104,5
26648,58788,5
26931,59481,5
27166,60069,4
27348,60482,5
27438,60682,6
27442,60737,4
27434,60721,5
27414,60695,4
27406,60705,5
27396,60719,5
27403,60737,5
27409,60771,5
27429,60798,4
27419,60826,5
27439,60862,5
27450,60917,5
27469,60968,5
27483,61020,4
27500,61051,5
27503,61061,5
27497,61064,5
27488,61038,5
27487,60999,4
27471,60984,5
27464,60960,5
27446,60917,5
27418,60845,4
27390,60776,4
27368,60707,5
27344,60651,6
27326,60609,4
27320,60597,4
27303,60553,5
27280,60501,5
27269,60449,5
27222,60175,5
27148,59731,4
27279,59899,5
27658,60675,5
28203,61922,5
28725,63060,5
29213,64320,4
30058,66359,5
31284,69477,5
34013,76500,5
39023,87469,5
43021,92504,4
40658,85273,5
35441,75310,5
32494,69758,5
30540,65501,5
29002,63302,4
28270,62137,5
28527,63265,5
29383,65270,5
30252,67303,4
30988,68583,4
30875,67925,5
30753,67752,5
30724,67548,5
30453,66908,4
30309,66653,5
30467,67210,5
30916,68386,5
31522,70041,5
32550,72707,4
33752,75191,5
34033,75349,5
33222,73316,5
32015,70646,5
31011,68421,4
30380,66724,5
29710,64952,5
29020,63330,5
28476,62228,5
28536,62838,5
29194,64246,4
29305,64154,5
29102,63737,5
28973,63480,5
28884,63327,4
28746,63062,5
28622,62827,5
28506,62567,5
28308,62058,4
28008,61298,4
27619,60339,5
27229,59291,5
26891,58492,5
26683,57966,4
26548,57656,5
26498,57534,5
26482,57456,5
26454,57417,5
26448,57400,4
26453,57401,5
26460,57415,5
26483,57469,5
26541,57625,5
26639,57894,4
26793,58317,6
27014,58893,4
27262,59555,5
27486,60090,5
27680,60559,4
27821,60873,5
27892,61052,5
27931,61108,5
27936,61107,5
27920,61043,7
27901,61000,2
27899,60988,5
27896,61007,5
27930,61025,4
27947,61047,5
27974,61108,5
28008,61184,5
28051,61276,5
28096,61372,4
28147,61489,5
28217,61661,5
28305,61870,5
28409,62095,5
28516,62371,4
28630,62635,5
28739,62873,5
28833,63115,5
28911,63289,5
28966,63412,4
29001,63470,5
29006,63450,5
28968,63366,5
28909,63207,5
28844,63046,4
28771,62867,5
28693,62681,5
28622,62487,5
28549,62300,4
28477,62129,4
28419,62041,5
28423,62045,5
28465,62167,5
28601,62593,5
28931,63526,4
29436,64826,5
29961,65961,5
30269,66631,6
30575,67372,3
30965,68300,5
31450,69483,5
32082,70989,5
32780,72530,5
33403,73891,4
34083,75447,5
34883,77334,5
35725,79066,5
36277,80312,5
36836,81451,4
37295,82409,5
37596,82385,5
37757,82775,5
37839,82968,5
37903,83154,4
37974,83340,5
38046,83487,5
38027,83415,5
37886,83117,4
37658,82612,5
37356,82011,4
37115,81556,5
36967,81238,5
36915,81149,6
36941,81144,3
36962,81172,5
36988,81249,5
37091,81540,5
37360,82140,4
37776,83065,5
38343,84235,5
38934,85471,5
39570,86802,5
40182,87999,4
40667,89026,5
41161,90170,5
41691,91253,5
42145,92174,5
42519,92952,4
42918,93811,5
43322,94639,5
43721,95544,5
44143,96363,5
44450,96991,4
44616,97262,6
44673,97447,4
44786,97671,5
44949,98048,4
45093,98279,6
45169,98501,3
45192,97774,5
44950,97094,5
44405,95901,4
43775,94625,5
43231,93489,5
42680,92280,5
42121,91113,5
41682,90123,4
41226,89202,5
40775,88216,5
40355,87274,5
39918,86221,5
39509,85337,4
39144,84554,5
38861,83974,5
38702,83621,5
38575,83382,5
38497,83220,4
38467,83142,5
38442,83087,6
38423,83045,4
38431,83079,5
38455,83132,4
38492,83161,5
38519,83219,5
38512,83191,5
38491,83116,4
38411,82964,4
38353,82835,5
38278,82639,5
38182,82402,5
38076,82175,4
37996,82017,5
37940,81872,5
37888,82369,5
37843,82326,5
37820,82215,4
37779,82133,5
37725,81986,5
37645,81858,5
37571,81661,5
37498,81477,4
37396,81225,5
37302,81072,5
37256,80951,6
37210,80830,4
37155,80666,4
37053,80454,5
36966,80245,5
36881,80030,5
36801,79832,5
36707,79641,4
36628,79441,5
36541,79225,5
36473,79087,5
36436,78988,4
36447,79002,4
36464,79044,5
36482,79103,5
36516,79144,5
36537,79182,4
36557,79205,5
36550,79224,5
36567,79263,5
36575,79266,5
36599,79270,5
36597,79286,4
36602,79289,5
36612,79315,5
36617,79322,6
36609,79293,3
36560,79170,5
36495,79022,5
36451,78895,5
36393,78742,5
36332,78625,4
36276,78517,5
36250,78450,5
36245,78482,5
36251,78484,5
36286,78526,4
36297,78561,5
36318,78591,5
36313,78597,5
36314,78585,4
36297,78554,5
36288,78514,5
36277,78493,5
36283,78522,5
36312,78564,4
36329,78616,6
36353,78670,4
36375,78701,5
36399,78740,5
36412,78768,4
36404,78756,5
36394,78721,5
36391,78730,5
36388,78744,5
36401,78761,4
36407,78751,5
36381,78724,5
36387,78714,5
36376,78697,5
36355,78658,4
36339,78631,5
36339,78613,5
36343,78619,5
36373,78655,4
36384,78697,4
36397,78741,5
36407,78772,5
36424,78782,5
36418,78777,4
36421,78774,5
36399,78730,6
36379,78671,4
36351,78610,5
36332,78557,4
36296,78515,5
36277,78458,5
36238,78388,5
36208,78283,5
36150,78135,4
36079,78000,5
36011,77859,5
35955,77731,5
35907,77613,5
35846,77481,4
35784,77336,5
35728,77183,5
35651,77039,5
35577,76852,5
35440,76579,4
35306,76299,5
35182,76038,5
35067,75796,5
34970,75586,4
34867,75350,4
34762,75128,5
34661,74881,6
34549,74647,4
34441,74430,4
34355,74226,5
34262,74030,5
34176,73854,5
34106,73705,5
34040,73539,4
33972,73367,5
33876,73194,5
33817,73057,5
33753,72952,5
33733,72878,4
33678,72786,5
33650,72740,5
33635,72708,5
33632,72674,5
33607,72633,4
33580,72596,5
33560,72544,5
33531,72474,5
33488,72391,5
33456,72302,4
33432,72238,5
33397,72190,5
33401,72195,6
33395,72190,4
33397,72207,4
33414,72231,5
33427,72297,5
33461,72354,5
33480,72411,4
33520,72535,5
33584,72665,5
33653,72825,5
33734,73022,5
33829,73232,4
33923,73415,5
34000,73609,5
34092,73848,5
34230,74134,5
34332,74332,4
34423,74535,5
34518,74784,5
34637,75014,5
34706,75150,5
34773,75289,5
34860,75490,4
34962,75699,5
35041,75859,5
35078,75933,5
35085,75952,4
35086,75938,5
35101,75980,5
35126,76044,5
35133,76051,4
35118,76002,4
35115,76010,5
35118,76002,5
35127,76012,5
35155,76074,4
35164,76111,5
35179,76103,5
35164,76085,5
35157,76081,5
35164,76082,4
35177,76131,5
35185,76157,5
35202,76183,5
35215,76196,5
35230,76215,4
35234,76237,6
35254,76260,4
35252,76289,5
35275,76314,5
35275,76300,4
35260,76285,5
35237,76245,5
35233,76227,5
35233,76226,5
35238,76236,4
35249,76263,5
35263,76287,5
35266,76305,5
35265,76310,4
35283,76330,4
35294,76379,5
35315,76435,5
35344,76492,5
35361,76525,4
35379,76553,5
35380,76547,5
35381,76542,5
35379,76543,5
35383,76528,4
35375,76527,5
35368,76505,6
35366,76502,4
35361,76499,5
35363,76507,4
35369,76506,5
35369,76500,5
35368,76499,5
35371,76515,5
35380,76519,4
35390,76532,5
35384,76541,5
35388,76546,5
35404,76570,5
35407,76569,4
35401,76561,5
35390,76532,5
35377,76501,5
35365,76459,4
35346,76447,5
35343,76421,5
35332,76389,5
35320,76364,5
35297,76333,4
35277,76287,5
35254,76220,5
35228,76146,5
35186,76069,5
35154,75996,4
35117,75920,5
35084,75842,5
35045,75762,5
35009,75695,5
34976,75587,4
34920,75489,5
34872,75367,5
34821,75245,5
34763,75086,5
34674,74918,4
34606,74739,5
34528,74566,5
34456,74400,5
34371,74221,5
34304,74065,4
34233,73895,5
34166,73760,5
34118,73647,5
34076,73553,5
34017,73467,4
33985,73384,5
33959,73299,5
33925,73241,5
33896,73184,4
33880,73143,5
33861,73096,5
33835,73050,5
33813,73001,5
33801,72967,4
33789,72942,5
33771,72924,5
33772,72916,5
33761,72909,5
33760,72881,4
33739,72863,5
33725,72826,5
33718,72788,5
33705,72762,5
33699,72760,4
33700,72769,6
33701,72776,4
33717,72776,5
33724,72827,4
33737,72857,6
33757,72908,3
33774,72951,5
33794,73000,5
33805,73022,4
33818,73040,5
33827,73067,5
33850,73109,5
33868,73170,5
33901,73247,4
33936,73329,5
33978,73409,5
34015,73499,5
34043,73550,5
34064,73602,4
34094,73652,5
34115,73705,5
34139,73764,5
34163,73817,5
34191,73876,4
34209,73926,5
34237,73981,6
34258,74053,4
34298,74140,5
34345,74225,4
34381,74307,7
34412,74365,3
34429,74419,5
34448,74462,5
34474,74520,4
34500,74576,5
34522,74630,5
34558,74690,5
34564,74734,4
34584,74765,5
34602,74794,5
34620,74811,5
34629,74861,5
34653,74909,4
34670,74977,5
34699,75016,5
34723,75067,5
34738,75097,5
34746,75117,4
34758,75136,5
34768,75157,5
34771,75184,6
34780,75201,4
34802,75234,4
34817,75278,5
34839,75318,5
34860,75389,5
34869,75409,5
34883,75420,4
34881,75414,5
34876,75414,5
34870,75385,5
34864,75366,5
34849,75346,4
34847,75334,5
34829,75309,5
34828,75291,5
34806,75265,4
34804,75243,5
34801,75237,5
34809,75244,5
34806,75250,5
34826,75275,5
34820,75288,4
34827,75299,5
34836,75317,5
34838,75321,6
34832,75310,3
34837,75318,5
34838,75306,5
34815,75262,5
34800,75238,5
34796,75224,4
34789,75193,5
34781,75178,5
34779,75169,5
34765,75138,5
34752,75096,4
34738,75063,5
34729,75037,5
34721,75036,5
34716,75029,4
34727,75044,4
34737,75074,5
34745,75116,5
34782,75182,5
34809,75238,4
34844,75326,6
34890,75402,4
34925,75478,5
34953,75536,5
34966,75578,6
34983,75613,3
34985,75619,5
34987,75630,5
35003,75642,5
35014,75639,4
35009,75656,5
35012,75681,5
35035,75685,5
35035,75715,5
35037,75718,4
35034,75720,5
35039,75743,5
35061,75787,5
35080,75827,5
35095,75894,4
35126,75964,5
35169,76042,5
35194,76119,5
35234,76186,4
35244,76229,4
35268,76263,6
35278,76291,4
35285,76309,5
35300,76337,4
35303,76354,5
35304,76372,5
35319,76394,5
35328,76424,5
35331,76439,4
35348,76452,5
35354,76484,5
35353,76495,5
35368,76511,5
35371,76536,4
35388,76548,5
35385,76575,5
35400,76579,5
35392,76590,5
35399,76588,4
35397,76602,5
35404,76596,5
35405,76615,5
35402,76609,5
35404,76621,4
35415,76632,5
35420,76645,6
35432,76666,4
35428,76673,4
35427,76664,4
35425,76658,5
35416,76646,5
35407,76617,5
35402,76610,4
35404,76622,5
35396,76624,5
35405,76631,5
35406,76641,5
35430,76657,4
35419,76682,5
35430,76701,5
35448,76719,5
35458,76763,5
35470,76791,4
35491,76819,5
35505,76860,5
35522,76896,5
35542,76929,5
35555,76967,4
35570,77005,5
35584,77043,5
35596,77089,6
35625,77129,4
35646,77184,4
35673,77229,5
35684,77265,5
35707,77302,5
35713,77331,4
35729,77340,5
35725,77367,5
35745,77395,5
35750,77421,5
35775,77448,4
35779,77457,5
35780,77478,5
35788,77493,5
35790,77508,5
35797,77519,4
35813,77547,5
35819,77559,5
35826,77568,5
35834,77595,5
35845,77618,5
35857,77630,4
35861,77652,5
35874,77673,5
35887,77702,5
35892,77713,4
35897,77733,5
35907,77736,5
35910,77745,5
35922,77765,4
35917,77768,4
35924,77789,5
35925,77797,5
35929,77804,5
35947,77826,4
35944,77841,5
35953,77852,5
35957,77862,5
35966,77877,5
35972,77907,4
35977,77924,5
35993,77946,5
36004,77971,5
36023,77997,5
36028,78015,4
36034,78029,6
36042,78052,4
36055,78059,5
36055,78071,5
36069,78081,4
36078,78090,5
36071,78105,5
36070,78114,5
36085,78142,5
36095,78155,4
36100,78164,5
36111,78167,5
36106,78180,5
36112,78188,4
36117,78200,5
36119,78198,5
36121,78218,5
36137,78238,5
36139,78242,4
36147,78255,5
36148,78273,5
36159,78294,5
36172,78307,5
36175,78306,4
36178,78313,5
36170,78318,6
36172,78317,4
36167,78316,5
36169,78311,4
36177,78319,5
36185,78338,5
36183,78340,5
36189,78351,5
36205,78373,4
36214,78388,5
36224,78414,5
36223,78429,5
36238,78447,4
36246,78456,4
36269,78473,5
36259,78485,5
36258,78496,5
36269,78518,4
36288,78529,5
36289,78540,5
36291,78557,5
36292,78572,5
36306,78587,4
36306,78603,5
36319,78633,5
36321,78635,6
36330,78643,4
36336,78647,4
36340,78657,5
36329,78665,5
36351,78673,5
36347,78686,5
36356,78697,4
36366,78724,5
36368,78711,5
36366,78727,5
36370,78733,5
36371,78727,4
36382,78732,5
36383,78741,5
36384,78749,5
36383,78755,4
36390,78776,4
36395,78787,5
36397,78790,5
36405,78798,5
36403,78822,5
36422,78820,4
36416,78835,5
36418,78835,5
36430,78841,5
36426,78851,4
36437,78853,5
36438,78875,5
36443,78881,5
36444,78886,5
36445,78882,4
36454,78897,5
36461,78907,5
36461,78915,5
36467,78926,5
36460,78940,4
36471,78945,5
36480,78960,5
36485,78965,5
36492,78973,5
36487,78980,4
36489,78985,5
36498,78982,5
36489,78991,5
36501,78993,4
36496,78977,6
36476,78944,4
36455,78863,5
36391,78728,5
36323,78582,4
36262,78445,5
36214,78336,5
36169,78226,5
36116,78127,5
36061,77977,4
35991,77803,5
35904,77595,5
35780,77299,5
35631,76995,5
35509,76697,4
35383,76418,5
35267,76180,5
35175,75987,5
35098,75822,5
35033,75682,4
34988,75554,5
34920,75412,5
34847,75250,5
34771,75070,4
34701,74918,4
34634,74774,6
34578,74634,4
34510,74495,5
34440,74347,4
34386,74206,5
34310,74063,5
34263,73943,5
34204,73815,5
34150,73695,4
34098,73574,5
34055,73489,5
34003,73390,5
33968,73301,5
33931,73204,4
33873,73091,5
33832,72990,5
33781,72872,5
33741,72770,5
33701,72685,4
33653,72603,5
33613,72522,5
33588,72454,5
33562,72366,5
33524,72275,4
33480,72165,5
33414,72023,5
33357,71907,5
33311,71790,4
33277,71711,4
33246,71635,5
33212,71560,5
33172,71503,5
33155,71454,4
33135,71402,5
33126,71380,5
33123,71344,5
33092,71295,5
33084,71286,4
33081,71293,5
33089,71299,5
33098,71319,5
33103,71331,5
33107,71331,4
33108,71351,4
33123,71395,5
33152,71455,5
33186,71532,5
33221,71618,3
33264,71692,5
33285,71760,5
33309,71803,5
33315,71835,5
33332,71867,4
33351,71914,5
33372,71970,5
33402,72029,5
33433,72100,4
33455,72143,4
33465,72159,5
33462,72149,5
33470,72155,5
33471,72167,4
33500,72214,5
33528,72283,5
33545,72337,5
33571,72410,5
33611,72494,4
33652,72588,6
33694,72658,4
33728,72750,5
33764,72828,5
33798,72902,6
33826,72980,3
33871,73066,5
33906,73160,5
33943,73261,5
33985,73366,4
34009,73425,5
34029,73462,5
34049,73515,5
34069,73591,5
34104,73687,5
34149,73791,4
34190,73920,5
34236,74044,5
34309,74200,4
34364,74381,4
34451,74598,5
34530,74799,5
34636,75038,5
34728,75269,4
34829,75543,5
34928,75791,6
35030,76040,4
35102,76241,5
35179,76461,4
35272,76668,7
35335,76821,3
35390,76929,5
35404,76980,5
35389,76963,4
35361,76918,5
35325,76827,5
35241,76636,5
35147,76428,5
35027,76147,7
34887,75847,2
34766,75538,5
34594,75220,5
34437,74815,5
34254,74411,4
34066,74043,5
33915,73720,5
33788,73441,5
33660,73207,4
33563,73010,4
33502,72875,5
33454,72786,6
33449,72794,4
33473,72857,4
33492,72885,5
33484,72870,5
33496,72873,5
33530,72945,5
33587,73084,4
33684,73319,5
33849,73687,5
34085,74182,5
34315,74685,5
34544,75125,4
34743,75553,5
34976,76087,5
35287,76783,5
35617,77478,5
35919,78103,4
36224,78774,5
36524,79429,5
36782,79940,5
37043,80508,5
37273,80967,4
37451,81330,5
37541,81481,5
37563,81520,6
37552,81478,3
37526,81443,4
37539,81471,5
37552,81490,5
37551,81513,5
37566,81529,4
37566,81503,5
37554,81485,5
37519,81394,5
37476,81320,5
37456,81268,4
37460,81278,5
37498,81346,5
37543,81446,5
37571,81536,5
37618,81597,4
37642,81657,5
37654,81691,5
37673,81739,5
37703,81756,5
37687,81762,5
37721,81838,4
37777,81957,5
37820,82053,5
37859,82115,6
37887,82147,3
37890,82152,5
37910,82213,5
37942,82289,5
37982,82361,4
38000,82422,4
38022,82448,5
38029,82459,5
38055,82506,5
38055,82493,4
38032,82443,5
37987,82355,5
37951,82302,5
37939,82258,5
37908,82182,4
37859,82090,5
37805,81994,5
37750,81814,5
37661,81626,5
37573,81458,4
37498,81307,6
37430,81167,4
37396,81099,5
37367,81033,5
37337,80949,4
37264,80807,5
37187,80633,5
37111,80450,5
37056,80315,5
36986,80195,4
36924,80058,5
36872,79963,5
36809,79793,5
36743,79703,4
36718,79614,4
36679,79532,5
36639,79438,5
36589,79320,5
36523,79196,4
36486,79092,5
36444,79010,5
36409,78928,5
36367,78842,5
36326,78756,4
36293,78674,5
36261,78607,6
36237,78555,4
36207,78497,5
36172,78435,4
36150,78369,5
36105,78274,5
36072,78212,5
36043,78146,5
36009,78072,4
35984,78002,5
35951,77914,5
35900,77832,5
35857,77736,5
35816,77657,4
35783,77584,5
35754,77526,5
35724,77450,5
35686,77368,4
35657,77297,4
35625,77244,5
35592,77177,5
35570,77118,5
35540,77048,4
35510,76980,5
35468,76884,5
35424,76805,6
35376,76698,4
35321,76581,4
35251,76434,5
35190,76297,5
35148,76206,5
35114,76146,5
35081,76103,4
35066,76062,5
35044,76032,5
35023,75969,5
34990,75889,5
34940,75779,4
34897,75677,5
34848,75612,5
34825,75549,5
34795,75512,5
34778,75472,4
34748,75419,5
34725,75356,5
34683,75264,5
34629,75134,5
34531,74933,4
34417,74692,5
34317,74497,5
34216,74307,6
34136,74141,3
34056,73964,5
33970,73793,5
33891,73627,5
33822,73512,5
33801,73471,4
33772,73434,5
33764,73361,5
33749,73314,5
33727,73275,5
33698,73221,4
33703,73222,5
33701,73196,5
33699,73202,5
33707,73237,5
33754,73320,4
33783,73391,5
33818,73434,5
33834,73470,5
33856,73504,5
33841,73457,5
33827,73404,4
33798,73382,5
33807,73405,5
33833,73430,4
33872,73519,5
33941,73645,5
33981,73679,5
33928,73567,5
33870,73468,4
33861,73449,5
33842,73416,5
33859,73430,5
33879,73507,5
33911,73557,4
33936,73608,5
33983,73720,5
34040,73827,5
34076,73885,5
34109,73955,4
34141,74018,5
34174,74106,5
34233,74271,5
34344,74509,5
34469,74777,4
34589,75022,6
34696,75229,4
34780,75435,5
34892,75685,4
35034,75985,4
35168,76269,5
35290,76501,5
35393,76755,5
35518,77043,4
35690,77409,5
35862,77745,5
35997,78020,5
36105,78262,5
36215,78499,4
36322,78719,5
36418,78933,5
36483,79087,5
36553,79230,5
36635,79391,4
36727,79598,5
36834,79875,5
36969,80121,5
37072,80335,5
37162,80539,4
37250,80694,5
37272,80760,6
37293,80783,4
37291,80782,5
37290,80786,4
37293,80792,5
37302,80825,5
37325,80893,5
37361,80940,4
37344,80920,4
37341,80905,5
37334,80908,5
37364,80968,5
37384,81018,4
37388,81039,5
37397,81031,5
37374,80972,5
37343,80908,5
37326,80881,5
37319,80851,4
37275,80751,5
37226,80640,5
37157,80492,6
37090,80355,3
37034,80226,5
36977,80102,5
36913,79998,5
36877,79907,5
36845,79834,4
36824,79821,5
36828,79829,5
36810,79776,5
36787,79714,5
36796,79722,4
36783,79722,5
36811,79764,5
36826,79795,5
36834,79832,4
36866,79877,4
36878,79940,5
36918,80021,5
36911,79971,5
36875,79880,4
36836,79787,5
36784,79677,5
36712,79495,5
36608,79277,5
36525,79079,5
36445,78948,4
36414,78868,5
36371,78777,5
36327,78656,5
36283,78564,4
36233,78440,5
36180,78341,5
36143,78281,5
36128,78220,5
36112,78167,4
36065,78070,5
36015,77990,5
35997,77939,5
35987,77892,5
35957,77844,4
35926,77766,5
35896,77718,5
35892,77706,5
35883,77662,4
35866,77628,4
35848,77603,5
35852,77614,5
35868,77659,5
35908,77742,4
35953,77839,6
36002,77935,4
36032,77981,5
36044,78005,5
36059,78033,4
36072,78060,5
36101,78097,5
36111,78128,5
36132,78149,5
36147,78207,4
36181,78282,5
36237,78388,5
36280,78482,5
36340,78592,5
36396,78730,4
36471,78890,5
36552,79048,5
36616,79168,5
36666,79299,5
36721,79416,4
36806,79589,5
36907,79820,5
37043,80117,4
37196,80427,4
37358,80802,4
37551,81188,5
37743,81578,5
37924,81974,5
38106,82356,4
38324,82802,5
38560,83283,5
38794,83778,5
39022,84231,5
39190,84588,4
39351,84922,5
39500,85272,5
39696,85699,5
39916,86207,5
40199,86789,4
40481,87373,5
40795,88096,5
41162,88856,5
41487,89464,5
41735,90023,4
42004,90592,5
42302,91281,5
42682,92046,6
43012,92749,4
43328,93415,4
43649,94090,5
43975,94757,5
44302,95500,5
44695,96259,4
45029,96998,4
45394,97701,5
45713,98352,5
45990,98317,5
46255,98880,4
46484,99327,5
46635,99639,5
46757,99902,5
46859,100138,5
47004,100415,4
47117,100637,5
47179,100759,5
47221,100870,5
47274,100989,5
47326,101123,5
47357,101176,4
47364,101160,5
47322,101079,5
47254,100968,6
47235,100948,3
47235,100920,5
47239,100976,5
47283,101063,5
47316,101129,5
47342,101149,4
47313,101094,5
47251,100950,5
47186,100822,5
47091,100628,4
46984,100414,4
46863,100170,5
46745,99943,5
46646,99727,5
46529,99505,4
46444,99334,5
46374,99172,5
46280,98967,5
46192,98807,5
46093,98600,5
45994,98409,5
45941,98307,4
45907,98240,5
45874,98155,5
45835,98097,6
45803,98027,3
45766,97951,5
45745,97926,5
45739,97903,5
45726,97878,4
45706,97850,5
45700,97859,5
45703,97833,5
45676,97792,5
45673,97752,4
45662,97740,5
45654,97694,5
45622,97636,5
45576,97535,4
45526,97436,4
45492,97374,5
45481,97351,5
45449,97293,5
45413,97200,4
45385,97130,5
45369,97094,6
45359,97077,5
45335,97053,4
45339,97051,4
45340,97059,5
45343,97066,5
45347,97070,5
45345,97072,5
45347,97069,4
45332,97035,5
45304,96975,5
45265,96891,5
45241,96862,5
45229,96840,4
45217,96823,5
45217,96823,5
45225,96851,5
45232,96865,5
45239,96875,4
45231,96862,5
45227,96834,5
45200,96782,5
45197,96770,4
45185,96759,4
45182,96759,5
45175,96724,6
45162,96688,4
45127,96637,4
45112,96617,5
45102,96583,5
45085,96556,5
45049,96489,5
45018,96414,4
44999,96376,5
44981,96370,5
44972,96342,5
44972,96355,5
44987,96373,4
44994,96393,5
45000,96405,5
45005,96415,5
45008,96408,5
44997,96394,4
44981,96373,5
44973,96357,5
44965,96329,5
44938,96258,5
44892,96142,4
44818,96012,5
44759,95883,5
44721,95796,6
44667,95703,3
44630,95633,4
44606,95575,5
44582,95538,5
44568,95498,5
44518,95414,4
44486,95343,5
44461,95297,5
44448,95267,5
44431,95244,5
44426,95239,4
44430,95254,5
44420,95253,5
44441,95314,5
44481,95376,5
44513,95467,4
44544,95520,5
44570,95585,5
44598,95641,5
44621,95681,5
44648,95738,5
44670,95792,4
44690,95847,5
44725,95938,5
44759,96008,5
44788,96071,4
44828,96158,5
44905,96314,5
44993,96536,5
45115,96771,4
45213,96995,4
45339,97257,5
45490,97554,5
45645,97886,5
45797,98176,4
45917,98398,5
46025,98627,5
46120,98813,5
46215,98994,5
46281,99135,4
46348,99241,5
46365,99285,5
46385,99286,5
46376,99259,5
46342,99202,4
46312,99150,6
46303,99122,4
46312,99130,5
46312,99121,5
46269,99020,4
46202,98870,5
46140,98742,5
46062,98585,5
45992,98457,5
45954,98353,4
45903,98261,5
45854,98161,5
45803,98060,5
45746,97931,4
45695,97824,4
45624,97692,5
45558,97525,5
45479,97372,5
45403,97216,4
45326,97050,6
45245,96890,4
45146,96693,5
45053,96487,5
44955,96288,4
44851,96058,5
44747,95852,6
44646,95645,4
44577,95481,5
44508,95356,4
44453,95250,5
44400,95124,5
44344,95017,5
44288,94910,5
44242,94819,4
44200,94727,5
44150,94618,5
44105,94540,5
44077,94482,5
44063,94445,4
44046,94457,5
44059,94469,5
44085,94489,5
44099,94546,4
44125,94609,4
44151,94659,5
44182,94747,5
44226,94824,5
44265,94910,4
44296,94983,5
44334,95048,5
44369,95117,6
44397,95163,4
44420,95208,4
44440,95256,5
44461,95298,5
44483,95347,5
44508,95402,5
44534,95462,4
44569,95512,5
44606,95584,5
44623,95640,5
44653,95698,5
44674,95743,4
44694,95785,5
44722,95817,5
44731,95855,5
44743,95912,5
44774,95945,4
44800,95985,5
44808,96008,5
44810,96020,5
44823,96060,5
44847,96075,4
44849,96074,5
44841,96079,5
44839,96075,5
44849,96073,4
44842,96071,5
44853,96073,5
44859,96106,5
44851,96111,5
44863,96105,4
44872,96102,5
44859,96094,5
44844,96064,5
44836,96040,5
44828,96014,4
44817,95990,5
44796,95965,5
44787,95919,5
44754,95876,5
44738,95839,4
44725,95810,5
44723,95784,5
44709,95765,5
44683,95732,5
44683,95714,5
44677,95698,4
44666,95676,5
44655,95646,5
44636,95585,4
44613,95572,4
44592,95515,5
44559,95441,5
44518,95363,5
44502,95306,4
44470,95249,5
44454,95216,5
44431,95187,5
44420,95142,5
44409,95116,4
44392,95082,5
44364,95033,5
44344,94975,5
44327,94943,5
44295,94893,4
44279,94838,5
44254,94773,5
44219,94714,5
44192,94650,5
44166,94585,4
44125,94506,6
44093,94442,4
44063,94372,5
44036,94316,5
44008,94261,4
43986,94210,5
43957,94137,5
43920,94058,5
43878,93960,4
43836,93880,4
43782,93762,5
43743,93672,5
43685,93548,5
43644,93448,4
43591,93333,5
43536,93225,5
43483,93103,5
43433,92990,5
43391,92889,4
43338,92792,5
43282,92681,5
43251,92591,5
43194,92496,5
43169,92436,4
43155,92397,5
43138,92361,5
43129,92339,5
43118,92315,5
43080,92264,4
43063,92194,5
43028,92126,5
42989,92041,5
42965,91975,5
42919,91887,4
42883,91811,5
42841,91726,5
42809,91634,5
42763,91550,4
42716,91461,4
42675,91338,5
42620,91247,5
42571,91141,5
42532,91062,4
42496,90978,5
42454,90907,5
42427,90839,5
42383,90742,5
42344,90667,4
42310,90578,5
42268,90498,5
42226,90407,5
42190,90324,5
42150,90242,4
42120,90172,5
42083,90095,5
42048,90021,5
42022,89948,5
42003,89922,4
41984,89880,5
41962,89849,5
41957,89815,5
41937,89774,5
41916,89736,4
41890,89678,5
41872,89634,5
41847,89603,5
41839,89561,4
41823,89528,6
41809,89508,4
41798,89476,5
41790,89445,5
41777,89428,6
41763,89406,3
41764,89390,5
41749,89358,5
41741,89340,5
41740,89338,4
41724,89314,5
41726,89285,5
41699,89257,5
41694,89210,5
41663,89165,4
41656,89137,5
41629,89081,5
41604,89047,5
41591,89015,5
41578,88976,4
41561,88950,5
41536,88898,5
41521,88863,5
41507,88831,4
41497,88794,4
41493,88783,6
41492,88787,4
41475,88771,5
41467,88746,4
41458,88721,7
41449,88685,3
41425,88655,5
41404,88605,5
41396,88579,4
41391,88550,5
41369,88519,5
41355,88484,5
41334,88437,5
41313,88401,4
41294,88352,5
41266,88306,5
41258,88273,5
41234,88240,5
41213,88213,4
41204,88197,5
41199,88166,5
41185,88139,5
41179,88099,5
41144,88060,4
41118,88003,5
41102,87950,6
41076,87911,4
41061,87871,4
41042,87824,4
41016,87778,5
40995,87725,5
40978,87692,5
40960,87652,4
40943,87628,5
40942,87613,5
40937,87587,5
40932,87581,5
40914,87552,4
40897,87512,5
40881,87466,5
40859,87431,5
40846,87397,5
40817,87370,4
40812,87350,5
40800,87324,5
40801,87317,5
40789,87311,5
40801,87292,4
40789,87274,5
40778,87271,5
40772,87259,6
40765,87241,4
40765,87235,4
40750,87199,5
40745,87181,5
40723,87148,5
40704,87116,4
40684,87072,4
40673,87038,5
40652,86993,5
40630,86955,5
40614,86907,4
40580,86830,5
40547,86753,5
40508,86690,5
40481,86650,5
40465,86586,4
40441,86552,5
40421,86518,5
40407,86488,5
40387,86442,5
40380,86412,5
40354,86362,4
40326,86309,5
40298,86224,5
40264,86173,6
40235,86113,3
40203,86025,5
40170,85967,5
40140,85889,5
40112,85829,5
40070,85769,4
40054,85696,5
40002,85609,5
39970,85529,5
39933,85463,4
39894,85385,4
39869,85309,5
39835,85230,5
39789,85169,5
39761,85071,4
39710,84975,5
39671,84890,5
39632,84825,5
39603,84758,5
39573,84703,4
39551,84628,6
39522,84574,4
39496,84519,5
39464,84464,5
39454,84428,4
39425,84386,5
39408,84343,5
39396,84319,5
39389,84279,5
39376,84259,4
39371,84234,5
39348,84195,5
39336,84155,5
39313,84124,7
39294,84087,2
39275,84047,5
39253,84007,5
39244,83967,5
39230,83932,4
39209,83898,4
39200,83869,5
39164,83820,5
39151,83779,5
39137,83740,4
39118,83705,5
39098,83666,6
39088,83640,4
39071,83600,5
39054,83554,4
39027,83511,5
39015,83475,5
39000,83430,5
38976,83388,5
38947,83349,4
38940,83298,5
38922,83279,5
38914,83250,5
38902,83233,5
38903,83223,4
38896,83221,5
38893,83209,5
38883,83183,5
38864,83160,5
38847,83119,4
38846,83107,5
38833,83089,5
38829,83093,5
38830,83081,4
38833,83081,4
38837,83080,5
38840,83098,6
38856,83153,4
38903,83257,4
38969,83414,5
39072,83646,5
39188,83868,10
39314,84133,5
39432,84381,7
39088,83640,8
39621,84780,5
40013,85616,7
40013,85616,8
40103,85780,5
40157,85925,7
40227,86053,8
40276,86185,7
40334,86314,5
40520,86677,8
40520,86677,7
40534,86752,5
40582,86826,8
40630,86918,7
40670,87020,7
40969,87645,8
40969,87645,7
41024,87784,5
41092,87923,8
41161,88025,7
41219,88191,10
41438,88626,9
41438,88626,10
41474,88705,9
41498,88776,5
41608,88996,8
41608,88996,7
41581,89046,9
41653,89087,10
41752,89289,9
41752,89289,10
41764,89306,9
41840,89479,10
41840,89479,5
41865,89516,5
41876,89553,10
41893,89607,5
41931,89679,5
41977,89782,10
42117,90059,5
42117,90059,5
42131,90089,10
42140,90099,5
42141,90114,5
42166,90122,10
42183,90160,5
42196,90194,5
42295,90461,10
42295,90461,5
42313,90441,7
42340,90529,8
42361,90608,9
42456,90774,10
42456,90774,5
42469,90776,7
42472,90804,8
42468,90795,5
42485,90825,7
42482,90858,8
42552,90970,5
42552,90970,7
42567,91015,8
42578,91027,5
42590,91071,7
42612,91108,8
42635,91122,5
42603,91106,7
42599,91088,8
42599,91088,5
42596,91021,7
42585,91044,8
42580,91034,9
42576,91046,8
42576,91046,5
42610,91050,7
42576,91064,8
42581,91063,5
42583,91062,7
42583,91094,8
42593,91088,5
42584,91051,7
42584,91051,8
42580,91029,5
42559,91023,7
42565,91008,8
42560,91014,7
42544,91013,5
42604,91099,8
42604,91099,7
42606,91091,5
42591,91070,8
42591,91090,7
42605,91093,9
42649,91209,10
42649,91209,9
42663,91233,8
42675,91276,7
42745,91419,6
42745,91419,3
42758,91442,4
42769,91459,5
42772,91480,5
42790,91511,5
42797,91535,5
42804,91546,4
42824,91550,5
42809,91552,5
42807,91529,5
42796,91520,5
42791,91492,5
42768,91466,4
42760,91428,5
42742,91396,5
42729,91365,4
42713,91320,4
42675,91268,5
42665,91228,5
42654,91205,5
42638,91199,4
42627,91160,5
42622,91136,5
42595,91102,5
42587,91069,5
42572,91041,4
42558,91020,5
42554,91021,5
42558,91014,5
42578,91033,5
42579,91056,4
42582,91080,5
42599,91109,6
42617,91128,4
42625,91142,5
42635,91165,4
42629,91174,6
42647,91183,3
42650,91199,5
42644,91190,5
42653,91193,4
42646,91185,5
42644,91172,5
42640,91180,5
42642,91168,4
42641,91166,4
42640,91171,5
42633,91160,5
42630,91163,5
42637,91166,4
42639,91172,5
42637,91166,5
42635,91151,5
42614,91124,5
42606,91126,4
42607,91120,5
42605,91108,5
42606,91114,6
42605,91101,4
42607,91116,4
42601,91112,5
42612,91131,5
42624,91133,5
42618,91154,5
42637,91168,4
42657,91207,5
42663,91217,5
42659,91229,5
42672,91267,5
42688,91289,4
42704,91321,5
42726,91360,5
42743,91390,5
42758,91442,4
42780,91501,5
42817,91548,5
42839,91612,5
42852,91644,5
42875,91665,5
42876,91670,4
42888,91683,5
42890,91702,5
42901,91715,6
42903,91719,3
42904,91741,5
42913,91767,5
42923,91782,5
42923,91767,5
42924,91760,4
42912,91754,5
42921,91760,5
42928,91767,5
42932,91784,5
42940,91812,4
42965,91863,5
42974,91875,5
42994,91898,5
42989,91905,5
42994,91908,4
42992,91909,5
43004,91914,5
43004,91921,5
43008,91928,4
43017,91949,6
43018,91943,4
43026,91943,5
43021,91949,5
43019,91961,6
43022,91951,3
43025,91947,5
43022,91961,5
43031,91966,5
43033,91979,4
43034,91982,5
43045,92003,5
43055,92016,5
43050,92001,5
43031,91965,4
43015,91916,5
42992,91872,5
42969,91837,5
42959,91801,5
42943,91796,4
42937,91798,5
42941,91782,5
42941,91797,5
42946,91796,4
42945,91812,4
42954,91817,6
42960,91834,4
42972,91845,5
42988,91865,4
42986,91881,5
42995,91889,5
42996,91887,5
43004,91898,5
42996,91892,4
42997,91884,5
43000,91891,5
42988,91896,5
42988,91882,5
42980,91885,4
42982,91879,5
42981,91862,5
42970,91864,5
42972,91850,5
42980,91847,4
42976,91864,5
42975,91873,5
42972,91876,5
42987,91890,5
42988,91901,4
42995,91899,5
42990,91881,6
42969,91850,4
42955,91821,4
42957,91815,4
42944,91793,5
42938,91779,5
42944,91779,5
42950,91793,4
42957,91828,5
42969,91858,5
42976,91879,5
42999,91886,5
42989,91909,4
43008,91916,5
43008,91923,5
43005,91929,5
43014,91941,5
43018,91936,4
43019,91946,5
43021,91942,5
43024,91948,5
43029,91947,5
43028,91951,4
43022,91965,5
43033,91975,5
43041,91991,6
43044,92002,4
43051,91997,4
43052,91997,5
43044,91984,5
43044,91981,5
43030,91970,4
43028,91962,4
43029,91958,5
43025,91954,5
43018,91951,5
43026,91950,5
43023,91948,4
43022,91963,5
43019,91961,5
43023,91958,5
43013,91947,4
43012,91923,5
42998,91910,5
42989,91883,5
42966,91833,5
42938,91756,5
42904,91662,4
42837,91564,5
42801,91472,5
42748,91361,6
42685,91262,3
42651,91162,5
42580,91014,5
42511,90870,5
42450,90736,5
42389,90602,4
42327,90502,5
42282,90410,5
42247,90331,5
42223,90264,4
42187,90204,4
42162,90150,5
42130,90083,5
42107,90019,5
42060,89941,4
42019,89864,5
41984,89782,5
41963,89713,5
41916,89647,5
41887,89592,4
41846,89493,6
41791,89375,5
41760,89303,4
41720,89250,5
41714,89206,4
41686,89148,5
41663,89117,5
41644,89082,5
41637,89065,5
41630,89049,4
41623,89045,5
41619,89034,5
41616,89027,5
41612,89020,5
41620,89021,4
41611,89019,5
41612,89007,5
41596,88998,5
41598,88987,4
41589,88989,4
41601,88987,5
41588,88991,5
41595,88998,5
41598,88996,4
41597,89008,5
41601,89008,6
41607,89028,4
41614,89051,5
41627,89070,4
41632,89089,5
41653,89118,5
41659,89138,5
41665,89153,5
41674,89167,4
41673,89175,5
41679,89173,5
41689,89197,5
41692,89192,5
41695,89189,4
41698,89193,5
41689,89201,5
41700,89199,5
41699,89217,5
41707,89217,4
41707,89234,5
41719,89248,5
41726,89245,5
41719,89258,4
41722,89248,4
41723,89261,5
41736,89263,6
41725,89252,4
41732,89253,4
41726,89245,5
41726,89236,5
41721,89254,5
41721,89246,5
41721,89249,4
41731,89275,5
41745,89279,5
41746,89306,5
41755,89334,5
41776,89352,4
41782,89385,5
41802,89404,5
41811,89431,5
41822,89466,5
41832,89490,4
41857,89518,5
41866,89569,5
41887,89601,5
41875,89580,5
41875,89559,4
41865,89531,5
41863,89522,5
41850,89506,5
41858,89524,4
41862,89529,4
41868,89556,5
41888,89587,5
41907,89618,5
41912,89651,4
41919,89684,5
41951,89707,5
41955,89741,5
41967,89775,5
41987,89806,4
42015,89847,5
42026,89902,5
42056,89949,5
42067,89981,5
42091,90041,4
42132,90095,5
42142,90149,5
42173,90208,5
42205,90263,5
42237,90324,5
42259,90396,4
42290,90448,5
42316,90497,5
42333,90545,5
42360,90583,4
42374,90604,5
42378,90615,5
42386,90638,5
42389,90647,4
42399,90676,5
42408,90689,4
42415,90706,5
42425,90718,5
42436,90748,4
42446,90777,5
42456,90782,5
42464,90804,5
42465,90825,5
42469,90841,4
42482,90858,5
42492,90864,5
42494,90880,5
42507,90901,5
42518,90936,4
42524,90951,6
42542,90960,4
42553,90989,5
42554,91011,5
42570,91026,4
42572,91045,5
42580,91054,5
42592,91056,5
42587,91069,5
42596,91083,4
42600,91097,5
42607,91109,5
42624,91132,5
42624,91150,4
42636,91167,4
42642,91188,5
42654,91202,5
42664,91211,5
42669,91226,4
42669,91233,5
42679,91240,5
42688,91258,5
42690,91273,5
42694,91286,4
42699,91299,5
42720,91324,7
42730,91322,3
42715,91298,5
42700,91280,4
42695,91252,5
42684,91240,5
42681,91233,5
42679,91244,5
42695,91275,4
42704,91303,5
42727,91338,5
42746,91376,5
42756,91400,5
42764,91418,4
42778,91438,5
42782,91461,5
42797,91461,5
42798,91479,4
42799,91499,4
42803,91501,5
42798,91506,5
42812,91511,5
42811,91505,4
42809,91510,5
42824,91514,5
42822,91538,5
42826,91536,5
42833,91557,4
42830,91558,5
42839,91565,5
42840,91561,5
42839,91571,5
42837,91564,4
42840,91568,5
42835,91571,5
42841,91562,5
42835,91558,5
42834,91565,4
42837,91565,5
42832,91566,5
42841,91562,5
42848,91562,5
42837,91564,4
42832,91558,4
42836,91559,5
42836,91559,5
42831,91562,6
42836,91550,3
42822,91552,5
42828,91547,5
42830,91550,5
42829,91554,4
42830,91554,5
42832,91545,5
42831,91546,5
42826,91553,5
42829,91555,4
42832,91546,5
42833,91552,5
42831,91551,5
42837,91548,5
42823,91545,4
42826,91541,5
42832,91545,5
42835,91542,5
42826,91543,5
42824,91539,4
42822,91533,6
42822,91532,4
42835,91532,5
42822,91525,5
42824,91530,6
42825,91526,3
42827,91533,5
42827,91534,5
42823,91540,4
42827,91531,4
42836,91540,5
42833,91546,5
42835,91551,5
42844,91560,4
42842,91562,5
42836,91564,5
42852,91561,5
42835,91573,5
42846,91577,4
42845,91589,5
42852,91605,5
42860,91606,5
42865,91606,5
42858,91611,4
42867,91614,5
42861,91630,6
42865,91617,4
42853,91574,5
42832,91529,4
42815,91499,5
42796,91479,5
42775,91453,5
42785,91466,5
42798,91490,4
42813,91511,5
42825,91542,5
42839,91564,5
42843,91585,4
42860,91605,4
42870,91621,5
42862,91632,5
42874,91643,5
42880,91662,4
42889,91666,5
42892,91670,5
42894,91677,5
42885,91683,5
42899,91678,4
42895,91684,5
42905,91689,5
42897,91696,6
42905,91691,4
42907,91697,4
42904,91701,5
42911,91696,5
42911,91714,5
42907,91722,5
42910,91715,4
42916,91724,5
42920,91726,5
42915,91720,5
42914,91708,4
42913,91714,4
42908,91720,5
42918,91719,5
42920,91718,5
42926,91738,4
42926,91738,5
42933,91740,5
42923,91747,5
42933,91737,5
42928,91742,5
42932,91736,4
42924,91741,5
42937,91752,5
42931,91747,6
42931,91744,3
42929,91738,5
42928,91755,5
42929,91749,5
42927,91759,5
42931,91751,4
42931,91749,5
42934,91748,5
42932,91757,5
42931,91768,5
42940,91766,4
42931,91760,5
42938,91764,5
42935,91760,5
42946,91748,4
42932,91750,4
42935,91751,5
42933,91749,5
42928,91754,5
42937,91754,4
42933,91749,6
42927,91742,4
42927,91746,5
42924,91745,5
42932,91739,6
42923,91746,3
42922,91742,5
42924,91738,5
42919,91728,5
42925,91734,4
42914,91719,5
42914,91724,5
42920,91726,5
42927,91724,5
42918,91731,4
42921,91723,5
42926,91734,5
42924,91740,5
42939,91737,5
42917,91732,4
42919,91741,5
42919,91734,5
42928,91730,5
42917,91728,4
42914,91732,4
42914,91733,6
42914,91724,4
42919,91726,5
42910,91725,4
42922,91715,5
42914,91715,5
42911,91728,5
42917,91723,5
42921,91718,4
42912,91723,5
42916,91737,5
42904,91732,5
42923,91733,5
42925,91732,4
42929,91741,5
42908,91734,5
42914,91734,5
42926,91727,5
42919,91724,4
42931,91739,5
42915,91726,5
42916,91735,5
42924,91745,5
42929,91752,4
42940,91738,5
42917,91717,6
42910,91669,4
42885,91624,4
42860,91619,5
42851,91602,5
42857,91609,5
42870,91629,5
42877,91646,4
42891,91675,5
42904,91701,5
42908,91710,5
42919,91737,5
42920,91759,4
42931,91764,5
42931,91762,5
42938,91777,5
42946,91780,5
42953,91789,4
42949,91786,5
42950,91798,5
42948,91801,5
42952,91804,5
42956,91810,4
42957,91818,5
42965,91824,5
42958,91821,6
42967,91821,3
42972,91826,4
42963,91826,5
42970,91830,5
42966,91846,5
42984,91854,4
42978,91864,5
42989,91868,5
42986,91874,5
42977,91865,5
42983,91858,4
42973,91851,5
42982,91862,5
42982,91875,5
42985,91874,5
42992,91879,4
42988,91877,5
42984,91874,5
42992,91887,5
42996,91888,5
42995,91879,5
43003,91882,4
43001,91887,5
42994,91889,5
42999,91888,5
43003,91894,4
42993,91899,5
43004,91896,5
43006,91904,5
43009,91896,4
43010,91911,4
43011,91918,5
43006,91918,5
43016,91918,7
43011,91919,2
43013,91925,5
43017,91920,5
43008,91922,5
43014,91918,5
43014,91925,4
43006,91914,5
43011,91912,5
43004,91907,5
43014,91909,5
43012,91908,4
43002,91913,6
43010,91916,4
43005,91908,5
43008,91919,5
43009,91918,4
43009,91913,5
43011,91920,5
43001,91918,5
43007,91927,5
43010,91933,4
43018,91924,5
43016,91923,5
43021,91935,5
43022,91942,4
43020,91936,5
43031,91944,5
43022,91941,5
43027,91941,5
43019,91952,4
43021,91958,5
43026,91958,5
43033,91960,5
43033,91962,5
43030,91961,4
43034,91964,5
43032,91977,6
43025,91963,4
43034,91962,5
43031,91974,4
43027,91973,5
43041,91974,5
43031,91979,5
43030,91975,5
43032,91966,4
43028,91953,5
43015,91956,5
43018,91959,5
43029,91960,4
43027,91962,4
43029,91967,5
43023,91966,5
43024,91964,5
43029,91970,4
43037,91975,5
43030,91988,5
43030,91983,5
43043,92009,5
43048,92011,4
43045,92018,5
43051,92008,5
43049,92017,5
43059,92026,5
43048,92036,4
43061,92032,5
43056,92032,5
43072,92061,5
43061,92053,5
43060,92014,4
43034,91973,5
43010,91923,5
42993,91902,5
42986,91893,5
43001,91905,4
43001,91921,5
43018,91947,5
43019,91968,5
43032,91988,4
43035,91994,5
43054,92013,4
43056,92028,5
43061,92038,5
43067,92054,5
43075,92059,3
43076,92077,5
43090,92083,5
43091,92086,5
43090,92102,4
43091,92109,5
43090,92105,5
43097,92120,5
43099,92112,5
43107,92126,4
43106,92120,5
43103,92115,5
43106,92116,5
43099,92117,5
43099,92126,4
43108,92123,5
43111,92132,5
43114,92133,5
43105,92142,5
43119,92154,5
43116,92158,4
43118,92151,5
43127,92145,5
43115,92138,4
43113,92149,5
43114,92136,4
43111,92137,5
43125,92146,5
43110,92159,4
43121,92160,5
43122,92163,5
43126,92166,5
43121,92164,5
43126,92169,4
43127,92173,5
43125,92172,5
43127,92180,5
43130,92177,5
43133,92182,4
43136,92193,5
43133,92194,5
43143,92187,5
43130,92203,5
43135,92198,4
43136,92192,5
43142,92204,5
43140,92196,5
43145,92196,5
43139,92194,4
43144,92192,6
43139,92189,4
43138,92178,5
43137,92189,4
43143,92176,4
43133,92184,5
43125,92185,5
43127,92182,5
43128,92182,4
43140,92183,5
43135,92198,5
43135,92184,5
43133,92195,5
43145,92186,4
43135,92188,5
43129,92190,5
43139,92186,5
43129,92186,5
43129,92182,4
43132,92190,5
43127,92187,5
43134,92199,6
43139,92184,4
43131,92177,4
43135,92178,5
43128,92179,5
43134,92184,5
43130,92182,5
43129,92189,4
43133,92199,5
43139,92194,5
43135,92187,5
43139,92189,4
43133,92188,4
43142,92188,5
43136,92178,5
43138,92184,5
43133,92184,4
43135,92180,5
43129,92183,5
43124,92171,5
43128,92172,5
43135,92169,5
43135,92164,4
43126,92156,5
43126,92172,5
43125,92161,6
43126,92162,3
43131,92157,5
43133,92173,5
43121,92162,5
43117,92155,5
43117,92166,4
43123,92167,5
43126,92165,5
43126,92169,5
43130,92174,5
43141,92174,4
43125,92174,5
43139,92188,5
43137,92200,5
43144,92202,4
43147,92203,5
43152,92196,5
43153,92209,5
43148,92206,5
43151,92207,4
43150,92200,6
43140,92218,4
43151,92224,5
43159,92233,5
43146,92204,6
43128,92163,3
43111,92128,5
43094,92103,5
43088,92100,5
43081,92102,4
43096,92106,5
43100,92120,5
43117,92138,5
43125,92154,5
43122,92168,4
43130,92180,5
43138,92185,5
43154,92201,5
43147,92221,4
43143,92214,4
43151,92221,5
43160,92229,5
43151,92223,5
43153,92228,4
43156,92237,5
43164,92239,6
43165,92235,4
43167,92238,5
43166,92246,4
43169,92250,5
43164,92246,5
43160,92240,5
43162,92254,5
43161,92238,4
43168,92239,5
43167,92236,5
43162,92245,5
43167,92232,5
43163,92246,4
43168,92243,5
43158,92234,5
43164,92238,5
43152,92230,5
43155,92230,4
43152,92219,5
43157,92232,5
43160,92235,5
43162,92234,4
43160,92249,4
43171,92270,5
43176,92269,6
43169,92275,4
43184,92265,4
43183,92275,5
43179,92279,5
43184,92280,5
43184,92269,5
43182,92278,4
43179,92280,5
43184,92285,5
43177,92292,5
43186,92283,5
43188,92288,4
43182,92284,5
43180,92282,5
43189,92283,5
43184,92284,5
43189,92289,4
43184,92282,5
43183,92269,5
43184,92277,5
43184,92281,5
43185,92278,4
43174,92277,5
43183,92273,5
43188,92280,6
43190,92284,3
43185,92281,4
43173,92271,5
43192,92278,5
43187,92287,5
43193,92288,4
43188,92281,5
43181,92286,5
43192,92283,5
43190,92283,5
43193,92290,4
43181,92277,5
43193,92290,5
43180,92292,5
43186,92281,5
43188,92285,4
43185,92283,5
43177,92278,5
43179,92283,5
43184,92280,5
43187,92281,5
43192,92286,4
43189,92292,5
43191,92283,5
43193,92285,6
43186,92280,3
43183,92278,5
43190,92286,5
43186,92271,5
43184,92281,4
43178,92274,5
43186,92267,5
43176,92273,5
43185,92276,5
43182,92284,4
43188,92288,5
43181,92276,5
43178,92284,5
43185,92283,5
43176,92276,4
43183,92280,5
43188,92278,5
43180,92273,5
43182,92277,5
43183,92280,4
43188,92275,6
43191,92286,4
43188,92288,5
43193,92284,5
43190,92286,4
43190,92289,5
43191,92287,5
43186,92291,5
43190,92293,4
43195,92300,4
43185,92309,5
43195,92314,5
43192,92313,5
43199,92316,4
43201,92319,5
43197,92312,5
43188,92317,5
43198,92306,5
43198,92319,4
43197,92318,5
43196,92310,10
43178,92302,8
43179,92230,5
43163,92237,7
43187,92220,8
43165,92201,5
43136,92205,7
43179,92282,8
43179,92282,5
