RED,IR,EKG,TIME
29714,55027,183405
29788,55041,1
29788,55041,3
29785,55034,5
29791,55035,4
29783,55032,5
29787,55041,5
29783,55043,4
29774,55039,5
29782,55035,5
29778,55029,5
29779,55029,5
29776,55022,4
29778,55026,5
29783,55021,5
29766,55010,5
29773,55003,5
29770,55000,4
29764,55010,5
29760,55015,5
29762,55006,5
29765,55011,5
29763,55014,4
29769,55011,5
29758,55025,5
29758,55007,5
29773,55017,4
29759,55016,4
29756,55016,6
29760,55018,4
29768,55007,5
29770,55009,4
29765,55019,5
29756,55014,5
29765,55006,5
29763,55007,5
29761,55010,4
29763,55017,5
29753,55006,5
29760,55004,5
29761,55007,5
29756,55010,4
29756,55008,5
29761,55009,5
29747,55007,5
29762,55005,5
29756,55011,4
29757,55009,5
29759,55006,5
29754,55007,5
29758,55016,4
29755,55011,4
29762,55009,5
29765,55005,5
29765,55014,5
29760,55009,4
29751,55012,5
29752,55005,5
29749,55008,5
29752,55015,5
29755,54998,4
29755,55004,5
29751,55011,5
29756,55003,5
29757,55011,5
29760,55002,4
29753,55014,5
29757,55012,5
29756,55007,5
29745,55010,5
29747,55006,4
29747,55007,5
29755,55003,5
29755,55013,5
29752,55009,5
29755,55007,4
29756,55007,5
29752,55006,5
29745,55004,5
29713,55003,4
29744,55010,5
29752,55009,5
29751,55011,5
29708,55010,5
29742,55019,4
29752,55017,5
29758,55015,5
29716,55015,5
29757,55023,5
29753,55022,4
29754,55019,5
29780,55021,5
29761,55022,5
29762,55031,5
29755,55030,4
29811,55029,5
29761,55035,4
29757,55033,5
29764,55038,4
29801,55049,5
29765,55032,3
29768,55045,5
29774,55056,5
29777,55054,4
29768,55045,5
29768,55052,5
29768,55057,5
29774,55038,5
29777,55056,4
29768,55062,5
29780,55053,5
29776,55021,5
29776,55061,5
29778,55068,4
29781,55071,5
29778,55024,5
29784,55073,5
29783,55080,5
29789,55066,5
29786,55081,4
29781,55082,6
29789,55089,4
29789,55083,4
29787,55136,4
29791,55097,5
29800,55091,5
29794,55097,5
29801,55156,4
29800,55104,5
29794,55116,5
29798,55111,5
29801,55133,5
29802,55106,4
29805,55118,5
29798,55119,5
29794,55124,5
29799,55112,5
29802,55125,4
29801,55122,5
29812,55129,5
29815,55134,5
29810,55126,5
29810,55133,4
29808,55135,5
29813,55131,5
29805,55132,6
29813,55138,3
29814,55148,4
29825,55150,5
29815,55156,5
29819,55156,5
29824,55156,4
29820,55160,5
29820,55153,5
29828,55153,5
29823,55155,5
29821,55150,4
29813,55154,5
29824,55150,5
29820,55152,5
29817,55148,5
29824,55151,4
29819,55153,5
29825,55155,5
29833,55152,5
29824,55158,5
29819,55161,5
29831,55154,4
29824,55160,5
29828,55155,5
29838,55157,6
29837,55161,3
29829,55178,5
29821,55176,5
29834,55174,5
29828,55170,4
29832,55174,5
29827,55177,5
29834,55175,5
29834,55181,5
29826,55177,4
29826,55171,5
29837,55177,5
29838,55178,5
29830,55174,5
29833,55175,4
29837,55169,5
29834,55179,5
29834,55178,5
29831,55176,5
29832,55175,4
29824,55172,6
29829,55170,4
29832,55171,5
29830,55169,4
29823,55164,4
29824,55176,5
29827,55170,5
29832,55170,5
29828,55171,4
29831,55165,5
29837,55173,5
29832,55181,5
29823,55177,5
29829,55172,4
29833,55180,5
29832,55171,5
29825,55180,5
29825,55184,5
29836,55185,4
29840,55179,5
29829,55188,5
29821,55184,5
29836,55191,5
29836,55189,4
29839,55195,5
29792,55182,6
29831,55188,4
29840,55195,4
29838,55187,4
29793,55185,5
29838,55184,5
29827,55184,5
29834,55178,4
29821,55186,5
29830,55186,5
29833,55180,5
29835,55182,5
29876,55188,4
29836,55185,5
29838,55177,5
29835,55184,5
29889,55192,5
29831,55180,4
29840,55189,5
29836,55190,5
29861,55185,5
29833,55190,5
29834,55182,4
29831,55188,5
29836,55179,5
29835,55195,6
29839,55180,3
29831,55186,4
29829,55159,5
29833,55197,5
29834,55187,5
29834,55183,4
29828,55141,4
29838,55185,5
29839,55185,5
29838,55184,5
29832,55160,4
29837,55184,5
29842,55179,5
29828,55187,5
29833,55208,5
29831,55188,4
29824,55181,5
29829,55174,5
29833,55243,5
29830,55188,5
29827,55180,5
29835,55178,4
29833,55212,5
29830,55179,5
29835,55185,5
29828,55179,4
29837,55199,5
29825,55188,5
29835,55184,5
29835,55174,4
29833,55189,5
29836,55182,5
29837,55189,5
29840,55180,5
29835,55192,4
29834,55197,8
29837,55184,2
29823,55183,5
29828,55185,5
29835,55183,4
29834,55179,5
29837,55188,5
29841,55188,5
29827,55190,5
29836,55192,4
29829,55192,6
29831,55192,4
29829,55185,5
29839,55187,5
29828,55183,4
29835,55195,5
29837,55198,5
29835,55189,5
29831,55189,4
29831,55188,4
29831,55190,5
29829,55180,5
29827,55196,5
29834,55195,4
29837,55195,5
29842,55196,5
29838,55184,5
29836,55186,5
29839,55185,4
29836,55191,5
29833,55191,5
29837,55189,5
29837,55197,5
29836,55196,4
29836,55191,5
29837,55183,6
29839,55196,4
29834,55194,5
29833,55191,4
29837,55192,5
29835,55188,5
29842,55187,5
29839,55191,4
29836,55185,4
29833,55197,5
29836,55196,5
29837,55192,5
29840,55190,4
29837,55191,5
29836,55184,5
29838,55190,5
29834,55178,5
29836,55183,4
29835,55193,5
29835,55195,5
29840,55194,5
29834,55199,5
29846,55203,4
29835,55202,5
29835,55188,5
29841,55195,5
29841,55195,5
29839,55185,4
29829,55187,5
29834,55178,5
29832,55182,5
29821,55186,4
29834,55171,4
29820,55163,5
29823,55171,5
29823,55168,5
29824,55176,4
29802,55169,5
29824,55169,5
29827,55174,5
29826,55173,5
29780,55174,4
29829,55181,5
29830,55184,5
29822,55168,5
29782,55183,5
29829,55181,5
29827,55183,4
29829,55179,5
29841,55172,5
29820,55172,5
29831,55182,4
29828,55184,5
29879,55184,5
29823,55179,5
29824,55177,4
29828,55166,4
29878,55171,5
29824,55177,5
29825,55171,5
29832,55174,4
29847,55177,5
29820,55178,5
29824,55166,5
29819,55167,5
29827,55161,4
29835,55173,5
29825,55160,5
29824,55167,5
29825,55124,5
29818,55173,4
29818,55169,6
29814,55167,4
29820,55124,5
29827,55163,5
29827,55170,4
29822,55174,5
29826,55148,5
29830,55167,5
29827,55162,4
29820,55173,4
29825,55199,5
29830,55182,5
29819,55176,5
29823,55168,4
29831,55237,5
29821,55175,5
29825,55176,5
29831,55178,5
29821,55206,4
29822,55176,5
29825,55167,5
29818,55165,6
29828,55176,4
29828,55168,4
29832,55169,5
29837,55167,7
29831,55177,3
29829,55168,5
29827,55173,4
29833,55179,5
29824,55173,5
29823,55172,5
29831,55169,5
29826,55173,4
29827,55169,5
29830,55170,5
29831,55180,5
29829,55175,4
29828,55168,5
29825,55170,5
29833,55167,5
29831,55171,5
29835,55166,4
29830,55178,5
29831,55162,5
29819,55166,5
29821,55172,5
29824,55176,4
29825,55161,5
29820,55166,5
29828,55176,5
29821,55177,5
29827,55176,4
29827,55182,5
29831,55175,5
29816,55169,5
29827,55172,5
29827,55167,4
29823,55171,5
29817,55168,5
29823,55165,5
29827,55166,4
29824,55154,5
29814,55153,5
29815,55159,5
29817,55151,5
29817,55148,4
29817,55148,5
29814,55147,4
29808,55145,5
29814,55154,5
29814,55145,6
29808,55142,3
29821,55143,5
29816,55143,5
29814,55155,5
29815,55144,4
29810,55145,5
29806,55148,5
29811,55142,5
29811,55145,5
29815,55145,4
29809,55150,5
29811,55146,5
29807,55136,5
29812,55152,4
29808,55145,5
29813,55147,5
29814,55140,5
29804,55136,5
29795,55144,4
29808,55140,5
29796,55142,6
29805,55135,4
29806,55136,5
29799,55134,4
29800,55140,7
29809,55135,3
29804,55135,5
29802,55128,5
29804,55130,4
29800,55133,5
29805,55125,5
29768,55127,5
29792,55129,5
29791,55123,4
29800,55129,5
29753,55134,5
29793,55128,5
29797,55125,4
29800,55123,4
29758,55125,5
29802,55123,5
29791,55121,5
29794,55119,4
29813,55125,5
29804,55127,5
29797,55120,6
29792,55122,4
29850,55120,4
29799,55117,5
29800,55119,5
29793,55116,5
29838,55117,5
29787,55121,4
29794,55112,5
29800,55114,5
29808,55114,5
29791,55107,5
29800,55114,4
29796,55113,5
29787,55094,5
29796,55115,5
29788,55113,4
29792,55116,4
29786,55064,5
29783,55103,5
29788,55107,5
29788,55109,5
29786,55058,4
29780,55109,5
29790,55104,5
29791,55102,6
29782,55119,3
29782,55100,5
29786,55105,5
29784,55099,5
29780,55144,5
29779,55091,4
29787,55099,5
29782,55100,5
29794,55147,5
29787,55104,5
29790,55104,4
29788,55108,5
29778,55121,5
29778,55097,5
29779,55093,4
29784,55096,4
29777,55087,5
29783,55090,5
29778,55082,5
29781,55081,4
29777,55083,6
29782,55089,4
29773,55079,5
29775,55077,5
29778,55076,6
29771,55078,3
29771,55070,5
29775,55074,5
29769,55075,5
29778,55079,4
29768,55070,5
29782,55070,5
29769,55073,5
29773,55072,5
29773,55074,4
29771,55077,5
29766,55073,5
29765,55073,5
29771,55063,4
29778,55075,4
29773,55066,5
29774,55073,5
29763,55064,5
29762,55067,4
29769,55063,5
29761,55065,6
29765,55056,4
29768,55061,5
29763,55060,4
29759,55064,5
29754,55062,5
29764,55060,5
29758,55043,5
29758,55050,4
29759,55048,5
29761,55056,5
29766,55050,5
29758,55048,5
29766,55055,4
29764,55055,5
29764,55059,5
29766,55056,5
29765,55056,5
29763,55049,4
29761,55057,5
29764,55048,5
29761,55048,5
29760,55041,4
29760,55052,5
29756,55047,5
29758,55039,6
29753,55046,4
29744,55035,4
29753,55045,5
29747,55037,5
29750,55037,5
29746,55037,5
29754,55023,4
29745,55029,5
29746,55032,5
29740,55024,5
29744,55020,5
29745,55020,4
29739,55021,5
29738,55021,5
29736,55010,5
29739,55014,5
29739,55012,4
29745,55013,5
29738,55015,5
29741,55012,5
29731,55014,5
29730,54998,4
29734,55004,5
29739,55008,5
29736,55012,6
29728,55000,3
29702,55015,5
29736,55008,5
29734,55015,5
29739,55003,5
29691,55013,4
29737,55009,5
29735,55002,5
29739,55012,5
29709,55009,5
29736,55014,4
29737,55012,5
29736,55009,5
29766,55008,5
29737,55004,5
29726,55007,4
29737,55006,5
29782,55007,5
29734,55009,5
29734,54999,4
29733,55008,5
29765,55002,4
29737,55000,5
29728,54995,5
29729,55004,4
29742,54995,5
29726,55001,5
29730,55000,5
29731,55006,5
29727,54984,4
29734,55003,5
29730,55000,5
29733,54997,5
29730,54959,5
29726,54998,4
29733,55009,5
29735,54992,5
29738,54953,5
29730,55004,5
29728,54997,4
29735,55009,5
29736,54999,5
29734,55006,5
29726,55006,4
29732,54992,4
29725,55035,6
29732,54992,4
29731,54997,5
29732,54995,4
29732,55060,5
29725,54998,5
29729,54998,5
29728,54992,5
29726,55015,4
29722,55000,5
29719,55002,5
29729,54994,5
29728,55008,5
29723,54993,4
29725,54997,5
29726,54999,5
29731,54997,5
29728,54982,5
29720,54990,4
29721,54997,5
29723,54985,5
29724,54982,5
29723,54984,5
29713,54978,4
29721,54979,5
29713,54975,7
29712,54975,3
29712,54968,4
29714,54954,6
29709,54960,4
29702,54952,5
29700,54942,5
29701,54943,4
29700,54943,5
29688,54934,5
29701,54936,5
29694,54932,5
29697,54928,4
29692,54931,5
29690,54926,5
29688,54927,5
29694,54927,5
29689,54926,4
29684,54926,5
29685,54931,5
29690,54927,5
29688,54924,5
29692,54927,4
29696,54931,5
29690,54926,5
29685,54927,5
29693,54942,4
29688,54933,4
29691,54931,5
29690,54941,5
29695,54934,5
29695,54942,4
29702,54947,5
29702,54952,5
29703,54955,5
29695,54949,5
29714,54955,4
29702,54957,5
29704,54956,5
29710,54960,5
29698,54952,5
29699,54961,4
29713,54965,5
29707,54964,5
29703,54967,5
29704,54963,5
29707,54962,5
29709,54962,4
29715,54964,5
29710,54965,5
29704,54969,5
29708,54971,4
29702,54967,5
29713,54978,5
29722,54969,5
29717,54974,4
29710,54983,5
29717,54973,5
29721,54975,5
29710,54983,5
29725,54980,4
29714,54980,5
29721,54983,5
29720,54984,5
29717,54982,5
29718,54974,4
29718,54984,5
29717,54982,5
29684,54981,5
29717,54988,5
29715,54983,4
29722,54987,6
29675,54989,4
29715,54985,5
29715,54981,5
29713,54994,4
29686,54995,5
29715,54988,5
29722,54991,5
29729,54988,4
29749,54990,4
29731,54991,5
29725,54990,5
29719,55003,5
29781,54998,4
29730,55007,5
29731,55007,5
29730,55008,5
29773,55001,5
29728,55012,4
29734,55010,5
29724,55008,5
29745,55009,5
29731,55016,5
29733,55022,4
29737,55020,5
29738,55000,5
29735,55026,5
29739,55029,5
29739,55032,4
29741,54980,5
29737,55026,5
29738,55019,5
29741,55030,5
29749,54982,4
29748,55026,5
29745,55028,5
29743,55036,5
29744,55040,4
29745,55040,5
29747,55038,5
29744,55042,5
29747,55088,5
29753,55041,4
29758,55044,4
29750,55052,5
29750,55106,5
29756,55054,5
29756,55047,3
29758,55054,5
29766,55071,5
29759,55064,5
29761,55062,5
29754,55072,4
29753,55077,5
29757,55065,5
29762,55071,5
29769,55064,5
29761,55074,4
29765,55073,5
29770,55067,5
29764,55069,5
29763,55070,4
29772,55081,5
29773,55082,5
29771,55080,5
29765,55077,5
29770,55082,4
29776,55083,6
29772,55080,4
29781,55088,5
29772,55090,5
29769,55078,6
29770,55092,3
29777,55091,5
29771,55102,5
29770,55093,5
29779,55088,4
29774,55088,5
29781,55095,5
29778,55110,5
29781,55093,5
29782,55094,4
29784,55101,5
29779,55106,5
29790,55108,5
29783,55113,4
29781,55113,4
29780,55108,5
29787,55117,5
29788,55113,5
29777,55111,4
29789,55106,5
29788,55113,6
29789,55111,4
29786,55120,5
29787,55113,4
29781,55113,5
29789,55112,5
29786,55115,5
29786,55113,5
29782,55109,4
29785,55118,5
29789,55104,5
29789,55116,5
29782,55112,5
29778,55123,4
29783,55103,5
29787,55106,5
29787,55115,5
29790,55119,4
29783,55119,4
29784,55108,5
29797,55128,5
29784,55123,5
29794,55130,4
29790,55128,5
29796,55124,5
29792,55125,6
29794,55134,4
29795,55123,4
29797,55122,5
29792,55129,5
29799,55133,5
29795,55128,5
29803,55130,4
29801,55138,5
29804,55132,5
29803,55139,5
29801,55139,5
29802,55138,4
29807,55140,5
29797,55149,5
29809,55152,5
29796,55138,5
29768,55131,4
29792,55135,5
29799,55136,5
29802,55137,5
29754,55137,5
29797,55145,4
29803,55148,5
29805,55133,5
29763,55144,6
29798,55138,3
29799,55146,5
29805,55142,5
29831,55148,5
29804,55144,5
29804,55145,4
29804,55136,5
29860,55137,5
29802,55139,5
29798,55136,5
29798,55143,4
29831,55133,5
29800,55134,5
29795,55131,5
29795,55130,5
29803,55122,4
29792,55118,5
29797,55121,5
29781,55110,5
29782,55092,4
29791,55114,5
29778,55106,4
29790,55115,5
29790,55073,5
29791,55104,6
29782,55109,3
29790,55106,5
29784,55060,5
29777,55101,5
29777,55106,4
29783,55097,5
29782,55100,5
29776,55097,5
29780,55094,5
29783,55086,4
29779,55133,5
29782,55097,5
29780,55085,5
29776,55085,5
29765,55136,4
29772,55082,5
29768,55084,5
29773,55073,5
29773,55093,4
29763,55067,4
29765,55069,6
29768,55068,4
29765,55071,5
29775,55063,4
29760,55071,5
29767,55063,5
29760,55056,5
29754,55060,5
29759,55068,4
29757,55065,5
29762,55061,5
29761,55060,5
29761,55056,5
29759,55053,4
29764,55054,5
29756,55061,5
29762,55060,5
29747,55062,5
29762,55058,4
29761,55049,5
29763,55051,5
29754,55055,5
29758,55054,5
29756,55045,4
29746,55045,5
29750,55040,6
29755,55042,4
29745,55035,4
29751,55042,5
29748,55037,5
29738,55033,5
29749,55039,5
29746,55036,4
29742,55032,5
29741,55029,5
29741,55028,5
29742,55028,5
29746,55015,4
29746,55020,5
29731,55020,5
29739,55021,5
29733,55022,5
29737,55015,4
29741,55015,5
29733,55009,5
29731,55020,5
29733,55012,5
29740,55017,4
29734,55009,5
29730,55013,5
29730,55005,6
29727,55001,3
29720,54994,4
29714,54987,5
29722,54975,5
29714,54981,5
29718,54980,4
29708,54984,5
29708,54968,5
29721,54975,5
29718,54978,5
29711,54978,4
29716,54975,5
29712,54978,5
29703,54968,5
29709,54957,5
29706,54963,4
29712,54963,5
29704,54958,5
29704,54949,5
29699,54958,5
29698,54947,5
29703,54945,4
29698,54956,5
29696,54944,5
29701,54943,4
29701,54944,4
29702,54938,5
29700,54948,5
29702,54944,5
29696,54948,4
29692,54950,5
29695,54941,5
29673,54943,5
29697,54940,5
29689,54946,4
29692,54946,5
29645,54942,5
29697,54932,5
29686,54927,5
29687,54935,4
29650,54928,5
29676,54918,5
29690,54925,5
29689,54924,5
29702,54917,4
29680,54917,6
29675,54923,4
29680,54916,5
29733,54917,5
29687,54920,4
29685,54917,5
29683,54923,5
29720,54922,5
29687,54932,4
29692,54924,5
29691,54920,5
29710,54939,5
29696,54927,5
29685,54929,4
29691,54933,5
29693,54909,5
29697,54933,5
29686,54935,5
29695,54943,4
29701,54896,5
29700,54938,5
29699,54929,5
29696,54946,5
29700,54879,4
29700,54933,5
29692,54942,6
29690,54942,4
29703,54940,5
29689,54949,4
29695,54947,5
29694,54946,5
29694,54998,5
29708,54950,4
29701,54956,4
29705,54964,5
29703,55028,5
29706,54972,5
29715,54977,4
29719,54991,5
29721,55012,5
29721,54997,5
29728,55003,5
29734,55009,4
29730,55013,5
29736,55015,5
29747,55021,5
29750,55037,6
29753,55044,3
29742,55044,5
29755,55046,5
29755,55055,5
29753,55058,5
29759,55051,4
29755,55063,5
29760,55062,5
29755,55059,5
29763,55065,4
29751,55070,4
29755,55070,5
29765,55074,5
29754,55079,5
29766,55073,4
29763,55077,5
29766,55080,5
29768,55085,5
29772,55092,8
29777,55091,1
29771,55108,5
29778,55094,5
29768,55096,5
29771,55087,5
29775,55093,5
29771,55097,4
29779,55098,5
29767,55094,5
29774,55104,5
29778,55096,4
29767,55101,5
29773,55093,5
29770,55098,5
29769,55099,5
29767,55092,4
29777,55095,5
29772,55103,5
29781,55109,5
29785,55098,4
29775,55103,4
29777,55110,5
29779,55112,5
29775,55110,5
29781,55101,4
29784,55104,5
29780,55110,5
29781,55106,5
29774,55099,5
29771,55101,4
29771,55092,6
29778,55101,4
29772,55096,5
29770,55091,5
29774,55087,4
29769,55091,5
29766,55086,5
29769,55082,5
29773,55096,5
29767,55090,4
29771,55083,5
29766,55086,5
29772,55087,5
29766,55089,4
29773,55093,4
29773,55089,5
29764,55090,5
29765,55097,5
29781,55090,4
29774,55096,5
29771,55095,5
29773,55097,5
29764,55090,4
29777,55092,4
29767,55093,5
29769,55096,5
29770,55095,5
29768,55093,5
29747,55092,4
29771,55083,5
29762,55082,5
29766,55079,5
29726,55086,5
29764,55087,4
29768,55073,5
29770,55085,5
29729,55081,5
29768,55079,4
29758,55084,4
29773,55084,5
29783,55085,5
29765,55084,5
29759,55076,5
29757,55075,4
29812,55066,5
29759,55066,5
29759,55072,6
29748,55067,3
29799,55064,5
29757,55059,5
29753,55056,5
29746,55058,5
29761,55057,4
29738,55051,5
29752,55041,5
29743,55038,5
29742,55020,5
29740,55030,4
29734,55031,5
29738,55031,5
29732,54981,5
29725,55007,5
29723,54999,4
29719,54996,5
29718,54937,5
29702,54976,5
29705,54962,4
29693,54962,6
29692,54967,4
29693,54957,5
29696,54952,5
29688,54937,6
29683,54972,3
29681,54909,5
29670,54904,5
29665,54891,5
29655,54942,4
29648,54879,5
29637,54860,5
29641,54857,5
29636,54877,5
29639,54841,4
29635,54832,5
29627,54836,5
29632,54836,5
29626,54821,5
29620,54825,4
29619,54812,5
29619,54818,5
29621,54820,5
29618,54815,4
29611,54813,4
29621,54819,6
29622,54820,4
29619,54812,5
29618,54814,4
29622,54823,5
29623,54820,5
29627,54831,5
29624,54825,5
29628,54825,4
29630,54834,5
29633,54841,5
29629,54839,5
29632,54839,5
29641,54849,4
29643,54852,5
29631,54862,5
29638,54858,5
29637,54867,5
29645,54858,4
29645,54864,5
29639,54869,5
29656,54861,5
29647,54866,4
29653,54874,4
29650,54873,5
29647,54873,6
29655,54877,4
29666,54877,4
29645,54882,5
29663,54888,5
29657,54904,5
29655,54906,5
29656,54891,4
29658,54899,5
29662,54905,5
29669,54897,5
29670,54902,5
29665,54907,4
29677,54911,5
29660,54923,5
29668,54914,5
29670,54914,5
29681,54920,4
29673,54915,5
29683,54916,5
29673,54924,5
29671,54914,5
29668,54918,4
29676,54917,5
29674,54918,5
29676,54914,6
29671,54926,3
29676,54924,5
29675,54911,5
29684,54916,5
29677,54914,5
29678,54919,4
29671,54920,5
29675,54919,5
29678,54914,5
29679,54922,5
29674,54920,4
29673,54914,5
29673,54922,5
29672,54908,5
29672,54910,5
29672,54915,4
29665,54914,5
29668,54916,5
29665,54912,5
29668,54914,5
29675,54905,5
29668,54909,4
29640,54915,5
29666,54911,5
29674,54908,6
29664,54903,3
29625,54903,5
29673,54906,5
29660,54896,5
29661,54900,4
29629,54889,5
29663,54892,5
29660,54892,5
29658,54893,5
29685,54902,4
29659,54891,5
29667,54898,5
29656,54886,5
29711,54887,5
29659,54881,4
29658,54883,5
29651,54876,5
29687,54877,5
29657,54866,5
29652,54866,4
29641,54868,6
29656,54875,4
29650,54876,5
29645,54874,4
29647,54872,4
29644,54862,5
29654,54875,5
29655,54870,5
29655,54869,4
29655,54837,5
29650,54869,5
29655,54869,5
29654,54875,5
29646,54826,4
29658,54873,5
29649,54875,5
29657,54877,5
29655,54884,5
29648,54880,4
29650,54872,5
29651,54866,5
29647,54910,5
29652,54871,5
29653,54869,4
29653,54869,5
29644,54932,6
29657,54868,4
29648,54867,5
29652,54869,4
29655,54899,5
29652,54880,5
29657,54865,5
29655,54871,4
29649,54867,4
29652,54868,5
29652,54861,5
29645,54859,5
29646,54862,4
29642,54862,5
29646,54868,5
29639,54868,5
29650,54857,5
29642,54864,4
29644,54862,5
29642,54857,5
29639,54863,5
29653,54860,5
29640,54857,4
29644,54855,5
29647,54853,5
29642,54854,6
29643,54865,4
29647,54859,4
29651,54859,5
29646,54862,5
29645,54859,5
29643,54859,4
29646,54860,4
29648,54859,5
29645,54854,5
29643,54866,5
29657,54859,4
29637,54850,5
29643,54863,5
29648,54865,5
29639,54850,5
29638,54845,4
29636,54854,5
29644,54852,5
29646,54853,5
29645,54846,5
29641,54842,5
29641,54849,4
29637,54849,5
29629,54835,5
29634,54837,5
29639,54838,4
29639,54845,5
29641,54845,5
29633,54833,5
29639,54837,5
29642,54839,4
29635,54840,5
29624,54842,5
29641,54840,5
29636,54848,4
29633,54835,5
29636,54843,5
29638,54843,5
29634,54849,5
29641,54849,4
29631,54837,5
29637,54839,5
29631,54845,5
29639,54839,5
29636,54844,4
29636,54843,6
29636,54842,4
29630,54832,5
29633,54843,5
29636,54837,4
29640,54842,5
29640,54850,5
29635,54836,5
29631,54839,5
29641,54840,4
29641,54838,5
29639,54832,5
29640,54829,5
29632,54833,4
29625,54828,4
29619,54822,5
29616,54818,5
29623,54825,5
29586,54818,4
29625,54805,5
29620,54810,5
29611,54805,5
29581,54811,5
29615,54807,4
29622,54804,5
29612,54803,6
29584,54816,4
29610,54813,5
29618,54798,4
29616,54809,5
29643,54805,5
29614,54802,5
29622,54801,5
29621,54799,4
29671,54804,5
29614,54806,5
29613,54790,5
29604,54786,4
29648,54793,4
29613,54794,5
29606,54796,5
29606,54788,5
29623,54789,4
29608,54785,5
29604,54786,5
29612,54795,5
29605,54766,5
29612,54789,4
29609,54787,5
29606,54787,5
29615,54746,5
29604,54782,5
29602,54787,4
29613,54790,5
29615,54737,5
29611,54793,5
29610,54792,5
29611,54792,5
29606,54801,4
29614,54800,5
29613,54789,5
29618,54790,5
29603,54842,4
29611,54792,5
29606,54790,5
29613,54800,5
29609,54844,4
29618,54794,5
29611,54790,5
29608,54797,5
29606,54817,5
29610,54791,5
29609,54785,4
29604,54794,5
29610,54796,5
29614,54796,5
29605,54792,4
29613,54792,5
29605,54789,5
29606,54795,5
29606,54789,5
29607,54789,4
29602,54789,5
29603,54789,5
29603,54788,5
29608,54780,5
29612,54787,4
29610,54790,5
29607,54789,5
29608,54797,5
29613,54791,4
29608,54793,4
29605,54796,6
29619,54785,4
29609,54793,5
29611,54793,4
29610,54801,7
29609,54797,3
29614,54802,5
29612,54803,5
29614,54795,4
29610,54800,5
29616,54800,5
29618,54790,6
29618,54800,4
29612,54801,4
29621,54798,5
29624,54804,5
29620,54803,5
29616,54797,5
29618,54817,4
29617,54808,5
29617,54805,5
29614,54800,5
29614,54812,4
29617,54801,4
29617,54796,5
29620,54802,6
29609,54796,4
29609,54792,4
29601,54795,5
29613,54790,5
29609,54789,5
29612,54795,5
29616,54794,4
29615,54791,5
29612,54793,5
29609,54790,5
29612,54790,5
29604,54792,4
29615,54784,5
29617,54790,5
29606,54793,5
29605,54792,5
29605,54795,4
29612,54780,5
29612,54787,5
29609,54783,5
29601,54783,5
29604,54776,4
29611,54785,5
29597,54776,5
29611,54774,6
29602,54776,3
29597,54780,5
29602,54782,5
29608,54778,5
29599,54782,5
29609,54781,4
29599,54781,5
29599,54784,5
29591,54782,5
29602,54779,5
29607,54776,4
29602,54785,5
29571,54789,5
29606,54786,5
29601,54785,5
29606,54785,4
29558,54784,5
29607,54782,5
29604,54789,5
29610,54791,5
29590,54778,5
29608,54789,4
29602,54782,5
29607,54777,5
29646,54781,6
29611,54792,3
29612,54790,5
29602,54773,5
29668,54788,5
29605,54792,4
29612,54785,5
29611,54787,5
29638,54785,5
29602,54796,5
29614,54795,4
29614,54798,5
29620,54797,5
29618,54800,5
29608,54801,5
29620,54799,4
29618,54786,5
29618,54802,5
29620,54813,5
29629,54810,5
29619,54771,4
29620,54819,6
29616,54817,4
29618,54818,5
29627,54784,4
29639,54827,4
29624,54831,5
29629,54842,5
29631,54857,5
29629,54835,4
29632,54842,5
29639,54846,5
29642,54904,5
29646,54854,5
29642,54863,4
29643,54861,5
29653,54916,5
29658,54878,5
29651,54884,5
29662,54889,4
29661,54914,5
29665,54900,5
29660,54910,5
29666,54908,5
29682,54918,4
29670,54928,5
29682,54931,6
29684,54942,4
29694,54947,4
29695,54941,4
29697,54960,5
29699,54963,5
29701,54971,5
29701,54963,4
29704,54961,5
29707,54975,5
29698,54976,5
29702,54977,5
29699,54975,4
29708,54979,5
29714,54985,5
29704,54983,5
29718,55005,5
29718,54991,4
29724,55000,5
29717,55007,5
29723,55016,5
29724,55014,5
29732,55017,4
29728,55025,5
29727,55029,5
29735,55033,6
29735,55025,4
29741,55039,4
29741,55039,5
29737,55042,5
29744,55045,5
29733,55043,4
29747,55057,4
29744,55057,5
29749,55055,5
29753,55068,5
29759,55065,4
29754,55069,5
29753,55064,5
29763,55075,5
29759,55077,5
29762,55080,4
29766,55092,5
29766,55093,5
29770,55098,5
29771,55089,5
29770,55089,5
29769,55097,4
29774,55094,5
29768,55091,5
29769,55091,5
29769,55097,4
29768,55089,5
29770,55092,5
29766,55100,5
29771,55098,4
29762,55098,4
29774,55112,5
29774,55104,5
29776,55104,5
29777,55109,4
29775,55106,5
29782,55112,5
29774,55113,5
29775,55113,5
29777,55113,4
29780,55122,5
29777,55116,5
29784,55115,5
29784,55122,5
29786,55120,4
29786,55119,6
29787,55123,4
29783,55124,5
29789,55120,5
29771,55123,4
29786,55125,5
29782,55113,5
29781,55114,5
29736,55123,4
29785,55110,4
29780,55113,5
29774,55119,5
29730,55121,5
29777,55113,4
29776,55111,5
29781,55103,5
29779,55106,5
29774,55109,5
29779,55111,4
29783,55111,5
29813,55113,5
29782,55113,5
29782,55107,5
29770,55112,4
29834,55114,5
29782,55114,6
29773,55117,4
29777,55111,5
29794,55106,4
29784,55113,5
29777,55115,5
29777,55113,5
29775,55114,5
29774,55110,4
29786,55115,5
29781,55110,5
29779,55077,5
29780,55116,4
29780,55108,4
29773,55107,5
29779,55069,5
29773,55097,5
29775,55103,4
29775,55103,5
29782,55073,5
29781,55100,5
29778,55108,5
29777,55109,4
29774,55137,5
29775,55114,5
29775,55118,6
29775,55109,4
29777,55168,4
29770,55111,5
29776,55109,5
29783,55108,5
29774,55144,5
29778,55110,4
29775,55114,5
29783,55111,5
29778,55122,5
29781,55114,4
29779,55114,4
29779,55107,5
29778,55115,5
29777,55116,5
29783,55110,4
29772,55119,5
29773,55111,5
29774,55104,5
29777,55103,5
29777,55094,5
29766,55093,4
29773,55105,5
29773,55100,5
29770,55106,5
29765,55105,4
29776,55095,5
29768,55092,5
29776,55101,5
29764,55088,5
29765,55094,4
29767,55087,5
29767,55085,5
29761,55094,5
29768,55092,4
29767,55080,4
29761,55089,5
29767,55089,5
29770,55087,5
29765,55091,4
29766,55084,5
29763,55085,5
29760,55076,5
29764,55082,5
29758,55088,4
29759,55085,6
29761,55088,4
29761,55092,5
29756,55095,5
29765,55094,4
29768,55088,5
29772,55087,5
29767,55095,5
29767,55087,5
29759,55093,4
29768,55093,5
29772,55087,5
29769,55091,5
29767,55086,5
29764,55089,4
29754,55079,5
29762,55091,5
29755,55091,5
29767,55087,4
29770,55087,4
29771,55091,5
29769,55087,5
29762,55099,5
29762,55092,4
29775,55094,5
29768,55091,6
29767,55096,4
29771,55084,5
29773,55086,4
29768,55089,5
29770,55094,5
29772,55097,5
29760,55101,5
29766,55091,4
29769,55100,5
29764,55093,5
29775,55096,5
29768,55097,5
29769,55094,4
29774,55104,5
29766,55106,5
29779,55096,5
29768,55102,4
29771,55098,4
29767,55103,5
29753,55104,5
29774,55105,5
29775,55095,4
29774,55101,5
29731,55093,5
29774,55106,5
29777,55103,5
29773,55095,4
29723,55102,5
29777,55102,5
29768,55109,5
29779,55100,5
29787,55100,4
29775,55103,5
29772,55097,5
29773,55098,5
29827,55093,5
29780,55106,4
29774,55099,5
29775,55104,5
29825,55102,5
29776,55100,5
29773,55100,5
29778,55094,4
29802,55099,5
29769,55105,5
29775,55096,6
29776,55111,3
29778,55099,5
29780,55109,5
29775,55110,5
29781,55109,4
29786,55067,5
29773,55114,5
29777,55102,5
29778,55107,5
29773,55062,4
29779,55105,5
29772,55104,5
29773,55106,5
29788,55100,5
29778,55117,4
29775,55115,5
29778,55113,5
29781,55143,5
29784,55110,5
29783,55105,4
29771,55111,6
29777,55175,4
29778,55103,5
29772,55118,4
29779,55118,6
29779,55141,3
29776,55104,5
29777,55108,5
29769,55104,4
29776,55111,5
29764,55108,5
29777,55103,5
29777,55097,5
29771,55103,4
29779,55114,5
29776,55111,5
29784,55103,5
29777,55099,5
29778,55107,4
29780,55112,5
29776,55114,5
29772,55103,5
29779,55105,5
29778,55099,4
29773,55105,5
29773,55102,6
29775,55104,4
29771,55106,4
29772,55101,4
29775,55096,5
29762,55104,5
29773,55102,5
29773,55088,4
29775,55098,5
29766,55093,5
29776,55090,5
29770,55100,5
29777,55091,4
29773,55102,5
29773,55112,5
29778,55099,5
29777,55101,5
29765,55093,4
29768,55104,5
29764,55088,5
29778,55097,5
29762,55098,5
29769,55102,4
29770,55100,5
29782,55103,5
29767,55102,6
29770,55108,3
29777,55101,4
29773,55105,5
29769,55102,5
29778,55110,5
29771,55104,4
29776,55103,5
29773,55103,5
29775,55105,5
29773,55103,5
29776,55107,4
29767,55110,5
29770,55103,5
29778,55115,5
29775,55109,5
29780,55107,4
29778,55113,5
29780,55111,5
29780,55101,5
29774,55102,5
29776,55109,5
29773,55107,4
29782,55104,5
29780,55104,5
29778,55102,6
29773,55107,3
29778,55100,5
29776,55112,5
29769,55102,5
29786,55107,4
29776,55110,4
29778,55108,5
29780,55113,5
29776,55104,5
29771,55100,4
29773,55105,5
29774,55104,5
29768,55106,5
29778,55105,5
29741,55102,4
29773,55099,5
29775,55095,5
29780,55101,5
29728,55102,5
29770,55101,4
29775,55091,6
29767,55100,4
29733,55105,5
29776,55111,5
29774,55098,4
29769,55109,5
29798,55105,5
29774,55101,5
29769,55113,4
29773,55110,4
29823,55098,5
29767,55103,5
29772,55108,5
29761,55104,4
29814,55098,5
29773,55093,5
29772,55107,5
29768,55103,5
29777,55102,4
29772,55098,5
29775,55095,5
29766,55097,5
29768,55069,5
29769,55087,4
29769,55085,5
29762,55096,6
29772,55057,4
29772,55090,5
29766,55107,4
29770,55100,5
29762,55050,5
29777,55105,5
29769,55099,5
29768,55094,5
29766,55095,4
29774,55107,5
29771,55093,5
29771,55093,4
29767,55139,5
29768,55095,5
29761,55097,5
29769,55090,5
29772,55150,4
29775,55093,5
29765,55094,5
29759,55096,5
29766,55110,5
29775,55087,4
29773,55090,5
29775,55087,5
29768,55099,6
29771,55095,4
29768,55093,4
29772,55092,5
29772,55091,5
29766,55088,5
29764,55090,5
29770,55094,4
29762,55091,5
29764,55088,5
29771,55087,5
29764,55098,4
29767,55099,4
29772,55099,5
29776,55096,5
29773,55094,5
29771,55094,4
29772,55095,5
29774,55094,5
29781,55092,5
29771,55099,5
29766,55098,5
29774,55103,4
29771,55103,5
29761,55096,5
29769,55098,5
29766,55092,4
29775,55097,5
29762,55095,5
29773,55103,5
29765,55092,5
29769,55091,4
29771,55100,5
29770,55102,5
29773,55097,5
29786,55095,4
29773,55106,4
29766,55098,5
29769,55114,5
29772,55092,5
29769,55101,4
29774,55097,5
29769,55095,5
29767,55098,5
29762,55106,5
29772,55092,4
29774,55098,6
29771,55099,4
29774,55107,5
29767,55108,5
29778,55107,4
29773,55102,5
29777,55111,5
29770,55106,5
29774,55107,5
29775,55103,4
29776,55107,5
29774,55114,5
29781,55109,5
29773,55107,5
29778,55108,4
29773,55105,5
29775,55109,5
29767,55099,5
29774,55108,4
29777,55099,5
29771,55096,5
29771,55099,5
29772,55092,5
29775,55089,4
29769,55095,5
29768,55099,6
29776,55102,4
29775,55096,5
29771,55101,4
29775,55096,5
29769,55098,5
29768,55088,5
29760,55096,5
29769,55095,4
29767,55098,5
29736,55106,5
29772,55097,5
29769,55105,5
29768,55102,4
29728,55107,5
29772,55114,5
29774,55098,5
29779,55104,5
29739,55111,4
29769,55095,5
29776,55100,5
29771,55101,5
29791,55099,4
29772,55089,5
29769,55082,5
29761,55083,5
29806,55088,5
29760,55081,4
29756,55079,5
29753,55081,5
29794,55079,5
29758,55079,5
29759,55071,4
29761,55077,5
29769,55076,5
29756,55072,5
29753,55066,5
29754,55071,4
29762,55054,5
29755,55067,5
29751,55067,5
29749,55068,4
29753,55015,4
29759,55065,5
29758,55062,5
29747,55062,5
29749,55011,5
29743,55059,4
29747,55058,5
29741,55056,5
29754,55059,5
29760,55060,4
29741,55054,5
29749,55044,5
29751,55098,5
29749,55051,5
29744,55052,4
29746,55048,5
29742,55107,5
29737,55049,5
29736,55045,5
29745,55044,4
29746,55066,5
29748,55042,5
29747,55037,5
29734,55038,5
29737,55045,4
29733,55038,5
29735,55038,5
29737,55041,5
29740,55038,4
29731,55029,5
29738,55028,4
29742,55038,5
29736,55040,5
29746,55039,4
29740,55037,5
29745,55035,5
29741,55037,5
29736,55037,5
29738,55031,4
29742,55025,5
29734,55029,5
29730,55036,5
29745,55029,5
29740,55029,4
29741,55027,5
29729,55034,5
29732,55028,5
29735,55030,5
29736,55022,4
29732,55027,5
29735,55016,5
29732,55026,5
29732,55014,4
29727,55019,4
29726,55022,6
29729,55024,4
29726,55024,5
29734,55014,4
29737,55017,5
29742,55028,5
29728,55022,5
29728,55023,5
29729,55028,4
29737,55023,5
29735,55025,5
29737,55025,5
29727,55019,5
29729,55028,4
29732,55026,5
29742,55016,5
29734,55020,5
29736,55026,5
29734,55023,4
29739,55028,5
29733,55020,5
29735,55024,6
29736,55025,3
29739,55018,4
29734,55023,5
29732,55016,5
29726,55012,5
29736,55014,4
29728,55005,5
29720,55000,5
29725,55000,5
29723,55003,5
29721,55001,4
29723,55003,5
29718,55004,5
29721,54999,5
29719,54994,5
29724,55007,4
29730,55007,5
29718,55005,5
29716,54990,5
29720,54993,5
29722,54983,5
29715,54994,4
29709,54986,5
29717,54983,5
29719,54991,6
29694,54986,3
29716,54975,5
29714,54985,5
29709,54988,5
29678,54972,4
29706,54977,5
29707,54974,5
29701,54969,5
29651,54963,5
29686,54953,4
29690,54950,5
29682,54934,5
29674,54935,5
29683,54919,5
29674,54920,4
29680,54916,5
29715,54910,5
29674,54910,5
29670,54902,5
29663,54901,4
29709,54894,6
29666,54900,4
29662,54897,5
29659,54892,4
29684,54896,6
29660,54899,3
29669,54896,5
29672,54891,5
29672,54898,4
29668,54893,5
29671,54903,5
29670,54901,5
29668,54868,5
29671,54912,4
29677,54918,5
29672,54914,5
29676,54863,5
29676,54927,5
29677,54928,4
29669,54935,5
29685,54901,5
29681,54927,5
29683,54931,5
29682,54924,5
29679,54954,4
29687,54937,6
29690,54943,4
29688,54941,4
29679,55002,4
29696,54949,5
29683,54950,5
29689,54951,5
29698,54989,4
29703,54947,5
29691,54954,5
29705,54962,5
29698,54980,5
29702,54971,4
29710,54977,5
29707,54979,5
29717,54991,5
29703,54992,5
29708,54987,4
29711,54991,5
29709,54998,5
29716,55003,5
29708,54999,5
29723,55002,4
29723,55011,5
29720,55020,5
29725,55017,6
29731,55020,3
29719,55028,4
29739,55031,5
29727,55035,5
29735,55026,5
29729,55033,4
29737,55028,5
29735,55024,5
29733,55035,5
29730,55035,5
29731,55035,4
29735,55030,5
29729,55035,5
29743,55044,5
29737,55044,5
29737,55041,4
29735,55037,5
29740,55045,5
29744,55043,5
29737,55050,5
29738,55044,5
29747,55053,4
29738,55052,5
29738,55053,5
29745,55055,6
29742,55052,3
29742,55050,5
29740,55054,5
29742,55037,5
29742,55053,4
29741,55047,5
29735,55044,5
29737,55050,5
29743,55047,5
29737,55057,4
29745,55054,7
29736,55047,3
29754,55059,5
29745,55053,5
29747,55065,4
29748,55064,5
29756,55070,5
29755,55067,5
29751,55073,5
29742,55061,4
29751,55069,6
29756,55071,4
29756,55074,5
29755,55067,5
29757,55077,4
29754,55072,5
29756,55071,5
29753,55075,5
29765,55070,4
29749,55081,5
29752,55084,5
29766,55076,5
29763,55077,5
29751,55081,4
29762,55084,5
29757,55082,5
29761,55078,5
29764,55091,5
29761,55083,4
29764,55095,5
29762,55095,5
29738,55093,5
29768,55096,5
29761,55091,4
29764,55092,5
29721,55092,6
29775,55106,4
29773,55103,5
29768,55100,4
29726,55103,5
29765,55096,5
29769,55096,5
29766,55099,4
29788,55103,5
29771,55102,5
29766,55096,5
29761,55103,5
29826,55100,4
29769,55101,5
29776,55100,5
29769,55106,5
29820,55102,5
29773,55111,4
29775,55113,5
29776,55106,5
29786,55107,5
29779,55110,5
29777,55113,4
29778,55113,5
29767,55085,5
29769,55103,6
29775,55107,4
29772,55105,4
29767,55055,5
29781,55111,5
29768,55112,5
29777,55110,5
29778,55059,4
29772,55112,5
29773,55106,5
29775,55109,5
29781,55117,4
29775,55102,5
29781,55104,5
29775,55107,5
29766,55149,5
29774,55113,4
29772,55107,5
29768,55104,5
29766,55159,5
29772,55115,5
29764,55106,5
29774,55104,4
29768,55130,5
29773,55100,5
29773,55101,5
29781,55109,4
29771,55100,5
29769,55104,5
29778,55106,5
29771,55110,4
29776,55103,4
29769,55109,5
29775,55107,5
29776,55106,5
29770,55100,4
29761,55108,5
29772,55100,5
29774,55103,5
29771,55099,5
29771,55108,4
29767,55105,5
29773,55101,5
29774,55104,5
29774,55112,5
29772,55104,4
29781,55107,6
29778,55111,4
29779,55114,5
29778,55098,5
29767,55104,4
29772,55105,5
29770,55102,5
29771,55113,5
29771,55106,4
29781,55106,4
29775,55109,5
29770,55104,5
29773,55105,5
29780,55113,4
29767,55106,5
29767,55104,5
29774,55108,5
29777,55103,5
29772,55107,4
29779,55109,5
29765,55108,5
29776,55102,5
29782,55114,5
29776,55113,4
29776,55104,5
29776,55112,6
29773,55117,4
29776,55101,5
29782,55109,4
29779,55114,5
29777,55107,5
29777,55110,5
29775,55116,4
29781,55102,4
29772,55108,5
29776,55115,5
29783,55112,5
29773,55113,4
29779,55122,5
29778,55109,5
29774,55115,5
29788,55117,5
29770,55114,4
29772,55115,5
29783,55112,5
29774,55112,5
29775,55107,5
29771,55108,4
29774,55117,5
29779,55104,5
29774,55112,5
29772,55115,5
29783,55107,4
29777,55115,5
29782,55118,5
29783,55118,5
29776,55110,4
29772,55117,4
29761,55118,5
29775,55102,5
29775,55120,5
29778,55112,4
29740,55119,5
29778,55117,5
29777,55116,5
29776,55113,5
29732,55112,4
29768,55112,5
29779,55107,5
29774,55098,5
29775,55102,5
29762,55111,5
29769,55096,4
29770,55103,5
29821,55100,5
29775,55099,5
29778,55096,4
29775,55105,5
29832,55116,5
29779,55115,5
29780,55116,4
29773,55111,4
29798,55108,5
29781,55110,5
29773,55100,5
29772,55104,4
29772,55097,5
29770,55108,5
29776,55097,5
29777,55102,5
29778,55075,4
29764,55098,5
29771,55103,5
29776,55100,5
29773,55049,5
29775,55107,4
29768,55103,6
29771,55101,4
29767,55083,5
29766,55102,5
29770,55091,4
29769,55093,5
29757,55131,5
29767,55078,5
29762,55090,4
29758,55086,4
29769,55147,5
29761,55087,5
29762,55087,5
29756,55083,4
29764,55106,5
29762,55093,5
29760,55084,5
29766,55083,5
29758,55082,4
29756,55076,5
29762,55086,5
29762,55084,6
29755,55086,4
29760,55083,4
29758,55081,5
29756,55074,5
29764,55064,5
29756,55073,5
29750,55072,4
29743,55069,5
29752,55067,5
29751,55052,5
29744,55051,4
29751,55062,4
29744,55058,5
29743,55050,5
29739,55050,5
29735,55036,4
29733,55035,5
29746,55034,5
29733,55035,5
29734,55032,5
29742,55042,5
29740,55032,4
29741,55032,5
29736,55034,5
29734,55032,6
29734,55033,3
29736,55023,5
29732,55024,5
29734,55018,5
29733,55027,5
29717,55015,4
29724,55007,5
29729,55019,5
29730,55010,5
29728,55021,4
29720,55011,4
29721,55006,5
29726,55001,5
29721,55013,5
29718,55003,4
29717,55002,5
29713,54999,5
29721,55003,5
29708,54997,5
29709,54997,4
29716,54994,6
29709,54989,4
29711,54987,5
29704,54985,5
29709,54993,6
29709,54989,3
29707,54996,5
29716,54994,5
29709,54981,5
29713,54982,4
29704,54984,5
29703,54980,5
29708,54986,5
29702,54983,4
29704,54984,4
29704,54971,5
29707,54973,5
29708,54978,5
29707,54982,4
29704,54984,5
29713,54986,5
29711,54986,5
29710,54985,5
29704,54977,4
29705,54974,5
29708,54983,6
29707,54977,4
29703,54964,5
29692,54957,4
29700,54954,5
29694,54956,5
29692,54962,5
29658,54956,5
29685,54955,4
29688,54963,5
29690,54948,5
29644,54945,5
29683,54947,4
29687,54951,4
29679,54944,5
29658,54946,5
29687,54939,5
29677,54939,4
29684,54937,5
29712,54931,5
29679,54940,5
29682,54933,5
29677,54933,4
29728,54926,5
29666,54926,5
29678,54921,6
29669,54917,4
29695,54912,4
29664,54909,5
29664,54913,5
29666,54906,5
29675,54914,5
29671,54910,4
29665,54903,5
29662,54907,5
29669,54875,5
29661,54897,4
29664,54912,4
29655,54904,5
29661,54856,5
29663,54899,5
29666,54890,4
29661,54902,5
29664,54859,5
29663,54886,5
29667,54899,5
29662,54885,5
29657,54916,4
29671,54895,5
29664,54889,5
29661,54884,6
29659,54944,3
29655,54895,5
29658,54880,5
29651,54887,5
29657,54932,5
29662,54887,4
29656,54877,5
29655,54882,5
29656,54898,5
29654,54882,5
29653,54881,4
29646,54888,5
29650,54883,5
29653,54892,5
29658,54885,4
29653,54876,5
29649,54884,5
29647,54879,5
29655,54875,5
29647,54866,4
29649,54860,6
29643,54875,4
29644,54865,5
29639,54868,5
29645,54869,4
29641,54870,5
29636,54865,5
29634,54845,5
29642,54853,5
29638,54850,4
29645,54845,5
29647,54851,5
29641,54847,5
29632,54849,5
29630,54853,4
29642,54858,5
29637,54851,5
29642,54859,5
29643,54871,4
29643,54855,4
29645,54855,5
29644,54848,5
29644,54859,5
29650,54856,4
29644,54852,5
29633,54855,6
29648,54860,4
29646,54867,5
29635,54862,4
29643,54855,5
29648,54861,5
29643,54850,5
29645,54851,5
29625,54845,4
29634,54837,5
29632,54836,5
29631,54838,5
29629,54828,5
29625,54826,4
29626,54836,5
29623,54824,5
29618,54828,5
29618,54826,4
29610,54819,4
29621,54826,5
29617,54821,5
29621,54824,5
29624,54822,4
29624,54820,5
29624,54827,5
29621,54828,6
29619,54825,4
29617,54832,4
29626,54824,5
29622,54833,5
29623,54824,5
29623,54832,5
29627,54829,4
29617,54833,5
29630,54833,5
29619,54835,5
29629,54840,5
29620,54844,4
29627,54836,5
29623,54839,5
29633,54833,5
29627,54840,4
29619,54839,4
29627,54842,5
29608,54837,5
29624,54837,5
29623,54838,5
29632,54837,4
29586,54841,5
29634,54846,5
29625,54839,5
29627,54850,4
29588,54848,5
29631,54839,5
29628,54841,5
29626,54841,5
29632,54846,4
29637,54847,5
29636,54845,5
29626,54855,5
29683,54853,5
29642,54858,4
29641,54859,5
29633,54858,5
29704,54864,5
29643,54858,5
29645,54863,4
29639,54867,5
29670,54868,5
29645,54866,5
29647,54880,4
29647,54871,5
29653,54880,4
29649,54873,5
29643,54878,5
29650,54884,4
29649,54850,5
29657,54883,5
29655,54885,5
29649,54884,5
29656,54833,4
29654,54892,5
29660,54896,5
29656,54902,5
29664,54878,5
29658,54905,4
29663,54898,5
29669,54914,5
29667,54941,5
29669,54917,5
29672,54919,4
29673,54920,5
29680,54986,5
29680,54936,5
29678,54941,4
29680,54944,4
29677,54984,6
29675,54950,4
29686,54955,5
29687,54951,4
29686,54970,5
29687,54959,5
29694,54969,5
29698,54959,5
29690,54968,4
29694,54966,5
29692,54965,5
29690,54963,5
29693,54957,5
29700,54965,4
29689,54952,5
29697,54967,5
29690,54956,5
29698,54968,5
29692,54963,4
29696,54970,5
29697,54972,5
29692,54970,5
29692,54967,5
29695,54969,4
29696,54979,5
29700,54978,5
29698,54977,5
29705,54988,4
29694,54981,5
29711,54980,5
29706,54990,5
29704,54989,5
29706,54986,4
29717,54992,5
29708,54996,5
29705,54992,5
29711,55000,5
29712,54992,4
29717,54998,5
29715,54997,5
29709,54992,5
29710,55000,5
29707,54999,4
29713,54996,5
29714,54999,5
29709,55002,5
29716,54996,5
29703,55000,4
29715,54992,5
29711,54997,5
29708,54996,5
29715,55001,4
29715,54992,4
29706,55002,5
29707,55003,5
29710,54982,5
29710,54996,4
29710,54984,5
29702,54991,5
29700,54987,5
29712,54989,5
29699,54990,4
29711,54999,5
29710,54995,5
29703,54988,5
29708,54990,5
29705,54994,4
29708,54982,5
29700,54990,5
29703,54993,5
29696,54986,5
29706,54983,5
29702,54980,4
29702,54984,5
29702,54979,5
29695,54981,4
29701,54990,4
29703,54977,5
29702,54985,5
29707,54987,5
29705,54982,4
29705,54984,5
29700,54982,5
29706,54980,5
29705,54978,5
29675,54983,4
29703,54982,5
29703,54981,5
29706,54978,5
29653,54987,5
29706,54977,4
29698,54978,5
29700,54972,6
29652,54972,4
29700,54976,5
29697,54974,4
29692,54976,7
29708,54965,3
29695,54985,5
29701,54976,5
29695,54977,4
29752,54978,5
29704,54976,5
29703,54973,5
29700,54972,4
29747,54979,5
29702,54976,5
29706,54986,5
29705,54981,5
29727,54986,4
29707,54998,5
29710,54998,5
29706,54995,5
29713,54976,5
29706,54995,4
29717,54998,5
29714,54986,5
29708,54960,6
29701,55000,4
29704,54983,4
29711,54989,5
29700,54938,5
29704,54985,5
29713,54999,5
29707,54989,5
29709,54980,4
29711,54992,5
29707,54987,5
29701,54995,4
29705,55024,4
29719,54986,5
29709,54988,5
29700,54991,5
29702,55051,4
29708,54987,5
29702,54987,5
29703,54989,5
29703,55029,5
29700,54987,5
29708,54994,4
29709,54999,5
29707,54998,5
29711,54987,6
29704,54993,3
29707,54991,5
29706,54995,5
29705,55001,5
29708,55001,5
29712,54988,4
29705,54992,5
29704,54999,5
29709,54988,5
29711,54996,4
29706,54992,4
29709,54995,5
29703,54990,5
29703,54991,5
29707,54987,4
29712,54992,5
29704,54991,5
29712,54981,5
29701,54993,5
29706,54983,4
29695,54989,6
29699,54983,4
29705,54982,5
29704,54984,5
29704,54984,6
29703,54983,3
29701,54975,5
29697,54977,5
29692,54970,5
29693,54962,4
29697,54972,5
29691,54970,5
29695,54964,5
29697,54967,5
29698,54971,4
29696,54968,5
29690,54971,5
29689,54960,5
29697,54968,4
29693,54964,5
29696,54963,5
29695,54963,5
29691,54957,5
29690,54960,4
29689,54961,5
29688,54959,6
29689,54950,4
29687,54950,5
29688,54959,4
29687,54948,5
29683,54958,5
29683,54952,5
29687,54947,5
29678,54946,4
29684,54944,5
29685,54944,5
29684,54954,5
29678,54950,5
29682,54952,4
29681,54953,5
29677,54948,5
29685,54948,5
29690,54951,4
29684,54949,4
29679,54941,5
29679,54944,5
29680,54939,5
29679,54944,4
29678,54938,5
29675,54938,5
29671,54929,6
29670,54927,4
29667,54920,4
29667,54920,5
29665,54918,5
29663,54912,5
29659,54901,5
29662,54909,4
29655,54888,5
29614,54876,5
29650,54867,5
29642,54848,5
29623,54835,4
29582,54819,5
29615,54813,5
29613,54815,5
29612,54806,5
29569,54804,4
29609,54794,5
29598,54805,5
29608,54794,5
29616,54800,5
29599,54792,4
29593,54783,5
29591,54788,5
29637,54778,6
29595,54763,3
29591,54766,5
29583,54762,5
29620,54753,5
29579,54737,5
29565,54730,4
29567,54725,5
29572,54726,5
29560,54717,5
29553,54704,5
29562,54711,4
29550,54682,5
29543,54701,5
29547,54702,5
29548,54692,5
29547,54643,4
29542,54678,5
29545,54679,5
29539,54684,5
29539,54613,4
29537,54665,5
29539,54668,4
29538,54671,5
29532,54653,5
29527,54672,4
29521,54664,5
29531,54659,5
29526,54698,5
29516,54654,5
29526,54649,4
29520,54641,5
29520,54701,5
29518,54633,5
29518,54628,5
29512,54629,4
29509,54648,5
29512,54623,5
29510,54629,5
29509,54623,5
29515,54624,4
29515,54609,5
29508,54615,5
29509,54618,5
29510,54622,4
29500,54621,4
29510,54626,6
29502,54622,4
29504,54612,5
29513,54619,4
29516,54629,5
29507,54614,5
29514,54628,5
29519,54629,5
29510,54629,4
29514,54636,5
29516,54631,5
29518,54631,5
29516,54628,5
29520,54640,4
29519,54631,5
29523,54629,5
29518,54628,5
29513,54631,5
29520,54633,4
29513,54637,5
29517,54629,5
29518,54637,5
29520,54635,5
29510,54630,4
29514,54642,5
29511,54633,6
29514,54625,4
29508,54622,4
29511,54614,5
29502,54608,5
29497,54605,5
29502,54603,5
29501,54597,4
29504,54599,5
29499,54604,5
29494,54603,5
29496,54602,5
29500,54609,4
29500,54593,5
29489,54583,5
29496,54588,5
29491,54582,5
29499,54578,4
29486,54577,5
29487,54580,5
29491,54570,5
29488,54582,5
29482,54581,4
29485,54583,5
29493,54581,5
29483,54585,5
29487,54585,4
29491,54586,4
29489,54592,5
29500,54591,5
29497,54598,5
29498,54604,4
29508,54610,5
29502,54616,5
29514,54621,5
29511,54621,5
29513,54620,4
29501,54621,5
29515,54629,5
29509,54624,5
29516,54627,7
29514,54634,2
29512,54627,5
29520,54632,5
29509,54637,5
29507,54636,5
29517,54645,5
29524,54648,4
29519,54653,5
29526,54650,5
29494,54654,4
29523,54650,4
29527,54648,5
29520,54658,5
29475,54646,5
29528,54646,4
29527,54659,5
29523,54659,5
29493,54665,5
29535,54667,5
29537,54671,4
29541,54672,5
29569,54679,5
29539,54682,5
29538,54675,5
29544,54681,4
29598,54688,5
29535,54685,5
29540,54692,5
29540,54691,5
29583,54696,4
29550,54698,6
29546,54705,4
29552,54700,5
29561,54706,5
29559,54703,4
29553,54700,5
29558,54701,5
29556,54682,5
29550,54712,4
29559,54704,4
29557,54706,5
29544,54668,5
29555,54713,5
29557,54707,4
29555,54713,5
29557,54658,5
29561,54720,5
29553,54720,5
29559,54722,5
29562,54716,4
29560,54718,5
29559,54725,5
29557,54723,5
29566,54773,4
29559,54723,5
29563,54717,5
29559,54722,5
29566,54783,5
29559,54728,4
29577,54730,5
29562,54732,5
29563,54755,5
29556,54732,4
29561,54735,4
29568,54722,5
29568,54733,5
29564,54736,5
29558,54738,4
29569,54732,5
29573,54740,5
29570,54738,5
29562,54735,5
29567,54729,4
29561,54740,5
29561,54732,5
29565,54736,5
29559,54728,5
29552,54723,4
29555,54725,5
29554,54722,5
29552,54719,5
29556,54713,5
29551,54720,4
29560,54725,5
29562,54716,5
29554,54719,5
29557,54719,5
29562,54722,4
29561,54721,5
29550,54726,5
29560,54716,5
29549,54715,4
29553,54708,5
29563,54725,5
29560,54724,5
29553,54721,5
29551,54720,4
29559,54719,6
29559,54724,4
29559,54726,5
29548,54721,5
29548,54715,6
29557,54714,3
29553,54719,5
29557,54716,5
29557,54722,5
29556,54716,4
29559,54722,5
29563,54718,5
29556,54726,5
29552,54719,5
29556,54722,4
29555,54726,5
29549,54722,5
29556,54713,5
29550,54712,4
29556,54720,4
29545,54715,5
29550,54721,5
29550,54717,5
29555,54715,4
29556,54720,5
29558,54722,6
29561,54725,4
29554,54716,5
29550,54725,4
29553,54722,7
29556,54724,3
29561,54726,5
29559,54723,5
29564,54723,4
29566,54722,5
29561,54728,5
29557,54733,5
29558,54720,5
29564,54726,4
29565,54736,5
29566,54724,5
29565,54731,5
29564,54730,5
29571,54738,4
29567,54733,5
29564,54729,5
29562,54727,5
29569,54743,4
29567,54738,5
29536,54746,5
29574,54744,6
29568,54761,4
29571,54756,4
29521,54752,5
29580,54753,5
29576,54758,5
29580,54769,5
29547,54776,4
29584,54778,5
29581,54775,5
29585,54785,5
29610,54791,5
29597,54787,4
29599,54793,5
29590,54799,5
29650,54796,5
29595,54798,5
29595,54810,4
29594,54801,5
29643,54809,5
29606,54818,5
29610,54818,5
29617,54829,4
29632,54830,5
29625,54833,5
29625,54839,6
29627,54847,3
29627,54824,5
29627,54851,5
29627,54844,5
29629,54858,5
29628,54810,4
29630,54851,5
29632,54867,5
29630,54858,5
29636,54816,5
29645,54873,4
29638,54882,5
29645,54896,5
29641,54895,5
29657,54901,5
29660,54891,4
29655,54906,5
29652,54958,5
29653,54905,5
29653,54914,5
29660,54920,5
29656,54970,4
29662,54914,5
29660,54919,5
29662,54924,6
29662,54937,3
29663,54914,5
29658,54916,5
29661,54923,5
29660,54923,4
29661,54917,5
29655,54922,5
29662,54923,5
29659,54914,5
29663,54914,4
29655,54917,5
29660,54909,5
29655,54914,5
29664,54914,5
29662,54920,4
29655,54920,5
29660,54906,5
29656,54919,5
29657,54921,5
29664,54919,4
29655,54916,6
29658,54915,4
29661,54916,5
29667,54923,4
29659,54912,4
29661,54914,5
29663,54921,5
29670,54920,5
29666,54926,4
29666,54927,5
29665,54916,5
29666,54923,5
29663,54929,5
29670,54925,4
29673,54927,5
29662,54932,5
29672,54931,5
29665,54930,5
29674,54927,4
29673,54923,5
29677,54934,5
29669,54927,5
29675,54935,5
29669,54931,4
29669,54929,5
29672,54940,6
29668,54928,4
29669,54930,5
29666,54935,4
29672,54931,5
29669,54930,5
29670,54935,5
29668,54934,4
29670,54925,5
29670,54925,5
29671,54929,5
29673,54921,5
29664,54922,4
29666,54920,5
29670,54934,5
29669,54928,5
29667,54927,5
29671,54928,4
29673,54929,5
29666,54929,5
29665,54928,5
29671,54933,5
29676,54923,4
29665,54935,5
29674,54940,5
29667,54923,6
29666,54919,4
29668,54935,4
29672,54932,5
29669,54929,5
29667,54925,5
29664,54924,4
29669,54929,4
29670,54920,5
29672,54929,5
29659,54921,5
29670,54922,4
29673,54924,5
29670,54921,5
29670,54928,5
29643,54916,5
29656,54925,4
29665,54920,5
29661,54917,5
29612,54914,5
29658,54913,5
29661,54917,5
29662,54909,4
29619,54918,5
29657,54917,5
29661,54924,5
29657,54910,4
29679,54912,5
29657,54918,5
29663,54911,5
29669,54924,4
29721,54916,4
29665,54915,5
29656,54915,5
29662,54924,5
29703,54916,4
29665,54919,5
29664,54924,5
29672,54922,5
29687,54919,5
29664,54928,4
29673,54928,5
29668,54922,5
29671,54902,5
29665,54923,5
29670,54926,4
29666,54927,6
29665,54889,4
29672,54934,5
29662,54928,5
29665,54927,4
29664,54886,5
29667,54937,5
29666,54928,5
29672,54934,5
29667,54928,4
29665,54930,5
29667,54926,5
29674,54937,5
29670,54976,4
29672,54931,4
29663,54924,5
29673,54931,5
29663,54979,5
29672,54938,4
29675,54930,5
29667,54926,5
29665,54944,5
29661,54924,5
29661,54927,4
29669,54925,5
29666,54929,6
29667,54928,4
29660,54917,5
29662,54926,4
29666,54921,5
29674,54919,5
29669,54924,5
29662,54926,5
29663,54922,4
29668,54916,5
29667,54919,5
29664,54913,5
29659,54918,5
29666,54921,4
29663,54917,5
29663,54918,5
29669,54916,5
29660,54920,4
29668,54917,5
29666,54915,5
29658,54919,5
29664,54919,5
29660,54920,4
29673,54921,5
29661,54916,5
29658,54916,5
29659,54915,5
29668,54911,4
29667,54913,5
29661,54914,5
29668,54922,5
29664,54922,5
29667,54928,4
29661,54926,5
29660,54929,5
29666,54932,5
29675,54935,5
29681,54940,4
29673,54938,5
29676,54944,5
29680,54943,5
29669,54943,4
29681,54943,4
29675,54942,5
29674,54942,5
29678,54936,5
29673,54941,5
29666,54922,4
29654,54910,5
29660,54907,5
29656,54893,5
29646,54900,4
29648,54877,5
29641,54880,5
29635,54868,5
29633,54874,5
29626,54858,4
29628,54853,5
29622,54839,5
29618,54828,5
29622,54834,5
29610,54828,4
29613,54832,5
29615,54839,5
29615,54824,5
29606,54818,5
29612,54815,4
29614,54821,5
29616,54805,5
29605,54809,5
29603,54802,4
29603,54799,5
29594,54804,5
29592,54801,5
29596,54795,5
29596,54788,4
29590,54789,5
29590,54799,5
29594,54789,5
29586,54787,5
29588,54783,4
29560,54777,5
29581,54778,5
29586,54775,5
29584,54777,5
29532,54775,4
29586,54767,5
29578,54765,5
29581,54757,5
29539,54748,5
29565,54743,4
29567,54731,5
29562,54727,6
29584,54737,4
29561,54731,4
29562,54729,4
29570,54728,6
29611,54731,3
29565,54738,5
29567,54736,4
29556,54733,5
29612,54734,5
29569,54732,5
29565,54742,5
29571,54746,4
29577,54747,5
29564,54741,5
29571,54748,5
29569,54749,5
29578,54739,4
29573,54751,5
29576,54757,5
29581,54758,5
29576,54719,5
29577,54756,4
29577,54754,5
29576,54760,5
29574,54708,6
29583,54747,4
29575,54751,4
29568,54752,5
29567,54733,5
29569,54738,5
29572,54731,4
29569,54735,5
29569,54779,5
29564,54738,5
29579,54737,5
29567,54729,4
29556,54787,5
29563,54732,5
29554,54735,5
29565,54723,5
29556,54746,4
29556,54730,5
29560,54720,5
29560,54728,5
29557,54729,5
29565,54731,5
29566,54729,4
29567,54731,5
29559,54729,5
29567,54736,6
29571,54737,3
29567,54733,5
29558,54722,5
29561,54726,5
29561,54722,4
29558,54717,4
29558,54704,5
29550,54709,5
29552,54708,5
29552,54700,4
29553,54717,5
29548,54718,5
29561,54711,5
29552,54710,5
29549,54721,4
29557,54716,5
29560,54712,5
29548,54706,5
29555,54712,5
29558,54709,4
29554,54709,6
29553,54706,4
29547,54711,5
29553,54706,5
29546,54702,6
29542,54706,3
29548,54699,5
29552,54705,5
29546,54699,5
29550,54701,4
29537,54702,5
29542,54705,5
29547,54701,5
29541,54694,4
29540,54699,5
29542,54701,5
29542,54708,5
29545,54697,5
29549,54706,4
29559,54702,5
29550,54701,5
29547,54707,5
29550,54702,5
29541,54705,4
29540,54712,5
29546,54702,6
29560,54720,4
29556,54709,5
29551,54718,4
29559,54729,5
29550,54724,5
29560,54722,5
29567,54731,5
29565,54728,4
29560,54729,5
29573,54725,5
29558,54740,5
29566,54730,4
29563,54736,4
29565,54734,5
29567,54739,5
29562,54742,5
29560,54744,4
29566,54740,5
29565,54746,5
29565,54733,5
29563,54737,5
29574,54730,4
29570,54726,5
29572,54734,5
29560,54739,6
29569,54740,4
29568,54742,4
29572,54737,5
29574,54743,5
29540,54752,5
29562,54732,5
29570,54733,4
29570,54745,5
29525,54747,5
29579,54756,5
29566,54739,5
29571,54750,4
29517,54748,5
29576,54756,5
29577,54757,5
29578,54747,4
29589,54757,5
29572,54754,5
29577,54757,5
29565,54759,5
29617,54751,5
29576,54754,4
29573,54749,5
29576,54742,5
29625,54753,6
29585,54753,3
29580,54759,5
29584,54762,5
29599,54763,5
29587,54758,5
29580,54755,4
29575,54763,5
29576,54748,5
29581,54749,5
29574,54742,5
29576,54742,4
29567,54708,5
29578,54746,5
29578,54739,5
29570,54750,5
29575,54703,4
29571,54755,5
29574,54749,5
29579,54759,5
29577,54742,4
29572,54745,6
29577,54751,4
29574,54743,5
29575,54791,5
29569,54747,4
29566,54749,5
29568,54743,5
29572,54804,5
29571,54746,5
29575,54739,4
29561,54741,5
29565,54768,5
29557,54737,5
29560,54729,5
29558,54730,4
29562,54733,5
29564,54726,5
29568,54722,5
29575,54734,5
29567,54730,4
29557,54729,5
29570,54741,5
29566,54739,5
29562,54735,4
29563,54737,5
29566,54724,6
29556,54722,4
29567,54738,5
29563,54729,4
29562,54735,5
29569,54738,5
29565,54739,5
29566,54734,5
29565,54734,4
29566,54732,5
29565,54736,5
29556,54730,5
29551,54726,5
29563,54719,4
29556,54727,5
29565,54717,5
29556,54727,5
29561,54726,5
29553,54721,4
29557,54725,5
29560,54723,5
29564,54726,5
29551,54714,4
29565,54723,4
29561,54730,5
29553,54721,6
29551,54718,4
29556,54717,4
29562,54720,5
29558,54727,5
29552,54727,5
29562,54725,5
29558,54728,4
29552,54719,5
29555,54724,5
29554,54723,5
29552,54718,5
29560,54718,4
29557,54717,5
29557,54719,5
29553,54714,5
29557,54719,5
29567,54718,4
29562,54713,5
29556,54713,5
29559,54713,5
29549,54720,5
29562,54721,4
29552,54733,5
29552,54735,5
29554,54732,5
29564,54732,4
29564,54736,5
29564,54727,5
29568,54734,5
29563,54741,5
29563,54742,4
29566,54751,5
29578,54751,5
29580,54740,5
29575,54750,5
29577,54757,4
29582,54750,5
29565,54756,5
29575,54747,5
29566,54743,5
29575,54748,4
29575,54745,5
29566,54746,5
29569,54750,5
29568,54749,5
29555,54753,5
29576,54746,4
29580,54755,5
29573,54754,5
29530,54749,4
29577,54761,5
29577,54756,5
29578,54765,5
29534,54768,5
29580,54776,4
29583,54769,5
29574,54774,5
29595,54777,5
29599,54782,5
29586,54789,4
29602,54792,5
29637,54788,5
29591,54794,5
29600,54792,5
29602,54791,4
29644,54800,5
29599,54793,5
29590,54790,5
29595,54793,5
29612,54794,4
29594,54805,6
29601,54807,4
29600,54802,5
29595,54784,4
29605,54800,4
29598,54803,5
29606,54807,5
29605,54765,5
29598,54808,4
29605,54809,5
29607,54812,5
29602,54768,5
29598,54812,5
29597,54805,4
29597,54800,5
29603,54789,5
29600,54808,5
29600,54803,5
29600,54808,4
29601,54843,5
29598,54805,5
29598,54800,5
29601,54807,5
29607,54861,4
29605,54812,5
29601,54813,6
29605,54808,4
29605,54844,5
29606,54820,4
29611,54813,5
29609,54819,5
29599,54831,5
29605,54811,4
29613,54813,5
29609,54817,5
29602,54822,5
29600,54817,5
29612,54811,4
29610,54822,5
29612,54822,5
29608,54818,5
29612,54823,5
29615,54837,4
29605,54824,5
29618,54823,5
29620,54833,5
29620,54842,5
29618,54826,4
29619,54830,5
29618,54846,5
29617,54835,5
29630,54841,5
29625,54845,4
29622,54845,5
29625,54843,5
29627,54851,5
29626,54843,4
29615,54851,4
29623,54851,5
29630,54843,5
29622,54840,5
29619,54848,4
29619,54845,5
29618,54845,5
29619,54843,5
29625,54842,5
29630,54856,4
29639,54846,5
29632,54858,5
29633,54862,5
29639,54864,5
29634,54853,5
29634,54858,3
29642,54870,5
29631,54868,5
29641,54868,5
29632,54857,4
29636,54857,5
29632,54866,5
29629,54866,5
29636,54869,5
29640,54866,4
29639,54876,5
29638,54868,5
29638,54880,5
29634,54881,4
29642,54871,5
29637,54883,5
29641,54875,5
29647,54890,5
29647,54877,4
29642,54889,5
29645,54881,6
29645,54882,4
29638,54882,5
29644,54893,4
29646,54895,7
29647,54883,3
29641,54888,5
29641,54889,5
29653,54884,4
29652,54897,5
29651,54896,5
29653,54893,5
29655,54889,5
29648,54902,4
29639,54902,5
29659,54901,5
29646,54903,5
29655,54910,4
29649,54897,4
29651,54898,5
29628,54896,5
29652,54894,5
29650,54899,4
29641,54901,8
29614,54888,2
29625,54888,6
29641,54886,4
29652,54882,4
29601,54886,5
29643,54886,5
29645,54883,5
29646,54891,5
29656,54881,4
29641,54884,5
29640,54886,5
29647,54889,5
29687,54885,5
29646,54892,4
29648,54897,5
29658,54898,5
29709,54899,5
29648,54910,4
29655,54911,4
29663,54918,5
29673,54918,5
29660,54917,5
29669,54921,5
29671,54927,4
29672,54923,5
29677,54940,5
29675,54943,6
29670,54945,3
29682,54916,5
29681,54949,5
29685,54956,5
29686,54957,5
29690,54902,4
29690,54965,5
29685,54956,5
29686,54963,5
29685,54938,5
29688,54960,4
29682,54968,5
29695,54969,5
29684,55003,5
29691,54969,5
29689,54961,4
29694,54974,5
29693,55025,5
29689,54977,5
29691,54974,4
29699,54980,5
29694,55010,4
29701,54981,5
29700,54983,5
29703,54984,6
29707,55004,3
29701,54997,5
29704,54995,5
29710,55002,5
29709,55001,4
29702,54999,5
29706,55003,5
29714,55012,5
29710,54999,5
29712,55012,4
29709,55001,5
29706,54999,5
29711,54998,5
29710,55008,5
29700,55005,4
29715,55011,5
29728,55023,5
29715,55021,5
29722,55023,4
29715,55028,4
29724,55032,6
29721,55038,4
29734,55032,5
29721,55050,4
29725,55048,5
29734,55050,5
29731,55049,5
29731,55052,5
29736,55049,4
29735,55050,5
29729,55044,5
29730,55039,5
29727,55035,5
29729,55033,4
29724,55027,5
29720,55007,5
29705,55009,5
29703,54996,5
29706,54994,4
29705,54983,5
29696,54987,5
29693,54973,5
29692,54964,5
29689,54955,4
29682,54948,5
29674,54943,6
29674,54943,4
29660,54926,4
29659,54930,5
29665,54920,5
29661,54907,5
29661,54907,5
29663,54910,4
29652,54904,5
29653,54907,5
29654,54898,5
29650,54900,5
29654,54904,4
29658,54907,5
29656,54901,5
29658,54907,5
29649,54906,5
29661,54903,4
29647,54902,5
29648,54901,5
29651,54900,5
29648,54910,5
29645,54910,4
29652,54902,5
29658,54904,5
29656,54896,6
29645,54903,3
29655,54898,4
29659,54903,5
29656,54903,5
29659,54901,5
29656,54903,4
29651,54902,5
29663,54909,5
29660,54904,5
29654,54910,5
29633,54910,4
29662,54916,5
29659,54907,5
29650,54910,5
29612,54911,5
29656,54908,4
29653,54908,5
29663,54909,5
29619,54919,5
29660,54925,5
29667,54918,5
29666,54926,4
29677,54928,5
29669,54933,5
29663,54929,5
29668,54946,4
29711,54939,5
29681,54941,5
29677,54948,5
29676,54944,4
29728,54945,5
29676,54950,5
29675,54949,5
29675,54940,5
29688,54946,4
29676,54940,5
29687,54945,5
29684,54941,5
29674,54933,5
29674,54931,4
29668,54939,5
29675,54935,5
29667,54892,5
29674,54927,5
29662,54924,4
29659,54915,6
29660,54870,4
29659,54915,5
29656,54908,5
29657,54918,5
29653,54885,4
29657,54911,5
29660,54909,5
29647,54899,4
29660,54937,4
29651,54903,5
29652,54896,5
29648,54895,5
29650,54951,4
29645,54895,5
29649,54883,5
29636,54885,5
29641,54915,5
29642,54878,4
29632,54868,5
29638,54874,5
29637,54884,5
29640,54869,5
29634,54861,4
29639,54859,5
29630,54856,6
29626,54855,4
29627,54850,5
29623,54856,4
29633,54844,5
29625,54853,5
29627,54848,5
29625,54843,4
29625,54848,4
29627,54846,5
29623,54836,5
29620,54845,5
29621,54841,4
29617,54842,5
29618,54844,5
29612,54837,5
29620,54846,5
29626,54847,4
29617,54851,5
29625,54843,5
29625,54851,5
29619,54850,5
29619,54848,4
29611,54847,5
29630,54848,5
29625,54847,5
29623,54844,5
29634,54858,4
29631,54861,5
29631,54861,5
29636,54865,5
29644,54869,5
29631,54867,4
29634,54875,5
29641,54873,5
29643,54873,5
29635,54865,4
29629,54873,4
29628,54865,5
29642,54866,5
29637,54874,5
29632,54870,4
29633,54853,5
29634,54860,5
29623,54859,5
29631,54849,5
29620,54849,5
29625,54847,4
29629,54840,5
29627,54849,5
29628,54842,5
29626,54860,4
29636,54862,5
29632,54867,5
29634,54873,5
29642,54886,5
29644,54888,4
29648,54892,5
29643,54896,5
29646,54899,5
29656,54900,4
29656,54901,4
29646,54900,5
29660,54895,5
29644,54898,5
29653,54895,4
29644,54883,5
29643,54878,5
29641,54875,5
29637,54870,5
29636,54865,4
29628,54862,6
29630,54870,4
29634,54858,5
29639,54865,5
29635,54875,4
29643,54873,5
29602,54883,5
29640,54889,5
29648,54881,5
29641,54900,4
29599,54898,5
29655,54895,5
29650,54894,5
29655,54897,5
29604,54893,4
29646,54892,5
29650,54895,5
29637,54884,5
29652,54873,4
29638,54880,5
29646,54868,5
29641,54877,6
29694,54880,4
29638,54879,4
29640,54864,5
29638,54860,6
29683,54865,4
29628,54867,5
29637,54867,4
29638,54869,5
29650,54871,5
29639,54874,5
29639,54875,5
29643,54879,4
29649,54867,5
29646,54884,5
29646,54886,5
29640,54877,5
29643,54828,4
29630,54862,5
29633,54854,5
29629,54845,5
29632,54797,4
29625,54847,4
29625,54851,5
29617,54854,5
29630,54836,5
29622,54841,3
29626,54845,5
29628,54849,5
29624,54886,5
29635,54856,5
29624,54841,4
29628,54858,5
29631,54911,5
29631,54847,5
29630,54855,5
29635,54861,4
29636,54884,5
29627,54860,5
29625,54852,5
29639,54853,5
29635,54869,4
29629,54866,5
29635,54866,5
29628,54859,5
29640,54856,5
29642,54876,5
29631,54871,4
29635,54869,5
29637,54875,5
29647,54870,6
29642,54881,3
29645,54874,5
29642,54886,5
29644,54879,5
29639,54878,4
29651,54876,5
29648,54870,5
29646,54871,5
29644,54872,5
29644,54870,4
29637,54864,5
29637,54874,5
29651,54874,5
29645,54870,5
29636,54871,4
29638,54878,5
29639,54874,5
29644,54879,5
29643,54874,5
29639,54867,4
29645,54877,6
29639,54860,4
29644,54864,5
29628,54869,4
29638,54862,6
29637,54863,3
29629,54870,5
29634,54852,5
29627,54852,4
29632,54862,5
29634,54853,5
29628,54862,5
29625,54850,5
29621,54848,4
29626,54834,5
29621,54840,5
29613,54833,5
29607,54817,5
29607,54823,4
29611,54822,5
29616,54814,5
29608,54811,5
29615,54824,5
29613,54817,4
29612,54816,5
29613,54811,6
29605,54814,4
29608,54813,4
29608,54813,4
29608,54811,5
29611,54810,5
29609,54808,5
29610,54814,4
29616,54822,5
29611,54824,5
29605,54821,5
29614,54826,5
29612,54830,4
29612,54827,5
29611,54825,5
29615,54826,5
29611,54826,5
29610,54824,4
29610,54833,5
29612,54823,5
29611,54826,5
29608,54829,5
29619,54822,4
29625,54835,5
29610,54831,5
29616,54827,6
29594,54829,4
29619,54825,4
29611,54819,5
29617,54829,5
29563,54827,5
29611,54838,4
29611,54819,4
29610,54830,5
29559,54819,5
29612,54824,5
29614,54831,5
29617,54825,4
29622,54834,5
29613,54827,5
29615,54822,5
29614,54823,4
29665,54829,5
29614,54814,5
29608,54823,5
29615,54832,5
29665,54827,5
29606,54828,4
29614,54824,5
29614,54824,5
29630,54826,6
29613,54824,3
29616,54817,5
29608,54822,5
29620,54805,5
29615,54824,5
29614,54831,4
29613,54827,5
29614,54788,5
29615,54827,5
29620,54825,4
29610,54834,5
29623,54780,5
29610,54832,5
29612,54828,5
29616,54832,5
29613,54810,4
29614,54827,5
29620,54826,5
29610,54816,5
29611,54865,4
29615,54830,6
29608,54830,4
29608,54817,5
29617,54882,5
29609,54822,4
29613,54822,5
29617,54829,5
29615,54858,5
29612,54827,5
29606,54824,4
29612,54832,5
29618,54840,5
29619,54836,5
29619,54835,4
29617,54837,4
29616,54833,5
29623,54843,5
29617,54839,5
29628,54846,4
29623,54852,5
29623,54853,5
29631,54853,5
29634,54849,5
29628,54854,4
29632,54861,5
29626,54862,6
29633,54865,4
29640,54867,5
29631,54863,4
29632,54873,5
29637,54875,5
29644,54879,5
29639,54884,5
29642,54883,4
29650,54893,5
29644,54894,5
29659,54895,5
29651,54898,4
29651,54889,4
29649,54895,5
29656,54897,5
29644,54889,5
29649,54895,4
29649,54895,5
29646,54903,5
29652,54893,5
29651,54884,5
29652,54885,4
29656,54897,5
29657,54889,5
29647,54892,6
29647,54896,4
29648,54893,4
29638,54894,5
29649,54893,5
29643,54893,5
29647,54888,5
29645,54903,4
29653,54893,5
29655,54898,5
29650,54900,5
29660,54900,5
29651,54903,4
29661,54903,5
29661,54909,5
29664,54917,5
29662,54919,4
29669,54927,4
29666,54934,5
29676,54944,5
29670,54946,5
29674,54952,5
29683,54967,4
29675,54960,5
29677,54965,5
29689,54958,5
29688,54958,4
29689,54964,5
29688,54961,5
29684,54963,5
29691,54974,5
29692,54971,4
29683,54972,5
29687,54967,5
29688,54961,5
29691,54966,5
29684,54962,4
29695,54969,5
29691,54968,5
29683,54972,5
29694,54970,4
29687,54971,4
29662,54975,5
29686,54982,5
29696,54975,5
29692,54984,4
29648,54986,6
29695,54982,4
29695,54980,5
29693,54983,5
29659,54988,4
29703,54988,5
29709,54988,5
29705,54984,5
29708,54986,5
29693,54988,4
29698,54982,5
29702,54985,5
29747,54988,5
29708,54981,5
29699,54988,4
29701,54986,5
29750,54975,5
29701,54983,5
29700,54985,5
29701,54980,4
29713,54981,5
29703,54984,5
29694,54993,5
29698,54987,4
29713,54973,4
29698,54989,6
29703,54991,4
29703,54994,5
29708,54965,4
29708,54991,5
29707,55000,5
29708,55000,5
29704,54958,5
29717,55022,4
29719,55031,5
29728,55035,5
29722,55018,5
29737,55053,5
29735,55062,4
29743,55066,5
29742,55100,5
29744,55073,5
29740,55074,5
29749,55074,4
29743,55136,5
29742,55072,5
29740,55078,5
29741,55071,4
29745,55096,4
29750,55062,5
29742,55065,6
29740,55055,4
29731,55061,4
29729,55043,5
29735,55039,5
29730,55035,5
29724,55030,5
29725,55027,4
29726,55030,5
29722,55029,5
29717,55031,5
29724,55020,5
29721,55026,4
29722,55024,5
29714,55025,5
29723,55040,5
29721,55035,5
29725,55043,4
29733,55045,5
29729,55052,5
29740,55058,5
29741,55069,5
29740,55069,4
29738,55055,5
29746,55047,5
29729,55042,5
29727,55039,4
29730,55036,5
29719,55023,5
29720,55015,5
29717,55013,5
29707,55000,4
29707,55002,5
29709,54997,5
29699,54983,5
29700,54985,5
29698,54979,4
29694,54963,5
29690,54963,5
29696,54969,5
29692,54967,5
29694,54975,4
29691,54975,5
29691,54978,5
29697,54991,5
29702,54994,5
29710,54998,5
29705,55015,4
29710,55007,5
29711,55012,5
29711,55021,4
29716,55010,4
29707,55009,5
29717,55010,5
29709,55014,5
29713,55006,4
29704,55000,5
29709,54998,5
29711,54997,5
29714,54996,5
29709,54999,4
29709,54989,5
29703,54989,5
29706,54997,5
29695,54986,5
29697,54990,4
29692,54981,5
29690,54979,5
29696,54975,4
29684,54967,5
29692,54962,4
29679,54973,6
29682,54950,3
29672,54940,5
29681,54941,5
29668,54939,4
29680,54928,5
29666,54931,5
29669,54937,5
29674,54931,4
29679,54935,5
29679,54936,5
29681,54940,5
29660,54938,5
29674,54944,4
29683,54936,5
29690,54942,5
29633,54950,5
29681,54949,5
29684,54943,4
29678,54949,5
29630,54952,5
29678,54944,6
29673,54946,4
29678,54930,4
29675,54931,5
29668,54917,5
29669,54923,5
29662,54915,5
29711,54921,4
29656,54914,5
29652,54902,5
29661,54901,5
29707,54899,4
29655,54887,4
29644,54888,5
29653,54893,5
29677,54889,5
29649,54898,4
29649,54906,5
29650,54905,5
29660,54908,5
29664,54912,5
29659,54912,5
29665,54915,4
29662,54876,5
29657,54907,5
29662,54923,6
29663,54917,3
29654,54858,5
29662,54913,5
29666,54906,5
29658,54908,5
29665,54885,4
29659,54919,5
29666,54903,5
29655,54914,5
29662,54960,5
29655,54918,4
29661,54914,5
29666,54907,5
29654,54973,5
29665,54914,4
29664,54911,5
29661,54914,5
29657,54950,5
29661,54906,5
29656,54915,4
29662,54910,6
29664,54924,4
29661,54914,5
29654,54906,5
29662,54905,6
29660,54907,3
29658,54897,5
29655,54899,5
29651,54890,5
29652,54898,4
29652,54896,5
29656,54882,5
29648,54886,5
29656,54888,5
29650,54887,4
29649,54886,5
29640,54882,5
29638,54879,5
29644,54881,4
29645,54874,4
29634,54871,5
29635,54869,5
29648,54863,5
29632,54854,4
29630,54849,5
29632,54851,6
29633,54852,4
29630,54848,5
29628,54842,4
29619,54848,5
29626,54841,5
29616,54840,5
29627,54833,5
29620,54831,4
29619,54838,5
29624,54834,5
29625,54834,5
29624,54822,5
29617,54819,4
29610,54824,5
29609,54810,5
29602,54812,5
29614,54806,5
29611,54811,4
29615,54797,5
29606,54803,5
29604,54802,5
29598,54802,4
29605,54797,4
29607,54797,5
29599,54806,6
29596,54795,4
29613,54794,4
29603,54799,5
29596,54803,5
29595,54795,5
29592,54790,5
29605,54793,4
29595,54787,5
29600,54790,5
29596,54789,5
29586,54781,5
29604,54802,4
29593,54788,5
29584,54784,5
29589,54783,5
29592,54787,5
29593,54793,4
29593,54780,5
29587,54775,5
29591,54784,5
29595,54778,5
29592,54774,4
29591,54785,5
29587,54771,5
29590,54764,6
29583,54769,3
29583,54773,5
29586,54772,5
29584,54768,5
29585,54760,5
29588,54767,4
29555,54758,5
29577,54744,5
29571,54748,5
29575,54737,5
29525,54740,4
29570,54732,5
29568,54736,5
29559,54724,5
29523,54732,5
29559,54723,4
29559,54726,5
29562,54731,5
29569,54726,5
29559,54728,5
29560,54722,5
29559,54711,4
29608,54726,8
29561,54720,2
29552,54735,4
29565,54724,4
29612,54726,5
29558,54715,5
29559,54723,5
29560,54721,4
29576,54713,5
29551,54713,5
29548,54703,5
29554,54712,5
29562,54704,4
29555,54707,5
29549,54712,5
29546,54704,5
29549,54674,5
29553,54704,4
29554,54715,5
29560,54710,5
29553,54666,5
29557,54710,5
29561,54709,4
29566,54720,6
29554,54701,4
29556,54723,5
29558,54718,4
29559,54709,4
29555,54753,5
29564,54719,5
29559,54716,5
29553,54719,4
29560,54775,5
29556,54720,5
29563,54714,5
29554,54719,5
29561,54743,4
29552,54717,5
29557,54722,5
29561,54712,5
29556,54724,5
29560,54715,4
29558,54719,5
29560,54720,5
29558,54725,5
29564,54722,5
29560,54726,4
29564,54720,5
29563,54722,6
29559,54724,4
29556,54718,5
29564,54716,4
29560,54722,5
29560,54717,5
29556,54715,5
29562,54717,4
29564,54716,5
29559,54721,5
29558,54723,5
29560,54734,5
29565,54720,4
29562,54725,5
29561,54735,5
29565,54729,5
29560,54726,5
29557,54737,4
29569,54742,5
29569,54741,5
29570,54742,5
29577,54740,5
29569,54752,4
29570,54760,5
29580,54763,5
29585,54759,5
29580,54765,5
29577,54762,4
29583,54762,5
29584,54769,5
29584,54771,5
29587,54780,4
29591,54785,4
29599,54789,5
29596,54790,5
29596,54798,5
29602,54799,4
29606,54802,5
29603,54805,5
29607,54810,5
29601,54807,5
29614,54817,4
29607,54813,5
29613,54814,5
29611,54818,5
29606,54813,5
29610,54818,5
29618,54827,4
29618,54829,5
29622,54833,5
29619,54835,5
29625,54830,4
29617,54845,5
29632,54837,5
29634,54849,5
29625,54850,4
29623,54848,4
29626,54845,5
29634,54868,5
29627,54858,5
29632,54868,4
29640,54873,5
29640,54874,5
29634,54879,5
29642,54880,5
29641,54884,4
29646,54886,5
29639,54882,5
29645,54878,5
29645,54893,5
29647,54892,4
29642,54894,6
29647,54896,4
29619,54899,5
29650,54890,5
29650,54896,4
29658,54899,5
29609,54902,5
29664,54904,5
29656,54898,5
29651,54900,4
29619,54908,5
29653,54913,5
29652,54904,5
29655,54914,4
29680,54917,5
29654,54919,5
29660,54918,5
29661,54917,5
29719,54926,4
29654,54920,5
29663,54933,5
29672,54935,6
29710,54925,4
29666,54929,4
29667,54934,5
29674,54932,6
29688,54933,4
29674,54941,5
29676,54933,4
29670,54939,5
29665,54917,5
29672,54940,5
29670,54940,5
29671,54938,4
29676,54886,5
29671,54935,5
29668,54936,5
29671,54936,5
29662,54881,4
29666,54931,5
29669,54939,5
29674,54937,5
29670,54937,4
29667,54931,5
29674,54921,5
29676,54935,5
29674,54979,5
29664,54932,4
29667,54932,5
29679,54944,5
29680,54997,5
29680,54947,5
29674,54946,4
29674,54949,5
29677,54969,5
29673,54952,5
29680,54942,5
29677,54948,4
29673,54954,5
29681,54951,5
29678,54948,5
29687,54950,4
29681,54957,4
29681,54951,5
29692,54954,5
29680,54954,5
29684,54964,4
29674,54951,5
29684,54963,4
29689,54957,5
29684,54961,5
29690,54969,5
29688,54964,3
29687,54962,5
29685,54972,5
29691,54984,5
29692,54976,4
29691,54972,5
29698,54975,5
29696,54970,5
29695,54968,5
29688,54976,4
29693,54967,5
29691,54967,5
29686,54975,5
29686,54963,5
29682,54973,4
29687,54969,5
29693,54964,5
29688,54965,5
29698,54966,4
29690,54961,5
29690,54961,6
29682,54963,4
29691,54959,5
29682,54971,4
29684,54958,7
29680,54960,3
29685,54955,5
29683,54961,5
29684,54961,4
29686,54957,5
29684,54949,5
29673,54951,5
29677,54955,5
29681,54953,4
29676,54953,5
29681,54946,5
29677,54954,5
29680,54951,5
29671,54957,4
29677,54949,5
29680,54950,5
29680,54947,5
29674,54960,4
29680,54949,4
29676,54953,5
29679,54953,6
29677,54945,4
29678,54942,4
29674,54948,5
29677,54945,5
29672,54955,5
29679,54950,5
29668,54950,4
29677,54950,5
29678,54950,5
29675,54955,5
29675,54954,5
29680,54951,4
29682,54948,5
29673,54952,5
29680,54953,5
29681,54952,5
29683,54955,4
29669,54958,5
29676,54957,5
29678,54957,5
29682,54963,5
29645,54955,4
29682,54960,5
29688,54947,5
29675,54956,6
29634,54950,3
29678,54958,5
29677,54945,5
29681,54952,5
29657,54960,5
29673,54956,4
29682,54954,5
29679,54963,5
29712,54958,5
29686,54953,5
29675,54955,4
29681,54957,5
29738,54959,5
29683,54954,5
29676,54956,5
29679,54952,4
29710,54955,5
29678,54953,5
29674,54956,5
29675,54954,5
29685,54949,5
29675,54951,4
29674,54940,5
29674,54937,5
29675,54906,6
29664,54926,3
29666,54919,5
29660,54917,5
29663,54881,5
29660,54921,4
29670,54930,5
29667,54926,5
29672,54894,5
29682,54953,5
29678,54955,4
29680,54955,5
29674,54974,5
29684,54954,5
29667,54934,5
29668,54933,4
29666,54970,5
29652,54915,5
29651,54900,5
29655,54893,5
29643,54936,4
29647,54886,6
29642,54880,4
29637,54876,5
29631,54892,5
29632,54858,4
29630,54848,5
29624,54854,5
29614,54845,5
29626,54837,4
29623,54845,5
29624,54844,5
29622,54845,5
29621,54846,5
29627,54853,4
29623,54856,5
29629,54863,5
29635,54860,5
29630,54866,5
29637,54870,4
29639,54869,5
29642,54877,5
29641,54884,5
29634,54886,5
29648,54884,4
29651,54889,5
29655,54896,6
29645,54894,4
29640,54901,5
29642,54896,4
29644,54892,5
29643,54892,5
29654,54899,5
29651,54892,4
29654,54893,4
29654,54896,5
29652,54897,5
29655,54897,5
29657,54899,4
29656,54898,5
29655,54911,5
29651,54909,5
29648,54910,5
29661,54915,4
29653,54911,5
29664,54925,5
29668,54928,5
29666,54941,5
29666,54928,4
29666,54931,5
29673,54936,5
29668,54932,6
29679,54936,4
29668,54930,4
29670,54939,5
29663,54941,5
29664,54940,5
29665,54952,5
29676,54940,4
29671,54945,5
29675,54941,5
29677,54942,5
29678,54938,4
29679,54942,5
29684,54946,5
29680,54950,5
29680,54952,5
29673,54949,4
29673,54946,5
29675,54954,5
29678,54955,5
29683,54951,5
29679,54957,5
29683,54961,4
29685,54967,5
29689,54960,5
29692,54962,5
29692,54954,4
29686,54954,5
29682,54969,5
29691,54968,5
29688,54970,5
29694,54964,4
29686,54969,5
29689,54968,5
29683,54967,5
29687,54967,4
29682,54968,4
29691,54973,5
29655,54982,5
29688,54967,5
29691,54965,4
29694,54977,5
29636,54973,5
29692,54972,5
29693,54969,5
29696,54981,4
29682,54977,6
29693,54980,4
29702,54979,5
29704,54979,5
29738,54984,4
29700,54985,5
29695,54983,5
29696,54977,5
29748,54987,5
29693,54986,4
29703,54979,5
29697,54982,5
29723,54983,5
29695,54976,4
29694,54986,4
29698,54981,6
29710,54988,4
29706,54982,5
29704,54992,4
29704,54986,5
29694,54964,5
29706,54997,5
29698,54992,5
29704,54996,4
29701,54940,5
29707,54991,6
29709,54989,4
29708,54985,5
29704,54955,4
29707,54995,5
29716,54988,5
29711,54990,5
29701,55017,5
29704,54996,4
29708,55002,5
29710,54998,5
29710,55063,5
29703,54994,5
29701,55003,4
29701,54993,5
29706,55046,5
29708,54999,5
29711,54997,4
29708,54994,4
29707,55012,5
29714,55000,5
29706,55010,5
29714,55008,4
29710,55012,5
29715,54998,5
29714,55005,5
29710,54995,5
29707,54999,4
29715,55001,5
29702,55004,5
29709,55000,5
29709,54995,5
29707,55005,4
29703,54999,5
29704,54995,5
29711,54994,5
29706,54996,5
29699,54999,4
29709,54992,5
29710,55000,5
29700,54993,5
29710,54995,4
29702,54990,4
29705,55002,5
29709,54998,5
29708,55002,5
29703,54993,5
29705,54999,4
29701,55006,5
29698,54989,5
29705,54995,5
29701,54996,4
29704,54990,5
29702,55001,5
29709,54987,5
29703,54991,5
29713,54991,4
29705,54986,5
29698,54990,5
29705,54994,5
29703,54992,5
29703,54990,4
29700,54993,5
29700,54987,5
29704,54986,5
29701,54974,5
29686,54980,4
29695,54970,10
29696,54973,5
29687,54966,5
29692,54956,5
29691,54972,10
29692,54963,5
29687,54969,5
29684,54956,10
29685,54956,5
29692,54961,7
29692,54961,8
29681,54959,5
29681,54979,7
29689,54973,8
29686,54968,5
29690,54949,7
29689,54959,8
29689,54959,5
29686,54980,7
29692,54981,8
29685,54948,5
29682,54958,7
29673,54944,8
29694,54952,5
29676,54952,7
29676,54952,8
29674,54950,5
29682,54949,7
29636,54948,8
29680,54948,5
29684,54988,7
29686,54946,8
29686,54946,7
29664,54955,5
29676,54944,8
29685,54942,7
29682,54943,10
29736,54940,5
29736,54940,7
29675,54947,8
29678,54940,5
29674,54942,7
29707,54940,8
29699,54939,7
29679,54942,5
29675,54937,8
29675,54937,7
29671,54856,7
29669,54938,8
29670,54938,7
29677,54981,5
29675,54918,10
29675,54918,9
29679,54940,8
29676,54952,7
29682,54938,5
29674,54983,8
29674,54983,7
29671,54946,7
29668,54929,10
29670,54912,5
29642,54945,5
29664,54911,10
29664,54911,5
29657,54915,5
29670,54921,10
29666,54908,5
29656,54911,5
29656,54908,10
29669,54910,5
29656,54915,5
29656,54915,10
29658,54907,5
29658,54906,5
29660,54903,10
29660,54907,5
29669,54907,5
29657,54913,10
29657,54913,5
29658,54920,5
29656,54889,10
29654,54892,5
29657,54907,5
29669,54904,10
29667,54903,5
29654,54909,7
29654,54909,8
29621,54911,5
29656,54902,7
29651,54900,8
29653,54899,5
29650,54907,7
29650,54898,6
29650,54898,1
29650,54898,2
29659,54893,4
29653,54886,4
29647,54898,5
29651,54890,5
29657,54893,5
29646,54893,4
29644,54893,5
29651,54882,5
29652,54887,5
29651,54885,5
29650,54888,4
29644,54893,5
29643,54879,5
29639,54888,6
29649,54883,4
29649,54882,4
29640,54876,5
29642,54882,5
29651,54872,5
29645,54870,5
29640,54866,4
29641,54877,5
29632,54880,5
29638,54871,5
29646,54868,4
29639,54868,4
29646,54870,5
29638,54861,5
29630,54853,5
29633,54860,4
29632,54855,5
29639,54862,5
29632,54864,5
29629,54869,5
29629,54856,5
29640,54858,4
29626,54863,5
29614,54862,5
29628,54863,6
29630,54858,3
29636,54862,5
29593,54857,5
29630,54864,5
29627,54854,5
29639,54860,4
29585,54859,5
29624,54854,5
29629,54849,5
29636,54845,5
29643,54850,4
29626,54852,5
29630,54849,5
29624,54845,5
29684,54856,4
29630,54844,4
29632,54848,5
29629,54845,5
29675,54850,5
29622,54840,4
29616,54837,6
29615,54825,4
29638,54832,5
29618,54837,5
29621,54834,4
29629,54828,5
29620,54815,5
29624,54837,5
29617,54831,5
29618,54825,4
29623,54793,5
29616,54830,5
29609,54829,5
29621,54825,5
29612,54781,4
29612,54821,5
29613,54821,5
29613,54834,5
29616,54811,4
29609,54822,4
29613,54818,5
29617,54822,5
29608,54866,5
29606,54819,4
29610,54818,5
29612,54814,6
29608,54880,4
29612,54820,5
29612,54815,4
29611,54823,5
29612,54842,5
29610,54823,5
29614,54821,5
29614,54815,4
29611,54817,5
29611,54813,5
29608,54804,5
29602,54811,5
29605,54810,4
29609,54809,5
29604,54819,5
29621,54815,5
29605,54805,5
29604,54815,4
29610,54820,5
29604,54816,5
29612,54813,5
29606,54815,4
29610,54819,5
29611,54813,5
29611,54806,6
29614,54804,4
29608,54802,4
29605,54810,5
29609,54805,5
29599,54812,5
29608,54816,5
29607,54808,4
29606,54809,5
29597,54795,5
29596,54807,5
29608,54808,5
29602,54794,4
29600,54794,5
29609,54807,5
29600,54809,5
29601,54799,5
29608,54809,4
29602,54798,5
29602,54805,5
29604,54812,5
29607,54813,5
29600,54812,4
29599,54810,5
29608,54811,5
29609,54814,5
29601,54817,4
29606,54810,5
29613,54813,5
29609,54801,5
29608,54810,5
29606,54810,4
29612,54804,5
29608,54808,5
29607,54813,5
29614,54813,5
29602,54812,4
29614,54811,5
29610,54810,5
29600,54813,5
29612,54805,5
29602,54809,4
29609,54804,5
29603,54814,5
29612,54817,5
29617,54813,5
29610,54808,5
29610,54803,4
29604,54815,5
29611,54817,5
29607,54812,4
29611,54811,5
29607,54816,5
29598,54808,5
29599,54801,5
29602,54807,4
29601,54803,5
29597,54799,5
29604,54808,5
29605,54809,5
29603,54813,4
29606,54811,5
29605,54808,5
29600,54803,5
29599,54801,5
29572,54807,4
29603,54815,5
29608,54809,5
29603,54812,5
29561,54820,5
29608,54811,4
29606,54808,6
29601,54809,4
29582,54816,5
29605,54811,4
29612,54818,4
29615,54807,5
29634,54815,5
29610,54808,5
29597,54807,4
29610,54816,5
29665,54809,5
29607,54816,5
29609,54821,5
29619,54826,4
29658,54831,5
29620,54830,5
29614,54834,5
29618,54826,5
29630,54834,4
29624,54842,5
29623,54840,5
29625,54849,6
29627,54834,4
29633,54867,4
29642,54863,5
29631,54872,6
29635,54833,4
29637,54870,8
29643,54875,1
29646,54873,5
29646,54837,5
29648,54893,5
29647,54892,4
29651,54896,6
29651,54906,4
29653,54907,5
29652,54909,5
29650,54910,4
29657,54953,5
29660,54915,5
29660,54910,5
29655,54917,5
29666,54968,4
29661,54924,5
29666,54924,5
29666,54924,5
29663,54949,5
29657,54926,4
29675,54927,5
29673,54929,5
29664,54940,5
29665,54929,5
29672,54940,4
29670,54938,5
29673,54934,5
29675,54942,5
29677,54937,4
29677,54945,4
29676,54949,5
29680,54955,5
29681,54948,5
29681,54939,4
29674,54951,5
29682,54952,5
29678,54956,5
29676,54956,5
29683,54960,4
29682,54959,5
29684,54958,5
29683,54961,5
29677,54967,5
29680,54961,5
29686,54965,4
29684,54961,5
29687,54956,5
29686,54967,5
29689,54965,4
29691,54967,5
29688,54970,5
29692,54958,5
29687,54973,5
29688,54980,4
29693,54974,5
29687,54969,5
29690,54969,5
29695,54963,4
29690,54961,4
29695,54971,5
29684,54960,5
29689,54957,5
29685,54963,4
29682,54967,5
29680,54966,5
29692,54976,4
29689,54970,5
29682,54968,4
29699,54976,7
29687,54968,3
29677,54965,5
29688,54971,5
29685,54968,4
29688,54972,5
29682,54958,5
29685,54966,5
29687,54963,5
29682,54961,4
29688,54971,5
29686,54962,5
29684,54968,5
29687,54960,4
29687,54958,4
29676,54965,5
29681,54956,5
29681,54959,5
29681,54954,4
29684,54962,5
29682,54970,5
29680,54954,6
29682,54960,4
29691,54975,4
29685,54968,5
29685,54968,5
29688,54966,5
29694,54955,5
29691,54962,4
29691,54965,5
29691,54964,5
29678,54959,5
29680,54971,5
29681,54958,4
29686,54958,5
29654,54961,5
29686,54952,5
29686,54959,5
29678,54963,4
29637,54960,5
29686,54961,5
29687,54962,5
29684,54969,5
29659,54971,4
29692,54977,5
29685,54968,5
29689,54976,6
29724,54975,3
29691,54981,5
29693,54986,5
29694,54983,5
29744,54979,5
29692,54975,4
29703,54987,5
29698,54980,5
29728,54977,5
29700,54981,5
29690,54985,4
29699,54976,5
29695,54978,5
29689,54982,5
29690,54981,5
29699,54983,4
29696,54956,5
29696,54986,5
29699,54990,5
29693,54985,4
29696,54941,5
29703,55000,4
29706,55004,5
29706,55000,5
29713,54955,6
29707,55004,3
29710,55004,5
29709,55006,5
29709,55018,5
29709,55009,4
29710,55002,5
29704,55009,5
29709,55062,5
29711,55009,5
29708,55007,4
29707,55004,5
29712,55065,5
29716,55008,5
29711,55013,5
29711,55009,4
29714,55017,5
29709,55002,5
29712,55003,5
29713,55005,5
29707,55006,4
29712,55019,6
29702,54999,4
29706,55010,5
29713,55003,4
29705,55010,5
29710,55007,5
29704,55009,5
29715,55017,5
29707,55016,4
29711,55017,5
29712,55011,5
29715,55017,5
29712,55021,5
29719,55019,4
29712,55013,5
29718,55021,5
29721,55030,5
29719,55024,5
29722,55022,4
29713,55032,5
29715,55023,5
29712,55022,5
29719,55024,5
29726,55032,4
29717,55031,5
29726,55040,6
29722,55037,4
29729,55028,4
29728,55033,4
29719,55030,5
29726,55029,5
29719,55021,5
29722,55018,4
29715,55025,5
29720,55023,5
29719,55024,5
29720,55031,5
29721,55029,4
29716,55031,5
29723,55033,5
29719,55036,5
29725,55024,5
29723,55028,4
29720,55023,5
29723,55034,5
29724,55034,5
29719,55030,5
29728,55022,4
29728,55033,5
29719,55032,5
29724,55035,6
29724,55040,4
29723,55032,4
29729,55026,5
29727,55037,5
29722,55035,5
29722,55038,4
29725,55036,5
29716,55033,5
29723,55031,5
29719,55042,5
29723,55037,4
29727,55033,5
29732,55039,5
29726,55035,5
29729,55037,5
29728,55046,4
29731,55046,5
29722,55028,5
29735,55038,5
29723,55031,5
29722,55042,5
29719,55027,4
29730,55044,5
29731,55041,5
29725,55031,5
29710,55037,4
29727,55036,5
29738,55043,5
29729,55043,5
29689,55044,4
29733,55036,4
29733,55039,5
29730,55037,5
29676,55040,5
29733,55047,4
29726,55040,5
29732,55038,5
29705,55035,5
29735,55051,5
29731,55043,4
29731,55039,5
29761,55045,5
29726,55043,5
29724,55034,5
29725,55043,4
29789,55047,6
29732,55041,4
29726,55039,5
29735,55046,5
29767,55041,4
29729,55046,5
29732,55040,5
29724,55041,5
29730,55043,5
29734,55048,4
29731,55043,5
29731,55042,5
29728,55021,5
29732,55048,4
29738,55045,4
29727,55046,5
29731,55005,5
29727,55046,5
29726,55046,4
29731,55049,5
29731,55003,5
29728,55054,5
29730,55044,5
29729,55048,5
29736,55061,4
29726,55044,6
29738,55043,4
29729,55051,5
29730,55100,4
29727,55043,5
29730,55052,5
29734,55052,5
29737,55104,5
29728,55049,4
29738,55049,5
29729,55043,5
29734,55071,5
29741,55050,4
29739,55050,4
29731,55046,5
29729,55042,5
29725,55044,5
29724,55032,4
29730,55039,5
29721,55031,5
29724,55025,5
29714,55028,5
29711,55029,4
29721,55021,5
29715,55019,5
29713,55020,6
29724,55023,4
29710,55019,4
29715,55032,5
29720,55026,5
29714,55023,5
29712,55024,5
29719,55026,4
29712,55035,5
29714,55026,5
29722,55026,5
29725,55020,5
29718,55023,4
29713,55027,5
29718,55022,5
29710,55025,5
29713,55016,4
29709,55019,4
29711,55020,5
29719,55016,5
29714,55013,5
29708,55015,5
29715,55021,4
29706,55017,5
29710,55009,5
29718,55022,5
