RED,IR,EKG,TIME
39611,74340,183985
39611,74340,2
38842,72693,5
38848,72683,4
38831,72668,5
38834,72665,5
38829,72663,5
38820,72639,4
38818,72638,5
38807,72625,5
38814,72620,6
38806,72615,4
38806,72607,4
38811,72620,5
38802,72624,5
38814,72620,5
38820,72636,5
38820,72634,4
38818,72647,5
38817,72647,5
38827,72660,5
38829,72655,5
38829,72668,4
38834,72671,9
38824,72670,1
38822,72650,5
38811,72616,4
38802,72598,4
38784,72595,5
38778,72581,5
38785,72561,5
38773,72571,5
38776,72569,4
38769,72569,5
38777,72565,5
38776,72573,6
38782,72579,3
38779,72575,5
38773,72582,5
38783,72582,5
38783,72591,5
38785,72590,4
38779,72601,5
38787,72600,5
38792,72605,5
38793,72597,5
38802,72603,4
38795,72610,5
38794,72614,5
38790,72611,5
38797,72624,4
38797,72620,5
38792,72618,5
38794,72629,5
38791,72629,5
38801,72638,4
38797,72641,6
38808,72646,4
38813,72654,5
38815,72649,5
38818,72646,4
38804,72651,5
38808,72653,5
38802,72643,5
38800,72639,5
38807,72650,4
38811,72634,5
38801,72632,5
38804,72630,5
38802,72632,4
38789,72629,4
38799,72623,5
38805,72630,5
38795,72629,5
38783,72622,4
38797,72621,5
38800,72631,5
38797,72631,5
38790,72650,5
38804,72648,4
38810,72661,5
38818,72673,6
38818,72675,4
38832,72694,5
38839,72698,4
38835,72706,5
38860,72725,5
38853,72725,5
38856,72737,5
38856,72753,4
38885,72762,5
38870,72765,5
38871,72766,5
38866,72772,4
38885,72783,5
38879,72788,5
38878,72766,5
38870,72776,5
38874,72774,4
38871,72771,5
38860,72762,5
38861,72756,5
38853,72740,5
38842,72743,4
38857,72733,5
38856,72738,5
38846,72715,6
38841,72725,4
38850,72738,4
38854,72745,5
38855,72724,5
38852,72747,5
38862,72757,5
38864,72754,4
38861,72763,5
38871,72768,5
38863,72759,5
38862,72745,4
38830,72733,5
38833,72698,5
38834,72686,5
38815,72676,5
38811,72687,4
38809,72663,5
38810,72669,5
38809,72658,5
38812,72676,5
38807,72666,5
38798,72661,4
38803,72657,5
38804,72651,5
38808,72654,5
38796,72648,4
38810,72651,5
38805,72655,5
38800,72652,5
38805,72658,4
38801,72652,4
38803,72651,5
38808,72652,5
38804,72657,5
38795,72650,4
38798,72645,5
38806,72650,5
38793,72644,5
38795,72641,5
38797,72637,4
38809,72636,5
38793,72659,5
38800,72656,5
38797,72667,5
38809,72674,4
38803,72667,6
38810,72664,4
38812,72669,5
38810,72669,5
38812,72674,4
38811,72669,5
38809,72680,5
38810,72671,5
38803,72679,4
38812,72665,5
38804,72661,5
38805,72667,5
38798,72653,5
38802,72648,4
38797,72652,5
38797,72650,5
38796,72649,5
38798,72651,5
38802,72641,4
38798,72656,5
38802,72651,5
38805,72664,5
38802,72665,5
38795,72674,4
38807,72667,5
38808,72665,5
38808,72673,5
38813,72681,5
38811,72681,4
38811,72681,5
38820,72681,5
38806,72693,5
38814,72692,4
38817,72690,5
38815,72686,5
38823,72697,5
38822,72694,5
38815,72678,4
38814,72683,5
38810,72674,5
38804,72674,5
38811,72664,5
38809,72663,4
38800,72650,5
38795,72646,5
38789,72633,5
38783,72632,5
38776,72622,4
38774,72619,5
38772,72613,5
38785,72622,5
38785,72612,5
38779,72616,4
38776,72622,5
38784,72633,5
38782,72629,5
38781,72623,4
38791,72634,5
38787,72647,5
38795,72651,5
38785,72644,5
38789,72624,4
38757,72578,5
38742,72562,5
38733,72543,5
38734,72521,5
38720,72509,4
38703,72515,6
38708,72500,4
38717,72501,5
38711,72509,5
38695,72500,6
38712,72489,3
38705,72498,5
38713,72494,5
38712,72492,4
38708,72502,4
38712,72502,5
38708,72502,5
38726,72504,5
38714,72492,4
38705,72500,5
38710,72499,5
38734,72506,5
38705,72491,5
38707,72488,4
38701,72491,5
38714,72490,5
38706,72481,5
38699,72498,5
38700,72485,4
38703,72484,5
38705,72488,6
38709,72493,4
38709,72502,5
38716,72498,4
38711,72507,5
38714,72513,5
38715,72517,5
38714,72489,4
38710,72512,4
38715,72509,5
38720,72505,5
38716,72493,5
38715,72501,4
38721,72506,5
38720,72498,5
38715,72507,5
38699,72502,5
38706,72494,4
38706,72490,5
38708,72519,5
38706,72488,5
38704,72492,5
38708,72492,4
38712,72513,5
38709,72503,5
38713,72505,6
38717,72516,4
38722,72530,4
38720,72522,5
38731,72534,5
38730,72538,5
38735,72544,4
38732,72555,5
38740,72556,5
38733,72559,5
38741,72561,5
38733,72565,4
38750,72560,5
38749,72567,5
38741,72563,5
38745,72559,5
38736,72567,4
38755,72555,5
38747,72556,5
38748,72556,5
38743,72560,5
38732,72552,5
38738,72552,4
38745,72553,5
38741,72539,5
38733,72552,6
38733,72546,3
38735,72539,5
38731,72537,5
38741,72547,5
38729,72536,4
38729,72534,5
38721,72542,5
38727,72527,5
38729,72529,5
38723,72533,4
38731,72527,5
38732,72533,5
38728,72537,5
38725,72529,5
38735,72539,4
38729,72542,5
38734,72538,5
38733,72540,5
38726,72555,5
38730,72535,4
38731,72538,6
38730,72545,4
38735,72539,5
38736,72556,4
38739,72539,4
38738,72547,5
38729,72545,5
38735,72537,5
38725,72550,4
38735,72551,5
38733,72540,5
38736,72546,5
38735,72539,5
38731,72542,4
38722,72534,5
38732,72531,5
38736,72534,5
38729,72533,5
38721,72526,4
38716,72530,5
38711,72512,5
38703,72503,5
38696,72474,5
38690,72451,4
38675,72421,5
38656,72411,6
38653,72389,4
38645,72383,4
38642,72380,4
38650,72382,5
38642,72392,5
38650,72396,5
38653,72405,4
38662,72416,5
38673,72425,5
38672,72436,5
38679,72443,5
38685,72456,4
38689,72464,5
38686,72459,5
38690,72478,5
38686,72472,5
38688,72465,4
38677,72429,5
38645,72384,5
38617,72335,5
38607,72311,5
38591,72287,4
38576,72263,5
38556,72255,5
38577,72241,6
38567,72242,3
38569,72242,5
38542,72241,5
38555,72243,5
38567,72233,5
38563,72239,4
38577,72242,5
38570,72242,5
38564,72240,5
38573,72250,5
38602,72257,4
38576,72254,5
38574,72252,5
38568,72252,5
38593,72262,5
38571,72244,4
38571,72252,5
38567,72260,5
38578,72254,5
38575,72254,5
38566,72262,5
38575,72252,4
38566,72244,5
38569,72248,5
38564,72246,4
38571,72243,5
38570,72236,5
38565,72249,5
38570,72254,5
38568,72255,4
38565,72235,5
38565,72252,5
38570,72243,5
38573,72246,5
38564,72232,4
38563,72239,5
38567,72236,5
38572,72234,5
38568,72256,5
38566,72243,4
38566,72252,5
38571,72247,5
38562,72259,5
38567,72240,5
38573,72250,4
38576,72259,6
38578,72291,4
38581,72267,5
38587,72271,4
38590,72275,5
38589,72289,5
38592,72295,5
38603,72294,5
38599,72302,4
38605,72314,5
38602,72321,5
38622,72329,5
38613,72328,5
38612,72332,4
38619,72335,5
38617,72351,5
38624,72341,5
38629,72360,5
38629,72363,4
38631,72364,5
38627,72360,5
38631,72374,5
38643,72369,4
38638,72367,4
38631,72365,5
38638,72370,6
38631,72365,4
38640,72361,4
38634,72366,5
38630,72363,5
38632,72362,7
38632,72354,3
38627,72351,4
38622,72351,5
38630,72344,5
38621,72332,5
38611,72327,5
38618,72312,4
38609,72302,5
38611,72300,5
38611,72300,5
38600,72301,5
38615,72296,4
38605,72301,5
38606,72297,5
38616,72314,5
38624,72323,5
38626,72328,4
38630,72339,5
38631,72345,5
38626,72350,5
38638,72354,4
38631,72357,5
38632,72364,5
38642,72361,5
38641,72365,5
38634,72350,4
38643,72359,5
38628,72318,5
38601,72293,5
38588,72264,5
38583,72251,4
38571,72233,5
38572,72221,5
38563,72215,5
38563,72210,5
38568,72212,4
38571,72214,5
38560,72217,5
38560,72208,5
38568,72216,4
38557,72213,5
38564,72220,4
38569,72218,5
38565,72224,5
38573,72231,4
38571,72230,5
38578,72230,5
38579,72237,5
38579,72240,5
38585,72233,4
38586,72233,5
38574,72244,5
38573,72234,5
38568,72233,5
38576,72227,4
38574,72232,5
38574,72230,5
38572,72230,5
38576,72239,5
38576,72248,4
38583,72252,5
38584,72255,5
38581,72246,5
38570,72245,4
38587,72248,4
38584,72243,6
38583,72250,4
38562,72241,5
38580,72245,4
38584,72241,5
38577,72255,5
38568,72244,5
38581,72254,5
38584,72255,4
38589,72259,5
38600,72258,5
38597,72264,5
38588,72269,5
38591,72270,4
38619,72272,5
38596,72287,5
38596,72285,5
38612,72293,5
38630,72304,4
38617,72317,5
38619,72323,5
38627,72332,5
38631,72333,4
38633,72337,4
38642,72349,5
38636,72361,5
38645,72363,5
38646,72383,4
38646,72375,5
38662,72388,5
38654,72375,5
38660,72402,5
38653,72403,4
38667,72407,5
38671,72392,5
38673,72418,5
38667,72406,5
38665,72410,4
38671,72396,5
38678,72419,5
38672,72409,5
38664,72415,5
38665,72425,5
38668,72409,4
38666,72401,5
38660,72405,5
38667,72421,6
38658,72409,3
38677,72409,5
38657,72394,5
38666,72437,5
38668,72402,4
38674,72406,5
38666,72404,5
38666,72408,5
38662,72389,5
38660,72393,4
38657,72377,5
38646,72374,5
38638,72361,5
38640,72361,5
38644,72360,4
38638,72359,5
38639,72362,5
38646,72366,5
38639,72366,5
38654,72381,4
38654,72397,6
38660,72400,4
38662,72412,5
38668,72415,4
38674,72419,7
38669,72423,3
38672,72426,5
38673,72421,5
38675,72423,4
38683,72431,5
38666,72428,5
38668,72414,5
38654,72385,5
38639,72345,4
38617,72323,5
38615,72306,5
38598,72284,5
38593,72276,5
38592,72267,4
38590,72266,5
38593,72272,5
38596,72267,5
38591,72260,5
38596,72263,4
38598,72269,5
38600,72268,6
38594,72277,4
38599,72276,4
38600,72283,5
38605,72296,5
38607,72297,5
38603,72299,5
38609,72311,4
38619,72303,5
38611,72306,5
38606,72312,5
38616,72311,5
38618,72300,4
38610,72301,5
38613,72301,5
38609,72301,5
38609,72304,5
38609,72286,4
38606,72299,5
38606,72289,5
38618,72302,5
38616,72304,5
38615,72308,4
38614,72288,5
38605,72297,5
38617,72300,6
38609,72294,3
38608,72291,5
38605,72295,5
38610,72299,5
38611,72298,5
38610,72299,4
38610,72299,5
38618,72305,5
38614,72320,5
38622,72313,5
38629,72335,4
38627,72337,5
38634,72343,5
38637,72356,5
38631,72357,5
38648,72369,4
38649,72376,5
38653,72380,5
38660,72392,5
38658,72394,4
38671,72400,5
38671,72412,4
38680,72429,5
38676,72434,5
38689,72442,6
38670,72452,3
38684,72453,5
38694,72449,5
38685,72464,5
38680,72459,4
38691,72461,5
38699,72472,5
38697,72470,5
38687,72466,5
38701,72474,4
38702,72476,5
38702,72474,5
38708,72473,5
38699,72466,5
38701,72466,4
38691,72463,5
38714,72448,5
38695,72445,5
38691,72437,4
38683,72427,4
38690,72418,6
38673,72422,4
38680,72430,5
38674,72423,4
38678,72433,5
38692,72442,5
38696,72450,5
38708,72463,5
38700,72469,4
38713,72481,5
38712,72489,5
38712,72494,5
38711,72482,5
38716,72504,4
38719,72512,5
38722,72513,5
38718,72496,5
38719,72505,5
38719,72495,4
38703,72460,5
38684,72422,5
38674,72419,5
38657,72405,4
38667,72393,4
38654,72401,5
38654,72386,6
38664,72384,4
38659,72395,4
38662,72410,5
38662,72395,5
38661,72407,5
38671,72402,5
38670,72421,4
38668,72416,5
38672,72428,5
38677,72421,5
38677,72429,5
38681,72438,4
38675,72429,5
38683,72439,5
38683,72434,5
38690,72434,5
38683,72434,4
38689,72434,5
38681,72429,5
38677,72435,5
38680,72429,5
38674,72421,4
38675,72421,5
38675,72420,5
38691,72428,6
38678,72438,3
38686,72438,5
38684,72432,5
38680,72421,5
38681,72433,5
38678,72430,4
38679,72427,5
38687,72425,5
38682,72441,5
38673,72430,5
38676,72437,4
38685,72438,5
38682,72431,5
38688,72442,5
38682,72456,5
38695,72463,4
38701,72474,5
38704,72474,5
38706,72492,5
38719,72496,4
38718,72514,6
38725,72528,4
38724,72534,5
38739,72538,5
38736,72549,4
38750,72563,5
38745,72566,5
38747,72580,5
38755,72589,5
38763,72591,4
38766,72602,5
38766,72601,5
38775,72600,5
38767,72598,5
38777,72606,4
38773,72617,5
38776,72611,5
38783,72610,5
38769,72595,5
38770,72598,4
38769,72578,5
38760,72573,5
38753,72567,5
38750,72548,4
38755,72549,5
38735,72548,6
38736,72539,4
38737,72540,5
38741,72552,4
38738,72557,5
38746,72569,5
38749,72576,5
38764,72588,5
38766,72587,4
38765,72599,5
38766,72613,5
38778,72624,5
38783,72633,5
38793,72650,4
38796,72645,5
38793,72645,5
38779,72625,5
38774,72594,5
38755,72576,4
38756,72564,5
38750,72558,5
38739,72541,5
38733,72548,4
38748,72540,5
38740,72548,5
38740,72539,6
38730,72542,4
38741,72542,4
38740,72551,5
38740,72552,5
38751,72551,5
38750,72555,5
38746,72554,4
38731,72556,5
38750,72553,5
38751,72556,5
38754,72557,5
38737,72567,4
38759,72564,5
38753,72574,5
38747,72571,5
38761,72580,5
38757,72565,4
38762,72562,5
38761,72564,5
38771,72566,5
38763,72580,5
38759,72586,4
38763,72594,5
38790,72602,5
38767,72590,5
38767,72590,4
38765,72600,5
38780,72598,5
38763,72591,5
38772,72605,5
38774,72605,4
38770,72598,5
38773,72602,5
38770,72601,5
38774,72598,5
38770,72589,4
38771,72612,5
38774,72597,5
38783,72604,5
38772,72601,5
38782,72624,4
38781,72625,5
38790,72625,5
38792,72624,5
38798,72644,4
38789,72659,6
38808,72667,4
38812,72685,5
38816,72691,5
38828,72703,4
38830,72705,5
38839,72734,5
38843,72740,5
38849,72743,5
38844,72752,4
38856,72781,5
38856,72753,5
38849,72762,5
38863,72762,5
38859,72781,4
38857,72768,5
38857,72759,5
38847,72759,5
38854,72749,5
38853,72745,4
38842,72738,5
38834,72726,10
38838,72719,4
38828,72716,5
38826,72718,6
38830,72717,4
38836,72722,5
38828,72718,4
38848,72721,5
38837,72724,5
38848,72724,5
38840,72724,5
38842,72746,4
38846,72744,5
38850,72755,5
38852,72762,5
38853,72757,5
38844,72749,4
38836,72719,5
38825,72679,5
38816,72672,5
38805,72661,5
38796,72649,4
38787,72649,5
38796,72642,5
38790,72643,5
38798,72635,3
38798,72637,5
38791,72633,5
38791,72639,5
38792,72636,5
38787,72639,4
38787,72636,5
38784,72632,5
38780,72632,5
38794,72634,5
38793,72639,4
38792,72640,5
38784,72633,5
38791,72638,5
38804,72640,5
38791,72635,4
38790,72638,5
38784,72630,5
38789,72641,5
38795,72627,5
38787,72633,5
38778,72633,4
38785,72638,5
38790,72646,5
38795,72649,6
38798,72649,3
38797,72660,5
38798,72653,5
38796,72654,5
38793,72654,4
38808,72654,5
38798,72649,5
38802,72645,5
38790,72650,5
38786,72642,4
38794,72659,5
38790,72643,5
38786,72634,5
38783,72625,5
38791,72623,4
38783,72621,5
38775,72617,5
38785,72624,5
38777,72614,5
38783,72621,4
38785,72623,6
38785,72620,4
38788,72623,5
38787,72629,4
38790,72629,7
38791,72635,3
38795,72641,5
38784,72640,5
38792,72640,4
38792,72655,5
38793,72643,5
38801,72657,5
38797,72649,5
38800,72659,4
38801,72661,5
38800,72656,5
38785,72662,5
38807,72662,5
38806,72661,4
38803,72671,5
38789,72660,5
38800,72670,5
38802,72666,5
38796,72661,4
38809,72660,5
38800,72661,6
38800,72657,4
38799,72659,4
38814,72660,5
38802,72651,5
38792,72650,5
38798,72639,5
38803,72631,4
38781,72602,5
38768,72599,5
38766,72574,5
38765,72556,5
38744,72547,4
38739,72527,5
38724,72509,5
38730,72510,5
38723,72515,5
38726,72512,4
38724,72530,5
38729,72509,5
38730,72529,5
38734,72535,5
38736,72547,4
38733,72521,5
38741,72546,5
38739,72553,6
38749,72556,3
38751,72542,5
38749,72551,5
38748,72543,5
38725,72507,5
38711,72454,4
38684,72428,5
38671,72406,5
38656,72377,5
38639,72380,5
38634,72349,4
38633,72353,5
38634,72350,5
38637,72356,5
38636,72344,5
38628,72345,4
38631,72331,5
38627,72349,5
38626,72335,5
38629,72331,4
38631,72337,5
38629,72328,4
38631,72334,5
38630,72336,5
38626,72336,6
38628,72337,3
38622,72330,5
38622,72326,5
38627,72323,5
38622,72313,4
38609,72308,5
38611,72302,5
38616,72307,5
38611,72314,5
38619,72297,4
38615,72293,5
38604,72295,5
38605,72303,5
38614,72312,5
38623,72319,4
38617,72313,5
38621,72318,5
38621,72319,5
38614,72317,4
38631,72315,4
38617,72313,6
38617,72315,4
38619,72317,5
38621,72314,4
38626,72311,5
38623,72316,5
38615,72305,5
38623,72310,5
38623,72306,4
38620,72309,5
38624,72314,5
38622,72307,5
38624,72317,5
38624,72314,4
38627,72319,5
38622,72321,5
38632,72329,5
38623,72333,5
38631,72331,4
38626,72334,5
38634,72347,5
38622,72345,5
38643,72345,4
38636,72350,4
38633,72352,5
38646,72357,6
38646,72352,4
38642,72356,4
38650,72364,5
38649,72360,5
38655,72369,5
38653,72368,5
38656,72367,4
38654,72367,5
38660,72369,5
38655,72382,5
38648,72367,5
38656,72374,4
38657,72386,5
38662,72374,5
38658,72393,5
38658,72391,5
38653,72382,4
38660,72379,5
38663,72380,5
38657,72384,5
38652,72384,5
38647,72379,4
38662,72377,5
38647,72369,5
38655,72368,5
38643,72366,4
38657,72369,5
38649,72362,5
38641,72354,5
38638,72370,5
38639,72361,4
38640,72361,5
38644,72362,5
38643,72360,5
38638,72354,5
38629,72355,4
38645,72346,5
38647,72349,5
38639,72357,5
38616,72346,5
38635,72341,4
38635,72344,5
38641,72352,5
38618,72343,5
38644,72353,4
38645,72337,5
38637,72349,4
38633,72346,5
38632,72321,5
38626,72312,4
38619,72301,5
38629,72276,5
38595,72263,5
38591,72247,5
38586,72240,4
38601,72243,5
38580,72238,5
38587,72248,5
38593,72250,5
38598,72260,4
38590,72271,5
38601,72281,5
38609,72290,5
38608,72290,5
38615,72319,4
38626,72332,5
38627,72335,5
38632,72335,5
38637,72344,4
38639,72352,4
38633,72348,6
38635,72325,4
38627,72324,5
38609,72274,4
38587,72236,5
38567,72195,5
38557,72190,5
38547,72171,5
38540,72161,4
38544,72164,5
38543,72158,5
38539,72152,5
38542,72163,5
38537,72174,4
38538,72151,5
38536,72160,5
38540,72160,5
38540,72176,5
38541,72161,4
38546,72171,5
38533,72164,5
38543,72176,5
38537,72164,4
38542,72163,4
38542,72161,5
38532,72163,5
38533,72158,5
38532,72150,4
38534,72154,5
38528,72136,5
38526,72141,5
38537,72135,5
38533,72136,4
38527,72142,5
38531,72139,5
38534,72141,5
38541,72143,5
38530,72142,4
38540,72159,5
38539,72149,5
38530,72153,5
38543,72147,5
38537,72168,4
38537,72158,5
38544,72158,5
38537,72161,5
38538,72168,5
38539,72174,4
38539,72166,5
38545,72167,5
38544,72178,5
38554,72171,4
38552,72175,5
38552,72170,5
38558,72182,5
38547,72186,5
38554,72181,4
38562,72189,5
38558,72194,5
38566,72203,5
38567,72212,5
38578,72212,4
38569,72224,5
38575,72234,5
38590,72234,5
38583,72242,5
38589,72245,4
38590,72250,5
38599,72264,5
38596,72264,5
38604,72274,4
38607,72278,5
38597,72272,4
38609,72274,5
38604,72286,5
38613,72290,4
38615,72293,5
38608,72285,5
38609,72288,5
38601,72289,5
38606,72284,4
38606,72282,5
38616,72287,5
38612,72288,5
38612,72284,5
38605,72284,4
38607,72286,5
38602,72281,5
38608,72273,5
38607,72285,5
38606,72280,4
38606,72288,5
38618,72284,5
38605,72286,4
38600,72275,4
38601,72279,4
38602,72286,5
38618,72277,5
38600,72285,5
38602,72271,4
38608,72280,5
38601,72284,5
38604,72282,5
38604,72281,5
38607,72289,4
38612,72288,5
38602,72299,5
38619,72289,5
38607,72293,5
38604,72289,4
38613,72292,5
38611,72280,5
38597,72283,5
38604,72271,5
38582,72265,4
38594,72260,5
38592,72250,5
38591,72250,6
38575,72248,3
38591,72250,4
38596,72258,5
38601,72265,5
38602,72278,5
38616,72291,4
38614,72294,5
38619,72314,5
38629,72309,5
38622,72326,5
38632,72320,4
38626,72325,5
38639,72324,5
38626,72319,5
38624,72312,5
38621,72314,4
38630,72296,5
38617,72286,5
38592,72262,5
38577,72214,5
38573,72201,5
38561,72180,4
38557,72181,5
38541,72167,5
38539,72153,6
38544,72172,3
38542,72161,5
38550,72175,5
38553,72165,5
38558,72178,4
38545,72183,5
38555,72193,5
38557,72171,5
38566,72200,5
38567,72204,4
38566,72208,5
38574,72207,5
38562,72218,9
38577,72219,1
38579,72216,4
38573,72242,5
38578,72215,5
38568,72213,5
38565,72206,5
38563,72220,4
38564,72201,6
38567,72196,4
38564,72195,5
38567,72215,4
38557,72195,5
38560,72197,5
38561,72194,5
38569,72205,5
38568,72205,4
38572,72197,5
38564,72190,5
38575,72205,5
38560,72198,5
38562,72205,4
38570,72210,5
38570,72207,5
38571,72204,5
38571,72206,5
38565,72218,4
38576,72214,5
38575,72216,5
38577,72230,5
38580,72236,5
38588,72244,4
38582,72249,5
38592,72254,6
38594,72256,4
38600,72266,4
38604,72280,5
38602,72282,5
38614,72288,5
38614,72301,5
38615,72308,4
38627,72327,5
38632,72323,5
38632,72338,5
38634,72330,5
38641,72348,4
38642,72353,5
38649,72353,5
38653,72361,5
38649,72366,5
38655,72360,4
38654,72368,5
38652,72364,5
38651,72359,5
38643,72365,5
38647,72361,4
38646,72366,5
38641,72361,5
38646,72367,6
38644,72358,3
38649,72352,5
38646,72365,5
38649,72362,5
38642,72362,5
38651,72363,4
38647,72369,5
38649,72366,5
38645,72359,5
38642,72365,5
38651,72355,4
38641,72365,5
38641,72357,5
38644,72362,5
38645,72353,5
38639,72345,4
38642,72344,5
38637,72346,5
38637,72340,5
38635,72347,5
38641,72337,5
38635,72351,4
38635,72345,5
38645,72355,5
38648,72363,4
38653,72373,4
38660,72384,5
38662,72386,5
38663,72396,5
38666,72401,4
38667,72401,5
38663,72405,5
38669,72393,5
38667,72400,5
38670,72398,4
38660,72384,5
38658,72383,5
38652,72375,5
38639,72343,5
38618,72300,4
38597,72270,5
38588,72262,5
38590,72246,5
38580,72238,5
38581,72228,4
38572,72236,6
38574,72233,4
38587,72236,5
38590,72245,4
38569,72252,5
38594,72262,5
38590,72254,5
38601,72269,5
38586,72285,4
38605,72272,5
38609,72285,5
38612,72288,5
38612,72287,5
38611,72297,4
38607,72300,5
38609,72294,5
38628,72290,5
38611,72298,5
38623,72307,4
38621,72299,5
38639,72288,5
38613,72296,5
38613,72288,5
38610,72302,4
38622,72297,5
38608,72308,6
38624,72308,4
38624,72315,4
38624,72304,5
38624,72308,5
38623,72309,5
38610,72301,5
38617,72295,4
38615,72316,5
38626,72304,5
38622,72304,5
38626,72295,5
38621,72319,4
38624,72314,5
38627,72319,5
38624,72319,5
38637,72335,5
38646,72347,4
38649,72359,5
38651,72373,5
38656,72382,5
38661,72400,5
38663,72400,4
38677,72433,5
38680,72437,5
38699,72455,5
38701,72459,4
38705,72487,5
38711,72480,5
38725,72487,5
38724,72506,5
38719,72520,4
38721,72515,5
38725,72527,5
38740,72524,5
38736,72530,5
38738,72531,4
38735,72520,5
38725,72529,5
38728,72514,5
38725,72517,5
38733,72511,4
38726,72506,5
38722,72495,5
38722,72499,5
38727,72488,5
38707,72479,5
38714,72471,4
38704,72465,5
38707,72460,5
38696,72454,4
38704,72453,5
38707,72464,5
38711,72477,5
38699,72478,5
38724,72486,4
38724,72502,5
38727,72518,5
38734,72527,5
38743,72544,5
38740,72541,4
38747,72544,5
38752,72556,5
38748,72553,5
38756,72553,5
38749,72551,4
38750,72557,5
38747,72549,5
38741,72527,5
38722,72489,5
38705,72464,4
38698,72449,6
38691,72438,4
38682,72427,5
38687,72420,4
38684,72436,5
38688,72434,5
38685,72444,5
38697,72441,5
38694,72454,4
38704,72456,5
38696,72468,5
38704,72475,5
38711,72479,5
38715,72484,4
38718,72481,5
38715,72488,5
38715,72495,5
38722,72490,5
38724,72494,4
38724,72496,5
38720,72489,5
38716,72488,5
38704,72483,4
38711,72479,4
38709,72478,5
38718,72484,5
38715,72477,5
38707,72474,4
38720,72477,5
38719,72496,5
38713,72500,5
38719,72502,5
38716,72488,4
38718,72483,5
38710,72485,5
38715,72486,5
38711,72478,5
38715,72491,4
38721,72483,5
38726,72489,5
38717,72494,5
38723,72493,5
38716,72501,4
38720,72512,5
38722,72508,5
38723,72506,5
38735,72517,5
38745,72533,4
38736,72539,5
38741,72554,5
38760,72557,5
38761,72571,4
38768,72593,5
38760,72594,5
38779,72619,5
38792,72623,5
38794,72638,4
38790,72646,5
38809,72654,5
38812,72667,5
38812,72667,5
38825,72676,4
38820,72680,5
38817,72698,5
38822,72690,5
38837,72684,5
38819,72689,4
38829,72685,5
38825,72680,4
38843,72681,5
38826,72672,4
38819,72666,6
38816,72653,3
38808,72646,5
38795,72637,5
38797,72626,4
38784,72624,5
38784,72618,5
38781,72615,5
38783,72611,5
38788,72623,4
38788,72624,5
38797,72631,5
38797,72655,5
38807,72662,5
38806,72647,4
38809,72681,5
38821,72683,5
38826,72695,5
38822,72684,5
38835,72705,4
38835,72693,5
38824,72693,6
38810,72674,4
38796,72637,4
38792,72622,4
38776,72600,5
38768,72606,5
38763,72572,5
38758,72580,4
38763,72581,5
38778,72611,5
38765,72597,5
38772,72605,5
38776,72599,4
38778,72615,5
38783,72612,5
38794,72619,5
38786,72632,5
38789,72631,4
38793,72634,5
38783,72629,5
38791,72632,5
38791,72625,5
38790,72632,4
38798,72632,5
38795,72624,5
38788,72622,6
38783,72616,3
38785,72619,4
38787,72615,5
38799,72613,5
38788,72618,5
38791,72610,4
38788,72618,5
38801,72625,5
38788,72624,5
38790,72623,5
38785,72621,4
38797,72630,5
38793,72631,5
38792,72631,5
38789,72623,5
38795,72632,4
38798,72631,5
38794,72637,5
38805,72632,5
38800,72634,5
38802,72635,5
38804,72644,4
38802,72646,5
38802,72641,5
38805,72654,6
38810,72658,3
38806,72666,5
38819,72681,5
38817,72686,5
38826,72690,4
38835,72702,5
38846,72712,5
38839,72724,5
38848,72735,5
38852,72751,4
38856,72759,5
38862,72771,5
38867,72779,5
38869,72777,5
38868,72781,4
38880,72788,5
38873,72785,5
38873,72788,5
38879,72791,5
38879,72785,4
38873,72782,6
38882,72797,4
38885,72785,5
38882,72790,4
38880,72787,5
38879,72792,5
38878,72782,5
38874,72788,5
38874,72788,4
38872,72791,5
38871,72777,5
38872,72774,5
38870,72764,5
38873,72761,4
38860,72753,5
38853,72736,5
38845,72718,5
38835,72709,5
38833,72687,4
38826,72693,5
38822,72690,5
38830,72693,5
38836,72697,5
38831,72706,4
38837,72700,5
38843,72717,6
38843,72727,4
38847,72730,4
38853,72736,5
38862,72742,5
38856,72752,5
38855,72751,5
38860,72755,4
38858,72753,5
38866,72751,5
38823,72712,5
38825,72681,5
38816,72658,4
38803,72637,5
38770,72619,5
38796,72605,5
38776,72594,5
38779,72595,4
38781,72586,5
38781,72579,5
38772,72585,5
38766,72576,5
38783,72574,4
38764,72565,5
38759,72574,5
38760,72572,6
38786,72570,3
38759,72561,5
38752,72559,5
38756,72566,5
38768,72570,7
38760,72562,2
38757,72562,5
38762,72559,5
38757,72548,5
38751,72544,5
38747,72537,4
38743,72541,5
38749,72527,5
38741,72522,5
38739,72525,5
38743,72532,4
38739,72506,5
38736,72528,5
38745,72531,5
38756,72536,5
38741,72513,5
38744,72524,4
38744,72530,5
38754,72524,5
38755,72525,4
38740,72514,5
38732,72514,5
38742,72500,5
38731,72531,5
38734,72507,4
38730,72503,5
38728,72491,5
38731,72506,5
38720,72479,5
38718,72476,4
38710,72469,5
38714,72477,5
38722,72461,5
38718,72462,5
38715,72467,4
38725,72472,5
38724,72473,5
38721,72474,5
38714,72476,5
38712,72469,4
38722,72481,6
38726,72492,4
38726,72488,5
38736,72494,4
38724,72493,5
38739,72497,5
38731,72486,5
38731,72495,5
38730,72500,4
38739,72504,5
38731,72503,5
38738,72498,5
38728,72503,5
38724,72504,4
38727,72498,5
38733,72501,5
38731,72511,5
38731,72507,5
38734,72499,4
38729,72498,5
38733,72500,5
38734,72489,5
38718,72481,5
38704,72468,4
38717,72462,5
38704,72431,6
38695,72423,4
38673,72398,4
38667,72372,5
38652,72348,5
38643,72323,5
38631,72316,5
38629,72307,4
38633,72308,5
38629,72310,5
38639,72317,5
38642,72334,5
38646,72347,4
38654,72350,5
38661,72353,5
38658,72361,5
38664,72369,5
38675,72372,4
38670,72380,5
38669,72384,5
38675,72384,5
38680,72405,5
38676,72398,4
38682,72394,5
38666,72369,5
38652,72337,5
38630,72304,4
38614,72280,5
38613,72264,5
38593,72243,5
38590,72216,5
38588,72210,4
38581,72208,5
38584,72209,5
38577,72203,5
38578,72206,5
38577,72193,4
38582,72194,5
38569,72202,5
38575,72188,5
38579,72194,5
38567,72193,4
38570,72197,5
38574,72191,5
38580,72189,5
38580,72194,5
38572,72190,5
38572,72188,4
38580,72188,5
38574,72184,5
38573,72185,4
38560,72177,5
38554,72187,5
38572,72178,5
38572,72178,5
38557,72188,4
38567,72176,5
38558,72177,5
38577,72192,5
38565,72200,5
38578,72192,4
38574,72186,5
38566,72192,5
38550,72192,5
38573,72191,5
38564,72185,4
38570,72183,5
38565,72186,5
38564,72188,5
38568,72178,4
38567,72178,4
38572,72177,6
38559,72185,4
38568,72175,5
38570,72187,4
38588,72187,5
38573,72199,5
38574,72188,5
38578,72194,5
38594,72196,4
38590,72210,5
38574,72216,5
38592,72229,5
38600,72235,5
38601,72240,4
38597,72247,5
38606,72262,5
38613,72261,5
38618,72298,5
38620,72288,4
38627,72296,5
38632,72292,5
38626,72313,5
38647,72328,4
38642,72335,4
38641,72316,5
38646,72338,5
38645,72343,5
38644,72346,4
38645,72351,5
38655,72346,5
38646,72347,5
38648,72354,5
38652,72353,4
38648,72340,5
38646,72337,5
38650,72348,5
38659,72357,5
38648,72333,4
38654,72331,5
38652,72337,5
38646,72350,5
38644,72335,5
38642,72332,4
38642,72330,5
38643,72333,5
38647,72328,5
38648,72320,5
38643,72327,4
38641,72323,5
38648,72331,5
38646,72332,5
38649,72330,4
38646,72329,5
38643,72330,5
38647,72329,5
38645,72329,5
38648,72327,4
38641,72327,5
38640,72316,5
38632,72312,5
38627,72293,5
38616,72278,4
38601,72270,5
38604,72257,5
38603,72256,5
38590,72255,5
38609,72263,4
38605,72264,6
38611,72276,4
38614,72278,5
38625,72293,4
38629,72300,6
38636,72311,3
38636,72324,5
38639,72330,5
38656,72339,4
38648,72354,5
38655,72352,5
38656,72351,5
38655,72353,5
38666,72356,4
38654,72344,5
38646,72329,5
38633,72298,5
38608,72254,5
38595,72231,4
38591,72209,5
38585,72200,5
38572,72180,5
38563,72179,5
38560,72184,4
38565,72185,5
38570,72196,6
38571,72184,4
38568,72190,4
38572,72179,4
38569,72192,5
38575,72194,5
38571,72197,5
38579,72204,4
38577,72201,5
38579,72211,5
38583,72202,5
38576,72209,5
38582,72204,4
38576,72201,5
38580,72202,5
38588,72198,5
38574,72186,5
38582,72187,4
38569,72193,5
38572,72187,5
38570,72185,5
38570,72185,5
38560,72183,4
38568,72181,5
38568,72180,5
38571,72183,6
38579,72186,3
38580,72206,4
38568,72192,5
38577,72183,5
38568,72188,5
38569,72184,4
38574,72184,5
38572,72184,5
38576,72190,5
38577,72190,5
38569,72191,4
38568,72202,5
38584,72203,5
38584,72207,5
38582,72216,5
38576,72224,4
38584,72226,5
38595,72234,5
38599,72236,5
38579,72240,5
38603,72248,5
38605,72259,4
38619,72266,5
38608,72275,5
38626,72286,6
38623,72295,3
38623,72297,5
38650,72317,5
38640,72319,5
38652,72321,4
38643,72333,5
38672,72339,5
38661,72340,5
38651,72338,5
38644,72339,4
38674,72349,5
38653,72349,5
38656,72352,5
38658,72357,5
38670,72352,4
38648,72355,5
38652,72352,5
38657,72357,5
38655,72342,5
38656,72347,4
38654,72349,6
38657,72339,4
38658,72331,5
38641,72342,4
38657,72333,4
38647,72335,5
38654,72317,5
38651,72336,5
38652,72334,4
38656,72345,5
38647,72331,5
38654,72335,5
38640,72342,5
38653,72342,4
38654,72350,5
38651,72345,5
38658,72348,5
38648,72344,5
38649,72357,4
38645,72336,5
38644,72323,5
38641,72318,5
38628,72326,5
38628,72301,4
38636,72301,5
38629,72299,6
38630,72298,4
38624,72298,4
38625,72307,4
38632,72313,5
38636,72321,5
38646,72330,5
38651,72341,4
38661,72355,5
38660,72365,5
38668,72361,5
38662,72364,5
38671,72381,4
38664,72370,5
38669,72369,5
38673,72374,5
38672,72371,5
38663,72369,4
38667,72355,5
38651,72335,5
38636,72296,5
38613,72269,5
38606,72257,4
38597,72241,5
38586,72228,5
38593,72223,6
38589,72218,3
38593,72223,4
38588,72229,5
38595,72231,5
38600,72231,5
38585,72235,4
38588,72233,5
38595,72227,5
38595,72233,5
38596,72239,5
38598,72237,4
38602,72241,5
38599,72233,5
38597,72231,5
38597,72236,5
38589,72230,4
38593,72228,5
38591,72220,5
38595,72223,5
38588,72221,5
38583,72222,5
38588,72216,4
38590,72212,5
38582,72214,5
38586,72210,4
38586,72205,4
38585,72212,5
38581,72214,5
38590,72225,5
38586,72219,4
38597,72225,5
38586,72218,5
38590,72222,5
38592,72233,5
38598,72240,4
38589,72232,5
38595,72248,5
38603,72239,5
38599,72249,5
38608,72263,4
38600,72263,5
38614,72274,5
38622,72278,5
38626,72286,5
38617,72298,4
38632,72294,6
38627,72308,4
38632,72319,5
38644,72326,4
38636,72332,5
38647,72347,5
38643,72349,5
38654,72358,5
38665,72362,4
38666,72374,5
38667,72377,5
38667,72382,5
38672,72379,5
38673,72388,4
38676,72393,5
38672,72404,5
38686,72395,5
38679,72399,5
38683,72399,4
38671,72402,5
38677,72399,5
38682,72402,10
38687,72400,4
38666,72413,5
38682,72413,6
38688,72415,4
38693,72411,4
38681,72407,5
38682,72420,5
38682,72421,5
38689,72410,5
38691,72404,4
38687,72409,5
38677,72404,5
38672,72393,5
38689,72381,5
38669,72380,4
38670,72375,5
38663,72372,5
38666,72365,5
38660,72363,5
38672,72362,4
38665,72375,5
38675,72371,5
38677,72393,5
38675,72393,5
38684,72406,4
38694,72406,5
38692,72436,5
38701,72437,5
38697,72448,4
38709,72440,5
38706,72464,5
38718,72464,5
38718,72470,5
38717,72445,4
38716,72465,5
38710,72468,5
38710,72462,5
38697,72425,5
38689,72400,4
38666,72361,5
38661,72364,5
38648,72350,5
38644,72337,5
38641,72344,4
38643,72336,5
38652,72373,5
38654,72356,5
38657,72352,5
38660,72367,5
38660,72376,4
38663,72366,5
38662,72376,5
38680,72379,4
38671,72396,5
38679,72394,5
38676,72399,5
38681,72395,5
38688,72404,4
38684,72405,5
38685,72399,5
38679,72398,5
38684,72397,5
38666,72396,4
38674,72394,5
38667,72386,5
38680,72381,5
38670,72381,5
38666,72383,4
38669,72383,5
38672,72387,5
38683,72391,5
38675,72395,5
38683,72398,4
38687,72397,6
38684,72387,4
38686,72394,5
38683,72398,4
38674,72401,5
38683,72394,5
38686,72404,5
38682,72404,5
38683,72408,4
38689,72415,5
38689,72416,5
38696,72430,5
38702,72436,5
38708,72447,4
38713,72455,5
38707,72461,5
38718,72482,5
38728,72493,5
38729,72506,4
38746,72523,5
38752,72531,5
38748,72541,5
38767,72569,5
38766,72571,4
38771,72587,5
38786,72600,5
38794,72612,5
38793,72619,4
38791,72621,5
38794,72631,5
38808,72633,5
38803,72630,5
38806,72640,4
38807,72646,5
38801,72646,5
38810,72642,5
38814,72635,5
38808,72628,4
38806,72627,5
38800,72619,5
38800,72614,5
38789,72601,5
38789,72600,5
38787,72588,4
38787,72582,5
38781,72583,5
38772,72582,6
38777,72585,3
38785,72603,5
38787,72597,5
38787,72605,5
38793,72623,4
38805,72622,5
38803,72629,5
38805,72641,5
38818,72646,5
38815,72664,4
38824,72669,5
38827,72670,5
38827,72681,5
38831,72670,5
38828,72656,4
38811,72643,5
38795,72602,5
38779,72588,5
38775,72571,5
38763,72558,4
38762,72559,6
38764,72558,4
38755,72559,5
38771,72567,5
38775,72574,6
38771,72577,3
38757,72573,5
38771,72595,5
38783,72601,4
38791,72599,5
38775,72606,5
38783,72609,5
38788,72619,5
38793,72608,4
38803,72617,5
38809,72627,5
38801,72620,5
38793,72617,5
38816,72617,4
38796,72614,5
38792,72625,5
38788,72606,5
38802,72607,5
38790,72605,4
38786,72601,5
38791,72604,6
38793,72614,4
38790,72618,5
38790,72618,4
38786,72612,5
38795,72616,5
38794,72613,5
38796,72613,4
38789,72608,5
38792,72589,5
38795,72616,5
38787,72617,5
38796,72615,4
38796,72597,5
38800,72622,5
38805,72629,5
38808,72634,5
38810,72624,4
38809,72638,5
38808,72647,5
38811,72655,5
38820,72678,5
38826,72673,4
38826,72692,5
38836,72695,5
38846,72732,6
38856,72728,4
38854,72734,4
38862,72761,5
38864,72779,5
38871,72768,5
38882,72778,4
38878,72782,5
38884,72798,5
38880,72795,5
38885,72799,5
38888,72796,4
38892,72801,5
38887,72801,5
38886,72796,5
38888,72811,5
38885,72793,4
38880,72788,5
38875,72779,5
38881,72770,5
38870,72766,5
38870,72753,5
38861,72748,4
38863,72742,5
38858,72742,5
38862,72741,6
38861,72735,3
38858,72753,5
38863,72760,5
38869,72746,5
38866,72764,4
38867,72763,4
38876,72769,5
38883,72771,5
38877,72783,5
38887,72792,4
38894,72793,5
38879,72786,5
38878,72776,5
38870,72739,5
38856,72714,4
38849,72705,5
38838,72689,5
38825,72674,5
38822,72674,5
38819,72669,4
38822,72668,6
38818,72669,4
38822,72660,5
38820,72668,5
38823,72661,4
38819,72666,5
38822,72665,5
38816,72661,5
38822,72668,4
38817,72670,4
38816,72668,5
38819,72663,5
38819,72669,5
38827,72669,4
38815,72664,5
38825,72670,5
38819,72675,5
38825,72670,5
38822,72674,4
38827,72674,5
38827,72674,5
38822,72673,5
38821,72667,5
38823,72677,4
38819,72680,5
38829,72686,6
38834,72701,4
38835,72689,5
38835,72686,4
38829,72692,5
38824,72689,5
38835,72692,5
38826,72689,4
38825,72681,4
38832,72680,5
38831,72675,5
38830,72673,5
38828,72679,4
38827,72679,5
38819,72669,5
38820,72661,5
38816,72658,5
38815,72668,4
38820,72660,5
38817,72650,5
38815,72660,5
38818,72661,5
38823,72659,4
38818,72664,5
38827,72668,5
38823,72669,7
38810,72684,3
38820,72677,4
38825,72687,5
38845,72684,5
38808,72687,5
38826,72691,4
38834,72704,4
38830,72687,5
38816,72682,5
38834,72685,5
38826,72682,4
38821,72682,5
38836,72696,5
38832,72685,5
38835,72691,5
38830,72689,4
38846,72685,5
38831,72690,5
38835,72689,5
38831,72684,5
38850,72684,5
38827,72682,4
38825,72687,5
38819,72681,5
38827,72674,5
38815,72666,4
38812,72663,5
38802,72641,5
38800,72615,5
38788,72597,4
38780,72594,4
38773,72574,5
38759,72547,5
38767,72560,5
38760,72561,4
38759,72558,5
38764,72554,5
38763,72568,5
38779,72587,5
38781,72591,4
38787,72591,5
38786,72621,5
38792,72616,5
38795,72617,5
38799,72626,4
38808,72624,6
38800,72640,4
38793,72639,5
38796,72651,5
38792,72618,4
38776,72577,5
38747,72547,5
38748,72541,5
38725,72499,4
38723,72478,4
38718,72459,5
38712,72465,5
38716,72460,5
38700,72459,4
38707,72448,5
38702,72444,5
38690,72440,5
38700,72433,5
38698,72436,4
38697,72432,5
38695,72430,5
38689,72437,5
38694,72436,5
38698,72436,4
38694,72435,5
38696,72429,6
38690,72432,4
38689,72425,5
38686,72415,4
38678,72415,5
38683,72428,5
38682,72406,5
38689,72413,4
38677,72405,4
38681,72402,5
38688,72406,5
38683,72424,5
38687,72422,4
38686,72431,5
38697,72439,5
38695,72438,5
38704,72436,5
38699,72443,4
38704,72430,5
38695,72436,5
38688,72428,5
38694,72425,5
38688,72421,4
38686,72427,5
38686,72416,5
38677,72409,5
38679,72409,5
38670,72408,4
38668,72396,5
38667,72398,5
38670,72388,5
38660,72372,4
38663,72378,4
38664,72376,5
38673,72378,5
38665,72380,5
38665,72382,4
38669,72386,5
38677,72390,5
38673,72400,5
38672,72397,5
38669,72397,4
38683,72415,5
38678,72426,5
38684,72409,5
38686,72428,5
38681,72428,5
38689,72432,4
38696,72433,5
38688,72452,5
38692,72442,5
38697,72447,4
38703,72456,5
38702,72456,5
38703,72447,5
38715,72467,4
38699,72449,4
38700,72465,5
38705,72461,5
38706,72460,8
38709,72450,1
38700,72457,5
38708,72459,5
38688,72455,5
38701,72451,5
38706,72448,4
38699,72443,5
38699,72443,5
38696,72448,5
38697,72445,5
38693,72443,4
38701,72437,6
38692,72444,3
38689,72438,5
38689,72431,5
38676,72423,4
38691,72426,5
38689,72426,5
38683,72415,5
38663,72408,4
38674,72402,4
38674,72393,5
38662,72372,5
38628,72360,5
38646,72339,4
38633,72330,5
38642,72328,5
38638,72334,5
38646,72324,5
38643,72345,4
38634,72355,5
38668,72363,5
38659,72383,6
38664,72379,4
38665,72386,4
38681,72398,5
38673,72415,5
38680,72414,5
38674,72413,5
38695,72413,4
38673,72412,5
38687,72410,5
38690,72418,5
38682,72422,4
38680,72405,4
38657,72364,5
38623,72308,5
38612,72271,5
38597,72249,4
38589,72220,5
38580,72206,5
38572,72193,5
38569,72201,5
38572,72193,5
38561,72199,4
38568,72182,5
38565,72189,5
38564,72190,6
38563,72187,3
38572,72202,5
38574,72199,5
38573,72210,5
38573,72208,5
38571,72231,4
38569,72210,5
38568,72217,5
38574,72205,5
38571,72223,4
38566,72205,4
38561,72203,5
38570,72200,5
38560,72196,5
38574,72202,4
38562,72202,5
38563,72205,5
38577,72198,5
38573,72191,5
38562,72196,4
38564,72202,6
38569,72208,4
38569,72213,5
38575,72210,5
38570,72198,6
38575,72209,3
38560,72203,5
38573,72203,5
38575,72202,5
38570,72209,4
38566,72200,5
38564,72203,5
38568,72199,5
38567,72204,4
38567,72213,4
38572,72219,5
38575,72223,5
38586,72225,5
38591,72231,4
38586,72222,5
38581,72241,5
38592,72246,5
38601,72260,5
38595,72254,4
38597,72264,5
38603,72266,6
38608,72283,4
38618,72291,5
38610,72301,4
38622,72302,5
38617,72318,5
38634,72334,5
38641,72343,5
38641,72341,4
38647,72352,5
38649,72349,5
38647,72358,5
38645,72370,4
38656,72368,5
38658,72376,5
38661,72373,5
38659,72372,5
38653,72372,4
38667,72373,5
38658,72380,5
38657,72376,5
38665,72374,5
38663,72374,4
38658,72368,5
38656,72369,5
38650,72373,6
38652,72368,4
38654,72359,4
38655,72363,5
38647,72360,5
38654,72368,5
38648,72360,5
38645,72368,4
38660,72366,5
38648,72374,5
38652,72369,5
38648,72357,4
38645,72370,5
38658,72370,5
38655,72368,5
38660,72373,5
38658,72368,4
38650,72380,5
38664,72377,5
38658,72379,5
38657,72387,5
38656,72382,5
38670,72384,4
38658,72382,5
38662,72380,5
38665,72380,6
38670,72392,3
38662,72393,5
38667,72387,5
38666,72388,5
38658,72376,5
38664,72380,4
38638,72364,5
38651,72356,5
38642,72348,5
38643,72345,4
38615,72327,5
38637,72330,5
38632,72333,5
38638,72326,5
38621,72338,4
38638,72346,5
38652,72358,5
38653,72370,5
38659,72371,5
38668,72393,4
38664,72401,6
38682,72404,4
38687,72400,5
38680,72406,5
38678,72406,4
38681,72412,5
38682,72413,5
38676,72414,5
38666,72403,5
38669,72401,4
38671,72374,5
38634,72332,5
38614,72301,5
38612,72291,4
38607,72270,5
38601,72262,5
38589,72250,5
38599,72254,5
38593,72235,4
38593,72253,5
38589,72247,5
38586,72241,5
38590,72228,5
38583,72240,4
38595,72240,5
38593,72253,6
38596,72242,4
38596,72243,5
38597,72259,4
38598,72258,5
38599,72265,5
38585,72252,5
38591,72258,4
38590,72242,4
38605,72263,5
38594,72245,5
38593,72235,5
38585,72238,4
38581,72249,5
38581,72229,5
38583,72229,5
38584,72227,5
38577,72231,4
38583,72236,5
38585,72248,5
38590,72249,5
38595,72256,5
38592,72257,4
38591,72254,5
38595,72256,5
38605,72256,6
38603,72270,4
38602,72264,4
38595,72264,5
38601,72273,5
38601,72277,5
38605,72268,4
38609,72285,4
38613,72282,5
38608,72290,5
38618,72286,5
38620,72296,4
38618,72300,5
38622,72298,5
38623,72310,5
38629,72318,5
38632,72326,4
38628,72319,5
38628,72336,5
38642,72334,5
38651,72358,5
38645,72355,5
38641,72362,4
38652,72369,5
38649,72373,5
38661,72379,5
38662,72380,4
38659,72389,5
38668,72387,5
38664,72385,5
38667,72384,4
38666,72392,4
38667,72390,5
38666,72395,5
38669,72396,5
38658,72391,4
38662,72387,5
38659,72388,5
38665,72386,5
38663,72391,5
38660,72396,4
38665,72382,5
38664,72377,5
38654,72378,5
38656,72380,5
38656,72366,4
38661,72379,6
38652,72375,4
38660,72374,5
38654,72373,5
38665,72383,4
38656,72373,5
38659,72372,5
38656,72380,5
38660,72380,4
38658,72385,4
38662,72386,5
38670,72375,5
38668,72387,5
38664,72382,4
38667,72380,5
38658,72374,5
38656,72368,5
38643,72363,5
38652,72348,4
38642,72337,5
38643,72346,5
38634,72350,5
38641,72337,5
38634,72351,4
38643,72349,5
38644,72365,6
38652,72375,4
38659,72383,5
38662,72372,4
38656,72390,5
38663,72395,5
38664,72407,5
38669,72404,4
38674,72411,4
38671,72408,5
38648,72400,5
38660,72391,5
38670,72387,4
38656,72381,5
38644,72381,5
38647,72369,5
38636,72329,5
38616,72293,4
38592,72270,5
38596,72254,5
38594,72253,5
38581,72233,5
38596,72233,4
38582,72246,5
38590,72247,5
38589,72251,5
38614,72260,5
38599,72257,4
38599,72267,5
38598,72267,5
38627,72279,5
38598,72272,4
38603,72282,5
38610,72285,5
38614,72291,5
38612,72283,5
38606,72289,4
38617,72276,5
38607,72285,5
38614,72284,5
38610,72278,5
38606,72271,4
38611,72261,5
38596,72273,5
38603,72262,5
38605,72265,5
38599,72245,5
38600,72268,4
38598,72267,5
38603,72285,5
38613,72268,5
38610,72272,4
38606,72280,5
38607,72279,5
38606,72294,5
38599,72285,4
38611,72292,5
38604,72282,5
38609,72299,5
38617,72294,5
38606,72290,4
38617,72300,5
38622,72326,5
38625,72310,5
38621,72315,5
38626,72324,4
38631,72340,5
38640,72338,6
38637,72345,4
38642,72360,5
38647,72362,4
38651,72373,7
38659,72374,3
38662,72399,5
38665,72398,5
38665,72410,4
38680,72412,5
38672,72431,5
38681,72430,5
38682,72442,4
38688,72453,5
38701,72451,5
38697,72451,5
38701,72448,5
38697,72450,4
38701,72454,5
38701,72449,5
38699,72448,5
38707,72450,5
38700,72456,4
38700,72449,5
38698,72449,5
38693,72447,6
38697,72443,4
38688,72432,4
38687,72427,5
38677,72425,5
38682,72416,5
38673,72417,5
38678,72411,4
38683,72395,5
38667,72407,5
38680,72410,5
38678,72418,4
38671,72409,5
38685,72422,5
38686,72427,5
38697,72435,5
38695,72450,4
38703,72461,5
38712,72475,5
38713,72479,5
38712,72479,5
38712,72477,5
38711,72481,4
38714,72479,5
38718,72480,5
38709,72480,6
38710,72476,3
38704,72463,5
38701,72433,5
38683,72395,5
38659,72360,7
38652,72353,2
38639,72339,5
38652,72335,5
38638,72327,5
38644,72342,4
38647,72341,5
38644,72349,5
38641,72352,5
38653,72351,5
38654,72361,4
38650,72369,5
38659,72366,5
38665,72378,5
38666,72381,5
38669,72380,4
38676,72390,6
38673,72397,4
38677,72391,5
38675,72393,5
38674,72394,6
38671,72390,3
38674,72392,5
38674,72383,5
38672,72385,5
38665,72383,4
38664,72377,5
38654,72372,5
38667,72381,5
38670,72382,4
38672,72400,5
38682,72409,5
38680,72407,5
38666,72402,5
38673,72403,4
38682,72398,5
38681,72405,5
38668,72406,5
38686,72406,5
38682,72411,4
38683,72415,5
38676,72407,6
38684,72424,4
38687,72422,5
38686,72425,4
38699,72430,5
38694,72431,5
38699,72442,5
38700,72439,5
38730,72447,4
38705,72460,5
38709,72464,5
38721,72487,5
38743,72501,4
38735,72516,5
38741,72518,5
38755,72535,5
38763,72545,5
38757,72556,4
38760,72567,5
38765,72562,5
38766,72576,5
38772,72586,5
38783,72582,4
38768,72570,5
38781,72574,5
38775,72575,6
38775,72584,4
38778,72587,4
38764,72569,5
38772,72566,5
38766,72577,5
38767,72562,5
38757,72541,4
38752,72540,5
38759,72529,5
38747,72517,5
38730,72515,4
38735,72510,5
38723,72500,5
38740,72500,5
38734,72519,5
38736,72504,4
38743,72515,5
38735,72527,5
38747,72547,5
38752,72554,5
38758,72551,5
38757,72558,4
38766,72580,5
38768,72574,5
38771,72574,6
38782,72586,3
38776,72591,5
38781,72585,5
38777,72582,5
38766,72579,5
38767,72557,4
38743,72523,5
38731,72512,5
38728,72500,5
38717,72473,4
38718,72476,5
38717,72473,5
38722,72481,5
38725,72483,5
38730,72485,4
38728,72491,5
38728,72503,5
38736,72504,5
38741,72501,5
38744,72508,4
38744,72515,6
38744,72530,4
38747,72528,5
38756,72534,5
38751,72534,4
38760,72540,5
38747,72542,5
38756,72542,5
38755,72536,5
38749,72539,4
38758,72532,5
38750,72528,5
38746,72529,5
38755,72534,4
38742,72531,5
38749,72536,5
38749,72528,5
38759,72540,5
38752,72547,4
38749,72536,5
38748,72539,5
38758,72539,5
38753,72541,5
38757,72532,4
38744,72542,5
38757,72542,6
38755,72539,4
38753,72545,5
38753,72538,4
38756,72541,5
38759,72548,5
38748,72549,5
38752,72544,5
38752,72555,4
38762,72568,5
38766,72565,5
38769,72577,5
38771,72584,4
38775,72596,5
38779,72601,5
38787,72624,5
38801,72625,5
38801,72635,4
38803,72651,5
38815,72668,5
38826,72678,5
38822,72690,5
38841,72695,4
38828,72705,5
38836,72712,5
38847,72714,6
38849,72720,4
38845,72726,4
38846,72732,5
38846,72727,5
38854,72721,5
38844,72713,5
38847,72713,4
38834,72708,5
38827,72690,5
38827,72689,5
38820,72676,4
38825,72669,5
38822,72669,5
38821,72666,5
38815,72666,5
38805,72670,4
38815,72671,5
38824,72678,5
38819,72676,5
38811,72688,5
38826,72686,5
38838,72690,4
38842,72700,5
38828,72705,5
38848,72719,5
38843,72710,4
38853,72719,5
38850,72708,5
38830,72681,5
38813,72650,5
38814,72650,4
38814,72630,5
38801,72627,5
38799,72617,5
38796,72628,4
38811,72625,5
38801,72626,5
38802,72616,5
38797,72621,5
38804,72618,4
38796,72621,5
38792,72613,5
38794,72625,5
38799,72620,5
38799,72622,4
38788,72620,6
38798,72619,4
38798,72606,5
38793,72625,5
38789,72619,4
38785,72613,5
38785,72602,5
38796,72605,5
38786,72608,5
38791,72598,4
38779,72581,5
38789,72597,5
38784,72589,5
38775,72603,4
38793,72603,5
38782,72602,5
38795,72613,5
38794,72611,5
38790,72626,4
38804,72618,5
38798,72607,5
38796,72614,5
38788,72631,5
38801,72622,4
38801,72615,5
38803,72622,6
38795,72626,4
38792,72618,5
38791,72618,4
38789,72615,5
38786,72611,5
38793,72611,5
38793,72608,5
38787,72612,4
38794,72608,5
38794,72618,5
38794,72606,5
38790,72606,4
38795,72617,5
38800,72616,5
38801,72617,5
38793,72620,5
38796,72630,4
38801,72627,5
38804,72625,5
38803,72632,5
38798,72635,5
38800,72640,4
38807,72637,5
38805,72628,5
38807,72635,5
38803,72643,5
38804,72641,4
38800,72639,5
38805,72631,5
38801,72632,5
38805,72631,5
38809,72629,4
38795,72623,5
38789,72605,5
38788,72603,5
38780,72596,4
38776,72581,4
38770,72564,5
38760,72552,5
38743,72531,5
38741,72517,4
38738,72506,6
38726,72504,4
38736,72496,5
38723,72504,5
38731,72504,6
38730,72511,3
38735,72507,5
38738,72514,5
38739,72506,5
38734,72516,4
38736,72520,5
38739,72518,5
38740,72526,5
38756,72519,5
38743,72516,4
38738,72515,5
38713,72462,5
38687,72415,5
38669,72388,4
38665,72365,4
38646,72347,5
38645,72336,5
38647,72328,5
38644,72333,4
38644,72315,5
38642,72323,6
38634,72319,4
38633,72311,5
38632,72309,4
38629,72306,7
38625,72305,3
38626,72309,5
38631,72300,5
38631,72301,4
38632,72301,5
38631,72292,5
38620,72293,5
38617,72285,5
38617,72287,4
38623,72284,5
38616,72284,5
38611,72282,5
38604,72273,4
38610,72274,4
38611,72272,5
38606,72269,5
38607,72266,5
38609,72261,4
38601,72276,5
38607,72274,5
38621,72278,6
38605,72283,4
38599,72273,4
38615,72278,5
38613,72289,5
38622,72284,5
38598,72288,5
38619,72287,4
38613,72288,5
38620,72284,5
38619,72285,5
38621,72291,5
38618,72289,4
38625,72285,5
38630,72294,5
38629,72290,5
38621,72292,4
38620,72292,4
38637,72288,5
38625,72296,5
38625,72299,5
38622,72300,5
38631,72308,4
38626,72310,5
38632,72328,5
38638,72326,6
38639,72328,3
38646,72340,5
38647,72341,5
38647,72342,5
38644,72332,5
38644,72356,4
38658,72353,5
38659,72369,5
38653,72356,5
38665,72380,5
38670,72375,4
38673,72385,5
38668,72376,5
38662,72391,5
38673,72395,4
38673,72391,4
38670,72400,5
38677,72388,5
38668,72391,5
38672,72384,4
38671,72402,6
38665,72382,4
38657,72369,5
38662,72373,5
38665,72397,6
38663,72367,3
38665,72375,5
38666,72381,5
38664,72378,5
38663,72371,4
38658,72370,5
38660,72372,5
38657,72372,5
38656,72372,5
38665,72369,4
38655,72370,5
38657,72373,5
38658,72359,5
38646,72361,4
38653,72357,4
38647,72351,5
38641,72330,5
38633,72323,5
38623,72315,4
38612,72289,5
38610,72275,6
38601,72261,4
38593,72244,5
38605,72242,4
38604,72260,5
38600,72271,5
38610,72270,5
38611,72276,5
38622,72280,4
38621,72294,5
38633,72317,5
38635,72327,5
38645,72342,5
38655,72364,4
38659,72367,5
38665,72375,5
38660,72384,5
38673,72386,4
38673,72396,4
38670,72395,5
38675,72393,5
38587,72238,10
38587,72238,4
38575,72219,5
38575,72197,6
38559,72176,4
38562,72187,4
38558,72178,5
38566,72167,5
38559,72164,5
38557,72162,5
38556,72155,4
38552,72169,5
38552,72165,5
38555,72159,5
38555,72170,5
38552,72162,4
38556,72165,5
38561,72166,5
38554,72168,5
38548,72170,4
38557,72167,5
38559,72168,5
38551,72166,5
38554,72163,5
38552,72168,5
38564,72164,4
38562,72166,5
38561,72172,5
38559,72172,6
38562,72175,3
38562,72173,5
38563,72169,5
38564,72180,5
38561,72191,5
38566,72202,4
38565,72194,5
38563,72199,5
38573,72192,5
38570,72194,5
38566,72190,4
38565,72192,5
38569,72195,5
38574,72197,5
38569,72195,4
38571,72196,5
38583,72203,5
38573,72203,5
38583,72211,5
38574,72211,4
38577,72217,6
38592,72219,4
38587,72223,5
38568,72231,5
38591,72242,4
38589,72233,5
38593,72243,5
38578,72248,5
38608,72262,5
38618,72272,4
38608,72284,5
38619,72288,5
38615,72300,5
38625,72304,5
38633,72312,4
38645,72319,5
38634,72320,5
38637,72330,5
38645,72338,4
38659,72340,5
38650,72340,5
38652,72348,5
38648,72337,5
38662,72356,4
38646,72349,5
38651,72352,6
38648,72350,4
38653,72346,5
38644,72337,4
38635,72342,5
38645,72336,5
38643,72316,5
38635,72336,5
38638,72321,4
38647,72321,5
38638,72312,5
38629,72329,5
38638,72318,5
38639,72321,4
38636,72305,5
38642,72328,5
38641,72329,5
38639,72325,4
38647,72333,5
38640,72331,5
38640,72330,5
38649,72336,5
38641,72344,4
38653,72334,5
38637,72337,5
38646,72347,6
38650,72358,4
38645,72344,4
38653,72351,5
38652,72362,5
38656,72366,5
38654,72362,5
38653,72362,4
38648,72358,5
38659,72364,5
38661,72363,5
38660,72351,5
38648,72350,4
38654,72357,5
38659,72362,5
38656,72351,5
38647,72356,4
38655,72345,5
38653,72338,5
38656,72335,5
38639,72320,5
38638,72311,5
38628,72298,4
38621,72287,5
38619,72293,5
38619,72277,5
38620,72285,4
38629,72281,5
38619,72286,5
38627,72303,5
38637,72309,5
38636,72315,4
38640,72328,5
38639,72338,5
38648,72344,5
38651,72348,5
38660,72361,4
38661,72370,5
38663,72366,5
38656,72371,5
38658,72367,4
38658,72350,5
38645,72339,5
38638,72317,5
38623,72279,5
38603,72243,4
38591,72233,6
38580,72216,4
38576,72207,5
38567,72191,5
38570,72197,4
38578,72201,5
38575,72201,5
38574,72201,5
38581,72200,5
38580,72207,4
38581,72219,5
38575,72206,5
38591,72228,5
38587,72228,5
38585,72233,4
38591,72233,5
38588,72235,5
38594,72233,5
38591,72231,4
38600,72230,5
38591,72233,5
38591,72239,5
38586,72229,5
38588,72221,4
38593,72214,5
38590,72224,5
38588,72218,5
38584,72215,5
38583,72206,4
38576,72204,5
38582,72213,5
38581,72207,5
38585,72214,5
38587,72224,4
38597,72217,5
38586,72218,5
38582,72222,5
38584,72216,5
38584,72216,4
38589,72220,5
38589,72232,5
38579,72223,5
38585,72228,5
38587,72224,4
38589,72232,5
38586,72238,5
38590,72239,6
38598,72240,3
38589,72240,5
38591,72250,5
38601,72270,5
38608,72258,5
38593,72272,4
38613,72282,5
38616,72293,5
38624,72301,5
38613,72306,5
38626,72306,4
38624,72309,5
38645,72326,5
38641,72329,5
38644,72336,5
38648,72344,4
38656,72349,5
38668,72345,5
38658,72352,5
38656,72347,4
38654,72355,6
38675,72361,4
38653,72360,5
38655,72357,5
38668,72357,6
38678,72365,3
38658,72365,5
38651,72367,5
38653,72364,5
38662,72357,4
38658,72346,5
38653,72347,5
38644,72342,5
38653,72338,5
38648,72356,4
38651,72337,5
38648,72343,5
38640,72337,5
38637,72330,5
38650,72328,4
38650,72333,5
38642,72317,5
38649,72329,5
38646,72331,4
38648,72338,5
38645,72334,6
38651,72328,4
38647,72342,5
38655,72333,4
38650,72343,5
38637,72333,5
38640,72331,5
38644,72324,5
38633,72343,4
38643,72314,5
38638,72308,5
38630,72307,5
38628,72318,5
38629,72298,4
38625,72303,5
38631,72297,5
38640,72307,5
38632,72320,5
38639,72329,4
38646,72342,5
38662,72355,5
38664,72361,5
38666,72368,4
38669,72386,5
38670,72385,5
38665,72381,6
38667,72379,4
38673,72384,4
38665,72387,5
38662,72379,5
38666,72364,5
38664,72365,5
38656,72341,4
38638,72310,5
38620,72286,5
38611,72265,5
38602,72247,5
38590,72238,4
38589,72224,5
38589,72231,5
38598,72235,5
38602,72236,5
38599,72246,4
38600,72259,5
38608,72251,5
38609,72268,5
38602,72271,5
38616,72273,4
38627,72274,5
38616,72281,5
38619,72294,6
38613,72297,3
38629,72299,5
38627,72287,5
38623,72289,5
38618,72287,5
38621,72293,4
38620,72288,5
38621,72283,5
38614,72278,5
38617,72276,5
38608,72278,4
38617,72263,5
38609,72265,5
38612,72262,5
38610,72261,5
38606,72270,4
38611,72268,5
38609,72266,5
38611,72259,5
38609,72266,4
38613,72256,6
38614,72266,4
38609,72267,5
38603,72264,5
38611,72267,4
38615,72278,5
38612,72281,5
38619,72278,5
38620,72296,5
38625,72299,4
38628,72307,5
38633,72305,5
38643,72310,5
38637,72328,5
38649,72338,4
38650,72355,5
38662,72367,5
38668,72382,5
38671,72384,5
38675,72396,4
38689,72411,5
38682,72422,5
38686,72414,5
38693,72429,4
38704,72443,5
38702,72445,6
38708,72459,4
38709,72453,5
38703,72463,4
38711,72457,5
38705,72459,5
38714,72452,5
38710,72460,5
38713,72454,4
38698,72461,5
38710,72459,5
38704,72448,5
38708,72442,5
38692,72439,4
38705,72437,5
38698,72428,5
38697,72420,5
38681,72415,5
38689,72415,4
38677,72406,5
38677,72404,5
38697,72396,5
38676,72401,4
38682,72404,5
38684,72401,5
38712,72420,6
38684,72418,4
38693,72429,4
38706,72445,5
38717,72453,5
38715,72466,5
38718,72458,5
38719,72470,4
38723,72467,5
38716,72466,5
38716,72467,5
38723,72462,5
38711,72450,4
38704,72458,5
38704,72460,5
38700,72428,5
38690,72377,5
38665,72371,4
38652,72351,5
38653,72340,5
38653,72325,5
38651,72337,5
38651,72346,4
38654,72357,5
38667,72354,5
38659,72372,5
38672,72374,4
38669,72382,5
38674,72396,5
38681,72396,5
38687,72410,5
38688,72412,4
38694,72436,5
38693,72417,5
38701,72420,5
38694,72424,5
38686,72435,4
38692,72409,5
38688,72421,5
38689,72413,5
38689,72418,5
38692,72403,4
38676,72413,5
38686,72399,5
38686,72394,5
38684,72396,4
38685,72396,6
38680,72402,4
38692,72416,5
38689,72417,5
38678,72399,4
38683,72400,5
38676,72411,5
38678,72398,5
38692,72400,5
38687,72409,4
38691,72409,5
38690,72414,5
38683,72417,5
38693,72416,8
38689,72420,1
38673,72430,5
38697,72429,5
38702,72437,5
38704,72449,5
38715,72458,4
38721,72474,5
38727,72482,5
38732,72497,5
38737,72517,4
38739,72522,5
38750,72531,6
38762,72552,4
38758,72564,5
38760,72572,4
38774,72576,5
38776,72576,5
38776,72581,5
38783,72591,5
38781,72587,4
38782,72602,5
38786,72596,5
38787,72594,5
38795,72600,5
38787,72594,4
38793,72587,5
38787,72593,5
38786,72589,5
38787,72592,4
38779,72582,4
38775,72571,5
38771,72556,5
38764,72554,5
38765,72544,4
38749,72534,5
38753,72538,5
38752,72515,5
38746,72524,5
38753,72538,4
38764,72541,5
38751,72555,5
38764,72565,5
38777,72583,5
38783,72600,4
38787,72599,5
38792,72613,5
38803,72620,5
38800,72627,5
38808,72643,4
38805,72649,5
38823,72646,5
38814,72642,5
38811,72642,5
38795,72615,4
38783,72583,5
38771,72565,5
38759,72544,5
38754,72528,5
38752,72521,4
38739,72515,5
38748,72521,5
38745,72520,5
38751,72532,4
38749,72526,5
38744,72522,5
38746,72527,5
38754,72537,5
38755,72537,4
38774,72553,5
38748,72561,5
38763,72566,5
38771,72565,5
38772,72569,4
38756,72565,5
38778,72567,5
38774,72567,5
38764,72578,5
38773,72567,4
38775,72572,5
38777,72576,5
38767,72579,5
38787,72567,4
38776,72569,6
38770,72568,4
38774,72572,5
38790,72573,5
38785,72595,4
38775,72598,5
38781,72583,5
38786,72579,5
38782,72585,5
38781,72582,4
38772,72594,5
38783,72584,5
38778,72587,5
38774,72579,5
38792,72587,4
38779,72587,5
38790,72585,5
38791,72578,5
38773,72586,4
38782,72574,4
38790,72587,5
38786,72593,5
38792,72597,4
38799,72593,4
38801,72623,5
38796,72636,5
38802,72633,5
38819,72644,5
38811,72658,4
38825,72673,5
38824,72677,5
38835,72695,5
38840,72693,5
38842,72701,4
38848,72721,5
38855,72743,5
38854,72717,5
38853,72731,5
38854,72737,4
38865,72747,5
38853,72727,5
38860,72728,5
38855,72723,5
38854,72728,4
38849,72707,5
38844,72704,5
38841,72697,6
38829,72679,3
38833,72674,5
38811,72657,5
38822,72650,5
38807,72639,5
38814,72641,4
38814,72636,5
38805,72634,5
38811,72649,5
38808,72638,5
38809,72651,4
38818,72647,5
38816,72648,5
38820,72649,5
38813,72666,5
38821,72666,4
38820,72670,5
38825,72670,5
38815,72655,5
38810,72628,4
38792,72586,5
38783,72571,4
38763,72555,5
38752,72531,5
38749,72513,6
38739,72507,3
38740,72512,5
38739,72495,5
38724,72489,5
38727,72494,4
38725,72483,5
38726,72478,5
38721,72474,5
38721,72476,5
38716,72471,4
38720,72467,5
38716,72463,5
38706,72464,5
38713,72474,5
38712,72462,4
38709,72451,5
38713,72454,5
38705,72452,5
38717,72442,4
38703,72440,4
38709,72442,6
38697,72437,4
38703,72428,5
38699,72432,4
38699,72422,5
38699,72422,5
38697,72430,5
38703,72424,5
38704,72444,4
38702,72439,5
38703,72440,5
38701,72441,5
38696,72441,5
38703,72437,4
38698,72436,5
38692,72432,5
38701,72419,5
38691,72429,5
38690,72418,4
38688,72424,5
38692,72418,5
38694,72425,5
38699,72427,4
38687,72419,4
38689,72419,5
38687,72417,6
38689,72421,4
38691,72418,4
38691,72418,5
38695,72417,5
38690,72429,5
38688,72429,5
38696,72432,4
38699,72432,5
38706,72443,5
38699,72443,5
38695,72440,5
38705,72448,4
38712,72442,5
38705,72447,5
38692,72449,5
38701,72456,5
38713,72448,4
38714,72458,5
38686,72459,5
38709,72448,5
38710,72456,5
38710,72447,4
38703,72453,5
38713,72460,5
38709,72463,6
38703,72450,3
38728,72453,5
38707,72465,5
38714,72458,5
38718,72462,5
38720,72458,4
38709,72456,5
38702,72447,5
38710,72448,5
38721,72451,5
38694,72438,4
38698,72434,5
38680,72412,5
38679,72389,5
38665,72371,5
38658,72356,4
38651,72334,5
38636,72321,5
38637,72322,5
38633,72320,4
38643,72324,5
38648,72334,4
38647,72354,5
38655,72375,5
38655,72374,4
38665,72367,5
38670,72385,5
38678,72404,5
38681,72408,5
38676,72406,4
38683,72414,5
38679,72410,5
38688,72408,5
38691,72428,5
38691,72422,4
38686,72408,5
38678,72384,5
38662,72365,5
38627,72308,5
38620,72282,4
38613,72265,5
38598,72252,5
38587,72228,5
38586,72214,4
38582,72215,4
38581,72207,6
38576,72205,4
38580,72202,5
38571,72192,4
38570,72192,5
38562,72197,5
38570,72184,5
38569,72189,5
38563,72185,4
38560,72190,5
38555,72177,5
38562,72176,5
38557,72170,5
38560,72174,4
38554,72163,5
38565,72161,5
38560,72171,5
38551,72161,5
38552,72178,4
38557,72160,5
38555,72176,5
38561,72170,5
38563,72178,4
38561,72167,4
38566,72175,5
38554,72182,6
38564,72196,4
38574,72197,4
38570,72204,5
38580,72201,5
38577,72199,5
38570,72209,5
38578,72212,4
38572,72203,5
38573,72206,5
38575,72212,5
38574,72214,5
38583,72218,4
38581,72221,5
38580,72220,5
38582,72213,5
38584,72224,5
38577,72226,4
38583,72227,5
38584,72229,5
38591,72231,5
38597,72241,5
38598,72242,4
38595,72258,5
38601,72250,5
38602,72266,5
38605,72268,4
38605,72286,5
38622,72281,5
38621,72285,5
38623,72292,5
38631,72313,4
38628,72305,5
38631,72316,5
38631,72309,5
38640,72311,5
38628,72323,4
38638,72317,5
38633,72318,5
38637,72331,5
38643,72327,5
38638,72335,4
38637,72337,5
38639,72340,5
38640,72325,5
38642,72336,4
38635,72336,5
38638,72334,4
38632,72324,5
38639,72327,5
38632,72322,4
38644,72320,5
38633,72317,5
38629,72311,5
38624,72307,5
38624,72303,4
38631,72309,5
38628,72307,5
38631,72305,5
38639,72309,5
38632,72320,4
38631,72317,5
38636,72313,5
38631,72316,5
38618,72322,5
38628,72321,4
38639,72333,5
38636,72325,5
38616,72334,5
38642,72335,4
38638,72341,4
38632,72338,6
38632,72336,4
38639,72338,5
38646,72350,4
38646,72354,5
38663,72354,5
38640,72353,5
38651,72355,5
38646,72361,4
38669,72357,5
38642,72358,5
38647,72351,5
38652,72348,5
38665,72357,4
38640,72357,5
38650,72357,5
38644,72355,5
38648,72349,5
38650,72352,4
38649,72349,5
38650,72352,5
38647,72347,5
38647,72356,4
38642,72354,5
38650,72353,5
38646,72345,5
38642,72352,5
38645,72349,4
38650,72354,5
38647,72331,5
38637,72328,5
38626,72318,5
38631,72315,4
38618,72292,5
38619,72286,5
38602,72283,5
38605,72269,5
38609,72282,4
38600,72262,5
38602,72262,5
38604,72255,5
38595,72292,5
38613,72280,4
38610,72284,5
38614,72306,5
38626,72332,5
38640,72337,5
38643,72348,4
38641,72365,5
38657,72371,5
38655,72366,5
38650,72362,6
38651,72362,3
38647,72357,5
38637,72330,5
38625,72312,5
38594,72259,4
38575,72214,5
38561,72198,5
38550,72181,5
38553,72154,5
38541,72147,4
38538,72158,5
38541,72170,5
38552,72164,5
38543,72164,5
38543,72159,4
38555,72156,5
38547,72158,4
38553,72168,5
38548,72179,4
38564,72193,6
38556,72192,3
38564,72193,5
38563,72198,5
38575,72202,4
38571,72202,5
38565,72209,5
38560,72210,5
38577,72211,5
38577,72211,4
38571,72205,5
38568,72205,5
38570,72200,5
38571,72209,5
38557,72190,4
38562,72200,5
38570,72193,5
38559,72185,5
38563,72189,5
38570,72192,4
38563,72199,5
38575,72206,6
38566,72199,4
38560,72203,4
38578,72204,5
38572,72201,5
38572,72200,5
38571,72203,5
38565,72194,4
38571,72196,5
38566,72204,5
38574,72203,5
38569,72212,5
38571,72213,4
38580,72214,5
38577,72228,5
38581,72224,5
38581,72236,5
38584,72239,4
38584,72251,5
38585,72247,5
38602,72253,5
38595,72263,5
38610,72267,4
38604,72286,5
38608,72284,5
38618,72291,6
38614,72299,3
38615,72306,5
38620,72313,5
38630,72310,5
38631,72309,5
38626,72318,4
38622,72323,5
38630,72331,5
38626,72326,5
38632,72322,5
38632,72322,4
38623,72318,5
38631,72323,5
38631,72321,5
38633,72310,5
38628,72322,4
38617,72315,5
38637,72314,5
38628,72310,5
38627,72309,5
38607,72318,5
38629,72321,4
38620,72315,5
38629,72318,5
38610,72322,6
38624,72322,3
38636,72324,5
38635,72330,5
38628,72320,5
38639,72330,4
38639,72333,5
38635,72333,5
38653,72335,5
38644,72330,5
38638,72340,4
38639,72342,5
38656,72336,5
38629,72343,5
38635,72335,5
38641,72342,4
38650,72344,5
38639,72338,5
38631,72335,5
38644,72346,5
38641,72340,4
38652,72347,6
38630,72343,4
38637,72341,5
38636,72336,4
38635,72337,5
38636,72325,5
38638,72324,5
38627,72294,5
38625,72302,4
38618,72292,5
38608,72285,5
38599,72254,5
38606,72275,5
38604,72264,4
38605,72273,5
38603,72266,5
38603,72268,5
38595,72266,5
38606,72276,4
38617,72310,5
38618,72305,5
38630,72322,5
38636,72325,5
38641,72353,4
38636,72347,5
38640,72354,6
38643,72341,4
38637,72353,4
38640,72331,5
38630,72323,5
38632,72322,5
38628,72316,5
38613,72281,4
38587,72245,5
38579,72221,5
38575,72202,5
38560,72191,5
38553,72181,4
38562,72183,5
38563,72187,5
38558,72195,5
38568,72207,5
38575,72205,4
38567,72216,5
38569,72217,5
38575,72217,5
38582,72227,5
38582,72231,4
38586,72228,5
38585,72240,5
38575,72236,6
38587,72248,3
38592,72238,5
38579,72235,5
38576,72233,5
38579,72226,5
38580,72228,4
38573,72228,5
38579,72217,5
38573,72225,5
38578,72221,5
38569,72220,4
38573,72223,5
38574,72218,5
38582,72213,5
38585,72235,5
38576,72232,4
38579,72243,5
38580,72233,5
38579,72235,5
38587,72228,5
38592,72239,5
38592,72239,4
38595,72240,5
38597,72245,5
38591,72244,4
38586,72245,5
38600,72252,5
38596,72256,5
38596,72258,5
38596,72263,4
38607,72262,5
38602,72270,5
38607,72273,5
38612,72290,5
38609,72300,4
38620,72305,5
38626,72313,5
38630,72315,5
38636,72331,5
38643,72339,4
38642,72355,5
38657,72350,5
38657,72370,5
38656,72383,4
38666,72383,4
38660,72389,6
38674,72393,4
38678,72407,5
38668,72413,4
38678,72407,5
38679,72418,5
38676,72416,5
38685,72418,5
38684,72420,4
38671,72419,5
38683,72420,5
38681,72416,5
38675,72412,5
38681,72418,4
38670,72409,5
38676,72408,5
38670,72409,5
38667,72392,5
38665,72393,4
38660,72381,5
38652,72380,5
38657,72371,5
38647,72366,4
38645,72360,4
38639,72353,5
38641,72344,6
38636,72339,4
38631,72341,4
38621,72337,5
38640,72336,5
38642,72354,5
38639,72358,5
38636,72362,4
38655,72372,5
38653,72375,5
38655,72397,5
38680,72390,5
38665,72385,4
38665,72394,5
38667,72400,5
38688,72403,5
38669,72398,5
38670,72393,4
38663,72403,5
38683,72401,5
38671,72390,5
38654,72364,5
38636,72340,4
38629,72314,5
38620,72306,5
38619,72293,5
38608,72286,4
38614,72301,5
38624,72300,5
38620,72311,5
38618,72306,5
38630,72293,4
38624,72322,5
38629,72327,5
38634,72327,5
38629,72318,5
38639,72342,4
38646,72339,5
38638,72351,5
38638,72345,5
38642,72346,5
38643,72350,4
38639,72344,5
38639,72356,5
38636,72334,5
38631,72345,4
38633,72340,5
38629,72346,4
38628,72331,5
38629,72320,5
38627,72321,4
38627,72325,5
38629,72325,5
38632,72323,5
38640,72342,5
38636,72331,4
38636,72338,5
38636,72338,5
38638,72331,5
38636,72330,5
38632,72336,4
38640,72333,5
38632,72341,5
38628,72339,5
38642,72337,5
38636,72345,4
38650,72350,5
38636,72345,5
38644,72350,5
38643,72350,4
38651,72352,4
38650,72366,6
38645,72364,4
38654,72380,5
38662,72386,4
38669,72388,5
38664,72403,5
38679,72424,5
38690,72430,5
38693,72448,4
38701,72461,5
38707,72476,5
38712,72480,5
38714,72481,5
38723,72507,4
38727,72511,5
38723,72515,5
38732,72512,5
38725,72521,5
38743,72529,4
38736,72527,5
38740,72533,5
38730,72523,5
38731,72517,4
38730,72527,4
38731,72511,5
38723,72497,5
38723,72498,5
38713,72489,4
38716,72482,5
38706,72471,5
38705,72460,5
38705,72461,5
38701,72452,4
38707,72461,5
38703,72464,5
38707,72471,5
38712,72492,5
38731,72501,4
38728,72503,5
38734,72511,5
38735,72508,5
38730,72528,5
38743,72522,4
38735,72525,4
38733,72535,5
38740,72535,5
38738,72532,5
38738,72526,3
38737,72512,5
38715,72469,5
38702,72445,5
38684,72424,4
38674,72411,5
38665,72392,5
38660,72381,5
38669,72379,5
38664,72386,4
38665,72394,5
38664,72400,5
38674,72400,5
38666,72404,5
38684,72418,4
38681,72417,5
38688,72437,5
38687,72432,5
38689,72436,5
38684,72441,4
38700,72447,6
38699,72452,4
38694,72454,5
38699,72464,4
38704,72460,6
38698,72454,3
38682,72452,5
38703,72456,5
38694,72446,4
38700,72448,5
38682,72443,5
38700,72449,5
38687,72450,5
38699,72442,4
38682,72455,5
38711,72468,5
38703,72472,5
38704,72466,5
38713,72463,4
38710,72459,5
38696,72461,5
38705,72453,5
38718,72458,5
38697,72462,4
38700,72460,5
38709,72455,6
38710,72457,4
38710,72459,4
38705,72461,4
38701,72463,5
38706,72470,5
38713,72469,5
38703,72479,4
38721,72488,5
38720,72495,5
38731,72504,5
38730,72509,5
38738,72532,4
38743,72532,5
38755,72554,5
38761,72554,5
38766,72574,5
38762,72566,4
38769,72589,5
38769,72605,5
38782,72609,5
38790,72617,8
38800,72621,2
38783,72629,4
38796,72628,5
38789,72639,6
38798,72636,3
38800,72636,4
38796,72633,5
38788,72647,5
38788,72616,5
38783,72614,4
38777,72604,5
38776,72615,5
38770,72580,5
38764,72575,5
38758,72567,4
38767,72576,5
38768,72577,5
38768,72579,5
38775,72588,5
38768,72601,4
38777,72612,5
38779,72619,5
38789,72635,5
38791,72641,5
38798,72656,5
38811,72659,4
38815,72669,5
38815,72677,5
38811,72670,6
38812,72663,3
38805,72649,5
38785,72617,5
38773,72579,5
38759,72563,4
38745,72546,5
38734,72533,5
38736,72530,5
38731,72519,5
38737,72518,4
38736,72518,5
38738,72519,5
38727,72520,5
38737,72519,5
38735,72515,4
38731,72520,5
38736,72523,5
38739,72519,5
38738,72520,5
38738,72522,4
38744,72527,6
38735,72541,4
38739,72540,5
38741,72533,4
38740,72532,4
38747,72540,5
38739,72542,5
38744,72545,5
38749,72543,4
38747,72545,5
38744,72557,5
38745,72552,5
38755,72552,5
38760,72556,4
38759,72561,5
38760,72574,5
38765,72573,5
38759,72577,5
38770,72577,4
38764,72584,5
38767,72574,5
38762,72576,5
38760,72572,5
38758,72565,4
38755,72570,5
38763,72578,6
38758,72568,4
38766,72568,4
38761,72568,4
38760,72566,5
38756,72557,5
38751,72562,5
38763,72571,4
38752,72571,5
38758,72567,5
38762,72574,5
38772,72583,5
38769,72586,4
38776,72590,5
38775,72602,5
38781,72596,5
38783,72610,5
38786,72612,4
38788,72616,5
38794,72625,5
38790,72633,5
38795,72634,5
38788,72627,4
38790,72638,5
38799,72637,5
38789,72630,6
38790,72635,3
38785,72631,4
38794,72625,5
38789,72623,5
38773,72624,5
38792,72611,4
38777,72604,5
38775,72591,5
38752,72570,5
38764,72566,5
38753,72560,4
38751,72550,5
38745,72544,5
38743,72547,5
38743,72556,5
38742,72546,4
38761,72555,5
38747,72548,5
38752,72563,5
38749,72563,5
38779,72569,5
38757,72562,4
38763,72558,5
38757,72577,5
38783,72586,4
38770,72581,4
38762,72576,5
38747,72554,5
38742,72514,5
38717,72490,4
38708,72471,5
38685,72444,5
38691,72420,5
38677,72414,5
38672,72408,4
38674,72409,5
38675,72384,5
38667,72388,5
38654,72382,5
38658,72375,4
38657,72356,5
38657,72377,5
38646,72370,5
38650,72359,5
38644,72354,4
38654,72358,6
38635,72360,4
38644,72344,5
38639,72356,4
38637,72337,4
38638,72337,5
38635,72324,5
38621,72339,5
38623,72308,4
38622,72300,5
38619,72299,5
38624,72309,5
38604,72289,5
38610,72288,4
38608,72287,5
38615,72298,5
38613,72299,5
38617,72305,5
38618,72311,4
38616,72302,5
38627,72302,5
38608,72309,5
38606,72301,5
38609,72290,4
38602,72294,5
38613,72304,6
38607,72295,4
38608,72290,5
38605,72291,4
38603,72286,5
38612,72277,5
38603,72269,5
38594,72272,4
38591,72268,5
38600,72269,5
38589,72264,5
38599,72274,5
38600,72264,4
38598,72279,5
38603,72282,5
38606,72274,5
38611,72289,5
38604,72286,4
38607,72292,5
38613,72299,5
38616,72295,5
38616,72300,5
38615,72306,4
38628,72311,5
38610,72320,5
38621,72317,5
38625,72313,5
38620,72314,4
38625,72313,5
38624,72322,5
38626,72333,5
38627,72314,4
38623,72322,5
38629,72327,5
38629,72318,5
38621,72314,5
38621,72318,4
38623,72322,5
38621,72327,5
38614,72324,5
38625,72305,5
38622,72307,4
38614,72306,5
38618,72307,5
38611,72305,5
38616,72308,5
38609,72303,5
38615,72304,4
38618,72309,5
38610,72307,5
38616,72307,5
38612,72310,4
38605,72306,5
38609,72309,5
38618,72313,5
38604,72308,4
38612,72298,5
38606,72302,5
38611,72303,5
38612,72301,5
38603,72298,4
38609,72290,5
38606,72292,5
38607,72293,5
38603,72284,5
38606,72286,4
38606,72292,5
38593,72280,5
38597,72279,5
38594,72279,5
38602,72278,4
38597,72273,6
38598,72258,4
38588,72260,5
38579,72230,5
38570,72216,4
38554,72181,5
38534,72165,5
38531,72143,5
38522,72135,4
38523,72141,5
38517,72138,5
38533,72158,5
38516,72168,5
38534,72163,4
38540,72183,5
38547,72197,5
38547,72218,5
38567,72234,5
38584,72237,4
38585,72253,5
38593,72265,5
38596,72276,5
38604,72287,5
38604,72290,4
38613,72286,5
38588,72260,5
38574,72225,5
38549,72175,5
38545,72151,4
38532,72134,5
38508,72110,5
38507,72103,5
38508,72094,4
38503,72092,5
38492,72082,5
38487,72080,5
38489,72073,5
38495,72071,4
38486,72081,5
38494,72075,5
38483,72060,5
38493,72072,5
38496,72076,5
38482,72084,4
38495,72061,5
38494,72084,5
38500,72082,6
38493,72083,3
38494,72065,5
38494,72074,5
38493,72070,5
38487,72072,5
38491,72085,4
38490,72074,5
38499,72069,5
38486,72068,5
38482,72083,4
38487,72078,4
38482,72062,5
38480,72064,5
38491,72084,5
38489,72087,4
38496,72080,5
38497,72091,5
38487,72089,5
38500,72087,5
38501,72090,4
38493,72083,6
38495,72085,4
38494,72081,5
38504,72094,5
38498,72086,6
38503,72091,3
38502,72091,5
38505,72101,5
38508,72096,5
38505,72104,4
38511,72120,5
38510,72114,5
38510,72125,5
38519,72126,4
38522,72138,4
38521,72146,5
38521,72158,5
38530,72162,5
38541,72174,4
38533,72173,5
38533,72185,5
38551,72190,5
38555,72201,5
38554,72202,4
38561,72209,5
38559,72221,6
38560,72231,4
38574,72235,5
38575,72242,4
38583,72241,5
38574,72245,5
38575,72235,5
38581,72249,5
38579,72250,4
38587,72249,5
38580,72254,5
38581,72249,5
38582,72258,4
38579,72252,4
38582,72254,5
38582,72250,5
38583,72243,5
38584,72243,4
38582,72251,5
38586,72243,5
38575,72244,5
38577,72231,5
38577,72239,4
38583,72242,5
38577,72239,5
38580,72241,6
38578,72236,4
38576,72247,4
38574,72238,5
38578,72232,5
38575,72242,5
38573,72246,5
38580,72243,4
38577,72240,5
38579,72234,5
38577,72233,5
38572,72235,4
38569,72220,4
38563,72216,5
38556,72200,5
38555,72198,5
38549,72196,4
38553,72196,5
38556,72197,5
38557,72205,5
38570,72217,5
38566,72226,5
38571,72237,4
38581,72243,5
38582,72259,5
38579,72280,6
38598,72277,3
38605,72291,5
38604,72284,5
38605,72295,5
38607,72305,5
38602,72306,4
38599,72307,5
38607,72292,5
38605,72285,5
38593,72264,4
38565,72229,4
38549,72193,5
38546,72170,5
38539,72163,5
38512,72139,4
38523,72137,5
38519,72144,5
38524,72141,5
38501,72138,5
38520,72138,4
38516,72138,6
38524,72143,4
38532,72140,5
38532,72144,5
38525,72142,4
38527,72154,5
38552,72151,5
38534,72154,5
38531,72156,5
38536,72157,4
38547,72151,5
38529,72162,5
38533,72158,5
38528,72154,6
38534,72152,3
38528,72150,5
38530,72158,5
38529,72158,5
38528,72151,4
38532,72156,5
38531,72149,5
38530,72150,5
38532,72139,5
38538,72151,4
38545,72168,5
38532,72162,6
38535,72137,4
38527,72150,5
38533,72164,4
38528,72154,5
38526,72140,5
38534,72159,5
38528,72145,5
38528,72145,4
38529,72160,5
38531,72153,5
38533,72159,5
38530,72163,4
38532,72170,4
38538,72170,5
38535,72173,5
38541,72175,5
38541,72201,4
38536,72181,5
38544,72185,5
38538,72194,5
38555,72205,5
38555,72216,4
38559,72224,5
38564,72222,5
38577,72239,6
38575,72250,4
38585,72252,4
38587,72255,5
38586,72279,5
38597,72287,5
38598,72291,5
38602,72289,4
38601,72301,5
38607,72299,5
38609,72299,5
38600,72304,4
38610,72296,5
38617,72294,5
38601,72300,5
38612,72297,5
38607,72302,4
38607,72307,5
38607,72300,5
38598,72295,5
38603,72291,5
38601,72296,5
38602,72287,4
38599,72292,5
38600,72277,5
38600,72290,5
38599,72289,4
38602,72282,5
38599,72286,5
38601,72283,5
38604,72277,5
38602,72282,4
38597,72285,5
38600,72283,5
38604,72289,5
38604,72290,4
38594,72290,4
38603,72285,5
38595,72287,5
38595,72283,5
38589,72275,4
38588,72269,5
38588,72263,5
38580,72252,5
38579,72252,5
38581,72250,4
38584,72244,6
38584,72254,4
38587,72257,5
38591,72262,5
38594,72274,4
38596,72287,5
38604,72295,5
38605,72308,5
38609,72306,5
38608,72308,4
38610,72313,5
38614,72316,5
38609,72299,5
38607,72296,4
38607,72305,4
38613,72307,5
38608,72283,5
38592,72276,5
38584,72245,4
38564,72207,5
38549,72186,5
38544,72181,5
38533,72159,5
38540,72168,4
38536,72155,5
38531,72164,6
38529,72168,4
38537,72164,5
38544,72168,4
38541,72172,5
38553,72181,5
38541,72192,5
38549,72191,5
38560,72206,4
38555,72206,5
38564,72200,5
38564,72219,5
38564,72214,4
38558,72217,4
38553,72215,5
38552,72203,5
38562,72207,5
38553,72203,4
38538,72199,5
38556,72206,5
38554,72195,5
38554,72197,5
38535,72186,4
38549,72185,5
38547,72186,5
38551,72192,5
38548,72186,5
38552,72203,4
38557,72196,5
38549,72191,5
38562,72199,5
38538,72193,5
38549,72188,4
38554,72192,5
38572,72197,5
38546,72188,5
38550,72193,4
38555,72190,4
38558,72195,5
38562,72202,5
38550,72213,5
38556,72219,4
38567,72223,5
38566,72232,5
38575,72235,5
38582,72245,5
38581,72245,5
38588,72263,4
38586,72275,5
38594,72281,5
38594,72276,5
38604,72295,4
38619,72310,5
38617,72324,5
38623,72307,5
38622,72336,5
38630,72338,4
38626,72340,5
38634,72358,5
38634,72361,5
38645,72365,4
38634,72369,4
38638,72379,5
38643,72373,5
38639,72367,5
38647,72379,4
38652,72392,5
38638,72382,5
38644,72373,5
38649,72382,5
38646,72381,4
38642,72375,6
38644,72360,4
38639,72356,5
38629,72358,5
38625,72337,4
38621,72338,5
38619,72332,5
38621,72325,5
38626,72315,5
38621,72317,4
38625,72312,5
38617,72311,5
38615,72326,5
38627,72326,4
38622,72338,4
38633,72345,5
38641,72352,5
38635,72369,5
38639,72374,4
38649,72377,5
38655,72380,5
38648,72386,6
38650,72395,4
38654,72387,4
38657,72396,5
38647,72387,5
38648,72391,5
38653,72384,5
38650,72370,4
38628,72328,5
38619,72300,5
38604,72286,5
38592,72268,5
38590,72262,4
38586,72252,5
38584,72259,5
38588,72260,5
38585,72268,4
38591,72268,4
38599,72280,5
38594,72286,5
38611,72296,5
38603,72309,5
38609,72310,4
38615,72311,5
38607,72322,5
38616,72327,6
38624,72328,3
38620,72337,5
38630,72334,5
38619,72337,5
38625,72329,5
38626,72333,4
38627,72332,5
38620,72332,5
38612,72318,5
38607,72320,5
38612,72308,4
38616,72305,5
38610,72309,5
38612,72310,5
38603,72309,4
38610,72315,4
38608,72314,5
38607,72300,5
38604,72300,5
38608,72296,4
38603,72298,6
38612,72303,4
38610,72300,5
38609,72302,5
38608,72302,6
38608,72305,3
38604,72301,5
38604,72311,5
38624,72309,5
38620,72324,4
38624,72326,5
38617,72339,5
38630,72351,5
38631,72358,5
38637,72364,4
38651,72376,5
38658,72396,5
38657,72407,10
38664,72416,9
38674,72425,5
38672,72445,8
38684,72424,5
38693,72440,5
38695,72475,8
38716,72500,5
38716,72500,5
38708,72508,5
38710,72506,8
38719,72510,5
38714,72506,5
38713,72516,8
38719,72510,5
38705,72496,5
38706,72443,8
38717,72482,5
38696,72489,5
38701,72475,5
38676,72437,8
38676,72437,5
38696,72444,5
38681,72436,8
38677,72450,5
38696,72445,5
38688,72458,5
38678,72467,8
38697,72468,5
38704,72494,5
38718,72493,8
38719,72512,5
38706,72514,5
38712,72521,5
38718,72504,8
38718,72504,5
38738,72499,5
38703,72466,8
38685,72450,5
38675,72411,5
38659,72402,8
38657,72399,5
38656,72401,5
38660,72419,5
38658,72399,8
38657,72405,5
38669,72411,5
38680,72451,8
38680,72451,5
38672,72445,5
38661,72454,5
38676,72451,8
38686,72463,5
38698,72467,5
38697,72478,8
38688,72450,5
38691,72457,5
38700,72464,8
38705,72470,5
38698,72472,5
38690,72467,5
38712,72491,8
38712,72491,5
38715,72506,5
38713,72512,8
38711,72517,5
38701,72500,5
38706,72485,5
38711,72501,8
38720,72498,5
38724,72503,5
38703,72478,8
38710,72500,5
38717,72490,5
38712,72504,5
38711,72507,8
38711,72507,5
38719,72490,5
38719,72488,8
38698,72467,5
38729,72532,5
38762,72536,8
38728,72545,5
38715,72543,5
38747,72556,5
38760,72579,8
38757,72594,5
38763,72601,5
38791,72650,8
38791,72650,5
38797,72649,5
38798,72670,5
38812,72669,8
38803,72666,5
38804,72673,5
38797,72671,8
38801,72669,5
38808,72694,5
38791,72666,8
38799,72640,5
38800,72646,5
38792,72649,5
38775,72616,8
38775,72616,5
38780,72620,5
38775,72624,8
38779,72629,5
38778,72641,5
38793,72672,5
38791,72669,8
38795,72633,5
38804,72639,5
38792,72665,8
38800,72676,5
38800,72676,5
38802,72661,8
38784,72626,5
38766,72607,5
38757,72589,5
38759,72570,8
38762,72570,5
38754,72572,5
38746,72531,8
38745,72567,5
38748,72562,5
38743,72547,10
38743,72547,8
38730,72561,5
38747,72532,3
38747,72558,0
38745,72553,3
38734,72557,5
38742,72558,5
38754,72558,5
38747,72549,5
38754,72557,4
38743,72559,5
38735,72553,5
38748,72556,5
38766,72560,5
38737,72554,4
38749,72546,5
38740,72550,5
38757,72557,5
38745,72554,4
38748,72566,6
38755,72577,4
38750,72563,5
38750,72564,5
38755,72566,4
38748,72571,5
38741,72558,5
38748,72574,5
38749,72563,5
38745,72568,4
38744,72549,5
38757,72576,5
38741,72565,5
38747,72553,5
38743,72550,4
38748,72566,5
38749,72554,5
38747,72557,5
38747,72555,5
38741,72561,4
38746,72561,5
38754,72561,5
38749,72585,5
38751,72573,4
38748,72562,5
38750,72574,6
38751,72601,4
38746,72574,5
38754,72572,4
38757,72585,5
38752,72594,5
38758,72582,5
38752,72579,5
38747,72572,4
38753,72582,5
38766,72578,5
38758,72569,5
38751,72581,5
38758,72576,4
38758,72578,5
38751,72573,5
38746,72575,5
38747,72575,5
38755,72561,4
38747,72565,5
38746,72561,5
38750,72559,5
38753,72560,4
38746,72569,5
38748,72559,5
38751,72560,5
38741,72559,5
38747,72559,4
38750,72557,5
38747,72553,5
38740,72561,5
38741,72552,5
38740,72535,4
38735,72543,5
38732,72535,5
38733,72528,5
38722,72513,5
38707,72507,4
38702,72491,5
38697,72468,5
38684,72438,5
38676,72435,5
38670,72417,4
38668,72399,5
38656,72385,5
38652,72395,5
38661,72388,5
38662,72406,4
38661,72408,5
38665,72415,5
38675,72417,5
38674,72425,4
38668,72415,5
38676,72428,5
38673,72439,5
38675,72435,5
38679,72439,4
38687,72444,5
38682,72437,5
38678,72448,5
38682,72446,5
38677,72424,4
38651,72383,5
38630,72335,5
38621,72321,5
38605,72286,5
38585,72259,4
38573,72244,6
38576,72235,4
38568,72216,5
38557,72220,4
38555,72205,6
38556,72205,3
38548,72197,5
38557,72186,5
38542,72176,4
38541,72184,5
38547,72176,5
38542,72181,5
38542,72175,5
38541,72178,4
38542,72165,5
38533,72169,5
38530,72162,5
38529,72157,5
38523,72142,4
38535,72146,5
38528,72150,5
38528,72152,5
38521,72142,5
38518,72137,4
38530,72142,5
38521,72147,6
38525,72138,4
38521,72143,4
38526,72146,4
38534,72150,5
38537,72168,5
38529,72179,5
38534,72177,4
38547,72164,5
38542,72161,5
38532,72167,5
38537,72178,5
38542,72174,4
38538,72166,5
38527,72157,5
38538,72163,5
38534,72154,5
38538,72172,4
38545,72158,5
38530,72165,5
38533,72153,5
38535,72158,5
38554,72167,4
38533,72162,5
38537,72162,5
38530,72168,6
38550,72164,3
38535,72172,4
38542,72179,5
38543,72175,5
38553,72184,5
38554,72187,4
38543,72190,5
38559,72201,5
38559,72205,5
38554,72212,5
38552,72212,4
38564,72205,5
38567,72203,5
38562,72215,5
38559,72220,5
38566,72215,4
38571,72211,5
38569,72228,5
38573,72227,5
38567,72226,5
38563,72225,5
38580,72234,4
38570,72224,5
38567,72231,5
38576,72252,6
38571,72227,3
38569,72227,5
38562,72219,5
38573,72240,5
38562,72223,4
38564,72219,5
38567,72225,5
38561,72238,5
38559,72222,5
38570,72229,4
38559,72225,5
38569,72229,5
38556,72223,5
38566,72215,5
38563,72217,4
38566,72214,5
38565,72212,5
38558,72204,5
38552,72200,5
38550,72193,4
38544,72176,6
38533,72155,4
38526,72141,5
38517,72140,4
38521,72128,4
38516,72132,5
38509,72121,5
38525,72134,5
38519,72142,4
38520,72148,5
38538,72157,5
38539,72171,5
38538,72178,5
38543,72180,4
38547,72185,5
38553,72201,5
38555,72205,5
38546,72199,5
38560,72204,4
38559,72203,5
38567,72217,5
38566,72209,5
38556,72203,5
38549,72185,4
38540,72156,5
38512,72121,6
38500,72084,4
38484,72068,4
38471,72054,4
38470,72039,5
38468,72036,5
38459,72025,5
38464,72037,4
38462,72026,5
38471,72045,5
38473,72044,5
38476,72040,5
38473,72044,4
38473,72041,5
38471,72050,5
38469,72058,5
38475,72058,5
38478,72050,4
38481,72053,5
38487,72053,5
38479,72054,5
38475,72046,5
38473,72046,4
38475,72036,5
38462,72037,5
38467,72036,6
38470,72029,3
38463,72034,4
38473,72030,5
38471,72025,5
38455,72019,5
38460,72026,4
38456,72023,5
38471,72038,5
38464,72030,5
38465,72030,5
38465,72029,4
38463,72027,5
38462,72020,5
38461,72025,5
38461,72020,5
38457,72032,4
38468,72021,5
38462,72037,5
38466,72035,5
38474,72041,5
38472,72049,5
38480,72062,4
38475,72063,5
38466,72060,5
38489,72073,5
38492,72082,4
38502,72085,5
38498,72098,5
38492,72100,5
38488,72103,4
38514,72109,5
38517,72124,5
38516,72127,5
38505,72137,5
38526,72150,4
38536,72153,5
38535,72165,5
38526,72169,5
38544,72179,5
38541,72184,4
38549,72180,5
38555,72181,5
38537,72183,5
38564,72192,5
38553,72194,4
38562,72205,6
38546,72198,4
38554,72198,5
38552,72199,5
38562,72189,4
38548,72200,5
38553,72193,5
38546,72199,5
38552,72192,4
38541,72189,5
38545,72193,5
38546,72184,5
38543,72178,5
38547,72187,4
38543,72184,5
38545,72179,5
38550,72172,5
38549,72182,5
38550,72186,4
38536,72182,5
38560,72170,5
38546,72192,5
38549,72192,5
38548,72201,4
38553,72186,5
38545,72197,6
38547,72206,4
38557,72194,5
38551,72219,4
38554,72210,5
38553,72204,5
38556,72211,5
38551,72224,4
38551,72198,5
38550,72187,5
38541,72171,5
38538,72187,5
38539,72170,4
38526,72160,5
38531,72162,5
38536,72175,5
38539,72167,5
38541,72185,4
38549,72193,5
38555,72195,5
38551,72211,5
38566,72232,5
38569,72242,4
38574,72246,5
38586,72255,5
38577,72257,5
38585,72255,5
38580,72248,4
38589,72253,5
38589,72258,5
38576,72260,5
38582,72244,4
38572,72219,5
38563,72199,5
38524,72151,5
38516,72132,5
38512,72122,4
38495,72107,5
38501,72097,5
38499,72094,5
38504,72101,5
38504,72102,4
38508,72091,5
38501,72104,5
38507,72099,5
38506,72108,5
38506,72107,5
38514,72113,4
38514,72123,5
38510,72115,5
38514,72126,5
38510,72132,4
38509,72134,5
38512,72132,5
38516,72131,5
38510,72126,4
38510,72122,5
38514,72118,5
38510,72122,5
38503,72119,5
38509,72121,4
38515,72119,5
38509,72124,5
38503,72119,5
38506,72111,5
38506,72114,4
38512,72128,5
38519,72129,5
38516,72125,5
38512,72122,5
38517,72124,4
38504,72121,6
38518,72130,4
38510,72125,5
38520,72134,5
38505,72134,4
38521,72140,5
38516,72138,5
38523,72149,5
38521,72154,4
38529,72157,5
38542,72154,5
38541,72167,5
38542,72172,5
38534,72186,4
38546,72194,5
38555,72208,5
38559,72200,5
38557,72219,7
38566,72218,2
38567,72223,5
38569,72244,5
38568,72246,5
38570,72257,5
38575,72263,4
38583,72266,5
38599,72272,5
38597,72272,5
38594,72273,5
38599,72295,4
38593,72293,5
38612,72299,5
38605,72292,5
38610,72307,4
38595,72311,5
38616,72308,5
38602,72312,5
38612,72315,5
38591,72320,4
38608,72304,5
38614,72301,5
38609,72316,5
38598,72301,5
38608,72307,5
38608,72299,4
38606,72303,5
38608,72298,5
38605,72301,6
38602,72300,3
38596,72288,5
38621,72292,5
38605,72295,5
38597,72300,5
38596,72296,4
38623,72298,5
38605,72307,5
38601,72304,5
38606,72294,4
38605,72306,5
38606,72291,5
38603,72305,5
38596,72290,5
38608,72292,4
38602,72296,5
38603,72289,5
38595,72286,5
38603,72266,5
38587,72272,4
38583,72276,6
38598,72273,4
38594,72262,5
38594,72290,5
38600,72310,6
38608,72311,3
38618,72313,5
38612,72332,5
38623,72343,5
38630,72355,4
38629,72369,5
38639,72366,5
38642,72365,5
38640,72356,4
38631,72380,5
38627,72358,5
38633,72363,5
38636,72347,5
38621,72348,4
38604,72290,5
38589,72261,5
38566,72245,5
38566,72229,5
38554,72211,4
38556,72208,5
38558,72209,6
38560,72200,4
38554,72203,5
38553,72223,4
38558,72213,5
38564,72218,5
38557,72227,5
38566,72224,5
38565,72238,4
38570,72246,5
38573,72246,5
38584,72261,5
38580,72259,4
38587,72261,5
38588,72261,5
38586,72266,5
38585,72261,5
38588,72265,4
38585,72263,5
38583,72254,5
38578,72257,5
38570,72247,5
38573,72247,4
38576,72245,5
38572,72252,5
38577,72247,6
38581,72251,4
38585,72263,4
38582,72266,5
38579,72256,5
38579,72252,5
38578,72246,5
38576,72260,4
38588,72254,5
38574,72262,5
38585,72265,5
38584,72258,4
38580,72269,5
38589,72266,5
38593,72280,5
38592,72283,5
38600,72291,4
38602,72300,5
38608,72308,5
38612,72309,5
38620,72328,5
38627,72338,5
38629,72354,4
38634,72348,5
38642,72367,5
38649,72381,6
38651,72389,3
38670,72402,5
38667,72415,5
38673,72428,5
38667,72428,5
38683,72443,4
38682,72446,5
38682,72457,5
38686,72460,5
38697,72467,4
38693,72468,5
38691,72468,5
38697,72474,5
38688,72477,5
38694,72469,4
38689,72478,5
38688,72475,5
38688,72467,5
38694,72473,5
38685,72472,4
38686,72460,6
38688,72459,4
38686,72453,5
38683,72451,5
38686,72436,4
38675,72437,5
38665,72435,5
38666,72412,5
38653,72411,5
38662,72405,4
38654,72406,5
38664,72403,5
38665,72410,5
38670,72405,4
38667,72422,5
38654,72437,5
38670,72437,5
