RED,IR,EKG,TIME
35571,65893,9
35573,65891,8
35571,65885,5
35549,65883,5
35569,65885,5
35569,65883,8
35576,65894,5
35575,65883,5
35573,65891,8
35573,65891,5
35594,65910,5
35578,65894,5
35587,65886,8
35584,65894,5
35577,65896,5
35565,65900,8
35579,65904,5
35580,65929,5
35583,65901,8
35583,65892,5
35583,65893,5
35594,65893,5
35595,65923,8
35595,65923,5
35607,65927,5
35606,65933,8
35595,65919,5
35604,65937,5
35609,65957,5
35610,65959,8
35607,65925,5
35598,65914,5
35617,65940,8
35615,65939,5
35615,65939,5
35603,65948,8
35611,65932,5
35605,65924,5
35598,65931,5
35603,65931,8
35613,65932,5
35597,65928,5
35593,65866,8
35580,65929,5
35614,65916,5
35594,65926,5
35592,65933,8
35592,65933,5
35594,65926,5
35590,65917,8
35591,65927,5
35608,65931,5
35598,65927,8
35587,65904,5
35590,65928,5
35590,65907,5
35602,65923,8
35602,65919,5
35585,65914,5
35598,65909,8
35598,65909,5
35579,65912,5
35602,65926,5
35617,65903,8
35577,65906,5
35582,65905,5
35586,65906,8
35588,65908,5
35582,65903,5
35575,65902,8
35573,65906,5
35581,65889,5
35582,65887,5
35579,65883,8
35579,65883,5
35544,65880,5
35544,65879,8
35564,65880,5
35570,65873,5
35559,65886,5
35570,65876,8
35564,65866,5
35575,65883,5
35575,65891,8
35577,65900,5
35567,65895,5
35572,65899,8
35572,65899,5
35561,65883,5
35576,65891,5
35579,65898,8
35571,65895,5
35569,65872,5
35558,65868,8
35559,65861,5
35588,65876,5
35557,65862,5
35554,65842,8
35558,65848,5
35550,65845,5
35552,65860,8
35552,65860,5
35555,65882,5
35561,65839,5
35554,65829,8
35552,65850,5
35546,65854,5
35554,65846,5
35520,65841,1
35527,65843,0
35548,65808,4
35536,65835,5
35545,65834,5
35538,65848,5
35549,65843,5
35542,65841,4
35550,65834,5
35543,65833,5
35541,65839,5
35549,65845,5
35545,65848,5
35545,65838,4
35551,65857,5
35546,65842,5
35543,65843,4
35548,65835,5
35550,65845,5
35542,65833,5
35543,65829,5
35543,65833,4
35545,65837,5
35544,65836,5
35536,65827,5
35534,65822,5
35531,65813,4
35521,65808,5
35516,65802,5
35521,65795,5
35508,65781,5
35513,65779,4
35500,65760,5
35498,65757,5
35493,65753,6
35492,65751,3
35490,65741,4
35489,65749,6
35486,65735,4
35481,65735,5
35487,65741,4
35483,65733,5
35482,65730,5
35478,65727,5
35472,65712,5
35472,65710,4
35463,65708,5
35473,65706,5
35465,65709,5
35463,65704,5
35451,65698,4
35458,65684,5
35468,65697,5
35462,65695,5
35455,65684,5
35459,65689,4
35456,65686,5
35451,65677,5
35460,65683,5
35452,65677,4
35452,65693,4
35456,65689,5
35466,65682,6
35447,65674,4
35451,65697,4
35448,65686,5
35454,65692,5
35458,65689,5
35447,65684,5
35451,65690,4
35460,65681,5
35454,65675,5
35451,65682,5
35457,65686,5
35459,65682,4
35454,65693,5
35451,65697,5
35453,65699,5
35462,65691,5
35460,65702,4
35462,65694,5
35457,65701,5
35465,65684,5
35450,65687,5
35457,65682,4
35441,65665,5
35442,65671,5
35442,65659,5
35435,65644,4
35435,65654,5
35427,65658,5
35422,65635,5
35424,65638,5
35421,65638,4
35427,65636,5
35413,65628,5
35416,65630,5
35425,65626,5
35425,65641,4
35419,65641,5
35422,65639,5
35425,65639,5
35430,65641,5
35419,65642,4
35433,65645,5
35434,65645,5
35433,65652,5
35435,65653,4
35440,65654,6
35442,65665,4
35453,65674,5
35445,65686,5
35459,65687,4
35460,65703,5
35460,65699,5
35471,65703,5
35468,65718,5
35473,65716,4
35469,65724,5
35478,65723,5
35482,65727,5
35482,65740,5
35485,65748,4
35492,65749,5
35488,65747,5
35490,65755,5
35497,65756,5
35495,65760,4
35500,65765,5
35499,65772,5
35509,65773,5
35504,65769,4
35498,65782,5
35517,65778,6
35510,65777,4
35513,65781,5
35511,65786,4
35510,65776,5
35501,65771,5
35505,65785,5
35508,65783,5
35507,65779,4
35511,65793,5
35520,65782,5
35518,65795,5
35519,65789,5
35520,65801,4
35528,65809,5
35520,65804,5
35531,65802,5
35525,65811,5
35530,65817,4
35532,65817,5
35527,65819,5
35537,65826,5
35535,65821,4
35542,65830,5
35533,65832,5
35551,65842,5
35554,65848,5
35549,65855,4
35551,65856,5
35557,65864,5
35562,65864,5
35563,65877,5
35562,65876,4
35569,65880,5
35576,65879,5
35574,65882,5
35567,65884,5
35569,65896,4
35575,65888,5
35572,65897,5
35569,65904,5
35574,65902,5
35582,65908,5
35576,65915,4
35588,65925,5
35592,65933,5
35600,65935,6
35599,65937,3
35589,65945,5
35602,65944,5
35611,65957,5
35606,65965,4
35611,65965,5
35612,65961,5
35606,65952,5
35610,65964,5
35612,65960,4
35610,65959,5
35612,65969,5
35615,65964,5
35610,65963,5
35616,65969,4
35603,65968,5
35625,65977,5
35626,65987,5
35634,65999,4
35641,65999,4
35640,65999,6
35636,66020,4
35652,66025,5
35650,66021,4
35652,66030,7
35649,66031,3
35661,66035,5
35669,66040,5
35659,66043,4
35658,66047,5
35660,66050,5
35664,66054,5
35669,66061,5
35675,66064,4
35683,66068,5
35678,66081,5
35684,66092,5
35697,66093,5
35693,66100,4
35699,66108,5
35702,66120,5
35715,66124,5
35715,66129,4
35720,66139,4
35724,66154,5
35720,66148,6
35723,66144,4
35725,66143,4
35727,66159,5
35732,66180,5
35738,66162,5
35740,66173,5
35736,66178,4
35736,66179,5
35732,66181,5
35737,66180,5
35732,66179,5
35738,66173,4
35743,66181,5
35743,66188,5
35734,66190,5
35740,66190,5
35740,66184,4
35743,66196,5
35739,66197,5
35742,66201,5
35759,66205,5
35750,66207,4
35760,66211,5
35765,66209,5
35754,66209,6
35762,66224,3
35767,66228,5
35780,66226,5
35774,66231,5
35775,66239,5
35772,66242,4
35782,66247,5
35784,66260,5
35785,66260,5
35785,66261,5
35783,66260,4
35784,66268,5
35781,66260,5
35786,66258,5
35786,66261,5
35787,66263,4
35783,66256,5
35778,66261,5
35782,66255,5
35781,66248,4
35770,66250,5
35777,66264,4
35785,66249,5
35780,66253,5
35783,66259,6
35775,66250,3
35779,66254,5
35785,66252,5
35778,66256,5
35782,66254,4
35783,66258,5
35776,66263,5
35790,66261,5
35784,66266,5
35786,66270,4
35788,66269,5
35789,66264,5
35787,66267,5
35790,66270,5
35792,66283,4
35790,66280,5
35789,66286,5
35799,66294,5
35805,66307,4
35806,66302,5
35810,66322,6
35816,66323,4
35825,66324,5
35826,66345,4
35836,66364,5
35835,66361,5
35844,66368,5
35848,66372,5
35853,66383,4
35857,66384,5
35867,66392,5
35864,66389,5
35865,66381,5
35850,66394,4
35868,66400,5
35862,66410,5
35875,66405,5
35868,66401,5
35870,66409,4
35870,66417,5
35875,66419,5
35877,66419,5
35879,66413,4
35880,66417,5
35878,66430,5
35886,66439,6
35888,66440,4
35891,66442,4
35888,66448,5
35893,66450,5
35895,66455,5
35899,66453,5
35888,66462,4
35894,66449,5
35894,66464,5
35900,66438,5
35880,66450,5
35888,66451,4
35894,66439,5
35892,66436,5
35888,66446,5
35888,66451,5
35896,66448,4
35891,66461,5
35883,66456,5
35901,66457,5
35895,66453,5
35892,66460,4
35890,66455,5
35899,66448,5
35890,66450,6
35882,66443,3
35888,66441,5
35885,66439,5
35879,66430,5
35889,66439,5
35891,66434,4
35889,66441,5
35875,66427,5
35869,66425,5
35886,66427,5
35885,66417,4
35875,66415,5
35868,66428,5
35870,66419,5
35869,66415,4
35870,66404,4
35867,66403,5
35864,66407,5
35867,66407,5
35855,66401,4
35855,66393,6
35850,66380,4
35851,66390,5
35851,66396,5
35850,66390,4
35848,66365,5
35845,66371,5
35844,66378,5
35849,66370,5
35841,66371,4
35838,66371,5
35832,66355,5
35837,66346,5
35830,66358,5
35832,66347,4
35822,66343,5
35829,66347,5
35824,66348,5
35814,66345,4
35819,66335,4
35815,66333,5
35820,66326,5
35814,66335,5
35819,66330,4
35817,66315,5
35814,66321,6
35820,66324,4
35817,66315,5
35821,66319,4
35807,66310,5
35808,66307,5
35808,66293,5
35803,66301,5
35799,66309,4
35792,66297,5
35797,66293,5
35798,66289,5
35800,66294,5
35790,66289,4
35791,66279,5
35794,66292,5
35797,66285,5
35795,66288,4
35795,66284,4
35784,66274,5
35788,66276,5
35791,66280,5
35789,66273,4
35788,66267,5
35779,66264,5
35773,66263,6
35780,66248,4
35773,66255,4
35763,66239,5
35767,66240,5
35757,66240,5
35754,66232,5
35755,66221,4
35757,66226,5
35757,66212,5
35750,66209,5
35742,66200,5
35743,66198,4
35741,66184,5
35727,66190,5
35733,66193,5
35720,66183,4
35725,66184,4
35729,66171,5
35720,66165,5
35724,66163,5
35708,66148,5
35721,66141,4
35711,66148,5
35706,66141,5
35702,66147,5
35700,66143,4
35697,66145,5
35696,66144,5
35695,66139,5
35698,66139,5
35694,66133,4
35692,66130,5
35694,66122,5
35686,66116,8
35690,66109,2
35668,66101,4
35666,66103,5
35677,66093,5
35665,66074,5
35668,66086,4
35664,66076,5
35656,66074,5
35660,66068,5
35665,66078,5
35659,66080,4
35665,66080,6
35665,66074,4
35659,66071,5
35659,66060,5
35650,66056,4
35661,66059,5
35658,66051,5
35655,66055,5
35655,66052,5
35648,66051,4
35646,66051,5
35648,66034,5
35643,66035,5
35644,66041,5
35632,66032,4
35638,66023,5
35639,66024,5
35634,66031,5
35632,66036,4
35635,66033,5
35629,66025,5
35641,66028,5
35635,66027,5
35635,66031,4
35638,66039,5
35640,66032,6
35639,66021,4
35637,66026,5
35624,66026,4
35630,66021,5
35637,66012,5
35619,66009,5
35622,66010,5
35626,66002,4
35634,66000,5
35627,66008,5
35623,66002,5
35617,66005,5
35630,66005,4
35620,65998,5
35619,66000,5
35616,65993,5
35620,65996,4
35625,65991,5
35622,65997,5
35615,66002,5
35619,65989,5
35627,65987,4
35615,65993,5
35628,66001,5
35622,65989,5
35615,65996,5
35614,65979,4
35608,65990,5
35612,65977,5
35606,65981,5
35607,65978,5
35600,65972,4
35599,65972,5
35602,65967,5
35601,65971,5
35602,65958,4
35602,65959,4
35587,65960,5
35588,65953,5
35588,65946,5
35593,65955,4
35598,65948,5
35588,65948,5
35586,65938,5
35587,65937,5
35580,65933,5
35577,65932,4
35587,65941,5
35574,65931,5
35575,65926,5
35574,65928,4
35580,65931,5
35576,65929,5
35578,65923,5
35569,65924,5
35568,65917,4
35571,65914,5
35569,65919,5
35575,65923,5
35579,65912,4
35572,65911,4
35568,65908,5
35562,65913,5
35563,65893,5
35563,65893,4
35552,65883,5
35560,65882,6
35553,65880,4
35549,65882,5
35542,65883,4
35542,65870,7
35545,65874,3
35542,65853,5
35531,65851,5
35529,65841,4
35533,65832,5
35517,65831,5
35513,65821,5
35508,65810,5
35504,65816,4
35512,65808,5
35509,65831,5
35515,65819,5
35513,65822,4
35508,65823,4
35519,65824,5
35521,65825,5
35517,65820,5
35517,65823,4
35502,65819,5
35515,65821,5
35512,65823,6
35526,65829,4
35520,65820,4
35515,65823,5
35508,65822,5
35512,65820,5
35517,65816,5
35509,65821,4
35522,65826,5
35518,65821,5
35517,65830,5
35514,65826,5
35516,65829,4
35520,65838,5
35517,65837,5
35519,65842,5
35513,65840,4
35524,65836,5
35520,65842,5
35531,65843,5
35527,65839,5
35526,65836,5
35526,65832,4
35528,65835,5
35523,65836,5
35525,65833,6
35522,65834,3
35521,65836,5
35519,65836,5
35518,65827,5
35525,65831,5
35511,65833,4
35520,65823,5
35521,65833,5
35527,65824,5
35527,65832,5
35525,65834,4
35528,65829,5
35519,65836,5
35527,65834,5
35526,65839,4
35521,65828,5
35513,65834,5
35524,65827,5
35525,65827,5
35524,65835,4
35521,65830,6
35522,65841,4
35526,65838,5
35524,65844,5
35531,65834,6
35525,65838,3
35524,65837,5
35530,65839,5
35527,65829,5
35525,65830,4
35524,65827,5
35518,65824,5
35514,65821,5
35517,65828,5
35521,65825,4
35520,65825,5
35529,65826,5
35512,65829,5
35511,65815,4
35519,65825,5
35521,65817,5
35512,65833,5
35523,65824,5
35521,65825,4
35516,65827,5
35513,65818,6
35520,65831,4
35513,65828,5
35514,65828,4
35521,65817,5
35524,65820,5
35521,65826,5
35522,65825,5
35520,65832,4
35515,65824,5
35520,65826,5
35524,65830,5
35520,65828,5
35517,65831,4
35515,65834,5
35519,65830,5
35513,65823,5
35508,65823,4
35522,65820,5
35515,65835,5
35523,65824,5
35514,65822,5
35509,65821,4
35517,65824,5
35512,65816,5
35515,65814,6
35518,65814,4
35502,65808,4
35502,65794,5
35492,65808,5
35505,65812,5
35505,65808,5
35501,65813,4
35510,65810,5
35505,65808,5
35515,65814,5
35513,65813,4
35504,65822,4
35506,65821,5
35510,65825,5
35514,65824,5
35509,65820,4
35508,65817,5
35527,65830,5
35513,65823,5
35515,65815,5
35509,65815,5
35515,65815,4
35512,65806,5
35500,65802,5
35508,65801,6
35498,65801,3
35501,65800,5
35500,65804,5
35503,65806,5
35507,65808,5
35505,65802,4
35504,65815,5
35509,65819,5
35514,65816,5
35522,65823,4
35518,65829,4
35521,65839,5
35522,65840,5
35522,65837,5
35538,65845,4
35526,65846,5
35523,65851,5
35536,65850,5
35525,65857,5
35535,65842,4
35539,65856,6
35531,65847,4
35537,65868,5
35541,65864,5
35546,65873,4
35544,65877,5
35544,65887,5
35563,65891,5
35569,65900,5
35569,65911,4
35568,65916,5
35565,65909,5
35569,65917,5
35570,65913,4
35576,65919,5
35565,65914,5
35576,65926,5
35578,65923,5
35571,65929,4
35576,65916,5
35580,65923,5
35575,65923,5
35576,65920,5
35578,65915,4
35565,65919,5
35576,65919,6
35575,65919,4
35566,65916,5
35575,65924,4
35578,65927,5
35580,65918,5
35575,65920,5
35576,65925,4
35579,65934,4
35573,65930,5
35575,65939,5
35582,65932,5
35586,65932,4
35582,65934,5
35576,65939,5
35577,65936,5
35580,65939,5
35580,65945,4
35582,65940,5
35591,65950,5
35579,65944,5
35588,65945,5
35587,65949,4
35585,65953,5
35583,65950,5
35589,65953,6
35598,65944,4
35588,65950,4
35587,65960,5
35588,65950,5
35599,65958,5
35595,65958,4
35587,65948,5
35591,65953,5
35596,65957,5
35583,65948,5
35594,65951,4
35585,65947,5
35579,65949,5
35586,65951,5
35590,65940,5
35575,65935,4
35578,65932,5
35576,65925,5
35579,65926,5
35572,65931,5
35566,65920,5
35569,65899,4
35565,65905,5
35553,65898,5
35553,65888,4
35548,65881,4
35542,65869,5
35546,65868,5
35538,65866,5
35528,65853,4
35532,65846,5
35530,65842,5
35518,65831,5
35511,65834,5
35509,65816,4
35497,65798,5
35497,65785,5
35484,65765,5
35474,65757,5
35457,65732,4
35459,65718,5
35436,65708,5
35423,65673,5
35418,65657,5
35397,65630,4
35396,65617,6
35392,65616,4
35380,65603,5
35374,65585,4
35369,65583,5
35360,65568,5
35365,65562,5
35357,65565,5
35352,65563,4
35359,65559,5
35362,65547,5
35363,65549,5
35365,65544,5
35341,65552,4
35353,65538,5
35355,65536,5
35347,65533,5
35355,65548,5
35346,65535,4
35350,65534,5
35346,65535,5
35348,65532,5
35349,65526,4
35347,65528,4
35347,65537,5
35356,65535,6
35348,65544,4
35349,65552,4
35357,65556,5
35359,65561,5
35366,65570,5
35371,65575,5
35377,65568,4
35376,65583,5
35377,65584,5
35372,65585,5
35369,65580,5
35375,65583,4
35374,65586,5
35372,65581,5
35377,65584,5
35373,65575,5
35363,65565,4
35366,65555,5
35359,65547,5
35346,65537,5
35346,65508,5
35332,65503,4
35342,65502,5
35333,65494,5
35318,65471,5
35316,65470,7
35316,65474,2
35320,65469,5
35309,65445,5
35288,65424,5
35261,65362,4
35235,65318,5
35219,65303,5
35223,65297,5
35230,65303,5
35213,65304,4
35217,65295,5
35218,65299,5
35221,65302,5
35225,65308,5
35216,65268,4
35189,65219,5
35145,65149,5
35129,65126,5
35120,65105,4
35113,65104,6
35113,65100,4
35116,65119,5
35122,65116,5
35104,65105,4
35108,65096,5
35074,65017,5
35010,64898,5
34962,64815,5
34935,64783,4
34933,64781,5
34910,64738,5
34887,64699,5
34882,64711,5
34894,64725,4
34926,64803,5
34964,64845,5
34952,64811,5
34928,64776,4
34890,64737,4
34891,64726,5
34907,64745,5
34918,64781,4
34953,64836,4
34938,64788,5
34899,64709,5
34857,64651,5
34845,64650,5
34867,64674,4
34872,64685,5
34875,64690,5
34894,64714,5
34870,64675,5
34828,64596,4
34802,64556,5
34802,64528,5
34775,64500,5
34756,64479,5
34751,64483,4
34780,64512,5
34785,64518,5
34774,64526,5
34791,64556,5
34821,64584,4
34808,64572,5
34798,64564,5
34796,64544,6
34813,64570,3
34825,64603,5
34835,64613,5
34853,64639,5
34848,64627,5
34837,64617,4
34843,64633,5
34842,64631,5
34841,64613,5
34833,64606,5
34801,64554,4
34795,64543,5
34817,64599,5
34856,64680,5
34900,64749,4
34915,64763,4
34923,64764,5
34893,64697,5
34872,64673,5
34865,64659,4
34857,64633,6
34834,64634,4
34843,64635,5
34846,64646,5
34854,64662,6
34843,64617,3
34795,64543,5
34787,64516,5
34780,64518,5
34798,64556,4
34836,64641,5
34877,64713,5
34897,64743,5
34906,64734,5
34891,64721,4
34882,64706,5
34895,64734,5
34909,64765,5
34926,64802,4
34955,64834,4
34946,64794,5
34895,64713,5
34871,64664,5
34871,64688,4
34887,64717,5
34905,64751,6
34929,64786,4
34922,64756,5
34915,64751,4
34891,64717,5
34897,64750,5
34930,64789,5
34952,64819,5
34963,64858,4
34969,64862,5
34972,64860,5
34981,64881,5
34985,64888,5
34993,64896,4
34993,64905,5
34997,64900,5
34997,64893,5
34983,64874,4
34983,64880,5
34999,64908,5
35024,64980,5
35073,65056,5
35083,65071,4
35063,65034,5
35055,64981,5
35007,64924,6
34999,64900,4
35005,64912,4
35021,64943,5
35035,64983,5
35047,64988,5
35038,65009,5
35050,64997,4
35040,65000,5
35046,64989,5
35042,64982,5
35051,65002,4
35073,65050,4
35101,65083,5
35111,65104,5
35081,65017,5
35014,64915,4
34960,64838,5
34976,64855,5
35011,64920,5
35023,64953,5
35037,64970,5
35057,65001,4
35063,65036,5
35076,65047,5
35088,65040,6
35074,65014,3
35051,64978,5
35037,64973,5
35051,64988,5
35068,65028,5
35112,65109,4
35144,65128,5
35104,65071,5
35056,64995,5
35039,64950,4
35031,64938,5
35030,64956,5
35068,65030,5
35100,65100,5
35143,65136,4
35131,65113,5
35098,65064,5
35069,65028,5
35070,65031,5
35086,65034,4
35087,65054,6
35096,65102,4
35127,65128,5
35126,65119,5
35139,65153,4
35160,65199,5
35194,65234,5
35196,65250,5
35207,65260,5
35222,65291,4
35250,65367,5
35289,65422,5
35316,65473,5
35350,65511,4
35352,65532,5
35344,65520,5
35362,65546,5
35375,65564,5
35384,65578,4
35385,65606,5
35399,65608,5
35406,65628,5
35412,65637,5
35412,65638,4
35420,65624,5
35409,65621,6
35400,65620,4
35399,65617,5
35403,65623,4
35403,65625,5
35409,65637,5
35412,65634,5
35421,65630,4
35419,65624,4
35422,65635,5
35417,65636,5
35413,65636,5
35412,65629,4
35409,65622,5
35406,65620,5
35397,65616,5
35402,65618,5
35388,65612,4
35399,65607,5
35398,65606,5
35398,65637,5
35406,65621,5
35401,65615,4
35396,65624,5
35401,65629,5
35406,65617,6
35402,65633,4
35410,65624,4
35410,65635,5
35412,65634,5
35407,65634,5
35412,65638,4
35422,65634,5
35416,65642,5
35418,65633,5
35414,65657,5
35422,65644,4
35429,65653,5
35435,65661,5
35428,65657,5
35429,65666,5
35429,65661,4
35430,65669,5
35420,65666,5
35434,65668,5
35430,65679,5
35432,65671,5
35435,65679,4
35432,65672,5
35437,65675,5
35443,65679,4
35437,65680,4
35435,65684,5
35438,65675,5
35431,65675,5
35431,65676,4
35432,65670,5
35427,65675,5
35433,65664,5
35433,65671,5
35430,65660,4
35428,65664,5
35425,65659,5
35415,65653,5
35421,65648,5
35414,65647,4
35414,65639,5
35418,65628,5
35422,65645,5
35416,65640,5
35415,65640,4
35421,65639,6
35413,65630,4
35413,65638,5
35422,65644,4
35415,65644,5
35414,65641,5
35411,65652,5
35406,65645,5
35405,65639,4
35417,65647,5
35419,65637,5
35416,65641,5
35409,65638,5
35411,65630,4
35410,65624,5
35407,65626,5
35395,65626,5
35391,65623,5
35406,65621,4
35398,65613,5
35393,65614,5
35393,65612,5
35386,65612,5
35393,65605,4
35389,65604,5
35395,65606,6
35393,65601,4
35388,65607,4
35379,65599,5
35390,65595,5
35384,65605,5
35394,65607,5
35391,65607,4
35391,65593,5
35392,65594,5
35378,65589,5
35379,65590,5
35382,65585,4
35381,65588,5
35384,65589,5
35376,65583,5
35381,65578,5
35376,65573,4
35377,65584,5
35382,65575,5
35376,65583,5
35374,65577,5
35376,65587,4
35378,65583,5
35388,65586,5
35366,65579,5
35382,65580,4
35377,65584,5
35377,65577,5
35378,65580,5
35372,65575,5
35380,65575,4
35377,65566,5
35380,65568,5
35365,65565,5
35376,65558,5
35369,65561,4
35378,65560,5
35368,65565,5
35371,65565,5
35370,65561,5
35372,65558,4
35363,65568,5
35373,65564,5
35375,65570,5
35371,65565,4
35375,65564,5
35375,65573,4
35378,65573,5
35374,65557,5
35371,65576,4
35375,65574,5
35365,65572,5
35368,65565,5
35378,65566,5
35369,65570,4
35374,65570,5
35375,65556,5
35362,65552,5
35362,65554,5
35361,65551,4
35359,65553,5
35346,65551,5
35355,65555,5
35362,65541,5
35359,65551,4
35359,65545,5
35354,65544,5
35355,65544,5
35346,65545,4
35359,65536,5
35351,65532,6
35345,65529,4
35342,65536,5
35342,65524,4
35338,65512,5
35339,65515,5
35341,65518,5
35342,65504,5
35339,65509,4
35335,65509,5
35329,65503,5
35330,65502,5
35328,65495,5
35330,65495,4
35333,65496,5
35330,65485,5
35328,65486,5
35320,65476,4
35318,65470,4
35317,65482,5
35304,65464,5
35313,65473,5
35302,65466,4
35308,65456,5
35295,65442,5
35298,65433,5
35298,65434,5
35282,65442,4
35294,65436,5
35292,65431,5
35284,65430,5
35299,65437,5
35303,65433,4
35298,65437,5
35289,65437,5
35292,65428,5
35298,65430,5
35286,65436,4
35289,65431,5
35298,65426,5
35291,65432,5
35279,65429,4
35286,65429,10
35283,65413,0
35281,65397,5
35280,65409,5
35276,65395,6
35270,65404,3
35276,65403,5
35273,65400,5
35269,65401,5
35269,65402,4
35270,65398,5
35276,65399,5
35273,65400,5
35279,65409,5
35275,65402,4
35277,65414,5
35286,65419,5
35282,65415,5
35284,65428,4
35282,65439,4
35291,65425,5
35290,65435,5
35292,65430,5
35295,65429,4
35289,65430,5
35288,65423,6
35293,65428,4
35283,65415,5
35291,65427,4
35290,65420,7
35290,65425,3
35291,65424,5
35288,65428,5
35288,65424,4
35295,65419,5
35291,65430,5
35282,65422,5
35292,65424,5
35288,65422,4
35287,65431,5
35289,65418,5
35288,65428,5
35283,65417,4
35280,65422,4
35282,65410,5
35282,65415,5
35284,65401,5
35279,65413,4
35276,65410,5
35268,65406,5
35280,65396,6
35270,65400,4
35273,65389,4
35265,65391,5
35270,65384,5
35268,65390,5
35271,65380,5
35268,65394,4
35260,65385,5
35274,65379,5
35272,65388,5
35276,65391,5
35268,65396,4
35261,65381,5
35271,65385,5
35283,65387,5
35269,65391,4
35261,65394,5
35264,65391,5
35276,65400,5
35272,65392,5
35266,65395,5
35270,65394,4
35272,65396,5
35273,65398,5
35269,65392,6
35270,65391,3
35266,65386,5
35278,65391,5
35262,65392,5
35273,65389,5
35267,65392,4
35269,65393,5
35261,65394,5
35274,65394,5
35266,65384,4
35270,65387,4
35274,65393,5
35272,65391,5
35271,65393,5
35269,65393,4
35263,65387,5
35278,65392,5
35274,65399,5
35271,65391,5
35275,65389,4
35265,65387,6
35265,65395,4
35265,65390,5
35263,65384,5
35261,65379,6
35261,65378,3
35255,65370,5
35256,65373,5
35257,65366,5
35249,65363,4
35253,65369,5
35244,65359,5
35256,65363,5
35245,65362,4
35240,65354,5
35251,65355,5
35241,65362,5
35238,65345,5
35258,65353,4
35245,65347,5
35246,65350,5
35246,65345,5
35244,65351,5
35244,65343,4
35237,65345,5
35234,65337,6
35242,65349,4
35242,65348,5
35232,65336,4
35230,65336,5
35240,65339,5
35238,65336,5
35232,65346,4
35237,65336,4
35238,65346,5
35244,65343,5
35241,65344,5
35242,65352,4
35247,65358,5
35253,65364,5
35249,65368,5
35252,65374,5
35262,65379,4
35253,65389,5
35265,65391,5
35265,65393,5
35257,65387,5
35270,65396,4
35272,65399,5
35272,65402,5
35267,65396,6
35266,65408,4
35271,65396,4
35272,65397,5
35281,65400,5
35277,65409,5
35277,65412,4
35271,65404,5
35271,65409,5
35276,65408,5
35279,65407,5
35280,65408,4
35282,65414,5
35272,65410,5
35275,65404,5
35283,65408,5
35276,65406,4
35275,65400,5
35273,65406,5
35280,65410,5
35274,65407,5
35277,65405,5
35277,65409,4
35281,65407,5
35278,65409,5
35274,65407,5
35278,65405,4
35281,65411,5
35285,65418,5
35291,65424,5
35290,65421,4
35288,65432,5
35288,65428,5
35289,65433,5
35286,65432,5
35290,65437,4
35285,65434,5
35296,65434,5
35296,65440,5
35295,65446,5
35302,65450,4
35298,65445,5
35312,65459,5
35305,65468,5
35301,65472,5
35304,65473,4
35309,65468,6
35314,65465,4
35312,65473,5
35309,65469,4
35317,65474,5
35321,65483,5
35310,65489,5
35316,65488,5
35325,65491,4
35326,65493,5
35336,65485,5
35316,65484,5
35325,65494,5
35328,65484,4
35326,65486,5
35319,65484,5
35315,65486,5
35321,65490,5
35334,65484,4
35329,65497,5
35330,65497,5
35325,65495,5
35328,65492,4
35323,65492,4
35320,65502,5
35325,65494,6
35326,65502,4
35333,65512,4
35335,65509,5
35333,65507,5
35338,65516,5
35335,65522,5
35342,65525,4
35350,65529,5
35348,65525,5
35349,65534,5
35346,65537,5
35360,65546,4
35359,65543,5
35357,65553,5
35365,65560,5
35360,65567,5
35370,65578,4
35364,65564,5
35363,65570,5
35369,65577,5
35363,65585,5
35364,65571,4
35365,65578,5
35376,65584,5
35379,65586,5
35379,65605,4
35379,65593,5
35381,65592,5
35382,65595,5
35383,65584,5
35375,65583,4
35378,65572,5
35363,65564,5
35366,65556,5
35355,65547,5
35358,65542,4
35348,65539,5
35345,65534,5
35345,65520,5
35342,65524,4
35332,65523,4
35337,65512,5
35330,65521,5
35333,65510,5
35337,65522,4
35327,65517,6
35325,65506,4
35320,65507,5
35321,65502,5
35319,65488,4
35309,65476,5
35308,65465,5
35302,65451,5
35290,65437,5
35286,65419,4
35269,65394,5
35263,65387,5
35251,65361,5
35247,65354,5
35227,65333,4
35224,65317,5
35220,65298,5
35212,65278,5
35206,65267,4
35193,65258,4
35180,65241,5
35171,65231,5
35162,65217,5
35156,65198,4
35154,65185,5
35145,65181,6
35142,65172,4
35148,65176,5
35141,65167,4
35129,65154,5
35115,65148,5
35121,65138,5
35111,65128,5
35111,65122,4
35102,65100,5
35096,65100,5
35091,65091,5
35082,65079,5
35075,65073,4
35084,65058,5
35071,65054,5
35065,65047,5
35068,65046,4
35062,65038,5
35064,65035,5
35059,65024,5
35047,65030,5
35045,65019,4
35056,65017,5
35055,65018,5
35050,65008,5
35042,65004,5
35036,64984,4
35025,64975,5
35022,64958,5
35017,64954,5
35020,64948,5
35010,64951,4
34995,64921,5
34977,64854,5
34945,64809,5
34927,64794,4
34927,64781,4
34927,64785,5
34928,64798,5
34932,64808,5
34934,64809,4
34944,64802,5
34927,64792,5
34917,64790,5
34915,64782,5
34912,64777,5
34908,64775,4
34906,64732,5
34879,64718,5
34871,64686,5
34860,64679,4
34862,64688,5
34865,64684,5
34876,64695,5
34871,64708,5
34884,64723,4
34886,64724,5
34892,64734,5
34900,64733,5
34896,64746,4
34896,64736,5
34898,64735,5
34911,64749,5
34897,64755,5
34889,64731,4
34900,64739,5
34896,64744,5
34897,64742,5
34909,64759,5
34912,64760,4
34902,64760,6
34909,64759,4
34919,64775,5
34909,64772,5
34912,64762,4
34913,64760,5
34906,64759,5
34912,64761,5
34912,64767,5
34911,64781,4
34919,64799,5
34942,64821,5
34943,64823,5
34945,64811,4
34934,64818,5
34936,64819,5
34948,64828,5
34944,64838,5
34959,64850,4
34962,64865,5
34980,64891,5
34984,64890,6
34981,64892,4
34973,64894,4
34978,64895,5
34988,64890,5
34992,64900,5
34985,64907,5
35000,64912,4
35003,64923,5
35010,64950,5
35027,64963,5
35033,64977,4
35041,64996,5
35046,65015,5
35052,65024,5
35063,65039,5
35062,65045,4
35081,65062,5
35080,65073,5
35093,65085,5
35095,65098,5
35108,65117,5
35107,65117,4
35116,65119,5
35113,65133,5
35127,65143,6
35129,65147,3
35140,65161,5
35134,65164,5
35139,65173,5
35146,65192,5
35156,65198,4
35160,65214,5
35162,65228,5
35175,65245,5
35183,65251,4
35191,65271,5
35206,65285,5
35211,65297,9
35217,65304,1
35227,65342,4
35225,65326,5
35240,65330,5
35236,65339,5
35243,65346,5
35246,65347,4
35252,65357,6
35256,65367,4
35255,65374,5
35265,65384,5
35262,65396,6
35268,65402,3
35279,65399,5
35268,65409,5
35280,65407,4
35285,65418,4
35285,65416,5
35287,65417,5
35278,65425,5
35282,65431,4
35294,65440,5
35298,65438,5
35306,65441,5
35308,65459,5
35305,65469,4
35321,65468,5
35319,65483,5
35320,65485,5
35324,65488,5
35327,65502,4
35336,65507,5
35339,65501,6
35328,65496,4
35336,65513,5
35335,65512,4
35334,65515,5
35348,65517,5
35346,65533,5
35348,65529,4
35353,65539,5
35355,65558,5
35373,65569,5
35375,65580,5
35388,65600,4
35387,65617,5
35397,65610,5
35396,65621,5
35410,65632,5
35405,65638,4
35420,65642,5
35416,65654,5
35420,65653,5
35425,65665,5
35427,65666,4
35433,65668,5
35434,65671,5
35425,65674,6
35441,65689,3
35438,65693,4
35442,65693,5
35431,65694,5
35448,65695,5
35454,65704,4
35453,65725,5
35458,65721,5
35467,65720,5
35465,65734,5
35475,65741,4
35475,65758,5
35488,65758,5
35488,65772,5
35494,65786,5
35504,65781,4
35503,65791,5
35497,65804,5
35499,65795,5
35507,65795,5
35510,65804,5
35509,65806,4
35506,65810,5
35512,65811,5
35515,65808,6
35511,65804,3
35510,65814,5
35511,65802,5
35516,65813,5
35519,65817,4
35508,65829,5
35528,65824,5
35526,65835,5
35525,65846,5
35531,65850,4
35540,65852,5
35540,65870,5
35554,65877,5
35545,65884,5
35553,65885,4
35550,65879,5
35546,65878,5
35553,65880,5
35551,65878,5
35548,65876,4
35541,65882,6
35540,65881,4
35548,65885,5
35537,65872,4
35543,65868,5
35545,65868,5
35535,65871,5
35539,65858,5
35529,65856,4
35531,65860,5
35533,65843,5
35531,65839,5
35529,65833,5
35525,65837,4
35526,65822,5
35520,65818,5
35523,65817,5
35510,65812,5
35510,65814,4
35513,65805,5
35502,65808,5
35503,65803,5
35504,65795,4
35498,65804,4
35512,65797,5
35506,65791,6
35503,65790,4
35503,65788,4
35503,65799,5
35497,65795,5
35505,65798,5
35499,65803,5
35503,65796,4
35505,65799,5
35500,65789,5
35504,65799,5
35506,65791,5
35499,65801,4
35507,65788,5
35503,65796,5
35498,65785,5
35497,65793,5
35492,65789,4
35503,65782,5
35496,65790,5
35494,65794,5
35503,65789,5
35501,65794,4
35502,65789,5
35504,65778,5
35488,65785,6
35491,65773,3
35491,65778,5
35488,65766,5
35482,65760,5
35476,65755,5
35478,65745,4
35468,65732,5
35464,65722,5
35459,65716,5
35453,65705,5
35444,65699,4
35445,65691,5
35439,65689,5
35432,65687,5
35429,65673,4
35433,65667,4
35412,65656,5
35419,65650,5
35412,65647,5
35414,65641,4
35416,65638,6
35418,65635,4
35405,65641,5
35406,65635,5
35414,65628,4
35407,65632,5
35394,65628,5
35397,65615,5
35403,65622,5
35401,65617,4
35398,65613,5
35391,65621,5
35395,65611,5
35395,65611,5
35392,65608,4
35396,65617,5
35395,65606,5
35382,65600,5
35394,65601,4
35394,65607,4
35385,65595,5
35384,65597,5
35383,65600,5
35385,65600,4
35377,65593,5
35380,65584,6
35383,65578,4
35369,65571,5
35371,65576,4
35365,65562,5
35365,65565,5
35361,65548,5
35351,65546,5
35347,65546,4
35340,65533,5
35350,65534,5
35349,65530,5
35342,65523,5
35341,65521,4
35338,65510,5
35344,65512,5
35325,65516,5
35346,65508,4
35331,65506,4
35346,65512,5
35345,65516,5
35345,65528,5
35348,65520,4
35351,65529,5
35343,65526,5
35348,65534,6
35347,65533,4
35339,65538,4
35345,65529,5
35347,65531,5
35349,65528,5
35347,65520,5
35345,65525,4
35337,65522,5
35346,65525,5
35345,65508,5
35345,65523,5
35343,65518,4
35348,65527,5
35337,65519,5
35340,65527,5
35354,65527,4
35340,65520,4
35343,65520,5
35336,65511,5
35329,65501,5
35325,65501,5
35336,65498,4
35323,65485,5
35324,65486,5
35327,65485,5
35317,65496,4
35327,65481,5
35311,65476,5
35315,65468,5
35316,65478,5
35315,65469,4
35316,65462,5
35306,65462,5
35305,65464,5
35312,65459,5
35302,65457,4
35306,65454,5
35299,65468,5
35296,65452,5
35306,65462,4
35295,65454,5
35301,65460,5
35304,65443,5
35295,65446,5
35300,65447,4
35294,65439,6
35291,65442,4
35296,65438,5
35283,65439,5
35299,65430,4
35296,65432,5
35295,65430,5
35289,65430,5
35300,65438,5
35297,65436,4
35300,65438,5
35295,65436,5
35281,65423,5
35278,65432,5
35284,65430,4
35294,65427,5
35281,65425,5
35287,65421,5
35276,65416,4
35281,65404,5
35272,65393,5
35257,65386,5
35266,65384,5
35264,65384,4
35265,65390,5
35259,65382,6
35265,65393,4
35264,65387,5
35262,65381,4
35262,65381,5
35259,65378,5
35259,65378,5
35256,65370,5
35251,65370,4
35249,65359,5
35240,65368,5
35249,65363,5
35247,65356,5
35244,65352,4
35236,65344,5
35232,65344,5
35231,65334,5
35230,65323,4
35235,65339,5
35232,65330,5
35231,65328,5
35226,65319,5
35231,65320,4
35218,65324,5
35227,65325,5
35226,65324,5
35230,65329,5
35237,65331,4
35228,65331,5
35236,65334,5
35235,65340,5
35231,65335,5
35234,65343,4
35245,65338,5
35235,65347,5
35234,65345,5
35238,65344,5
35238,65349,4
35238,65350,5
35245,65356,5
35246,65360,5
35245,65358,4
35251,65360,6
35250,65362,4
35255,65368,5
35262,65373,5
35260,65377,6
35257,65383,3
35254,65384,5
35259,65384,5
35259,65377,5
35269,65385,4
35262,65384,5
35270,65387,5
35268,65385,5
35264,65385,5
35260,65387,4
35256,65379,5
35255,65379,5
35248,65371,5
35258,65371,5
35252,65358,4
35257,65359,5
35248,65358,5
35244,65360,5
35246,65348,4
35242,65339,5
35232,65330,6
35243,65328,4
35241,65332,5
35238,65330,4
35229,65327,7
35222,65323,3
35225,65315,5
35226,65323,5
35223,65321,4
35231,65319,5
35230,65323,5
35227,65314,5
35224,65319,5
35230,65315,4
35222,65324,5
35231,65322,5
35224,65319,5
35225,65317,4
35247,65329,4
35234,65325,5
35234,65324,5
35235,65331,5
35241,65338,4
35235,65338,5
35238,65327,5
35233,65340,6
35235,65324,4
35234,65339,4
35236,65333,5
35227,65340,5
35236,65337,5
35232,65341,5
35234,65326,4
35232,65330,5
35231,65323,5
35236,65321,5
35221,65319,5
35224,65325,4
35228,65316,5
35223,65319,5
35220,65309,5
35208,65312,4
35226,65301,4
35219,65301,5
35217,65302,5
35218,65296,5
35210,65298,5
35217,65298,4
35214,65305,5
35210,65312,5
35215,65314,6
35216,65312,3
35218,65319,5
35229,65319,5
35218,65316,5
35214,65313,7
35225,65309,2
35220,65316,5
35219,65313,5
35210,65305,5
35209,65301,5
35218,65307,4
35218,65304,5
35210,65291,5
35210,65290,5
35204,65289,4
35204,65294,4
35203,65286,5
35198,65288,5
35197,65284,5
35203,65286,4
35200,65278,6
35198,65280,4
35200,65281,5
35199,65278,5
35210,65295,6
35215,65293,3
35218,65301,5
35211,65302,5
35211,65298,5
35208,65302,4
35219,65307,5
35216,65308,5
35217,65312,5
35218,65311,5
35216,65315,4
35223,65321,5
35226,65314,5
35222,65322,5
35229,65324,4
35227,65319,4
35237,65320,5
35232,65326,5
35234,65334,5
35228,65329,4
35238,65333,5
35236,65346,6
35235,65338,4
35246,65340,5
35242,65350,4
35239,65343,5
35245,65348,5
35244,65356,5
35243,65348,5
35246,65355,4
35253,65358,5
35248,65362,5
35253,65355,5
35239,65354,5
35252,65365,4
35249,65353,5
35245,65349,5
35249,65346,5
35249,65364,4
35255,65362,4
35251,65354,5
35247,65353,5
35242,65356,5
35238,65349,4
35235,65364,5
35256,65355,5
35241,65349,6
35251,65355,4
35242,65354,4
35247,65353,5
35246,65352,5
35237,65350,5
35237,65347,5
35239,65353,4
35245,65354,5
35235,65357,5
35240,65351,5
35252,65355,5
35237,65351,4
35244,65346,5
35245,65354,5
35244,65362,5
35244,65358,4
35243,65361,5
35243,65357,5
35240,65361,5
35246,65361,5
35253,65353,5
35249,65359,4
35246,65364,5
35247,65362,5
35254,65362,6
35246,65360,3
35247,65354,5
35249,65362,5
35254,65357,5
35252,65356,5
35262,65358,4
35250,65360,5
35259,65359,5
35261,65373,5
35255,65378,5
35255,65385,4
35261,65375,5
35259,65394,5
35258,65395,5
35264,65389,4
35266,65383,5
35273,65388,5
35267,65390,5
35267,65390,5
35259,65389,4
35260,65394,6
35270,65397,4
35273,65394,5
35263,65406,5
35270,65398,4
35264,65397,5
35263,65394,5
35264,65406,5
35263,65393,5
35261,65388,4
35259,65388,5
35256,65387,5
35251,65379,5
35250,65369,5
35250,65366,4
35244,65366,5
35244,65366,5
35249,65361,5
35241,65354,4
35241,65357,5
35233,65343,5
35223,65333,5
35232,65321,5
35217,65316,4
35212,65306,5
35217,65300,6
35208,65298,4
35207,65294,5
35204,65297,4
35201,65295,5
35202,65305,5
35214,65300,5
35215,65310,5
35218,65310,4
35219,65322,5
35222,65310,5
35220,65324,5
35222,65316,5
35223,65317,4
35214,65313,5
35217,65329,5
35212,65315,5
35223,65317,4
35219,65321,5
35222,65315,5
35221,65317,5
35210,65314,5
35225,65315,4
35214,65312,5
35218,65315,5
35222,65316,6
35231,65314,4
35215,65312,4
35213,65310,5
35212,65304,5
35220,65313,5
35213,65309,5
35217,65307,4
35215,65304,5
35225,65309,5
35205,65303,5
35216,65302,4
35215,65291,4
35209,65292,5
35208,65298,5
35209,65298,5
35203,65281,4
35198,65281,5
35196,65280,5
35192,65271,5
35193,65257,5
35185,65253,5
35180,65255,4
35175,65248,5
35179,65245,5
35178,65238,5
35169,65233,4
35168,65222,5
35158,65217,5
35162,65214,5
35150,65198,5
35155,65189,4
35149,65183,5
35135,65173,5
35129,65160,5
35129,65160,4
35127,65149,4
35125,65136,5
35114,65138,5
35114,65137,5
35107,65122,4
35100,65120,5
35104,65116,5
35102,65115,5
35091,65096,5
35093,65091,4
35075,65076,6
35083,65072,4
35077,65061,5
35060,65047,5
35062,65033,4
35052,65023,5
35047,65015,5
35049,65009,5
35035,65005,5
35041,64993,4
35042,64978,5
35030,64969,5
35008,64961,5
35007,64949,4
35004,64944,4
35000,64932,5
34994,64929,5
34993,64916,5
34977,64910,4
34982,64901,5
34978,64898,5
34973,64891,5
34978,64894,5
34974,64886,4
34978,64884,5
34974,64886,6
34966,64874,4
34962,64881,5
34969,64870,4
34961,64873,5
34964,64879,5
34960,64876,5
34963,64878,5
34959,64861,4
34957,64864,5
34957,64869,5
34965,64872,5
34961,64868,4
34963,64859,5
34954,64847,5
34943,64820,5
34922,64784,5
34893,64733,4
34877,64705,5
34861,64670,5
34862,64688,5
34862,64702,5
34869,64730,4
34888,64749,5
34899,64766,5
34916,64788,5
34932,64797,5
34924,64791,4
34898,64740,5
34872,64686,5
34845,64655,5
34834,64642,5
34834,64629,4
34833,64636,5
34836,64634,5
34848,64650,5
34845,64653,4
34850,64671,5
34863,64698,5
34877,64709,5
34889,64711,5
34862,64680,4
34850,64657,5
34843,64638,5
34837,64637,5
34842,64641,5
34839,64639,5
34847,64655,4
34853,64669,5
34862,64684,5
34858,64668,5
34867,64657,4
34862,64670,5
34872,64703,5
34891,64751,5
34915,64787,5
34936,64824,4
34963,64853,5
34972,64884,5
34980,64906,5
34983,64895,4
34971,64887,5
34972,64879,5
34975,64880,5
34970,64879,5
34984,64890,4
34975,64899,5
34998,64915,6
35006,64937,4
35013,64952,5
35014,64963,4
35019,64966,7
35026,64974,3
35019,64958,5
35023,64969,5
35045,64984,4
35044,64997,5
35057,65020,5
35078,65040,5
35080,65059,5
35091,65084,4
35107,65103,5
35116,65125,5
35113,65137,5
35128,65152,4
35134,65158,5
35137,65159,5
35143,65173,5
35145,65172,5
35145,65183,4
35155,65192,5
35144,65187,5
35148,65208,6
35154,65209,4
35169,65224,4
35176,65222,5
35177,65235,5
35176,65248,5
35179,65247,5
35180,65249,4
35187,65248,5
35172,65243,5
35174,65252,5
35184,65249,4
35187,65257,4
35185,65247,5
35190,65246,5
35184,65247,5
35169,65231,4
35184,65239,5
35183,65236,5
35177,65245,5
35186,65245,5
35191,65256,5
35187,65258,4
35184,65252,5
35199,65258,5
35186,65265,6
35190,65277,3
35191,65270,5
35207,65286,5
35206,65296,5
35218,65301,5
35222,65309,4
35221,65312,5
35231,65334,5
35235,65347,5
35244,65351,4
35241,65355,5
35253,65367,5
35255,65373,5
35267,65391,5
35267,65397,4
35271,65402,5
35282,65421,5
35294,65430,5
35307,65441,5
35300,65441,4
35306,65461,6
35308,65472,4
35330,65474,5
35326,65487,5
35332,65494,6
35346,65508,3
35355,65504,5
35341,65514,5
35350,65525,5
35348,65529,4
35361,65528,5
35357,65526,5
35352,65539,5
35348,65537,4
35367,65529,5
35354,65537,5
35358,65544,5
35359,65544,5
35359,65547,4
35362,65549,5
35353,65551,5
35356,65558,5
35358,65550,5
35367,65554,4
35366,65555,5
35368,65555,6
35367,65566,4
35372,65565,5
35369,65572,4
35383,65582,5
35385,65594,5
35384,65588,5
35393,65603,5
35399,65610,4
35391,65623,5
35401,65619,5
35402,65618,5
35406,65631,4
35411,65648,5
35414,65635,5
35416,65634,5
35417,65647,5
35415,65647,4
35421,65645,5
35425,65651,5
35417,65643,5
35424,65652,10
35414,65655,4
35426,65652,5
35427,65655,6
35427,65663,4
35421,65665,4
35432,65660,5
35439,65670,5
35437,65671,5
35442,65668,4
35440,65672,4
35433,65683,5
35435,65683,5
35439,65679,5
35448,65681,4
35449,65696,5
35439,65684,5
35445,65678,5
35444,65686,5
35440,65689,4
35439,65688,5
35438,65689,5
35441,65685,5
35446,65690,5
35443,65696,5
35444,65698,4
35443,65701,5
35450,65703,5
35452,65700,6
35456,65714,3
35460,65716,5
35467,65709,5
35461,65726,5
35459,65724,4
35470,65718,5
35464,65736,5
35471,65720,5
35472,65737,5
35478,65736,4
35479,65746,5
35487,65742,5
35486,65759,5
35493,65765,5
35484,65762,4
35487,65763,5
35492,65774,5
35494,65775,5
35505,65783,5
35509,65796,4
35510,65792,6
35504,65791,4
35515,65795,5
35507,65793,5
35511,65802,4
35514,65788,5
35510,65792,5
35506,65795,5
35508,65799,4
35523,65808,5
35513,65800,5
35510,65800,5
35518,65795,5
35519,65796,4
35504,65790,5
35502,65793,5
35497,65779,5
35504,65786,5
35507,65783,4
35505,65779,5
35499,65782,5
35493,65775,5
35501,65783,5
35492,65777,4
35499,65771,5
35491,65776,6
35500,65783,4
35487,65768,4
35497,65781,4
35491,65775,5
35493,65761,5
35482,65769,5
35483,65757,4
35474,65753,5
35479,65747,5
35476,65738,5
35464,65740,5
35467,65729,4
35468,65733,5
35463,65722,5
35458,65705,5
35453,65716,5
35453,65702,4
35445,65703,5
35446,65692,5
35442,65693,5
35428,65677,5
35425,65659,4
35434,65653,5
35425,65658,5
35427,65645,6
35424,65641,3
35421,65638,4
35402,65631,5
35408,65622,5
35411,65617,5
35408,65612,4
35408,65613,5
35408,65622,5
35397,65617,5
35396,65613,5
35400,65610,4
35398,65608,5
35397,65619,5
35402,65610,5
35398,65619,5
35404,65619,4
35404,65617,5
35401,65609,5
35412,65622,5
35400,65622,5
35408,65620,5
35415,65622,4
35403,65630,5
35405,65630,5
35406,65624,4
35408,65628,5
35414,65634,5
35409,65638,5
35421,65636,5
35416,65641,4
35414,65633,5
35409,65630,5
35406,65637,5
35415,65633,5
35403,65621,4
35400,65623,5
35403,65619,5
35397,65631,5
35401,65610,5
35402,65599,4
35390,65610,5
35394,65594,5
35395,65590,5
35392,65596,4
35390,65575,4
35385,65583,6
35385,65571,4
35378,65569,5
35374,65566,4
35366,65562,5
35373,65551,5
35366,65549,5
35363,65550,5
35363,65538,4
35352,65535,5
35347,65522,5
35354,65526,5
35351,65519,5
35355,65528,4
35343,65517,5
35343,65511,5
35351,65514,5
35334,65514,5
35341,65514,4
35341,65516,5
35344,65518,5
35336,65517,5
35341,65513,4
35342,65509,5
35344,65504,5
35342,65509,5
35335,65503,5
35344,65518,4
35342,65515,5
35342,65507,5
35335,65510,5
35340,65502,5
35331,65496,4
35336,65503,5
35340,65494,5
35339,65483,5
35326,65483,5
35326,65487,4
35332,65484,5
35326,65481,5
35320,65486,5
35320,65478,5
35310,65473,4
35311,65473,5
35319,65468,5
35307,65459,5
35303,65453,5
35300,65438,4
35300,65431,5
35294,65424,5
35287,65428,5
35281,65425,4
35281,65418,5
35282,65418,5
35285,65422,5
35286,65429,5
35282,65416,4
35284,65412,5
35273,65408,5
35268,65395,5
35271,65396,5
35267,65396,4
35272,65386,5
35259,65386,5
35263,65390,5
35268,65389,4
35261,65380,4
35261,65373,5
35268,65380,5
35261,65384,5
35261,65382,4
35260,65372,6
35256,65375,4
35250,65370,5
35260,65368,5
35255,65371,4
35263,65374,5
35260,65377,5
35265,65385,5
35266,65384,5
35258,65384,4
35262,65382,5
35259,65387,5
35266,65375,5
35263,65382,5
35258,65390,4
35261,65383,5
35267,65385,5
35258,65391,5
35246,65379,4
35262,65381,4
35263,65368,5
35252,65374,5
35264,65370,4
35259,65379,4
35262,65371,5
35253,65366,5
35269,65374,5
35248,65360,5
35258,65368,4
35252,65365,5
35268,65364,5
35255,65362,5
35255,65368,5
35257,65370,4
35262,65373,5
35263,65359,5
35255,65371,5
35257,65368,5
35260,65361,4
35253,65360,5
35244,65363,5
35258,65367,5
35253,65349,5
35240,65354,4
35248,65354,5
35245,65348,5
35245,65350,6
35247,65345,3
35249,65348,5
35247,65348,5
35256,65341,5
35238,65342,5
35238,65353,4
35242,65350,5
35236,65347,5
35240,65342,5
35241,65338,5
35242,65339,4
35243,65348,5
35241,65341,5
35236,65337,5
35240,65335,5
35235,65344,4
35240,65337,5
35229,65338,5
35236,65347,5
35241,65340,4
35245,65335,6
35231,65345,4
35233,65331,5
35240,65341,5
35240,65343,6
35235,65340,3
35241,65334,5
35238,65337,5
35233,65329,5
35239,65333,4
35244,65333,5
35225,65326,5
35233,65323,5
35225,65312,5
35217,65299,4
35213,65294,5
35205,65299,5
35209,65292,5
35204,65284,4
35199,65283,4
35188,65271,5
35189,65277,5
35191,65261,5
35199,65258,4
35188,65248,5
35191,65253,6
35185,65270,4
35189,65263,5
35194,65260,4
35195,65256,5
35189,65252,5
35189,65252,5
35185,65250,5
35186,65258,4
35185,65259,5
35189,65254,5
35182,65255,5
35180,65259,5
35183,65250,4
35193,65253,5
35187,65260,5
35187,65248,5
35188,65248,4
35188,65252,4
35184,65255,5
35182,65256,5
35184,65255,5
35182,65250,4
35179,65248,5
35180,65259,5
35185,65266,6
35192,65259,4
35199,65261,4
35197,65269,5
35200,65272,5
35197,65269,5
35198,65276,5
35205,65271,4
35200,65284,5
35206,65280,5
35206,65279,5
35197,65276,5
35202,65277,4
35206,65266,5
35201,65272,5
35203,65266,5
35192,65267,4
35194,65265,4
35190,65270,5
35205,65273,5
35195,65278,5
35205,65269,5
35195,65266,4
35194,65269,5
35199,65274,5
35195,65274,6
35210,65269,3
35202,65272,5
35199,65263,5
35195,65263,5
35202,65263,5
35200,65261,4
35186,65265,5
35194,65261,5
35202,65261,5
35194,65265,5
35193,65274,4
35195,65265,5
35200,65268,5
35188,65270,5
35198,65271,4
35197,65268,5
35192,65274,5
35194,65267,5
35198,65276,5
35197,65270,4
35192,65274,6
35204,65267,4
35195,65266,5
35201,65277,5
35206,65275,4
35203,65267,5
35199,65275,5
35192,65261,5
35213,65265,5
35192,65267,4
35200,65273,5
35199,65268,5
35212,65272,5
35196,65270,5
35202,65275,4
35195,65270,5
35208,65277,5
35204,65272,5
35202,65273,4
35200,65273,5
35204,65266,5
35203,65272,5
35208,65279,5
35192,65275,4
35204,65269,5
35192,65272,6
35199,65263,4
35198,65277,5
35196,65262,4
35196,65261,5
35186,65261,5
35193,65263,5
35187,65241,5
35185,65250,4
35190,65255,5
35183,65246,5
35182,65249,5
35189,65251,5
35180,65260,8
35180,65250,1
35193,65261,5
35185,65255,5
35183,65254,4
35189,65253,5
35195,65264,5
35186,65259,5
35192,65259,5
35185,65252,4
35185,65261,5
35193,65259,5
35193,65261,6
35190,65257,4
35184,65259,4
35191,65258,5
35194,65268,5
35186,65263,5
35188,65274,5
35194,65266,4
35192,65269,5
35192,65259,5
35191,65270,5
35194,65263,5
35182,65254,4
35180,65249,5
35173,65248,5
35175,65248,5
35169,65242,4
35170,65236,5
35172,65238,5
35173,65241,5
35170,65233,5
35182,65236,5
35177,65230,4
35172,65239,5
35177,65237,5
35180,65240,5
35186,65245,4
35183,65248,5
35175,65245,5
35190,65248,5
35187,65256,5
35183,65248,4
35183,65251,5
35189,65256,5
35190,65264,5
35192,65255,4
35199,65265,4
35198,65265,5
35202,65272,5
35198,65276,5
35204,65277,4
35201,65275,5
35205,65280,5
35211,65289,5
35206,65277,5
35205,65279,4
35205,65290,6
35202,65285,4
35215,65292,5
35211,65295,5
35214,65289,4
35214,65293,5
35208,65292,5
35205,65294,5
35203,65298,5
35213,65293,4
35208,65288,5
35206,65293,5
35207,65291,5
35213,65291,4
35205,65288,4
35206,65287,5
35208,65291,5
35203,65285,5
35208,65278,4
35203,65291,5
35211,65295,5
35201,65285,5
35209,65287,5
35203,65291,4
35212,65289,5
35206,65304,6
35212,65301,4
35214,65307,5
35221,65311,4
35220,65315,5
35223,65319,5
35226,65327,5
35232,65332,5
35238,65336,4
35239,65338,5
35244,65345,5
35243,65361,5
35251,65369,4
35262,65378,5
35264,65380,5
35270,65388,5
35267,65392,5
35281,65394,4
35278,65413,5
35281,65420,5
35273,65410,5
35283,65407,5
35274,65417,4
35276,65414,5
35273,65411,5
35288,65422,5
35287,65419,5
35282,65424,4
35291,65419,5
35286,65421,5
35275,65417,5
35276,65410,5
35281,65419,4
35278,65408,5
35266,65397,5
35270,65402,5
35273,65392,4
35267,65393,5
35266,65379,5
35259,65375,5
35259,65378,5
35257,65373,4
35256,65368,5
35256,65381,5
35253,65370,5
35249,65377,5
35263,65375,5
35252,65372,4
35259,65364,5
35250,65382,5
35249,65366,5
35251,65367,4
35250,65349,5
35249,65366,5
35249,65363,5
35242,65360,4
35250,65342,4
35242,65349,5
35243,65344,5
35240,65340,5
35228,65331,4
35219,65316,5
35211,65303,5
35215,65281,5
35204,65280,5
35197,65271,4
35192,65252,5
35187,65246,5
35189,65246,5
35182,65241,5
35169,65234,4
35174,65230,6
35169,65240,4
35177,65227,5
35181,65235,5
35175,65237,4
35172,65231,5
35182,65238,5
35184,65237,5
35171,65240,4
35170,65230,5
35181,65229,5
35180,65231,5
35181,65242,5
35178,65238,4
35173,65227,5
35182,65239,5
35192,65248,5
35184,65247,5
35188,65250,4
35187,65252,5
35190,65249,5
35188,65256,5
35189,65258,5
35191,65262,4
35197,65256,5
35210,65266,5
35203,65267,5
35197,65263,5
35197,65263,4
35189,65253,5
35194,65255,5
35184,65246,5
35195,65266,4
35191,65246,5
35184,65250,5
35185,65242,5
35183,65253,5
35181,65248,4
35180,65242,5
35184,65239,5
35186,65234,5
35178,65234,5
35178,65233,4
35181,65233,4
35183,65234,5
35180,65239,5
35177,65230,6
35182,65239,3
35185,65237,5
35182,65241,5
35190,65239,5
35195,65241,4
35192,65247,4
35194,65251,5
35190,65261,5
35200,65266,5
35199,65263,4
35199,65265,5
35209,65274,5
35202,65267,5
35200,65273,5
35195,65271,4
35205,65270,5
35202,65275,5
35205,65275,5
35198,65284,5
35209,65273,4
35213,65281,6
35206,65284,4
35201,65291,5
35211,65289,5
35210,65289,6
35206,65282,3
35204,65282,5
35214,65293,5
35214,65285,4
35217,65291,4
35210,65291,5
35212,65287,5
35202,65276,5
35224,65289,4
35211,65282,5
35209,65292,5
35216,65289,5
35207,65289,5
35212,65293,4
35210,65300,5
35216,65295,5
35214,65295,5
35212,65291,5
35211,65298,4
35212,65306,5
35212,65307,6
35222,65298,4
35202,65304,5
35209,65303,4
35215,65300,5
35216,65307,5
35212,65307,5
35218,65304,4
35217,65303,5
35217,65311,5
35222,65303,5
35224,65304,5
35219,65319,4
35224,65329,5
35244,65335,5
35243,65339,5
35252,65352,5
35258,65361,4
35258,65366,5
35260,65386,5
35262,65395,5
35269,65390,5
35280,65388,4
35275,65403,5
35276,65405,5
35283,65408,6
35280,65417,4
35294,65420,4
35293,65430,5
35291,65437,5
35301,65437,5
35299,65445,4
35309,65446,5
35310,65467,5
35319,65469,5
35326,65472,5
35329,65488,4
35332,65506,5
35337,65513,5
35340,65515,5
35342,65514,5
35351,65522,4
35356,65536,5
35355,65528,5
35358,65544,5
35369,65547,5
35363,65559,5
35369,65560,4
35362,65559,5
35370,65563,5
35366,65565,6
35369,65552,3
35368,65554,5
35367,65560,5
35367,65553,5
35362,65555,4
35368,65553,5
35366,65568,5
35370,65563,5
35379,65566,5
35375,65573,4
35375,65576,5
35381,65575,5
35380,65573,5
35382,65566,5
35379,65581,4
35380,65586,5
35383,65584,5
35388,65591,5
35383,65591,5
35387,65592,4
35389,65592,6
35380,65596,4
35381,65587,5
35379,65596,4
35395,65589,4
35382,65593,5
35389,65589,5
35389,65601,5
35386,65599,4
35399,65600,5
35398,65604,5
35392,65600,5
35387,65606,5
35402,65607,4
35409,65615,5
35406,65624,5
35408,65629,5
35409,65627,5
35406,65629,4
35410,65618,5
35408,65639,5
35410,65635,5
35422,65638,5
35411,65640,4
35417,65636,5
35408,65632,6
35416,65635,4
35411,65629,4
35403,65631,4
35405,65632,5
35423,65630,5
35407,65634,5
35416,65643,4
35419,65642,5
35416,65647,5
35429,65645,5
35419,65653,5
35431,65666,4
35437,65682,5
35438,65685,5
35449,65689,5
35443,65698,5
35450,65697,4
35456,65703,5
35462,65717,5
35466,65713,5
35470,65730,5
35468,65729,4
35479,65742,5
35482,65746,5
35492,65767,6
35492,65768,3
35502,65775,5
35505,65787,5
35506,65800,5
35519,65801,5
35517,65814,4
35537,65814,5
35523,65825,5
35529,65833,5
35542,65837,5
35535,65833,4
35545,65847,5
35548,65851,5
35541,65847,5
35548,65867,5
35547,65866,4
35553,65866,5
35551,65878,5
35558,65886,5
35571,65894,5
35564,65882,5
35560,65886,4
35557,65887,5
35569,65885,5
35567,65883,4
35555,65889,5
35568,65887,5
35559,65881,5
35565,65880,5
35553,65882,4
35558,65877,5
35557,65880,5
35569,65884,5
35564,65884,5
35564,65874,4
35568,65884,5
35558,65878,5
35570,65878,5
35565,65889,5
35562,65893,4
35556,65895,5
35572,65888,5
35572,65903,5
35567,65907,5
35572,65905,4
35573,65906,6
35569,65894,4
35570,65905,5
35566,65900,4
35575,65902,5
35565,65898,7
35565,65897,3
35568,65886,5
35557,65878,4
35561,65876,5
35558,65878,5
35555,65863,5
35553,65854,5
35555,65868,4
35542,65860,5
35546,65857,5
35542,65855,5
35537,65849,5
35539,65845,4
35539,65843,5
35541,65853,5
35542,65845,5
35537,65840,5
35534,65840,4
35540,65837,5
35526,65833,6
35530,65831,4
35533,65830,4
35525,65835,5
35532,65842,5
35540,65843,5
35535,65840,5
35535,65836,4
35536,65838,5
35523,65830,5
35521,65830,5
35521,65829,5
35525,65835,4
35529,65837,5
35537,65822,5
35526,65822,5
35526,65812,5
35528,65817,4
35521,65823,5
35527,65823,5
35526,65813,5
35519,65815,5
35518,65803,4
35521,65825,5
35522,65814,5
35516,65812,5
35519,65799,4
35520,65797,5
35508,65800,5
35506,65793,5
35511,65782,5
35495,65779,4
35505,65772,5
35497,65772,5
35500,65761,5
35491,65768,5
35490,65765,4
35495,65752,5
35482,65754,5
35485,65759,5
35481,65748,5
35488,65750,4
35476,65744,5
35480,65747,5
35480,65739,5
35476,65749,4
35479,65743,5
35474,65745,4
35477,65747,5
35473,65740,5
35475,65738,4
35474,65740,5
35476,65744,5
35487,65742,5
35480,65743,5
35479,65740,4
35476,65733,5
35472,65736,5
35476,65734,5
35463,65717,5
35471,65727,4
35463,65719,5
35459,65716,5
35468,65708,5
35461,65709,5
35453,65706,4
35449,65706,5
35445,65690,5
35444,65691,5
35449,65692,4
35440,65686,4
35446,65679,6
35439,65664,4
35434,65658,5
35422,65643,4
35414,65642,5
35409,65637,5
35409,65630,5
35408,65623,5
35407,65619,4
35408,65610,5
35401,65616,5
35405,65622,5
35401,65619,5
35401,65610,4
35397,65615,5
35405,65603,5
35394,65605,5
35402,65604,5
35395,65599,4
35392,65593,5
35397,65585,5
35380,65590,5
35382,65591,4
35389,65586,5
35371,65579,5
35379,65584,5
35390,65592,5
35384,65581,4
35382,65581,5
35366,65579,5
35375,65582,5
35381,65569,5
35375,65570,4
35375,65579,5
35380,65569,5
35383,65579,5
35382,65578,5
35395,65573,4
35381,65581,5
35380,65574,5
35375,65576,5
35379,65571,5
35376,65572,4
35378,65574,5
35376,65578,5
35373,65569,5
35372,65559,5
35365,65569,4
35367,65558,5
35366,65552,5
35369,65552,5
35366,65557,4
35368,65559,5
35370,65548,5
35363,65556,5
35362,65558,5
35372,65556,4
35362,65545,5
35367,65570,5
35377,65568,5
35371,65563,5
35384,65559,4
35374,65575,5
35373,65564,5
35372,65565,5
35374,65566,4
35373,65560,4
35362,65555,6
35366,65561,4
35368,65552,5
35366,65545,4
35361,65534,7
35353,65526,3
35361,65549,5
35346,65527,5
35353,65535,4
35345,65522,5
35354,65530,5
35337,65522,5
35340,65517,5
35340,65504,4
35336,65512,5
35335,65492,5
35336,65503,5
35332,65488,5
35333,65493,4
35329,65492,5
35329,65486,5
35318,65493,5
35315,65479,4
35321,65479,4
35314,65474,5
35313,65473,6
35313,65451,4
35315,65453,4
35304,65462,5
35307,65464,5
35305,65446,5
35307,65444,5
35304,65453,4
35303,65440,5
35302,65445,5
35303,65446,5
35300,65447,5
35303,65435,4
35303,65436,5
35300,65433,5
35297,65441,5
35301,65432,5
35290,65426,4
35281,65419,5
35290,65406,5
35281,65407,5
35274,65406,5
35281,65395,4
35272,65389,5
35269,65376,5
35265,65377,6
35263,65379,3
35258,65380,5
35266,65378,5
35261,65380,5
35262,65377,5
35260,65383,4
35265,65388,5
35255,65383,5
35255,65374,5
35261,65371,5
35265,65372,4
35263,65381,5
35260,65378,5
35258,65369,5
35250,65369,5
35253,65370,4
35261,65371,5
35256,65365,5
35248,65366,5
35244,65359,4
35248,65346,5
35246,65346,4
35237,65348,5
35239,65346,5
35233,65339,6
35228,65325,3
35226,65325,5
35230,65332,5
35234,65329,5
35239,65329,4
35240,65335,5
35242,65322,5
35236,65326,5
35233,65338,5
35236,65332,4
35232,65325,5
35230,65330,5
35237,65330,5
35233,65328,5
35240,65335,4
35235,65330,5
35235,65338,5
35240,65337,5
35239,65336,4
35232,65336,5
35242,65337,6
35242,65336,4
35239,65343,5
35237,65338,4
35239,65347,5
35236,65350,5
35249,65359,5
35230,65360,5
35245,65356,4
35249,65349,5
35254,65360,5
35251,65347,5
35259,65357,5
35258,65363,4
35261,65366,5
35266,65368,5
35261,65366,5
35254,65371,5
35249,65358,4
35261,65358,5
35257,65363,5
35246,65360,5
35244,65355,4
35256,65350,5
35257,65355,5
35247,65341,6
35246,65346,4
35240,65342,4
35235,65339,5
35242,65344,5
35229,65330,5
35229,65325,5
35230,65321,4
35235,65324,5
35231,65320,5
35230,65304,5
35222,65319,5
35222,65314,4
35224,65316,5
35228,65300,5
35229,65306,5
35224,65303,5
35220,65307,4
35221,65300,5
35216,65300,5
35220,65305,5
35222,65302,5
35221,65310,4
35228,65309,5
35214,65305,5
35223,65308,6
35236,65319,3
35226,65314,5
35221,65313,5
35221,65317,5
35225,65315,5
35223,65319,4
35219,65312,5
35230,65314,5
35232,65311,5
35217,65306,5
35224,65309,4
35217,65305,5
35217,65311,5
35217,65308,5
35223,65303,4
35226,65303,4
35222,65302,5
35219,65307,5
35215,65304,5
35212,65301,4
35219,65293,6
35215,65302,4
35216,65290,5
35214,65295,5
35212,65303,4
35213,65290,5
35204,65292,5
35205,65290,5
35211,65286,5
35208,65285,4
35209,65285,5
35221,65297,5
35210,65296,5
35210,65299,5
35211,65297,4
35204,65291,5
35216,65291,5
35208,65291,5
35215,65288,4
35211,65294,4
35212,65289,5
35206,65293,5
35208,65285,5
35208,65282,4
35202,65284,5
35207,65286,6
35209,65281,4
35205,65278,5
35207,65287,4
35203,65281,5
35203,65273,5
35196,65266,5
35196,65258,5
35196,65256,4
35183,65262,5
35194,65264,5
35188,65260,5
35199,65259,5
35183,65254,4
35193,65257,5
35189,65255,5
35195,65273,5
35194,65281,4
35199,65280,4
35208,65281,5
35205,65291,5
35208,65278,5
35215,65287,4
35212,65292,5
35216,65295,5
35219,65296,6
35213,65308,4
35219,65304,4
35221,65317,5
35223,65310,5
35224,65315,5
35232,65321,5
35232,65315,4
35230,65321,5
35229,65324,5
35230,65325,5
35225,65324,5
35228,65322,4
35229,65315,5
35234,65332,5
35233,65335,5
35240,65340,4
35234,65338,5
35238,65342,5
35231,65339,5
35237,65340,5
35237,65344,5
35233,65321,4
35223,65335,5
35239,65325,5
35238,65325,5
35233,65332,4
35227,65327,5
35233,65325,5
35235,65333,5
35227,65332,5
35225,65330,4
35228,65315,5
35231,65318,5
35223,65320,5
35217,65311,5
35218,65299,4
35211,65296,5
35208,65293,5
35210,65276,5
35206,65268,4
35193,65269,5
35199,65260,10
35198,65254,5
35187,65244,4
35183,65252,6
35188,65248,4
35193,65254,5
35188,65240,5
35178,65238,4
35175,65232,5
35166,65214,5
35163,65217,5
35162,65215,5
35161,65202,4
35159,65198,5
35152,65190,5
35156,65188,5
35154,65190,4
35144,65163,4
35133,65174,5
35142,65166,5
35128,65153,5
35136,65141,4
35130,65159,5
35130,65155,5
35122,65143,5
35124,65142,5
35117,65135,4
35114,65129,5
35113,65123,6
35105,65134,4
35112,65119,5
35112,65133,4
35115,65130,5
35107,65137,5
35120,65127,5
35119,65139,5
35129,65141,4
35121,65146,5
35130,65152,5
35123,65159,5
35126,65166,4
35135,65170,4
35137,65170,5
35127,65158,5
35135,65159,5
35137,65172,4
35130,65170,5
35133,65167,5
35134,65162,5
35134,65163,5
35137,65162,4
35128,65166,5
35132,65156,5
35128,65165,5
35136,65164,5
35135,65167,4
35132,65170,5
35133,65166,5
35129,65175,5
35132,65179,5
35136,65180,4
35136,65182,5
35148,65195,5
35144,65195,5
35153,65200,4
35151,65197,5
35156,65204,5
35168,65209,5
35149,65212,5
35162,65214,4
35163,65208,5
35164,65221,5
35155,65223,5
35167,65211,5
35161,65224,5
35146,65215,4
35161,65211,5
35166,65212,5
35156,65219,5
35153,65210,4
35160,65206,5
35156,65208,5
35156,65205,5
35151,65193,5
35145,65199,4
35145,65176,5
35148,65177,5
35140,65170,5
35138,65159,4
35138,65153,5
35125,65150,5
35128,65145,5
35119,65136,5
35117,65122,4
35103,65111,5
35107,65126,5
35105,65109,5
35087,65091,5
35090,65090,4
35083,65081,6
35087,65072,3
35083,65059,5
35077,65063,5
35076,65056,4
35080,65064,5
35066,65054,5
35071,65049,5
35066,65046,4
35077,65061,4
35072,65058,5
35076,65057,5
35080,65065,5
35083,65071,4
35091,65077,5
35072,65078,5
35085,65089,5
35094,65083,5
35098,65092,4
35093,65104,5
35107,65101,5
35110,65112,6
35106,65112,4
35116,65125,4
35118,65129,5
35118,65138,5
35117,65130,5
35107,65137,5
35119,65140,4
35126,65138,5
35122,65144,5
35120,65147,5
35125,65144,4
35129,65146,4
35127,65155,5
35118,65154,5
35129,65170,5
35139,65167,4
35137,65173,5
35139,65169,5
35134,65173,5
35147,65185,5
35139,65166,5
35148,65170,4
35140,65176,5
35141,65177,5
35144,65177,6
35150,65175,3
35136,65178,5
35141,65185,5
35149,65188,5
35149,65191,5
35136,65189,4
35148,65198,5
35148,65189,5
35158,65205,5
35158,65196,4
35164,65204,5
35148,65213,5
35158,65205,5
35158,65209,5
35161,65218,4
35161,65212,5
35161,65216,5
35157,65222,5
35173,65235,5
35176,65240,4
35171,65237,6
35180,65255,4
35180,65250,5
35183,65254,5
35192,65271,6
35192,65279,3
35207,65289,5
35214,65305,5
35214,65322,5
35225,65319,4
35220,65327,5
35229,65338,5
35237,65360,5
35244,65349,4
35244,65360,5
35246,65369,5
35254,65371,5
35254,65371,5
35254,65381,4
35262,65395,5
35260,65390,5
35266,65398,5
35272,65395,5
35271,65414,4
35275,65414,5
35275,65416,6
35282,65424,4
35282,65433,5
35289,65425,4
35293,65441,5
35293,65438,5
35297,65438,5
35298,65445,4
35298,65442,4
35301,65454,5
35298,65452,5
35294,65451,5
35301,65453,4
35299,65451,5
35304,65449,5
35298,65458,5
35300,65452,5
35297,65454,4
35299,65451,5
35295,65439,5
35293,65449,5
35300,65449,5
35304,65450,4
35308,65456,5
35303,65455,5
35299,65458,6
35299,65460,4
35305,65463,4
35314,65472,5
35313,65473,5
35309,65472,5
35315,65473,4
35318,65485,4
35329,65493,5
35317,65489,5
35329,65507,5
35337,65511,4
35336,65517,5
35341,65523,5
35348,65530,5
35356,65545,5
35356,65560,4
35363,65560,5
35353,65554,5
35365,65557,5
35367,65562,5
35366,65563,5
35368,65567,4
35366,65567,5
35362,65576,5
35363,65575,6
35369,65565,3
35363,65568,5
35364,65558,5
35368,65565,5
35373,65567,4
35361,65566,5
35365,65559,5
35367,65564,5
35372,65561,5
35360,65554,4
35356,65560,5
35356,65556,5
35364,65568,5
35363,65559,5
35356,65557,4
35360,65559,5
35364,65554,5
35361,65562,5
35361,65577,5
35361,65580,4
35355,65577,6
35353,65568,4
35370,65568,5
35361,65565,5
35379,65578,4
35370,65586,5
35375,65585,5
35373,65591,5
35377,65598,4
35380,65609,5
35391,65613,5
35383,65609,5
35394,65616,5
35389,65629,4
35402,65639,5
35414,65646,5
35426,65662,5
35418,65667,5
35422,65669,4
35432,65663,5
35426,65656,5
35429,65662,5
35425,65658,5
35435,65666,4
35432,65682,5
35437,65688,6
35437,65686,4
35425,65676,4
35430,65676,4
35441,65679,5
35423,65674,5
35431,65681,5
35430,65681,4
35443,65693,5
35444,65699,5
35445,65714,5
35455,65723,5
35460,65722,4
35467,65741,5
35478,65750,5
35473,65755,5
35468,65747,5
35474,65751,4
35467,65746,5
35473,65749,5
35473,65747,5
35468,65751,5
35467,65751,4
35472,65749,5
35479,65759,5
35483,65774,6
35491,65778,3
35485,65787,4
35497,65802,5
35495,65797,5
35514,65813,5
35515,65820,4
35521,65838,5
35524,65847,5
35517,65842,5
35517,65830,5
35521,65843,4
35529,65848,5
35533,65843,5
35539,65858,5
35538,65862,5
35535,65863,4
35546,65860,5
35540,65868,5
35542,65877,5
35544,65879,5
35553,65877,5
35550,65886,4
35554,65886,5
35545,65881,5
35533,65852,4
35533,65844,4
35523,65843,5
35520,65831,5
35509,65814,5
35510,65822,4
35511,65833,5
35518,65832,5
35525,65837,5
35530,65850,5
35535,65860,4
35548,65881,5
35542,65876,5
35533,65866,5
35536,65870,5
35541,65869,4
35539,65873,5
35534,65877,5
35539,65870,5
35549,65879,5
35545,65873,4
35536,65864,6
35534,65878,4
35554,65898,5
35560,65906,4
35573,65924,5
35581,65943,5
35579,65941,5
35582,65960,5
35599,65970,4
35599,65974,5
35601,65986,5
35604,65969,5
35591,65971,5
35588,65964,4
35588,65951,5
35580,65948,5
35578,65942,5
35580,65936,5
35578,65938,4
35579,65932,5
35570,65931,5
35571,65923,5
35564,65919,5
35574,65917,4
35566,65932,5
35570,65926,6
35564,65910,4
35560,65902,4
35544,65882,5
35541,65875,5
35530,65857,5
35528,65850,5
35525,65844,4
35503,65834,5
35504,65821,5
35508,65824,5
35503,65813,5
35501,65816,4
35502,65810,5
35504,65802,5
35483,65804,5
35497,65797,5
35489,65793,4
35487,65775,5
35478,65770,5
35479,65772,5
35482,65774,5
35474,65760,4
35471,65745,5
35468,65747,5
35463,65746,5
35463,65742,4
35471,65736,5
35444,65727,5
35446,65725,5
35448,65715,5
35443,65714,4
35445,65720,5
35431,65699,5
35439,65699,8
35434,65703,2
35430,65692,4
35423,65687,5
35434,65687,5
35421,65689,5
35423,65689,5
35420,65687,4
35424,65682,5
35422,65681,5
35420,65683,5
35433,65683,4
35426,65687,5
35423,65681,4
35425,65684,5
35438,65683,5
35429,65683,4
35418,65669,5
35416,65671,5
35413,65662,5
35412,65666,5
35423,65664,4
35410,65662,5
35410,65664,5
35410,65668,5
35413,65654,5
35412,65666,4
35405,65659,5
35407,65659,5
35404,65655,5
35409,65657,5
35403,65636,4
35406,65660,5
35411,65651,5
35404,65650,5
35407,65642,4
35408,65652,5
35398,65643,6
35405,65649,4
35406,65647,5
35409,65641,4
35408,65640,5
35402,65636,5
35402,65642,5
35403,65635,5
35395,65632,4
35402,65623,5
35393,65631,5
35400,65624,5
35396,65625,5
35399,65631,4
35388,65635,5
35391,65633,5
35401,65630,5
35399,65630,5
35387,65630,4
35388,65624,5
35389,65630,5
35389,65621,5
35389,65616,3
35387,65617,5
35399,65620,5
35389,65611,5
35386,65616,5
35382,65616,4
35377,65603,5
35375,65605,5
35384,65599,5
35372,65597,5
35364,65596,4
35373,65591,5
35372,65579,5
35363,65585,5
35360,65568,5
35359,65565,4
35359,65566,5
35356,65568,5
35351,65564,5
35352,65555,4
35343,65546,5
35355,65546,4
35353,65549,5
35351,65545,5
35350,65542,6
35342,65548,3
35345,65552,5
35346,65559,5
35340,65544,5
35335,65543,4
35337,65539,5
35336,65528,5
35343,65541,5
35330,65538,5
35330,65527,4
35330,65525,5
35330,65521,5
35325,65523,5
35328,65510,5
35322,65516,4
35318,65515,5
35335,65506,5
35321,65503,5
35319,65496,4
35309,65498,4
35315,65482,6
35306,65474,4
35295,65466,5
35300,65463,4
35288,65465,7
35297,65460,3
35297,65465,5
35295,65466,5
35292,65464,4
35293,65459,5
35294,65466,5
35295,65461,5
35298,65455,5
35289,65458,4
35296,65457,5
35284,65456,5
35284,65456,5
35283,65453,5
35294,65459,4
35286,65453,5
35284,65457,5
35292,65448,5
35290,65447,4
35277,65443,4
35278,65436,5
35288,65446,6
35269,65434,4
35278,65429,4
35273,65424,5
35272,65414,5
35273,65429,5
35268,65424,5
35278,65433,4
35274,65441,5
35275,65429,5
35272,65421,5
35273,65428,5
35270,65419,4
35271,65430,5
35265,65428,5
35266,65421,5
35278,65426,5
35265,65415,4
35271,65421,5
35267,65418,5
35270,65419,5
35269,65413,5
35272,65422,4
35273,65416,5
35276,65421,5
35267,65416,6
35277,65425,3
35278,65430,5
35280,65436,5
35280,65430,5
35278,65438,5
35291,65434,4
35283,65436,5
35284,65442,5
35287,65435,5
35289,65443,5
35281,65439,4
35283,65433,5
35275,65434,5
35283,65432,5
35274,65420,5
35276,65423,4
35273,65413,5
35274,65416,5
35274,65409,5
35265,65415,4
35266,65409,6
35264,65402,4
35270,65405,5
35262,65404,5
35257,65401,6
35261,65388,3
35255,65397,5
35248,65391,5
35253,65390,5
35253,65385,4
35258,65381,5
35243,65379,5
35251,65382,5
35246,65389,5
35252,65375,4
35252,65377,5
35236,65366,5
35238,65374,5
35245,65364,4
35232,65365,4
35238,65364,5
35244,65367,5
35241,65366,5
35237,65365,4
35237,65360,5
35231,65354,6
35234,65348,4
35241,65346,5
35228,65337,4
35231,65342,5
35225,65341,5
35225,65338,5
35224,65338,5
35215,65328,4
35228,65323,5
35217,65335,5
35225,65328,5
35214,65315,5
35206,65321,4
35208,65314,5
35204,65317,5
35212,65319,5
35207,65328,4
35209,65313,4
35217,65321,5
35215,65318,5
35214,65323,5
35212,65324,4
35210,65320,5
35215,65332,5
35222,65324,6
35209,65326,4
35215,65321,4
35213,65331,5
35206,65321,5
35217,65320,5
35206,65329,5
35208,65318,4
35212,65322,5
35209,65313,5
35212,65324,5
35207,65322,5
35210,65325,4
35210,65324,5
35227,65320,5
35220,65321,5
35227,65318,4
35213,65326,5
35206,65318,5
35211,65307,5
35204,65311,5
35200,65308,5
35205,65307,4
35203,65297,5
35197,65301,5
35195,65284,6
35195,65288,3
35184,65276,5
35184,65271,5
35180,65269,5
35180,65268,5
35171,65266,4
35177,65259,5
35176,65266,5
35178,65253,5
35173,65263,5
35179,65258,4
35179,65270,5
35182,65274,5
35181,65271,5
35187,65276,4
35193,65278,5
35185,65289,5
35197,65283,5
35189,65282,5
35193,65301,4
35199,65299,6
35202,65298,4
35198,65295,5
35200,65311,5
35205,65311,4
35206,65310,5
35210,65311,5
35208,65316,5
35212,65319,5
35216,65313,4
35220,65329,5
35218,65324,5
35219,65330,5
35219,65332,4
35210,65330,4
35222,65332,5
35224,65329,5
35236,65335,5
35221,65333,4
35225,65333,5
35230,65326,5
35218,65325,5
35217,65329,5
35211,65327,4
35213,65327,5
35213,65324,6
35216,65317,4
35214,65321,5
35214,65314,4
35216,65316,5
35213,65311,5
35204,65309,5
35204,65313,5
35207,65304,4
35208,65303,5
35196,65302,5
35205,65310,5
35205,65299,4
35196,65304,4
35196,65292,5
35195,65295,5
35204,65298,5
35202,65296,4
35200,65302,5
35195,65293,5
35195,65305,5
35203,65290,5
35197,65297,4
35206,65304,5
35210,65308,5
35204,65297,6
35198,65315,4
35209,65307,4
35204,65318,5
35204,65308,5
35208,65315,5
35202,65319,5
35201,65320,4
35215,65318,5
35211,65315,5
35200,65308,5
35203,65307,4
35204,65309,4
35206,65301,5
35201,65304,5
35188,65303,5
35203,65301,4
35198,65295,5
35189,65294,5
35188,65287,5
35201,65290,5
35196,65278,5
35184,65279,4
35184,65274,5
35187,65275,5
35180,65270,5
35171,65267,4
35174,65264,5
35176,65249,5
35165,65247,5
35178,65254,5
35167,65263,4
35181,65251,5
35173,65263,5
35173,65259,5
35175,65264,4
35179,65260,5
35186,65261,5
35182,65277,5
35185,65269,5
35188,65275,4
35187,65274,5
35175,65267,5
35177,65263,5
35176,65275,5
35178,65272,4
35190,65270,6
35188,65264,4
35174,65257,5
35178,65262,5
35184,65256,4
35169,65253,5
35177,65261,5
35179,65252,5
35179,65261,5
35175,65264,4
35189,65263,5
35186,65274,5
35184,65273,5
35184,65293,4
35192,65285,5
35192,65295,5
35198,65287,5
35191,65305,5
35192,65300,4
35207,65317,5
35215,65316,5
35214,65324,5
35222,65327,5
35217,65332,4
35221,65319,5
35224,65335,6
35222,65331,4
35229,65325,5
35219,65330,4
35216,65327,5
35223,65331,5
35216,65336,5
35217,65344,4
35216,65344,4
35219,65352,5
35224,65337,5
35227,65337,5
35223,65345,4
35220,65341,5
35220,65337,5
35221,65334,5
35221,65334,5
35219,65325,4
35221,65321,5
35224,65319,5
35213,65305,5
35197,65316,5
35205,65309,4
35204,65293,5
35201,65291,5
35201,65290,5
35191,65292,7
35198,65297,2
35197,65290,5
35196,65294,5
35200,65300,5
35198,65296,4
35198,65296,5
35192,65298,5
35196,65307,5
35206,65299,5
35201,65308,4
35195,65309,5
35200,65312,5
35204,65307,5
35201,65313,5
35214,65308,4
35201,65319,6
35215,65327,4
35208,65325,5
35211,65335,5
35218,65337,6
35220,65332,3
35213,65327,5
35214,65337,5
35217,65323,4
35209,65320,4
35207,65313,5
35205,65308,5
35211,65318,5
35196,65310,4
35203,65301,5
35200,65294,5
35207,65285,5
35187,65297,5
35194,65299,4
35203,65314,5
35207,65313,5
35198,65309,5
35197,65307,5
35196,65294,4
35185,65290,5
35181,65267,6
35166,65246,4
35157,65227,5
35146,65186,4
35125,65173,5
35104,65136,5
35089,65110,5
35076,65067,4
35058,65053,4
35053,65044,5
35046,65021,5
35040,65024,5
35027,65003,4
35018,64997,5
35021,65000,5
35015,65002,5
35017,64990,5
35004,64978,4
35002,64970,5
34999,64973,5
34998,64953,5
35004,64958,5
34997,64951,4
35001,64957,5
34991,64951,5
34996,64939,6
34993,64942,4
34996,64952,4
34994,64938,5
34996,64946,5
35007,64952,5
35014,64963,4
35018,64979,5
35019,64983,5
35024,64999,5
35031,65010,5
35042,65022,4
35054,65030,5
35060,65057,5
35066,65071,5
35070,65078,5
35084,65084,4
35100,65096,5
35098,65115,5
35098,65124,5
35104,65138,5
35099,65139,5
35114,65143,4
35118,65162,5
35116,65154,5
35122,65174,6
35119,65168,3
35124,65186,5
35140,65182,5
35139,65196,5
35143,65193,4
35146,65204,5
35142,65209,5
35148,65211,5
35153,65219,5
35160,65222,4
35162,65225,5
35158,65225,5
35164,65225,5
35165,65222,5
35155,65221,4
35160,65226,5
35166,65224,5
35155,65222,5
35160,65228,5
35159,65236,4
35168,65228,6
35167,65231,4
35174,65239,5
35170,65238,4
35172,65240,5
35165,65227,5
35161,65240,5
35166,65226,5
35164,65229,4
35170,65232,5
35176,65240,5
35165,65250,5
35173,65243,5
35176,65260,4
35186,65255,5
35179,65262,5
35188,65285,5
35193,65283,5
35196,65295,4
35207,65285,5
35203,65291,5
35209,65298,5
35207,65308,4
35212,65317,5
35219,65329,5
35220,65327,6
35225,65338,4
35220,65346,4
35231,65358,5
35233,65351,5
35236,65360,5
35249,65357,5
35234,65367,4
35244,65360,5
35233,65360,5
35242,65360,5
35241,65364,5
35239,65367,4
35248,65368,5
35246,65364,5
35244,65375,5
35239,65371,5
35238,65370,4
35254,65368,5
35249,65378,5
35232,65373,5
35239,65372,5
35248,65377,4
35251,65381,5
35252,65387,5
35245,65383,6
35251,65385,3
35253,65391,5
35267,65395,5
35255,65392,5
35258,65399,5
35256,65401,4
35256,65391,5
35259,65391,5
35252,65395,5
35263,65397,5
35259,65389,4
35255,65378,5
35248,65381,5
35246,65379,5
35257,65394,4
35260,65385,4
35259,65386,5
35259,65401,5
35270,65405,5
35253,65399,4
35253,65409,6
35269,65412,4
35272,65412,5
35273,65422,5
35277,65422,4
35276,65441,5
35283,65423,5
35290,65441,5
35287,65450,5
35291,65450,4
35287,65445,5
35291,65438,5
35297,65466,5
35306,65471,5
35307,65489,4
35320,65488,5
35325,65512,5
35324,65516,5
35326,65529,4
35336,65525,5
35341,65530,5
35337,65535,5
35342,65537,5
35347,65526,4
35344,65524,5
35340,65531,6
35343,65531,4
35340,65531,5
35335,65535,4
35342,65535,5
35355,65548,5
35344,65553,5
35346,65548,5
35356,65550,4
35359,65551,5
35352,65554,5
35351,65561,5
35355,65556,4
35353,65556,4
35364,65564,5
35360,65568,5
35364,65559,5
35365,65571,4
35360,65568,5
35362,65572,5
35366,65576,5
35365,65579,5
35368,65565,4
35369,65574,5
35360,65567,5
35371,65576,6
35361,65572,4
35374,65583,4
35371,65593,5
35380,65596,5
35377,65594,5
35371,65611,5
35386,65601,4
35390,65607,5
35393,65625,5
35401,65620,5
35394,65616,4
35398,65635,5
35395,65630,5
35411,65638,5
35399,65639,5
35411,65649,4
35420,65656,5
35415,65675,5
35425,65676,5
35425,65684,5
35446,65691,5
35435,65689,4
35443,65698,5
35436,65697,5
35449,65708,5
35449,65715,4
35451,65702,5
35446,65705,5
35456,65707,5
35447,65703,4
35453,65703,4
35447,65711,5
35449,65709,5
35450,65710,5
35455,65717,4
35455,65728,5
35459,65719,5
35457,65722,5
35450,65735,5
35456,65738,4
35472,65735,5
35463,65736,5
35465,65734,5
35464,65742,5
35458,65742,4
35462,65745,6
35463,65740,4
35464,65749,5
35468,65762,5
35480,65763,4
35483,65781,5
35478,65784,5
35491,65787,5
35498,65803,4
35494,65805,5
35501,65822,5
35507,65823,5
35513,65833,5
35520,65833,4
35525,65837,5
35528,65842,5
35531,65855,5
35538,65869,5
35552,65869,4
35542,65889,5
35555,65893,5
35563,65900,5
35554,65906,5
35569,65922,4
35578,65920,5
35582,65926,6
35584,65926,4
35589,65945,4
35591,65952,4
35592,65953,5
35589,65960,5
35610,65957,5
35592,65957,4
35590,65950,5
35595,65952,5
35601,65948,5
35596,65955,5
35585,65951,4
35592,65949,5
35587,65947,5
35590,65936,5
35575,65928,5
35585,65935,4
35570,65926,5
35583,65927,5
35574,65924,5
35574,65922,5
35575,65916,4
35583,65914,5
35566,65920,5
35569,65916,5
35566,65915,4
35567,65910,5
35576,65921,5
35574,65913,5
35569,65911,5
35562,65912,4
35572,65922,5
35574,65908,5
35573,65916,5
35565,65914,5
35570,65913,4
35566,65911,5
35560,65924,5
35563,65917,5
35563,65920,5
35564,65901,4
35568,65913,5
35564,65911,5
35565,65899,5
35566,65905,4
35561,65904,5
35548,65887,4
35548,65898,5
35543,65886,5
35548,65881,4
35541,65877,5
35546,65879,5
35539,65865,5
35540,65860,5
35533,65849,4
35525,65830,5
35505,65810,5
35493,65787,5
35494,65779,5
35479,65787,4
35497,65807,5
35501,65820,5
35512,65827,5
35516,65824,5
35522,65830,4
35516,65829,5
35515,65837,5
35519,65835,5
35514,65831,4
35516,65832,5
35507,65827,6
35521,65832,4
35512,65819,5
35508,65829,4
35516,65819,5
35512,65834,5
35516,65827,5
35520,65828,5
35507,65818,4
35514,65821,5
35505,65818,5
35508,65813,5
35502,65816,5
35517,65808,4
35505,65816,5
35510,65813,5
35509,65813,5
35506,65800,5
35504,65801,4
35502,65800,5
35504,65790,5
35504,65793,6
35495,65791,3
35499,65793,5
35489,65779,5
35494,65778,5
35484,65774,5
35481,65771,4
35486,65769,5
35484,65769,5
35481,65770,5
35481,65769,5
35486,65771,4
35481,65762,5
35487,65769,5
35484,65768,5
35477,65766,5
35482,65761,4
35481,65759,5
35478,65768,5
35482,65755,5
35476,65759,4
35475,65761,11
35475,65761,4
35482,65762,5
35478,65756,6
35475,65761,3
35475,65762,5
35479,65750,5
35475,65754,5
35474,65750,4
35474,65745,5
35465,65747,5
35471,65750,5
35472,65741,5
35474,65736,4
35465,65731,5
35462,65737,5
35458,65735,5
35462,65728,4
35455,65715,4
35448,65715,5
35448,65710,5
35446,65703,5
35436,65697,4
35441,65699,5
35441,65695,6
35433,65697,4
35444,65702,5
35441,65690,4
35435,65695,5
35438,65686,5
35434,65681,5
35435,65691,5
35446,65681,4
35425,65679,5
35422,65673,5
35437,65673,5
35421,65664,5
35424,65660,4
35422,65675,5
35430,65673,5
35421,65675,5
35420,65665,4
35421,65666,4
35422,65661,5
35425,65656,5
35418,65663,5
35427,65662,4
35423,65657,5
35417,65669,5
35425,65665,6
35419,65663,4
35428,65662,4
35421,65671,5
35417,65668,5
35425,65665,5
35431,65662,5
35419,65666,4
35424,65666,5
35415,65650,5
35426,65664,5
35420,65655,5
35411,65653,4
35413,65647,5
35413,65655,5
35414,65649,5
35409,65649,4
35412,65643,5
35414,65647,5
35416,65635,5
35406,65631,5
35399,65629,5
35397,65624,4
35402,65611,5
35387,65609,5
35391,65605,6
35379,65588,3
35386,65592,5
35369,65573,5
35379,65570,5
35370,65564,5
35357,65558,4
35355,65555,5
35353,65552,5
35367,65551,5
35354,65542,4
35351,65528,4
35343,65528,5
35342,65515,5
35337,65507,5
35336,65500,4
35330,65501,5
35328,65490,5
35323,65495,5
35325,65485,5
35310,65470,4
35298,65449,6
35286,65426,4
35286,65423,5
35266,65400,5
35261,65388,4
35266,65390,5
35260,65375,5
35262,65389,5
35256,65379,5
35261,65376,4
35254,65378,5
35257,65371,5
35254,65367,5
35253,65363,4
35241,65356,5
35247,65353,5
35250,65347,5
35233,65339,5
35238,65339,4
35229,65337,5
35236,65336,5
35237,65340,5
35229,65337,5
35235,65336,4
35233,65336,5
35223,65341,6
35230,65335,4
35238,65333,5
35227,65333,4
35228,65327,5
35228,65328,5
35229,65319,5
35231,65337,4
35230,65335,4
35229,65331,5
35226,65332,5
35228,65329,5
35235,65336,4
35233,65337,5
35229,65328,5
35230,65332,5
35234,65332,5
35233,65341,4
35238,65342,5
35225,65329,5
35227,65341,5
35237,65344,5
35230,65338,4
35236,65356,5
35239,65343,5
35246,65351,6
35238,65356,4
35242,65356,4
35247,65352,5
35251,65363,5
35254,65376,5
35252,65368,4
35248,65364,5
35253,65367,5
35258,65371,5
35253,65375,5
35242,65365,4
35256,65366,5
35259,65365,5
35257,65372,5
35247,65370,5
35254,65372,4
35253,65380,5
35252,65379,5
35254,65364,5
35257,65378,5
35257,65365,5
35256,65365,4
35253,65375,5
35251,65354,5
35252,65364,5
35252,65354,4
35259,65350,5
35247,65350,5
35241,65342,5
35245,65345,4
35249,65342,5
35232,65347,5
35236,65344,5
35248,65343,5
35248,65345,4
35239,65334,5
35230,65347,5
35234,65344,5
35227,65340,5
35230,65338,4
35241,65347,5
35232,65342,5
35243,65329,5
35239,65341,5
35237,65342,4
35239,65350,6
35235,65343,4
35235,65346,5
35237,65363,4
35244,65359,4
35243,65359,5
35255,65358,5
35245,65362,5
35254,65366,4
35251,65371,5
35250,65370,5
35251,65366,5
35263,65376,5
35252,65381,4
35268,65368,5
35254,65373,5
35253,65382,5
35260,65384,5
35263,65375,4
35253,65370,5
35263,65373,5
35258,65369,5
35251,65374,5
35253,65366,4
35252,65359,5
35245,65349,6
35239,65349,4
35240,65348,4
35238,65358,5
35235,65341,5
35234,65344,5
35236,65337,5
35237,65334,4
35235,65325,5
35232,65330,5
35233,65326,5
35231,65329,5
35235,65325,4
35229,65324,5
35229,65326,5
35223,65327,5
35228,65325,5
35225,65325,4
35231,65312,5
35229,65318,5
35220,65327,5
35221,65328,5
35223,65325,4
35231,65323,5
35235,65331,5
35229,65335,5
35246,65344,4
35238,65340,5
35237,65334,5
35240,65341,5
35244,65349,5
35236,65340,4
35239,65336,5
35242,65338,5
35232,65343,5
35232,65330,5
35234,65335,4
35237,65328,5
35230,65330,10
35229,65333,5
35230,65323,9
35234,65335,8
35235,65334,5
35237,65316,5
35237,65339,5
35245,65339,8
35242,65340,5
35242,65340,5
35246,65348,8
35244,65345,5
35232,65353,5
35248,65344,8
35243,65360,5
35247,65349,5
35241,65354,5
35245,65329,8
35250,65342,5
35252,65359,5
35267,65382,8
35267,65382,5
35262,65390,5
35263,65373,5
35260,65379,8
35269,65385,5
35283,65400,5
35271,65397,8
35261,65394,5
35273,65391,5
35275,65386,8
35277,65385,5
35273,65393,5
35262,65391,5
35270,65372,8
35270,65372,5
35263,65381,5
35269,65386,8
35275,65379,5
35264,65378,5
35258,65371,5
35258,65368,8
35246,65369,5
35258,65364,5
35248,65357,8
35247,65354,5
35251,65356,5
35243,65357,8
35243,65357,5
35284,65361,5
35262,65353,5
35241,65361,8
35242,65357,5
35257,65366,5
35260,65386,8
35254,65379,5
35256,65378,5
35256,65371,5
35249,65375,8
35264,65384,5
35264,65381,5
35261,65377,8
35261,65377,5
35245,65378,5
35259,65371,8
35262,65385,5
35268,65383,5
35258,65363,5
35267,65373,8
35268,65381,5
35293,65378,5
35262,65390,8
35253,65379,5
35255,65378,5
35267,65391,5
35269,65385,11
35264,65407,5
35258,65388,8
35268,65389,5
35256,65386,5
35272,65375,5
35266,65382,8
35253,65372,5
35262,65369,5
35262,65384,8
35267,65379,5
35265,65388,5
35263,65381,5
35259,65361,8
35259,65361,5
35257,65377,5
35263,65368,8
35273,65375,5
35247,65373,5
35237,65357,8
35251,65365,5
35249,65361,5
35247,65350,5
35228,65350,8
35233,65354,5
35242,65356,5
35256,65379,8
35256,65379,5
35289,65380,5
35272,65392,5
35246,65389,8
35265,65394,5
35265,65397,5
35279,65421,8
35273,65404,5
35268,65410,5
35268,65396,8
35281,65403,5
35276,65414,5
35273,65417,5
35283,65428,8
35283,65428,5
35278,65428,5
35285,65428,8
35292,65444,5
35295,65436,5
35302,65427,5
35288,65430,8
35288,65427,5
35312,65439,5
35295,65435,8
35286,65423,5
35287,65431,5
35281,65414,4
35281,65414,1
35281,65414,3
35275,65405,5
35280,65405,5
35274,65400,9
35268,65409,1
35272,65410,4
35271,65404,5
35273,65402,5
35272,65406,5
35267,65403,5
35265,65396,4
35273,65397,6
35273,65401,4
35270,65404,5
35276,65400,5
35272,65399,6
35273,65400,3
35279,65402,5
35282,65419,5
35277,65419,4
35288,65417,5
35277,65417,5
35290,65429,5
35286,65425,5
35284,65426,4
35286,65432,5
35284,65428,5
35283,65422,5
35282,65422,5
35286,65416,4
35288,65431,5
35285,65420,5
35274,65418,5
35286,65423,5
35275,65412,4
35275,65422,5
35266,65402,6
35265,65401,4
35274,65394,4
35259,65382,4
35268,65368,5
35259,65367,5
35260,65357,5
35252,65359,4
35251,65349,5
35248,65347,5
35235,65347,5
35233,65341,5
35236,65335,4
35231,65331,5
35228,65325,5
35229,65327,5
35215,65316,5
35214,65311,4
35211,65304,5
35214,65298,5
35214,65293,5
35210,65303,5
35210,65289,4
35205,65289,5
35212,65277,5
35205,65302,6
35209,65295,3
35219,65293,5
35209,65296,5
35195,65292,5
35205,65285,5
35209,65280,4
35210,65300,5
35203,65288,5
35207,65285,5
35218,65285,5
35199,65290,4
35208,65287,5
35198,65282,5
35199,65278,5
35207,65292,5
35204,65290,4
35206,65288,5
35204,65294,5
35209,65299,5
35209,65307,5
35216,65312,5
35212,65318,4
35220,65319,5
35225,65323,5
35229,65324,4
35231,65333,5
35230,65333,5
35232,65326,5
35235,65330,5
35236,65346,4
35240,65351,5
35247,65350,5
35244,65352,5
35245,65370,5
35259,65362,4
35257,65373,5
35260,65381,5
35262,65380,5
35262,65385,5
35265,65390,4
35258,65396,5
35271,65393,5
35276,65395,5
35271,65394,4
35275,65408,4
35283,65413,6
35279,65409,4
35281,65427,5
35277,65422,4
35284,65424,5
35278,65420,5
35288,65421,5
35293,65426,5
35291,65427,4
35292,65436,5
35304,65440,5
35300,65440,5
35293,65444,5
35289,65451,4
35295,65446,5
35294,65443,5
35286,65444,5
35304,65442,5
35299,65444,4
35304,65442,5
35300,65449,5
35307,65449,5
35306,65468,4
35311,65456,5
35302,65450,5
35306,65456,6
35300,65456,4
35305,65452,4
35301,65445,5
35304,65451,5
35303,65460,5
35305,65459,5
35307,65466,4
35311,65462,5
35305,65469,5
35306,65466,5
35316,65481,5
35316,65476,4
35321,65475,5
35316,65473,5
35317,65474,5
35316,65476,4
35322,65493,4
35320,65483,5
35313,65482,5
35318,65493,5
35320,65490,5
35320,65483,4
35328,65486,5
35317,65494,5
35326,65494,5
35334,65493,4
35328,65497,5
35330,65510,5
35323,65507,5
35339,65495,5
35335,65511,4
35336,65510,5
35334,65520,5
35344,65521,5
35347,65517,5
35342,65520,4
35338,65513,5
35351,65528,5
35343,65536,5
35340,65529,4
35338,65514,5
35348,65534,5
35349,65531,5
35351,65528,5
35354,65539,4
35347,65538,6
35355,65543,4
35357,65538,5
35363,65555,5
35361,65551,4
35365,65553,5
35364,65563,5
35372,65567,5
35367,65571,5
35368,65567,4
35372,65582,5
35386,65577,5
35369,65573,5
35375,65582,4
35382,65577,4
35377,65590,5
35377,65593,5
35381,65600,5
35384,65596,4
35391,65602,5
35393,65600,5
35391,65609,5
35399,65627,5
35408,65628,4
35405,65631,5
35411,65639,6
35418,65644,4
35422,65643,5
35419,65653,4
35422,65652,5
35426,65659,5
35428,65654,5
35429,65666,5
35427,65672,4
35431,65666,5
35429,65679,5
35428,65677,5
35428,65674,4
35427,65672,5
35428,65678,5
35429,65669,5
35432,65671,5
35427,65663,4
35421,65661,5
35424,65664,5
35424,65676,5
35433,65685,5
35435,65686,4
35442,65678,5
35433,65689,5
35441,65695,5
35438,65691,5
35446,65697,4
35441,65695,5
35444,65703,5
35453,65696,5
35440,65697,4
35440,65701,4
35447,65704,5
35453,65707,5
35445,65713,5
35454,65714,4
35453,65722,5
35459,65723,5
35459,65728,5
35477,65739,5
35478,65743,4
35475,65744,5
35490,65763,5
35480,65756,5
35484,65770,5
35479,65767,5
35493,65777,4
35485,65777,5
35493,65774,5
35500,65790,5
35496,65787,4
35489,65789,5
35498,65783,5
35500,65791,5
35499,65792,4
35513,65796,5
35504,65793,5
35507,65799,5
35505,65804,5
35509,65799,4
35513,65819,5
35511,65818,5
35521,65827,5
35511,65827,5
35522,65830,4
35523,65827,5
35524,65836,5
35534,65854,5
35544,65869,5
35546,65877,4
35557,65881,6
35557,65887,4
35549,65877,5
35555,65882,4
35548,65873,4
35555,65866,5
35555,65874,5
35542,65873,5
35544,65860,4
35540,65857,5
35536,65847,5
35541,65851,5
35538,65849,5
35534,65848,4
35539,65854,5
35552,65862,5
35543,65856,5
35551,65871,5
35557,65889,4
35567,65917,5
35584,65935,5
35598,65951,5
35610,65963,4
35596,65949,4
35596,65940,5
35572,65891,5
35549,65868,5
35545,65853,4
35544,65850,5
35545,65863,5
35563,65882,5
35583,65904,5
35577,65935,4
35592,65947,5
35600,65951,5
35586,65943,5
35576,65922,5
35576,65914,4
35578,65898,5
35582,65924,5
35576,65933,5
35587,65914,5
35573,65904,5
35569,65931,4
35593,65945,5
35605,65959,5
35618,65969,6
35625,65992,3
35619,65986,5
35617,65975,5
35594,65947,5
35584,65933,4
35580,65910,5
35560,65886,5
35546,65857,5
35529,65837,5
35537,65847,4
35530,65838,5
35525,65828,5
35529,65831,5
35532,65835,5
35521,65823,4
35513,65816,5
35517,65814,5
35512,65803,5
35511,65802,5
35503,65792,4
35494,65788,6
35487,65767,4
35488,65775,5
35501,65795,4
35502,65798,7
35498,65784,3
35501,65785,5
35498,65782,5
35474,65734,4
35464,65716,5
35452,65702,5
35456,65716,5
35453,65725,5
35462,65737,4
35466,65749,5
35485,65764,5
35478,65782,5
35499,65818,5
35517,65824,4
35520,65833,5
35520,65836,5
35525,65840,5
35522,65836,4
35520,65820,4
35519,65814,5
35515,65817,6
35514,65806,4
35504,65803,4
35508,65795,5
35503,65788,5
35499,65798,5
35502,65796,5
35508,65790,4
35503,65800,5
35505,65789,5
35498,65791,5
35502,65784,5
35499,65778,4
35497,65779,5
35490,65781,5
35492,65776,5
35488,65769,5
35487,65776,4
35476,65762,5
35488,65759,5
35476,65746,5
35481,65741,5
35471,65739,4
35467,65722,5
35463,65716,5
35455,65721,6
35446,65706,3
35446,65694,5
35449,65686,5
35441,65677,5
35440,65675,5
35435,65670,4
35423,65666,5
35423,65672,5
35427,65660,5
35418,65660,5
35416,65656,4
35422,65642,5
35422,65642,5
35413,65652,5
35409,65650,5
35416,65654,4
35417,65648,5
35425,65651,5
35423,65654,5
35417,65647,4
35418,65648,6
35417,65647,4
35407,65642,5
35417,65642,5
35421,65648,6
35410,65654,3
35414,65630,5
35415,65646,5
35416,65638,5
35414,65639,7
35410,65636,2
35408,65636,5
35410,65637,5
35408,65633,5
35404,65626,4
35408,65618,5
35393,65617,5
35394,65603,5
35386,65605,4
35390,65602,4
35388,65599,5
35383,65607,5
35380,65593,5
35390,65599,4
35378,65590,5
35371,65580,6
35376,65579,4
35369,65564,5
35369,65571,4
35365,65566,5
35371,65556,5
35353,65557,5
35359,65547,5
35355,65560,4
35362,65554,5
35350,65545,5
35351,65553,5
35364,65556,5
35361,65547,4
35346,65552,5
35365,65554,5
35360,65554,5
35362,65563,4
35360,65563,5
35369,65563,5
35381,65570,5
35368,65568,5
35372,65576,4
35379,65580,5
35374,65566,5
35377,65574,6
35369,65571,4
35361,65566,4
