RED,IR,EKG,TIME
118320,202316,10
118279,202268,5
118257,202209,5
118236,202214,7
118241,202209,8
118225,202201,7
118233,202210,8
118240,202221,5
118383,202417,7
118383,202417,8
118392,202441,5
118403,202440,7
118404,202432,8
118405,202440,5
118726,202849,7
118277,202263,8
118277,202263,5
118243,202248,7
118173,202165,8
118097,202044,5
118025,201946,7
117934,201811,8
117836,201671,5
117436,201186,7
117436,201186,8
117429,201212,7
117466,201233,5
117469,201239,8
117440,201186,7
117361,201094,5
116804,200370,8
116804,200370,7
116750,200352,9
116779,200372,10
116795,200355,9
116795,200355,8
116780,200360,7
116807,200393,9
116544,200042,7
116544,200042,5
116496,199954,8
116441,199890,7
116097,199895,5
116430,199886,8
116459,199875,7
116444,199907,5
116354,199829,8
116354,199829,7
116380,199780,5
117361,201094,10
116235,199553,9
116413,199343,5
115605,198742,10
115605,198742,5
115594,198751,5
115590,198740,10
115768,198659,5
115438,198522,5
114515,197253,10
114515,197253,5
114371,197064,5
114272,196702,10
114198,196851,5
114092,196672,5
114030,196584,10
114030,196242,5
114003,196607,7
114074,196640,8
114074,196640,3
114005,196533,2
113903,196549,4
113799,196252,5
113719,196133,5
113641,196068,5
113604,196409,5
113555,195945,4
113477,195841,5
113394,195742,5
113344,195998,5
113317,195622,5
113298,195589,4
113292,195581,5
113274,195680,6
113256,195562,4
113236,195533,4
113237,195535,4
113260,195583,5
113318,195651,5
113396,195738,5
113434,195778,4
113457,195815,5
113480,195827,5
113468,195807,5
113465,195825,5
113496,195878,4
113582,195987,5
113715,196212,5
113943,196545,5
114157,196812,5
114392,197127,4
114618,197417,5
114734,197523,5
114751,197542,5
114777,197578,5
114796,197606,4
114805,197601,5
114792,197572,5
114786,197573,6
114819,197618,4
114845,197660,4
114915,197736,5
114998,197848,5
115055,197919,5
115093,197961,4
115109,197966,5
115104,197943,5
115061,197906,5
114986,197807,5
114908,197707,4
114871,197654,5
114824,197605,5
114734,197478,5
114616,197289,5
114481,197113,4
114307,196869,5
114149,196656,5
113990,196454,5
113873,196299,5
113752,196138,5
113657,196013,4
113567,195903,5
113465,195763,5
113381,195650,5
113282,195518,4
113211,195421,5
113158,195359,5
113105,195318,5
113075,195257,4
113034,195201,4
112978,195132,5
112934,195094,5
112941,195125,5
113043,195270,4
113157,195441,5
113230,195494,5
113246,195514,5
113252,195521,5
113248,195523,4
113265,195548,5
113296,195612,5
113368,195689,5
113436,195787,5
113454,195793,4
113426,195743,6
113405,195729,4
113432,195795,5
113488,195835,5
113468,195820,4
113485,195848,5
113505,195890,5
113565,195980,5
113619,196027,5
113621,196047,4
113596,195994,5
113529,195908,5
113443,195783,5
113373,195692,4
113123,195608,4
113262,195563,5
113219,195490,5
113138,195401,5
112771,195354,4
113080,195347,5
113063,195332,5
113055,195321,5
112695,195329,5
113056,195350,4
113061,195356,5
113049,195323,6
113098,195280,4
112982,195232,5
112949,195184,4
112947,195180,5
113264,195150,5
112886,195106,5
112856,195052,5
112770,194919,4
113052,194830,5
112584,194677,5
112456,194488,5
112346,194363,5
112427,194263,4
112239,194196,5
112185,194153,5
112148,194095,5
112177,194059,4
112183,194127,5
112166,194105,5
112132,194067,5
112104,193778,5
112064,193979,4
112001,193861,5
111908,193761,5
111832,193305,5
111773,193542,5
111681,193428,4
111606,193322,5
111553,193086,5
111443,193077,5
111314,192892,5
111155,192681,4
111021,192742,5
110919,192368,5
110808,192216,5
110727,192112,5
110688,192471,4
110616,191974,5
110562,191906,5
110519,191866,5
110509,192110,4
110513,191825,4
110515,191839,5
110551,191877,5
110536,191922,5
110530,191816,5
110497,191791,3
110489,191770,5
110424,191660,5
110347,191560,5
110207,191333,4
110014,191057,5
109718,190617,5
109353,190086,5
108938,189537,5
108549,189039,9
108249,188683,1
108083,188443,4
108008,188395,5
107936,188305,5
107817,188157,4
107704,187976,5
107619,187873,5
107517,187741,5
107432,187604,5
107322,187444,4
107232,187341,6
107182,187292,4
107154,187249,5
107084,187155,4
107074,187134,7
107069,187141,3
107096,187185,5
107126,187211,5
107159,187239,4
107157,187246,5
107150,187231,5
107150,187245,5
107168,187251,5
107166,187261,4
107180,187281,5
107191,187283,5
107154,187224,5
107081,187138,5
107021,187060,4
106952,186958,5
106862,186830,5
106789,186737,5
106744,186695,5
106765,186701,4
106732,186660,5
106705,186625,6
106671,186592,4
106620,186495,4
106520,186354,4
106424,186248,5
106354,186156,5
106330,186142,5
106333,186135,4
106346,186172,5
106371,186208,5
106415,186270,5
106439,186278,5
106434,186294,4
106470,186316,5
106508,186402,5
106537,186446,5
106556,186493,5
106609,186568,4
106674,186688,5
106793,186869,5
106941,187048,5
106966,187083,5
106921,186982,4
106827,186867,5
106776,186792,5
106748,186752,6
106709,186725,4
106731,186760,4
106753,186777,5
106780,186831,5
106821,186868,5
106836,186886,4
106830,186878,4
106843,186884,5
106829,186956,5
106929,187024,5
106991,187103,4
107016,187133,5
106789,187131,5
107036,187133,5
107023,187100,5
107011,187087,4
106646,187024,5
106913,186913,5
106777,186714,5
106594,186436,5
106193,186185,5
106264,186077,4
106235,186068,5
106289,186145,5
106574,186274,6
106484,186434,3
106555,186522,5
106559,186540,5
106959,186563,5
106623,186634,5
106684,186735,4
106742,186814,5
106989,186788,5
106720,186755,5
106693,186736,4
106693,186767,5
106802,186809,5
106828,186942,5
106943,187113,5
107063,187265,4
107169,187265,5
107261,187519,5
107313,187572,5
107324,187612,5
107359,187339,4
107406,187714,6
107436,187759,4
107486,187818,5
107504,187484,5
107509,187854,4
107499,187830,5
107510,187867,5
107559,187956,5
107640,188046,5
107721,188158,4
107763,188209,5
107760,188521,5
107748,188193,5
107713,188174,4
107697,188137,4
107681,188521,5
107684,188123,5
107680,188110,5
107668,188094,4
107638,188211,5
107601,188009,5
107608,188027,5
107641,188085,5
107685,188161,4
107690,188140,5
107677,188108,6
107634,188052,4
107598,188004,5
107610,188034,4
107657,188109,5
107737,188223,5
107807,188300,5
107860,188371,5
107873,188385,4
107876,188395,5
107872,188383,5
107880,188436,5
107971,188555,5
108029,188605,4
108025,188585,5
108004,188560,5
108002,188553,5
107999,188561,4
108009,188578,5
108033,188594,5
108036,188606,5
108031,188593,5
108025,188577,4
107983,188523,5
107937,188468,5
107920,188436,6
107905,188442,4
107904,188433,4
107888,188412,5
107877,188400,5
107834,188340,10
107789,188286,9
107739,188231,5
107704,188178,10
107656,188070,5
107626,188051,5
107649,188146,10
107649,188146,5
107728,188233,7
107779,188291,8
107804,188332,5
107799,188389,7
108122,188769,8
108122,188769,5
108185,188857,7
108212,188875,8
108207,188861,5
108211,188879,7
108188,188873,8
108231,188906,5
108279,188986,7
108322,189059,8
108322,189059,9
108354,189100,8
108394,189166,5
108443,189185,7
108513,189311,8
108513,189311,5
108582,189422,7
108675,189566,8
108744,189612,5
108751,189615,7
108755,189602,8
108782,189686,5
109326,190424,7
109326,190424,8
109349,190424,5
109318,190430,7
109018,190421,8
109329,190468,5
109368,190568,7
109654,190950,8
109654,190950,7
109730,191107,5
109876,191277,8
110014,191488,7
110184,191711,10
110970,192236,5
110970,192236,7
110779,192509,5
110986,192799,8
111180,193006,7
111601,193362,5
111600,193564,8
111676,193676,7
111848,193907,8
111848,193907,7
111852,193667,7
111869,193941,8
111907,194015,7
111997,194200,5
112654,194799,8
112654,194799,7
112834,195349,5
112997,195567,8
113181,195786,7
113301,196097,7
113334,195967,10
113334,195967,5
113376,196064,5
113459,196167,10
113539,196523,5
113553,196262,5
113527,196203,10
113470,196139,5
113400,196170,5
113290,195935,10
113290,195935,5
113193,195817,5
113128,195733,10
113087,195688,5
113097,195705,5
113117,195721,10
113117,195721,5
113093,195720,5
113168,195799,10
113234,195850,5
113255,195841,5
113236,195805,3
113160,195681,2
113112,195663,4
113122,195733,5
113165,195769,5
113193,195786,5
113159,195715,5
113105,195632,4
113040,195571,5
113014,195540,5
113021,195547,5
113036,195574,5
113052,195583,5
113041,195548,4
113008,195498,5
112983,195482,5
112965,195457,5
112948,195431,4
112921,195384,5
112878,195333,5
112834,195266,5
112769,195183,4
112731,195127,4
112705,195090,5
112672,195038,5
112608,194962,5
112536,194869,4
112484,194791,5
112416,194681,5
112285,194524,5
112154,194355,5
112043,194222,4
111958,194127,5
111910,194062,5
111848,193993,5
111823,193980,5
111855,194037,4
111906,194089,6
111947,194150,4
111998,194237,5
112058,194304,5
112091,194362,4
112118,194394,5
112148,194403,5
112153,194405,5
112144,194390,5
112149,194376,4
112129,194359,5
112112,194305,5
112048,194211,5
112007,194156,4
111992,194140,4
111989,194107,5
111973,194078,5
111942,194034,5
111871,193921,4
111740,193740,5
111593,193537,5
111428,193326,5
111263,193078,5
111064,192820,4
110881,192613,5
110740,192467,5
110702,192414,5
110651,192340,5
110582,192245,4
110251,192129,5
110430,192059,5
110365,191988,5
110358,191954,5
109979,191927,4
110328,191927,5
110324,191938,5
110311,191909,5
110081,191886,5
110260,191833,4
110216,191752,5
110168,191683,5
110298,191577,5
110032,191487,5
109979,191409,4
109919,191323,5
110215,191192,5
109769,191100,6
109721,191034,3
109705,191010,5
109962,190996,5
109680,190970,5
109657,190933,5
109599,190881,4
109674,190882,5
109597,190886,5
109630,190924,5
109619,190885,5
109601,190709,4
109569,190824,5
109535,190773,5
109483,190679,5
109448,190333,5
109426,190603,4
109383,190541,5
109314,190453,5
109263,190001,5
109218,190323,4
109187,190276,5
109165,190248,4
109155,190265,5
109154,190248,5
109157,190250,6
109158,190252,3
109166,190574,5
109164,190229,5
109127,190201,5
109117,190185,4
109125,190577,5
109085,190136,5
109052,190077,5
109004,190019,5
108958,190106,4
108880,189818,5
108807,189735,5
108759,189658,5
108697,189608,5
108632,189467,4
108534,189349,5
108451,189256,5
108391,189155,5
108339,189068,5
108293,189020,4
108259,188981,6
108232,188929,4
108199,188875,7
108152,188832,2
108122,188750,6
108036,188660,3
107942,188498,5
107833,188345,5
107741,188236,4
107656,188093,5
107568,187959,5
107462,187819,5
107395,187751,5
107367,187692,4
107333,187648,5
107299,187604,5
107240,187513,5
107160,187396,5
107072,187249,4
106967,187102,5
106907,187035,5
106830,186915,5
106724,186776,5
106641,186685,4
106611,186610,5
106543,186512,6
106473,186406,4
106402,186324,5
106398,186311,4
106379,186311,5
106348,186261,5
106319,186204,5
106270,186135,4
106225,186066,5
106165,186006,5
106140,185972,5
106121,185930,5
106065,185860,4
106017,185801,5
105993,185756,5
105969,185730,5
105932,185655,5
105857,185557,4
105795,185459,5
105733,185384,5
105651,185271,5
105594,185177,5
105518,185089,4
105448,184981,5
105362,184891,5
105306,184791,6
105210,184625,4
105039,184423,4
104929,184259,5
104873,184194,5
104827,184101,5
104743,183991,4
104655,183857,4
104570,183750,5
104540,183714,5
104541,183714,5
104552,183732,4
104571,183759,5
104581,183756,5
104576,183749,5
104547,183696,5
104509,183628,4
104455,183531,5
104335,183388,5
104267,183297,5
104211,183223,5
104135,183099,5
104047,182988,4
103974,182883,5
103768,182844,5
103921,182845,6
103887,182805,3
103864,182785,5
103551,182782,5
103864,182774,5
103830,182742,5
103790,182687,4
103393,182597,5
103633,182438,5
103555,182341,5
103511,182291,4
103517,182219,5
103419,182160,5
103380,182087,5
103326,182046,5
103616,182004,4
103251,181937,5
103212,181894,5
103214,181908,5
103588,181937,5
103243,181933,4
103224,181888,6
103171,181821,4
103263,181754,5
103091,181718,5
103064,181679,4
103054,181657,5
103057,181574,5
103012,181570,5
102966,181501,5
102923,181444,4
102904,181181,5
102880,181374,5
102829,181329,5
102816,181309,4
102824,180984,4
102830,181325,5
102816,181319,5
102812,181305,5
102821,181161,4
102822,181307,5
102823,181329,5
102845,181347,5
102856,181581,5
102863,181362,4
102841,181362,5
102854,181362,6
102858,181750,4
102874,181397,5
102898,181451,4
102954,181521,5
102984,181807,5
102998,181564,5
103005,181574,5
103010,181589,4
103019,181682,5
103025,181625,5
103059,181665,5
103068,181682,5
103076,181686,4
103060,181655,5
103035,181644,5
103041,181652,5
103030,181643,4
103028,181636,4
103027,181646,5
103022,181623,5
103002,181614,5
102991,181596,4
102982,181599,5
102989,181595,5
102984,181611,6
103005,181618,4
103025,181651,4
103021,181655,5
103008,181642,5
103029,181657,5
103055,181713,5
103089,181755,4
103112,181780,5
103131,181810,5
103126,181802,5
103122,181814,5
103144,181836,4
103198,181936,5
103271,182008,5
103297,182044,5
103304,182062,5
103325,182075,4
103311,182069,5
103333,182110,5
103379,182189,5
103422,182256,5
103448,182271,4
103428,182259,5
103394,182196,5
103348,182144,5
103343,182141,4
103361,182172,5
103378,182196,5
103394,182232,5
103431,182279,5
103450,182313,4
103479,182340,5
103489,182346,5
103495,182378,5
103543,182448,5
103589,182511,4
103616,182560,5
103651,182585,5
103644,182573,5
103619,182546,5
103617,182548,4
103632,182582,5
103699,182682,5
103771,182766,5
103800,182812,4
103797,182779,5
103764,182725,4
103717,182682,5
103723,182686,5
103735,182728,4
103781,182790,5
103836,182889,5
103925,183011,5
103983,183075,5
104014,183124,4
104081,183210,5
104153,183343,5
104242,183475,5
104349,183618,5
104434,183715,4
104482,183776,5
104488,183799,5
104497,183819,5
104541,183879,5
104515,183932,4
104639,184024,5
104727,184127,5
104785,184220,5
104571,184286,5
104871,184338,4
104895,184362,6
104913,184407,4
104597,184459,5
105017,184553,4
105077,184637,4
105130,184700,5
105014,184766,5
105216,184812,5
105239,184860,4
105268,184907,5
105510,184950,5
105320,185005,5
105361,185040,5
105395,185103,4
105811,185112,5
105433,185137,5
105431,185135,5
105447,185158,5
105717,185208,4
105550,185332,5
105644,185462,5
105719,185538,5
105822,185579,5
105769,185605,4
105767,185600,5
105759,185583,6
105766,185445,4
105785,185613,4
105810,185664,4
105847,185702,5
105874,185397,5
105861,185715,5
105862,185710,5
105864,185702,4
105873,185377,5
105892,185761,5
105905,185788,5
105915,185776,4
105912,185810,5
105907,185768,5
105909,185773,5
105904,185780,5
105923,186126,4
105963,185868,5
105990,185903,5
106002,185920,5
106015,186326,5
106005,185923,4
106015,185929,5
106025,185942,5
106056,186169,5
106112,186078,5
106147,186123,4
106161,186125,5
106149,186133,5
106137,186094,5
106126,186082,4
106143,186108,4
106151,186123,5
106174,186152,5
106181,186166,5
106184,186160,4
106156,186132,5
106150,186115,5
106133,186115,5
106149,186137,5
106160,186143,4
106185,186171,5
106186,186170,5
106202,186178,5
106204,186185,5
106194,186179,5
106204,186187,4
106228,186242,5
106286,186333,5
106345,186411,5
106397,186467,4
106400,186465,5
106381,186423,5
106348,186387,5
106318,186356,5
106319,186386,4
106346,186412,5
106370,186445,5
106379,186448,5
106374,186445,4
106364,186430,5
106355,186418,5
106369,186462,5
106408,186502,5
106434,186551,4
106479,186594,5
106489,186612,6
106495,186620,4
106516,186650,5
106519,186652,4
106536,186705,7
106597,186780,3
106657,186870,5
106708,186917,5
106738,186970,4
106790,187048,5
106860,187149,5
106917,187241,5
107006,187387,5
107106,187517,4
107219,187678,5
107312,187774,5
107347,187827,5
107389,187873,4
107415,187911,4
107471,187993,5
107584,188173,5
107681,188289,5
107759,188373,4
107782,188407,5
107782,188390,5
107773,188398,6
107780,188406,4
107818,188483,4
107908,188611,5
107985,188709,5
108035,188761,5
108058,188807,5
108075,188811,4
108066,188818,5
108081,188837,5
108129,188919,5
108183,189021,5
108267,189112,4
108324,189169,5
108323,189181,5
108349,189195,5
108371,189237,5
108405,189305,4
108359,189425,5
108570,189542,5
108644,189636,5
108682,189671,5
108380,189680,4
108693,189689,5
108691,189676,5
108731,189751,6
108413,189834,3
108833,189902,5
108860,189925,5
108866,189923,5
108814,189932,5
108882,189950,4
108881,189955,5
108916,190022,5
109281,190137,5
109068,190228,5
109113,190281,4
109139,190332,5
109592,190396,5
109216,190430,5
109225,190445,5
109261,190508,4
109535,190598,5
109394,190689,5
109439,190728,5
109451,190737,5
109485,190713,5
109438,190708,4
109437,190713,5
109466,190773,5
109525,190645,6
109600,190949,3
109650,191014,5
109701,191103,5
109764,190827,5
109806,191227,4
109835,191258,5
109904,191380,5
110030,191231,5
110149,191707,5
110208,191771,5
110197,191759,4
110157,191816,5
110069,191547,5
109968,191434,5
109929,191395,4
109915,191764,5
109895,191354,5
109871,191326,5
109842,191273,5
109788,191557,4
109765,191175,6
109747,191154,4
109745,191159,5
109752,191296,4
109747,191171,4
109743,191156,5
109709,191109,5
109692,191100,5
109680,191076,4
109681,191085,5
109690,191107,5
109715,191115,5
109716,191131,5
109741,191159,4
109754,191174,10
109760,191170,5
109742,191154,5
109709,191100,4
109687,191091,5
109696,191088,5
109678,191086,5
109676,191063,5
109650,191051,4
109657,191064,5
109674,191086,6
109663,191060,4
109653,191050,5
109669,191060,4
109664,191058,5
109659,191040,5
109659,191027,5
109650,191043,4
109663,191051,4
109671,191051,5
109659,191037,5
109653,191043,5
109661,191033,4
109667,191055,5
109675,191056,5
109690,191082,5
109708,191104,5
109716,191106,4
109718,191120,5
109720,191118,5
109722,191105,5
109705,191097,5
109687,191075,4
109676,191052,5
109654,191022,5
109619,190967,6
109575,190906,4
109534,190845,4
109500,190800,5
109457,190731,5
109422,190707,5
109397,190666,5
109380,190622,4
109355,190590,5
109333,190559,5
109306,190537,5
109298,190515,4
109284,190494,4
109266,190460,5
109253,190450,5
109242,190448,5
109238,190432,4
109213,190399,5
109181,190327,5
109130,190260,5
109079,190186,5
109020,190106,5
108949,190016,4
108881,189916,5
108812,189836,5
108754,189736,6
108703,189666,3
108659,189625,5
108625,189562,5
108579,189513,5
108565,189495,5
108579,189517,4
108596,189545,5
108603,189537,5
108582,189500,5
108540,189459,4
108526,189430,4
108506,189401,5
108476,189386,5
108247,189346,5
108434,189328,4
108440,189325,5
108416,189310,5
108061,189287,5
108407,189285,5
108412,189292,4
108418,189288,6
108055,189271,4
108402,189284,5
108407,189291,5
108409,189282,4
108518,189265,5
108408,189267,5
108404,189277,5
108411,189276,5
108765,189268,4
108387,189252,5
108387,189250,5
108369,189215,5
108684,189196,5
108319,189171,4
108313,189149,5
108302,189129,5
108411,189126,5
108301,189128,4
108289,189116,4
108259,189084,5
108258,188986,5
108242,189078,5
108247,189077,4
108234,189074,5
108234,188776,6
108235,189071,4
108233,189085,5
108232,189061,4
108244,188688,5
108251,189069,5
108252,189081,5
108247,189070,5
108236,188932,4
108232,189051,5
108245,189053,5
108236,189056,5
108214,189262,5
108207,189013,4
108216,189019,5
108224,189020,5
108181,189384,5
108141,188928,5
108144,188915,4
108114,188884,5
108074,189061,5
108037,188784,5
108041,188787,3
108050,188805,4
108061,188880,5
108064,188814,6
108075,188823,3
108112,188888,4
108144,188922,5
108154,188936,5
108171,188958,5
108197,189001,5
108219,189017,4
108221,189008,5
108219,189020,5
108221,189013,5
108210,189015,5
108228,189008,4
108204,189002,5
108180,188952,5
108173,188948,5
108185,188994,5
108219,189019,4
108234,189036,5
108251,189046,5
108256,189057,5
108258,189059,5
108272,189079,4
108275,189078,5
108306,189135,5
108334,189165,5
108317,189113,4
108250,189030,5
108155,188912,5
108102,188836,5
108076,188808,5
108022,188728,4
107923,188582,5
107832,188466,5
107798,188414,5
107757,188365,5
107718,188313,4
107716,188301,5
107708,188298,5
107671,188242,5
107665,188255,5
107707,188319,4
107769,188392,5
107768,188372,5
107739,188335,5
107747,188344,5
107772,188371,5
107789,188403,4
107797,188407,5
107791,188411,5
107806,188433,4
107814,188442,4
107813,188424,5
107790,188390,5
107778,188379,5
107748,188339,4
107664,188214,5
107599,188154,5
107595,188167,5
107615,188170,5
107594,188143,4
107545,188067,5
107488,187979,5
107408,187872,5
107326,187735,5
107191,187540,4
107062,187376,5
106955,187199,5
106857,187087,5
106804,187021,5
106777,186990,4
106779,187003,6
106758,186974,4
106748,186932,5
106750,186928,5
106719,186892,4
106640,186780,5
106568,186667,5
106518,186604,5
106445,186485,4
106289,186408,4
106352,186410,5
106391,186450,5
106407,186497,5
106168,186503,4
106438,186501,5
106449,186510,5
106429,186487,5
106036,186431,5
106358,186385,4
106319,186326,5
106276,186283,5
106043,186187,5
106137,186074,5
106095,186029,4
106082,186007,5
106274,185976,5
106035,185974,5
106064,186001,5
106082,186018,4
106466,186010,5
106050,185977,5
106065,185979,5
106046,185983,4
106284,185949,4
106008,185905,5
105972,185867,5
105957,185860,5
106045,185844,4
105941,185781,5
105829,185638,5
105695,185439,5
105574,185131,5
105516,185210,5
105490,185168,4
105439,185088,5
105345,184647,5
105267,184849,6
105209,184790,3
105189,184764,5
105184,184382,5
105173,184770,5
105186,184771,5
105195,184788,4
105205,184817,5
105203,184779,5
105173,184749,5
105156,184726,5
105161,185048,4
105171,184749,5
105186,184763,5
105188,184767,5
105194,185173,4
105198,184767,4
105181,184739,5
105156,184709,5
105126,184823,5
105081,184582,4
105024,184499,6
104972,184437,4
104934,184383,5
104867,184281,5
104782,184146,6
104709,184063,3
104661,183989,5
104636,183963,5
104613,183917,5
104585,183877,4
104575,183879,5
104552,183846,5
104526,183805,5
104516,183809,5
104513,183790,4
104493,183781,5
104493,183771,5
104501,183786,5
104508,183800,4
104514,183796,4
104500,183785,5
104500,183772,5
104506,183777,5
104495,183752,4
104474,183739,5
104467,183734,6
104477,183725,4
104467,183713,5
104439,183683,4
104419,183658,5
104407,183633,5
104397,183625,5
104373,183582,5
104361,183598,4
104373,183591,5
104361,183578,5
104345,183552,5
104318,183526,5
104318,183523,4
104312,183526,5
104324,183527,5
104318,183520,5
104328,183537,5
104347,183553,4
104339,183554,5
104338,183561,5
104332,183558,5
104338,183549,4
104321,183534,4
104306,183523,5
104311,183518,6
104305,183520,4
104305,183500,4
104268,183472,5
104230,183424,5
104194,183369,5
104150,183301,5
104086,183229,4
104047,183153,5
103985,183058,5
103922,183017,5
103912,182995,5
103911,182990,4
103929,183008,5
103937,183019,5
103915,183000,5
103901,182979,5
103910,182984,4
103927,183013,5
103935,183038,5
103977,183102,5
104010,183140,5
104045,183193,4
104085,183233,5
104112,183263,5
104115,183302,6
104167,183397,3
104269,183513,5
104331,183588,5
104355,183616,5
104350,183601,5
104335,183579,4
104324,183578,5
104187,183604,5
104370,183664,5
104418,183722,5
104472,183799,4
104169,183805,5
104467,183785,5
104455,183773,5
104463,183787,5
104118,183823,4
104533,183891,5
104576,183965,5
104629,184032,5
104674,184080,5
104680,184080,5
104704,184142,4
104747,184195,5
105126,184327,5
104918,184442,6
104993,184547,3
105055,184614,5
105465,184632,5
105056,184612,5
105035,184598,4
105077,184658,5
105311,184772,5
105264,184928,5
105340,185037,5
105390,185116,4
105482,185170,5
105502,185254,5
105537,185308,5
105553,185350,5
105660,185295,4
105791,185711,5
105915,185870,5
105996,185976,5
106025,185668,5
106076,186108,4
106240,186397,5
106556,186812,4
106738,186787,5
106787,187059,5
106745,186993,4
106713,186953,5
106672,187101,5
106665,186903,5
106691,186954,4
106770,187058,4
106861,187611,5
106908,187229,5
106880,187195,5
106876,187187,4
106867,187463,5
106781,187008,5
106647,186841,5
106513,186683,5
106423,186630,4
106297,186364,5
106230,186305,5
106213,186283,5
106223,186318,5
106279,186389,4
106328,186457,5
106352,186494,6
106368,186512,4
106369,186500,7
106351,186482,2
106348,186493,5
106363,186522,5
106401,186571,5
106480,186719,4
106606,186887,4
106727,187029,5
106712,186981,5
106616,186829,5
106507,186685,4
106462,186641,5
106484,186675,5
106486,186671,5
106467,186658,5
106453,186623,4
106413,186558,5
106363,186488,5
106351,186491,5
106360,186519,5
106409,186596,4
106486,186695,5
106536,186752,5
106528,186754,6
106504,186709,4
106498,186705,4
106511,186749,5
106606,186885,5
106690,186964,5
106676,186932,5
106636,186869,4
106572,186772,5
106483,186651,5
106389,186506,5
106306,186415,4
106286,186385,4
106309,186427,5
106343,186461,5
106346,186450,5
106325,186431,4
106284,186377,5
106293,186404,5
106366,186497,5
106456,186630,5
106544,186745,5
106546,186718,4
106489,186654,5
106470,186630,5
106462,186658,5
106500,186696,4
106586,186819,5
106645,186877,5
106646,186894,5
106628,186852,5
106577,186785,4
106527,186698,5
106470,186653,5
106480,186661,5
106532,186753,5
106621,186875,4
106695,186942,5
106701,186955,5
106686,186933,5
106659,186897,4
106661,186912,5
106725,187016,5
106828,187166,5
106891,187257,5
106925,187296,4
106977,187363,6
107037,187455,4
107113,187570,5
107172,187654,5
107188,187651,4
107131,187573,5
107102,187548,5
106863,187524,5
107062,187480,5
107018,187426,4
107019,187428,5
106697,187480,5
107097,187534,5
107095,187518,5
107098,187509,4
106855,187531,5
107125,187532,5
107100,187533,5
107116,187549,4
107329,187629,4
107223,187704,5
107258,187756,5
107271,187775,5
107660,187808,4
107330,187854,5
107342,187848,6
107327,187852,4
107636,187884,5
107377,187926,4
107426,187990,5
107441,188019,5
107530,188012,5
107435,187992,5
107423,187977,4
107434,188024,5
107488,187935,5
107528,188141,5
107560,188175,5
107554,188149,4
107521,187776,5
107436,187980,5
107405,187939,5
107400,187926,5
107408,187564,4
107421,187940,5
107415,187954,5
107412,187944,5
107381,187904,4
107364,187893,4
107361,187880,5
107358,187891,5
107372,188244,5
107401,187953,4
107448,188020,5
107475,188044,5
107480,188462,5
107493,188075,5
107489,188068,4
107496,188076,5
107514,188297,5
107550,188137,5
107506,188059,5
107414,187942,4
107342,187883,5
107288,187777,5
107264,187785,5
107292,187846,5
107350,187899,4
107354,187881,5
107307,187808,5
107238,187703,5
107180,187639,5
107143,187594,4
107128,187581,5
107158,187628,5
107195,187664,5
107219,187699,4
107234,187699,5
107230,187698,5
107211,187713,5
107228,187707,5
107232,187739,4
107272,187803,5
107301,187836,5
107321,187832,5
107285,187783,5
107239,187721,4
107168,187621,5
107065,187468,5
106975,187362,5
106945,187337,5
106951,187370,4
106978,187382,5
106987,187407,5
107012,187449,5
107038,187470,5
107040,187475,5
107063,187518,4
107095,187551,5
107108,187568,5
107104,187554,4
107089,187538,4
107083,187525,5
107051,187499,5
107035,187480,5
107031,187478,4
107042,187487,5
107061,187506,5
107072,187526,5
107079,187519,5
107032,187466,4
107001,187406,5
106927,187305,5
106889,187255,5
106864,187208,5
106855,187179,4
106800,187115,5
106760,187077,6
106746,187066,4
106742,187055,5
106737,187056,4
106750,187087,7
106758,187081,3
106747,187061,5
106675,186933,5
106613,186856,4
106549,186750,5
106455,186621,5
106371,186501,5
106338,186465,4
106313,186443,5
106278,186402,5
106275,186400,5
106284,186418,5
106302,186447,4
106331,186481,5
106353,186513,5
106378,186559,5
106417,186600,5
106442,186627,4
106447,186649,5
106480,186693,5
106500,186723,6
106501,186716,4
106345,186679,4
106473,186672,5
106469,186668,5
106455,186646,5
106111,186586,5
106359,186482,4
106273,186360,5
106189,186234,5
105738,186137,5
106051,186057,4
106013,186018,4
106005,186011,5
106008,186034,5
106033,186058,5
106045,186060,4
106052,186064,5
106352,186065,5
106039,186057,5
106023,186023,5
106016,186003,5
106349,185926,4
105917,185880,5
105905,185861,5
105900,185844,6
106056,185835,3
105860,185786,5
105805,185698,5
105714,185558,5
105642,185397,5
105520,185269,4
105405,185108,5
105285,184959,5
105212,184608,5
105149,184757,5
105118,184727,4
105091,184709,5
105093,184353,5
105089,184699,5
105088,184691,4
105067,184663,4
105052,184408,5
105044,184642,5
105024,184599,5
104997,184582,4
104988,184735,6
104990,184564,4
104959,184516,5
104912,184444,5
104855,184736,6
104801,184299,3
104740,184201,5
104683,184143,5
104694,184416,5
104681,184128,4
104680,184119,5
104667,184106,5
104631,184146,5
104592,183979,5
104549,183920,4
104488,183825,5
104421,183762,5
104382,183701,5
104346,183640,5
104280,183536,4
104192,183420,5
104150,183350,5
104122,183318,5
104105,183291,4
104113,183320,5
104147,183359,6
104173,183395,4
104171,183395,5
104167,183390,4
104155,183373,5
104135,183337,5
104074,183266,5
104053,183240,5
104055,183242,4
104059,183245,5
104069,183249,5
104081,183267,5
104080,183258,5
104077,183251,4
104047,183204,5
104014,183171,5
103980,183122,5
103959,183093,5
103940,183067,4
103925,183053,5
103926,183041,5
103905,183014,5
103875,182988,4
103879,182994,4
103891,182995,5
103883,182989,6
103864,182934,4
103833,182900,4
103804,182846,5
103754,182773,5
103682,182660,5
103599,182553,5
103538,182450,4
103472,182375,5
103402,182274,5
103354,182204,5
103373,182236,5
103420,182311,4
103440,182333,5
103422,182318,5
103453,182350,5
103476,182370,5
103503,182420,4
103505,182401,5
103492,182407,5
103478,182358,5
103423,182304,5
103389,182250,4
103359,182205,5
103325,182161,5
103297,182111,6
103269,182078,3
103265,182078,5
103264,182069,5
103233,182025,5
103215,182028,5
103234,182034,4
103238,182036,5
103230,182025,5
103220,182024,5
103221,182018,5
103199,181983,4
103162,181919,5
103138,181891,5
103137,181895,5
103159,181915,5
103144,181896,4
103144,181919,5
103135,181921,5
103165,181935,5
103168,181941,5
103181,181968,5
102965,181987,4
103215,182019,5
103217,182021,5
103232,182033,4
102912,182051,4
103236,182017,5
103202,181966,5
103165,181942,5
102948,181925,4
103138,181899,5
103115,181875,5
103093,181841,5
103254,181814,5
103059,181788,4
103041,181784,5
103029,181783,5
103413,181797,5
103079,181863,5
103173,181997,4
103243,182081,5
103528,182107,5
103281,182103,5
103264,182086,5
103241,182060,4
103317,182059,6
103237,182066,4
103242,182080,5
103265,182122,5
103312,182031,4
103312,182187,5
103264,182093,5
103194,181983,5
103118,181578,4
103110,181892,5
103145,181941,5
103166,181953,5
103169,181609,5
103158,181952,5
103146,181922,4
103137,181922,5
103144,181930,5
103182,182006,5
103266,182126,4
103324,182186,5
103320,182488,5
103306,182145,5
103268,182108,5
103266,182120,4
103279,182519,5
103281,182137,6
103291,182129,4
103270,182089,5
103198,182149,4
103113,181876,5
103078,181826,5
103103,181899,5
103245,182132,4
103315,182195,4
103329,182193,5
103303,182150,5
103260,182083,5
103215,182045,4
103259,182115,5
103339,182218,5
103353,182202,6
103241,182012,4
103119,181801,4
102913,181492,5
102658,181127,5
102484,180900,5
102416,180851,5
102488,180982,4
102666,181254,5
102869,181559,5
102958,181591,5
102837,181395,5
102757,181292,4
102682,181167,5
102614,181106,5
102650,181161,5
102745,181342,5
102912,181552,4
102935,181553,5
102912,181527,5
102892,181482,5
102781,181275,4
102600,181043,4
102559,181027,5
102645,181175,5
102759,181356,5
102925,181586,4
103100,181845,5
103219,181985,5
103253,182044,5
103366,182225,5
103463,182306,5
103309,182021,4
103076,181683,5
102904,181469,5
102852,181421,5
102903,181548,4
103099,181871,5
103361,182247,5
103517,182398,5
103515,182374,5
103403,182167,4
103256,181972,5
103196,181914,5
103241,182013,5
103389,182236,4
103514,182418,4
103652,182628,5
103664,182530,5
103429,182202,5
103287,182002,4
103173,181847,5
103146,181851,5
103211,181964,5
103376,182271,5
103791,182917,4
104168,183361,6
104123,183182,4
103927,182945,5
103877,182892,5
103902,182952,4
104063,183224,5
104259,183459,5
104316,183512,5
104295,183456,5
104272,183451,4
104311,183537,5
104452,183743,5
104654,184075,5
104853,184281,5
104818,184180,4
104698,183998,5
104607,183912,5
104457,183896,5
104594,183899,4
104597,183927,4
104673,184063,5
104470,184245,5
104970,184536,5
105132,184699,4
105027,184448,5
104357,183994,6
104481,183726,4
104430,183711,5
104517,183850,4
104726,184173,5
105023,184617,5
105263,184880,5
105276,184850,5
105423,184614,4
104880,184253,5
104640,183952,5
104588,183895,5
104990,183954,5
104728,184143,4
104864,184340,5
104967,184460,5
105189,184543,5
105039,184571,5
105088,184675,4
105239,184893,5
105450,185137,5
105461,185085,6
105207,184681,3
104910,184279,5
104687,183786,5
104631,183982,5
104734,184180,5
105049,184702,4
105522,184999,5
105789,185591,5
105721,185450,5
105539,185111,5
105061,184173,4
104632,183881,5
104487,183753,4
104493,183782,5
104586,184110,5
104711,184121,4
104816,184257,5
104904,184362,5
104940,184805,5
105097,184706,5
105438,185210,5
105627,185352,4
105482,185393,5
105267,184781,5
104989,184400,6
104848,184240,3
104836,184341,5
104893,184360,5
105014,184543,5
105197,184810,4
105384,185051,5
105311,184840,5
105074,184533,5
104892,184290,5
104819,184240,4
104869,184318,5
105001,184561,5
105209,184824,5
105296,184933,5
105337,184962,4
105336,184953,5
105315,184927,5
105307,184925,5
105366,185035,5
105498,185199,4
105453,185052,6
105199,184702,4
105019,184469,5
104893,184310,4
104876,184338,6
105004,184554,3
105272,184964,5
105611,185395,5
105655,185390,4
105590,185315,5
105588,185325,5
105620,185373,5
105676,185468,5
105809,185684,4
105887,185701,5
105778,185525,5
105597,185248,5
105396,184966,5
105291,184846,4
105301,184901,5
105384,185073,5
105613,185431,5
105901,185843,5
106139,186114,4
106137,186090,5
106109,186041,6
106101,185993,4
105951,185755,5
105770,185522,4
105637,185334,5
105605,185311,5
105644,185373,5
105680,185437,4
105755,185548,5
105868,185731,5
106011,185932,5
106058,185976,5
106072,186012,4
106139,186090,5
106127,186022,5
105924,185674,5
105670,185343,5
105485,185114,4
105438,185072,5
105516,185234,5
105747,185580,5
106041,186008,5
106151,186066,4
106103,185984,5
106064,185961,5
106056,185957,6
106076,185988,4
106145,186094,4
106250,186213,5
106109,185925,5
105859,185589,5
105575,185155,4
105286,184813,4
105249,184827,5
105390,185070,5
105723,185597,5
106135,186200,4
106410,186786,5
106857,187106,5
106832,186982,5
106442,186348,5
105694,185746,4
105714,185388,5
105589,185280,5
105652,185411,5
105476,185708,5
106057,186009,5
106278,186331,4
106442,186527,5
106453,186508,5
106448,186516,6
106517,186633,3
106664,186859,5
107186,187173,5
107049,187365,5
106986,187175,4
106531,186480,4
106469,185854,5
105690,185334,5
105433,185047,5
105408,185074,4
105669,185244,5
105727,185569,5
106004,185954,5
106214,186246,5
106392,186405,4
106502,186621,5
106615,186775,5
106718,186935,5
106862,186862,5
106937,187205,4
106920,187189,6
106907,187178,4
106907,186816,5
106913,187183,5
106907,187166,4
106917,187192,5
106975,187119,5
107037,187353,5
107044,187350,4
107009,187302,4
106975,187520,5
106966,187258,5
106950,187248,5
106936,187202,4
106910,187597,5
106919,187204,5
106902,187160,5
106839,187072,5
106765,187214,4
106722,186918,5
106699,186901,5
106704,186893,5
106708,186968,5
106757,186972,4
106818,187066,5
106872,187136,6
106898,187166,4
106896,187164,5
106884,187141,4
106881,187151,5
106874,187129,5
106880,187155,5
106902,187178,5
106934,187220,4
106937,187233,5
106974,187285,5
107016,187331,5
107015,187323,4
106987,187289,5
106969,187275,5
106962,187247,5
106921,187204,5
106894,187139,4
106848,187103,5
106828,187071,5
106813,187057,5
106786,187017,5
106774,187026,4
106793,187038,5
106808,187064,5
106824,187082,6
106825,187078,4
106822,187088,4
106831,187087,5
106829,187085,5
106845,187100,5
106840,187119,5
106891,187167,4
106938,187250,5
106972,187286,5
106967,187285,5
106974,187288,4
106987,187301,4
106989,187304,5
106983,187288,5
107002,187313,5
107011,187337,4
107021,187325,5
106999,187295,5
106990,187286,5
106955,187256,5
106925,187217,5
106905,187211,4
106909,187212,5
106922,187219,5
106914,187198,5
106871,187137,4
106817,187052,5
106762,186963,5
106699,186893,5
106652,186819,5
106634,186809,4
106617,186787,5
106617,186800,5
106637,186812,5
106662,186848,5
106693,186881,4
106717,186933,5
106745,186970,5
106767,186988,5
106768,186987,4
106788,187017,5
106803,187046,5
106805,187024,5
106765,186964,5
106723,186900,4
106673,186844,6
106617,186759,4
106549,186664,5
106514,186628,5
106518,186624,4
106524,186633,5
106535,186666,5
106398,186675,5
106548,186696,5
106578,186727,4
106614,186785,5
106342,186842,5
106713,186915,5
106763,186993,5
106814,187034,4
106450,187043,5
106829,187070,5
106865,187108,5
106884,187129,4
106887,187116,4
106869,187104,5
106869,187098,5
106879,187123,5
107196,187124,4
106869,187125,5
106874,187124,6
106881,187128,4
107268,187118,5
106850,187104,4
106836,187059,5
106824,187052,5
106975,187031,5
106806,187023,5
106799,187012,4
106789,187004,5
106813,186967,5
106769,186983,5
106742,186901,5
106650,186803,4
106603,186485,5
106570,186687,5
106543,186656,5
106533,186652,5
106534,186317,4
106546,186692,5
106543,186676,5
106535,186655,5
106523,186411,4
106510,186612,5
106492,186592,4
106475,186575,6
106454,186742,4
106444,186540,4
106437,186519,5
106421,186491,5
106395,186862,5
106399,186452,5
106401,186462,4
106386,186444,5
106353,186668,5
106315,186322,5
106237,186204,5
106158,186071,4
106021,185981,5
105927,185762,5
105859,185696,5
105844,185676,5
105840,185677,4
105829,185664,5
105786,185602,5
105846,185742,5
105919,185801,5
105918,185784,4
105914,185811,5
105965,185883,5
106083,186083,5
106313,186435,4
106584,186828,8
106890,187212,2
107111,187497,5
107292,187735,5
107428,187910,4
107500,188010,5
107533,188025,5
107502,187997,5
107470,187934,5
107431,187897,4
107434,187886,5
107387,187822,5
107316,187706,5
107217,187583,5
107104,187417,4
106998,187291,5
106919,187167,5
106824,187043,5
106722,186874,5
106565,186635,5
106369,186340,4
106139,186024,5
105921,185708,5
105708,185391,4
105511,185110,4
105336,184876,5
105175,184639,5
105021,184450,5
104926,184320,4
104843,184209,5
104783,184112,5
104666,183964,5
104538,183775,5
104454,183662,4
104379,183543,5
104305,183464,5
104256,183418,5
104264,183422,5
104251,183388,4
104210,183343,5
104180,183323,5
104157,183269,5
104123,183236,5
104080,183166,4
104039,183111,6
103995,183070,4
103976,183043,5
103951,183005,5
103935,182974,4
103867,182897,5
103807,182802,5
103731,182697,5
103654,182595,4
103552,182446,5
103461,182318,5
103388,182211,5
103348,182192,5
103332,182181,4
103314,182145,5
103273,182094,5
103241,182051,5
103189,181974,5
103154,181927,4
103136,181914,5
103150,181928,5
103164,181964,5
103179,181997,4
103145,182063,4
103260,182089,5
103283,182115,5
103298,182148,5
103042,182161,5
103293,182132,4
103264,182110,5
103263,182097,5
102928,182140,5
103300,182157,4
103321,182190,4
103328,182207,5
103200,182185,5
103306,182194,5
103312,182194,4
103316,182207,5
103584,182260,5
103416,182370,5
103492,182483,5
103536,182520,5
103903,182497,4
103518,182484,5
103520,182513,5
103577,182589,6
103816,182627,3
103645,182672,5
103657,182701,5
103675,182710,5
103728,182711,5
103700,182744,4
103786,182877,5
103884,182999,5
103920,182863,5
103929,183060,5
103934,183058,4
103935,183066,5
103911,182724,5
103911,183052,5
103922,183084,4
103956,183143,5
104039,182909,5
104094,183305,5
104083,183306,5
104075,183283,4
104075,183398,6
104078,183316,4
104142,183406,5
104195,183486,5
104297,183970,6
104379,183745,3
104431,183780,5
104414,183746,5
104386,184063,5
104387,183750,4
104438,183834,5
104500,183896,5
104516,184042,5
104553,183966,5
104556,183967,4
104556,183981,5
104582,184041,5
104617,184064,5
104633,184076,4
104633,184069,4
104634,184096,5
104659,184108,5
104683,184130,5
104704,184196,4
104741,184234,5
104792,184307,6
104836,184375,4
104854,184402,5
104872,184403,4
104872,184419,5
104881,184436,5
104949,184551,5
105068,184725,5
105239,184986,4
105405,185173,5
105439,185229,5
105442,185215,5
105402,185153,5
105353,185098,4
105337,185065,5
105335,185082,5
105354,185109,5
105377,185139,5
105410,185194,4
105404,185172,5
105409,185166,5
105405,185185,5
105445,185225,4
105495,185314,4
105568,185407,5
105634,185509,6
105676,185566,4
105674,185546,4
105665,185528,5
105706,185608,5
105796,185764,5
105940,185938,5
105995,185986,4
105997,185967,5
105938,185880,5
105854,185769,5
105802,185721,5
105815,185747,4
105831,185767,5
105855,185785,5
105857,185807,5
105874,185810,5
105864,185787,4
105843,185780,5
105850,185783,5
105862,185813,5
105920,185889,5
105985,185992,4
106019,186021,5
106028,186038,5
106045,186047,6
106044,186040,3
106032,186009,5
106015,186013,5
106011,186015,5
106012,186008,5
106005,185984,4
105975,185947,5
105963,185944,5
105953,185939,5
105951,185938,5
105972,185967,4
105994,186015,5
106048,186072,5
106082,186121,5
106102,186117,5
106091,186105,4
106107,186134,5
106109,186174,5
106163,186257,5
106274,186451,5
106486,186742,5
106441,186975,4
106808,187143,5
106850,187190,5
106851,187186,6
106516,187229,3
106917,187285,5
106967,187380,5
107103,187592,5
107000,187789,4
107307,187814,5
107283,187794,5
107239,187722,5
107390,187736,5
107285,187823,4
107412,188023,5
107556,188175,5
107924,188167,5
107541,188159,5
107506,188111,4
107484,188090,5
107815,188154,5
107594,188257,5
107720,188423,5
107828,188581,4
107975,188613,6
107825,188528,4
107750,188443,5
107732,188409,5
107772,188360,4
107872,188641,5
107944,188748,5
107990,188779,5
107973,188431,4
107948,188700,5
107914,188681,5
107922,188666,5
107939,188345,5
107992,188786,5
108005,188775,4
107983,188744,5
107907,188613,5
107851,188555,5
107844,188567,4
107946,188749,5
108105,189314,5
108376,189373,5
108647,189761,5
108792,189890,4
108779,190269,5
108673,189678,6
108590,189567,4
108565,189563,5
108588,189787,4
108621,189650,5
108669,189703,5
108687,189727,5
108703,189784,4
108728,189775,4
108778,189875,5
108898,190055,5
109076,190329,5
109307,190620,4
109359,190643,5
109208,190375,5
108969,190048,5
108793,189813,5
108664,189634,4
108578,189548,5
108576,189567,5
108631,189665,5
108680,189699,5
108690,189722,4
108712,189762,5
108730,189785,5
108716,189761,6
108696,189733,4
108671,189722,4
108696,189748,5
108716,189773,5
108727,189795,5
108725,189773,5
108698,189759,4
108691,189746,5
108678,189725,5
108675,189729,5
108677,189719,4
108679,189717,4
108672,189699,5
108637,189665,5
108591,189606,5
108562,189565,4
108554,189541,5
108527,189510,5
108519,189503,5
108516,189508,5
108539,189535,5
108542,189546,4
108547,189539,5
108548,189535,5
108518,189509,5
108505,189480,4
108475,189436,5
108442,189385,5
108412,189360,5
108402,189341,5
108378,189297,4
108334,189262,5
108324,189236,5
108304,189212,5
108288,189197,4
108295,189202,4
108311,189221,5
108312,189238,5
108303,189219,5
108305,189221,4
108300,189218,5
108308,189209,5
108295,189207,5
108289,189202,5
108268,189187,4
108278,189172,6
108271,189164,4
108255,189154,5
108249,189153,5
108254,189170,4
108262,189156,5
108260,189151,5
108260,189155,5
108264,189164,5
108255,189149,4
108211,189098,5
108167,189026,5
108125,188972,5
108096,188933,5
108056,188864,4
108020,188823,5
107997,188796,5
107832,188776,5
107983,188775,4
107974,188771,4
107989,188786,5
107681,188798,5
107996,188796,5
107994,188788,4
107983,188785,5
107606,188774,6
107977,188763,4
107964,188735,5
107931,188706,4
107953,188719,5
107927,188695,5
107886,188617,5
107807,188492,5
108041,188387,4
107679,188342,5
107650,188301,5
107625,188258,5
107991,188242,5
107583,188219,4
107567,188171,5
107533,188161,5
107693,188147,5
107519,188124,5
107498,188092,4
107478,188065,5
107496,188032,5
107458,188038,6
107442,188019,3
107444,188025,5
107466,187815,5
107516,188111,5
107539,188152,5
107554,188175,4
107588,187842,5
107588,188209,5
107577,188197,5
107571,188157,5
107535,187884,4
107532,188140,5
107522,188107,4
107490,188083,5
107481,188243,5
107472,188052,4
107474,188052,5
107465,188041,5
107470,188455,5
107475,188052,5
107466,188034,4
107434,188000,5
107421,188292,5
107426,187996,5
107417,187989,5
107410,187972,4
107432,188083,5
107432,187999,5
107408,187973,5
107411,187981,4
107433,188003,5
107455,188030,5
107462,188052,5
107497,188102,5
107538,188159,4
107564,188183,5
107560,188180,5
107550,188167,5
107550,188167,5
107545,188163,4
107536,188151,5
107535,188154,5
107545,188161,5
107541,188140,5
107519,188133,4
107491,188078,5
107476,188060,5
107485,188066,5
107482,188069,5
107492,188067,5
107495,188085,3
107503,188084,5
107492,188070,5
107455,188029,4
107435,188004,4
107434,187990,5
107419,187990,5
107416,187986,5
107426,187988,4
107431,187988,5
107410,187937,5
107377,187898,5
107382,187918,5
107405,187951,4
107411,187966,5
107421,187970,5
107450,188006,5
107491,188068,5
107512,188087,4
107423,187933,5
107203,187570,6
106848,187082,4
106539,186640,5
106297,186345,4
106186,186217,5
106160,186200,5
106178,186239,5
106214,186278,5
106224,186314,4
106294,186410,5
106383,186532,5
106463,186626,5
106526,186703,4
106531,186707,5
106516,186663,5
106442,186580,5
106414,186552,5
106420,186561,4
106423,186578,5
106426,186574,5
106441,186588,5
106463,186620,5
106477,186623,4
106449,186598,5
106429,186563,5
106424,186551,6
106427,186580,4
106457,186600,4
106465,186621,5
106494,186674,5
106539,186706,5
106526,186696,5
106496,186663,4
106461,186608,5
106441,186590,5
106402,186507,5
106305,186381,4
106198,186271,4
106180,186223,5
106169,186185,5
106131,186133,5
105849,186091,4
106082,186080,5
106076,186077,5
106075,186056,5
105695,186027,5
106049,186022,5
106031,186012,4
106040,186024,5
105841,186052,5
106071,186067,6
106083,186074,3
106093,186090,5
106284,186084,5
106095,186087,5
106095,186078,5
106077,186056,4
106435,186015,5
106023,185968,5
106002,185950,5
105973,185890,5
106223,185844,4
105896,185766,5
105845,185708,5
105786,185622,5
105802,185524,4
105648,185419,4
105590,185358,5
105545,185293,5
105488,185059,5
105421,185112,4
105382,185058,6
105352,185040,4
105345,184702,5
105312,184944,5
105268,184891,6
105245,184860,3
105207,184430,5
105147,184703,5
105080,184617,5
105053,184582,4
105036,184561,5
105043,184574,5
105039,184551,5
105010,184527,5
104998,184800,4
104960,184436,5
104901,184356,5
104846,184268,5
104793,184605,4
104750,184136,4
104708,184089,5
104683,184048,5
104664,184204,5
104648,184006,4
104612,183945,5
104554,183872,6
104536,183867,4
104505,183795,5
104474,183754,4
104447,183705,5
104411,183662,5
104377,183625,5
104343,183552,5
104254,183430,4
104186,183336,5
104147,183281,5
104112,183252,5
104080,183193,5
104062,183172,4
104037,183143,5
104024,183108,5
103988,183065,5
103940,182978,5
103906,182950,4
103890,182946,5
103886,182923,5
103866,182899,5
103841,182870,4
103812,182818,4
103775,182775,5
103756,182753,6
103761,182747,4
103766,182761,4
103744,182724,5
103704,182686,5
103697,182665,5
103696,182658,5
103671,182629,4
103642,182586,5
103628,182573,5
103613,182528,5
103579,182494,5
103551,182477,4
103540,182462,5
103534,182443,5
103510,182405,5
103495,182399,5
103505,182398,4
103503,182415,5
103502,182409,5
103503,182416,5
103507,182422,5
103505,182412,4
103507,182408,5
103503,182407,5
103515,182421,6
103531,182424,3
103516,182437,5
103535,182458,5
103545,182470,5
103553,182483,5
103561,182506,4
103584,182539,5
103609,182560,5
103623,182580,5
103618,182581,5
103629,182614,4
103642,182616,5
103622,182595,5
103618,182588,5
103619,182577,5
103608,182576,4
103612,182571,5
103598,182554,5
103591,182529,5
103563,182523,5
103557,182513,5
103545,182492,4
103521,182443,5
103474,182386,5
103446,182333,4
103409,182298,4
103351,182213,5
103281,182140,5
103283,182147,5
103288,182151,4
103311,182190,5
103207,182239,5
103383,182285,5
103391,182263,5
103366,182230,4
103034,182220,5
103363,182255,5
103409,182327,5
103452,182373,5
103109,182390,4
103442,182334,5
103400,182284,5
103359,182245,5
103367,182234,5
103372,182272,4
103386,182282,6
103384,182277,4
103699,182282,5
103398,182288,4
103420,182331,4
103463,182398,5
103880,182457,5
103507,182461,5
103515,182490,4
103509,182466,5
103645,182408,5
103443,182348,5
103408,182324,5
103426,182336,4
103466,182338,5
103460,182366,5
103442,182368,5
103408,182315,5
103386,182059,4
103403,182316,5
103449,182392,5
103498,182451,5
103569,182199,5
103585,182555,5
103567,182517,4
103545,182491,6
103508,182245,4
103495,182439,5
103505,182469,4
103532,182502,5
103557,182731,5
103608,182616,5
103632,182628,4
103618,182617,4
103604,182990,5
103642,182677,5
103745,182819,5
103883,183019,4
103956,183374,5
103986,183123,5
103976,183112,5
103946,183072,5
103913,183123,4
103907,183059,5
103937,183092,5
103984,183162,5
104017,183205,5
104019,183182,4
103974,183142,5
104002,183176,5
104102,183345,5
104245,183554,5
104323,183641,4
104332,183626,5
104311,183592,5
104282,183562,5
104252,183505,5
104222,183491,4
104229,183498,5
104241,183516,5
104266,183547,5
104286,183568,4
104257,183523,5
104193,183429,5
104162,183397,5
104175,183430,5
104211,183508,4
104316,183642,5
104399,183773,5
104448,183813,5
104418,183754,5
104370,183709,5
104380,183737,4
104462,183850,5
104590,184056,5
104671,184133,5
104668,184116,4
104612,184002,5
104507,183890,5
104484,183861,5
104511,183920,5
104576,184000,4
104619,184071,5
104669,184139,5
104720,184209,5
104744,184224,4
104738,184223,4
104749,184245,5
104805,184340,5
104881,184451,5
104931,184528,4
104971,184552,5
104977,184574,5
104996,184614,5
105018,184639,5
105056,184693,4
105106,184752,6
105159,184843,4
105201,184913,5
105217,184929,5
105214,184879,4
105174,184831,5
105139,184814,5
105180,184888,5
105310,185099,5
105491,185351,4
105565,185409,5
105550,185370,5
105535,185343,5
105563,185405,5
105653,185564,4
105819,185794,5
105963,186026,5
106041,186107,5
106010,186028,4
105932,185912,4
105855,185807,5
105793,185757,5
105814,185808,5
105886,185907,4
105955,185971,5
105998,186004,6
105991,186017,4
105982,186016,5
106002,186008,4
105993,186004,5
106013,186042,5
105844,186153,5
106164,186277,5
106239,186357,4
106237,186339,5
105853,186288,5
106172,186245,5
106192,186311,5
106239,186368,4
106057,186418,5
106290,186409,5
106219,186293,5
106076,186075,4
106023,185741,4
105673,185551,5
105648,185537,5
105649,185536,5
106042,185542,3
105663,185549,5
105644,185505,5
105593,185421,5
105849,185426,5
105626,185522,4
105703,185608,5
105738,185631,5
105805,185598,5
105661,185494,5
105571,185385,4
105515,185326,5
105511,185189,5
105496,185328,5
105521,185378,5
105597,185487,4
105672,185260,5
105692,185614,5
105708,185631,5
105722,185665,5
105761,185360,5
105896,185938,4
106051,186118,5
106070,186122,5
106048,186066,6
105997,185997,3
105955,185950,5
105924,185906,5
105926,186239,5
105935,185925,4
105945,185934,5
105941,185956,5
105957,186356,5
105924,185923,5
105905,185907,4
105931,185949,5
106031,186297,5
106206,186352,5
106304,186458,5
106314,186460,4
106296,186442,5
106169,186214,5
106016,186007,5
105944,185959,5
105954,185980,4
105969,186008,6
106027,186076,4
106054,186117,5
106078,186123,4
106030,186057,6
105986,186007,3
105986,186035,5
106051,186124,5
106107,186218,4
106174,186287,5
106179,186274,8
106136,186183,2
106045,186069,5
105977,185981,4
105957,185945,5
105983,186017,5
106082,186197,5
106281,186482,5
106430,186647,4
106436,186637,5
106415,186608,5
106414,186606,5
106410,186583,5
106383,186576,4
106381,186568,5
106355,186545,6
106323,186482,4
106254,186374,5
106172,186266,4
106131,186241,5
106135,186242,5
106166,186290,5
106218,186358,4
106255,186408,4
106244,186378,5
106191,186288,5
106112,186172,5
106026,186056,4
106005,186025,5
105985,186033,5
106013,186075,5
106056,186115,5
106068,186135,4
106073,186135,5
106059,186098,5
106007,186042,5
105985,186031,5
105998,186050,4
106007,186049,5
106004,186042,5
105972,185982,6
105917,185926,4
105919,185947,4
105923,185944,5
105908,185926,5
105887,185897,5
105891,185922,5
105939,185977,4
105975,185998,5
105946,185981,5
105940,185991,5
105954,186001,4
105981,186025,4
105991,186032,5
105983,186032,5
105975,185995,5
105962,185999,4
105955,185979,5
105892,185882,5
105807,185764,5
105774,185710,5
105738,185661,5
105685,185597,4
105658,185559,5
105670,185570,5
105669,185578,6
105547,185597,3
105702,185617,5
105715,185649,5
105730,185660,5
105417,185645,5
105719,185660,4
105733,185658,5
105740,185672,5
105378,185674,5
105738,185668,4
105702,185612,4
105661,185569,5
105597,185513,5
105587,185458,5
105559,185418,4
105556,185424,5
105841,185416,5
105546,185407,5
105549,185429,5
105573,185448,4
105963,185453,6
105568,185441,4
105572,185450,5
105584,185459,5
105777,185480,4
105600,185480,5
105593,185468,5
105586,185474,5
105629,185456,5
105592,185465,4
105584,185469,5
105586,185468,5
105597,185270,5
105605,185484,5
105579,185440,4
105552,185405,5
105531,185053,5
105510,185357,5
105485,185326,4
105478,185311,4
105474,185001,5
105444,185265,5
105412,185204,5
105374,185166,4
105339,185284,5
105355,185132,6
105323,185089,4
105304,185062,5
105279,185409,4
105294,185045,5
105277,185023,5
105233,184956,5
105224,185258,5
105218,184932,4
105206,184911,5
105196,184907,5
105205,185024,5
105205,184924,5
105202,184910,4
105172,184877,5
105141,184825,5
105114,184795,5
105131,184810,4
105125,184794,4
105106,184773,5
105104,184784,5
105114,184793,5
105126,184800,4
105122,184808,5
105133,184815,5
105146,184828,6
105147,184826,4
105127,184782,4
105098,184726,5
105059,184684,5
105033,184668,5
105015,184619,5
104994,184608,4
104969,184582,5
104972,184575,5
104961,184566,5
104950,184548,5
104947,184555,4
104960,184555,5
104948,184557,5
104933,184542,5
104925,184525,5
104909,184517,4
104898,184493,5
104892,184483,5
104846,184437,5
104842,184425,5
104846,184418,4
104844,184420,5
104834,184416,5
104822,184401,5
104814,184396,4
104798,184353,5
104764,184301,5
104727,184240,5
104698,184210,5
104680,184187,4
104673,184175,5
104664,184162,5
104673,184182,5
104679,184181,5
104665,184156,4
104656,184138,5
104633,184117,5
104615,184087,5
104595,184070,5
104598,184081,4
104617,184088,5
104611,184074,5
104599,184081,5
104596,184049,5
104583,184056,5
104584,184038,4
104540,183984,5
104494,183925,5
104461,183869,4
104418,183812,4
104353,183709,5
104275,183597,5
104193,183469,5
104147,183421,4
104115,183384,5
104066,183308,5
104035,183258,5
104002,183204,5
103964,183164,4
103929,183108,5
103907,183047,5
103842,182964,5
103772,182858,5
103700,182781,4
103693,182746,5
103671,182741,5
103668,182716,5
103636,182654,5
103617,182641,4
103383,182618,6
103571,182578,4
103526,182513,5
103468,182422,4
103037,182279,4
103247,182092,5
103102,181905,5
103014,181774,5
102692,181711,4
102922,181651,5
102875,181570,5
102828,181539,5
102972,181521,5
102824,181525,4
102826,181533,5
102852,181553,5
103202,181526,5
102806,181466,5
102737,181382,4
102683,181293,5
102928,181233,5
102576,181147,6
102500,181025,4
102433,180940,4
102467,180845,5
102288,180743,6
102263,180715,4
102263,180718,5
102249,180573,4
102217,180637,5
102174,180580,5
102148,180551,5
102144,180247,4
102133,180517,4
102106,180509,5
102123,180525,5
102123,180155,5
102132,181202,5
102095,181146,4
102050,181106,5
102026,181018,5
101960,180953,5
101906,180892,4
101876,180845,5
101832,181085,5
101821,180786,5
101834,180817,5
101876,180855,4
101871,181252,5
101868,180869,5
101890,180909,5
101936,180958,5
101963,181161,4
101969,180979,5
101971,180988,5
101991,181012,5
101992,181055,4
101999,181022,4
101990,181021,5
101990,181023,5
101993,181033,5
102008,181034,4
102014,181071,5
102064,181126,5
102107,181184,5
102145,181241,5
102162,181257,4
102158,181257,5
102152,181250,5
102144,181239,5
102149,181249,5
102145,181243,5
102157,181264,4
102161,181282,5
102165,181277,5
102155,181261,5
102146,181261,4
102146,181260,5
102158,181281,5
102161,181288,5
102168,181303,5
102157,181289,4
102143,181278,5
102133,181286,5
102184,181349,5
102227,181415,4
102299,181510,4
102334,181564,5
102349,181565,5
102325,181521,5
102271,181463,4
102230,181406,5
102209,181396,5
102207,181368,5
102219,181398,5
102231,181411,4
102235,181388,6
102216,181383,3
102197,181361,5
102207,181382,5
102221,181411,4
102256,181458,5
102271,181482,5
102275,181475,5
102255,181442,5
102249,181442,4
102255,181468,5
102306,181560,5
102371,181629,5
102412,181685,5
102458,181727,4
102446,181693,5
102405,181682,5
102403,181680,5
102430,181703,4
102458,181755,5
102477,181778,5
102488,181787,6
102470,181773,4
102485,181787,4
102496,181810,5
102526,181871,5
102581,181970,5
102683,182084,5
102737,182143,4
102737,182141,5
102701,182074,5
102649,182017,5
102614,181974,5
102608,181980,4
102626,182009,5
102652,182056,5
102681,182076,5
102714,182131,5
102744,182131,4
102720,182122,5
102704,182092,5
102562,182092,5
102704,182107,5
102714,182142,4
102743,182169,5
102458,182186,5
102744,182161,6
102721,182138,3
102715,182138,5
102380,182181,5
102762,182214,5
102796,182263,5
102824,182292,4
102840,182331,5
102848,182345,5
102868,182348,5
102888,182390,5
103251,182527,4
103072,182668,5
103170,182809,5
103209,182865,5
103601,182871,5
103202,182837,4
103189,182817,5
103173,182802,5
103335,182803,5
103187,182826,5
103208,182852,5
103222,182881,4
103249,182871,5
103214,182867,5
103214,182864,6
103223,182885,3
103259,182707,5
103283,182975,5
103301,182998,5
103315,183011,4
103307,182651,5
103290,182975,5
103285,182969,5
103261,182971,5
103298,182765,4
103354,183105,5
103408,183196,4
103476,183253,5
103503,183454,5
103523,183338,4
103548,183356,5
103622,183474,5
103713,183968,5
103778,183691,5
103842,183788,4
103922,183886,6
103972,184256,4
103995,183990,5
104032,184031,4
104066,184099,4
104115,184268,5
104150,184219,5
104182,184254,5
104197,184270,4
104183,184270,5
104187,184258,5
104199,184300,5
104235,184346,5
104286,184415,4
104350,184487,5
104386,184535,5
104391,184549,5
104414,184583,5
104448,184620,4
104490,184700,5
104564,184811,5
104669,184952,5
104758,185056,5
104805,185084,5
104755,185027,4
104716,184986,6
104687,184959,4
104695,184975,5
104708,185004,4
104754,185055,5
104787,185114,5
104794,185118,5
104777,185089,4
104759,185053,4
104726,185013,5
104711,185016,5
104726,185047,5
104754,185062,4
104755,185078,5
104768,185097,5
104780,185127,5
104794,185166,5
104857,185249,4
104926,185361,5
104983,185429,5
105008,185442,5
104989,185402,5
104966,185374,4
104924,185313,5
104880,185266,5
104861,185268,6
104912,185341,4
105009,185499,4
105147,185680,5
105232,185758,5
105279,185831,5
105306,185880,5
105344,185931,4
105384,185997,5
105464,186106,5
105543,186216,5
105619,186309,4
105645,186342,5
105624,186284,5
105543,186182,5
105492,186120,5
105470,186117,4
105495,186145,5
105522,186171,5
105524,186182,5
105526,186187,5
105529,186196,5
105535,186206,4
105546,186234,5
105628,186357,5
105729,186481,6
105776,186527,3
105779,186544,5
105790,186560,5
105786,186536,5
105745,186484,5
105692,186397,4
105678,186416,5
105694,186422,5
105706,186439,5
105702,186433,4
105716,186438,4
105732,186466,5
105757,186498,5
105758,186508,5
105557,186540,4
105806,186580,5
105828,186601,5
105811,186574,5
105465,186548,5
105764,186510,4
105758,186514,6
105780,186543,4
105566,186590,5
105840,186627,5
105853,186636,4
105843,186620,5
105993,186615,5
105825,186589,5
105813,186572,5
105805,186574,4
106181,186601,5
105850,186634,5
105854,186625,5
105836,186609,5
106108,186577,4
105815,186547,5
105787,186518,5
105730,186432,5
105773,186373,4
105649,186338,4
105613,186290,5
105577,186212,5
105536,186030,5
105467,186094,4
105465,186073,5
105479,186075,6
105485,185791,4
105509,186086,5
105514,186084,4
105500,186015,5
105447,185558,5
105379,185832,5
105383,185803,5
105387,185776,4
105336,185633,5
105199,185448,5
105043,185226,5
104889,184960,5
104656,184913,4
104424,184325,5
104236,184082,5
104072,183869,5
103929,184094,4
103773,183466,4
103552,183169,5
103340,182885,5
103098,182765,5
102894,182311,4
102679,182036,5
102526,181836,5
102383,181706,6
102269,181506,4
102107,181318,4
101977,181205,5
101903,181092,5
101830,181031,5
101756,180935,5
101670,180816,4
101588,180698,5
101553,180693,5
101567,180716,5
101612,180759,5
101652,180812,4
101692,180858,5
101739,180946,5
101858,181116,5
102045,181352,5
102199,181573,4
102366,181805,5
102523,182005,5
102677,182212,5
102787,182329,5
102878,182445,4
102982,182567,5
103024,182575,5
102982,182502,5
102960,182458,4
102926,182391,5
102874,182290,5
102781,182118,5
102678,181964,5
102557,181809,4
102471,181647,5
102336,181459,5
102221,181266,5
102103,181080,5
102012,180954,4
101913,180814,5
101844,180705,5
101729,180534,5
101643,180406,5
101544,180269,4
101482,180171,5
101427,180083,5
101405,180032,5
101349,179958,5
101289,179869,5
101209,179748,4
101114,179583,5
100997,179450,5
100942,179347,4
100934,179341,4
100966,179384,5
101014,179442,5
101058,179486,5
101112,179563,4
101188,179674,5
101262,179755,5
101343,179858,5
101406,179924,5
101433,179954,4
101424,179886,5
101358,179762,5
101291,179655,5
101204,179517,5
101127,179390,4
101046,179307,5
101007,179217,5
100928,179119,5
100875,179009,5
100809,178874,4
100694,178745,6
100597,178592,4
100531,178508,5
100501,178410,4
100443,178306,4
100353,178177,5
100239,177982,5
100142,177847,5
100061,177718,4
100004,177633,5
99849,177572,5
99946,177520,5
99927,177460,5
99831,177289,4
99449,177159,5
99649,177025,5
99580,176916,5
99501,176818,5
99093,176750,4
99429,176748,5
99377,176635,5
99330,176557,5
99196,176419,5
99135,176280,4
99043,176126,5
98947,176004,5
99166,175930,5
98835,175859,5
98689,175607,4
98489,175318,5
98705,175064,5
98176,174868,5
98641,174787,4
98583,174712,4
98704,174624,5
98437,174447,5
98255,174162,5
98021,173799,4
97857,173519,5
97630,173248,5
97501,173093,5
97469,173067,5
97456,172808,4
97443,172955,5
97360,172828,5
97213,172612,5
97089,172127,5
96986,172288,5
96921,172189,4
96869,172123,5
96828,171765,5
96741,171926,5
96683,171844,4
96613,171754,5
96596,171895,5
96590,171749,5
96582,171750,5
96616,171788,4
96625,172150,5
96636,171833,5
96655,171859,5
96688,171898,4
96755,172296,4
96839,172115,5
96919,172248,5
96990,172341,5
97038,172472,4
97023,172353,6
96982,172294,4
96937,172237,5
96900,172204,5
96894,172189,6
96895,172178,3
96864,172132,5
96827,172085,5
96790,172032,5
96729,171953,4
96678,171899,5
96646,171855,5
96621,171824,5
96598,171788,5
96592,171770,4
96594,171813,5
96623,171840,5
96614,171839,5
96650,171901,5
96676,171944,4
96688,171956,5
96687,171964,5
96699,171981,5
96694,171989,4
96704,171985,5
96733,172060,6
96785,172127,4
96839,172211,5
96902,172283,4
96906,172262,7
96880,172240,3
96864,172214,5
96831,172162,5
96812,172137,4
96782,172097,5
96774,172081,5
96738,172027,5
96714,172001,5
96695,171971,4
96779,172101,5
96792,172093,5
96680,171899,5
96630,171925,5
96742,172063,4
96778,172061,5
96611,171790,5
96390,171491,5
96261,171364,4
96244,171332,4
96217,171260,5
96141,171143,6
96039,170993,4
95929,170826,4
95826,170663,5
95714,170536,5
95656,170443,5
95574,170340,5
95510,170254,4
95437,170154,5
95336,170016,5
95240,169891,5
95114,169698,5
94942,169440,4
94711,169128,5
94564,168892,5
94306,168603,5
94173,168319,5
93901,167918,4
93574,167467,5
93237,166964,5
92841,166385,5
92469,165821,5
92087,165276,4
91647,164632,5
91209,164003,5
90745,163253,6
90147,162930,3
89548,162071,4
88884,161101,5
88306,160274,5
87739,159490,5
87295,158836,4
86796,158112,5
86266,157274,5
85458,156340,5
84872,155277,5
84183,154274,4
83550,153405,5
82790,152552,5
82471,151759,5
81887,150899,5
81958,150098,4
81271,149314,5
80878,148515,5
80360,147805,5
79915,147183,5
79522,147141,5
78926,146333,4
78395,145583,5
77934,144865,5
77656,144235,6
77106,143639,3
76740,143114,5
76377,142542,5
76133,141935,5
75569,141302,4
75142,140641,5
74752,139991,5
74347,139292,5
73852,138588,5
73469,138000,4
73065,137339,5
72668,136606,5
72094,135744,5
71459,134712,5
70930,133890,4
70421,132918,5
69919,132300,5
69543,131662,5
69141,131001,5
68744,130891,4
68353,130423,6
68034,129862,4
67680,129290,5
67319,128682,5
66982,128150,4
66627,127589,5
66302,127053,5
65990,126633,5
65696,126066,4
65423,125633,4
65901,125325,5
65761,125229,5
65612,124827,5
65443,124542,4
65252,124231,5
65044,123951,5
64842,123574,5
64689,123321,5
64551,123075,4
64383,122796,5
64189,122471,5
63945,122052,5
63692,121616,5
63407,121168,4
63104,120705,5
62874,120366,6
62629,119971,4
62418,119650,5
62254,119373,4
62105,119108,5
61959,118839,5
61832,118649,5
61735,118481,5
61676,118389,4
61621,118282,5
61571,118186,8
61494,118042,2
61393,117861,4
61271,117660,4
61172,117461,5
61070,117316,5
60972,117135,5
60880,116958,4
60749,116698,5
60556,116349,5
60353,116036,5
60186,115728,5
60041,115503,4
59945,115364,5
59903,115278,5
59839,115188,6
59783,115102,4
59749,115026,4
59735,115014,5
59745,115041,5
59773,115082,5
59783,115083,5
59781,115076,4
59762,115033,5
59727,114953,5
59691,114885,5
59658,114811,5
59628,114782,4
59604,114701,5
59536,114580,5
59461,115184,5
59380,115001,4
59281,114854,5
59194,114684,5
59088,114518,5
59003,114367,5
58935,114235,5
58869,114135,4
58840,114097,5
58815,114050,5
58796,114028,5
58806,114049,4
58864,114181,5
58900,114157,5
58749,113925,5
58650,113798,5
58593,113701,4
58565,113698,5
58579,113709,5
58584,113698,5
58569,113687,5
58569,113676,4
58572,113678,5
58555,113647,5
58541,113610,5
58520,113585,4
58526,113595,4
58534,113607,5
58522,113596,5
58517,113561,5
58479,113499,4
58431,113439,6
58404,113377,4
58378,113320,5
58363,113282,5
58306,113228,4
58296,113180,5
58259,113109,5
58205,113035,5
58077,112926,5
58089,112822,4
58034,112730,5
57977,112626,5
57830,112533,5
57887,112454,5
57830,112359,4
57773,112264,5
57687,112162,5
57664,112065,5
57604,111960,5
57525,111850,4
57524,111690,5
57370,111562,5
57298,111432,4
57211,111331,4
57266,111246,4
57120,111178,6
57067,111095,4
57010,110998,5
57005,110906,4
56911,110850,5
56865,110764,5
56833,110724,5
56814,110653,5
56763,110579,4
56714,110489,5
56660,110401,5
56606,110259,5
56572,110254,5
56551,110221,4
56538,110225,5
56536,110144,5
56546,110222,5
56522,110180,5
56487,110126,4
56450,109959,5
56400,109961,5
56340,109877,5
56298,109793,5
56257,109767,4
56225,109694,5
56210,109667,6
56192,109639,4
56192,109732,4
56180,109625,4
56177,109609,5
56157,109565,5
56126,109607,5
56099,109480,4
56099,109467,5
56105,109475,5
56125,109537,5
56144,109541,5
56163,109588,4
56200,109646,5
56236,109703,5
56267,109743,5
56300,109814,5
56344,109879,4
56391,109952,5
56430,110025,5
56474,110082,5
56491,110134,5
56537,110193,4
56577,110269,5
56607,110305,5
56634,110339,5
56659,110374,5
56669,110394,4
56681,110402,5
56679,110405,5
56691,110431,5
56719,110471,4
56730,110474,4
56731,110492,5
56735,110506,5
56754,110528,5
56778,110585,4
56814,110633,5
56839,110675,5
56864,110722,5
56884,110766,5
56900,110794,4
56921,110841,5
56945,110863,5
56957,110885,5
56970,110912,5
56981,110936,5
56999,110989,4
57001,111019,5
57012,111033,5
57012,111040,5
57018,111032,4
56993,111005,5
56965,110946,5
56932,110897,5
56895,110849,5
56881,110824,4
56861,110793,5
56855,110799,5
56861,110800,5
56858,110793,4
56850,110804,5
56865,110840,5
56877,110850,5
56881,110858,5
56882,110858,4
56882,110839,5
56861,110816,5
56848,110803,5
56844,110797,5
56831,110785,4
56832,110772,6
56826,110772,3
56825,110775,5
56828,110776,5
56805,110764,4
56824,110787,5
56837,110823,5
56854,110845,5
56874,110871,5
56889,110885,4
56909,110927,5
56929,110965,5
56966,111038,5
57024,111134,4
57089,111268,4
57163,111372,5
57225,111503,5
57318,111629,5
57419,111806,4
57511,111966,5
57614,112130,5
57710,112299,5
57822,112487,4
57932,112658,4
57984,112827,5
58118,112980,5
58207,113110,5
58271,113205,5
58248,113337,4
58421,113468,5
58495,113592,5
58568,113711,5
58544,113832,5
58730,113958,4
58776,114035,5
58828,114105,5
58900,114202,5
58933,114303,5
58995,114392,4
59033,114456,5
59171,114521,5
59120,114636,5
59179,114719,5
59227,114813,4
59422,114888,5
59342,114976,5
59389,115051,6
59429,115092,3
59501,115128,5
59458,115132,5
59444,115117,5
59426,115070,5
59389,114999,4
59340,114945,5
59308,114884,5
59270,114830,5
59252,114732,5
59235,114785,4
59222,114767,5
59206,114740,5
59189,114615,5
59169,114730,5
59193,114744,4
59195,114750,5
59202,114705,5
59203,114771,5
59224,114792,5
59248,114864,5
59298,114987,4
59329,114979,5
59381,115051,5
59400,115114,6
59450,115317,3
59488,115245,5
59531,115325,5
59602,115440,5
59676,115664,4
59759,115706,5
59828,115812,5
59891,115908,5
59953,116039,5
59996,116102,4
60075,116222,5
60158,116354,5
60235,116495,5
60334,116614,5
60402,116742,4
60486,116902,5
60577,117044,5
60657,117192,5
60764,117371,5
60883,117549,4
60989,117724,6
61084,117882,4
61192,118064,5
61302,118217,5
61375,118341,4
61423,118420,5
61459,118464,5
61478,118486,5
61487,118511,4
61526,118562,5
61565,118638,5
61600,118693,5
61667,118794,5
61717,118870,4
61762,118936,5
61818,119025,5
61869,119112,5
61928,119199,5
61976,119285,4
62017,119378,5
62094,119483,5
62154,119586,5
62197,119651,5
62213,119687,4
62228,119716,5
62244,119741,6
62247,119741,4
62246,119756,5
62271,119777,4
62280,119802,5
62305,119839,5
62341,119910,5
62395,119992,4
62450,120089,4
62531,120232,5
62617,120372,5
62702,120509,5
62794,120659,4
62924,120878,5
63124,121284,5
63375,121604,5
63576,121962,5
63837,122385,4
64084,122756,5
64295,123093,5
64485,123388,5
64649,123638,5
64799,123912,4
64985,124230,5
65180,124557,5
65356,124856,6
65523,125148,4
65668,125383,4
65815,125636,5
65988,125910,5
66166,126265,5
66419,126690,5
66688,127142,4
66943,127555,5
67129,127869,5
67309,128163,5
67515,128523,4
67745,128899,4
67991,129285,5
68221,129648,5
68397,129930,5
68559,130197,4
68716,130459,5
68859,130679,5
68998,130915,5
69182,131231,5
69369,130801,5
69582,131148,4
69650,131409,5
69912,131670,5
70077,131956,6
70284,132303,3
70330,132609,5
70667,132893,5
70802,133087,5
70935,133294,5
70882,133456,4
71162,133650,5
71276,133868,5
71421,134085,5
71608,134262,5
71623,134383,4
71695,134500,5
71718,134544,5
71911,134554,5
71737,134569,4
71754,134619,4
71804,134708,5
72069,134886,5
71997,135022,5
72063,135104,4
72142,135219,6
72312,135419,4
72413,135657,5
72560,135845,5
72638,135987,4
72711,136042,5
72754,136147,5
72769,136186,5
72816,136265,5
72862,136177,4
72898,136414,5
72971,136527,5
73038,136618,5
73063,136458,5
73075,136662,5
73106,136729,4
73190,136889,5
73295,137035,5
73424,137301,5
73580,137522,4
73680,137653,5
73692,137828,5
73687,137705,5
73695,137750,4
73707,137801,5
73755,138116,6
73771,137916,4
73756,137905,5
73730,137868,4
73694,137956,5
73689,137814,5
73650,137766,5
73620,137726,5
73582,137679,4
73516,137557,5
73438,137432,5
73365,137333,5
73334,137283,5
73321,137292,4
73349,137320,5
73359,137310,5
73330,137269,5
73274,137208,5
73221,137102,4
73151,137026,5
73138,137025,5
73139,137035,5
73149,137056,4
73143,137051,5
73110,136989,4
73067,136927,6
73033,136899,4
73030,136902,4
73032,136941,5
73069,136991,5
73104,137055,5
73148,137108,5
73155,137131,4
73140,137115,5
73143,137141,5
73174,137207,5
73231,137320,5
73265,137369,4
73280,137405,5
73300,137440,5
73290,137438,5
73306,137485,5
73350,137599,4
73445,137756,5
73521,137893,5
73575,137967,5
73577,137995,5
73583,138004,4
73617,138057,5
73676,138198,5
73795,138399,5
73906,138562,4
73994,138679,4
74062,138791,5
74130,138868,5
74185,138957,5
74270,139113,4
74382,139312,5
74536,139568,5
74677,139784,5
74774,139917,5
74845,140011,4
74859,140065,5
74896,140112,5
74972,140264,5
75087,140466,5
75202,140632,4
75255,140712,5
75298,140737,5
75292,140755,5
75295,140746,5
75293,140761,5
75314,140788,4
75340,140836,5
75397,140920,5
75478,141051,5
75539,141133,4
75633,141288,5
75698,141324,5
75676,141315,5
75683,141339,4
75737,141424,5
75773,141445,5
75798,141501,5
75844,141578,5
75937,141713,4
76029,141844,5
76119,141990,5
76218,142131,5
76248,142236,5
76381,142372,4
76443,142471,5
76509,142553,5
76375,142607,5
76557,142626,5
76589,142659,4
76633,142735,6
76427,142767,4
76665,142779,5
76665,142782,5
76663,142806,4
76601,142823,5
76683,142839,5
76695,142877,5
76721,142903,4
76884,142914,4
76748,142952,5
76775,142989,5
76814,143062,5
77152,143208,4
76969,143288,5
77039,143416,5
77111,143499,5
77297,143550,5
77175,143586,4
77199,143600,5
77217,143642,5
77295,143701,5
77299,143757,5
77352,143834,4
77377,143883,5
77424,143843,6
77496,144062,4
77570,144178,5
77664,144334,4
77766,144298,5
77855,144616,5
77915,144693,5
77926,144699,5
77904,144450,4
77892,144658,5
77877,144651,5
77885,144658,5
77884,144724,4
77896,144704,4
77913,144720,5
77916,144738,5
77952,145022,5
78009,144872,4
78063,144960,5
78120,145023,5
78147,145298,5
78167,145079,6
78198,145151,3
78224,145169,5
78226,145302,5
78244,145236,5
78304,145341,5
78421,145519,4
78549,145741,5
78681,145896,5
78716,145945,5
78735,145963,5
78747,145986,4
78760,146034,5
78836,146139,5
78926,146281,5
79010,146404,5
79124,146570,4
79207,146686,5
79289,146816,5
79404,146983,5
79504,147146,4
79647,147376,5
79794,147595,4
79910,147092,5
80022,147262,5
80108,147401,6
80242,147612,3
80474,148029,5
80832,148631,5
81362,149487,5
81952,150368,4
81884,151288,5
82427,152021,5
82755,152494,5
83017,152930,5
83328,153385,4
83648,153905,5
84108,154639,5
84674,155451,5
85198,156201,5
85685,156943,4
86244,157743,5
86730,158415,5
87271,159195,5
87816,159945,5
88361,160754,4
88964,161645,6
89681,162644,4
90316,163492,5
90934,164395,4
91424,164425,7
91829,164981,3
92178,165448,5
92361,165689,5
92459,165873,4
92540,165999,5
92620,166124,5
92647,166184,5
92660,166219,5
92653,166199,4
92609,166159,5
92603,166180,5
92648,166233,5
92644,166235,5
92617,166194,4
92542,166078,5
92449,165949,5
92394,165887,5
92386,165878,5
92413,165913,4
92424,165920,5
92406,165883,6
92341,165765,4
92248,165610,4
92121,165395,4
91925,165096,5
91698,164757,5
91435,164384,5
91160,163969,4
90817,163438,5
90425,162889,5
90026,162291,5
89585,161626,5
89155,161002,4
88747,160410,5
88363,159864,5
88009,159340,5
87601,158724,5
86988,158021,4
86672,157392,5
86280,156824,5
85924,156320,5
85417,155874,5
85364,155490,4
85102,155111,5
84851,154714,5
84399,154373,6
84372,153969,4
84087,153518,4
83816,153147,5
83676,152857,5
83409,152546,5
83222,152256,4
82972,151848,4
82868,151361,5
82300,150823,5
82019,150427,5
81797,150105,4
81804,149819,5
81391,149477,5
81117,149057,5
80793,148569,5
80524,148030,4
80072,147480,5
79783,147077,5
79539,147373,5
79307,146949,5
79011,146539,5
78705,146063,4
78422,145636,5
78154,145071,5
77948,144949,5
77834,144738,4
77707,144542,5
77610,144209,5
77533,144260,5
77429,144078,5
77269,143836,4
77122,143533,5
77038,143468,5
77000,143427,5
76958,143345,4
76888,143352,5
76765,143025,5
76574,142717,5
76332,142337,5
76060,142107,4
75799,141474,5
75524,141042,5
75267,140627,5
74982,140279,5
74636,139598,4
74269,139012,6
73920,138485,4
73684,138160,5
73460,137791,5
73217,137417,4
72952,136979,5
72688,136594,5
72448,136195,5
72215,135839,5
72029,135546,4
71923,135397,5
71835,135224,5
71690,134976,5
71527,134696,4
71331,134361,4
71120,134014,5
70903,133660,5
70687,133335,5
70478,132990,4
70295,132711,5
70137,132449,5
70014,132258,5
69877,132030,5
69738,131811,4
69602,131590,5
69464,131352,6
69323,131123,4
69163,130844,5
69009,131299,4
68893,131080,5
68692,130759,5
68493,130407,5
68285,130061,5
68080,129732,4
67872,129346,5
67548,128802,5
67169,128180,5
66762,127610,5
66438,127061,4
66095,126450,5
65724,125869,5
65448,125450,5
65956,125183,4
65764,124875,4
65606,124654,5
65488,124421,5
65315,124124,5
65174,123926,4
65074,123733,5
64963,123547,5
64872,123394,6
64754,123203,4
64653,123044,4
64508,122781,5
64357,122537,5
64189,122272,5
64037,122019,5
63867,121744,4
63696,121453,5
63520,121145,5
63295,120807,5
63111,120484,5
62974,120274,4
62841,120065,5
62756,119925,5
62659,119798,5
62584,119650,5
62497,119503,4
62396,119352,5
62309,119212,5
62213,119075,5
62167,118999,5
62092,118871,4
62031,118802,5
61988,118726,5
61936,118664,6
61903,118585,3
61871,118534,5
61850,118517,5
61847,118499,5
61835,118492,5
61808,118434,4
61763,118356,5
61674,118290,5
61654,118189,5
61604,118098,5
61549,118012,4
61407,117935,5
61440,117832,5
61372,117712,5
61313,117617,5
61152,117548,4
61244,117486,5
61218,117440,5
61177,117381,5
61101,117333,4
61121,117292,5
61109,117270,4
61111,117278,5
61196,117309,5
61127,117303,4
61093,117270,5
61059,117204,5
61162,117157,5
60995,117086,5
60968,117063,4
60945,117026,5
61019,117016,5
60933,117000,5
60917,116996,5
60925,116979,4
60933,116976,5
60909,116980,5
60915,117001,5
60936,117035,5
60963,117012,4
60988,117107,5
60997,117121,5
61010,117145,5
61024,117038,5
61031,117168,4
61039,117166,6
61033,117156,4
61029,117027,5
61035,117151,5
61055,117181,4
61032,117140,5
60987,117079,5
60938,116974,5
60891,116882,4
60833,116792,5
60749,116785,5
60679,116536,5
60520,116209,5
60250,115847,4
60325,116186,5
60400,116117,5
60413,116165,5
60456,116223,5
60472,116295,4
60484,116268,5
60480,116252,5
60467,116233,5
60472,116238,5
60456,116200,4
60419,116133,5
60367,116035,6
60275,115896,4
60186,115739,5
60101,115609,4
60039,115520,5
59989,115435,5
59930,115333,5
59837,115195,4
59759,115062,5
59691,114941,5
59621,114830,8
59577,114765,2
59562,114730,4
59513,114682,5
59505,115348,5
59441,115283,5
59412,115203,5
59367,115166,4
59347,115150,5
59338,115127,5
59336,115107,5
59334,115086,5
59299,115033,4
59258,114976,5
59221,114904,5
59192,114865,5
59181,114851,5
59176,114847,4
59183,114847,5
59183,114842,5
59163,114828,5
59151,114801,4
59128,114770,4
59120,114744,5
59110,114724,5
59097,114717,5
59096,114727,4
59115,114741,5
59101,114741,5
59075,114689,5
59052,114679,5
59039,114659,4
59038,114625,5
59005,114567,5
58972,114520,5
58926,114435,5
58887,114371,5
58860,114342,4
58844,114292,5
58818,114270,5
58802,114224,5
58773,114221,4
58775,114230,5
58798,114260,5
58798,114237,5
58792,114210,5
58764,114179,4
58734,114146,5
58726,114108,5
58699,114068,5
58701,114068,4
58683,114009,4
58662,114011,5
58673,114031,5
58710,114087,5
58741,114133,4
58783,114204,5
58821,114266,5
58850,114303,5
58865,114343,5
58892,114381,4
58927,114432,6
58962,114499,4
59040,114636,5
59121,114768,5
59182,114855,4
59226,114936,5
59256,114967,5
59223,115026,5
59341,115102,5
59380,115197,4
59439,115298,5
59374,115343,5
59507,115358,5
59498,115346,5
59481,115338,4
59375,115356,5
59528,115410,5
59572,115488,5
59610,115558,4
59667,115584,5
59657,115632,5
59684,115673,6
59736,115772,4
59908,115847,4
59863,115977,5
59951,116110,5
60011,116214,5
60169,116255,5
60069,116289,4
60080,116307,5
60094,116363,5
60178,116391,5
60158,116461,5
60190,116486,4
60196,116517,5
60216,116500,5
60220,116537,5
60249,116593,5
60320,116710,4
60367,116680,5
60400,116840,5
60442,116918,5
60500,117034,5
60569,116994,4
60636,117226,5
60697,117335,5
60736,117390,6
60758,117373,3
60783,117477,5
60827,117566,5
60878,117648,5
60945,117864,5
61029,117900,4
61106,118027,5
61157,118074,5
61157,118227,5
61154,118090,5
61211,118214,4
61296,118338,5
61353,118495,5
61377,118450,5
61428,118524,5
61477,118635,4
61557,118782,5
61619,118853,5
61659,118910,5
61685,118932,5
61682,118942,5
61736,119039,4
61794,119110,5
61819,119162,5
61827,119168,6
61835,119159,3
61833,119161,5
61816,119164,5
61855,119220,5
61926,119339,4
61995,119430,5
62030,119481,5
62028,119466,5
61987,119420,5
61960,119367,4
61954,119374,5
61975,119395,5
61979,119392,5
61948,119341,5
61907,119271,4
61911,119315,5
61969,119421,5
62057,119546,5
62135,119708,5
62226,119800,4
62196,119739,6
62141,119681,4
62126,119665,5
62149,119722,5
62146,119673,6
62108,119627,3
62087,119622,5
62091,119607,5
62075,119582,4
62051,119533,4
62035,119514,5
61994,119428,5
61940,119358,5
61907,119294,4
61838,119157,5
61755,119070,5
61733,119053,5
61767,119097,5
61775,119107,4
61734,119032,5
61748,119099,5
61830,119236,5
61888,119291,5
61867,119262,4
61879,119264,5
61868,119245,6
61824,119198,4
61903,119347,5
62010,119510,4
62090,119594,5
62106,119635,5
62069,119583,5
62087,119646,4
62176,119796,4
62242,119862,5
62278,119927,5
62310,119978,5
62367,120087,4
62495,120366,5
62763,120770,5
62897,120921,5
62901,120913,5
62852,120801,4
62775,120727,5
62829,120859,5
63036,121217,5
63261,121562,5
63282,121527,4
63233,121433,5
63190,121418,5
63263,121605,6
63461,121938,4
63606,122128,4
63567,121983,5
63521,121930,5
63509,121939,5
63487,122102,5
63570,122019,4
63575,121979,5
63480,121852,5
63349,121970,5
63667,122236,4
63871,122581,4
64053,122854,5
64156,123078,5
64247,123154,5
64268,123269,4
64410,123562,5
64717,123860,5
64743,124116,5
64888,124294,5
64889,124307,5
65089,124388,4
65100,124744,5
65267,124995,5
65282,124991,6
65417,125071,3
65454,125333,5
65631,125607,5
65746,125805,5
65964,126152,5
66107,126422,4
66312,126705,5
66418,126910,5
66552,127038,5
66691,127344,4
66748,127432,4
66857,127660,5
67056,127818,5
67234,128209,5
67227,128148,4
67168,128105,5
67239,128131,5
67533,128754,5
67670,128917,5
67663,128888,4
67666,128978,6
67791,129154,4
67875,129284,5
67939,129358,5
68055,129824,4
68443,130304,5
68964,131158,5
69365,130911,5
69438,131152,5
69530,131275,4
70179,132489,5
71058,133723,5
71330,134019,5
71314,133952,5
71491,134397,4
72123,135462,5
72997,136874,5
73704,137787,5
73992,138256,4
74649,139504,4
75859,141542,5
77330,143740,5
78422,145286,5
79476,147022,4
81045,149497,5
82827,151450,6
83649,153306,4
84422,154270,5
85000,155283,4
86263,157309,5
88313,160496,5
90691,163982,5
93086,166653,5
95142,169352,4
96479,171029,5
97590,172610,5
98360,173519,5
98180,174104,5
98561,174633,4
98795,174979,5
99153,175562,5
99805,176737,5
101103,178622,5
102750,180765,4
103445,180939,5
103515,180902,5
103263,180535,5
102860,179959,4
102489,179500,5
102345,179302,5
102048,178824,6
101737,178399,4
101484,178059,4
101356,177973,5
101529,178273,5
101930,178921,5
102574,179908,5
103409,181079,4
104075,181853,5
104266,181996,5
104193,181815,5
103941,181378,5
103383,180559,4
102798,179680,5
102189,178822,5
101650,178087,5
101169,177434,5
100869,177066,4
100692,176855,5
100614,176778,5
100582,176755,5
100541,176690,5
100482,176620,4
100514,176698,5
100555,176749,5
100544,176737,5
100485,176641,4
100388,176511,5
100247,176320,5
100121,176163,5
100040,176080,5
100087,176222,4
100321,176646,5
100826,177531,5
101809,179158,5
103648,182055,5
106491,186125,4
109839,190681,5
112940,194798,5
115699,198316,5
117362,200363,5
119098,202534,4
120262,203942,5
120915,204688,5
121245,204974,5
121461,205233,5
121729,205608,5
121832,205965,4
122363,206414,5
122967,207351,5
123925,208744,4
124862,210482,5
126728,212699,5
128136,214611,5
129614,216078,5
130983,218364,4
132819,220573,5
134042,223102,5
136020,225970,5
138374,228931,5
140159,231316,4
142048,233207,5
143765,235443,5
145651,237328,5
146514,239163,5
147679,240603,4
147609,241353,5
148627,242086,5
148503,242496,5
148603,242688,5
148480,242684,4
148605,242735,6
148357,242676,4
148255,242595,5
148120,242448,4
148022,242244,4
147946,242396,5
147947,242401,5
147946,242454,5
148001,242134,4
148070,242687,5
148151,242853,5
148276,243109,5
148375,242703,5
148437,243432,5
148506,243603,4
148484,243625,5
148505,243643,5
148460,243703,5
148390,243671,4
148320,243634,5
148210,244046,5
148134,243576,6
148063,243534,4
147972,243462,4
147898,244012,5
147851,243328,5
147730,243252,5
147708,243224,5
147592,243487,4
147543,243188,5
147534,243215,5
147444,243183,5
147352,243197,4
147272,243071,4
147218,243046,5
147203,243044,5
147159,243008,5
147118,243001,4
147078,242975,5
147045,242976,5
147023,242979,5
147009,243002,5
147033,243003,4
147037,243031,5
147033,243033,5
147031,243045,5
146984,243034,5
146978,243031,4
146968,243048,6
147013,243119,4
147065,243188,5
147076,243241,5
147069,243240,4
147043,243275,5
147048,243302,5
147068,243353,5
147104,243407,4
147140,243466,4
147204,243548,5
147285,243623,5
147383,243736,5
147369,243723,4
147308,243705,5
147263,243688,5
147213,243673,5
147181,243676,5
147143,243663,4
147060,243603,5
146910,243484,4
146725,243353,5
146482,243176,5
146225,242925,6
145931,242702,3
145678,242520,5
145488,242406,5
145269,242148,5
144939,241921,4
144728,241780,5
144512,241560,5
144359,241416,5
144235,241298,5
144122,241234,4
144066,241173,5
144005,241130,5
143876,241000,5
143746,240858,4
143580,240699,4
143385,240476,5
143178,240239,5
142979,240019,5
142788,239850,4
142603,239641,5
142421,239382,6
142088,239009,4
141802,238726,5
141599,238477,4
141331,238182,7
141181,237993,3
141009,237771,5
140795,237518,5
140525,237188,4
140192,236793,5
139919,236482,5
139729,236267,5
139530,236013,5
139292,235767,4
139074,235464,5
138739,235015,5
138306,234522,5
137872,234002,4
137515,233605,4
137269,233317,5
137128,233168,5
136827,232984,5
136822,232770,4
136657,232559,5
136462,232328,5
135932,232151,6
136150,231987,4
136030,231842,4
135905,231679,5
135348,231576,5
135707,231470,5
135597,231377,5
135523,231271,4
135456,231281,5
135482,231302,5
135508,231354,5
135556,231405,5
135937,231445,4
135603,231478,5
135603,231493,5
135611,231496,5
136085,231541,5
135679,231596,4
135777,231721,5
135884,231850,5
136176,231938,5
135998,231952,5
135958,231883,4
135859,231745,5
135845,231677,5
135801,231701,6
135847,231735,3
135866,231751,5
135871,231482,5
135889,231750,5
135889,231747,5
135892,231764,4
135916,231377,5
135958,231830,5
136010,231870,5
136048,231885,5
136064,231560,4
136044,231872,5
136034,231857,5
136048,231858,5
136055,232059,5
136075,231897,4
136113,231936,5
136152,231954,5
136146,232382,5
136116,231897,5
136086,231873,5
136091,231877,4
136101,232281,5
136133,231943,5
136169,231978,6
136180,231981,3
136183,232110,5
136177,231971,5
136178,231979,5
136190,231995,4
136205,232011,5
136207,231996,5
136206,231974,5
136158,231927,5
136083,231827,4
136012,231735,5
135977,231712,5
135966,231701,5
135994,231717,5
136018,231729,4
136016,231709,5
135976,231682,5
135934,231613,5
135866,231546,5
135829,231490,4
135789,231461,6
135795,231460,4
135784,231401,5
135710,231290,4
135612,231114,4
135466,230957,5
135330,230760,5
135219,230602,5
135161,230512,4
135102,230426,5
135073,230352,5
134986,230223,5
134858,230042,5
134729,229886,4
134604,229704,5
134491,229541,5
134462,229500,5
134478,229479,5
134473,229441,4
134420,229372,5
134300,229197,5
134142,228987,5
133992,228790,5
133852,228626,4
133760,228532,5
133731,228492,6
133687,228427,4
133633,228357,5
133571,228293,4
133541,228276,5
133549,228292,5
133589,228346,5
133649,228436,4
133697,228474,5
133699,228491,5
133702,228506,5
133693,228501,5
133694,228522,4
133726,228574,5
133816,228700,5
133978,228893,5
134097,229010,5
134164,229061,4
134154,229067,5
134158,229048,5
134140,229042,5
134144,229059,5
134175,229076,4
134195,229082,5
134172,229057,5
134127,229031,6
134140,229026,4
134139,229024,4
134117,228998,5
134130,229015,5
134182,229063,5
134236,229119,4
134231,229097,4
134162,229003,5
134105,228941,5
134045,228873,5
134007,228845,4
134010,228854,5
134094,228928,5
134112,228930,5
134111,228941,5
133852,228934,4
134067,228898,5
134099,228971,5
134209,229073,5
133884,229133,5
134280,229142,5
134298,229150,4
134303,229155,5
134059,229168,5
134320,229147,5
134310,229161,4
134327,229157,5
134606,229246,5
134468,229307,5
134486,229308,5
134492,229315,4
134869,229274,5
134485,229305,5
134500,229334,5
134542,229385,4
134879,229399,5
134566,229371,5
134545,229353,5
134511,229304,5
134547,229224,4
134376,229141,5
134299,229040,5
134277,229010,5
134277,228859,5
134239,228945,4
134182,228877,6
134046,228718,4
133933,228273,5
133850,228504,5
133825,228491,4
133896,228593,5
134039,228395,5
134211,228988,5
134397,229226,5
134648,229574,4
135010,230020,5
135421,230522,5
135849,231088,5
136254,231580,4
136499,232191,4
136648,232034,5
136786,232227,5
136907,232358,5
137031,232959,4
137149,232636,5
137285,232819,5
137403,232946,5
137469,233249,5
137542,233153,4
137597,233242,5
137673,233362,6
137799,233558,4
138001,233795,5
138268,234143,4
138554,234472,5
138686,234619,5
138744,234722,5
138791,234795,5
138917,234982,4
139097,235196,5
139219,235334,5
139320,235462,5
139374,235512,5
139401,235556,4
139411,235573,5
139419,235591,5
139457,235638,5
139522,235707,4
139679,235948,5
139830,236117,5
139888,236146,5
139878,236162,5
139861,236153,4
139842,236128,5
139833,236124,5
139866,236168,5
139962,236263,5
140063,236360,4
140100,236410,5
140080,236378,5
140045,236352,5
140017,236340,5
140023,236326,4
140037,236349,5
140096,236380,5
140114,236397,5
140078,236351,5
139986,236269,4
139908,236224,5
139882,236189,5
139856,236156,5
139847,236147,4
139829,236106,4
139780,236050,5
139729,236010,5
139680,235980,5
139640,235944,5
139606,235925,4
139546,235866,5
139506,235815,5
139410,235716,5
139309,235614,4
139157,235443,5
138962,235250,5
138746,235014,5
138473,234737,5
138146,234385,4
137731,233938,5
137312,233476,5
136863,232957,5
136370,232358,5
135899,231770,4
135339,231118,5
134796,230434,5
134135,229543,5
133456,228770,5
132921,228080,4
132448,227561,5
132103,227123,5
131707,226646,5
131265,226130,4
130768,225509,5
130926,224910,4
130591,224536,5
130433,224339,5
130310,224215,4
130184,224078,5
130053,223910,5
129799,223558,5
129538,223231,5
129353,223035,4
129284,222960,5
129140,222932,5
129213,222864,5
129134,222766,5
128986,222557,4
128468,222316,5
128657,222184,5
128648,222189,5
128676,222221,5
128308,222209,4
128620,222135,5
128477,221916,5
128243,221650,5
128029,221472,4
128011,221433,4
127968,221402,6
127951,221376,4
128173,221260,5
127742,221072,4
127504,220799,5
127253,220478,5
127507,220337,5
127100,220341,5
127147,220380,4
127161,220391,5
127311,220373,5
127056,220261,5
126930,220094,5
126867,220063,4
126929,220100,5
126978,220207,5
127020,220220,5
127015,220227,5
126986,219955,4
126888,220045,5
126813,219975,5
126817,219997,6
126841,219690,4
126864,220056,4
126856,220024,4
126799,219938,5
126681,219555,5
126584,219687,5
126582,219709,4
126660,219819,5
126727,220054,5
126769,219922,5
126769,219899,4
126728,219837,5
126642,220095,5
126609,219718,5
126650,219788,5
126735,219861,4
126746,220143,5
126713,219816,5
126665,219720,5
126498,219511,5
126372,219489,5
126388,219428,4
126448,219500,5
126490,219531,5
126476,219499,6
126405,219402,3
126288,219236,5
126110,219041,5
126059,218975,5
126036,218969,5
126036,218944,4
126024,218930,5
125997,218883,5
125931,218792,5
125826,218673,4
125771,218637,4
125837,218749,5
125970,218893,5
126047,218969,8
126045,218967,1
126028,218916,5
125953,218839,5
125883,218780,5
125918,218826,5
125998,218935,4
126075,219006,6
126109,219022,4
126115,219022,5
126027,218905,5
125923,218774,6
125907,218792,3
126009,218925,5
126169,219151,5
126369,219375,5
126529,219530,4
126620,219616,5
126642,219629,5
126639,219643,5
126756,219811,4
127001,220121,4
127246,220365,5
127346,220455,5
127368,220454,5
127355,220438,4
127323,220385,5
127336,220430,5
127407,220505,5
127498,220624,5
127614,220757,4
127675,220803,5
127667,220787,6
127640,220730,4
127617,220725,5
127669,220817,4
127826,221013,5
127960,221145,5
128020,221207,5
128085,221255,5
128117,221285,4
128151,221331,5
128254,221477,5
128458,221724,5
128674,221946,5
128921,222261,4
129211,222578,5
129472,222848,5
129677,223057,5
129817,223219,4
129996,223464,4
130282,223833,5
130635,224276,5
130954,224623,5
131135,224806,4
131250,224931,5
131313,224993,5
131390,225087,6
131535,225292,4
131861,225630,4
132184,226024,5
132512,226377,5
132746,226619,5
132855,226795,5
133043,226950,4
133208,227180,5
133470,227522,5
133433,227831,5
133976,228096,5
134147,228282,4
134179,228291,5
133730,228243,5
134111,228202,5
134109,228193,5
134116,228228,4
133901,228194,5
134066,228163,5
134024,228104,5
133993,228057,5
134146,227963,4
133820,227890,5
133820,227912,5
133904,227998,6
134435,228090,3
134050,228115,5
134061,228111,5
134073,228124,5
134383,228132,5
134106,228159,4
134154,228214,5
134215,228280,5
134358,228338,5
134288,228353,5
134265,228316,4
134209,228239,5
134120,227946,5
134018,228039,5
133929,227948,5
133872,227858,4
133793,227420,5
133725,227729,5
133666,227643,5
133608,227602,4
133556,227092,5
133539,227495,4
133506,227478,5
133486,227452,5
133455,227465,4
133430,227397,5
133430,227375,5
133419,227374,5
133390,227744,5
133369,227295,4
133333,227271,5
133337,227275,5
133374,227804,5
133459,227357,5
133496,227421,4
133549,227462,5
133588,227694,5
133618,227526,5
133626,227509,5
133597,227468,4
133577,227464,5
133548,227408,5
133581,227425,5
133619,227458,5
133644,227467,4
133642,227448,6
133639,227443,4
133637,227444,5
133675,227476,4
133704,227513,5
133727,227541,5
133777,227621,5
133883,227714,5
133936,227750,4
133932,227741,5
133923,227729,5
133919,227733,5
133918,227710,5
133886,227685,4
133863,227636,5
133804,227568,5
133768,227554,5
133775,227570,5
133749,227559,4
133760,227575,5
133765,227575,5
133756,227575,5
133752,227553,5
133721,227538,4
133714,227518,5
133693,227500,6
133685,227509,4
133720,227566,4
133775,227640,4
133868,227763,5
133967,227840,5
134011,227884,5
134061,227961,4
134135,228024,5
134183,228106,5
134263,228193,5
134332,228276,5
134403,228336,4
134438,228357,5
134433,228368,5
134427,228350,5
134385,228317,5
134355,228303,4
134342,228274,5
134331,228256,5
134336,228262,5
134356,228291,5
134399,228338,4
134439,228388,5
134476,228443,5
134537,228494,6
134590,228580,4
134672,228659,4
134791,228779,5
134872,228867,5
134934,228908,5
134987,228967,4
135021,229002,5
135096,229056,5
135155,229128,5
135253,229256,5
135369,229354,4
135412,229408,5
135446,229414,5
135437,229412,5
135421,229383,5
135411,229360,4
135425,229376,5
135466,229422,5
135471,229390,5
135429,229330,5
135404,229332,5
135390,229343,4
135459,229431,5
135514,229476,5
135553,229514,5
135302,229609,4
135696,229680,5
135749,229746,5
135767,229748,5
135217,229700,4
135694,229666,4
135690,229658,5
135723,229689,5
135343,229739,5
135794,229752,4
135840,229802,5
135868,229819,5
136086,229822,5
135896,229879,5
135931,229942,4
136034,230042,5
136706,230163,5
136198,230220,5
136268,230303,5
136268,230284,4
136689,230265,6
136263,230251,4
136253,230248,5
136271,230284,5
136409,230266,4
136268,230250,5
136249,230224,5
136236,230206,5
136248,230015,4
136283,230275,4
136323,230321,5
136436,230450,5
136519,230024,5
136576,230611,5
136609,230621,4
136576,230573,5
136556,229975,5
136559,230560,5
136552,230554,4
136634,230628,5
136668,230668,5
136687,230678,6
136691,230653,4
136675,230638,4
136738,231218,5
136802,230779,7
136903,230886,3
136977,230952,5
136999,231631,4
137051,231017,5
137027,230970,5
136966,230875,5
136897,231098,5
136903,230834,4
136955,230884,5
136973,230881,5
136935,230881,5
136889,230793,4
136844,230752,5
136829,230751,5
136864,230773,5
136881,230792,5
136939,230860,4
137005,230912,5
137059,230976,5
137137,231037,5
137158,231063,5
137175,231074,4
137205,231096,5
137234,231116,5
137325,231189,5
137325,231192,5
137346,231205,4
137309,231136,5
137211,231055,5
137174,231027,5
137169,230998,5
137227,231066,4
137287,231131,5
137337,231170,5
137372,231214,5
137391,231217,4
137365,231192,4
137341,231180,5
137391,231241,5
137458,231289,5
137494,231311,4
137500,231319,5
137507,231322,5
137483,231294,5
137482,231307,5
137507,231341,5
137544,231373,4
137646,231499,5
137782,231627,5
137933,231807,5
138094,231978,4
138197,232075,5
138259,232157,5
138378,232295,5
138585,232511,5
138820,232722,4
138970,232879,5
139101,232982,5
139128,233015,5
139143,233038,5
139163,233078,4
139225,233120,5
139344,233215,5
139396,233265,5
139420,233286,4
139447,233328,5
139407,233281,5
139360,233271,4
139393,233300,5
139420,233320,4
139370,233268,7
139357,233277,3
139459,233432,10
139943,234000,9
139943,234000,8
139947,233928,5
140084,234126,5
140201,234253,8
140336,234398,5
140463,234560,5
140612,234758,8
140777,234976,5
141044,235296,5
141386,235703,5
142052,236372,8
142052,236372,0
142211,236517,5
142357,236725,6
142472,236850,4
142571,236941,4
142582,236937,5
142720,237040,5
142766,237045,5
142718,236972,5
142553,236740,4
142489,236612,5
142357,236421,5
142282,236332,5
142224,236252,5
142186,236103,4
142110,235987,5
142075,235916,5
142038,235787,5
141938,235631,5
141915,235533,4
141876,235440,5
141773,235242,5
141629,235039,5
141580,234903,5
141403,234657,4
141253,234452,5
141113,234261,5
140973,234117,6
140830,233825,3
140502,233344,5
140186,232976,5
140065,232759,5
139859,232462,5
139601,232091,4
139296,231661,5
138973,231218,5
138546,230641,5
138175,230117,5
137729,229606,4
137427,229093,5
137041,228565,5
