RED,IR,EKG,TIME
29224,57761,9
29226,57751,5
29221,57760,5
29225,57771,8
29215,57777,5
29230,57746,5
29226,57766,5
29232,57768,8
29225,57762,5
29225,57762,5
29212,57763,8
29211,57766,5
29213,57746,5
29222,57764,8
29216,57748,5
29218,57759,5
29211,57719,5
29212,57723,8
29221,57745,5
29223,57745,5
29211,57736,8
29211,57736,5
29210,57740,5
29205,57719,5
29199,57721,8
29199,57722,5
29207,57739,5
29211,57724,8
29203,57712,5
29205,57728,5
29203,57732,8
29212,57725,5
29193,57721,5
29210,57717,5
29190,57695,8
29190,57695,5
29199,57702,5
29212,57699,8
29211,57693,5
29177,57705,5
29188,57692,5
29198,57700,8
29189,57698,5
29196,57698,5
29192,57700,8
29188,57705,5
29200,57699,5
29202,57705,8
29202,57705,5
29223,57713,5
29203,57708,5
29192,57721,8
29199,57720,5
29199,57719,5
29204,57715,8
29206,57726,5
29192,57717,5
29196,57728,5
29211,57716,8
29207,57723,5
29196,57723,5
29206,57736,8
29206,57736,5
29193,57731,5
29210,57725,8
29212,57740,5
29192,57720,5
29201,57696,5
29195,57701,8
29200,57705,5
29211,57708,5
29205,57707,8
29195,57704,5
29200,57708,5
29203,57722,5
29209,57720,8
29209,57720,5
29208,57737,5
29206,57713,8
29206,57712,5
29195,57711,5
29242,57722,8
29209,57711,5
29170,57712,5
29198,57712,5
29198,57718,8
29206,57740,5
29199,57727,5
29212,57739,8
29212,57739,5
29216,57694,5
29206,57732,5
29213,57732,8
29217,57736,5
29210,57740,5
29185,57742,8
29219,57753,5
29218,57758,5
29220,57764,8
29230,57763,5
29228,57775,5
29229,57782,1
29240,57792,2
29242,57786,5
29222,57772,4
29233,57765,5
29215,57766,6
29218,57758,4
29231,57756,5
29214,57748,4
29216,57757,5
29222,57747,5
29206,57745,5
29221,57740,4
29222,57752,4
29225,57758,5
29227,57755,5
29233,57767,5
29224,57753,4
29219,57760,5
29224,57772,5
29227,57771,5
29232,57770,5
29235,57767,4
29226,57774,5
29233,57766,5
29226,57758,5
29233,57769,5
29228,57773,4
29230,57769,5
29221,57769,5
29220,57753,5
29224,57761,5
29213,57757,4
29226,57752,5
29219,57762,5
29219,57770,5
29221,57767,4
29225,57766,5
29229,57765,5
29229,57774,5
29228,57775,5
29229,57783,4
29239,57789,5
29232,57793,5
29246,57802,5
29237,57796,5
29237,57795,4
29248,57804,5
29248,57801,5
29245,57808,5
29242,57817,5
29251,57818,5
29256,57816,4
29255,57825,5
29253,57827,5
29256,57833,5
29263,57837,4
29258,57833,5
29264,57837,5
29264,57848,5
29257,57837,4
29258,57851,5
29273,57843,5
29272,57851,5
29270,57853,5
29275,57869,4
29272,57868,5
29265,57858,5
29270,57859,5
29273,57864,5
29271,57857,4
29259,57859,5
29271,57855,6
29268,57858,4
29264,57859,5
29269,57853,4
29268,57859,7
29270,57860,3
29272,57852,5
29269,57851,5
29268,57856,4
29266,57858,5
29276,57857,5
29269,57859,5
29271,57869,4
29280,57869,5
29270,57867,5
29270,57861,5
29273,57863,5
29275,57861,4
29269,57855,5
29267,57851,5
29266,57861,5
29272,57857,5
29270,57863,4
29267,57858,5
29264,57859,5
29265,57858,6
29272,57854,4
29266,57865,4
29268,57855,5
29267,57862,5
29265,57863,5
29268,57854,5
29267,57852,4
29266,57850,5
29258,57847,5
29264,57838,5
29260,57843,4
29261,57840,5
29258,57841,5
29261,57842,5
29259,57838,5
29259,57843,4
29256,57839,5
29263,57842,5
29256,57837,5
29261,57834,5
29267,57850,5
29257,57847,4
29265,57842,5
29257,57850,5
29266,57852,6
29267,57846,3
29256,57846,5
29267,57841,5
29261,57851,5
29261,57847,5
29268,57856,4
29263,57860,5
29269,57855,5
29270,57848,8
29264,57852,1
29266,57855,5
29271,57851,5
29255,57852,5
29269,57855,5
29269,57858,4
29266,57851,5
29269,57855,5
29262,57853,5
29274,57853,5
29254,57856,4
29267,57844,6
29266,57854,4
29269,57853,5
29267,57855,5
29263,57848,6
29268,57854,3
29273,57842,5
29263,57851,5
29255,57846,5
29259,57853,4
29265,57853,5
29264,57848,5
29261,57856,5
29265,57854,4
29253,57849,5
29261,57838,5
29263,57853,5
29262,57839,5
29264,57843,4
29261,57848,5
29263,57847,5
29258,57851,5
29263,57858,5
29261,57853,4
29270,57853,5
29268,57857,6
29260,57858,4
29266,57854,5
29260,57847,4
29253,57837,5
29256,57836,5
29254,57837,5
29258,57835,5
29259,57835,4
29257,57838,5
29263,57839,5
29262,57840,5
29262,57842,4
29260,57848,5
29262,57845,5
29265,57850,5
29270,57845,5
29264,57851,4
29264,57848,5
29274,57858,5
29264,57855,5
29275,57865,5
29262,57864,4
29269,57864,5
29273,57860,5
29269,57866,6
29267,57865,4
29261,57865,4
29271,57862,5
29267,57871,5
29274,57856,5
29269,57862,5
29272,57866,4
29267,57862,5
29273,57867,5
29276,57867,5
29279,57863,4
29272,57874,5
29260,57858,5
29262,57861,5
29263,57847,5
29266,57850,4
29260,57849,5
29270,57841,5
29262,57854,5
29262,57849,5
29256,57840,5
29262,57842,4
29255,57849,5
29260,57832,5
29249,57826,6
29257,57825,3
29245,57816,5
29248,57829,5
29255,57823,5
29247,57811,5
29240,57813,4
29251,57818,5
29258,57821,5
29258,57839,5
29266,57838,4
29266,57856,5
29271,57859,5
29278,57877,5
29275,57877,5
29283,57884,4
29286,57901,5
29286,57893,5
29291,57906,5
29285,57901,5
29287,57899,4
29290,57905,6
29287,57899,4
29283,57903,5
29280,57908,5
29282,57911,4
29299,57911,5
29295,57928,5
29300,57937,5
29304,57941,5
29313,57938,4
29305,57938,5
29314,57942,5
29315,57947,5
29306,57951,4
29303,57939,5
29302,57935,5
29313,57945,5
29305,57944,5
29306,57953,4
29316,57953,5
29316,57959,5
29321,57963,5
29323,57970,5
29328,57971,4
29320,57973,5
29323,57980,6
29325,57977,4
29318,57965,5
29324,57965,4
29319,57951,5
29311,57947,5
29314,57945,5
29305,57932,5
29294,57915,4
29290,57910,5
29288,57910,5
29291,57895,5
29277,57901,4
29280,57895,4
29288,57889,5
29286,57898,5
29287,57894,5
29287,57904,4
29287,57897,5
29285,57905,5
29288,57907,5
29283,57900,5
29287,57901,4
29283,57908,5
29291,57897,5
29285,57901,6
29278,57893,4
29278,57899,4
29276,57887,5
29291,57891,5
29286,57888,5
29281,57891,5
29277,57891,4
29277,57882,5
29281,57889,5
29282,57889,5
29281,57887,4
29288,57892,4
29281,57880,5
29276,57890,5
29284,57889,5
29281,57885,4
29280,57891,5
29281,57881,5
29277,57882,5
29285,57879,5
29278,57894,5
29281,57892,4
29275,57897,5
29285,57891,5
29289,57890,5
29281,57886,4
29275,57883,5
29271,57872,5
29273,57875,5
29285,57881,5
29280,57887,4
29278,57882,5
29281,57890,5
29273,57879,5
29273,57885,4
29281,57885,4
29281,57894,5
29287,57882,5
29280,57890,5
29281,57882,4
29271,57884,5
29275,57882,5
29275,57876,5
29288,57877,5
29277,57881,4
29277,57887,6
29276,57882,4
29282,57885,5
29276,57888,5
29277,57883,4
29279,57877,5
29277,57881,5
29282,57880,5
29271,57881,5
29276,57881,4
29271,57871,5
29273,57870,5
29270,57878,5
29281,57874,4
29271,57872,4
29280,57870,5
29275,57867,5
29273,57869,5
29281,57861,4
29275,57865,5
29281,57875,5
29266,57867,5
29272,57867,5
29263,57857,4
29270,57855,5
29265,57861,6
29262,57848,4
29255,57849,5
29264,57854,4
29257,57851,5
29269,57844,5
29260,57852,5
29266,57847,5
29265,57848,4
29269,57855,5
29259,57856,5
29264,57852,5
29268,57855,4
29263,57873,4
29279,57863,5
29262,57858,5
29266,57848,5
29265,57853,4
29267,57858,5
29265,57853,5
29265,57851,5
29267,57849,5
29263,57855,4
29268,57854,5
29271,57860,5
29267,57853,5
29269,57865,5
29261,57862,4
29262,57880,5
29264,57853,5
29264,57869,5
29268,57866,5
29278,57869,4
29272,57880,5
29279,57870,5
29277,57881,5
29280,57867,4
29280,57872,4
29278,57877,5
29277,57867,5
29276,57871,5
29271,57871,4
29275,57872,5
29277,57871,5
29279,57876,5
29276,57876,5
29273,57867,5
29273,57867,3
29269,57869,5
29270,57875,5
29283,57883,5
29282,57873,4
29280,57874,5
29279,57878,5
29284,57884,5
29284,57888,5
29277,57879,4
29272,57880,5
29276,57878,5
29273,57883,5
29270,57875,5
29276,57881,4
29271,57874,5
29275,57860,5
29279,57861,5
29270,57869,4
29269,57869,5
29273,57870,6
29270,57873,4
29276,57875,5
29280,57873,4
29277,57882,7
29272,57875,3
29274,57879,5
29282,57879,5
29284,57879,4
29279,57884,5
29284,57886,5
29271,57875,5
29278,57880,5
29279,57884,4
29278,57884,5
29280,57877,5
29275,57879,5
29277,57883,5
29275,57885,4
29285,57884,5
29280,57884,5
29276,57883,5
29286,57876,4
29279,57882,5
29286,57887,5
29278,57883,6
29273,57881,4
29274,57873,4
29277,57884,5
29279,57875,5
29275,57878,5
29272,57880,5
29276,57877,4
29266,57882,5
29271,57877,5
29267,57872,5
29278,57876,5
29270,57877,4
29283,57883,5
29279,57878,5
29279,57880,5
29282,57893,5
29277,57879,4
29271,57876,5
29272,57874,5
29275,57860,5
29265,57863,5
29269,57867,4
29274,57865,5
29270,57869,5
29273,57869,6
29278,57878,3
29280,57878,5
29277,57876,5
29283,57890,5
29283,57884,5
29283,57880,4
29276,57868,5
29277,57883,5
29274,57876,5
29274,57877,5
29273,57873,4
29281,57863,5
29263,57860,5
29270,57864,5
29279,57866,5
29274,57869,4
29272,57865,5
29271,57872,5
29271,57873,5
29276,57875,4
29271,57870,6
29279,57878,4
29282,57871,5
29278,57878,5
29276,57875,6
29268,57868,3
29280,57881,5
29271,57883,5
29289,57882,5
29282,57886,4
29267,57889,5
29278,57882,5
29276,57890,5
29275,57881,5
29279,57878,4
29274,57885,5
29273,57887,5
29276,57883,5
29272,57889,5
29275,57880,4
29277,57885,5
29279,57884,5
29275,57877,5
29265,57883,4
29271,57877,5
29272,57868,6
29281,57873,4
29263,57863,5
29265,57869,4
29275,57876,5
29271,57861,5
29264,57862,5
29269,57859,5
29267,57866,4
29264,57862,5
29266,57859,5
29266,57868,5
29268,57856,5
29269,57861,4
29261,57861,5
29253,57861,5
29268,57850,5
29259,57859,5
29267,57857,4
29271,57863,5
29264,57855,5
29259,57857,5
29267,57863,4
29263,57859,4
29268,57858,5
29260,57851,11
29260,57851,3
29260,57844,5
29261,57857,5
29260,57849,5
29265,57849,5
29266,57854,4
29255,57855,5
29268,57856,5
29266,57856,5
29254,57851,5
29263,57847,4
29260,57846,5
29258,57844,5
29260,57839,5
29259,57836,5
29249,57831,4
29253,57831,5
29253,57838,5
29251,57833,5
29248,57829,5
29251,57831,4
29258,57835,5
29256,57824,5
29255,57821,6
29252,57824,3
29250,57829,5
29248,57812,5
29251,57817,5
29251,57820,5
29243,57811,4
29242,57821,5
29237,57804,5
29243,57807,5
29237,57802,5
29237,57793,4
29232,57791,5
29229,57795,5
29234,57784,5
29226,57785,5
29228,57788,4
29229,57786,5
29222,57784,5
29231,57783,5
29223,57774,4
29226,57772,5
29229,57779,4
29221,57777,5
29218,57776,5
29228,57787,4
29226,57783,5
29227,57786,5
29230,57786,5
29233,57783,5
29216,57780,4
29220,57768,5
29220,57769,5
29210,57762,5
29219,57764,5
29218,57763,4
29209,57755,5
29220,57746,5
29213,57747,5
29214,57754,5
29222,57761,4
29217,57761,5
29217,57767,5
29216,57777,5
29226,57772,4
29221,57783,4
29221,57778,6
29223,57775,4
29215,57766,5
29215,57770,4
29213,57762,5
29226,57768,5
29219,57781,5
29218,57787,5
29232,57787,4
29227,57790,5
29238,57790,5
29237,57797,5
29233,57802,5
29240,57799,4
29233,57808,5
29233,57811,5
29239,57817,5
29244,57807,5
29239,57818,4
29243,57824,5
29239,57809,5
29246,57819,5
29245,57814,4
29243,57813,4
29252,57816,5
29254,57817,6
29250,57816,4
29254,57821,4
29253,57828,5
29243,57830,5
29247,57821,5
29244,57827,5
29245,57828,4
29257,57831,5
29253,57831,5
29251,57837,5
29246,57839,5
29251,57838,4
29256,57843,5
29266,57848,5
29272,57849,5
29258,57852,5
29264,57860,4
29261,57857,5
29264,57852,5
29265,57859,5
29266,57858,5
29268,57869,4
29266,57856,5
29273,57860,5
29270,57860,5
29272,57866,4
29267,57872,5
29274,57873,5
29271,57869,5
29273,57872,5
29274,57874,4
29278,57871,5
29266,57861,5
29267,57871,5
29278,57870,5
29269,57863,4
29271,57858,5
29263,57863,5
29269,57860,5
29262,57854,5
29257,57853,4
29265,57857,5
29267,57858,5
29269,57855,5
29260,57858,5
29259,57849,5
29267,57845,4
29263,57837,5
29270,57848,5
29255,57843,4
29262,57847,5
29261,57849,5
29253,57837,5
29256,57845,5
29260,57837,4
29260,57847,5
29263,57846,5
29265,57848,5
29265,57853,5
29266,57854,4
29265,57850,5
29261,57854,5
29263,57847,5
29264,57862,5
29256,57850,4
29271,57852,5
29260,57858,5
29265,57853,5
29269,57848,5
29253,57851,4
29265,57843,6
29263,57845,4
29262,57855,5
29257,57844,4
29260,57849,5
29265,57853,5
29262,57858,5
29254,57846,5
29265,57848,4
29266,57850,5
29260,57851,5
29266,57859,5
29263,57846,5
29265,57852,4
29267,57847,5
29260,57858,5
29258,57861,5
29258,57854,5
29264,57855,4
29265,57865,5
29257,57857,5
29271,57860,5
29259,57861,5
29267,57868,4
29266,57856,5
29268,57865,5
29270,57869,5
29269,57865,4
29265,57868,4
29266,57860,5
29262,57864,5
29263,57868,5
29271,57865,4
29268,57856,5
29268,57866,5
29266,57860,5
29265,57863,5
29270,57855,4
29267,57860,5
29270,57857,5
29262,57863,5
29267,57859,5
29257,57850,5
29267,57850,4
29267,57848,5
29270,57852,5
29269,57852,6
29263,57857,3
29262,57851,5
29268,57860,5
29261,57860,5
29267,57860,4
29266,57862,4
29269,57860,5
29266,57863,5
29263,57865,5
29269,57871,4
29273,57868,5
29268,57867,5
29266,57859,5
29269,57867,5
29278,57873,4
29272,57863,5
29266,57872,5
29271,57871,5
29275,57878,5
29274,57881,4
29269,57879,6
29266,57882,4
29274,57881,5
29282,57880,5
29278,57874,6
29272,57874,3
29274,57881,5
29266,57870,5
29265,57871,4
29266,57875,4
29277,57880,5
29272,57883,5
29274,57866,5
29267,57875,4
29274,57874,5
29270,57883,5
29278,57870,5
29273,57869,5
29269,57877,4
29271,57881,5
29277,57873,5
29269,57887,5
29273,57886,5
29273,57881,4
29271,57888,5
29274,57892,6
29277,57890,4
29278,57897,5
29282,57891,4
29284,57889,5
29284,57885,5
29287,57898,5
29281,57886,4
29286,57900,4
29286,57896,5
29290,57892,5
29281,57896,5
29290,57896,4
29276,57889,5
29283,57893,5
29286,57895,5
29285,57896,5
29279,57897,4
29277,57897,5
29283,57895,5
29269,57895,5
29277,57895,5
29280,57896,4
29283,57890,5
29281,57897,5
29280,57897,6
29273,57890,4
29288,57899,4
29280,57893,5
29286,57897,5
29278,57899,5
29290,57901,5
29285,57899,4
29282,57912,5
29290,57906,5
29281,57905,5
29292,57910,4
29279,57903,5
29288,57898,5
29284,57893,5
29283,57895,5
29267,57889,4
29282,57893,5
29283,57886,5
29280,57882,5
29274,57883,5
29272,57876,5
29279,57870,4
29270,57874,5
29269,57878,5
29271,57887,6
29275,57890,3
29281,57882,5
29275,57892,5
29272,57895,5
29277,57891,5
29277,57893,4
29274,57883,5
29278,57892,5
29281,57894,5
29282,57904,4
29286,57902,5
29284,57911,5
29288,57911,5
29287,57917,5
29294,57922,4
29293,57916,5
29311,57934,5
29307,57938,5
29307,57946,5
29303,57940,4
29302,57938,6
29314,57940,4
29317,57950,5
29316,57974,5
29318,57963,4
29318,57963,5
29315,57965,5
29321,57959,5
29318,57954,5
29307,57938,4
29309,57942,5
29317,57962,5
29318,57974,5
29331,57983,4
29335,58014,5
29343,58019,5
29342,58028,5
29348,58025,5
29352,58038,4
29355,58041,5
29358,58045,5
29356,58060,5
29372,58068,5
29380,58106,4
29404,58145,5
29422,58159,6
29421,58157,4
29402,58152,5
29403,58140,4
29412,58142,5
29415,58145,5
29409,58155,5
29414,58151,5
29410,58143,4
29409,58140,5
29413,58142,5
29408,58153,5
29435,58167,4
29436,58198,5
29433,58208,5
29447,58218,5
29446,58227,5
29465,58254,4
29470,58247,5
29470,58250,5
29469,58261,5
29474,58260,5
29474,58274,4
29486,58281,5
29482,58288,5
29490,58290,6
29492,58292,4
29494,58297,4
29502,58310,5
29495,58316,5
29494,58309,5
29501,58294,5
29501,58295,4
29486,58290,5
29481,58281,5
29474,58269,5
29474,58265,4
29459,58247,5
29465,58243,5
29448,58226,5
29445,58215,5
29456,58218,4
29446,58218,5
29444,58215,5
29451,58219,5
29452,58207,5
29445,58218,5
29453,58211,4
29445,58207,5
29449,58204,5
29440,58205,5
29442,58206,4
29439,58198,5
29435,58191,5
29437,58194,5
29440,58182,5
29441,58190,4
29428,58186,5
29434,58187,5
29433,58186,5
29426,58179,4
29428,58174,5
29420,58171,5
29414,58153,9
29413,58148,1
29409,58159,4
29407,58130,5
29397,58125,5
29402,58129,5
29397,58112,5
29393,58120,4
29399,58113,6
29397,58119,4
29400,58111,5
29393,58110,5
29391,58096,4
29387,58106,5
29379,58093,5
29382,58080,5
29375,58076,5
29381,58074,4
29374,58069,5
29371,58062,5
29372,58058,5
29372,58070,4
29366,58056,4
29366,58054,5
29364,58053,5
29356,58043,5
29350,58035,4
29345,58026,5
29341,58021,5
29336,58003,5
29331,57998,5
29330,57997,4
29326,57993,5
29335,57996,6
29334,57985,4
29327,57991,5
29321,57984,4
29326,57984,5
29326,57985,5
29321,57985,5
29332,57985,5
29324,57996,4
29327,57990,5
29327,58002,5
29334,57998,5
29331,57994,4
29321,57981,4
29324,57979,5
29323,57988,5
29323,57979,5
29324,57978,4
29321,57975,5
29319,57971,5
29312,57979,5
29314,57975,5
29318,57971,4
29314,57966,5
29310,57965,5
29323,57964,5
29308,57971,5
29314,57966,4
29314,57966,5
29324,57975,5
29322,57978,5
29320,57970,5
29312,57974,4
29313,57972,5
29308,57963,5
29310,57961,5
29316,57970,4
29315,57966,4
29314,57972,5
29318,57969,5
29320,57966,5
29318,57966,4
29319,57963,5
29320,57968,5
29310,57956,5
29314,57954,5
29305,57943,5
29305,57949,4
29312,57944,5
29303,57943,5
29300,57938,5
29302,57933,4
29307,57931,5
29304,57927,5
29299,57929,5
29302,57924,5
29298,57922,4
29292,57910,5
29292,57913,5
29292,57907,5
29292,57891,4
29281,57892,4
29274,57895,5
29276,57886,5
29284,57903,5
29288,57910,4
29288,57911,5
29292,57923,5
29294,57920,5
29299,57936,5
29298,57942,4
29308,57941,6
29299,57946,4
29313,57952,5
29308,57949,5
29311,57956,4
29305,57958,5
29315,57958,5
29308,57946,5
29308,57955,5
29317,57954,4
29311,57958,5
29314,57960,5
29317,57955,5
29312,57965,4
29324,57965,4
29323,57977,5
29319,57974,5
29327,57979,5
29324,57992,4
29330,57991,5
29324,57996,5
29331,57986,5
29332,57998,5
29326,57996,4
29326,57991,5
29325,57977,5
29315,57967,5
29316,57955,5
29314,57949,4
29312,57944,5
29309,57945,5
29302,57945,5
29297,57939,5
29297,57938,4
29295,57931,5
29300,57930,5
29307,57927,5
29295,57920,4
29302,57916,4
29297,57924,5
29301,57919,5
29283,57918,5
29296,57911,5
29293,57915,4
29291,57912,5
29294,57919,5
29296,57923,6
29291,57922,3
29295,57931,5
29303,57938,5
29305,57945,5
29301,57942,5
29311,57942,4
29300,57926,5
29295,57926,5
29297,57923,5
29299,57935,5
29290,57925,4
29291,57922,5
29291,57916,5
29301,57916,5
29300,57924,4
29295,57929,4
29293,57927,5
29303,57928,5
29300,57926,5
29300,57931,4
29305,57931,6
29301,57935,4
29306,57939,5
29304,57932,5
29299,57935,6
29297,57943,3
29307,57938,5
29306,57937,5
29301,57937,5
29302,57939,4
29307,57935,5
29305,57938,5
29307,57935,5
29308,57941,5
29308,57944,4
29302,57938,5
29300,57931,5
29294,57938,5
29296,57934,4
29302,57929,4
29306,57928,5
29303,57939,5
29293,57935,5
29297,57936,4
29300,57926,5
29304,57933,6
29293,57931,4
29299,57930,5
29301,57922,4
29299,57914,5
29298,57920,5
29294,57922,5
29297,57915,5
29295,57920,4
29299,57925,5
29290,57917,5
29297,57924,5
29287,57915,5
29289,57918,4
29296,57927,5
29287,57927,5
29292,57917,5
29292,57913,4
29295,57917,4
29288,57923,5
29299,57927,5
29300,57910,5
29297,57924,4
29294,57918,5
29291,57918,5
29297,57912,6
29293,57911,4
29295,57916,4
29288,57924,5
29296,57918,5
29296,57923,5
29291,57922,5
29296,57915,4
29290,57913,5
29291,57921,5
29290,57921,5
29286,57911,5
29290,57919,4
29298,57924,5
29286,57922,5
29291,57916,5
29291,57907,5
29296,57913,4
29291,57903,5
29287,57905,5
29287,57903,5
29290,57913,5
29288,57919,4
29288,57905,5
29295,57905,5
29288,57915,6
29292,57918,3
29290,57910,5
29288,57911,5
29280,57904,5
29279,57903,5
29281,57905,4
29281,57902,5
29278,57902,5
29281,57896,5
29288,57888,5
29285,57895,4
29278,57900,5
29282,57885,5
29279,57892,5
29286,57889,5
29271,57887,4
29273,57888,5
29279,57875,5
29272,57883,5
29271,57873,4
29269,57870,6
29265,57878,4
29270,57873,5
29267,57873,5
29271,57863,4
29262,57874,5
29269,57877,5
29277,57878,5
29273,57875,5
29275,57871,4
29273,57868,5
29268,57872,5
29260,57864,5
29262,57868,5
29267,57859,4
29263,57861,5
29257,57850,5
29263,57856,5
29259,57851,5
29265,57847,4
29259,57848,5
29261,57847,5
29253,57837,5
29254,57838,4
29258,57841,5
29266,57852,6
29262,57836,4
29258,57847,5
29260,57851,4
29261,57850,5
29262,57852,5
29254,57861,5
29265,57858,5
29264,57860,4
29266,57856,5
29267,57858,5
29264,57864,5
29256,57862,5
29266,57853,4
29257,57853,5
29253,57852,5
29263,57852,5
29260,57852,5
29262,57845,4
29257,57836,5
29254,57837,5
29242,57839,5
29246,57824,4
29252,57824,5
29248,57823,5
29245,57815,6
29235,57808,4
29240,57810,4
29239,57804,5
29229,57796,5
29233,57784,5
29230,57785,5
29223,57781,4
29227,57777,5
29228,57773,5
29224,57777,5
29227,57774,5
29224,57773,4
29224,57777,5
29223,57771,5
29219,57768,5
29219,57783,5
29218,57776,4
29225,57778,5
29222,57771,5
29238,57784,5
29227,57783,5
29225,57769,4
29219,57775,5
29214,57768,5
29221,57763,5
29212,57766,4
29220,57766,5
29218,57769,5
29220,57766,5
29220,57769,5
29221,57766,4
29229,57777,5
29235,57794,5
29239,57799,5
29239,57811,5
29249,57814,4
29240,57830,5
29247,57829,5
29255,57836,5
29243,57828,5
29246,57821,4
29248,57829,5
29242,57816,5
29245,57811,5
29240,57823,4
29247,57817,6
29251,57824,4
29255,57825,5
29252,57823,5
29256,57841,4
29251,57842,5
29256,57834,5
29259,57838,5
29250,57829,5
29255,57835,4
29251,57836,5
29256,57838,5
29257,57840,5
29262,57848,5
29257,57846,4
29267,57849,5
29262,57841,5
29263,57846,5
29267,57844,5
29264,57848,4
29262,57858,5
29259,57848,5
29263,57848,5
29258,57857,4
29272,57849,5
29263,57841,6
29253,57844,4
29260,57836,5
29260,57828,4
29265,57832,5
29254,57829,5
29257,57824,5
29250,57832,5
29259,57821,4
29254,57829,5
29249,57834,5
29256,57840,5
29262,57846,5
29261,57852,4
29261,57850,5
29260,57842,5
29262,57860,5
29272,57859,5
29273,57857,4
29270,57855,5
29273,57860,5
29263,57855,5
29263,57853,4
29264,57853,5
29272,57869,5
29271,57870,5
29279,57871,5
29275,57869,4
29278,57874,5
29274,57876,5
29287,57881,7
29280,57877,3
29272,57884,4
29273,57885,5
29280,57893,5
29281,57887,5
29279,57886,5
29293,57896,4
29282,57902,5
29287,57897,5
29286,57905,5
29288,57905,5
29279,57896,4
29289,57898,5
29284,57891,5
29281,57892,5
29281,57896,5
29284,57896,4
29283,57875,5
29289,57872,5
29277,57882,5
29283,57883,4
29289,57880,5
29274,57870,5
29280,57868,5
29279,57882,5
29270,57883,4
29271,57875,5
29276,57875,5
29281,57887,5
29280,57879,5
29283,57892,4
29280,57889,5
29279,57888,5
29284,57894,5
29278,57889,5
29281,57899,4
29275,57887,5
29287,57887,5
29283,57897,5
29282,57892,4
29279,57884,6
29286,57886,4
29287,57892,5
29278,57895,5
29283,57892,4
29282,57880,5
29282,57882,5
29278,57881,5
29282,57880,5
29284,57886,4
29284,57894,5
29284,57889,5
29285,57872,5
29285,57879,5
29275,57888,4
29276,57879,5
29282,57884,5
29287,57884,5
29276,57881,5
29283,57880,4
29282,57884,5
29276,57881,5
29277,57887,5
29284,57884,4
29278,57878,4
29274,57878,5
29279,57880,5
29282,57881,5
29280,57868,4
29284,57879,5
29277,57886,5
29278,57884,5
29283,57890,5
29278,57870,4
29266,57880,5
29276,57870,5
29268,57863,5
29265,57867,5
29270,57856,4
29273,57863,5
29276,57865,5
29270,57860,5
29266,57867,5
29278,57877,4
29263,57873,5
29264,57855,5
29268,57859,6
29268,57866,3
29261,57858,4
29270,57868,5
29264,57856,5
29271,57858,5
29275,57863,4
29263,57860,5
29258,57861,5
29266,57857,5
29273,57870,5
29266,57872,4
29274,57872,5
29277,57875,5
29281,57881,5
29281,57888,5
29276,57884,4
29277,57873,5
29283,57878,5
29271,57872,5
29271,57871,5
29271,57873,5
29274,57878,4
29265,57874,5
29264,57866,5
29276,57880,6
29264,57876,3
29259,57862,5
29266,57854,5
29264,57854,5
29258,57844,4
29263,57839,5
29253,57848,5
29258,57855,5
29261,57850,5
29258,57858,4
29262,57858,5
29271,57871,5
29281,57888,5
29283,57887,5
29277,57906,4
29287,57903,5
29283,57911,5
29280,57890,5
29278,57896,5
29287,57899,4
29287,57897,6
29292,57918,4
29291,57907,5
29288,57914,4
29290,57903,6
29290,57913,3
29293,57922,5
29297,57925,5
29295,57926,4
29301,57920,5
29301,57935,5
29308,57938,5
29312,57947,5
29317,57956,4
29309,57951,5
29309,57956,5
29313,57956,5
29315,57958,5
29314,57956,4
29312,57949,5
29309,57953,5
29311,57951,5
29315,57955,5
29309,57946,4
29313,57958,5
29314,57962,6
29312,57968,4
29324,57972,4
29324,57987,4
29327,57992,5
29329,57991,5
29327,57999,5
29331,58001,4
29337,57999,5
29341,58009,5
29331,58010,5
29332,58003,5
29332,58002,4
29332,58000,5
29333,57994,5
29332,57997,5
29325,58001,5
29330,57995,4
29328,57995,5
29333,57994,5
29329,57999,5
29321,57998,5
29327,57990,4
29321,57994,5
29326,57989,5
29331,57988,6
29331,57995,3
29331,57992,4
29331,57982,5
29316,57983,5
29322,57983,5
29318,57979,4
29316,57976,5
29314,57980,5
29327,57977,5
29325,57980,5
29320,57971,4
29315,57976,5
29319,57981,5
29322,57980,5
29324,57972,5
29316,57976,4
29315,57977,5
29314,57971,5
29319,57966,5
29319,57962,5
29319,57980,5
29306,57966,4
29313,57957,5
29311,57948,5
29309,57950,6
29302,57955,3
29302,57950,5
29305,57944,5
29307,57943,5
29308,57950,4
29312,57937,5
29301,57937,5
29306,57939,5
29297,57939,5
29299,57931,4
29303,57922,5
29302,57921,5
29294,57925,5
29295,57927,5
29304,57922,4
29293,57927,5
29297,57923,5
29293,57926,5
29299,57925,5
29291,57923,4
29299,57917,6
29301,57921,4
29291,57928,5
29294,57919,4
29293,57923,4
29291,57915,5
29288,57921,5
29293,57912,5
29292,57917,4
29287,57917,5
29289,57906,5
29280,57905,5
29285,57899,5
29287,57900,4
29287,57900,5
29277,57896,5
29292,57895,5
29276,57890,5
29272,57893,4
29275,57886,5
29270,57874,5
29276,57879,5
29265,57873,5
29261,57869,4
29264,57872,5
29273,57866,6
29266,57878,4
29267,57876,4
29271,57866,4
29262,57871,5
29259,57862,5
29259,57868,5
29271,57872,4
29271,57876,5
29270,57879,5
29271,57871,5
29276,57871,5
29278,57885,4
29268,57867,5
29266,57880,5
29273,57870,5
29263,57871,5
29279,57870,4
29271,57868,5
29269,57857,5
29266,57864,5
29273,57854,5
29266,57860,4
29271,57866,5
29262,57862,5
29272,57865,6
29262,57863,3
29267,57879,5
29270,57866,5
29274,57879,5
29275,57875,5
29277,57883,4
29271,57871,5
29278,57876,5
29275,57871,5
29273,57876,5
29273,57884,4
29267,57880,5
29275,57876,5
29275,57877,5
29267,57882,5
29276,57878,4
29275,57875,5
29276,57880,5
29269,57873,5
29270,57890,5
29277,57883,5
29271,57879,4
29276,57881,5
29267,57872,5
29270,57872,4
29263,57874,5
29273,57873,5
29271,57881,5
29274,57873,5
29258,57860,4
29267,57864,5
29269,57870,5
29264,57863,5
29272,57872,5
29263,57863,4
29259,57868,5
29260,57862,5
29269,57874,5
29267,57863,5
29259,57863,4
29265,57863,5
29266,57865,5
29268,57860,5
29262,57858,4
29261,57864,4
29265,57863,6
29263,57865,4
29268,57855,5
29266,57853,4
29258,57864,5
29262,57856,5
29257,57861,5
29267,57864,5
29259,57861,4
29266,57862,5
29266,57863,5
29272,57858,5
29269,57869,5
29270,57862,4
29260,57870,5
29266,57862,5
29274,57870,5
29265,57868,5
29272,57871,4
29275,57868,5
29272,57863,5
29270,57875,5
29265,57865,4
29260,57868,4
29264,57864,5
29268,57868,5
29267,57851,5
29270,57864,4
29264,57863,5
29267,57858,5
29271,57857,5
29264,57861,5
29266,57868,4
29277,57872,5
29267,57870,5
29269,57865,5
29270,57863,5
29271,57867,4
29265,57857,5
29264,57859,5
29264,57852,5
29263,57853,5
29268,57855,4
29257,57855,5
29259,57854,5
29256,57853,5
29265,57855,5
29255,57854,4
29259,57861,5
29273,57858,5
29267,57856,5
29261,57858,4
29269,57865,5
29269,57861,5
29272,57865,5
29262,57868,5
29272,57873,4
29266,57865,5
29276,57861,5
29270,57859,5
29266,57864,5
29266,57868,4
29266,57859,5
29269,57864,5
29269,57868,5
29269,57857,5
29265,57860,4
29258,57863,5
29274,57865,5
29266,57871,5
29270,57867,4
29266,57864,6
29269,57868,4
29269,57876,5
29270,57876,5
29263,57877,4
29274,57879,5
29277,57877,5
29275,57881,5
29279,57874,5
29279,57891,4
29277,57888,5
29287,57889,5
29288,57888,5
29282,57887,5
29286,57882,4
29274,57876,5
29284,57884,5
29271,57887,5
29272,57875,4
29289,57881,4
29282,57887,5
29267,57884,10
29276,57878,4
29284,57882,5
29275,57876,5
29270,57880,5
29277,57874,5
29267,57881,4
29275,57879,5
29270,57875,5
29274,57875,5
29284,57875,5
29270,57866,4
29274,57879,5
29273,57873,5
29270,57865,5
29278,57877,5
29274,57873,4
29276,57868,5
29277,57872,5
29272,57879,5
29279,57875,5
29269,57876,4
29278,57880,5
29276,57872,5
29277,57877,6
29276,57874,3
29276,57873,5
29275,57878,5
29277,57885,5
29275,57883,5
29285,57881,4
29280,57878,5
29284,57882,5
29279,57885,5
29277,57882,5
29277,57883,4
29279,57876,5
29275,57878,5
29279,57885,5
29281,57888,5
29274,57889,4
29282,57893,5
29282,57893,5
29285,57892,5
29284,57895,4
29285,57892,6
29280,57885,4
29280,57879,5
29280,57883,5
29272,57879,6
29286,57889,3
29285,57880,5
29285,57876,5
29271,57882,5
29275,57877,4
29275,57875,5
29286,57873,5
29283,57870,5
29281,57880,5
29274,57874,4
29273,57875,5
29276,57865,5
29275,57865,5
29267,57868,4
29264,57873,4
29270,57856,5
29264,57863,5
29277,57861,5
29267,57847,4
29263,57863,5
29268,57862,6
29267,57854,4
29270,57865,5
29261,57858,4
29271,57852,5
29262,57860,5
29265,57859,5
29263,57860,5
29268,57862,4
29270,57852,5
29268,57867,5
29267,57868,5
29270,57860,5
29270,57865,4
29266,57869,5
29268,57863,5
29270,57864,5
29270,57861,4
29261,57862,4
29262,57868,5
29273,57866,5
29269,57852,5
29270,57856,4
29268,57863,5
29261,57859,5
29264,57866,6
29268,57859,4
29267,57862,4
29272,57862,5
29261,57861,5
29271,57864,5
29268,57853,5
29270,57865,4
29272,57859,5
29269,57858,5
29269,57871,5
29276,57866,5
29274,57872,4
29269,57868,5
29274,57856,5
29272,57861,5
29273,57863,4
29271,57861,5
29266,57860,5
29274,57865,5
29270,57870,5
29268,57862,5
29268,57869,4
29263,57867,5
29269,57863,5
29264,57860,6
29272,57858,3
29254,57868,5
29260,57854,5
29254,57849,5
29266,57852,5
29261,57846,4
29256,57840,5
29259,57841,5
29259,57837,5
29261,57833,5
29257,57839,4
29262,57838,5
29256,57831,5
29251,57824,5
29249,57813,4
29246,57816,5
29246,57813,5
29248,57822,5
29246,57817,5
29249,57811,4
29247,57820,6
29247,57817,4
29248,57818,5
29243,57818,5
29254,57817,4
29253,57819,5
29247,57822,5
29255,57824,5
29251,57823,5
29251,57825,4
29250,57816,5
29250,57823,5
29243,57820,5
29245,57812,4
29242,57813,4
29240,57814,5
29235,57804,5
29245,57806,5
29245,57801,4
29244,57807,5
29242,57809,5
29241,57805,5
29241,57809,5
29242,57806,4
29237,57806,5
29247,57806,6
29237,57802,4
29244,57799,5
29243,57804,4
29240,57803,5
29238,57795,5
29232,57793,5
29238,57795,5
29247,57791,4
29233,57796,5
29228,57793,5
29235,57796,5
29235,57796,4
29231,57796,5
29238,57794,5
29231,57791,5
29220,57788,5
29233,57770,4
29231,57774,5
29224,57779,5
29235,57768,5
29218,57775,5
29228,57773,4
29221,57775,5
29223,57768,5
29216,57777,6
29229,57768,4
29228,57770,4
29219,57761,5
29219,57769,5
29219,57776,5
29218,57773,4
29226,57772,4
29230,57766,5
29223,57766,5
29216,57761,5
29226,57760,4
29217,57770,5
29219,57760,5
29223,57763,5
29220,57765,5
29221,57769,4
29216,57767,5
29223,57763,5
29225,57771,5
29221,57771,5
29229,57771,5
29224,57781,4
29231,57774,5
29232,57784,5
29226,57789,5
29233,57786,4
29231,57789,5
29232,57797,5
29235,57802,5
29236,57798,4
29237,57807,4
29238,57801,5
29243,57808,5
29242,57795,5
29245,57804,4
29255,57806,5
29249,57806,5
29245,57815,5
29240,57812,5
29249,57819,4
29242,57815,5
29254,57811,5
29254,57819,5
29250,57818,5
29246,57819,4
29249,57827,6
29249,57822,4
29254,57820,5
29244,57818,5
29250,57824,4
29249,57812,5
29245,57813,5
29242,57815,5
29247,57822,4
29253,57821,5
29247,57826,5
29256,57824,5
29243,57825,5
29248,57831,4
29249,57815,5
29255,57839,5
29250,57827,5
29259,57825,5
29250,57814,4
29252,57822,5
29257,57828,5
29249,57830,5
29257,57828,5
29256,57830,4
29255,57830,5
29264,57824,6
29253,57834,4
29252,57834,4
29261,57836,4
29262,57837,5
29258,57841,5
29255,57834,5
29268,57839,4
29262,57837,5
29263,57839,5
29259,57842,5
29262,57832,5
29259,57834,4
29250,57826,5
29255,57825,5
29249,57832,5
29256,57827,5
29258,57838,4
29250,57832,5
29253,57832,5
29248,57826,5
29256,57828,5
29253,57828,4
29252,57826,5
29260,57820,5
29251,57827,5
29247,57823,4
29248,57816,5
29251,57822,5
29251,57821,5
29249,57820,5
29253,57822,4
29250,57827,5
29254,57821,5
29251,57828,5
29255,57843,5
29258,57829,4
29260,57834,5
29252,57827,5
29260,57828,5
29262,57832,5
29253,57828,4
29258,57836,5
29250,57831,5
29251,57832,5
29260,57823,4
29257,57820,5
29255,57814,4
29253,57823,5
29249,57828,5
29256,57824,4
29257,57827,5
29251,57831,5
29255,57827,5
29246,57827,5
29258,57827,4
29252,57833,5
29249,57832,5
29256,57833,5
29252,57841,5
29262,57842,4
29259,57835,5
29261,57844,5
29254,57848,5
29267,57842,5
29265,57850,4
29268,57854,5
29274,57859,5
29272,57866,5
29266,57849,4
29270,57852,4
29277,57848,6
29270,57852,4
29262,57853,5
29264,57851,4
29267,57857,5
29262,57862,5
29274,57864,5
29275,57868,5
29265,57861,4
29271,57867,5
29272,57860,5
29271,57864,5
29268,57869,5
29269,57870,4
29269,57862,5
29275,57867,5
29273,57857,5
29264,57854,5
29269,57855,4
29272,57861,5
29271,57857,5
29270,57858,6
29265,57856,3
29263,57860,5
29273,57864,5
29270,57860,5
29272,57863,5
29274,57872,4
29276,57871,5
29278,57868,5
29275,57870,5
29276,57871,5
29272,57877,4
29273,57879,5
29279,57878,5
29284,57883,5
29285,57879,5
29278,57877,4
29276,57878,5
29286,57882,5
29278,57888,5
29283,57884,5
29285,57883,5
29279,57892,4
29284,57893,5
29286,57895,5
29287,57891,6
29278,57882,3
29278,57892,5
29281,57881,5
29287,57880,5
29278,57890,4
29286,57884,5
29280,57875,5
29279,57874,5
29275,57866,5
29266,57864,4
29264,57863,5
29268,57862,5
29270,57867,5
29266,57869,5
29273,57864,4
29277,57865,5
29262,57866,5
29270,57862,5
29258,57850,4
29264,57841,4
29263,57839,6
29259,57825,4
29250,57830,5
29254,57837,4
29253,57827,7
29254,57821,3
29253,57833,5
29259,57844,5
29263,57846,4
29258,57842,5
29253,57839,5
29262,57846,5
29259,57839,5
29255,57836,4
29253,57826,5
29257,57847,5
29270,57857,5
29280,57886,9
29291,57902,0
29298,57914,5
29311,57915,5
29301,57940,5
29304,57939,4
29307,57937,4
29303,57947,5
29294,57922,6
29292,57918,4
29300,57922,4
29305,57917,5
29299,57925,5
29300,57938,5
29312,57941,5
29317,57963,4
29332,57970,5
29334,57986,5
29344,57999,5
29347,58014,5
29362,58035,4
29360,58037,5
29357,58032,5
29352,58017,5
29338,57998,5
29328,57989,4
29335,57985,5
29327,57997,5
29324,57980,5
29321,57970,5
29327,57981,4
29326,57965,5
29306,57939,5
29300,57936,6
29291,57928,3
29294,57925,5
29301,57921,5
29294,57928,5
29297,57943,5
29313,57957,4
29318,57957,5
29316,57945,5
29311,57935,5
29310,57931,5
29304,57922,4
29304,57944,5
29320,57959,5
29316,57947,5
29308,57950,4
29299,57923,4
29295,57905,5
29287,57883,5
29280,57888,5
29294,57914,4
29300,57916,6
29301,57916,4
29303,57922,5
29307,57923,5
29306,57935,4
29296,57918,5
29299,57893,5
29286,57872,5
29274,57855,5
29275,57855,4
29272,57854,5
29279,57861,5
29278,57868,5
29283,57884,5
29297,57907,4
29305,57906,5
29296,57900,5
29299,57907,5
29300,57887,4
29298,57887,4
29288,57880,5
29279,57863,5
29286,57867,5
29285,57857,4
29279,57854,5
29280,57852,6
29278,57861,4
29282,57859,5
29282,57866,4
29290,57890,5
29298,57910,5
29303,57922,5
29317,57942,5
29324,57953,4
29329,57980,5
29354,58007,5
29351,58024,5
29365,58035,5
29372,58066,4
29385,58088,5
29402,58102,5
29400,58116,5
29404,58111,4
29406,58102,4
29405,58103,5
29405,58097,5
29405,58107,5
29404,58111,4
29413,58110,5
29410,58113,5
29400,58108,6
29408,58104,4
29403,58088,4
29398,58089,5
29390,58076,5
29385,58076,5
29387,58070,5
29389,58073,4
29390,58077,5
29390,58077,5
29388,58072,5
29400,58086,5
29392,58087,4
29392,58098,5
29391,58090,5
29397,58093,5
29398,58101,4
29396,58089,5
29404,58084,5
29405,58083,5
29403,58087,5
29393,58073,5
29391,58072,4
29385,58068,5
29386,58056,5
29387,58060,5
29385,58052,4
29374,58037,5
29370,58034,5
29367,58035,5
29360,58020,5
29362,58022,4
29353,58015,5
29360,58003,5
29345,58008,5
29350,58000,5
29350,57993,4
29353,57998,5
29349,57994,5
29360,57989,5
29347,57978,4
29339,57980,5
29336,57976,5
29341,57978,5
29336,57970,5
29344,57972,4
29331,57964,6
29334,57968,4
29331,57963,5
29328,57951,5
29333,57949,4
29322,57949,5
29319,57938,5
29324,57940,5
29317,57942,5
29318,57927,4
29314,57932,5
29320,57927,5
29319,57925,5
29312,57928,4
29310,57922,4
29308,57921,5
29313,57924,5
29313,57933,5
29317,57936,4
29322,57933,5
29323,57940,5
29322,57945,5
29321,57938,5
29321,57933,4
29311,57924,5
29318,57932,6
29311,57926,4
29304,57918,5
29313,57906,4
29308,57907,5
29305,57913,5
29312,57917,5
29306,57921,5
29309,57916,4
29316,57928,5
29317,57918,5
29310,57919,5
29304,57920,4
29309,57925,4
29308,57919,5
29303,57921,5
29311,57913,5
29309,57914,4
29307,57908,5
29306,57911,5
29306,57909,5
29313,57919,5
29306,57920,4
29310,57921,5
29304,57921,5
29313,57926,5
29307,57921,5
29303,57922,4
29313,57928,5
29317,57927,5
29305,57921,5
29315,57914,5
29309,57922,4
29318,57912,5
29308,57915,5
29308,57925,5
29304,57910,4
29313,57910,5
29302,57921,5
29305,57909,5
29303,57905,5
29306,57911,4
29307,57912,5
29299,57913,5
29308,57917,5
29308,57919,5
29298,57915,5
29311,57915,4
29305,57912,5
29301,57918,5
29306,57915,5
29302,57914,4
29306,57916,5
29309,57905,5
29310,57901,5
29315,57912,5
29309,57909,4
29304,57922,5
29313,57918,5
29314,57924,5
29309,57920,4
29319,57916,5
29322,57921,5
29312,57915,5
29309,57916,5
29320,57921,4
29315,57918,5
29316,57922,5
29309,57922,5
29310,57916,5
29308,57930,4
29323,57926,6
29305,57913,4
29315,57914,5
29307,57922,5
29306,57920,4
29303,57925,5
29308,57923,5
29309,57919,5
29310,57917,4
29304,57916,4
29306,57911,5
29312,57911,5
29309,57905,5
29307,57913,4
29306,57901,5
29304,57903,5
29304,57907,5
29302,57904,5
29306,57906,4
29299,57906,5
29297,57901,5
29308,57895,5
29304,57896,5
29294,57893,4
29299,57892,5
29306,57895,5
29303,57905,5
29300,57905,5
29299,57910,4
29308,57898,5
29301,57916,5
29307,57908,5
29299,57916,4
29300,57908,4
29301,57900,5
29309,57900,5
29307,57896,5
29295,57893,4
29300,57903,5
29302,57894,5
29300,57902,5
29298,57896,5
29295,57897,5
29306,57899,4
29305,57891,5
29295,57906,5
29310,57901,6
29295,57903,3
29306,57906,5
29310,57905,5
29306,57897,5
29296,57903,5
29303,57912,4
29302,57912,5
29303,57906,5
29311,57915,5
29310,57911,4
29299,57912,5
29303,57910,5
29302,57913,5
29298,57912,5
29307,57907,4
29305,57916,5
29305,57902,5
29309,57918,5
29301,57906,5
29304,57910,4
29312,57920,6
29305,57909,4
29312,57911,5
29309,57919,5
29314,57909,6
29304,57904,3
29308,57912,5
29310,57916,5
29310,57901,5
29314,57899,4
29303,57907,5
29303,57912,5
29311,57902,5
29308,57914,4
29296,57910,5
29301,57905,5
29301,57907,5
29305,57905,5
29294,57913,4
29304,57900,5
29304,57904,5
29306,57912,5
29307,57908,5
29311,57908,4
29312,57904,5
29302,57903,6
29308,57915,4
29313,57909,5
29310,57910,4
29303,57913,5
29305,57919,5
29309,57924,5
29314,57923,4
29317,57920,4
29308,57920,5
29310,57915,5
29310,57919,5
29305,57911,4
29304,57910,5
29313,57923,5
29305,57907,5
29312,57915,5
29309,57910,4
29312,57924,5
29306,57911,5
29310,57903,5
29308,57903,5
29302,57903,4
29311,57896,5
29302,57901,5
29308,57898,6
29300,57899,4
29304,57898,4
29301,57912,5
29304,57903,5
29308,57913,5
29298,57906,4
29297,57905,5
29308,57902,5
29305,57904,5
29307,57889,5
29301,57897,4
29297,57892,5
29297,57896,5
29300,57895,5
29296,57883,5
29292,57887,4
29288,57893,5
29298,57877,5
29294,57879,5
29296,57879,5
29293,57884,5
29289,57881,4
29291,57884,5
29297,57881,5
29298,57884,6
29299,57888,3
29296,57887,5
29299,57891,5
29293,57889,5
29292,57891,4
29296,57894,5
29296,57897,5
29293,57886,5
29296,57889,5
29297,57890,4
29301,57873,5
29295,57872,5
29288,57865,5
29282,57878,5
29285,57865,4
29290,57865,5
29290,57875,5
29289,57868,5
29286,57880,5
29298,57879,4
29293,57884,6
29282,57877,4
29289,57881,5
29291,57880,4
29294,57881,4
29289,57888,5
29291,57884,5
29298,57879,5
29288,57881,4
29292,57881,8
29290,57877,2
29285,57880,5
29297,57881,5
29296,57883,4
29287,57880,5
29294,57882,5
29297,57890,5
29294,57872,5
29290,57875,4
29290,57882,5
29285,57884,5
29283,57877,5
29286,57872,5
29290,57867,4
29284,57871,5
29290,57862,6
29275,57858,4
29288,57870,4
29282,57863,4
29285,57864,5
29280,57858,5
29283,57861,5
29276,57862,4
29284,57860,5
29279,57852,5
29284,57866,5
29282,57862,5
29274,57849,4
29279,57848,5
29281,57858,5
29280,57859,5
29281,57861,5
29283,57857,4
29281,57855,5
29280,57855,5
29277,57850,5
29278,57855,5
29279,57858,4
29275,57853,5
29273,57856,5
29272,57851,6
29281,57858,3
29277,57849,5
29286,57846,5
29273,57846,5
29277,57842,5
29273,57843,4
29272,57842,5
29271,57838,5
29269,57833,5
29272,57838,5
29271,57841,4
29268,57828,5
29263,57841,5
29266,57833,5
29273,57833,5
29269,57835,4
29262,57831,5
29267,57823,5
29271,57828,5
29253,57818,5
29259,57827,5
29259,57814,4
29260,57815,5
29256,57814,5
29252,57823,4
29267,57817,5
29255,57814,5
29248,57811,5
29252,57807,5
29252,57807,4
29258,57805,5
29252,57808,5
29252,57802,5
29252,57798,5
29257,57798,4
29252,57805,5
29251,57806,5
29246,57799,5
29246,57801,5
29249,57805,4
29249,57801,5
29251,57807,5
29245,57804,5
29260,57807,4
29244,57807,4
29257,57807,6
29258,57811,4
29245,57806,5
29253,57807,4
29252,57807,5
29254,57791,5
29255,57796,5
29258,57804,5
29255,57806,4
29242,57797,5
29243,57808,5
29253,57804,5
29255,57810,5
29254,57803,4
29257,57808,5
29253,57810,5
29256,57815,5
29253,57814,5
29259,57808,4
29253,57813,5
29262,57822,5
29267,57816,5
29258,57832,4
29267,57825,5
29258,57829,5
29258,57829,6
29260,57823,4
29266,57820,4
29259,57831,5
29266,57834,5
29265,57841,5
29270,57841,5
29275,57832,4
29276,57841,5
29271,57841,5
29269,57847,5
29270,57844,5
29269,57844,4
29277,57844,5
29282,57852,5
29267,57849,5
29269,57838,5
29265,57850,4
29275,57844,5
29274,57848,5
29272,57841,5
29264,57846,5
29280,57844,4
29268,57845,5
29273,57846,5
29274,57837,5
29271,57848,4
29265,57846,5
29271,57847,5
29270,57839,5
29274,57836,5
29272,57838,4
29269,57850,5
29271,57846,5
29277,57841,5
29275,57851,5
29272,57851,4
29282,57844,5
29276,57850,5
29280,57859,5
29273,57852,4
29274,57853,4
29275,57844,5
29280,57844,5
29273,57861,5
29282,57851,4
29276,57849,6
29280,57867,4
29283,57850,5
29282,57854,5
29274,57855,4
29274,57866,5
29282,57860,5
29283,57861,5
29281,57862,5
29285,57861,4
29283,57855,5
29276,57855,5
29284,57864,5
29274,57855,5
29282,57862,4
29276,57858,5
29277,57858,5
29273,57851,5
29273,57848,4
29282,57859,5
29282,57861,5
29268,57852,5
29279,57860,5
29277,57861,4
29275,57860,5
29281,57854,6
29278,57858,4
29280,57868,5
29283,57868,4
29276,57860,5
29282,57855,5
29275,57859,5
29271,57860,5
29284,57857,4
29283,57855,5
29285,57861,5
29283,57874,5
29278,57856,5
29285,57864,4
29295,57869,5
29287,57866,5
29288,57875,5
29286,57867,4
29279,57862,5
29273,57856,5
29281,57840,5
29269,57845,5
29264,57819,3
29268,57821,5
29257,57820,5
29251,57817,5
29260,57819,5
29252,57813,4
29257,57815,5
29255,57814,5
29254,57806,5
29250,57801,5
29257,57802,4
29254,57809,5
29255,57803,5
29268,57820,5
29257,57819,5
29256,57823,4
29263,57834,5
29275,57838,5
29270,57841,5
29268,57844,4
29274,57863,6
29286,57874,4
29279,57874,5
29289,57892,5
29304,57916,6
29311,57931,3
29323,57944,5
29329,57962,5
29340,57969,5
29348,57999,4
29345,58001,5
29349,57992,5
29339,57990,5
29348,57993,5
29343,57990,4
29340,57978,5
29344,57976,5
29344,57983,5
29335,57978,4
29332,57985,4
29342,57996,5
29362,58018,5
29349,58017,5
29347,58009,4
29348,58002,5
29353,58012,6
29357,58006,4
29353,58014,5
29350,57992,4
29334,57981,5
29327,57962,5
29327,57950,5
29312,57931,5
29318,57949,4
29330,57969,5
29333,57978,5
29337,57981,5
29330,57972,5
29330,57949,4
29320,57932,5
29299,57915,5
29304,57913,5
29306,57914,4
29315,57934,4
29327,57951,5
29324,57960,5
29334,57969,5
29330,57962,4
29336,57972,5
29331,57966,5
29332,57972,6
29333,57965,4
29329,57961,4
29322,57950,5
29324,57956,5
29320,57943,5
29321,57951,5
29317,57949,4
29320,57939,5
29316,57949,5
29316,57948,5
29324,57946,5
29323,57949,4
29315,57949,5
29320,57949,5
29319,57941,5
29305,57927,4
29319,57938,5
29318,57937,5
29310,57940,5
29320,57936,5
29306,57921,5
29313,57922,4
29310,57908,5
29302,57902,5
29298,57908,6
29302,57915,3
29307,57922,5
29311,57928,5
29311,57921,5
29314,57927,5
29316,57929,4
29307,57934,5
29306,57924,5
29322,57917,5
29302,57923,5
29310,57912,4
29307,57920,5
29307,57929,5
29315,57939,5
29323,57942,4
29317,57950,5
29325,57953,5
29321,57949,5
29328,57950,5
29324,57937,4
29316,57941,6
29318,57933,4
29315,57932,5
29316,57924,5
29305,57914,4
29312,57920,5
29302,57915,5
29305,57907,5
29302,57900,5
29291,57898,4
29297,57893,5
29298,57906,5
29302,57914,5
29308,57911,5
29311,57914,4
29310,57926,5
29309,57934,5
29318,57931,5
29324,57945,4
29317,57939,5
29332,57945,5
29325,57958,5
29326,57949,5
29325,57963,4
29328,57966,5
29328,57959,6
29331,57975,4
29333,57976,5
29337,57977,4
29338,57979,5
29344,57984,5
29338,57979,5
29338,57988,5
29334,57976,4
29343,57976,5
29342,57981,5
29345,57983,5
29334,57989,4
29343,57986,4
29334,57980,5
29337,57976,5
29335,57974,5
29340,57977,4
29323,57970,5
29336,57973,5
29333,57965,5
29332,57951,5
29326,57964,4
29335,57962,5
29325,57950,5
29326,57945,6
29310,57943,4
29312,57933,4
29318,57935,5
29307,57925,5
29315,57932,5
29312,57925,5
29311,57925,4
29304,57917,5
29309,57925,5
29308,57917,5
29301,57919,4
29305,57910,4
29306,57916,5
29297,57919,5
29309,57912,5
29307,57909,4
29308,57907,5
29299,57909,5
29304,57902,5
29299,57894,5
29304,57896,5
29300,57896,4
29289,57890,5
29294,57891,5
29300,57885,5
29298,57887,4
29296,57882,5
29288,57875,5
29294,57875,5
29286,57871,5
29293,57884,4
29289,57881,5
29284,57881,5
29291,57879,5
29300,57882,4
29293,57886,4
29296,57886,5
29289,57877,5
29294,57890,5
29292,57889,4
29295,57891,5
29293,57887,5
29290,57885,5
29285,57887,5
29287,57883,4
29291,57881,11
29296,57886,4
29289,57878,5
29290,57886,4
29291,57878,5
29290,57884,5
29284,57874,5
29286,57874,5
29280,57872,4
29288,57874,5
29289,57874,5
29284,57865,5
29280,57870,4
29289,57859,4
29278,57863,5
29285,57865,5
29287,57873,5
29276,57867,4
29277,57869,5
29276,57858,5
29283,57862,5
29277,57859,5
29283,57858,4
29278,57862,5
29276,57861,6
29285,57856,4
29285,57864,5
29288,57866,4
29283,57869,5
29286,57869,5
29291,57869,5
29289,57868,5
29287,57870,4
29285,57864,5
29289,57873,5
29280,57869,5
29287,57870,4
29281,57860,5
29278,57869,5
29286,57865,5
29284,57862,5
29279,57864,4
29272,57869,5
29273,57861,5
29280,57864,5
29281,57865,5
29288,57870,4
29285,57874,5
29289,57859,5
29287,57875,5
29293,57854,5
29277,57860,4
29275,57856,5
29279,57858,5
29275,57851,5
29283,57857,5
29282,57850,4
29284,57859,5
29275,57852,5
29277,57860,5
29275,57857,4
29269,57848,5
29284,57857,5
29280,57847,5
29276,57845,5
29265,57841,4
29279,57842,5
29263,57833,5
29267,57832,5
29275,57826,5
29272,57833,5
29262,57828,4
29257,57824,5
29270,57831,5
29266,57831,5
29266,57830,4
29272,57832,5
29273,57840,5
29283,57850,5
29283,57857,5
29282,57854,4
29287,57857,5
29273,57863,5
29279,57856,5
29273,57843,4
29277,57837,5
29277,57844,5
29283,57845,5
29273,57836,5
29272,57840,4
29269,57842,5
29273,57842,5
29275,57841,5
29276,57835,5
29281,57832,4
29277,57848,6
29272,57850,4
29280,57844,5
29279,57854,5
29283,57853,4
29281,57855,5
29281,57856,5
29282,57853,5
29278,57853,5
29278,57858,4
29283,57849,5
29277,57848,5
29281,57860,5
29281,57854,4
29281,57855,5
29280,57863,5
29287,57873,5
29290,57874,5
29284,57873,4
29292,57869,5
29287,57872,5
29296,57872,5
29280,57867,5
29283,57865,4
29281,57878,5
29282,57866,5
29291,57867,5
29284,57861,5
29286,57865,4
29283,57859,5
29288,57858,5
29281,57869,5
29280,57872,5
29284,57864,4
29288,57876,5
29293,57863,5
29283,57865,5
29279,57864,4
29286,57862,5
29285,57866,5
29281,57868,5
29275,57872,5
29295,57862,5
29291,57860,4
29290,57865,5
29291,57867,5
29285,57859,6
29285,57869,3
29279,57863,5
29288,57867,5
29295,57865,5
29290,57875,5
29286,57878,4
29285,57875,5
29282,57867,5
29291,57872,5
29279,57864,5
29275,57869,4
29287,57884,5
29288,57872,5
29290,57876,5
29291,57870,4
29283,57879,4
29283,57877,5
29281,57875,5
29291,57875,5
29280,57866,4
29279,57868,6
29287,57860,4
29279,57866,5
29285,57861,5
29280,57871,6
29287,57873,3
29288,57869,5
29289,57859,5
29276,57867,5
29285,57862,4
29278,57856,5
29284,57855,5
29281,57863,5
29270,57851,5
29280,57855,4
29280,57861,5
29285,57855,5
29276,57850,5
29276,57857,4
29277,57849,4
29277,57853,5
29281,57851,5
29280,57848,5
29280,57861,4
29283,57858,5
29280,57867,6
29275,57873,4
29277,57872,5
29286,57874,4
29284,57874,5
29283,57865,5
29286,57870,5
29284,57860,5
29287,57860,4
29290,57870,5
29282,57861,5
29283,57870,5
29281,57859,5
29283,57862,4
29286,57868,5
29286,57864,5
29286,57873,5
29277,57862,4
29277,57863,4
29287,57868,5
29284,57858,5
29281,57861,5
29281,57874,4
29286,57861,5
29283,57870,5
29287,57861,6
29282,57873,4
29281,57873,4
29286,57853,5
29277,57862,5
29281,57863,5
29284,57873,5
29288,57866,4
29286,57865,5
29276,57861,5
29277,57861,5
29272,57851,5
29274,57858,4
29281,57853,5
29270,57851,5
29276,57846,5
29267,57850,4
29274,57843,4
29274,57843,5
29275,57839,5
29265,57838,5
29267,57843,5
29271,57845,4
29277,57836,5
29271,57839,5
29262,57835,6
29269,57836,3
29275,57826,5
29260,57838,5
29265,57821,5
29263,57823,5
29261,57831,4
29264,57818,5
29260,57825,5
29255,57828,5
29267,57826,5
29262,57834,4
29256,57829,5
29265,57829,5
29262,57822,5
29274,57833,5
29268,57835,4
29262,57838,5
29270,57843,5
29265,57840,5
29269,57847,4
29269,57840,6
29262,57843,4
29265,57843,5
29270,57842,5
29267,57832,4
29265,57834,5
29277,57837,5
29275,57834,5
29274,57842,5
29274,57840,4
29273,57835,5
29267,57826,5
29268,57843,5
29271,57832,5
29267,57837,4
29279,57840,5
29273,57835,5
29278,57833,5
29266,57838,5
29266,57841,4
29271,57831,5
29268,57830,5
29262,57836,5
29268,57841,4
29267,57826,5
29261,57834,6
29271,57828,4
29273,57831,5
29264,57833,4
29266,57833,5
29260,57838,5
29266,57833,5
29261,57830,5
29268,57821,4
29261,57826,5
29261,57827,5
29262,57812,5
29257,57818,5
29257,57814,4
29256,57814,5
29256,57806,5
29257,57812,5
29249,57804,5
29256,57796,4
29248,57802,5
29255,57808,5
29259,57797,5
29260,57807,4
29255,57809,4
29257,57810,5
29255,57810,6
29257,57805,4
29251,57796,4
29246,57786,5
29248,57787,5
29245,57779,5
29244,57790,5
29237,57789,4
29240,57777,5
29248,57777,5
29244,57782,5
29238,57782,5
29242,57783,4
29240,57779,5
29239,57779,5
29245,57786,5
29243,57781,5
29244,57781,4
29237,57773,5
29237,57773,5
29238,57781,5
29241,57775,5
29239,57776,4
29237,57767,5
29239,57771,5
29229,57775,6
29233,57770,3
29238,57769,5
29232,57766,5
29229,57756,5
29221,57763,5
29229,57752,4
29225,57751,5
29221,57747,5
29227,57751,5
29227,57746,5
29228,57742,4
29221,57740,5
29213,57736,5
29212,57719,5
29218,57723,5
29215,57736,4
29201,57714,5
29203,57711,5
29213,57706,5
29201,57701,5
29207,57704,5
29203,57709,4
29194,57697,5
29202,57703,5
29199,57703,4
29199,57698,5
29195,57698,5
29205,57704,5
29196,57697,5
29202,57700,4
29199,57696,5
29198,57696,5
29194,57696,5
29203,57696,5
29205,57701,4
29202,57700,5
29196,57696,5
29209,57694,5
29208,57700,5
29200,57701,4
29202,57690,5
29196,57695,5
29203,57690,5
29195,57695,5
29201,57700,4
29201,57696,6
29200,57702,4
29204,57700,5
29212,57710,4
29210,57725,5
29215,57721,5
29214,57731,5
29219,57740,5
29219,57733,4
29221,57740,5
29227,57737,5
29212,57733,5
29213,57727,5
29206,57720,4
29208,57708,5
29204,57700,5
29196,57705,5
29199,57708,5
29211,57716,4
29214,57723,5
29212,57729,5
29213,57735,5
29223,57735,5
29227,57738,4
29227,57753,5
29228,57762,6
29234,57775,4
29246,57792,4
29260,57800,4
29259,57807,5
29261,57828,5
29275,57847,5
29284,57853,4
29279,57854,5
29271,57858,5
29265,57832,5
29266,57820,5
29257,57803,4
29257,57799,9
29265,57809,1
29268,57827,5
29259,57807,5
29239,57782,4
29230,57751,5
29219,57729,5
29205,57719,5
29211,57712,5
29219,57745,4
29246,57784,5
29258,57823,5
29266,57833,5
29264,57816,4
29256,57814,4
29247,57796,5
29250,57810,5
29265,57822,5
29268,57837,4
29274,57844,5
29276,57837,5
29266,57840,5
29274,57831,5
29264,57801,4
29262,57786,5
29245,57786,5
29246,57780,5
29241,57772,5
29239,57772,4
29251,57778,5
29244,57774,5
29248,57770,5
29258,57789,5
29259,57821,5
29289,57846,4
29290,57869,5
29291,57879,5
29291,57859,4
29285,57855,5
29287,57839,5
29275,57809,5
29262,57789,5
29252,57769,4
29251,57768,5
29250,57780,5
29253,57773,5
29259,57773,5
29249,57779,4
29246,57764,5
29245,57732,5
29236,57730,5
29219,57704,5
29220,57712,4
29218,57699,5
29218,57691,5
29214,57706,5
29223,57722,5
29228,57741,4
29238,57752,6
29241,57741,4
29227,57735,5
29228,57733,4
29238,57746,5
29239,57756,5
29240,57765,5
29240,57747,5
29235,57733,4
29227,57726,5
29225,57724,5
29222,57730,5
29222,57736,5
29234,57726,4
29234,57745,5
29244,57760,5
29259,57788,5
29260,57798,5
29261,57791,4
29254,57788,5
29254,57783,5
29250,57765,6
29245,57768,4
29246,57756,4
29238,57752,5
29244,57753,5
29244,57759,5
29252,57777,4
29254,57792,5
29264,57812,5
29278,57818,5
29275,57816,5
29273,57817,4
29271,57813,5
29267,57803,5
29261,57782,5
29255,57771,5
29242,57763,4
29245,57764,5
29253,57767,5
29252,57783,5
29264,57795,5
29259,57800,5
29267,57806,4
29269,57817,5
29266,57815,5
29260,57814,6
29261,57805,3
29262,57801,5
29261,57803,5
29266,57808,5
29264,57801,4
29264,57808,5
29272,57796,5
29271,57813,5
29275,57813,5
29279,57829,4
29282,57850,5
29288,57855,5
29297,57876,5
29309,57880,5
29310,57896,4
29318,57909,5
29326,57921,5
29334,57940,5
29334,57953,5
29335,57961,4
29337,57972,6
29346,57979,4
29340,57973,5
29348,57971,5
29342,57970,6
29340,57973,3
29355,57977,5
29345,57982,5
29351,57979,4
29350,57983,5
29348,57987,5
29357,57988,5
29363,57994,5
29354,57976,4
29347,57982,5
29347,57983,5
29354,57978,5
29341,57975,5
29351,57974,4
29340,57971,5
29343,57968,5
29345,57973,5
29336,57972,5
29344,57963,4
29338,57963,5
29348,57968,6
29347,57963,4
29341,57957,5
29343,57972,4
29346,57967,5
29346,57962,5
29335,57974,5
29342,57978,4
29345,57976,5
29339,57983,5
29339,57967,5
29347,57974,5
29344,57966,4
29344,57965,5
29336,57967,5
29341,57965,5
29343,57956,5
29331,57961,4
29345,57960,5
29338,57949,5
29336,57948,5
29327,57947,5
29336,57956,4
29337,57947,5
29336,57942,5
29340,57940,6
29330,57941,4
29324,57937,4
29326,57941,5
29328,57931,5
29325,57932,5
29316,57923,4
29316,57922,5
29312,57923,5
29317,57923,5
29315,57916,5
29313,57916,4
29314,57919,5
29320,57910,5
29314,57911,5
29313,57916,5
29326,57923,4
29323,57921,5
29322,57922,5
29309,57916,5
29319,57920,5
29321,57923,5
29315,57926,4
29325,57919,5
29316,57925,5
29321,57927,6
29319,57918,3
29318,57919,5
29317,57906,5
29309,57907,5
29311,57901,4
29312,57889,5
29307,57893,5
29307,57893,5
29307,57897,5
29311,57894,4
29307,57894,5
29305,57891,5
29308,57895,5
29301,57889,5
29313,57893,4
29315,57904,5
29302,57901,5
29310,57895,5
29306,57892,5
29311,57901,4
29300,57897,6
29312,57899,4
29300,57900,5
29301,57895,4
29305,57902,4
29298,57900,5
29308,57895,5
29310,57902,5
29308,57898,4
29305,57904,5
29305,57894,5
29305,57895,5
29312,57897,5
29303,57895,4
29310,57892,5
29309,57894,5
29305,57890,5
29297,57882,5
29295,57890,4
29298,57885,5
29292,57874,5
29296,57871,5
29299,57883,5
29295,57874,4
29297,57875,5
29299,57878,6
29297,57870,4
29289,57870,4
29294,57870,4
29291,57873,5
29299,57869,5
29288,57863,5
29292,57862,4
29293,57875,5
29289,57864,5
29294,57871,5
29294,57871,5
29302,57872,4
29295,57872,5
29292,57861,5
29298,57871,5
29295,57864,5
29292,57875,4
29292,57875,5
29298,57871,5
29289,57877,5
29300,57878,5
29305,57869,4
29286,57867,5
29291,57879,5
29286,57864,6
29296,57866,3
29303,57868,4
29290,57865,5
29291,57867,5
29294,57866,5
29294,57866,4
29288,57864,5
29297,57860,5
29287,57852,5
29288,57857,5
29283,57855,4
29290,57862,5
29293,57859,5
29289,57854,5
29286,57859,5
29281,57860,4
29296,57849,5
29283,57848,5
29287,57843,5
29281,57838,5
29283,57842,5
29277,57833,4
29269,57829,5
29279,57826,5
29273,57825,4
29264,57830,4
29269,57819,5
29273,57816,5
29264,57823,5
29268,57819,4
29267,57819,5
29273,57825,5
29277,57821,5
29274,57819,5
29279,57829,4
29282,57839,5
29277,57843,5
29270,57841,5
29274,57845,5
29281,57834,4
29279,57831,5
29272,57832,5
29277,57838,5
29280,57829,5
29274,57836,4
29272,57833,6
29274,57828,4
29273,57833,5
29277,57833,4
29280,57840,5
29280,57833,5
29280,57836,5
29284,57837,5
29278,57841,4
29283,57848,5
29286,57841,5
29278,57842,5
29286,57842,5
29282,57846,4
29290,57846,5
29286,57850,5
29286,57857,5
29290,57844,5
29286,57846,4
29280,57851,5
29289,57855,5
29282,57846,5
29287,57856,5
29289,57853,4
29291,57855,5
29291,57854,6
29291,57853,4
29286,57860,4
29288,57854,5
29295,57850,5
29288,57854,5
29287,57855,5
29288,57857,4
29287,57856,5
29279,57853,5
29281,57857,5
29282,57857,5
29293,57849,4
29288,57860,5
29292,57857,5
29289,57861,5
29288,57850,5
29287,57851,4
29291,57862,5
29292,57862,5
29292,57855,5
29289,57862,5
29291,57860,4
29292,57859,5
29291,57856,5
29293,57864,5
29298,57867,4
29286,57870,5
29290,57856,5
29288,57863,5
29292,57864,5
29293,57858,4
29293,57864,5
29291,57872,5
29294,57870,5
29302,57875,5
29301,57872,4
29299,57872,5
29294,57872,5
29302,57878,5
29288,57873,5
29297,57868,4
29302,57865,5
29291,57870,5
29301,57871,5
29295,57869,4
29297,57882,5
29293,57867,4
29303,57881,5
29289,57868,5
29306,57861,4
29291,57864,5
29293,57869,5
29291,57869,5
29289,57876,5
29291,57868,4
29299,57862,5
29290,57866,5
29296,57871,5
29296,57861,5
29293,57872,4
29292,57872,5
29284,57869,5
29293,57867,5
29290,57862,5
29291,57865,4
29295,57854,5
29286,57852,5
29295,57866,5
29288,57864,4
29290,57866,4
29294,57870,6
29295,57879,4
29304,57871,5
29298,57876,4
29301,57875,5
29294,57876,7
29297,57880,3
29295,57867,5
29285,57862,4
29292,57858,5
29282,57858,5
29280,57855,5
29278,57860,5
29289,57849,4
29283,57854,5
29281,57861,5
29285,57863,5
29299,57870,5
29297,57877,4
29296,57873,5
29294,57872,5
29291,57873,6
29301,57873,3
29297,57870,5
29297,57876,5
29292,57877,5
29298,57880,5
29298,57875,4
29299,57881,5
29302,57877,5
29310,57874,5
29301,57879,5
29303,57882,4
29301,57885,5
29296,57890,5
29304,57877,5
29293,57873,5
29297,57883,4
29296,57883,5
29295,57884,5
29304,57869,5
29291,57882,5
29303,57878,5
29296,57875,4
29305,57875,5
29291,57877,5
29300,57878,6
29295,57864,3
29294,57871,5
29291,57860,5
29288,57872,5
29296,57866,4
29286,57863,5
29287,57856,5
29296,57854,5
29283,57859,5
29279,57855,4
29291,57867,5
29295,57858,5
29279,57856,5
29287,57852,5
29284,57854,4
29288,57856,5
29293,57855,5
29291,57861,5
29290,57855,5
29293,57856,4
29286,57855,6
29286,57843,4
29289,57853,5
29286,57856,4
29282,57845,5
29283,57853,5
29273,57852,5
29282,57845,5
29286,57845,4
29288,57844,5
29286,57848,5
29284,57842,5
29284,57850,5
29280,57843,4
29275,57842,5
29274,57836,5
29275,57833,5
29281,57840,5
29274,57834,4
29276,57836,5
29280,57826,5
29281,57824,5
29273,57827,5
29269,57829,4
29266,57824,5
29268,57823,6
29276,57825,4
29270,57835,4
29272,57824,5
29265,57819,5
29260,57814,5
29271,57817,5
29271,57821,4
29270,57812,5
29265,57819,5
29274,57817,5
29264,57819,5
29270,57818,4
29270,57820,5
29272,57810,5
29261,57811,5
29272,57815,5
29264,57810,4
29255,57802,5
29252,57799,5
29259,57799,5
29258,57793,5
29263,57795,4
29255,57808,5
29264,57810,5
29258,57800,6
29260,57805,3
29255,57794,5
29256,57804,5
29262,57800,5
29268,57806,5
29260,57804,4
29253,57814,5
29261,57809,5
29264,57812,5
29263,57801,5
29261,57793,4
29260,57795,5
29259,57795,5
29262,57789,5
29256,57795,5
29255,57780,4
29243,57796,5
29256,57796,5
29264,57793,5
29255,57785,4
29251,57793,5
29259,57793,4
29261,57787,5
29255,57788,5
29258,57785,4
29258,57796,5
29255,57794,5
29252,57797,5
29260,57797,5
29256,57794,4
29256,57790,5
29254,57786,5
29255,57788,5
29251,57793,5
29254,57791,4
29251,57786,5
29249,57776,5
29254,57782,5
29249,57785,5
29251,57782,4
29253,57775,5
29245,57783,5
29246,57771,5
29239,57773,4
29251,57778,4
29242,57766,6
29232,57760,4
29240,57771,5
29244,57752,4
29226,57747,5
29239,57750,5
29240,57751,5
29235,57741,5
29231,57742,4
29226,57740,5
29225,57741,5
29225,57737,5
29230,57738,5
29229,57730,4
29228,57726,5
29224,57736,5
29218,57730,5
29226,57731,5
29224,57714,4
29210,57723,5
29222,57718,5
29221,57723,5
29214,57720,4
29213,57722,4
29212,57721,5
29210,57719,6
29217,57716,4
29217,57725,4
29220,57723,5
29214,57720,5
29223,57722,5
29218,57706,5
29208,57712,4
29213,57705,5
29206,57706,5
29200,57700,5
29212,57699,5
29202,57694,4
29198,57686,5
29203,57679,5
29198,57681,5
29196,57686,5
29202,57686,4
29201,57701,5
29197,57706,5
29210,57719,5
29223,57722,5
29226,57723,4
29221,57733,5
29220,57736,5
29223,57749,5
29231,57751,4
29244,57758,5
29238,57769,5
29245,57783,5
29244,57800,5
29260,57812,4
29264,57810,5
29269,57821,5
29276,57825,5
29266,57839,5
29275,57840,4
29279,57832,5
29267,57822,5
29270,57832,5
29263,57836,5
29271,57828,4
29266,57837,5
29277,57840,5
29277,57853,5
29283,57858,4
29285,57848,6
29286,57867,4
29293,57872,5
29294,57888,5
29298,57879,4
29299,57874,5
29292,57878,5
29298,57874,5
29294,57882,5
29294,57881,4
29285,57869,5
29300,57876,5
29307,57893,5
29309,57894,5
29306,57908,4
29314,57910,5
29319,57916,5
29317,57924,5
29317,57919,4
29321,57923,4
29319,57933,5
29321,57922,5
29312,57914,5
29316,57921,4
29313,57919,5
29316,57919,6
29310,57908,4
29309,57895,5
29306,57896,4
29307,57893,5
29301,57890,5
29296,57889,5
29301,57889,5
29301,57883,4
29305,57882,5
29300,57876,5
29301,57881,5
29291,57890,5
29302,57879,4
29298,57890,5
29306,57891,5
29304,57889,5
29298,57882,4
29296,57886,4
29297,57891,5
29294,57889,5
29296,57875,5
29295,57875,4
29297,57877,5
29289,57870,5
29288,57867,5
29297,57863,5
29293,57879,4
29290,57875,5
29298,57865,5
29290,57868,5
29290,57873,5
29291,57856,4
29276,57859,5
29286,57861,5
29290,57855,5
29284,57858,5
29280,57856,4
29278,57857,5
29291,57861,5
29294,57855,5
29293,57855,4
29295,57874,4
29289,57862,5
29289,57864,5
29293,57870,5
29287,57861,5
29283,57872,4
29284,57871,5
29290,57864,5
29292,57866,5
29291,57871,4
29289,57853,5
29289,57857,5
29292,57863,5
29290,57854,5
29290,57861,4
29291,57868,5
29295,57867,5
29292,57855,5
29290,57869,5
29282,57866,4
29290,57861,5
29291,57865,5
29283,57859,5
29293,57859,4
29283,57854,5
29286,57852,5
29287,57860,5
29276,57854,5
29284,57856,4
29287,57858,6
29288,57871,4
29286,57863,5
29283,57865,5
29293,57869,4
29290,57872,5
29295,57866,5
29291,57874,5
29293,57874,5
29290,57866,4
29288,57872,5
29301,57875,5
29298,57868,5
29293,57875,5
29287,57881,4
29295,57867,5
29287,57874,5
29283,57873,5
29292,57875,4
29295,57862,5
29292,57871,5
29283,57876,5
29295,57878,4
29294,57878,4
29295,57874,5
29296,57888,5
29290,57879,5
29296,57879,5
29301,57892,4
29304,57893,5
29308,57897,5
29300,57897,5
29297,57895,5
29311,57894,4
29303,57906,5
29300,57901,5
29309,57896,5
29311,57893,5
29304,57902,4
29309,57897,5
29306,57898,5
29312,57894,5
29303,57901,5
29308,57898,4
29299,57894,5
29306,57900,5
29310,57906,6
29308,57900,3
29305,57896,5
29306,57890,5
29302,57898,5
29298,57893,5
29303,57892,4
29302,57891,5
29306,57884,5
29295,57886,5
29299,57878,5
29293,57880,4
29284,57880,5
29296,57868,5
29287,57865,5
29293,57859,5
29285,57859,4
29282,57852,5
29282,57850,5
29276,57847,5
29284,57836,4
29280,57839,6
29282,57846,4
29285,57853,5
29290,57861,5
29289,57865,6
29288,57869,3
29285,57867,5
29292,57881,5
29288,57875,5
29294,57876,4
29297,57873,5
29293,57864,5
29295,57862,5
29286,57860,5
29295,57866,4
29299,57870,5
29292,57875,5
29299,57890,5
29311,57906,5
29320,57921,4
29320,57929,5
29326,57955,5
29336,57942,5
29342,57957,4
29334,57961,5
29387,58078,11
29387,58078,4
29420,58129,4
29434,58151,5
29434,58145,5
29422,58123,5
29414,58112,5
29417,58107,4
29417,58111,5
29409,58106,5
29419,58106,5
29416,58121,5
29411,58113,4
29422,58129,5
29424,58115,5
29417,58109,5
29407,58090,5
29406,58076,4
29393,58063,5
29388,58060,5
29391,58065,5
29366,58021,4
29344,57980,4
29347,57950,5
29333,57942,6
29331,57940,4
29326,57937,4
29333,57938,5
29326,57946,5
29334,57938,5
29328,57941,5
29332,57944,4
29336,57958,5
29344,57961,5
29347,57974,5
29353,58002,5
29359,58008,4
29355,58014,5
29366,57997,5
29347,57977,5
29346,57974,5
29345,57949,4
29325,57947,5
29331,57938,5
29330,57948,5
29339,57952,5
29338,57966,4
29350,57974,5
29343,57979,5
29344,57968,6
29352,57982,3
29342,57968,5
29340,57949,5
29337,57949,5
29324,57946,5
29321,57931,4
29334,57928,5
29326,57925,5
29325,57939,5
29332,57949,5
29329,57945,4
29331,57936,5
29328,57940,5
29320,57932,5
29324,57938,5
29332,57942,4
29329,57940,5
29323,57926,5
29325,57931,5
29320,57942,4
29335,57949,5
29340,57962,4
29333,57956,5
29337,57969,5
29344,57983,4
29352,57992,5
29360,58006,5
29363,57989,5
29357,57988,5
29352,57982,4
29346,57960,5
29337,57962,5
29338,57945,5
29330,57958,5
29338,57968,4
29338,57977,5
29348,57980,5
29347,57985,5
29357,58006,5
29357,58009,4
29358,58017,5
29359,58018,5
29352,58015,5
29354,57999,4
29348,57991,4
29351,57991,6
29356,58008,4
29362,58024,5
29378,58032,4
29378,58040,5
29376,58044,5
29385,58054,5
29366,58032,5
29376,58038,4
29375,58029,5
29372,58033,5
29371,58035,5
29384,58061,5
29394,58089,4
29410,58119,5
29429,58152,5
29442,58178,5
29460,58216,5
29485,58242,4
29489,58259,5
29490,58273,5
29498,58256,5
29485,58244,5
29474,58235,4
29480,58239,5
29478,58229,6
29480,58222,4
29476,58234,4
29490,58231,5
29485,58244,5
29494,58266,5
29496,58282,5
29513,58290,4
29507,58318,5
29516,58323,5
29534,58329,5
29530,58340,5
29533,58344,4
29538,58336,5
29535,58351,5
29545,58356,5
29546,58352,5
29545,58354,4
29538,58360,5
29553,58358,5
29541,58364,5
29548,58362,5
29548,58364,4
29546,58356,5
29554,58365,5
29554,58368,5
29546,58355,4
29545,58346,5
29549,58352,5
29535,58336,5
29525,58326,5
29534,58326,4
29536,58330,5
29527,58330,5
29531,58326,5
29539,58334,5
29540,58340,4
29536,58345,5
29536,58348,5
29548,58365,5
29546,58366,5
29549,58354,4
29550,58360,5
29547,58369,5
29548,58367,5
29556,58371,5
29553,58364,5
29544,58357,4
29546,58357,5
29541,58358,5
29545,58353,4
29547,58349,5
29545,58352,5
29541,58343,5
29540,58346,5
29535,58344,4
29540,58339,5
29536,58331,5
29528,58332,5
29531,58322,5
29537,58331,4
29530,58330,5
29529,58329,5
29537,58322,5
29530,58324,5
29526,58327,4
29530,58323,5
29523,58321,5
29525,58318,5
29520,58304,5
29525,58306,4
29516,58306,6
29523,58299,4
29505,58295,5
29516,58299,4
29517,58298,5
29511,58295,5
29521,58293,5
29512,58293,5
29495,58276,4
29507,58264,5
29491,58260,5
29494,58252,5
29491,58239,5
29473,58234,4
29481,58233,5
29475,58220,5
29470,58219,5
29467,58208,5
29466,58216,4
29456,58197,5
29470,58204,5
29467,58205,5
29457,58205,5
29467,58204,4
29462,58208,5
29469,58211,6
29471,58212,4
29456,58207,4
29467,58207,4
29462,58197,5
29457,58193,5
29461,58200,5
29455,58191,4
29464,58208,5
29457,58191,5
29464,58199,5
29463,58201,5
29462,58196,4
29457,58204,5
29460,58202,5
29462,58199,5
29457,58199,5
29461,58207,4
29461,58201,5
29460,58180,5
29455,58206,5
29451,58195,5
29461,58204,4
29453,58183,5
29451,58191,5
29454,58185,5
29465,58183,4
29448,58176,4
29450,58185,5
29451,58178,5
29451,58176,5
29453,58182,4
29444,58180,5
29447,58165,5
29442,58178,5
29447,58174,5
29436,58167,4
29451,58176,5
29450,58173,5
29442,58172,5
29438,58177,5
29443,58173,4
29433,58175,5
29446,58167,5
29442,58175,5
29440,58166,5
29442,58175,5
29453,58180,4
29449,58175,5
29441,58176,5
29442,58174,5
29450,58172,4
29448,58172,5
29454,58163,5
29448,58172,5
29440,58170,4
29448,58165,5
29440,58171,5
29439,58168,5
29440,58158,5
29438,58163,4
29440,58164,5
29435,58156,5
29435,58157,5
29436,58151,5
29435,58151,4
29441,58160,5
29440,58156,5
29437,58160,4
29434,58149,5
29430,58150,4
29434,58134,7
29428,58136,3
29421,58136,5
29428,58140,5
29423,58136,4
29425,58125,5
29420,58132,5
29430,58133,5
29421,58127,4
29434,58132,5
29432,58129,5
29415,58128,5
29424,58134,5
29432,58143,4
29430,58140,5
29429,58149,5
29432,58145,5
29426,58148,5
29429,58148,4
29428,58157,5
29435,58156,5
29430,58143,6
29428,58141,4
29428,58140,4
29430,58142,5
29423,58133,5
29422,58139,5
29422,58130,5
29430,58132,4
29429,58135,5
29431,58145,5
29422,58147,5
29426,58144,4
29434,58150,5
29428,58150,5
29440,58156,5
29437,58160,5
29432,58158,4
29435,58140,5
29436,58149,5
29428,58154,5
29439,58168,5
29435,58159,5
29433,58160,4
29431,58162,5
29439,58172,5
29445,58166,6
29446,58159,3
29442,58163,5
29445,58163,5
29440,58166,5
29440,58175,5
29439,58165,4
29435,58168,5
29440,58171,5
29433,58155,5
29443,58158,4
29427,58154,4
29434,58162,5
29436,58151,5
29432,58148,5
29430,58156,4
29435,58155,5
29435,58147,5
29436,58146,5
29439,58150,5
29428,58150,4
29431,58138,6
29429,58131,4
29430,58140,5
29418,58140,5
29424,58135,6
29427,58127,3
29430,58134,5
29427,58138,5
29428,58135,5
29418,58145,4
29421,58137,5
29419,58130,5
29424,58138,5
29426,58138,4
29424,58137,4
29433,58146,5
29434,58141,5
29429,58135,5
29421,58152,4
29422,58138,5
29420,58146,5
29425,58144,5
29435,58140,5
29431,58143,4
29423,58143,5
29429,58146,6
29422,58138,4
29418,58143,5
29422,58132,4
29422,58135,5
29421,58132,5
29423,58132,5
29419,58123,5
29425,58134,4
29426,58138,5
29433,58142,5
29415,58143,5
29426,58131,5
29424,58126,4
29424,58128,5
29421,58128,5
29423,58132,5
29419,58136,4
29424,58121,5
29418,58141,5
29424,58129,5
29423,58133,5
29414,58120,4
29421,58128,5
29416,58130,5
29416,58128,6
29417,58127,4
29410,58121,4
29412,58133,5
29415,58123,5
29412,58122,5
29416,58125,5
29415,58109,4
29412,58111,5
29412,58108,5
29404,58112,5
29399,58107,5
29410,58104,4
29406,58099,9
29395,58095,1
29394,58106,5
29390,58088,4
29399,58097,5
29396,58088,5
29393,58094,5
29391,58097,5
29402,58094,5
29407,58098,4
29401,58105,5
29400,58104,5
29407,58103,6
29395,58107,3
29400,58087,5
29391,58082,5
29382,58074,5
29383,58066,5
29389,58065,4
29381,58071,5
29382,58071,5
29383,58063,5
29383,58069,5
29381,58075,4
29381,58071,5
29389,58059,5
29372,58063,5
29367,58055,4
29373,58062,5
29377,58048,5
29380,58059,5
29376,58056,5
29369,58054,4
29376,58055,6
29373,58048,4
29379,58050,5
29373,58047,5
29371,58043,4
29361,58039,5
29363,58049,5
29368,58039,5
29362,58040,5
29370,58044,4
29375,58046,5
29366,58045,5
29368,58044,5
29370,58037,5
29367,58037,4
29366,58034,5
29359,58022,5
29360,58025,5
29346,58012,4
29355,58008,4
29354,58014,5
29350,58013,5
29349,58010,5
29353,58006,4
29347,57995,5
29345,57989,6
29342,57987,4
29326,57984,5
29329,57974,4
29324,57967,5
29332,57967,5
29332,57964,5
29329,57962,5
29333,57961,4
29331,57953,5
29324,57953,5
29320,57957,5
29320,57948,5
29322,57947,4
29326,57946,5
29319,57959,5
29314,57951,5
29322,57950,4
29321,57940,4
29327,57941,5
29319,57947,5
29319,57958,5
29324,57949,4
29325,57947,5
29321,57953,5
29320,57963,6
29323,57941,4
29316,57947,4
29317,57949,5
29327,57944,5
29321,57947,5
29321,57950,5
29315,57951,4
29320,57945,5
29316,57954,5
29328,57953,5
29325,57952,5
29328,57952,4
29321,57956,5
29331,57964,5
29322,57967,5
29330,57965,4
29330,57965,4
29330,57975,5
29334,57973,5
29333,57974,5
29337,57982,5
29336,57985,4
29340,57986,5
29341,57988,5
29343,57985,5
29344,57990,4
29343,57990,5
29344,57986,5
29346,57994,5
29347,57984,5
29344,57994,4
29350,58001,5
29353,57985,5
29342,58002,5
29349,58005,5
29344,57992,4
29344,57998,5
29348,57999,5
29351,58005,5
29355,58001,4
29354,58000,4
29349,58005,5
29358,58003,5
29357,58012,5
29356,58024,4
29356,58003,6
29353,58002,4
29353,58000,5
29350,58001,5
29352,57991,4
29348,58000,5
29345,58010,5
29350,57999,5
29354,58004,5
29354,58003,4
29356,58004,5
29353,57999,5
29357,57997,5
29350,58008,5
29361,58008,4
29353,58018,5
29356,58014,5
29364,58009,5
29359,58013,4
29362,58022,4
29353,58015,5
29359,58014,5
29359,58019,5
29359,58020,4
29349,58012,5
29352,58021,6
29363,58021,4
29355,58021,5
29364,58023,4
29362,58020,5
29359,58025,5
29366,58025,5
29358,58024,5
29365,58024,4
29359,58026,5
29363,58025,5
29356,58029,5
29358,58024,5
29370,58025,4
29356,58017,5
29365,58031,5
29352,58017,5
29364,58026,4
29359,58023,4
29358,58026,5
29362,58024,5
29357,58017,5
29361,58016,4
29361,58024,5
29365,58030,5
29361,58021,5
29363,58024,5
29368,58027,4
29358,58025,5
29365,58024,5
29367,58030,5
29361,58024,5
29359,58029,4
29365,58035,5
29363,58035,5
29367,58031,5
29372,58036,5
29367,58041,4
29373,58043,5
29371,58041,5
29374,58045,5
29370,58046,5
29375,58048,4
29374,58053,5
29372,58045,5
29380,58053,5
29365,58037,5
29377,58052,4
29378,58047,5
29375,58054,5
29370,58056,5
29376,58047,4
29374,58059,5
29370,58050,5
29373,58054,5
29384,58056,5
29381,58058,4
29381,58074,5
29376,58052,5
29374,58051,5
29372,58049,5
29369,58043,4
29374,58041,5
29372,58052,5
29377,58050,5
29370,58038,5
29367,58065,4
29377,58062,6
29386,58053,4
29384,58056,5
29372,58053,4
29378,58060,7
29378,58059,3
29381,58058,5
29369,58054,5
29381,58054,4
29380,58048,5
29382,58058,5
29381,58061,5
29381,58054,5
29370,58055,4
29368,58051,5
29367,58046,5
29376,58044,5
29371,58049,5
29370,58050,4
29368,58047,5
29375,58050,5
29373,58048,5
29381,58057,5
29366,58049,4
29379,58056,5
29375,58064,6
29384,58066,4
29370,58054,4
29375,58064,5
29381,58070,5
29379,58071,5
29383,58071,5
29386,58080,4
29384,58067,5
29382,58070,5
29388,58070,5
29387,58070,5
29389,58071,4
29383,58072,5
29381,58071,5
29379,58072,5
29379,58073,5
29387,58075,4
29381,58080,5
29383,58067,5
29381,58078,5
29387,58079,5
29395,58076,4
29388,58079,5
29377,58076,5
29384,58086,6
29393,58083,3
29387,58080,4
29386,58092,5
29381,58087,5
29386,58084,5
29386,58082,4
29381,58075,5
29374,58067,5
29388,58070,5
29379,58067,5
29384,58074,4
29379,58072,5
29389,58074,5
29388,58076,5
29382,58080,5
29385,58088,4
29386,58077,5
29396,58095,5
29397,58084,5
29391,58094,5
29395,58100,5
29398,58097,4
29400,58099,5
29400,58099,5
29401,58098,6
29397,58105,3
29406,58104,5
29400,58098,5
29395,58112,5
29406,58106,4
29405,58114,5
29397,58111,5
29396,58122,5
29404,58124,5
29403,58122,4
29398,58114,5
29404,58114,5
29408,58121,5
29417,58118,5
29404,58112,4
29406,58112,5
29406,58115,5
29411,58107,5
29405,58116,5
29404,58103,4
29410,58110,6
29408,58121,4
29405,58107,5
29402,58111,4
29409,58117,4
29406,58119,5
29411,58122,5
29405,58118,5
29407,58121,4
29408,58117,5
29406,58126,5
29402,58123,5
29409,58124,5
29408,58110,4
29407,58118,5
29397,58115,5
29400,58112,5
29401,58109,5
29398,58109,4
29401,58119,5
29408,58117,5
29411,58111,5
29398,58115,5
29395,58109,4
29405,58115,5
29409,58120,6
29411,58116,4
29404,58116,4
29409,58118,4
29415,58119,5
29414,58126,5
29411,58137,5
29418,58130,4
29421,58142,5
29415,58134,5
29415,58139,5
29423,58141,5
29421,58140,4
29419,58134,5
29423,58140,5
29412,58129,5
29406,58129,5
29407,58135,4
29416,58130,5
29420,58133,5
29419,58137,5
29418,58134,5
29411,58136,4
29419,58144,5
29425,58136,5
29416,58133,6
29420,58136,4
29410,58136,4
29408,58129,5
29413,58138,5
29411,58125,5
29404,58123,4
29407,58126,5
29412,58128,5
29414,58119,5
29403,58124,5
29415,58121,4
29406,58123,5
29410,58125,5
29410,58124,5
29414,58128,5
29407,58133,4
29416,58131,5
29419,58142,5
29418,58141,5
29421,58153,5
29424,58156,5
29420,58148,4
29429,58155,5
29418,58151,5
29423,58150,5
29425,58153,4
29424,58145,5
29419,58152,5
29424,58142,5
29419,58150,4
29427,58147,5
29427,58152,5
29427,58144,5
29421,58144,5
29418,58139,4
29407,58137,5
29417,58129,5
29408,58128,5
29407,58125,5
29400,58127,4
29412,58129,5
29404,58119,5
29402,58119,5
29405,58108,5
29404,58116,4
29395,58108,6
29400,58115,4
29411,58102,5
29404,58115,5
29403,58101,4
29404,58114,7
29400,58116,3
29409,58123,5
29400,58116,4
29410,58122,4
29403,58106,5
29405,58111,5
29393,58098,5
29402,58097,4
29397,58099,5
29399,58089,5
29392,58094,5
29396,58091,5
29393,58087,4
29398,58096,5
29391,58095,5
29399,58100,5
29397,58096,5
29395,58102,4
29393,58103,5
29397,58103,6
29400,58095,4
29393,58110,5
29397,58103,4
29398,58105,5
29402,58109,5
29392,58106,5
29408,58100,4
29401,58102,4
29392,58095,5
29390,58097,5
29392,58098,5
29398,58097,4
29398,58105,5
29399,58095,5
29399,58100,5
29392,58100,5
29396,58086,4
29393,58100,5
29394,58093,5
29398,58085,5
29390,58091,5
29394,58079,4
29394,58087,5
29390,58093,5
29391,58092,5
29389,58088,5
29393,58090,4
29393,58086,5
29392,58080,5
29391,58078,5
29379,58072,4
29382,58061,4
29380,58070,5
29381,58072,5
29388,58078,5
29384,58081,4
29389,58069,5
29385,58069,5
29391,58075,5
29382,58069,5
29380,58078,4
29381,58074,5
29380,58075,5
29382,58067,5
29385,58076,5
29377,58080,5
29378,58070,4
29383,58064,5
29392,58073,5
29381,58065,5
29384,58063,4
29389,58065,5
29387,58070,5
29384,58069,5
29386,58075,4
29386,58072,4
29390,58074,5
29386,58076,5
29381,58065,5
29385,58065,4
29376,58060,5
29382,58071,5
29374,58065,5
29387,58060,5
29374,58055,4
29384,58049,5
29377,58053,5
29375,58043,5
29369,58041,5
29369,58048,4
29377,58045,6
29366,58049,4
29372,58032,5
29371,58045,5
29370,58041,4
29370,58049,5
29366,58052,5
29378,58045,5
29371,58050,4
29372,58064,4
29378,58063,5
29378,58062,5
29382,58070,5
29387,58066,4
29371,58059,5
29383,58057,5
29377,58063,5
29368,58059,5
29382,58056,4
29370,58064,5
29380,58053,5
29376,58050,5
29377,58049,5
29381,58049,4
29380,58054,5
29369,58056,5
29375,58064,5
29378,58066,5
29385,58065,4
29371,58063,5
29375,58060,5
29380,58060,5
29383,58065,5
29381,58063,4
29379,58067,5
29384,58066,5
29382,58065,5
29383,58067,4
29379,58063,5
29369,58062,5
29379,58061,5
29378,58072,5
29383,58061,4
29381,58082,5
29393,58071,5
29385,58080,5
29386,58076,5
29389,58073,4
29388,58073,5
29384,58065,5
29386,58074,5
29393,58069,5
29378,58075,4
29385,58073,5
29383,58075,5
29384,58072,5
29379,58058,5
29380,58063,4
29376,58056,5
29378,58061,5
29380,58066,5
29379,58066,4
29379,58064,5
29377,58077,5
29378,58066,5
29385,58073,5
29384,58071,4
29373,58062,6
29378,58061,4
29372,58066,5
29383,58064,5
29373,58068,6
29366,58060,3
29378,58062,5
29375,58069,5
29392,58060,5
29385,58074,4
29385,58062,5
29383,58069,5
29379,58067,5
29381,58077,5
29388,58078,4
29386,58081,5
29386,58081,5
29379,58080,5
29390,58074,4
29390,58076,5
29390,58078,5
29376,58077,5
29390,58081,5
29390,58074,4
29389,58075,5
29383,58086,6
29388,58077,4
29387,58079,5
29391,58071,4
29380,58073,5
29392,58077,5
29383,58072,5
29384,58077,5
29386,58071,4
29385,58067,5
29384,58070,5
29387,58079,5
29380,58075,5
29387,58074,4
29385,58077,5
29383,58064,5
29379,58069,5
29373,58052,4
29378,58057,4
29379,58059,5
29371,58066,5
29378,58050,5
29377,58063,4
29373,58068,5
29383,58057,5
29379,58056,6
29379,58056,4
29374,58055,4
29378,58061,5
29387,58062,5
29384,58066,5
29380,58070,5
29379,58073,4
29388,58080,5
29382,58075,5
29389,58072,5
29382,58068,5
29376,58075,4
29375,58061,5
29379,58063,5
29372,58069,5
29373,58059,4
29380,58054,4
29373,58064,5
29376,58050,5
29370,58059,5
29381,58057,5
29384,58064,4
29376,58071,5
29382,58069,5
29378,58077,6
29377,58064,3
29383,58065,5
29385,58069,5
29377,58077,5
29379,58070,5
29376,58067,4
29375,58074,5
29379,58073,5
29388,58077,5
29377,58074,5
29384,58070,4
29376,58080,5
29378,58076,10
29387,58072,5
29388,58080,5
29386,58068,5
29380,58071,8
29380,58066,5
29380,58063,5
29382,58055,8
29369,58063,5
29370,58076,5
29379,58049,5
29370,58042,8
29382,58055,5
29370,58038,5
29370,58038,8
29372,58042,5
29366,58035,5
29363,58030,8
29365,58029,5
29363,58035,5
29371,58058,5
29352,58034,8
29353,57998,5
29375,58074,5
29363,58025,8
29359,58015,5
29359,58015,5
29361,58021,5
29349,58019,8
29359,58021,5
29361,58016,5
29366,58033,8
29358,58033,5
29357,58021,5
29359,58006,8
29365,58020,5
29364,58010,5
29357,58009,5
29354,58019,8
29354,58019,5
29350,58004,5
29352,58008,8
29356,58006,5
29351,58014,5
29357,58005,5
29346,57991,8
29355,58003,5
29348,58003,5
29343,57988,8
29334,57996,5
29343,57989,5
29333,57983,8
29333,57983,5
29348,57975,5
29363,57967,5
29347,57974,8
29310,57972,5
29319,57966,5
29329,57960,8
29323,57981,5
29324,57964,5
29312,57962,5
29327,57954,8
29317,57952,5
29331,57952,5
29324,57946,8
29324,57946,5
29277,57949,5
29313,57945,5
29322,57940,8
29317,57952,5
29312,57942,5
29323,57916,8
29311,57927,5
29313,57932,5
29323,57946,8
29313,57934,5
29300,57910,5
29310,57918,5
29310,57927,8
29310,57927,5
29307,57948,5
29320,57960,8
29305,57933,5
29315,57925,5
29311,57940,5
29334,57950,8
29334,57944,5
29304,57945,5
29319,57946,8
29323,57943,5
29324,57945,5
29325,57958,8
29325,57958,5
29338,57959,5
29331,57936,5
29330,57953,8
29335,57980,5
29333,57983,5
29319,57977,8
29316,57986,5
29333,57982,5
29340,57983,5
29342,57990,8
29341,57983,5
29345,57977,5
29343,57985,8
29343,57985,5
29339,57976,5
29347,57995,8
29348,57992,5
29337,57988,5
29331,57985,5
29350,57985,8
29350,58014,5
29345,57999,5
29340,57976,8
29348,57987,5
29340,57985,5
29345,57991,5
29345,57991,8
29340,57992,5
29341,57994,4
29347,57987,2
29344,57993,2
29361,57999,5
29347,57992,5
29348,58007,6
29347,57996,4
29341,57990,4
29340,57990,5
29332,57976,5
29339,57976,5
29338,57966,5
29334,57964,4
29326,57965,5
29331,57974,5
29330,57961,5
29336,57966,5
29324,57965,4
29347,57977,5
29344,57985,5
29340,57987,5
29340,58002,5
29351,58008,9
29353,58023,0
29359,57994,5
29363,58024,5
29359,58026,5
29361,58026,4
29359,58018,5
29359,58020,5
29352,58019,5
29359,58006,4
29358,58010,5
29350,58000,5
29349,57990,5
29346,57999,5
29346,57987,4
29340,57995,5
29353,57998,5
29351,58008,5
29360,58029,5
29366,58033,4
29376,58045,5
29368,58047,5
29375,58064,5
29382,58059,5
29377,58079,4
29390,58077,5
29385,58078,5
29389,58072,5
29388,58069,4
29377,58063,6
29379,58062,4
29372,58048,5
29367,58047,5
29375,58043,4
29388,58062,5
29380,58072,5
29389,58076,5
29399,58093,5
29401,58098,4
29396,58105,5
29393,58094,5
29402,58107,5
29405,58109,5
29408,58122,4
29404,58130,5
29416,58135,5
29416,58126,5
29402,58116,5
29411,58113,4
29405,58109,5
29405,58111,5
29407,58122,5
29412,58138,4
29424,58150,4
29415,58137,6
29419,58152,4
29427,58163,5
29425,58151,4
29432,58158,5
29430,58154,5
29427,58172,5
29454,58205,5
29462,58237,4
29474,58255,5
29480,58260,5
29480,58252,5
29484,58245,5
29474,58252,4
29469,58235,5
29472,58234,5
29475,58227,5
29474,58230,5
29474,58234,4
29465,58214,5
29449,58201,5
29462,58197,5
29445,58188,3
29459,58195,4
29455,58202,5
29470,58227,5
29478,58248,5
29482,58265,4
29506,58282,5
29511,58313,5
29527,58338,5
29535,58365,5
29548,58377,4
29567,58406,5
29568,58407,5
29557,58402,5
29559,58399,5
29557,58395,4
29565,58390,5
29562,58397,5
29561,58388,5
29562,58393,5
29562,58386,5
29550,58380,4
29557,58389,5
29557,58376,5
29553,58369,6
29549,58368,3
29544,58362,5
29537,58351,5
29542,58356,5
29531,58351,4
29541,58358,5
29543,58363,5
29551,58373,5
29536,58356,5
29547,58377,4
29553,58384,5
29558,58396,5
29558,58397,5
29560,58378,5
29547,58383,4
29534,58367,5
29538,58363,5
29535,58346,5
29523,58334,5
29525,58325,4
29517,58318,6
29506,58311,4
29514,58302,5
29511,58320,4
29512,58316,6
29527,58330,3
29530,58325,5
29522,58334,5
29530,58338,4
29524,58333,5
29521,58341,5
29524,58344,5
29524,58338,5
29528,58338,4
29530,58340,5
29529,58339,5
29538,58347,5
29540,58352,5
29546,58358,4
29534,58357,5
29546,58366,5
29544,58363,5
29544,58365,5
29546,58368,4
29546,58362,5
29551,58361,6
29543,58374,4
29548,58374,5
29555,58373,4
29552,58371,5
29556,58374,5
29551,58361,5
29549,58361,4
29547,58370,5
29545,58374,5
29540,58363,5
29540,58358,5
29543,58352,4
29534,58356,5
29533,58363,5
29541,58365,5
29543,58372,5
29545,58374,4
29540,58368,5
29548,58372,5
29546,58376,5
29544,58364,5
29542,58366,4
29550,58365,5
29540,58370,5
29543,58378,6
29544,58365,4
29550,58376,4
29551,58374,5
29543,58382,5
29553,58386,5
29553,58384,4
29551,58382,5
29559,58386,5
29553,58388,5
29552,58392,5
29560,58377,4
29560,58382,5
29554,58390,5
29557,58381,5
29548,58383,5
29547,58373,4
29541,58367,5
29539,58364,5
29542,58364,5
29542,58361,5
29538,58362,5
29537,58347,4
29539,58350,5
29533,58344,5
29529,58340,6
29529,58352,3
29541,58350,5
29532,58345,5
29532,58349,5
29528,58336,4
29525,58322,5
29527,58334,5
29532,58334,5
29525,58329,5
29526,58335,4
29524,58342,5
29526,58319,5
29519,58317,5
29514,58312,5
29512,58308,4
29514,58297,5
29510,58296,5
29504,58300,5
29510,58284,5
29503,58278,4
29504,58283,6
29494,58272,4
29501,58278,5
29491,58280,5
29504,58276,4
29496,58279,5
29499,58273,5
29489,58264,5
29492,58274,4
29490,58268,4
29492,58263,5
29494,58271,5
29496,58265,5
29492,58270,4
29500,58272,5
29496,58266,5
29494,58258,5
29492,58268,5
29495,58265,4
29490,58260,5
29497,58261,5
29485,58255,5
29488,58265,5
29496,58252,4
29480,58253,5
29484,58260,6
29483,58246,4
29485,58246,5
29478,58243,4
29475,58242,5
29483,58237,5
29482,58234,5
29474,58232,4
29474,58224,4
29467,58213,5
29468,58226,5
29469,58228,5
29470,58215,4
29466,58218,5
29458,58217,5
29458,58222,5
29462,58217,5
29460,58218,4
29462,58212,5
29464,58226,5
29465,58212,5
29463,58217,5
29469,58216,4
29466,58222,5
29474,58229,5
29472,58230,6
29472,58224,4
29467,58229,4
29466,58226,5
29473,58225,5
29470,58230,5
29471,58227,4
29464,58226,4
29473,58218,5
29477,58234,5
29474,58233,5
29477,58234,4
29476,58223,5
29466,58230,5
29469,58224,5
29473,58223,5
29466,58217,4
29471,58226,5
29469,58221,5
29463,58230,5
29464,58216,5
29471,58214,5
29462,58214,4
29467,58210,5
29457,58205,5
29459,58210,5
29456,58212,4
29460,58213,5
29457,58200,5
29462,58207,5
29454,58196,5
29463,58198,4
29453,58200,5
29453,58201,5
29452,58200,5
29455,58199,4
29464,58213,5
29457,58215,5
29464,58209,5
29457,58212,5
29461,58201,4
29446,58189,5
29450,58187,5
29454,58189,5
29442,58189,5
29457,58191,4
29444,58193,6
29441,58187,4
29449,58191,5
29450,58181,5
29439,58180,4
29440,58185,5
29440,58180,5
29440,58180,5
29444,58183,5
29445,58176,4
29440,58178,5
29445,58192,5
29446,58190,5
29444,58184,4
29441,58189,5
29447,58190,5
29441,58187,5
29445,58183,5
29440,58186,4
29457,58180,5
29443,58181,5
29444,58181,5
29433,58172,5
29443,58176,4
29438,58176,5
29438,58177,6
29443,58170,4
29442,58177,5
29443,58170,4
29439,58176,5
29439,58174,5
29445,58170,5
29437,58174,5
29447,58177,4
29444,58182,5
29439,58173,5
29433,58171,5
29441,58164,4
29435,58158,5
29438,58155,5
29432,58151,5
29436,58164,5
29425,58158,4
29431,58161,5
29428,58158,5
29433,58157,5
29439,58161,5
29424,58160,4
29426,58156,5
29433,58149,5
29422,58153,5
29437,58157,5
29425,58157,4
29438,58152,5
29433,58156,5
29437,58152,5
29427,58149,5
