RED,IR,EKG,TIME
30792,62234,8
30789,62240,5
30792,62231,8
30801,62235,5
30770,62240,5
30789,62233,5
30792,62243,8
30794,62241,5
30788,62245,5
30781,62240,8
30781,62240,5
30788,62193,5
30786,62231,8
30788,62240,5
30792,62234,5
30749,62232,5
30777,62229,8
30793,62227,5
30785,62238,5
30793,62238,8
30794,62220,5
30788,62227,5
30785,62231,5
30785,62232,8
30785,62232,5
30784,62240,5
30790,62228,8
30776,62224,5
30785,62227,5
30791,62262,8
30790,62258,5
30789,62231,5
30781,62228,5
30790,62229,8
30786,62224,5
30790,62235,5
30790,62235,8
30781,62233,5
30778,62221,5
30783,62221,5
30786,62234,8
30799,62237,5
30792,62233,5
30789,62173,8
30793,62210,5
30775,62222,5
30773,62205,8
30773,62205,5
30789,62214,5
30777,62209,5
30771,62194,8
30767,62206,5
30778,62199,5
30781,62208,8
30778,62203,5
30775,62198,5
30768,62199,5
30785,62209,8
30782,62199,5
30779,62204,5
30767,62189,8
30767,62189,5
30778,62197,5
30778,62196,5
30798,62194,8
30781,62187,5
30755,62180,5
30773,62184,8
30772,62196,5
30769,62185,5
30773,62188,8
30756,62179,5
30758,62192,5
30760,62189,5
30772,62182,8
30772,62182,5
30788,62189,5
30753,62190,8
30752,62195,5
30763,62191,5
30768,62181,5
30772,62201,8
30769,62184,5
30764,62199,5
30766,62196,8
30776,62196,5
30772,62196,5
30770,62181,8
30770,62181,5
30739,62170,5
30757,62174,5
30763,62167,8
30762,62176,5
30753,62158,5
30751,62146,8
30754,62158,5
30761,62163,5
30765,62168,5
30740,62159,8
30753,62148,5
30758,62166,2
30770,62162,2
30761,62161,5
30742,62156,4
30775,62154,5
30755,62141,6
30747,62160,4
30754,62161,5
30756,62166,4
30758,62169,5
30752,62153,5
30758,62141,5
30755,62150,5
30752,62148,4
30754,62144,5
30748,62153,5
30749,62134,5
30749,62147,4
30740,62139,4
30748,62138,5
30750,62135,5
30739,62134,5
30752,62134,4
30742,62129,5
30752,62133,5
30741,62134,5
30739,62133,5
30741,62137,4
30750,62126,5
30743,62122,5
30728,62110,5
30733,62102,5
30728,62086,4
30717,62077,5
30723,62071,5
30717,62064,5
30711,62080,5
30724,62081,4
30724,62088,5
30730,62100,5
30727,62101,5
30730,62113,4
30736,62113,4
30742,62122,5
30739,62124,5
30736,62132,5
30738,62127,4
30745,62131,5
30739,62122,5
30744,62127,5
30749,62123,5
30739,62135,5
30743,62130,4
30742,62132,5
30743,62123,5
30744,62137,5
30748,62130,4
30746,62135,5
30750,62133,5
30745,62127,5
30745,62135,5
30744,62132,4
30749,62127,5
30749,62134,5
30751,62129,5
30748,62143,5
30749,62142,4
30754,62145,5
30757,62151,5
30757,62156,5
30756,62156,4
30759,62152,5
30754,62150,5
30752,62159,5
30756,62156,5
30756,62157,4
30757,62159,6
30759,62162,4
30755,62159,5
30755,62161,5
30757,62161,4
30762,62170,5
30756,62156,5
30759,62156,5
30751,62152,5
30745,62146,4
30756,62144,5
30747,62147,5
30755,62153,5
30747,62152,5
30753,62147,4
30759,62150,5
30753,62145,5
30750,62139,5
30750,62145,4
30749,62146,5
30750,62139,5
30751,62139,5
30752,62142,5
30746,62147,4
30754,62147,5
30755,62152,6
30750,62152,4
30743,62139,5
30747,62138,4
30742,62141,5
30745,62141,5
30753,62143,5
30753,62142,5
30754,62144,4
30751,62144,5
30754,62147,5
30752,62159,5
30753,62151,5
30750,62153,4
30758,62150,5
30757,62146,5
30752,62151,5
30739,62140,4
30756,62133,4
30752,62136,5
30745,62134,5
30743,62136,5
30754,62137,4
30746,62137,5
30750,62138,5
30748,62138,5
30757,62134,5
30751,62137,4
30753,62123,5
30755,62131,5
30746,62124,5
30744,62134,5
30751,62135,4
30743,62128,5
30748,62136,5
30751,62122,5
30745,62118,5
30747,62124,4
30742,62125,5
30739,62128,5
30742,62126,5
30747,62121,5
30745,62121,5
30735,62118,4
30734,62123,5
30750,62117,5
30748,62119,6
30750,62128,3
30747,62130,5
30749,62128,5
30746,62130,5
30748,62120,4
30744,62125,5
30748,62119,5
30739,62125,5
30745,62127,5
30742,62118,4
30740,62120,5
30742,62120,5
30742,62127,5
30745,62124,5
30742,62122,4
30748,62119,5
30753,62120,5
30743,62118,5
30746,62120,5
30744,62114,4
30738,62116,6
30742,62112,4
30744,62112,5
30745,62130,4
30743,62122,7
30739,62116,3
30740,62127,5
30747,62129,5
30740,62122,4
30744,62115,5
30747,62127,5
30738,62128,5
30744,62116,5
30751,62129,4
30744,62127,5
30750,62134,5
30753,62136,5
30749,62133,5
30748,62136,4
30748,62132,5
30753,62129,5
30751,62131,5
30750,62127,5
30743,62132,4
30749,62131,5
30746,62125,6
30749,62134,4
30740,62135,4
30745,62127,5
30744,62123,5
30745,62137,5
30749,62134,5
30747,62136,4
30749,62134,5
30751,62135,5
30749,62139,5
30741,62133,5
30749,62125,4
30738,62125,5
30738,62122,5
30744,62125,5
30744,62125,5
30736,62128,4
30751,62132,5
30747,62131,5
30740,62127,5
30744,62130,5
30747,62136,4
30744,62134,5
30738,62133,5
30741,62122,11
30741,62122,3
30735,62119,5
30750,62126,5
30741,62120,5
30741,62116,4
30739,62108,5
30742,62111,5
30733,62103,5
30731,62106,5
30727,62095,4
30733,62097,5
30738,62094,5
30719,62088,5
30722,62088,5
30728,62091,4
30727,62083,5
30726,62090,5
30731,62089,5
30732,62082,5
30729,62088,5
30727,62087,4
30730,62086,5
30723,62095,5
30725,62091,6
30730,62093,3
30729,62097,5
30729,62091,5
30727,62079,5
30726,62078,4
30720,62079,5
30722,62078,5
30720,62074,5
30722,62072,5
30723,62075,4
30717,62073,5
30725,62080,5
30724,62071,5
30712,62069,5
30716,62065,4
30718,62081,5
30718,62092,5
30720,62075,5
30720,62081,5
30723,62083,4
30730,62080,6
30723,62087,4
30727,62092,5
30725,62086,4
30728,62089,4
30728,62097,5
30726,62094,5
30727,62090,5
30723,62087,4
30730,62078,5
30720,62093,5
30728,62092,5
30718,62081,5
30736,62088,4
30725,62087,5
30723,62081,5
30728,62083,5
30730,62083,5
30720,62086,4
30726,62083,5
30731,62087,5
30722,62085,5
30723,62084,5
30726,62090,4
30724,62086,5
30727,62080,6
30723,62092,4
30728,62088,5
30728,62101,4
30730,62092,5
30728,62096,5
30731,62105,5
30737,62114,4
30732,62105,5
30727,62106,5
30741,62108,5
30737,62109,5
30732,62109,4
30731,62106,5
30737,62109,5
30728,62114,5
30727,62110,5
30730,62108,4
30736,62110,5
30733,62112,5
30738,62115,5
30733,62108,5
30736,62110,4
30732,62115,5
30737,62115,5
30732,62118,6
30741,62117,4
30732,62120,4
30733,62114,5
30741,62109,5
30742,62115,5
30737,62107,4
30731,62112,5
30745,62114,5
30734,62114,5
30734,62117,5
30739,62116,4
30743,62113,5
30733,62110,5
30739,62118,5
30734,62114,5
30740,62107,4
30736,62117,5
30731,62113,5
30738,62107,5
30742,62119,5
30731,62118,5
30738,62115,4
30738,62114,5
30734,62118,5
30737,62122,5
30740,62127,4
30742,62132,5
30743,62116,5
30745,62122,5
30745,62126,4
30741,62123,4
30745,62137,5
30747,62130,5
30739,62136,5
30745,62135,4
30749,62138,5
30745,62137,5
30742,62145,5
30745,62139,5
30748,62138,4
30747,62139,5
30744,62134,5
30748,62129,5
30748,62128,5
30747,62133,4
30748,62136,6
30742,62127,4
30741,62129,5
30743,62137,5
30741,62130,4
30742,62127,5
30757,62143,5
30754,62133,5
30747,62135,4
30748,62136,4
30748,62129,5
30748,62131,5
30739,62126,5
30747,62129,4
30751,62130,5
30748,62138,5
30753,62132,5
30744,62132,5
30748,62131,4
30750,62128,5
30747,62137,5
30752,62131,5
30750,62134,5
30748,62127,4
30752,62136,5
30749,62129,6
30746,62136,4
30741,62132,5
30749,62135,4
30744,62136,5
30753,62139,5
30747,62132,5
30749,62135,5
30746,62138,4
30743,62140,5
30749,62138,5
30750,62129,5
30751,62131,4
30747,62134,5
30745,62140,5
30753,62137,5
30747,62131,5
30747,62132,4
30749,62135,5
30749,62140,5
30752,62131,5
30738,62133,5
30750,62136,4
30752,62138,5
30749,62126,5
30743,62140,5
30747,62139,5
30749,62146,4
30742,62137,5
30744,62131,5
30751,62142,5
30743,62137,5
30747,62142,4
30747,62148,5
30743,62132,5
30760,62140,5
30750,62132,4
30758,62132,4
30746,62122,5
30749,62128,5
30744,62142,5
30743,62124,4
30749,62125,5
30742,62128,5
30750,62126,5
30742,62134,5
30755,62133,5
30751,62137,4
30745,62126,5
30751,62130,5
30743,62135,5
30750,62138,4
30746,62136,5
30746,62133,5
30740,62142,5
30745,62138,5
30765,62137,4
30751,62148,5
30757,62141,5
30752,62152,5
30755,62144,4
30762,62153,4
30755,62142,5
30755,62145,5
30762,62150,5
30758,62146,4
30753,62143,5
30757,62151,5
30757,62151,5
30752,62155,5
30755,62146,4
30754,62148,6
30758,62151,4
30751,62154,5
30750,62143,5
30740,62144,4
30752,62140,5
30747,62148,5
30743,62143,5
30747,62146,5
30752,62143,4
30751,62135,5
30748,62142,5
30754,62143,5
30760,62138,4
30750,62139,4
30751,62144,5
30758,62138,5
30750,62141,5
30744,62135,4
30755,62136,5
30751,62146,5
30746,62147,5
30747,62141,5
30754,62141,4
30754,62140,5
30749,62138,5
30747,62144,5
30750,62131,5
30754,62138,4
30752,62140,5
30750,62139,5
30751,62139,5
30744,62135,5
30754,62147,4
30749,62144,5
30749,62140,5
30749,62141,5
30746,62150,5
30743,62145,4
30755,62132,5
30754,62139,5
30747,62134,5
30749,62135,4
30743,62133,4
30755,62129,5
30754,62141,5
30743,62141,5
30760,62144,3
30746,62140,5
30755,62149,5
30749,62151,5
30754,62146,5
30752,62151,4
30761,62148,5
30759,62152,5
30756,62150,5
30759,62156,5
30752,62143,4
30754,62149,5
30758,62153,5
30753,62142,5
30752,62150,5
30754,62147,4
30754,62150,5
30750,62139,5
30750,62139,5
30754,62139,4
30755,62146,6
30758,62151,4
30757,62153,5
30760,62156,5
30758,62148,6
30755,62149,3
30749,62149,5
30757,62146,5
30758,62151,5
30750,62136,4
30748,62144,5
30750,62148,5
30746,62146,5
30754,62150,5
30752,62139,4
30758,62143,5
30747,62141,5
30750,62145,5
30754,62149,5
30756,62142,4
30750,62137,5
30747,62153,5
30750,62149,5
30746,62149,4
30746,62152,4
30752,62145,6
30748,62145,4
30752,62145,5
30745,62145,4
30749,62147,7
30746,62146,3
30748,62150,5
30755,62144,5
30755,62136,4
30742,62147,5
30745,62137,5
30754,62138,5
30748,62135,5
30754,62134,4
30755,62143,5
30751,62139,5
30751,62144,5
30745,62140,5
30742,62121,4
30743,62110,5
30732,62106,5
30734,62098,5
30736,62096,4
30733,62093,4
30729,62095,5
30730,62102,6
30732,62094,4
30728,62090,4
30734,62110,5
30735,62108,5
30740,62120,5
30735,62121,5
30742,62127,4
30739,62121,5
30741,62116,5
30734,62122,5
30748,62113,5
30747,62113,4
30736,62111,5
30735,62107,5
30739,62096,5
30729,62100,5
30727,62097,4
30741,62107,5
30733,62104,5
30734,62104,5
30741,62100,5
30730,62109,4
30733,62096,5
30734,62096,5
30738,62099,6
30740,62106,3
30734,62103,5
30736,62099,5
30748,62106,5
30742,62110,5
30737,62113,4
30734,62123,5
30740,62123,5
30738,62121,5
30737,62116,5
30744,62118,4
30741,62119,5
30733,62107,5
30746,62130,5
30739,62110,5
30742,62123,4
30738,62111,5
30742,62109,5
30735,62111,5
30741,62120,5
30741,62110,5
30731,62127,4
30735,62127,5
30738,62120,5
30747,62121,6
30742,62133,3
30738,62117,5
30744,62120,5
30745,62120,5
30739,62125,4
30741,62126,5
30746,62130,5
30739,62125,5
30748,62131,5
30747,62126,4
30736,62133,5
30740,62130,5
30747,62132,9
30746,62132,1
30743,62138,4
30748,62125,5
30740,62133,5
30743,62127,5
30741,62122,5
30737,62126,4
30748,62130,6
30743,62125,4
30739,62122,5
30742,62122,4
30742,62130,5
30736,62131,5
30743,62130,5
30736,62128,5
30740,62123,4
30738,62126,5
30745,62127,5
30738,62128,5
30737,62130,5
30748,62125,4
30744,62121,5
30739,62132,5
30749,62127,5
30739,62125,5
30746,62125,4
30736,62120,5
30742,62126,5
30740,62122,5
30747,62117,5
30735,62131,4
30747,62127,5
30745,62130,6
30750,62138,4
30752,62129,4
30750,62130,5
30749,62135,5
30749,62131,5
30747,62139,5
30741,62132,4
30749,62139,5
30748,62138,5
30748,62133,5
30752,62127,5
30743,62140,4
30745,62132,5
30752,62138,5
30746,62136,5
30756,62124,5
30748,62131,4
30739,62131,5
30744,62131,5
30739,62132,5
30747,62143,5
30750,62137,4
30745,62131,5
30749,62132,5
30744,62136,6
30745,62139,3
30746,62135,4
30750,62137,5
30742,62147,5
30747,62139,5
30752,62139,4
30753,62146,5
30745,62140,5
30750,62141,5
30748,62147,5
30752,62139,4
30754,62146,5
30750,62142,5
30759,62160,5
30752,62153,5
30749,62149,4
30752,62156,5
30761,62158,5
30759,62156,5
30756,62164,5
30754,62160,5
30755,62160,4
30747,62160,5
30757,62162,5
30752,62158,4
30759,62156,4
30760,62153,5
30760,62152,5
30753,62154,5
30754,62155,4
30755,62164,5
30755,62165,5
30757,62172,5
30761,62157,5
30758,62168,4
30753,62165,5
30757,62167,5
30758,62167,5
30767,62161,5
30767,62174,4
30765,62175,5
30762,62176,5
30767,62174,5
30775,62174,5
30764,62169,4
30766,62174,6
30767,62173,4
30755,62176,5
30761,62173,5
30769,62173,4
30764,62181,5
30766,62171,5
30770,62171,5
30754,62170,4
30761,62169,5
30763,62166,5
30764,62168,5
30761,62173,5
30756,62172,4
30764,62175,5
30753,62173,5
30763,62173,5
30758,62171,5
30762,62158,4
30759,62162,5
30762,62166,5
30759,62161,5
30762,62150,5
30759,62159,4
30759,62155,5
30763,62157,6
30762,62169,4
30758,62150,5
30755,62143,4
30757,62148,5
30753,62153,5
30757,62148,5
30748,62154,4
30755,62148,5
30763,62154,5
30752,62148,5
30753,62153,5
30758,62150,4
30757,62153,5
30753,62143,5
30754,62152,5
30762,62150,5
30752,62145,4
30753,62151,5
30752,62146,5
30746,62142,5
30748,62150,5
30758,62142,4
30752,62136,5
30751,62135,5
30748,62138,5
30748,62139,5
30759,62143,4
30747,62139,5
30749,62137,5
30757,62137,5
30748,62142,4
30760,62144,4
30743,62140,5
30752,62145,5
30758,62139,5
30750,62147,4
30752,62147,5
30753,62142,5
30753,62147,5
30752,62146,5
30748,62149,4
30747,62146,5
30750,62141,5
30753,62137,5
30749,62135,5
30753,62137,5
30743,62138,4
30752,62138,5
30754,62139,5
30749,62134,5
30752,62141,4
30748,62140,5
30753,62140,5
30755,62145,5
30749,62140,4
30751,62139,4
30750,62140,5
30739,62142,5
30745,62138,5
30743,62134,4
30748,62144,5
30753,62149,5
30746,62145,5
30748,62146,5
30751,62140,4
30755,62141,5
30749,62137,5
30747,62137,5
30748,62136,5
30753,62129,4
30747,62136,6
30747,62134,4
30752,62136,5
30749,62137,5
30740,62130,4
30740,62129,5
30743,62127,5
30741,62128,5
30741,62120,5
30742,62112,4
30733,62106,5
30742,62114,5
30747,62118,5
30740,62102,4
30739,62109,5
30733,62095,5
30728,62094,5
30728,62090,5
30725,62079,4
30722,62075,5
30722,62086,5
30729,62087,5
30717,62082,5
30717,62077,4
30714,62062,5
30704,62045,5
30705,62042,5
30703,62037,5
30702,62035,4
30709,62039,5
30695,62036,5
30700,62030,5
30700,62030,5
30696,62017,4
30690,62014,5
30691,62000,5
30685,61988,5
30684,61990,4
30669,61990,5
30678,61999,5
30677,61987,5
30682,61982,5
30662,61965,5
30659,61944,4
30657,61927,5
30657,61919,5
30652,61917,6
30646,61914,3
30648,61922,5
30641,61904,5
30635,61867,5
30616,61834,5
30601,61795,4
30582,61763,5
30577,61755,5
30578,61746,5
30578,61755,5
30578,61751,4
30574,61744,5
30577,61762,5
30573,61749,5
30571,61738,4
30564,61713,5
30560,61713,5
30559,61706,5
30550,61700,5
30549,61699,4
30554,61699,6
30548,61681,4
30539,61678,5
30546,61670,5
30552,61690,6
30554,61697,3
30545,61691,5
30537,61675,5
30544,61658,5
30536,61656,4
30531,61660,5
30531,61652,5
30533,61643,5
30527,61643,5
30529,61633,4
30528,61643,5
30534,61646,5
30522,61635,5
30524,61625,4
30523,61629,4
30524,61636,5
30526,61632,5
30522,61636,5
30524,61646,4
30538,61651,5
30532,61648,6
30533,61626,4
30520,61602,5
30497,61575,4
30494,61553,5
30493,61549,5
30503,61555,5
30502,61576,5
30506,61584,4
30520,61618,5
30532,61621,5
30529,61632,5
30529,61634,5
30530,61633,4
30520,61601,5
30514,61601,5
30516,61605,5
30522,61620,5
30520,61629,4
30533,61637,5
30538,61654,5
30539,61664,5
30553,61684,4
30551,61693,5
30562,61717,5
30582,61727,6
30580,61739,4
30572,61737,4
30582,61761,5
30592,61763,5
30595,61778,5
30606,61790,5
30611,61804,4
30615,61828,5
30620,61833,5
30617,61841,5
30629,61848,5
30624,61853,4
30630,61863,5
30642,61873,5
30639,61876,5
30645,61881,5
30647,61888,4
30650,61891,5
30651,61908,5
30659,61917,5
30662,61926,5
30662,61924,4
30657,61929,5
30667,61944,5
30659,61943,6
30672,61945,3
30667,61951,5
30675,61949,5
30668,61956,5
30669,61951,5
30671,61955,4
30682,61956,5
30666,61960,5
30679,61953,5
30668,61955,5
30675,61957,4
30671,61963,5
30674,61956,5
30673,61958,5
30667,61951,5
30674,61945,4
30662,61935,5
30668,61927,5
30657,61934,5
30661,61934,4
30660,61938,6
30661,61941,4
30666,61933,5
30660,61926,5
30658,61926,6
30657,61922,3
30658,61921,5
30656,61897,5
30644,61885,5
30638,61873,4
30633,61847,5
30617,61830,5
30615,61838,5
30616,61836,5
30631,61852,4
30628,61857,5
30624,61844,5
30618,61807,5
30604,61807,5
30602,61788,4
30602,61784,5
30592,61767,5
30591,61767,5
30590,61782,4
30602,61793,4
30609,61798,6
30599,61793,4
30597,61793,5
30599,61773,4
30602,61780,5
30590,61780,5
30593,61774,5
30593,61788,5
30598,61788,4
30600,61790,5
30598,61797,5
30602,61793,5
30596,61792,5
30605,61786,4
30591,61786,5
30600,61783,5
30594,61774,5
30594,61778,5
30599,61790,4
30608,61797,5
30608,61794,5
30610,61806,5
30617,61822,4
30619,61843,4
30620,61852,5
30629,61866,6
30636,61868,4
30636,61879,4
30646,61885,5
30643,61887,5
30652,61894,7
30646,61895,3
30648,61891,4
30651,61900,5
30646,61900,5
30644,61906,5
30656,61916,5
30660,61923,4
30669,61928,5
30664,61933,5
30663,61929,5
30669,61940,5
30670,61935,4
30670,61936,5
30671,61939,5
30676,61938,5
30669,61942,5
30672,61947,4
30670,61940,5
30667,61931,5
30667,61938,6
30675,61955,3
30677,61954,5
30677,61950,5
30670,61959,5
30670,61964,5
30682,61976,4
30684,61984,5
30679,61971,5
30682,61985,5
30690,61986,5
30689,61989,4
30696,61997,5
30692,61996,5
30695,62008,5
30695,62007,5
30694,62007,4
30706,62004,5
30692,62007,5
30699,62009,5
30703,62014,5
30695,62009,5
30699,62014,4
30701,62015,5
30706,62008,5
30697,62013,4
30698,62009,5
30693,62022,5
30703,62018,5
30705,62028,5
30694,62021,4
30703,62017,5
30708,62023,5
30706,62029,5
30707,62024,5
30711,62028,4
30698,62025,5
30708,62022,5
30699,62021,5
30699,62021,5
30709,62026,4
30703,62031,5
30706,62035,5
30703,62024,5
30707,62022,5
30699,62020,4
30706,62018,6
30710,62031,4
30713,62029,5
30702,62027,4
30697,62029,4
30706,62022,5
30703,62022,5
30702,62025,5
30706,62029,4
30706,62032,5
30710,62032,5
30712,62031,5
30710,62031,5
30712,62047,4
30701,62033,5
30720,62035,5
30715,62042,5
30709,62040,5
30708,62038,4
30714,62035,5
30713,62040,5
30708,62040,5
30710,62043,5
30713,62047,4
30713,62043,5
30719,62046,6
30711,62051,4
30718,62041,4
30720,62052,4
30714,62050,5
30712,62047,5
30710,62051,5
30709,62055,4
30716,62052,5
30710,62052,5
30721,62057,5
30708,62056,5
30718,62053,4
30715,62059,5
30721,62056,5
30724,62072,5
30718,62058,5
30725,62061,4
30721,62057,5
30723,62054,5
30719,62052,5
30714,62057,5
30711,62057,4
30719,62049,5
30719,62055,5
30720,62050,5
30725,62054,5
30720,62053,4
30715,62054,5
30716,62057,5
30710,62067,5
30717,62068,4
30724,62064,5
30718,62067,5
30724,62063,5
30726,62055,5
30723,62068,4
30726,62065,5
30728,62065,5
30723,62066,5
30718,62071,5
30715,62072,4
30720,62072,5
30723,62067,5
30728,62070,5
30717,62075,5
30723,62061,5
30718,62073,4
30725,62079,5
30725,62062,5
30721,62073,5
30728,62068,4
30726,62069,5
30719,62072,5
30724,62075,5
30724,62068,4
30721,62079,4
30724,62066,5
30722,62077,5
30720,62071,5
30725,62077,4
30726,62075,5
30716,62076,5
30724,62066,5
30726,62081,5
30718,62063,4
30727,62075,5
30721,62080,5
30726,62078,5
30732,62071,5
30722,62067,4
30723,62072,6
30726,62068,4
30721,62074,5
30729,62076,5
30724,62081,4
30729,62076,5
30729,62082,5
30733,62082,5
30732,62080,4
30734,62080,4
30733,62080,5
30733,62084,5
30727,62088,5
30731,62083,4
30727,62079,5
30732,62085,5
30732,62080,5
30723,62079,5
30732,62079,4
30732,62093,5
30724,62082,5
30729,62088,5
30733,62084,5
30729,62089,4
30725,62085,5
30731,62095,5
30730,62081,5
30728,62078,5
30727,62083,4
30721,62085,5
30731,62093,5
30728,62076,5
30732,62082,5
30728,62079,4
30724,62082,5
30721,62089,5
30727,62091,5
30721,62080,4
30734,62086,5
30725,62087,5
30726,62092,5
30735,62099,5
30734,62088,5
30737,62096,4
30726,62096,5
30732,62096,5
30734,62096,6
30730,62090,3
30727,62088,5
30736,62096,5
30731,62091,5
30731,62085,5
30733,62101,4
30733,62089,5
30727,62096,5
30730,62089,5
30727,62099,5
30736,62099,4
30735,62098,5
30733,62097,5
30738,62098,5
30737,62096,4
30736,62100,5
30740,62098,5
30740,62093,5
30732,62090,5
30731,62092,4
30732,62092,6
30749,62095,4
30731,62095,5
30733,62091,5
30727,62096,6
30732,62091,3
30735,62109,5
30738,62097,5
30726,62107,5
30733,62102,4
30745,62103,5
30735,62105,5
30739,62111,5
30742,62112,5
30734,62109,4
30744,62117,5
30738,62117,5
30749,62114,5
30742,62116,4
30744,62124,4
30745,62120,5
30735,62103,5
30739,62112,5
30746,62116,4
30746,62105,5
30736,62106,6
30736,62106,4
30741,62109,5
30740,62113,4
30739,62110,5
30743,62110,5
30738,62107,5
30737,62112,5
30740,62120,4
30744,62116,5
30738,62109,5
30743,62111,5
30744,62122,5
30738,62117,4
30737,62109,5
30750,62111,5
30739,62105,5
30732,62112,4
30745,62110,4
30742,62114,5
30747,62110,5
30740,62105,5
30743,62109,4
30739,62111,5
30741,62113,5
30743,62095,6
30736,62108,4
30738,62113,4
30742,62104,5
30735,62109,5
30744,62096,5
30727,62103,5
30739,62105,4
30739,62109,5
30731,62115,5
30737,62101,5
30744,62104,5
30740,62098,4
30733,62097,5
30729,62095,5
30740,62095,5
30728,62099,5
30728,62099,4
30736,62098,5
30731,62098,5
30741,62104,5
30737,62105,5
30728,62097,4
30723,62096,5
30727,62082,5
30720,62078,6
30728,62079,3
30724,62084,5
30723,62079,5
30724,62077,5
30729,62077,5
30721,62085,4
30730,62087,5
30733,62087,5
30723,62085,5
30721,62083,5
30725,62096,4
30728,62095,5
30729,62084,5
30725,62086,5
30718,62083,5
30719,62081,4
30726,62079,5
30722,62071,5
30717,62079,5
30710,62071,4
30724,62077,5
30717,62083,4
30722,62086,5
30724,62084,5
30728,62093,4
30724,62090,5
30730,62079,5
30724,62071,5
30715,62078,5
30723,62070,4
30715,62071,5
30710,62068,5
30718,62058,5
30717,62063,5
30719,62060,4
30719,62051,5
30723,62062,5
30712,62061,5
30720,62047,5
30718,62044,4
30711,62049,5
30706,62045,5
30715,62037,5
30696,62038,4
30700,62020,4
30700,62019,6
30704,62023,4
30686,62011,5
30690,62003,4
30687,62003,5
30688,61994,5
30674,61975,5
30671,61943,5
30656,61916,4
30648,61904,5
30645,61912,5
30648,61903,5
30656,61912,5
30643,61920,4
30665,61922,5
30657,61925,5
30643,61921,5
30652,61922,5
30652,61903,4
30637,61891,5
30633,61866,5
30620,61845,5
30620,61849,5
30627,61845,4
30621,61850,5
30626,61852,6
30622,61850,4
30624,61870,4
30626,61872,5
30634,61867,5
30621,61845,5
30611,61827,5
30603,61813,4
30589,61772,5
30578,61742,5
30572,61733,5
30574,61730,5
30572,61718,4
30560,61705,5
30552,61689,5
30550,61681,5
30542,61664,5
30535,61654,4
30536,61632,5
30519,61632,5
30535,61628,5
30540,61638,5
30534,61624,4
30510,61567,5
30486,61524,5
30459,61488,6
30470,61495,3
30476,61497,5
30483,61524,5
30483,61537,5
30487,61540,5
30488,61549,4
30492,61559,5
30499,61552,5
30502,61552,5
30500,61554,5
30489,61535,4
30479,61499,5
30458,61467,5
30455,61454,5
30447,61445,5
30455,61456,4
30457,61461,10
30468,61479,5
30470,61477,5
30465,61496,5
30472,61491,4
30467,61487,5
30464,61482,5
30474,61491,4
30478,61495,4
30477,61497,5
30482,61499,5
30490,61536,5
30507,61571,4
30510,61565,5
30507,61574,5
30502,61542,5
30482,61522,5
30473,61508,4
30467,61484,5
30471,61493,5
30467,61496,5
30477,61507,5
30492,61542,4
30508,61563,5
30516,61575,5
30513,61611,5
30526,61619,5
30535,61634,4
30539,61619,6
30533,61629,4
30535,61638,5
30537,61634,4
30537,61639,4
30532,61634,5
30528,61627,5
30537,61622,5
30537,61628,4
30543,61628,5
30541,61647,5
30554,61663,5
30565,61684,5
30571,61699,4
30576,61717,5
30587,61726,5
30582,61745,5
30586,61743,5
30592,61753,4
30602,61766,5
30602,61768,5
30610,61778,5
30614,61784,5
30608,61798,4
30613,61796,5
30611,61804,6
30616,61809,4
30613,61813,4
30622,61816,5
30629,61824,5
30630,61839,5
30624,61829,5
30630,61844,4
30632,61839,5
30633,61848,5
30634,61859,5
30641,61854,5
30646,61858,4
30645,61870,5
30641,61863,5
30643,61862,5
30641,61880,5
30644,61880,4
30645,61876,5
30645,61880,5
30650,61891,5
30652,61886,5
30653,61888,4
30658,61896,5
30648,61896,5
30655,61892,5
30654,61905,4
30654,61900,5
30660,61906,5
30658,61910,5
30659,61910,5
30661,61914,4
30662,61905,5
30661,61906,5
30655,61913,5
30671,61920,5
30659,61913,4
30659,61924,5
30662,61920,5
30667,61912,5
30668,61927,5
30668,61921,4
30667,61933,5
30667,61935,5
30674,61934,5
30672,61942,5
30677,61942,5
30680,61952,4
30680,61945,5
30672,61952,5
30682,61950,4
30673,61963,5
30672,61963,5
30685,61966,5
30685,61954,5
30681,61956,4
30684,61951,5
30680,61958,5
30688,61955,5
30684,61975,5
30687,61971,4
30678,61964,5
30681,61962,5
30676,61953,5
30682,61961,5
30681,61967,4
30691,61964,5
30680,61958,5
30677,61968,5
30679,61964,4
30675,61962,4
30682,61961,6
30684,61955,4
30677,61968,5
30675,61966,4
30685,61966,5
30682,61958,5
30682,61960,5
30678,61967,5
30678,61964,4
30683,61961,5
30680,61969,5
30679,61965,5
30681,61966,5
30680,61961,4
30678,61965,5
30679,61960,5
30673,61960,5
30678,61968,5
30686,61954,4
30683,61965,5
30686,61967,5
30684,61957,6
30686,61966,3
30673,61970,4
30687,61968,5
30677,61968,5
30687,61970,5
30681,61971,4
30676,61969,5
30676,61966,5
30676,61961,5
30677,61965,5
30684,61969,4
30681,61971,5
30678,61969,5
30682,61965,5
30681,61975,5
30679,61970,4
30689,61974,5
30682,61982,5
30688,61980,5
30691,61985,5
30694,61985,5
30693,61984,4
30687,61985,5
30688,61992,5
30688,61977,6
30684,61981,3
30693,61989,5
30691,61987,5
30688,61996,5
30689,61990,4
30696,61989,5
30695,61997,5
30699,62004,5
30701,62006,5
30702,62002,4
30690,62009,5
30701,62010,5
30703,62018,5
30698,62004,5
30696,62012,4
30691,62009,5
30701,62006,5
30706,62012,5
30701,62019,5
30705,62015,4
30697,62021,6
30705,62023,4
30706,62034,5
30710,62025,4
30711,62025,7
30703,62029,3
30699,62024,5
30699,62012,5
30702,62018,4
30705,62018,5
30699,62024,5
30707,62027,5
30713,62028,5
30705,62025,4
30711,62025,5
30709,62029,5
30707,62036,5
30709,62015,5
30711,62027,4
30716,62023,5
30712,62022,5
30707,62028,5
30710,62030,5
30712,62021,4
30707,62033,5
30710,62023,6
30710,62026,4
30708,62026,4
30706,62034,5
30712,62022,5
30711,62034,5
30711,62034,5
30711,62024,4
30703,62031,5
30711,62028,5
30707,62031,5
30712,62023,5
30707,62032,4
30707,62033,5
30717,62031,5
30715,62036,5
30703,62026,5
30707,62032,4
30702,62025,5
30711,62039,5
30715,62033,5
30710,62027,5
30707,62032,4
30709,62035,5
30720,62022,5
30708,62044,6
30717,62037,3
30713,62037,5
30713,62033,5
30708,62042,5
30708,62041,5
30716,62031,4
30714,62038,5
30708,62041,5
30709,62042,5
30711,62034,5
30715,62035,4
30714,62043,5
30709,62035,5
30711,62034,5
30708,62021,5
30710,62031,4
30714,62037,5
30715,62031,5
30713,62031,5
30701,62033,4
30712,62036,5
30721,62037,4
30714,62032,5
30720,62043,5
30716,62045,6
30710,62039,3
30721,62044,5
30723,62050,5
30708,62054,5
30716,62052,4
30716,62054,5
30716,62050,5
30715,62055,5
30718,62045,5
30710,62043,4
30714,62047,5
30720,62043,5
30724,62049,5
30723,62058,5
30717,62046,4
30713,62058,5
30712,62061,5
30714,62063,5
30711,62061,4
30721,62054,4
30718,62056,6
30726,62052,4
30721,62054,5
30721,62049,4
30719,62051,5
30717,62044,5
30713,62051,5
30715,62043,5
30713,62043,4
30720,62048,5
30711,62045,5
30714,62050,5
30720,62051,5
30723,62054,4
30718,62047,5
30719,62048,5
30721,62046,5
30718,62048,5
30712,62051,4
30711,62052,5
30724,62053,5
30714,62057,5
30716,62055,4
30716,62055,5
30720,62050,5
30714,62057,6
30716,62065,4
30721,62055,4
30720,62056,5
30725,62050,5
30722,62058,5
30717,62042,5
30721,62054,4
30718,62053,5
30726,62050,5
30722,62047,5
30718,62059,5
30719,62048,4
30727,62051,5
30727,62057,5
30720,62058,5
30717,62046,5
30724,62050,4
30723,62056,5
30729,62057,5
30727,62060,5
30723,62062,5
30723,62059,4
30715,62062,5
30718,62061,5
30722,62059,6
30729,62057,3
30725,62061,5
30727,62061,5
30719,62059,5
30719,62044,5
30716,62046,4
30714,62048,5
30728,62050,5
30725,62057,5
30722,62051,5
30721,62048,4
30720,62052,5
30729,62057,5
30723,62057,5
30721,62039,5
30721,62055,4
30713,62054,5
30728,62062,5
30722,62051,5
30714,62052,4
30720,62059,6
30727,62062,4
30717,62069,5
30733,62070,5
30716,62056,4
30732,62056,5
30738,62066,5
30718,62073,5
30727,62074,5
30732,62075,4
30732,62073,5
30735,62077,5
30730,62072,5
30735,62077,5
30732,62078,4
30729,62068,5
30726,62067,5
30726,62070,5
30724,62065,4
30720,62065,4
30728,62068,5
30732,62063,5
30724,62065,5
30732,62074,4
30724,62076,5
30727,62065,6
30727,62072,4
30728,62071,5
30726,62064,4
30721,62064,5
30721,62070,5
30734,62066,5
30722,62061,5
30721,62063,4
30722,62071,5
30722,62061,5
30725,62064,5
30728,62064,5
30733,62061,4
30726,62056,5
30729,62063,5
30729,62063,5
30732,62070,4
30724,62067,4
30727,62072,5
30724,62068,5
30733,62070,5
30731,62067,4
30731,62073,5
30728,62076,5
30728,62074,6
30729,62069,4
30726,62068,4
30725,62073,5
30725,62066,5
30722,62071,5
30721,62065,5
30727,62073,4
30727,62067,5
30731,62068,8
30729,62069,2
30732,62070,5
30747,62070,4
30727,62079,5
30731,62067,5
30729,62063,5
30729,62066,4
30724,62077,5
30725,62064,5
30721,62070,5
30719,62067,5
30732,62068,5
30725,62063,4
30724,62069,5
30729,62073,5
30735,62067,5
30727,62070,4
30731,62066,5
30726,62072,5
30731,62075,5
30731,62079,5
30731,62083,4
30728,62072,5
30720,62074,5
30729,62075,5
30720,62066,5
30723,62072,4
30728,62071,5
30726,62079,5
30730,62081,5
30728,62072,4
30731,62074,5
30724,62083,5
30733,62073,5
30724,62074,5
30732,62076,4
30729,62069,6
30730,62066,4
30725,62064,5
30722,62069,5
30733,62073,4
30723,62071,5
30726,62061,5
30726,62066,5
30721,62055,5
30725,62067,4
30724,62063,5
30725,62066,5
30724,62070,5
30724,62075,5
30730,62070,4
30722,62082,5
30733,62069,5
30722,62076,5
30734,62071,4
30731,62083,5
30731,62087,5
30736,62084,5
30738,62077,5
30738,62090,4
30738,62087,5
30735,62091,6
30734,62092,4
30734,62085,5
30737,62095,4
30742,62090,5
30738,62099,5
30732,62091,5
30740,62095,5
30738,62093,4
30727,62090,5
30738,62091,5
30737,62094,5
30733,62093,4
30736,62094,4
30734,62103,5
30740,62094,5
30737,62098,5
30739,62092,4
30737,62080,5
30726,62094,5
30733,62092,5
30726,62087,5
30730,62083,4
30732,62083,5
30733,62083,5
30731,62084,5
30731,62081,5
30730,62081,4
30742,62093,5
30737,62091,5
30731,62090,5
30733,62086,5
30737,62100,4
30734,62102,5
30741,62095,5
30734,62088,5
30730,62089,4
30723,62089,4
30732,62086,5
30725,62083,5
30740,62090,5
30726,62081,4
30732,62097,6
30744,62098,4
30739,62083,5
30731,62081,5
30729,62087,6
30745,62080,3
30730,62083,5
30733,62087,5
30728,62083,5
30734,62085,4
30739,62091,5
30731,62095,5
30730,62087,5
30728,62080,5
30727,62086,4
30737,62093,5
30728,62093,5
30736,62089,5
30733,62094,4
30738,62094,5
30735,62094,5
30733,62085,5
30735,62089,5
30734,62090,4
30739,62090,5
30730,62092,6
30740,62089,4
30736,62094,5
30727,62090,4
30733,62087,7
30737,62083,3
30734,62099,5
30730,62095,5
30730,62094,4
30732,62090,5
30737,62093,5
30738,62098,5
30731,62096,5
30736,62098,4
30739,62098,5
30731,62101,5
30735,62097,5
30739,62104,4
30730,62096,5
30732,62103,5
30731,62095,5
30744,62091,5
30739,62092,4
30731,62095,5
30733,62097,5
30734,62105,6
30736,62096,4
30729,62093,4
30736,62105,5
30742,62110,5
30746,62111,5
30741,62112,5
30734,62112,4
30743,62102,5
30745,62106,5
30741,62110,5
30739,62118,4
30736,62110,4
30742,62101,5
30737,62106,5
30734,62110,5
30740,62117,4
30745,62111,5
30740,62117,5
30738,62110,5
30729,62114,5
30735,62119,5
30746,62111,4
30741,62114,5
30744,62115,5
30745,62112,6
30740,62112,3
30735,62106,5
30730,62101,5
30737,62103,5
30736,62101,5
30733,62090,4
30741,62098,5
30738,62100,5
30729,62099,5
30727,62101,4
30738,62102,4
30742,62105,5
30736,62101,5
30736,62101,5
30733,62104,4
30736,62094,5
30730,62102,5
30739,62098,5
30738,62097,5
30733,62106,4
30727,62102,6
30739,62092,4
30732,62103,5
30732,62097,5
30737,62090,6
30724,62092,3
30725,62096,5
30730,62089,5
30731,62095,5
30733,62094,4
30731,62093,5
30727,62089,5
30730,62085,5
30732,62093,4
30730,62085,4
30720,62084,5
30724,62076,5
30727,62078,5
30726,62089,4
30725,62087,5
30726,62084,5
30730,62076,5
30730,62082,5
30728,62074,4
30731,62083,5
30724,62079,6
30729,62085,4
30726,62092,5
30733,62094,4
30739,62091,5
30733,62097,5
30737,62092,5
30735,62103,5
30734,62104,4
30734,62094,5
30731,62096,5
30722,62090,5
30727,62087,4
30715,62093,5
30735,62083,5
30722,62086,5
30728,62079,5
30726,62090,4
30730,62088,5
30732,62084,5
30729,62085,5
30732,62078,5
30732,62073,4
30726,62074,5
30730,62085,5
30731,62074,6
30725,62087,4
30728,62083,4
30725,62091,5
30728,62089,5
30726,62091,5
30730,62087,5
30735,62098,4
30731,62099,5
30730,62093,5
30731,62099,5
30735,62109,4
30734,62101,5
30728,62099,5
30729,62097,5
30730,62091,5
30725,62087,4
30731,62089,5
30725,62083,5
30722,62082,5
30730,62081,5
30734,62087,5
30726,62086,4
30727,62091,5
30729,62093,5
30732,62087,6
30727,62085,3
30727,62087,5
30727,62087,5
30731,62095,5
30730,62084,5
30731,62090,4
30723,62094,5
30732,62095,5
30727,62093,5
30733,62087,4
30729,62099,5
30733,62091,5
30735,62093,5
30726,62088,5
30725,62088,4
30732,62084,5
30723,62082,5
30727,62092,5
30727,62084,5
30734,62080,4
30728,62088,6
30725,62087,4
30720,62073,5
30719,62089,5
30714,62075,4
30728,62084,5
30725,62071,5
30727,62084,5
30734,62087,5
30721,62088,4
30730,62084,5
30719,62082,5
30732,62082,5
30728,62079,4
30725,62086,5
30723,62096,5
30733,62087,5
30720,62097,5
30735,62101,4
30729,62089,5
30731,62101,5
30725,62096,5
30726,62092,5
30724,62089,4
30716,62091,5
30728,62091,6
30730,62088,4
30722,62087,5
30728,62093,4
30724,62096,5
30733,62087,5
30727,62097,5
30726,62102,4
30720,62094,4
30731,62102,5
30735,62088,5
30732,62097,5
30725,62092,4
30734,62098,5
30731,62094,5
30731,62096,5
30730,62095,5
30729,62095,4
30732,62095,5
30729,62092,5
30728,62100,5
30733,62102,5
30724,62097,4
30735,62103,5
30744,62107,5
30730,62109,6
30733,62104,4
30737,62103,4
30736,62119,5
30747,62117,5
30738,62118,5
30740,62124,4
30737,62116,4
30738,62120,5
30734,62108,5
30738,62112,5
30732,62110,4
30742,62105,5
30730,62101,5
30732,62105,5
30729,62111,5
30732,62107,4
30741,62103,5
30737,62101,5
30737,62111,5
30728,62109,5
30736,62108,5
30731,62104,4
30735,62097,5
30732,62099,5
30725,62098,5
30726,62097,4
30730,62100,5
30728,62104,5
30727,62103,5
30732,62100,4
30729,62093,4
30735,62094,5
30722,62090,5
30724,62100,5
30727,62084,4
30719,62087,5
30723,62086,5
30725,62086,5
30724,62080,5
30728,62088,4
30724,62082,5
30724,62071,5
30721,62083,5
30722,62076,5
30721,62077,4
30708,62074,6
30717,62069,4
30717,62058,5
30716,62064,5
30715,62055,4
30718,62064,5
30713,62072,5
30713,62063,5
30708,62065,4
30714,62071,5
30714,62075,5
30721,62072,5
30718,62080,5
30724,62073,4
30722,62077,5
30724,62073,5
30715,62082,5
30709,62066,5
30724,62063,4
30708,62050,5
30704,62056,5
30716,62052,5
30715,62051,5
30712,62057,4
30707,62066,5
30722,62057,5
30710,62055,7
30713,62070,3
30715,62059,4
30717,62065,5
30715,62060,5
30716,62074,5
30708,62070,4
30716,62058,5
30712,62057,5
30715,62063,5
30719,62066,5
30711,62065,4
30708,62065,5
30718,62074,5
30714,62068,5
30719,62068,5
30710,62067,4
30706,62061,5
30709,62068,5
30713,62071,5
30712,62069,5
30706,62069,4
30710,62070,5
30706,62068,5
30712,62071,5
30715,62069,4
30702,62061,4
30719,62073,5
30723,62067,5
30718,62067,5
30717,62068,4
30711,62066,5
30711,62063,5
30708,62058,5
30720,62063,5
30708,62064,4
30705,62061,5
30716,62060,5
30705,62065,5
30715,62070,5
30721,62070,4
30718,62074,5
30716,62075,5
30717,62079,5
30719,62078,5
30729,62078,5
30718,62069,3
30722,62081,5
30716,62084,5
30723,62078,4
30723,62086,4
30727,62086,5
30729,62085,5
30720,62089,5
30723,62090,4
30721,62094,5
30728,62095,5
30718,62085,5
30725,62086,5
30727,62090,4
30727,62096,5
30729,62096,5
30730,62098,5
30728,62102,5
30736,62102,4
30738,62104,5
30731,62099,6
30727,62096,4
30733,62102,5
30727,62102,4
30728,62106,5
30739,62096,5
30731,62100,5
30730,62105,4
30725,62094,5
30733,62101,5
30738,62102,5
30736,62108,5
30731,62098,4
30726,62101,5
30731,62106,5
30738,62113,5
30737,62108,5
30730,62115,4
30739,62106,5
30728,62110,5
30727,62106,5
30734,62101,5
30734,62112,4
30729,62105,5
30728,62116,5
30739,62101,6
30730,62103,4
30736,62108,4
30737,62112,5
30728,62105,5
30733,62110,5
30735,62115,4
30731,62114,5
30730,62115,5
30736,62115,5
30736,62112,5
30729,62110,4
30736,62109,5
30740,62117,5
30738,62101,5
30723,62113,5
30741,62111,4
30735,62112,5
30740,62120,5
30738,62109,5
30729,62116,5
30736,62118,5
30730,62111,4
30738,62128,5
30745,62126,5
30735,62118,6
30743,62129,3
30743,62124,5
30747,62110,5
30738,62113,5
30734,62118,4
30738,62097,5
30736,62107,5
30731,62108,5
30736,62109,5
30730,62104,4
30727,62100,5
30724,62098,5
30735,62096,5
30738,62097,5
30731,62103,4
30740,62102,5
30736,62109,5
30737,62102,5
30729,62101,5
30733,62115,4
30731,62111,6
30740,62107,4
30734,62109,5
30737,62109,5
30735,62103,4
30738,62118,5
30738,62107,5
30743,62113,5
30732,62110,4
30729,62113,5
30731,62110,5
30733,62113,5
30744,62109,5
30738,62111,4
30738,62115,5
30738,62113,5
30743,62116,5
30736,62122,5
30732,62114,4
30735,62114,5
30730,62120,5
30735,62114,5
30745,62126,5
30743,62113,4
30742,62131,5
30742,62124,6
30742,62136,4
30751,62132,4
30756,62145,4
30749,62141,5
30753,62151,5
30758,62154,5
30755,62160,4
30749,62156,5
30758,62157,5
30755,62152,5
30748,62149,5
30751,62152,4
30743,62143,5
30745,62136,5
30744,62134,5
30748,62124,5
30740,62125,4
30741,62119,5
30744,62126,5
30740,62128,5
30750,62131,5
30744,62130,4
30742,62133,5
30751,62139,5
30745,62140,6
30747,62141,3
30751,62128,4
30749,62139,5
30742,62132,5
30739,62131,5
30743,62124,4
30750,62116,5
30742,62126,5
30737,62115,5
30743,62123,5
30748,62118,4
30742,62119,5
30734,62123,5
30749,62130,5
30749,62129,5
30745,62127,4
30748,62131,5
30742,62128,5
30741,62120,5
30736,62122,5
30744,62122,5
30742,62115,4
30741,62113,5
30737,62127,5
30742,62116,4
30734,62115,4
30745,62123,5
30737,62128,5
30741,62123,5
30741,62117,4
30734,62113,5
30743,62127,5
30739,62113,5
30734,62121,5
30744,62116,4
30736,62120,5
30743,62115,5
30738,62115,5
30735,62117,5
30742,62115,4
30744,62120,5
30739,62120,5
30742,62127,5
30738,62114,5
30735,62126,4
30730,62125,6
30744,62118,4
30734,62121,5
30739,62123,4
30746,62120,4
30745,62117,5
30730,62123,5
30744,62125,5
30741,62121,4
30739,62118,5
30737,62122,5
30739,62128,5
30741,62119,5
30742,62117,4
30737,62123,5
30739,62131,5
30747,62128,5
30750,62129,5
30746,62122,4
30741,62116,5
30748,62123,5
30741,62122,5
30740,62117,5
30737,62122,4
30738,62123,5
30737,62125,6
30739,62119,4
30738,62118,4
30741,62125,5
30743,62121,5
30742,62114,5
30737,62121,5
30741,62133,4
30738,62120,5
30743,62118,5
30745,62126,5
30741,62132,5
30750,62123,4
30744,62126,5
30741,62132,5
30742,62127,5
30743,62130,5
30741,62126,4
30745,62136,5
30748,62139,5
30737,62129,5
30745,62137,5
30746,62127,4
30746,62131,5
30745,62123,5
30745,62133,5
30745,62126,4
30744,62126,5
30744,62129,5
30743,62129,5
30734,62131,5
30743,62128,4
30747,62128,5
30738,62125,5
30743,62126,5
30743,62127,5
30736,62128,4
30743,62131,5
30748,62127,5
30741,62122,5
30746,62127,5
30733,62123,4
30745,62124,5
30742,62121,5
30733,62123,5
30740,62116,5
30740,62119,5
30738,62114,4
30743,62112,5
30736,62118,5
30745,62119,4
30739,62121,5
30731,62117,5
30738,62117,5
30729,62129,5
30733,62124,4
30736,62125,5
30736,62119,5
30744,62123,5
30736,62121,5
30740,62118,4
30740,62124,5
30744,62121,5
30741,62124,5
30747,62124,5
30745,62127,4
30744,62126,5
30738,62120,5
30742,62123,5
30735,62124,5
30743,62136,4
30740,62126,6
30735,62125,4
30739,62122,5
30746,62129,4
30731,62128,5
30747,62123,5
30743,62129,5
30740,62120,5
30738,62114,4
30745,62118,5
30738,62114,5
30745,62120,5
30739,62117,5
30730,62122,4
30746,62129,5
30740,62119,5
30743,62118,5
30744,62120,5
30739,62122,4
30738,62123,5
30734,62121,5
30741,62133,5
30745,62127,4
30738,62124,4
30738,62129,5
30735,62129,5
30741,62135,5
30749,62125,4
30743,62133,5
30739,62132,5
30741,62129,5
30740,62126,5
30748,62122,4
30742,62121,5
30740,62125,5
30742,62125,5
30734,62129,5
30748,62123,4
30742,62126,5
30750,62129,5
30747,62126,5
30736,62130,5
30739,62137,4
30744,62143,5
30752,62141,5
30748,62143,5
30744,62139,5
30745,62143,4
30749,62144,5
30746,62141,5
30747,62132,5
30743,62136,4
30746,62142,5
30750,62136,5
30749,62151,5
30739,62145,5
30753,62156,4
30749,62154,5
30757,62149,5
30754,62143,5
30756,62147,5
30754,62142,4
30749,62139,5
30759,62143,5
30744,62145,5
30746,62143,5
30740,62133,4
30745,62132,5
30748,62144,5
30750,62139,5
30757,62146,4
30741,62143,5
30742,62138,4
30745,62141,5
30753,62146,5
30749,62153,4
30751,62142,5
30750,62146,5
30750,62142,5
30751,62145,5
30753,62152,4
30754,62143,5
30743,62148,5
30751,62139,5
30745,62144,5
30750,62136,4
30750,62148,5
30755,62139,5
30750,62141,9
30745,62137,1
30750,62139,4
30736,62156,5
30752,62140,5
30741,62141,5
30744,62143,4
30745,62138,4
30751,62131,5
30734,62136,5
30742,62132,5
30744,62134,4
30745,62127,5
30737,62135,5
30741,62130,5
30741,62135,5
30737,62133,4
30744,62142,5
30743,62133,5
30736,62134,5
30744,62119,5
30733,62130,4
30744,62118,5
30733,62114,5
30739,62123,5
30731,62121,5
30736,62121,4
30744,62117,5
30731,62120,5
30741,62132,6
30735,62131,3
30747,62121,4
30744,62131,5
30749,62133,5
30739,62127,5
30742,62134,4
30734,62123,5
30741,62134,5
30743,62118,5
30731,62114,5
30741,62126,4
30741,62120,5
30731,62115,5
30742,62114,5
30740,62120,5
30734,62126,4
30741,62112,5
30742,62120,5
30735,62111,5
30730,62121,5
30736,62119,5
30737,62120,4
30732,62121,5
30742,62130,5
30736,62121,6
30741,62117,3
30742,62126,5
30736,62119,5
30730,62118,5
30734,62122,4
30742,62125,5
30741,62118,5
30739,62125,5
30740,62126,5
30740,62126,4
30735,62127,5
30744,62130,5
30742,62130,5
30743,62130,5
30733,62138,4
30744,62127,5
30736,62133,5
30733,62124,5
30738,62127,5
30738,62116,4
30741,62117,6
30736,62125,4
30728,62129,5
30732,62121,4
30740,62119,7
30738,62129,3
30733,62120,5
30744,62121,5
30737,62123,4
30739,62111,5
30735,62117,5
30736,62117,5
30742,62122,5
30738,62125,4
30734,62120,5
30730,62115,5
30746,62124,5
30739,62118,5
30734,62116,4
30730,62123,5
30735,62119,5
30736,62118,5
30738,62120,5
30740,62118,4
30736,62116,5
30734,62123,6
30731,62125,4
30735,62121,4
30743,62134,5
30738,62128,5
30732,62122,5
30741,62123,5
30741,62127,4
30730,62119,5
30737,62121,5
30738,62120,5
30736,62116,5
30729,62113,4
30738,62121,5
30733,62115,5
30732,62115,5
30735,62109,5
30728,62113,4
30738,62113,5
30740,62108,5
30740,62112,5
30735,62109,5
30744,62121,4
30733,62116,5
30739,62108,5
30727,62116,6
30731,62114,3
30728,62115,5
30737,62115,5
30732,62120,5
30739,62115,5
30737,62120,4
30728,62113,5
30740,62120,5
30735,62113,5
30729,62104,5
30724,62105,4
30725,62116,5
30729,62108,5
30729,62121,5
30728,62105,5
30738,62101,4
30731,62107,5
30732,62112,5
30726,62113,5
30729,62120,4
30737,62111,5
30742,62107,4
30726,62118,5
30737,62119,5
30737,62114,4
30741,62124,5
30734,62118,5
30734,62116,5
30738,62115,5
30739,62127,4
30731,62134,5
30740,62126,5
30737,62134,5
30742,62127,5
30741,62131,4
30735,62124,5
30734,62121,5
30749,62123,5
30739,62124,5
30737,62120,4
30734,62126,5
30739,62120,5
30735,62131,5
30738,62134,4
30738,62123,4
30732,62118,6
30737,62121,4
30742,62116,5
30734,62119,4
30728,62109,5
30725,62120,5
30744,62108,5
30731,62111,5
30730,62110,4
30729,62113,5
30736,62110,5
30734,62109,5
30733,62112,5
30727,62114,4
30731,62114,5
30723,62113,5
30726,62110,5
30729,62103,5
30730,62111,4
30734,62103,5
30732,62104,5
30722,62108,5
30732,62097,4
30725,62100,4
30724,62091,5
30724,62097,6
30729,62096,4
30721,62093,4
30720,62096,5
30722,62102,5
30723,62105,5
30729,62094,5
30728,62096,4
30725,62100,5
30731,62096,5
30719,62099,5
30721,62094,5
30713,62095,4
30727,62087,5
30715,62090,5
30726,62096,5
30718,62092,5
30727,62091,4
30717,62095,5
30721,62094,5
30718,62091,5
30715,62088,5
30717,62090,4
30714,62093,5
30728,62093,5
30718,62086,5
30718,62092,4
30715,62090,5
30717,62091,5
30716,62099,5
30718,62093,5
30718,62091,4
30722,62099,5
30717,62097,5
30725,62095,5
30722,62095,5
30718,62109,4
30722,62110,5
30729,62106,5
30733,62106,5
30733,62117,5
30737,62119,4
30739,62122,5
30735,62114,5
30735,62116,5
30730,62122,4
30732,62115,6
30730,62127,4
30728,62130,5
30731,62117,5
30727,62118,4
30733,62128,5
30739,62125,5
30737,62122,5
30735,62128,5
30740,62123,4
30740,62124,5
30732,62120,5
30736,62129,5
30735,62131,5
30736,62139,4
30746,62132,5
30739,62130,5
30734,62130,5
30742,62131,5
30748,62138,4
30746,62133,5
30741,62134,5
30729,62130,5
30743,62128,4
30748,62126,5
30741,62126,6
30735,62122,4
30741,62132,5
30742,62126,4
30740,62121,5
30732,62131,5
30737,62116,5
30732,62120,5
30733,62122,4
30735,62121,5
30741,62115,5
30735,62129,5
30740,62125,5
30742,62133,4
30734,62130,5
30734,62139,5
30738,62134,5
30742,62129,5
30741,62128,4
30740,62130,5
30738,62121,5
30732,62123,5
30743,62131,4
30738,62129,5
30741,62118,5
30737,62124,6
30732,62133,4
30740,62127,4
30740,62117,5
30744,62121,5
30732,62124,5
30729,62125,5
30738,62127,4
30737,62122,5
30735,62117,5
30741,62113,5
30740,62134,5
30745,62125,4
30730,62124,5
30738,62117,5
30739,62130,5
30730,62126,4
30732,62128,4
30735,62129,5
30741,62130,5
30744,62129,5
30740,62131,5
30732,62129,4
30740,62134,5
30739,62127,5
30739,62128,5
30740,62123,4
30732,62127,5
30736,62123,5
30732,62129,5
30732,62119,5
30738,62127,4
30734,62129,5
30742,62124,5
30742,62135,5
30740,62123,5
30737,62134,4
30737,62126,5
30742,62130,5
30742,62128,5
30735,62134,4
30745,62135,4
30746,62139,5
30738,62136,5
30740,62133,5
30740,62139,4
30745,62133,6
30742,62137,4
30744,62138,5
30747,62136,5
30744,62143,4
30749,62136,5
30743,62134,5
30743,62134,5
30741,62135,5
30734,62131,4
30749,62127,5
30740,62137,5
30746,62129,5
30746,62131,5
30748,62136,4
30739,62130,5
30747,62141,5
30735,62138,5
30742,62140,4
30741,62129,4
30749,62128,5
30739,62135,5
30744,62134,5
30747,62129,4
30741,62139,5
30743,62132,5
30732,62140,5
30752,62137,5
30738,62135,4
30747,62137,5
30735,62129,5
30745,62126,5
30746,62129,5
30738,62131,4
30738,62129,5
30740,62133,5
30738,62143,5
30747,62129,5
30734,62145,4
30746,62139,5
30746,62136,5
30737,62146,5
30741,62134,4
30746,62128,4
30739,62132,5
30745,62138,5
30747,62139,5
30746,62132,3
30734,62134,5
30735,62136,5
30735,62131,5
30738,62135,5
30734,62142,4
30744,62135,5
30743,62132,5
30746,62131,5
30738,62135,5
30740,62133,4
30739,62136,5
30733,62139,5
30743,62138,5
30744,62136,5
30739,62135,4
30747,62140,5
30746,62136,5
30746,62135,5
30736,62136,4
30745,62132,6
30741,62128,4
30733,62128,5
30736,62129,5
30746,62129,6
30739,62128,3
30736,62128,5
30748,62130,5
30738,62117,5
30737,62136,4
30738,62122,5
30741,62128,5
30738,62135,5
30732,62125,8
30742,62124,1
30736,62134,5
30723,62129,5
30745,62120,5
30739,62119,5
30743,62133,4
30739,62125,5
30740,62135,5
30744,62141,5
30745,62136,4
30744,62141,4
30751,62143,6
30751,62138,4
30744,62143,5
30739,62136,4
30750,62139,7
30745,62144,3
30744,62138,5
30746,62141,5
30741,62141,4
30743,62136,5
30740,62136,5
30747,62130,5
30741,62132,5
30746,62132,4
30747,62138,5
30735,62130,5
30746,62127,5
30746,62132,5
30744,62138,4
30739,62137,5
30738,62138,5
30741,62144,5
30742,62136,4
30742,62131,4
30745,62130,5
30746,62135,6
30738,62136,4
30735,62136,4
30748,62123,5
30745,62133,5
30744,62130,5
30746,62124,5
30738,62130,4
30739,62124,5
30742,62131,5
30734,62135,5
30736,62118,5
30734,62130,4
30740,62125,5
30741,62129,5
30733,62128,5
30736,62134,5
30738,62129,4
30739,62130,5
30741,62125,5
30747,62122,5
30745,62125,5
30735,62131,4
30742,62122,5
30739,62125,5
30743,62129,6
30748,62126,3
30738,62136,5
30745,62123,5
30738,62127,5
30741,62134,5
30741,62141,4
30740,62130,5
30741,62123,5
30743,62130,5
30744,62131,5
30734,62131,4
30740,62130,5
30741,62127,5
30737,62128,5
30740,62130,5
30736,62132,4
30740,62127,5
30739,62121,5
30747,62133,5
30740,62131,5
30741,62122,5
30744,62128,4
30737,62135,5
30741,62131,5
30740,62126,6
30744,62133,3
30735,62134,5
30739,62118,5
30741,62122,5
30739,62124,4
30738,62128,5
30741,62134,5
30738,62130,5
30743,62131,5
30750,62137,4
30740,62137,5
30735,62131,5
30742,62135,5
30744,62131,5
30737,62133,4
30747,62132,5
30745,62137,5
30749,62136,5
30735,62126,5
30742,62128,4
30740,62135,6
30736,62120,4
30742,62132,5
30738,62140,4
30740,62139,5
30736,62127,5
30734,62127,5
30744,62130,5
30734,62127,4
30733,62125,5
30737,62127,5
30745,62134,5
30740,62132,5
30741,62135,4
30742,62133,5
30745,62143,5
30740,62137,5
30744,62144,5
30741,62151,4
30738,62135,5
30747,62136,5
30746,62144,5
30751,62151,5
30744,62146,4
30747,62145,5
30746,62147,6
30749,62147,4
30755,62146,4
30750,62156,4
30755,62147,5
30750,62147,5
30749,62157,5
30753,62143,4
30752,62146,5
30749,62134,5
30749,62134,5
30740,62140,5
30755,62134,4
30746,62143,5
30751,62153,5
30751,62142,5
30749,62144,5
30750,62144,4
30746,62148,5
30748,62147,5
30741,62144,5
30747,62142,5
30749,62143,4
30747,62141,5
30753,62147,5
30745,62146,6
30746,62145,3
30742,62142,4
30749,62147,5
30738,62135,5
30738,62145,5
30738,62137,4
30737,62130,5
30732,62132,5
30738,62130,5
30745,62130,5
30743,62133,4
30741,62137,5
30741,62133,5
30744,62136,5
30733,62127,5
30734,62133,4
30734,62127,5
30735,62138,5
30737,62133,5
30733,62138,5
30743,62127,5
30733,62133,4
30735,62131,5
30731,62131,5
30738,62139,4
30739,62133,4
30740,62128,5
30732,62119,5
30738,62125,5
30731,62125,4
30737,62123,5
30726,62119,5
30741,62126,5
30732,62130,5
30735,62120,4
30728,62119,5
30733,62122,5
30725,62125,5
30739,62127,5
30732,62122,4
30736,62124,5
30735,62131,5
30736,62121,5
30733,62117,5
30730,62123,4
30727,62124,6
30736,62130,4
30730,62123,5
30735,62126,5
30737,62130,4
30733,62120,5
30734,62126,5
30730,62128,5
30744,62124,4
30736,62126,5
30729,62124,5
30731,62127,5
30742,62133,5
30735,62126,4
30728,62133,5
30735,62137,5
30731,62120,5
30735,62138,5
30738,62141,4
30732,62130,5
30730,62133,5
30734,62139,5
30736,62140,5
30740,62133,4
30740,62142,5
30742,62140,6
30743,62144,4
30744,62140,5
30741,62139,4
30741,62143,5
30739,62146,5
30737,62139,5
30743,62141,4
30738,62146,5
30739,62138,5
30734,62137,5
30745,62142,5
30740,62143,4
30746,62136,5
30743,62147,5
30748,62142,5
30746,62132,5
30734,62142,4
30742,62141,5
30739,62142,5
30739,62145,5
30738,62142,5
30744,62136,4
30736,62137,5
30742,62140,5
30733,62130,5
30740,62132,5
30736,62134,4
30737,62135,5
30740,62132,5
30745,62130,5
30740,62137,4
30742,62132,5
30735,62136,5
30744,62135,5
30734,62128,5
30736,62129,4
30735,62131,5
30743,62134,5
30742,62127,5
30742,62132,5
30739,62125,4
30734,62121,5
30744,62129,5
30733,62132,5
30746,62129,5
30742,62137,5
30740,62124,4
30738,62132,5
30745,62135,5
30746,62120,5
30743,62133,4
30732,62132,5
30745,62133,5
30730,62130,5
30738,62127,4
30741,62126,5
30739,62120,5
30729,62123,5
30728,62118,5
30740,62123,4
30738,62124,5
30730,62130,5
30729,62125,5
30730,62110,5
30735,62125,4
30737,62123,5
30731,62124,5
30738,62119,5
30742,62133,5
30733,62118,4
30738,62118,6
30735,62125,4
30735,62130,5
30739,62134,5
30739,62127,4
30731,62121,5
30726,62115,5
30731,62122,5
30736,62128,4
30733,62114,4
30737,62124,5
30736,62115,5
30733,62115,5
30729,62120,4
30728,62126,5
30737,62126,5
30738,62120,5
30737,62128,5
30742,62130,4
30733,62131,5
30738,62133,5
30741,62132,5
30739,62125,5
30740,62130,4
30739,62119,5
30741,62123,5
30747,62136,5
30733,62134,5
30741,62132,4
30742,62123,5
30731,62130,5
30732,62124,5
30736,62123,4
30740,62122,4
30735,62122,5
30735,62137,5
30740,62135,5
30732,62131,4
30730,62120,5
30738,62128,5
30739,62128,5
30740,62122,5
30730,62132,5
30735,62133,4
30741,62132,5
30745,62121,5
30741,62125,6
30732,62123,3
30740,62133,5
30730,62120,5
30731,62136,5
30742,62126,5
30735,62120,4
30737,62119,5
30736,62120,5
30738,62122,5
30732,62117,4
30735,62124,4
30733,62120,5
30735,62112,5
30728,62115,5
30735,62132,4
30736,62119,5
30739,62124,5
30742,62111,5
30738,62119,5
30741,62126,4
30736,62128,6
30734,62126,4
30733,62130,5
30736,62127,5
30742,62123,6
30737,62116,3
30724,62123,5
30740,62117,5
30730,62122,5
30728,62118,4
30726,62126,5
30734,62111,5
30727,62121,5
30736,62110,4
30733,62121,4
30737,62107,5
30734,62129,5
30731,62115,5
30728,62114,4
30730,62111,5
30729,62119,5
30723,62103,5
30728,62112,5
30728,62106,4
30730,62117,5
30734,62109,6
30732,62122,4
30734,62114,5
30731,62112,4
30730,62106,5
30722,62110,5
30724,62117,5
30721,62101,5
30721,62099,4
30726,62108,5
30726,62110,5
30719,62108,5
30736,62097,4
30730,62103,4
30721,62096,5
30720,62101,5
30738,62098,5
30725,62103,4
30722,62104,5
30730,62096,5
30728,62104,5
30723,62104,5
30730,62100,4
30731,62098,5
30722,62106,5
30729,62104,11
30727,62099,3
30725,62100,5
30717,62097,5
30718,62095,5
30722,62099,5
30724,62101,4
30720,62093,5
30721,62099,5
30715,62086,5
30720,62086,5
30709,62080,4
30714,62077,5
30708,62075,5
30716,62068,5
30707,62071,4
30715,62076,5
30711,62060,5
30707,62068,5
30710,62064,5
30709,62074,5
30708,62058,4
30701,62063,5
30701,62064,5
30693,62052,6
30699,62051,3
30691,62046,5
30692,62038,5
30695,62037,5
30692,62036,5
30690,62045,4
30690,62042,5
30698,62045,5
30702,62044,5
30701,62040,5
30684,62040,4
30700,62034,5
30686,62035,5
30693,62036,5
30686,62021,4
30679,62018,5
30685,62017,5
30690,62010,5
30677,62001,5
30674,61998,4
30679,61997,6
30681,61992,4
30682,62007,5
30684,62001,5
30687,62006,4
30681,62015,5
30671,61995,5
30678,61990,5
30669,61981,5
30674,61983,4
30663,61990,5
30669,61984,5
30682,61985,5
30665,61991,5
30669,61981,4
30675,61971,5
30660,61971,5
30670,61978,5
30664,61969,4
30671,61966,4
30656,61965,5
30664,61971,5
30667,61983,5
30667,61985,4
30675,61993,5
30679,61987,6
30678,61992,4
30674,61988,5
30675,61998,4
30676,61991,5
30672,61999,5
30680,61998,5
30671,62002,5
30674,61995,4
30676,62003,5
30681,62003,5
30673,61996,5
30686,62000,5
30679,62000,4
30673,62001,5
30679,62010,5
30676,62005,5
30675,62010,4
30690,62008,4
30682,62008,5
30680,62008,5
30677,62011,5
30688,62005,4
30681,62007,5
30678,62000,5
30676,62014,6
30689,62014,4
30686,62018,4
30684,62026,5
30685,62023,5
30695,62021,5
30685,62027,5
30681,62011,4
30687,62017,5
30680,62022,5
30686,62026,5
30689,62025,5
30681,62022,4
30685,62021,5
30685,62023,5
30686,62023,5
30686,62032,4
30685,62022,4
30693,62039,5
30690,62035,5
30694,62042,5
30692,62046,5
30691,62037,4
30698,62042,5
30694,62030,5
30699,62044,5
30707,62044,4
30698,62057,5
30692,62046,5
30704,62052,5
30705,62051,5
30704,62057,4
30706,62059,5
30704,62060,5
30709,62062,5
30706,62062,5
30707,62069,4
30713,62066,5
30707,62069,5
30709,62069,5
30701,62067,4
30715,62069,4
30710,62068,5
30703,62069,5
30716,62065,5
30715,62065,4
30714,62066,6
30709,62074,4
30708,62066,5
30704,62072,5
30712,62068,4
30715,62075,5
30713,62070,5
30719,62070,5
30714,62074,5
30712,62071,4
30717,62068,5
30714,62076,5
30710,62070,5
30712,62079,5
30713,62082,4
30716,62086,5
30716,62086,5
30715,62088,5
30720,62081,4
30721,62087,4
30721,62088,5
30714,62093,5
30716,62086,5
30722,62094,4
30718,62093,5
30717,62081,6
30715,62085,4
30725,62079,5
30717,62090,4
30718,62081,5
30727,62095,5
30715,62091,5
30717,62084,5
30717,62087,4
30718,62089,5
30723,62089,5
30720,62100,5
30729,62089,5
30719,62090,4
30727,62075,5
30714,62083,5
30712,62080,5
30714,62079,4
30713,62078,4
30717,62074,5
30719,62076,5
30711,62084,5
30712,62079,4
30717,62070,5
30710,62076,5
30713,62084,5
30713,62072,5
30719,62084,4
30718,62074,5
30707,62088,5
30715,62081,5
30714,62076,5
30721,62079,4
30720,62077,5
30719,62079,5
30712,62086,5
30713,62079,5
30713,62094,4
30713,62074,5
30723,62072,5
30720,62083,5
30709,62080,4
30707,62080,4
30717,62084,5
30707,62071,5
30712,62074,5
30720,62075,5
30712,62084,4
30722,62076,5
30706,62071,5
30719,62072,5
30709,62087,4
30709,62072,5
30714,62074,5
30717,62064,5
30708,62064,5
30712,62079,4
30709,62074,5
30716,62072,5
30705,62083,5
30710,62075,5
30711,62081,4
30717,62084,5
30718,62084,5
30716,62086,5
30708,62090,4
30717,62081,5
30711,62083,5
30718,62082,5
30709,62075,5
30712,62076,4
30706,62073,6
30721,62072,4
30710,62073,5
30714,62070,5
30722,62084,4
30718,62079,5
30712,62073,5
30715,62089,5
30712,62083,5
30722,62082,4
30721,62081,5
30711,62086,5
30714,62079,5
30706,62076,5
30716,62087,4
30721,62084,5
30710,62087,5
30716,62079,5
30718,62083,4
30719,62083,5
30721,62089,5
30716,62088,5
30718,62087,5
30712,62086,4
30711,62079,5
30710,62080,6
30708,62074,4
30713,62076,5
30717,62080,4
30710,62084,5
30720,62083,5
30714,62086,5
30724,62082,5
30720,62087,4
30716,62083,5
30715,62089,5
30716,62086,5
30716,62091,5
30710,62085,4
30711,62074,5
30722,62086,5
30720,62086,5
30725,62089,4
30714,62086,5
30709,62077,5
30720,62083,5
30718,62084,5
30719,62077,3
30719,62090,5
30719,62077,5
30713,62079,5
30712,62076,5
30718,62084,4
30715,62083,5
30715,62076,5
30724,62079,5
30716,62082,5
30721,62084,4
30712,62074,5
30713,62081,5
30716,62089,5
30720,62094,5
30719,62086,4
30718,62088,5
30715,62084,5
30727,62079,5
30714,62090,4
30715,62078,6
30718,62088,4
30723,62089,5
30712,62085,5
30725,62079,6
30707,62090,3
30718,62077,5
30711,62085,5
30717,62088,5
30712,62082,4
30720,62082,5
30718,62077,5
30720,62078,5
30712,62075,5
30707,62069,4
30714,62082,5
30716,62082,5
30711,62079,5
30713,62080,4
30715,62080,4
30707,62077,5
30712,62087,5
30712,62081,5
30709,62086,4
30722,62101,5
30720,62084,6
30721,62091,4
30716,62084,5
30720,62089,4
30721,62088,7
30717,62090,3
30712,62085,5
30712,62094,5
30720,62085,4
30721,62088,5
30720,62082,5
30712,62091,5
30717,62087,5
30723,62089,4
30719,62085,5
30720,62097,5
30713,62086,5
30718,62088,4
30718,62083,4
30718,62087,5
30720,62095,5
30722,62091,5
30717,62090,4
30723,62099,5
30722,62093,5
30716,62095,6
30722,62093,4
30725,62094,4
30716,62095,5
30729,62105,5
30717,62099,5
30730,62100,5
30726,62103,4
30715,62100,5
30728,62104,5
30730,62109,5
30728,62099,5
30725,62109,4
30723,62105,5
30727,62100,5
30724,62103,5
30726,62101,4
30723,62091,4
30727,62100,5
30727,62101,5
30726,62104,5
30726,62098,5
30714,62094,4
30722,62086,5
30716,62094,5
30719,62095,6
30721,62088,3
30722,62091,5
30725,62083,5
30714,62084,5
30712,62082,5
30715,62084,4
30714,62073,5
30716,62068,5
30716,62073,5
30711,62075,5
30713,62065,4
30714,62081,5
30703,62070,5
30707,62060,5
30708,62070,4
30706,62071,4
30716,62068,5
30705,62063,5
30702,62073,5
30711,62068,4
30710,62069,6
30704,62072,4
30707,62070,5
30712,62073,5
30708,62063,6
30709,62063,3
30706,62070,5
30706,62061,5
30698,62067,5
30703,62065,4
30706,62065,5
30702,62055,5
30710,62051,5
30689,62049,5
30702,62060,4
30699,62060,5
30698,62049,5
30694,62058,9
30696,62059,0
30698,62052,4
30700,62051,5
30702,62039,5
30695,62048,5
30701,62058,4
30702,62050,5
30711,62061,6
30703,62057,4
30700,62065,5
30716,62074,4
30703,62062,5
30706,62072,5
30707,62072,5
30696,62054,5
30700,62059,4
30704,62058,5
30710,62066,5
30704,62075,5
30701,62066,5
30699,62065,4
30707,62062,5
30708,62056,5
30702,62063,5
30711,62076,4
30711,62079,4
30715,62078,5
30711,62066,5
30710,62080,5
30713,62066,4
30708,62071,5
30710,62068,5
30703,62064,6
30704,62052,4
30699,62061,4
30702,62063,5
30704,62067,5
30707,62068,5
30708,62066,5
30708,62079,4
30711,62075,5
30717,62079,5
30710,62072,5
30708,62073,5
30702,62054,4
30700,62038,5
30688,62038,5
30694,62036,5
30695,62036,4
30687,62043,4
30691,62040,5
30688,62041,5
30689,62039,5
30682,62023,5
30676,62015,4
30681,62001,5
30670,61995,5
30686,61990,6
30681,62003,3
30681,62003,5
30682,62009,5
30685,62012,5
30683,61993,5
30684,61998,4
30682,61989,5
30667,61980,5
30663,61962,5
30657,61958,5
30662,61959,4
30662,61956,5
30665,61957,5
30663,61959,5
30655,61956,4
30650,61951,5
30654,61941,5
30646,61929,5
30634,61916,5
30623,61891,4
30630,61886,6
30627,61886,4
30624,61894,5
30636,61901,5
30627,61897,4
30637,61919,5
30637,61927,5
30654,61932,5
30649,61935,5
30646,61928,4
30633,61912,5
30630,61884,5
30625,61880,5
30629,61869,5
30629,61872,4
30629,61871,5
30621,61875,5
30623,61879,5
30628,61872,4
30615,61865,5
30622,61865,5
30614,61873,5
30611,61851,5
30615,61855,4
30616,61850,5
30614,61851,6
30611,61851,4
30615,61852,5
30616,61857,4
30616,61869,5
30618,61865,5
30609,61853,5
30612,61842,5
30606,61832,4
30607,61832,5
30595,61831,5
30597,61835,5
30603,61829,5
30602,61823,4
30608,61832,5
30606,61841,5
30608,61838,5
30605,61821,4
30603,61831,5
30602,61822,5
30601,61817,5
30601,61831,5
30597,61815,4
30594,61803,5
30586,61798,5
30589,61788,6
30585,61782,4
30588,61781,4
30582,61770,5
30574,61772,5
30573,61771,5
30573,61757,5
30568,61767,4
30573,61758,5
30572,61762,5
30573,61756,5
30574,61760,4
30569,61764,4
30584,61771,5
30581,61778,5
30582,61778,5
30581,61782,4
30578,61765,5
30574,61753,5
30570,61743,5
30567,61727,5
30560,61730,5
30554,61720,4
30565,61733,5
30564,61734,5
30563,61732,5
30566,61734,4
30580,61738,5
30570,61741,5
30565,61748,5
30575,61741,5
30568,61739,4
30573,61744,5
30567,61730,5
30552,61706,5
30537,61688,4
30543,61673,4
30537,61688,5
30544,61682,5
30548,61684,5
30539,61683,4
30544,61678,5
30532,61675,5
30534,61660,5
30526,61660,5
30536,61666,4
30526,61663,6
30531,61662,4
30527,61662,5
30536,61663,5
30533,61659,4
30525,61673,5
30542,61676,5
30544,61671,5
30528,61654,5
30530,61656,4
30537,61659,5
30528,61660,5
30525,61664,5
30537,61667,4
30535,61668,4
30538,61673,5
30547,61690,5
30553,61705,5
30553,61715,4
30552,61714,5
30560,61726,5
30559,61718,5
30568,61726,5
30563,61733,4
30565,61742,5
30573,61749,6
30575,61756,4
30576,61751,5
30574,61751,4
30575,61756,5
30580,61757,5
30584,61773,5
30580,61790,5
30590,61811,4
30596,61804,5
30596,61803,5
30597,61817,5
30604,61812,4
30595,61816,4
30605,61822,5
30603,61815,5
30607,61823,5
30606,61833,4
30608,61845,5
30616,61841,5
30615,61849,5
30623,61851,5
30615,61863,4
30615,61857,5
30627,61866,5
30622,61864,5
30637,61859,5
30629,61872,4
30617,61870,5
30612,61861,5
30629,61872,5
30624,61875,5
30629,61874,4
30627,61877,5
30622,61869,5
30632,61886,5
30629,61882,4
30636,61877,4
30628,61884,5
30626,61893,5
30632,61893,5
30626,61888,4
30628,61889,6
30627,61899,4
30634,61893,5
30640,61903,5
30630,61896,6
30634,61902,3
30641,61914,5
30639,61918,5
30639,61903,5
30636,61916,4
30651,61912,5
30652,61907,5
30650,61914,5
30636,61918,5
30635,61903,4
30643,61913,5
30643,61916,5
30633,61904,5
30640,61910,4
30650,61912,4
30650,61917,5
30649,61924,5
30645,61922,5
30635,61926,4
30646,61922,5
30645,61913,6
30655,61913,4
30638,61917,5
30641,61921,4
30645,61930,7
30647,61919,3
30655,61926,5
30644,61930,5
30650,61923,4
30645,61922,5
30642,61931,5
30645,61933,5
30652,61942,5
30644,61933,4
30642,61936,5
30648,61940,5
30646,61929,5
30646,61934,4
30646,61934,4
30662,61932,5
30645,61931,5
30651,61938,5
30653,61937,4
30652,61941,5
30654,61936,5
30655,61931,6
30653,61945,4
30653,61948,4
30652,61944,5
30649,61949,5
30652,61943,5
30651,61954,5
30656,61955,4
30661,61943,5
30655,61949,5
30658,61943,5
30658,61947,5
30656,61951,4
30658,61957,5
30655,61947,5
30659,61956,5
30656,61948,4
30658,61972,4
30664,61960,5
30661,61975,5
30657,61968,5
30665,61970,5
30661,61963,4
30665,61969,5
30668,61964,5
30669,61967,6
30659,61979,3
30678,61963,5
30667,61959,5
30672,61964,5
30667,61977,5
30665,61972,4
30672,61974,5
30664,61974,5
30672,61972,5
30674,61969,5
30667,61976,4
30667,61975,5
30675,61976,5
30671,61984,5
30673,61985,4
30676,61985,4
30679,61984,5
30666,61976,5
30679,61977,5
30667,61990,4
30678,61990,6
30676,61984,4
30668,61977,5
30675,61985,5
30680,61984,6
30676,61991,3
30677,61990,5
30679,61990,5
30668,61989,5
30676,61988,4
30673,61997,5
30672,61989,5
30676,61996,5
30677,61998,5
30671,61997,4
30685,61996,5
30677,62000,5
30679,62006,5
30682,62004,4
30683,62009,5
30686,62014,5
30677,62004,5
30689,62006,5
30680,62010,4
30684,62015,5
30692,62011,6
30691,62019,4
30688,62013,5
30691,62016,4
30684,62016,5
30682,62008,5
30681,62010,5
30684,62002,5
30691,62014,4
30683,62012,5
30688,62014,5
30686,62010,5
30690,62018,5
30687,62011,4
30683,62012,5
30690,62015,5
30685,62000,5
30683,62007,4
30686,62012,5
30688,62012,5
30686,62015,5
30692,62008,5
30689,62019,4
30691,62020,5
30685,62020,5
30689,62022,6
30688,62030,4
30701,62027,4
30690,62029,5
30696,62034,5
30696,62033,5
30691,62042,5
30697,62027,4
30700,62041,5
30695,62039,5
30688,62034,5
30697,62044,5
30692,62041,4
30700,62044,5
30696,62040,5
30699,62042,5
30700,62037,4
30697,62036,5
30702,62039,5
30698,62038,5
30691,62036,5
30695,62037,5
30701,62041,4
30695,62030,5
30702,62037,5
30690,62040,6
30697,62039,3
30687,62028,5
30697,62032,5
30693,62035,5
30700,62038,7
30691,62026,2
30698,62037,5
30691,62039,5
30703,62028,5
30690,62038,4
30696,62042,4
30694,62026,5
30690,62026,5
30698,62023,5
30686,62028,4
30690,62027,5
30690,62028,5
30695,62027,5
30699,62028,5
30691,62029,4
30697,62030,6
30699,62022,4
30685,62030,5
30699,62035,5
30689,62028,4
30692,62031,5
30691,62030,5
30693,62036,5
30696,62025,5
30691,62032,4
30696,62034,5
30694,62033,5
30689,62038,5
30690,62031,4
30691,62030,4
30697,62034,5
30698,62031,5
30698,62026,5
30695,62033,4
30691,62034,5
30695,62035,5
30694,62031,5
30698,62035,5
30696,62044,4
30699,62041,5
30697,62042,6
30698,62042,4
30698,62048,5
30698,62041,4
30691,62057,5
30697,62056,5
30699,62045,5
30702,62049,5
30704,62048,4
30704,62043,5
30702,62043,5
30692,62036,5
30695,62048,4
30704,62035,4
30704,62043,5
30699,62038,5
30691,62035,5
30697,62037,4
30701,62050,5
30695,62046,5
30707,62046,5
30705,62054,5
30704,62060,4
30694,62049,5
30699,62057,5
30700,62043,6
30700,62045,4
30707,62060,4
30710,62052,5
30704,62053,5
30697,62057,5
30712,62061,5
30709,62059,4
30703,62062,5
30713,62067,5
30704,62054,5
30707,62062,4
30702,62053,4
30699,62057,5
30700,62062,5
30704,62067,5
30705,62071,4
30706,62065,5
30704,62064,5
30709,62063,5
30705,62065,5
30708,62062,5
30707,62064,4
30708,62065,5
30708,62072,5
30710,62064,5
30711,62064,4
30702,62063,5
30715,62071,5
30709,62067,5
30707,62060,5
30706,62062,4
30710,62062,5
30703,62061,5
30701,62060,5
30708,62069,4
30714,62061,5
30704,62058,5
30712,62060,5
30709,62058,5
30714,62066,4
30718,62062,5
30717,62060,5
30708,62059,5
30712,62062,5
30712,62057,4
30703,62066,6
30708,62061,4
30704,62061,5
30714,62065,5
30709,62063,4
30709,62063,5
30710,62059,5
30712,62068,5
30708,62059,5
30711,62063,4
30706,62058,5
30701,62063,5
30706,62065,5
30710,62066,4
30708,62071,5
30710,62067,5
30703,62054,5
30707,62063,5
30710,62062,4
30709,62060,5
30712,62051,5
30702,62064,5
30702,62062,5
30711,62052,4
30704,62055,5
30708,62050,6
30711,62053,4
30708,62058,5
30701,62051,4
30708,62061,5
30713,62054,5
30707,62054,5
30707,62060,5
30706,62068,4
30707,62057,5
30701,62055,5
30701,62063,5
30712,62057,4
30712,62064,5
30714,62060,5
30704,62060,5
30711,62064,5
30711,62066,4
30708,62064,5
30715,62065,5
30717,62064,5
30715,62060,5
30711,62058,4
30711,62063,5
30712,62068,5
30719,62064,5
30709,62064,5
30712,62067,4
30709,62069,5
30709,62065,5
30710,62073,5
30703,62067,5
30715,62056,4
30715,62069,5
30719,62072,5
30715,62077,5
30718,62076,4
30717,62067,5
30712,62077,5
30707,62081,5
30724,62076,5
30719,62080,4
30721,62074,5
30715,62075,5
30713,62081,5
30718,62081,5
30716,62082,5
30719,62090,4
30721,62090,5
30723,62097,5
30728,62082,5
30715,62088,4
30721,62091,5
30719,62093,5
30722,62089,5
30722,62076,4
30718,62093,4
30719,62090,5
30721,62081,5
30720,62088,5
30725,62085,4
30716,62087,5
30718,62090,5
30720,62087,5
30715,62084,5
30720,62088,4
30719,62079,5
30712,62084,6
30723,62093,4
30711,62084,5
30713,62086,4
30721,62087,7
30721,62093,3
30724,62087,5
30718,62086,5
30717,62077,4
30719,62085,5
30719,62087,5
30724,62086,5
30716,62097,4
30727,62084,4
30716,62093,5
30723,62092,5
30715,62094,5
30724,62088,4
30714,62089,5
30720,62101,5
30722,62099,5
30717,62088,5
30715,62099,4
30723,62086,5
30718,62091,5
30722,62082,6
30713,62083,4
30724,62088,4
30724,62086,5
30724,62081,5
30718,62083,5
30730,62085,5
30727,62081,4
30715,62083,5
30716,62090,5
30713,62088,5
30714,62083,4
30717,62088,4
30720,62086,5
30722,62088,5
30726,62088,5
30714,62091,4
30717,62092,5
30723,62078,5
30724,62086,5
30720,62088,5
30721,62085,5
30720,62082,4
30727,62085,5
30721,62088,5
30718,62087,6
30718,62091,3
30716,62086,5
30710,62086,5
30719,62084,5
30719,62083,5
30713,62088,4
30724,62086,5
30715,62086,5
30720,62084,5
30712,62081,4
30712,62085,5
30717,62081,5
30716,62093,5
30716,62088,5
30718,62090,4
30716,62089,5
30717,62091,5
30720,62088,5
30722,62104,5
30721,62095,4
30720,62101,6
30719,62101,4
30719,62105,5
30719,62108,5
30719,62112,6
30719,62107,3
30720,62114,5
30733,62104,5
30720,62107,5
30729,62107,4
30724,62100,5
30730,62099,5
30722,62109,5
30726,62108,4
30724,62100,5
30725,62108,5
30726,62095,5
30726,62105,5
30726,62115,4
30721,62093,5
30726,62105,5
30730,62098,5
30718,62094,5
30723,62094,4
30725,62088,5
30725,62093,6
30720,62097,4
30714,62102,5
30726,62101,4
30716,62096,5
30724,62092,5
30725,62083,5
30730,62086,5
30717,62093,4
30712,62091,5
30719,62086,5
30715,62079,5
30716,62090,4
30710,62090,5
30710,62092,5
30725,62083,5
30718,62089,5
30716,62088,4
30716,62081,5
30718,62080,5
30712,62088,5
30711,62083,5
30715,62077,4
30715,62084,5
30713,62075,5
30722,62075,6
30716,62074,4
30716,62082,4
30713,62075,5
30719,62080,5
30711,62078,5
30711,62082,4
30707,62075,4
30714,62079,5
30719,62072,5
30715,62074,5
30710,62065,4
30708,62077,5
30711,62074,5
30710,62074,5
30710,62070,5
30710,62062,4
30717,62070,5
30714,62076,5
30708,62069,5
30706,62061,5
30715,62070,5
30718,62069,4
30709,62074,5
30715,62073,5
30710,62085,6
30712,62073,3
30709,62081,5
30714,62081,5
30713,62077,5
30714,62077,4
30710,62082,4
30713,62087,5
30713,62081,5
30710,62075,5
30717,62069,4
30710,62073,5
30712,62073,5
30707,62075,5
30707,62061,5
30697,62071,4
30712,62067,5
30711,62067,5
30705,62068,5
30708,62075,5
30713,62073,4
30717,62070,6
30718,62075,4
30710,62080,5
30719,62076,5
30720,62075,4
30710,62076,5
30715,62082,5
30718,62080,5
30711,62092,4
30718,62086,5
30712,62085,5
30714,62095,5
30723,62090,5
30722,62091,4
30725,62092,5
30726,62082,5
30726,62083,5
30721,62086,5
30716,62090,4
30722,62097,5
30718,62090,5
30721,62098,5
30728,62096,5
30720,62106,4
30721,62094,5
30721,62095,6
30719,62093,4
30723,62098,5
30724,62092,4
30717,62087,5
30720,62089,5
30717,62085,5
30715,62079,4
30708,62087,5
30715,62075,5
30718,62080,5
30720,62086,5
30713,62087,4
30722,62089,5
30725,62075,5
30717,62083,5
30711,62086,5
30720,62088,4
30712,62082,5
30712,62085,5
30714,62088,5
30718,62088,10
30718,62088,4
30726,62088,5
30718,62094,6
30723,62100,4
30721,62100,4
30720,62101,5
30720,62095,5
30722,62098,5
30721,62095,4
30730,62093,5
30717,62098,5
30727,62098,5
30718,62083,5
30715,62077,4
30710,62083,5
30712,62080,5
30715,62082,5
30711,62079,5
30715,62081,4
30721,62084,5
30711,62082,5
30717,62072,5
30719,62086,5
30713,62083,5
30713,62079,4
30710,62085,5
30710,62086,5
30715,62076,5
30714,62078,4
30710,62072,5
30717,62075,5
30707,62080,5
30707,62076,4
30711,62074,5
30712,62080,5
30710,62089,5
30708,62085,5
30713,62082,4
30716,62086,5
30707,62076,5
30713,62087,5
30712,62089,5
30720,62090,4
30726,62091,5
30717,62091,5
30717,62080,5
30720,62088,5
30715,62090,4
30712,62085,6
30715,62089,4
30720,62083,5
30716,62090,4
30718,62086,4
30712,62081,5
30718,62083,5
30716,62090,5
30723,62086,4
30713,62084,5
30709,62087,5
30713,62081,5
30715,62084,5
30721,62085,4
30716,62081,5
30711,62083,5
30713,62087,5
30708,62085,5
30717,62077,4
30717,62076,5
30709,62086,5
30710,62080,5
30713,62083,5
30710,62082,4
30707,62083,5
30714,62086,6
30705,62082,4
30712,62082,4
30718,62084,4
30714,62082,5
30719,62075,5
30709,62078,5
30706,62084,4
30712,62072,5
30710,62071,5
30705,62079,5
30709,62069,5
30708,62082,4
30709,62085,5
30718,62077,5
30714,62075,5
30706,62079,5
30706,62082,4
30708,62082,5
30714,62076,5
30707,62075,5
30710,62079,5
30711,62080,4
30712,62089,5
30710,62083,5
30716,62093,5
30712,62084,4
30709,62083,4
30710,62088,5
30711,62079,5
30705,62079,5
30705,62078,4
30714,62082,5
30712,62084,5
30708,62076,5
30714,62085,5
30709,62070,4
30711,62074,5
30714,62078,5
30709,62082,5
30714,62082,5
30714,62084,4
30716,62083,5
30711,62086,5
30701,62079,5
30710,62085,5
30706,62092,5
30715,62089,4
30705,62092,5
30711,62090,5
30708,62082,4
30707,62079,5
30702,62084,5
30704,62082,5
30706,62085,5
30709,62083,4
30709,62095,5
30713,62099,5
30717,62095,5
30717,62102,5
30715,62101,4
30722,62096,5
30721,62109,5
30720,62106,5
30724,62103,5
30717,62106,4
30720,62105,5
30715,62106,5
30718,62109,4
30722,62117,5
30722,62107,4
30723,62099,6
30719,62099,3
30721,62110,5
30717,62115,4
30723,62104,5
30724,62100,5
30720,62105,5
30716,62102,5
30716,62102,4
30722,62105,5
30716,62104,5
30719,62097,5
30717,62102,5
30722,62104,4
30709,62103,5
30730,62107,5
30725,62107,5
30726,62111,5
30715,62102,4
30716,62111,5
30723,62106,5
30714,62123,6
30721,62115,4
30720,62112,4
30719,62111,5
30710,62104,5
30710,62104,5
30716,62113,4
30727,62107,5
30716,62109,5
30714,62104,5
30716,62106,5
30721,62101,4
30720,62105,5
30729,62107,5
30714,62119,5
30723,62114,5
30729,62109,4
30729,62107,5
30722,62115,5
30720,62114,5
30720,62117,5
30714,62112,5
30725,62111,4
30724,62115,5
30725,62112,5
30723,62114,6
30727,62111,3
30722,62115,5
30722,62112,5
30722,62104,5
30718,62107,4
30724,62118,5
30725,62109,5
30728,62115,5
30734,62113,5
30730,62113,4
30731,62121,5
30729,62131,5
30736,62134,5
30734,62134,5
30734,62128,4
30733,62130,5
30737,62131,5
30736,62137,5
30732,62134,5
30743,62143,4
30735,62130,6
30735,62139,4
30745,62135,5
30726,62139,4
30736,62137,6
30742,62137,3
30738,62148,5
30731,62136,5
30732,62143,4
30731,62143,5
30733,62137,5
30731,62150,5
30729,62137,5
30742,62136,4
30734,62143,5
30736,62128,5
30730,62138,5
30735,62146,5
30733,62139,4
30733,62133,5
30730,62138,5
30740,62145,5
30732,62131,5
30737,62136,4
30734,62133,5
30728,62144,6
30728,62140,4
30729,62142,4
30728,62130,4
30730,62137,5
30730,62139,5
30732,62138,5
30735,62129,4
30728,62135,5
30734,62133,5
30725,62139,5
30728,62124,5
30731,62129,4
30728,62133,5
30733,62128,5
30737,62139,5
30732,62136,5
30738,62128,4
30734,62130,5
30732,62128,5
30728,62137,5
30722,62121,5
30728,62126,4
30732,62129,5
30731,62131,5
30736,62133,6
30724,62134,3
30732,62128,4
30732,62143,5
30737,62136,5
30725,62123,5
30734,62135,4
30734,62129,5
30727,62138,5
30730,62133,5
30727,62134,5
30743,62139,4
30726,62127,5
30727,62133,5
30726,62124,5
30731,62131,5
30728,62127,4
30727,62126,5
30734,62123,5
30725,62132,5
30734,62130,5
30730,62134,5
30730,62124,4
30733,62121,5
30731,62127,5
30723,62132,6
30739,62135,3
30726,62130,5
30733,62133,5
30739,62133,5
30736,62141,4
30728,62141,5
30735,62133,5
30737,62137,5
30734,62140,5
30742,62142,4
30734,62139,5
30744,62137,5
30732,62141,5
30739,62145,5
30739,62151,4
30735,62148,5
30738,62140,5
30745,62143,5
30738,62154,5
30744,62144,4
30739,62141,6
30742,62137,4
30730,62137,5
30738,62144,4
30745,62142,4
30732,62141,5
30740,62138,5
30739,62144,5
30745,62142,4
30736,62150,5
30741,62150,5
30743,62143,5
30750,62148,5
30738,62146,4
30738,62138,5
30733,62148,5
30737,62145,5
30730,62138,5
30733,62141,4
30739,62140,5
30737,62129,5
30731,62142,5
30737,62136,5
30735,62139,4
30732,62143,5
30731,62134,6
30741,62138,4
30737,62130,4
30741,62138,5
30742,62132,5
30732,62132,5
30734,62138,5
30736,62132,4
30734,62130,5
30734,62138,5
30730,62141,5
30730,62139,5
30735,62130,4
30739,62143,5
30736,62134,5
30740,62136,5
30739,62141,5
30736,62135,4
30735,62141,5
30734,62140,5
30739,62135,5
30736,62133,5
30736,62136,4
30730,62134,5
30734,62136,5
30738,62137,6
30738,62141,3
30733,62134,5
30736,62137,5
30734,62134,5
30731,62135,5
30733,62144,4
30731,62138,5
30733,62132,5
30744,62139,5
30740,62142,5
30728,62141,4
30740,62139,5
30734,62144,5
30741,62140,5
30736,62139,5
30727,62145,4
30739,62150,5
30732,62138,5
30727,62145,5
30724,62140,5
30733,62126,5
30732,62138,4
30729,62137,5
30732,62135,5
30725,62130,4
30729,62133,5
30728,62128,5
30734,62129,5
30733,62131,5
30733,62131,4
30732,62134,5
30731,62128,5
30735,62135,5
30727,62149,5
30735,62151,4
30741,62146,5
30736,62145,5
30737,62147,5
30740,62141,5
30736,62144,4
30732,62152,5
30738,62144,5
30733,62151,5
30733,62146,5
30736,62140,4
30740,62141,6
30739,62136,4
30746,62150,5
30742,62146,4
30742,62144,5
30731,62147,5
30741,62150,5
30737,62145,5
30741,62144,4
30734,62136,5
30737,62137,5
30739,62149,5
30742,62150,5
30740,62151,8
30739,62144,1
30731,62140,5
30737,62145,5
30734,62141,5
30740,62146,4
30742,62147,5
30738,62140,5
30733,62137,5
30744,62151,4
30736,62151,4
30732,62139,5
30738,62150,6
30732,62142,4
30729,62148,4
30733,62132,5
30733,62136,5
30730,62133,5
30737,62125,5
30733,62126,4
30725,62127,5
30731,62122,5
30735,62123,5
30721,62119,5
30722,62122,4
30727,62112,5
30727,62116,5
30727,62105,5
30715,62092,5
30714,62090,4
30709,62087,5
30705,62082,5
30709,62088,5
30703,62078,5
30698,62075,4
30701,62064,5
30696,62051,5
30695,62045,5
30690,62037,4
30688,62032,5
30683,62041,5
30694,62033,5
30674,62032,5
30687,62030,4
30691,62044,5
30691,62049,5
30690,62052,5
30698,62042,5
30691,62038,4
30684,62026,5
30673,62013,5
30682,62021,5
30686,62023,5
30690,62029,4
30694,62040,5
30681,62033,5
30684,62026,5
30683,62008,4
30672,62016,5
30671,62015,4
30673,62011,5
30672,62000,5
30660,61967,4
30642,61936,5
30640,61913,5
30634,61908,5
30634,61920,5
30643,61939,4
30639,61932,5
30646,61942,5
30647,61940,5
30650,61938,5
30640,61930,4
30632,61917,5
30632,61912,5
30622,61894,5
30616,61885,5
30619,61873,4
30616,61865,5
30619,61870,5
30612,61871,5
30611,61849,4
30590,61828,4
30591,61797,6
30586,61790,4
30581,61783,5
30582,61798,4
30591,61809,5
30581,61797,5
30571,61778,5
30567,61742,5
30544,61692,4
30537,61672,5
30530,61675,5
30532,61681,5
30539,61697,5
30537,61702,4
30546,61711,5
30549,61710,5
30554,61713,5
30557,61711,5
30557,61725,4
30558,61727,5
30566,61736,5
30561,61751,6
30580,61774,3
30587,61804,5
30599,61813,5
30583,61799,5
30579,61785,5
30579,61792,4
30588,61793,5
30594,61811,5
30610,61841,5
30617,61866,5
30625,61897,4
30632,61907,5
30639,61930,5
30649,61938,5
30658,61948,5
30662,61956,4
30655,61964,5
30663,61967,5
30668,61964,5
30663,61967,5
30672,61981,5
30674,61975,4
30659,61984,5
30662,61980,5
30670,61983,6
30668,61991,3
30677,61998,5
30668,61997,5
30682,62005,5
30682,62020,4
30684,62024,5
30688,62020,5
30682,62030,5
30681,62043,5
30705,62039,4
30698,62037,5
30690,62040,5
30696,62035,5
30693,62032,5
30688,62042,4
30693,62041,5
30687,62043,5
30687,62042,5
30692,62036,5
30688,62043,4
30696,62043,6
30696,62044,4
30694,62050,5
30701,62054,4
30699,62056,7
30689,62056,3
30700,62062,5
30699,62060,5
30696,62056,4
30703,62061,5
30710,62060,5
30695,62064,5
30702,62064,5
30708,62069,4
30705,62072,5
30705,62071,5
30701,62058,5
30701,62065,5
30693,62052,4
30701,62056,5
30702,62060,5
30701,62063,5
30707,62056,4
30697,62061,4
30702,62060,5
30711,62068,6
30703,62075,4
30706,62069,4
30704,62081,5
30712,62077,5
30714,62085,5
30716,62082,5
30712,62083,4
30708,62084,5
30707,62068,5
30705,62077,5
30714,62080,5
30720,62066,4
30707,62074,5
30712,62083,5
30706,62075,5
30703,62075,5
30703,62074,4
30706,62076,5
30711,62079,5
30707,62075,5
30708,62071,5
30701,62077,4
30707,62084,5
30703,62084,5
30706,62074,56
30720,62086,5
30714,62079,1
30707,62071,5
30701,62101,5
30705,62107,5
30712,62081,4
30703,62074,5
30710,62076,5
30704,62089,5
30710,62075,4
30710,62083,6
30712,62091,4
30716,62091,5
30710,62089,5
30706,62094,6
30713,62090,3
30709,62090,5
30710,62086,5
30710,62095,5
30708,62082,4
30720,62076,5
30708,62092,5
30711,62088,5
30711,62082,5
30707,62092,4
30709,62092,5
30712,62081,5
30713,62087,10
30713,62080,9
30713,62080,5
30703,62054,8
30708,62074,5
30716,62095,5
30740,62090,8
30726,62097,5
30694,62088,5
30709,62083,5
30702,62087,8
30713,62096,5
30719,62090,5
30706,62095,8
30706,62095,5
30698,62045,5
30714,62076,10
30718,62079,9
30713,62084,5
30707,62094,8
30707,62094,5
30690,62088,5
30700,62095,8
30711,62087,5
30708,62098,5
30712,62098,5
30705,62099,8
30715,62091,5
30723,62100,5
30732,62113,8
30729,62115,5
30706,62101,5
30713,62101,8
30713,62101,5
30711,62105,5
30718,62102,5
30711,62120,8
30721,62111,5
30720,62099,5
30716,62100,8
30727,62105,5
30738,62106,5
30715,62105,5
30714,62089,8
30708,62107,5
30724,62104,5
30710,62105,8
30710,62105,5
30712,62111,5
30712,62090,5
30716,62087,8
30722,62103,5
30718,62101,5
30709,62105,8
30690,62099,5
30704,62104,5
30713,62102,8
30716,62104,5
30707,62098,5
30725,62104,5
30712,62102,8
30712,62102,5
30716,62100,5
30717,62106,8
30720,62106,5
30721,62105,5
30703,62095,5
30715,62099,8
30721,62115,5
30713,62119,5
30722,62088,8
30718,62100,5
30714,62096,5
30705,62104,8
30705,62104,5
30721,62113,5
30703,62096,5
30711,62094,8
30712,62095,5
30710,62104,5
30715,62122,8
30710,62101,5
30710,62082,5
30727,62111,5
30708,62103,8
30708,62103,5
30716,62098,5
30710,62099,8
30711,62092,5
30707,62099,5
30712,62101,8
30725,62103,5
30713,62109,5
30710,62048,10
30716,62108,9
30716,62108,5
30715,62104,8
30716,62100,5
30713,62095,5
30682,62099,8
30703,62108,5
30720,62100,5
30717,62098,5
30713,62104,8
30719,62085,5
30714,62098,5
30714,62097,8
30714,62097,5
30717,62100,5
30720,62105,5
30721,62100,8
30706,62099,5
30716,62103,5
30712,62121,8
30710,62120,5
30712,62106,5
30714,62093,8
30721,62100,5
30713,62093,5
30713,62093,2
30718,62092,2
30718,62092,3
30714,62099,5
30713,62094,5
30709,62097,5
30707,62094,4
30719,62101,5
30714,62095,5
30707,62088,5
30710,62086,5
30718,62094,4
30711,62096,5
30713,62085,5
30708,62099,5
30710,62100,4
30709,62096,4
30704,62095,5
30708,62089,5
30718,62099,5
30711,62100,4
30713,62086,5
30709,62090,5
30712,62098,5
30717,62087,5
30703,62098,4
30715,62103,6
30716,62105,4
30708,62099,5
30714,62092,5
30712,62101,4
30713,62092,7
30712,62101,3
30706,62086,5
30705,62091,5
30708,62093,4
30707,62088,5
30709,62093,5
30713,62087,5
30712,62103,4
30711,62098,4
30724,62098,5
30716,62092,5
30706,62096,5
30714,62097,4
30711,62093,5
30703,62099,5
30711,62097,5
30720,62087,5
30705,62090,4
30706,62097,5
30707,62082,6
30707,62083,4
30712,62097,5
30704,62091,4
30703,62089,5
30706,62092,5
30704,62089,5
30716,62093,5
30717,62103,4
30717,62094,5
30712,62097,5
30721,62098,5
30711,62100,4
30723,62108,5
30720,62108,5
30719,62104,5
30715,62108,5
30718,62109,4
30709,62097,5
30715,62109,5
30720,62106,5
30716,62100,5
30714,62101,4
30725,62095,5
30713,62106,5
30719,62098,5
30713,62108,5
30713,62102,4
30719,62106,5
30721,62107,5
30719,62101,5
30717,62108,5
30712,62097,4
30708,62105,5
30718,62103,5
30722,62099,5
30710,62094,4
30711,62092,5
30716,62100,5
30712,62102,5
30716,62109,5
30713,62101,4
30720,62091,6
30706,62098,4
30715,62091,5
30711,62094,5
30716,62099,6
30716,62096,3
30712,62110,5
30720,62104,5
30720,62102,5
30717,62104,4
30719,62096,5
30718,62106,5
30720,62087,5
30710,62107,4
30708,62097,4
30712,62103,5
30714,62092,5
30710,62088,5
30715,62089,4
30718,62097,5
30711,62092,5
30710,62096,5
30716,62089,5
30715,62100,4
30715,62090,5
30713,62102,6
30715,62102,4
30713,62108,5
30718,62102,4
30718,62098,5
30716,62103,5
30710,62098,5
30719,62104,5
30710,62094,4
30720,62099,5
30713,62088,5
30709,62100,5
30718,62092,4
30713,62097,4
30713,62106,5
30719,62098,5
30716,62104,5
30713,62105,4
30718,62105,5
30722,62107,5
30718,62101,5
30720,62102,5
30715,62110,4
30721,62106,5
30715,62096,5
30719,62097,6
30717,62104,4
30720,62110,4
30711,62103,5
30716,62095,5
30720,62096,5
30721,62101,5
30718,62108,4
30712,62107,5
30718,62105,5
30710,62108,5
30716,62107,4
30717,62111,4
30714,62101,5
30719,62107,5
30717,62107,5
30717,62115,4
30725,62113,5
30723,62109,5
30724,62117,5
30724,62119,5
30727,62116,5
30718,62119,4
30725,62120,5
30719,62124,5
30727,62122,6
30723,62120,3
30723,62116,5
30728,62113,5
30722,62117,5
30724,62112,5
30720,62106,4
30727,62108,5
30722,62106,5
30715,62113,5
30713,62105,4
30716,62112,4
30710,62112,5
30714,62114,5
30716,62122,5
30723,62119,4
30724,62117,5
30716,62115,5
30718,62107,5
30711,62115,5
30723,62108,4
30719,62117,6
30715,62118,4
30717,62111,5
30715,62105,5
30712,62096,4
30725,62103,5
30716,62109,5
30719,62100,5
30710,62108,5
30717,62114,4
30729,62098,5
30725,62109,5
30731,62111,5
30717,62112,4
30716,62107,5
30721,62111,5
30716,62108,5
30716,62111,5
30718,62111,4
30714,62109,5
30721,62111,5
30718,62115,5
30725,62109,5
30718,62116,4
30725,62119,5
30728,62118,6
30721,62110,4
30717,62107,5
30726,62111,4
30711,62113,5
30714,62097,5
30724,62114,5
30715,62107,5
30718,62104,4
30716,62108,5
30720,62103,5
30712,62115,5
30724,62106,4
30712,62112,5
30720,62113,5
30726,62107,5
30717,62107,5
30715,62118,4
30722,62108,5
30716,62118,5
30719,62109,5
30723,62111,5
30718,62107,4
30723,62108,5
30725,62110,5
30720,62106,6
30718,62103,4
30717,62105,4
30715,62100,5
30720,62102,5
30714,62100,5
30727,62107,5
30715,62109,4
30709,62113,5
30719,62114,5
30717,62099,5
30715,62103,4
30710,62103,5
30712,62111,5
30716,62104,5
30721,62100,5
30724,62108,4
30722,62104,5
30715,62117,5
30720,62110,5
30728,62116,5
30722,62111,5
30726,62109,4
30715,62109,5
30728,62120,5
30725,62110,5
30716,62117,4
30722,62107,5
30720,62112,5
30715,62108,5
30715,62117,5
30710,62115,4
30727,62111,5
30717,62114,5
30720,62107,5
30723,62109,4
30721,62113,5
30718,62108,5
30725,62113,5
30721,62113,5
30712,62111,4
30723,62105,5
30714,62103,5
30722,62111,5
30718,62114,5
30717,62109,4
30718,62112,6
30723,62101,4
30717,62102,5
30717,62110,5
30714,62108,4
30719,62109,5
30714,62102,5
30719,62109,5
30714,62100,5
30723,62102,4
30708,62103,5
30716,62095,5
30723,62100,5
30718,62103,4
30721,62095,5
30718,62111,5
30715,62110,5
30720,62105,5
30714,62100,4
30718,62102,5
30714,62109,5
30709,62103,5
30716,62099,5
30716,62105,4
30712,62105,5
30718,62105,6
30712,62100,4
30711,62109,5
30714,62108,4
30716,62115,5
30713,62111,5
30718,62100,5
30723,62101,5
30712,62121,4
30712,62111,5
30718,62112,5
30720,62105,5
30716,62108,4
30712,62103,5
30708,62110,5
30712,62098,5
30713,62102,5
