RED,IR,EKG,TIME
59309,114089,9
59298,114074,5
59290,114068,5
59278,114072,8
59283,114021,5
59272,114019,5
59271,114019,8
59267,114023,5
59276,114032,5
59264,114037,5
59285,114067,8
59294,114090,5
59320,114113,5
59285,114066,8
59285,114066,5
59271,114003,5
59246,113958,5
59399,114247,8
59242,113970,5
59251,113986,5
59213,113980,8
59220,113987,5
59248,113983,5
59247,113986,8
59247,114001,5
59254,114003,5
59264,114004,5
59277,114039,8
59277,114039,5
59276,114050,5
59296,114045,8
59299,114054,5
59294,114062,5
59299,114072,5
59303,114077,8
59325,114113,5
59318,114107,5
59332,114093,8
59339,114113,5
59325,114116,5
59350,114155,8
59350,114155,5
59355,114136,5
59332,114134,5
59295,114125,8
59346,114116,5
59331,114119,5
59334,114115,8
59310,114088,5
59327,114077,5
59313,114088,5
59293,114038,8
59293,114038,5
59340,114049,5
59282,114049,8
59283,114049,5
59285,114036,5
59320,114032,8
59282,114045,5
59285,114042,5
59292,114026,5
59309,114080,8
59306,114074,5
59313,114083,5
59329,114097,13
59318,114054,5
59335,114115,5
59325,114124,8
59348,114129,5
59338,114108,5
59340,114141,8
59351,114155,5
59348,114150,5
59358,114157,5
59361,114170,8
59345,114168,5
59357,114154,5
59317,114163,8
59317,114163,5
59340,114115,5
59315,114099,8
59285,114094,5
59293,114116,5
59300,114094,5
59295,114101,8
59296,114100,5
59291,114101,5
59283,114060,8
59272,114042,5
59269,114049,5
59350,114205,8
59350,114205,5
59361,114261,5
59375,114289,5
59421,114312,8
59436,114348,5
59449,114370,5
59444,114369,8
59444,114366,5
59441,114377,5
59431,114353,5
59421,114310,7
59375,114266,1
59363,114224,4
59343,114167,6
59306,114106,4
59266,114065,5
59267,114086,4
59299,114114,5
59328,114179,5
59367,114252,5
59401,114300,5
59410,114311,4
59423,114329,5
59403,114282,5
59376,114240,5
59372,114230,5
59383,114277,4
59414,114299,5
59417,114295,5
59431,114322,5
59445,114357,4
59433,114313,5
59402,114264,5
59400,114285,5
59442,114355,5
59454,114356,4
59433,114300,5
59406,114263,5
59400,114266,6
59415,114290,4
59429,114326,4
59448,114358,5
59454,114364,5
59450,114328,5
59401,114228,5
59280,114017,4
59160,113850,5
59136,113831,5
59169,113902,5
59237,114021,4
59319,114173,4
59372,114212,5
59295,114014,5
59066,113581,5
58807,113126,4
58692,113017,5
58788,113222,5
58921,113426,5
58963,113448,5
58817,113147,5
58626,112795,4
58493,112555,5
58401,112441,5
58427,112533,5
58562,112822,4
58738,113092,5
58761,113074,5
58601,112679,5
58257,112078,5
58049,111792,4
58048,111834,5
58138,111995,5
58237,112158,5
58286,112216,4
58258,112123,4
58190,111994,5
58072,111779,5
57906,111491,5
57849,111449,4
57895,111527,5
57939,111586,5
57890,111557,5
57972,111671,5
58088,111903,4
58163,111987,6
58111,111978,4
58144,111960,5
58132,111953,5
58141,111954,4
58144,112021,5
58254,112204,5
58395,112467,5
58571,112776,5
58734,112981,4
58692,112926,5
58674,112857,5
58664,112895,5
58753,112959,4
58758,113054,4
58835,113186,5
58921,113359,5
59034,113492,5
59066,113614,4
59125,113712,5
59172,113776,5
59197,113805,5
59204,113832,5
59230,113878,4
59250,113911,5
59275,113922,6
59285,113953,4
59301,113974,5
59303,114000,4
59322,113956,5
59330,114009,5
59333,114017,5
59340,114025,5
59342,113997,4
59348,114044,5
59372,114067,5
59390,114090,5
59406,114114,4
59414,114143,4
59429,114167,5
59432,114183,5
59448,114233,5
59467,114225,4
59476,114235,5
59477,114255,5
59496,114322,5
59498,114275,5
59509,114293,4
59516,114303,5
59509,114336,5
59517,114302,5
59518,114297,5
59530,114322,4
59530,114317,5
59520,114309,5
59516,114320,5
59516,114303,5
59500,114291,4
59506,114286,5
59503,114291,5
59499,114272,5
59488,114267,4
59485,114262,4
59494,114259,5
59489,114256,5
59491,114259,5
59493,114269,4
59492,114259,5
59491,114265,4
59487,114256,5
59491,114266,5
59489,114281,6
59496,114276,3
59501,114282,5
59514,114288,5
59504,114300,5
59520,114298,4
59513,114315,5
59516,114315,5
59532,114321,5
59532,114330,5
59537,114343,4
59543,114360,5
59538,114356,5
59542,114342,5
59537,114349,4
59536,114338,5
59527,114328,5
59521,114311,5
59520,114289,5
59502,114268,4
59483,114244,5
59464,114226,6
59451,114195,4
59437,114178,5
59432,114161,4
59416,114123,7
59372,114059,3
59332,114006,5
59308,113948,5
59296,113932,4
59280,113923,5
59251,113826,5
59189,113731,5
59113,113605,5
59066,113544,4
59036,113489,5
58996,113391,5
58883,113184,5
58812,113079,4
58759,112958,5
58624,112679,5
58446,112369,5
58316,112166,5
58273,112097,4
58256,112101,5
58174,111811,5
57846,111208,6
57577,110763,4
57409,110481,4
57399,110497,5
57484,110695,5
57605,110866,5
57628,110903,5
57621,110859,4
57479,110587,5
57335,110358,5
57320,110366,5
57370,110483,5
57500,110729,4
57604,110873,5
57577,110780,5
57484,110633,5
57410,110474,4
57353,110398,5
57394,110513,5
57484,110656,5
57514,110686,5
57511,110723,5
57547,110734,4
57498,110628,5
57389,110473,5
57348,110476,6
57406,110519,3
57407,110490,5
57357,110420,5
57277,110339,5
57318,110373,5
57373,110457,4
57408,110507,5
57388,110481,5
57394,110487,5
57429,110581,5
57491,110675,4
57568,110760,5
57559,110766,5
57572,110798,5
57603,110871,4
57698,110960,5
57698,111049,5
57734,111084,5
57723,111077,5
57793,111152,4
57841,111297,6
57889,111379,4
57960,111506,5
58044,111621,5
58101,111752,6
58184,111882,3
58253,112007,5
58328,112128,5
58391,112244,5
58438,112336,4
58504,112436,5
58550,112482,5
58591,112584,5
58622,112638,5
58638,112679,4
58672,112670,5
58686,112735,5
58690,112750,5
58710,112775,4
58719,112788,5
58733,112829,5
58760,112841,5
58775,112884,5
58790,112942,4
58811,112939,5
58827,112958,6
58815,112944,4
58822,113006,5
58840,112984,4
58855,113013,5
58866,113027,5
58879,113077,5
58887,113048,5
58885,113042,4
58886,113062,5
58880,113054,5
58857,112992,5
58841,112981,5
58843,112974,4
58827,112971,5
58830,112965,5
58832,112965,5
58836,112967,4
58830,112957,5
58839,112977,5
58838,112971,5
58840,112978,5
58833,112978,4
58843,112980,5
58847,112977,5
58849,112984,6
58865,112983,4
58855,113000,4
58866,113002,5
58856,113002,5
58861,113017,5
58867,113015,5
58882,113023,4
58884,113032,5
58883,113036,5
58893,113034,5
58893,113041,5
58897,113049,4
58899,113059,5
58902,113069,5
58906,113046,5
58901,113072,4
58907,113071,5
58906,113061,5
58906,113066,5
58914,113073,5
58901,113050,5
58892,113037,4
58887,113024,5
58872,113014,5
58879,112996,6
58859,112995,3
58858,112982,5
58849,112962,5
58843,112967,5
58841,112954,5
58838,112959,4
58839,112973,5
58843,112956,5
58835,112946,5
58820,112937,5
58822,112936,4
58821,112924,5
58813,112926,5
58808,112909,5
58814,112919,4
58804,112908,5
58815,112911,5
58814,112903,5
58818,112919,5
58824,112916,4
58826,112931,6
58828,112942,4
58830,112950,5
58841,112954,5
58831,112950,4
58825,112932,5
58825,112936,5
58812,112911,5
58806,112906,5
58803,112894,4
58787,112879,5
58784,112857,5
58767,112834,5
58753,112832,5
58755,112845,4
58756,112829,5
58753,112829,5
58750,112819,5
58738,112825,4
58742,112821,5
58750,112823,5
58765,112862,5
58797,112902,5
58796,112928,4
58810,112939,5
58823,112959,6
58829,112963,4
58825,112953,5
58785,112948,4
58814,112933,5
58781,112896,5
58778,112874,5
58727,112869,5
58767,112859,4
58764,112859,5
58769,112860,5
58760,112862,5
58760,112860,5
58772,112874,8
58778,112888,1
58816,112893,5
58795,112892,5
58775,112881,4
58793,112900,4
58843,112907,5
58795,112915,5
58799,112912,5
58802,112924,4
58842,112929,5
58823,112940,5
58835,112962,6
58827,112964,4
58858,112985,4
58851,112990,5
58852,112997,5
58865,112999,5
58863,113008,5
58869,113021,4
58876,113030,5
58878,113039,5
58888,113014,5
58900,113066,5
58915,113092,4
58910,113081,5
58922,113048,5
58919,113095,5
58909,113085,4
58920,113078,5
58905,113073,5
58908,113072,5
58895,113059,5
58892,113055,5
58892,113071,4
58894,113048,5
58886,113034,5
58877,113025,5
58870,113080,4
58877,113019,5
58868,113018,5
58867,113013,5
58872,113055,5
58871,113021,4
58866,113016,5
58875,113027,5
58882,113032,5
58875,113033,5
58880,113044,4
58886,113045,5
58890,113055,5
58889,113068,5
58891,113066,4
58911,113079,5
58912,113084,5
58919,113090,5
58917,113089,5
58915,113098,4
58924,113105,6
58920,113104,4
58915,113095,5
58908,113088,5
58904,113072,4
58886,113056,5
58878,113035,5
58857,113009,5
58848,112993,5
58837,112967,4
58826,112957,5
58824,112957,5
58821,112971,5
58818,112971,5
58823,112959,4
58824,112967,5
58815,112957,5
58830,112968,5
58841,113000,4
58862,113035,5
58881,113061,5
58874,113060,5
58896,113067,5
58897,113088,4
58898,113077,5
58884,113050,6
58873,113040,4
58867,113031,5
58842,112974,4
58817,112951,5
58822,112945,5
58814,112950,5
58809,112939,5
58811,112936,4
58812,112940,5
58825,112941,5
58816,112948,5
58818,112958,5
58822,112953,4
58830,112969,5
58836,112959,5
58841,112974,5
58846,112981,4
58846,112977,5
58852,112992,5
58852,112990,5
58850,112994,5
58854,112986,4
58857,112999,5
58863,112993,5
58865,113010,5
58862,113013,5
58871,113013,4
58876,113017,5
58877,113023,5
58887,113037,5
58885,113045,5
58899,113064,4
58903,113064,5
58902,113068,5
58905,113070,5
58909,113066,5
58905,113067,4
58909,113069,5
58900,113065,5
58900,113060,5
58897,113048,4
58895,113058,6
58904,113059,4
58896,113056,5
58899,113046,5
58882,113042,5
58898,113038,3
58877,113034,5
58880,113036,5
58885,113039,5
58886,113032,4
58850,113026,5
58881,113024,5
58875,113031,5
58880,113019,5
58842,113028,4
58889,113029,5
58881,113036,5
58884,113030,5
58863,113040,5
58891,113056,4
58897,113060,5
58907,113070,5
58930,113087,5
58908,113080,4
58911,113081,5
58920,113088,6
58965,113084,4
58921,113093,5
58930,113101,4
58918,113115,7
58972,113112,3
58928,113110,5
58936,113113,5
58924,113111,4
58939,113101,5
58930,113103,5
58914,113101,5
58921,113103,5
58923,113076,4
58917,113093,5
58917,113092,5
58908,113082,5
58909,113054,5
58901,113083,4
58894,113075,5
58894,113067,5
58880,113002,5
58877,113033,4
58854,113016,5
58851,112987,5
58841,112956,6
58820,112942,4
58802,112930,4
58789,112909,5
58780,112921,5
58768,112872,5
58759,112845,5
58736,112826,4
58741,112873,5
58746,112832,5
58755,112860,5
58774,112865,5
58792,112934,4
58808,112929,5
58817,112968,5
58838,112972,5
58846,113003,5
58855,113003,4
58851,112991,5
58837,112973,5
58829,112961,5
58815,112940,5
58797,112887,4
58773,112875,5
58773,112873,5
58762,112875,6
58767,112863,3
58766,112859,5
58767,112854,5
58768,112862,5
58774,112864,5
58772,112867,4
58772,112887,5
58786,112888,5
58781,112897,5
58785,112898,5
58799,112902,4
58791,112910,5
58796,112909,5
58808,112926,5
58801,112919,5
58808,112930,4
58823,112941,5
58833,112948,5
58840,112972,5
58846,112978,4
58848,112989,5
58853,112994,4
58865,113001,5
58874,113012,5
58872,113011,6
58881,113030,3
58882,113029,5
58884,113035,5
58892,113054,5
58897,113061,4
58894,113043,5
58901,113055,5
58900,113052,5
58895,113030,5
58886,113030,4
58882,113026,5
58872,112998,5
58864,113005,5
58860,112995,5
58857,112989,4
58852,112987,5
58860,112992,5
58850,112990,5
58860,112994,4
58860,112998,4
58859,113003,6
58854,113001,4
58855,112999,5
58859,112994,4
58857,112991,5
58852,112996,5
58863,113001,5
58850,112994,5
58860,112995,4
58857,112992,5
58861,112992,5
58856,112993,5
58861,112995,5
58862,113020,4
58869,113009,5
58871,113023,5
58867,113020,5
58882,113040,5
58889,113049,4
58888,113063,5
58896,113078,5
58904,113092,5
58914,113094,4
58917,113104,4
58911,113107,5
58922,113127,6
58916,113114,4
58918,113112,4
58924,113144,5
58929,113164,5
58945,113179,5
58958,113205,5
58982,113238,4
58996,113266,5
58981,113265,5
59008,113290,5
59017,113305,5
59029,113321,4
58988,113332,5
59019,113316,5
59019,113314,5
59022,113303,5
58962,113264,4
58965,113220,5
58954,113205,5
58948,113217,5
58992,113275,5
59018,113324,4
59027,113350,5
59033,113360,5
59056,113324,6
58984,113260,3
58950,113214,5
58913,113166,5
58926,113083,5
58805,112935,5
58746,112830,4
58691,112775,5
58705,112765,5
58689,112777,5
58701,112808,5
58749,112898,4
58818,113005,5
58877,113105,5
58909,113137,5
58841,113025,5
58787,112895,4
58785,112946,5
58803,112979,5
58848,113038,5
58899,113067,4
58926,113161,5
58956,113240,4
58996,113294,5
59025,113302,5
59037,113356,4
59058,113403,5
59085,113441,5
59112,113509,5
59141,113528,5
59175,113582,4
59205,113639,5
59240,113745,5
59261,113729,5
59279,113774,5
59303,113806,4
59318,113884,5
59350,113887,5
59363,113902,5
59382,113938,5
59400,113981,4
59413,113984,5
59432,113994,5
59442,114016,5
59454,114046,4
59466,114054,4
59466,114062,6
59476,114078,4
59491,114097,5
59498,114096,4
59498,114101,5
59495,114109,5
59498,114106,5
59503,114109,5
59501,114103,4
59493,114088,5
59486,114081,5
59485,114063,5
59485,114069,5
59471,114054,4
59478,114054,5
59480,114072,5
59480,114082,5
59501,114093,5
59501,114109,4
59510,114111,5
59498,114108,5
59510,114113,5
59512,114118,4
59505,114113,5
59506,114107,5
59499,114098,6
59500,114102,4
59503,114113,4
59512,114109,5
59517,114121,5
59508,114110,5
59507,114093,5
59502,114094,4
59494,114079,5
59492,114077,5
59474,114064,5
59473,114045,5
59454,114025,4
59448,114003,5
59421,113975,5
59418,113959,5
59403,113937,5
59382,113900,4
59345,113848,5
59299,113779,5
59233,113667,5
59167,113542,5
59120,113476,4
59109,113480,5
59133,113507,5
59154,113539,5
59143,113539,4
59111,113441,5
59022,113284,5
58919,113122,5
58856,113029,5
58809,112911,4
58727,112770,5
58630,112584,5
58521,112416,5
58487,112369,5
58496,112398,4
58473,112315,5
58363,112096,5
58232,111822,5
58068,111539,5
57952,111375,4
57945,111379,5
57960,111375,5
57882,111244,5
57838,111178,4
57850,111187,6
57747,110903,4
57439,110370,5
57250,110139,5
57236,110121,4
57198,110023,8
57225,110126,2
57358,110356,5
57401,110338,5
57263,110125,4
57238,110125,5
57258,110148,5
57289,110269,5
57432,110448,5
57463,110482,4
57410,110355,5
57323,110303,5
57388,110380,5
57518,110625,5
57646,110817,4
57520,110570,5
57347,110215,5
57247,110134,5
57333,110308,4
57403,110381,5
57406,110366,6
57330,110194,4
57051,109599,5
56766,109106,4
56659,109066,5
56716,109165,5
56802,109305,5
56898,109377,5
56880,109438,4
56947,109552,5
57013,109652,5
57026,109613,5
56951,109507,5
56899,109491,4
56992,109664,5
57058,109716,5
57058,109741,5
57025,109663,5
56994,109616,4
56969,109551,5
56907,109398,5
56729,109083,5
56618,108922,4
56654,108997,5
56766,109259,5
56911,109510,5
56982,109620,5
56981,109561,4
56936,109511,5
56807,109219,5
56550,108718,5
56316,108384,5
56298,108422,4
56470,108765,5
56710,109196,5
56860,109450,5
56898,109442,5
56878,109420,4
56868,109378,5
56805,109350,5
56839,109413,5
56903,109485,5
56904,109462,4
56816,109320,4
56717,109106,5
56637,108981,5
56675,109116,6
56801,109340,3
56912,109545,5
57005,109637,5
56823,109206,5
56556,108784,4
56464,108682,5
56423,108616,5
56412,108594,5
56447,108693,5
56484,108685,4
56404,108567,5
56405,108557,5
56387,108504,5
56371,108532,5
56453,108698,4
56483,108687,5
56381,108494,5
56232,108162,5
55975,107731,5
55925,107732,4
56043,107940,6
56183,108214,4
56388,108584,5
56448,108566,4
56366,108420,6
56268,108237,3
56185,108121,5
56127,108052,5
56171,108162,4
56326,108467,5
56422,108576,5
56361,108391,5
56241,108210,5
56226,108238,4
56347,108500,5
56507,108732,5
56510,108740,5
56549,108810,5
56567,108823,4
56531,108777,5
56542,108802,5
56592,108910,5
56666,109064,5
56774,109248,4
56885,109446,5
56995,109645,6
57101,109827,4
57177,109943,4
57228,110019,4
57256,110074,5
57275,110109,5
57287,110131,5
57324,110199,4
57384,110328,5
57476,110455,5
57544,110594,5
57630,110740,5
57710,110868,4
57767,110942,5
57765,110919,5
57734,110882,5
57713,110845,5
57709,110850,4
57718,110863,5
57725,110898,5
57766,110958,5
57798,110999,5
57821,111052,4
57851,111103,5
57883,111133,5
57912,111182,6
57928,111225,3
57949,111273,4
57979,111302,5
57995,111333,5
58011,111357,5
58017,111371,4
58034,111395,5
58046,111405,5
58047,111407,5
58068,111440,5
58077,111457,4
58095,111491,5
58102,111498,5
58105,111503,5
58079,111493,5
58092,111487,4
58083,111484,5
58079,111472,5
58027,111425,5
58043,111393,5
58035,111405,5
58042,111401,4
58009,111419,5
58059,111430,5
58056,111427,6
58066,111431,3
58075,111440,5
58069,111434,5
58075,111440,5
58075,111447,4
58115,111457,5
58089,111476,5
58092,111485,5
58102,111489,5
58167,111496,4
58121,111506,5
58125,111530,5
58135,111544,5
58171,111555,5
58148,111577,4
58161,111580,5
58176,111614,5
58184,111619,5
58174,111635,5
58191,111643,4
58206,111657,6
58213,111639,4
58211,111660,5
58218,111687,4
58237,111698,4
58230,111652,5
58221,111704,5
58237,111712,5
58223,111700,4
58222,111659,5
58220,111696,5
58228,111693,5
58222,111686,5
58211,111695,4
58208,111679,5
58198,111677,5
58204,111674,5
58200,111707,5
58205,111690,4
58198,111687,5
58198,111675,5
58201,111740,5
58206,111704,5
58204,111697,4
58198,111699,5
58207,111742,6
58184,111679,4
58163,111644,4
58151,111634,5
58104,111516,5
58009,111339,5
57950,111251,5
57924,111240,4
57916,111219,5
57873,111133,5
57759,110911,5
57663,110792,5
57639,110739,4
57610,110702,5
57538,110523,5
57318,110105,5
57123,109809,5
57096,109810,4
57011,109533,5
56719,108983,5
56439,108529,5
56344,108420,5
56373,108509,4
56486,108714,5
56627,108989,5
56785,109270,6
56935,109479,3
56907,109350,5
56722,109005,5
56597,108822,5
56582,108829,5
56645,108937,4
56786,109221,5
56981,109586,5
57109,109738,5
57073,109662,5
57046,109674,4
57095,109751,5
57085,109692,5
57071,109691,5
57069,109672,5
57032,109577,4
56958,109431,5
56903,109376,5
56929,109412,5
56967,109503,5
57046,109631,5
57130,109793,4
57201,109922,5
57291,110085,5
57346,110149,4
57348,110102,5
57233,109897,5
57094,109629,5
56983,109497,5
57015,109599,4
57132,109828,5
57330,110191,5
57499,110413,5
57454,110294,5
57359,110111,4
57276,109983,5
57254,110003,5
57326,110145,5
57445,110351,5
57485,110355,4
57337,110048,5
57205,109882,5
57222,109940,5
57299,110094,5
57416,110310,4
57567,110570,6
57685,110797,4
57765,110887,5
57724,110806,4
57669,110729,5
57662,110720,5
57693,110779,5
57743,110881,5
57783,110923,4
57776,110919,5
57790,110980,5
57830,111049,5
57872,111126,5
57882,111139,4
57893,111155,5
57921,111198,5
57968,111286,5
58029,111412,5
58089,111543,4
58175,111667,5
58223,111750,5
58244,111767,5
58190,111727,5
58199,111691,4
58210,111706,5
58200,111715,6
58191,111750,4
58250,111793,4
58272,111831,5
58287,111863,5
58310,111920,5
58352,111987,5
58390,112053,4
58424,112105,5
58485,112159,5
58462,112146,5
58429,112085,5
58406,112034,4
58432,112011,5
58380,112015,5
58363,111991,5
58357,111979,5
58389,111993,4
58387,112025,5
58398,112046,5
58403,112066,5
58426,112100,5
58427,112110,4
58446,112139,5
58453,112152,5
58475,112158,5
58474,112160,4
58452,112141,5
58454,112131,5
58455,112100,5
58462,112158,5
58460,112163,4
58479,112190,5
58493,112169,5
58501,112218,5
58495,112210,5
58484,112195,4
58486,112173,5
58475,112168,5
58474,112190,5
58470,112158,5
58419,112102,4
58367,111979,5
58353,111962,5
58355,111987,5
58381,112069,5
58393,112035,5
58383,112016,4
58384,112013,5
58371,111996,5
58320,111898,4
58290,111852,4
58256,111790,5
58228,111750,5
58218,111720,5
58208,111697,4
58121,111505,5
57904,111104,5
57701,110771,5
57570,110565,5
57523,110536,4
57577,110642,5
57670,110841,5
57795,111046,5
57844,111038,5
57702,110739,4
57507,110417,5
57424,110339,5
57476,110481,5
57608,110700,5
57752,110946,4
57844,111111,6
57905,111213,4
57912,111197,5
57902,111191,4
57838,111015,4
57685,110754,5
57580,110607,5
57562,110619,5
57624,110734,4
57723,110902,5
57799,111041,5
57896,111225,5
57951,111310,5
57979,111361,4
58022,111441,5
58059,111508,5
58083,111508,5
58020,111401,5
57976,111341,4
57977,111344,5
57993,111387,5
58024,111454,5
58075,111541,5
58123,111624,4
58175,111711,5
58219,111809,5
58282,111921,5
58336,111984,4
58349,112000,4
58355,112020,5
58395,112063,5
58397,112095,5
58407,112113,4
58427,112146,5
58455,112180,5
58455,112184,5
58453,112188,5
58478,112216,4
58495,112256,5
58502,112272,5
58521,112292,5
58530,112311,5
58538,112310,9
58549,112333,0
58557,112363,5
58559,112373,5
58578,112371,5
58594,112403,3
58608,112407,5
58604,112419,5
58599,112423,5
58604,112412,4
58603,112400,4
58589,112390,5
58590,112375,5
58587,112363,5
58578,112354,4
58571,112341,5
58576,112346,5
58570,112351,5
58564,112373,5
58569,112363,4
58583,112376,5
58580,112384,5
58592,112386,5
58587,112402,5
58596,112400,4
58601,112417,6
58610,112425,4
58620,112438,5
58620,112433,5
58590,112448,6
58623,112438,3
58615,112443,5
58616,112438,5
58578,112433,4
58620,112433,4
58615,112426,5
58607,112417,5
58573,112402,5
58597,112395,4
58596,112398,5
58588,112389,5
58598,112382,5
58592,112390,5
58587,112386,4
58588,112382,5
58632,112378,5
58586,112377,5
58582,112387,5
58589,112387,4
58622,112385,5
58578,112391,6
58585,112387,4
58597,112384,5
58602,112394,4
58594,112406,5
58592,112395,5
58600,112398,5
58597,112393,4
58595,112392,4
58597,112400,5
58596,112395,5
58590,112347,5
58594,112392,4
58586,112376,5
58582,112367,5
58565,112314,5
58562,112341,5
58542,112317,4
58529,112292,5
58516,112234,5
58496,112235,5
58476,112211,5
58464,112192,4
58452,112185,5
58439,112150,5
58427,112147,6
58424,112136,4
58418,112177,4
58412,112104,5
58399,112091,5
58392,112071,5
58389,112113,4
58405,112115,4
58431,112134,5
58439,112161,5
58447,112186,5
58455,112181,4
58464,112188,5
58447,112168,5
58437,112145,5
58419,112133,5
58406,112087,4
58367,112042,5
58357,112005,5
58348,112006,5
58353,112007,5
58347,112012,5
58345,112014,4
58355,112018,5
58352,112015,5
58348,112018,6
58360,112028,3
58368,112035,5
58371,112022,5
58372,112048,5
58379,112041,4
58376,112049,4
58384,112050,5
58390,112058,5
58388,112072,5
58394,112075,4
58402,112079,5
58393,112076,5
58403,112078,5
58399,112091,5
58413,112089,4
58411,112099,5
58410,112101,5
58416,112109,5
58418,112107,5
58422,112120,4
58422,112118,6
58417,112117,4
58417,112114,5
58430,112125,5
58419,112126,4
58419,112131,5
58427,112112,5
58422,112107,5
58416,112095,4
58415,112107,4
58412,112088,5
58405,112074,5
58397,112075,5
58394,112060,4
58386,112053,5
58367,112029,5
58371,112029,5
58355,112022,5
58362,112023,4
58351,112006,5
58358,112002,5
58350,112000,5
58352,112007,5
58353,112008,4
58347,112015,5
58355,112015,6
58350,112021,4
58359,112025,5
58359,112021,4
58366,112028,5
58370,112032,5
58370,112023,5
58362,112038,4
58370,112037,4
58376,112046,5
58386,112053,5
58382,112067,5
58382,112064,4
58397,112058,5
58393,112072,5
58399,112076,5
58409,112098,5
58398,112093,4
58403,112094,5
58407,112105,5
58425,112111,5
58425,112131,5
58424,112138,4
58438,112163,5
58440,112164,5
58449,112171,6
58460,112182,4
58454,112197,4
58441,112207,5
58465,112225,5
58485,112235,5
58490,112247,4
58456,112268,5
58503,112265,5
58504,112275,5
58499,112280,5
58469,112269,4
58495,112259,5
58494,112260,5
58497,112266,5
58507,112268,5
58493,112265,4
58503,112269,5
58505,112273,5
58543,112287,5
58495,112276,5
58503,112276,5
58508,112282,4
58575,112316,5
58552,112359,5
58574,112380,5
58586,112403,4
58617,112424,5
58614,112434,5
58611,112428,5
58591,112404,4
58583,112397,5
58560,112373,5
58540,112314,5
58505,112293,5
58521,112267,4
58518,112284,5
58516,112292,5
58510,112274,5
58531,112254,5
58516,112297,4
58522,112296,5
58530,112298,5
58531,112260,5
58540,112302,5
58536,112306,4
58542,112314,6
58538,112329,4
58546,112321,5
58548,112322,5
58570,112351,4
58572,112397,5
58586,112384,5
58603,112398,5
58603,112413,4
58613,112468,5
58618,112438,5
58627,112438,5
58635,112452,5
58629,112467,4
58652,112523,5
58737,112650,5
58802,112792,5
58850,112818,5
58867,112839,4
58865,112836,5
58854,112817,5
58846,112799,5
58836,112786,5
58825,112762,4
58804,112746,5
58797,112730,6
58794,112715,4
58792,112718,5
58789,112722,4
58794,112713,5
58788,112701,5
58780,112715,5
58784,112704,4
58782,112702,5
58783,112703,5
58791,112706,5
58786,112716,5
58792,112713,4
58791,112707,5
58793,112718,5
58797,112721,5
58795,112721,5
58807,112735,4
58805,112740,5
58800,112740,5
58811,112745,5
58815,112738,5
58803,112750,4
58822,112757,5
58824,112758,5
58833,112777,5
58828,112774,5
58833,112796,4
58838,112790,5
58845,112800,5
58847,112807,5
58850,112810,4
58849,112799,5
58835,112797,5
58842,112777,5
58819,112767,5
58814,112749,4
58804,112732,5
58807,112725,5
58804,112715,5
58796,112716,5
58789,112710,4
58779,112706,5
58784,112711,5
58786,112708,5
58787,112712,5
58781,112716,5
58799,112725,4
58805,112747,5
58801,112741,5
58807,112736,5
58804,112724,4
58783,112684,5
58763,112652,5
58751,112627,5
58710,112580,4
58677,112519,5
58653,112487,5
58642,112468,5
58615,112435,5
58611,112407,4
58583,112384,5
58566,112355,5
58557,112331,5
58541,112321,5
58531,112309,4
58517,112273,5
58492,112202,5
58453,112146,5
58416,112084,5
58374,112029,4
58360,111992,6
58345,111961,4
58333,111948,5
58332,111952,5
58332,111965,4
58339,111963,5
58301,111933,5
58270,111816,5
58211,111712,4
58163,111643,5
58100,111607,5
58126,111592,5
58123,111592,5
58126,111597,4
58086,111590,5
58122,111581,5
58103,111530,5
58036,111430,5
58007,111375,4
57979,111344,5
57974,111348,5
57987,111377,5
58036,111391,5
58011,111401,4
58001,111376,5
57972,111308,5
57989,111267,5
57914,111222,5
57913,111231,4
57930,111254,5
57960,111243,5
57919,111224,5
57904,111195,4
57898,111224,5
57934,111248,5
57961,111312,5
57999,111377,5
58011,111393,4
58002,111348,5
57972,111318,5
57966,111307,5
57975,111318,5
57988,111309,4
58004,111377,5
58030,111420,5
58050,111449,5
58062,111432,5
58064,111479,4
58068,111477,5
58052,111451,5
58023,111396,5
57997,111361,5
57988,111349,4
57965,111322,5
57968,111347,5
57967,111295,5
57954,111291,4
57933,111271,5
57939,111309,5
57936,111253,5
57922,111211,5
57892,111175,4
57883,111174,5
57865,111119,5
57801,111013,5
57764,110968,5
57766,110980,4
57778,111014,6
57807,111070,4
57842,111103,5
57833,111090,5
57787,110973,6
57683,110793,3
57601,110648,5
57561,110608,5
57577,110607,5
57597,110674,4
57651,110742,5
57686,110803,5
57707,110858,5
57727,110853,4
57678,110766,5
57622,110690,5
57611,110667,5
57607,110668,5
57609,110681,4
57612,110682,5
57618,110701,5
57632,110709,5
57603,110620,5
57524,110505,4
57505,110479,5
57525,110500,6
57532,110522,4
57531,110535,5
57553,110563,4
57570,110615,5
57618,110670,5
57630,110688,5
57620,110686,5
57614,110676,4
57622,110679,5
57607,110623,5
57560,110545,5
57537,110536,4
57540,110552,9
57555,110568,1
57554,110568,5
57576,110606,5
57584,110661,4
57621,110695,5
57641,110719,5
57647,110721,5
57660,110745,5
57675,110792,4
57692,110836,5
57722,110864,5
57741,110887,6
57754,110921,4
57772,110943,4
57794,110969,5
57796,110991,5
57818,111002,5
57815,110983,5
57802,110973,4
57805,110985,5
57813,110992,5
57829,111018,5
57839,111054,4
57866,111075,5
57890,111118,5
57904,111154,5
57925,111187,5
57936,111212,4
57951,111239,5
57959,111244,5
57954,111259,5
57960,111258,5
57970,111256,5
57966,111266,4
57966,111269,5
57973,111269,5
57981,111288,6
57994,111293,3
57990,111300,5
58001,111313,5
58001,111319,5
58014,111346,5
58033,111369,4
58050,111397,5
58057,111414,5
58047,111404,5
58050,111389,4
58051,111400,5
58055,111399,5
57998,111380,5
58012,111329,5
58012,111325,4
58007,111323,5
57960,111321,5
58012,111321,5
58011,111338,5
58013,111327,4
58011,111340,6
58024,111359,4
58026,111372,5
58048,111382,5
58084,111400,4
58066,111402,5
58075,111417,5
58072,111434,5
58129,111436,5
58087,111445,4
58093,111460,5
58106,111469,5
58143,111474,5
58109,111491,4
58123,111496,5
58131,111515,5
58150,111521,5
58142,111531,5
58157,111538,4
58172,111563,5
58165,111556,5
58173,111569,5
58178,111572,5
58187,111597,4
58182,111545,5
58199,111599,6
58187,111611,4
58200,111604,5
58188,111558,4
58185,111584,5
58175,111575,5
58176,111565,5
58161,111530,5
58152,111530,4
58140,111516,5
58136,111494,5
58132,111544,5
58132,111499,4
58129,111492,5
58129,111500,5
58125,111549,5
58128,111485,5
58122,111472,4
58113,111463,5
58112,111477,5
58117,111446,5
58111,111459,5
58112,111457,4
58116,111458,5
58112,111464,5
58125,111464,6
58119,111480,4
58131,111481,4
58137,111484,5
58139,111490,5
58139,111490,5
58140,111499,5
58148,111501,4
58152,111502,5
58150,111510,5
58156,111502,5
58139,111490,4
58137,111481,5
58126,111456,5
58113,111432,5
58089,111411,5
58074,111386,4
58063,111363,5
58048,111352,5
58053,111344,5
58043,111335,5
58031,111329,5
58021,111318,4
58019,111298,5
58019,111301,5
58032,111331,5
58054,111364,4
58084,111408,5
58095,111433,5
58104,111456,5
58119,111461,5
58111,111454,4
58112,111454,5
58111,111461,5
58095,111419,5
58067,111390,4
58063,111382,5
58063,111392,5
58066,111398,5
58062,111377,5
58069,111377,4
58065,111377,5
58071,111382,5
58074,111396,5
58081,111402,5
58087,111409,4
58093,111415,6
58092,111420,4
58099,111436,5
58106,111437,5
58102,111441,4
58111,111442,5
58114,111443,5
58113,111453,5
58121,111464,5
58126,111476,4
58139,111486,5
58142,111498,5
58155,111516,5
58159,111531,4
58167,111535,5
58171,111559,5
58177,111576,5
58190,111578,5
58202,111603,4
58202,111592,5
58209,111613,5
58215,111619,5
58219,111611,5
58225,111628,4
58225,111633,5
58221,111621,6
58215,111623,4
58223,111621,5
58221,111616,4
58217,111620,5
58214,111619,5
58208,111604,5
58208,111605,5
58209,111593,4
58197,111597,5
58203,111593,5
58194,111589,5
58189,111580,4
58191,111571,5
58186,111572,5
58176,111576,5
58151,111564,5
58192,111569,4
58180,111567,5
58186,111576,5
58141,111580,5
58196,111585,5
58200,111594,4
58206,111606,5
58190,111607,5
58214,111608,5
58210,111610,5
58208,111621,4
58238,111613,5
58202,111627,5
58203,111607,5
58194,111593,5
58244,111593,4
58188,111586,5
58173,111558,5
58161,111543,5
58187,111516,4
58132,111506,5
58134,111501,5
58127,111499,5
58133,111494,5
58118,111480,4
58106,111475,5
58100,111463,5
58100,111455,5
58106,111466,5
58117,111499,5
58138,111535,4
58158,111522,5
58160,111568,5
58183,111584,5
58187,111595,4
58165,111538,5
58166,111567,5
58170,111575,5
58155,111536,5
58128,111481,4
58112,111485,5
58114,111486,5
58113,111492,5
58119,111527,4
58118,111500,5
58115,111495,5
58124,111504,5
58127,111556,5
58140,111526,4
58141,111530,5
58159,111541,5
58151,111578,5
58154,111558,5
58167,111564,4
58174,111576,6
58188,111592,4
58178,111584,5
58189,111589,5
58184,111599,4
58204,111616,5
58202,111619,5
58216,111644,5
58223,111656,5
58233,111670,4
58244,111677,5
58240,111694,5
58259,111697,5
58269,111706,4
58274,111718,5
58266,111728,5
58284,111741,5
58287,111740,5
58279,111737,4
58290,111763,5
58291,111754,5
58290,111762,5
58282,111748,5
58279,111746,4
58286,111734,5
58283,111733,5
58279,111731,5
58270,111734,5
58270,111719,4
58264,111716,5
58257,111717,5
58262,111709,5
58255,111709,5
58262,111715,4
58258,111703,5
58252,111706,5
58249,111702,5
58260,111706,4
58255,111700,5
58254,111713,5
58259,111718,5
58277,111726,5
58264,111725,4
58269,111733,5
58274,111739,5
58280,111744,5
58286,111753,5
58284,111769,4
58291,111767,5
58301,111779,5
58302,111775,5
58306,111789,5
58300,111785,4
58312,111794,5
58307,111796,5
58309,111793,5
58317,111809,5
58312,111806,4
58312,111803,5
58320,111806,5
58316,111809,5
58316,111809,4
58317,111819,5
58313,111804,5
58306,111795,5
58288,111789,5
58288,111771,4
58271,111747,6
58267,111743,4
58257,111718,5
58235,111694,5
58215,111674,6
58201,111653,3
58187,111629,5
58170,111610,5
58155,111582,5
58142,111574,4
58129,111537,5
58127,111541,5
58129,111540,5
58154,111572,5
58166,111612,4
58191,111640,5
58204,111654,5
58209,111676,5
58215,111683,4
58214,111674,5
58206,111648,5
58199,111638,5
58186,111619,5
58132,111583,4
58147,111566,5
58146,111565,6
58145,111571,4
58111,111572,5
58158,111580,4
58149,111594,5
58153,111600,5
58144,111620,5
58179,111626,5
58179,111641,4
58194,111651,5
58218,111656,5
58211,111679,5
58223,111687,5
58224,111712,4
58284,111732,5
58246,111743,5
58254,111758,5
58263,111774,4
58308,111799,5
58278,111792,5
58298,111820,5
58291,111826,5
58309,111830,4
58300,111846,5
58305,111851,5
58318,111864,6
58328,111862,4
58345,111897,4
58357,111924,5
58354,111938,5
58363,111910,5
58375,111973,5
58380,111968,4
58387,111985,5
58390,111956,5
58389,112016,5
58397,112010,5
58401,112024,4
58411,112019,5
58409,112032,5
58397,112026,5
58390,112024,4
58398,112043,5
58399,112026,5
58392,112023,5
58390,112015,5
58392,112089,5
58415,112051,4
58421,112055,5
58426,112077,5
58434,112120,6
58435,112086,3
58440,112098,5
58443,112103,5
58444,112126,5
58456,112109,5
58461,112131,4
58468,112140,5
58475,112150,5
58480,112175,5
58496,112187,5
58500,112201,4
58508,112218,5
58522,112245,5
58521,112244,5
58528,112262,4
58544,112270,5
58531,112282,5
58534,112269,5
58530,112274,5
58537,112271,4
58540,112284,6
58544,112290,4
58535,112287,5
58534,112273,5
58522,112270,4
58520,112269,7
58524,112257,3
58508,112243,5
58501,112236,5
58496,112230,4
58491,112206,5
58480,112193,5
58467,112178,5
58451,112161,4
58444,112139,4
58447,112146,5
58436,112124,5
58433,112125,5
58439,112130,4
58439,112116,5
58421,112106,5
58426,112120,5
58443,112139,5
58464,112179,4
58476,112181,5
58479,112208,6
58491,112230,4
58486,112216,5
58487,112195,4
58465,112180,5
58459,112181,5
58455,112153,5
58427,112116,5
58422,112117,4
58429,112103,5
58427,112102,5
58421,112114,5
58434,112117,4
58431,112112,4
58445,112136,5
58449,112148,5
58454,112154,5
58467,112166,4
58486,112180,5
58492,112194,5
58506,112214,5
58514,112235,5
58524,112250,4
58521,112257,5
58546,112275,5
58553,112297,6
58563,112311,4
58584,112338,4
58597,112359,5
58608,112378,5
58620,112406,5
58629,112407,5
58642,112432,4
58655,112448,5
58673,112464,5
58680,112475,5
58694,112505,4
58699,112517,4
58711,112536,5
58716,112542,5
58728,112563,5
58719,112569,4
58727,112558,5
58727,112560,5
58732,112566,5
58738,112574,5
58743,112583,5
58713,112589,4
58742,112590,5
58753,112593,5
58760,112610,5
58712,112616,4
58769,112626,5
58760,112633,5
58777,112648,5
58762,112658,5
58785,112676,4
58783,112678,5
58786,112683,5
58834,112691,5
58814,112712,4
58822,112734,4
58825,112734,5
58888,112747,5
58844,112758,5
58854,112783,4
58861,112787,5
58902,112796,5
58879,112802,5
58883,112822,5
58875,112819,4
58890,112824,6
58892,112840,4
58900,112841,5
58895,112853,5
58907,112841,4
58904,112856,5
58900,112855,5
58910,112855,5
58891,112812,5
58902,112848,4
58890,112843,5
58895,112842,5
58888,112780,5
58881,112812,4
58862,112804,5
58865,112806,5
58853,112769,5
58851,112777,5
58842,112768,4
58838,112773,5
58839,112792,5
58837,112758,5
58833,112756,5
58840,112751,4
58832,112810,5
58835,112759,6
58843,112768,4
58849,112786,5
58852,112832,4
58847,112791,5
58855,112801,5
58845,112778,5
58838,112767,5
58819,112744,4
58809,112699,5
58781,112639,5
58738,112593,5
58720,112585,4
58714,112566,5
58713,112547,5
58706,112550,5
58701,112549,5
58704,112542,4
58702,112543,5
58709,112550,5
58712,112559,5
58717,112567,5
58719,112571,4
58719,112565,5
58722,112560,5
58721,112550,5
58705,112544,5
58677,112499,4
58656,112449,5
58619,112376,5
58588,112334,5
58568,112299,5
58565,112315,4
58580,112334,5
58585,112329,5
58551,112257,5
58500,112170,4
58442,112074,5
58411,112017,5
58403,112023,5
58411,112027,5
58424,112048,4
58411,112012,5
58390,111997,5
58394,111985,5
58391,111979,5
58379,111964,5
58388,111979,4
58388,111997,5
58389,111980,5
58372,111971,5
58375,111974,4
58391,111992,5
58378,111941,5
58329,111868,5
58309,111844,4
58309,111844,4
58328,111865,5
58329,111875,5
58311,111811,5
58218,111674,4
58162,111560,5
58111,111451,5
58036,111288,5
57933,111136,5
57852,110982,4
57724,110752,5
57553,110445,5
57424,110249,5
57406,110262,5
57493,110424,4
57580,110572,6
57622,110632,4
57616,110579,5
57474,110276,5
57225,109824,4
57034,109542,5
57020,109569,5
57054,109609,5
56998,109483,4
56955,109440,4
56999,109543,5
57075,109674,5
57137,109780,5
57209,109910,4
57213,109861,5
57138,109725,5
57084,109665,5
57027,109546,5
56993,109493,4
56973,109440,5
56958,109415,5
56915,109316,5
56789,109065,5
56637,108789,4
56421,108427,5
56286,108271,5
56301,108213,5
56288,108203,5
56303,108242,4
56195,108078,5
56129,107932,5
56106,107895,5
56147,107984,4
56168,107959,4
56096,107813,5
56024,107664,5
55946,107540,5
55917,107421,4
55886,107441,5
55908,107480,5
55981,107672,5
56206,108049,5
56370,108324,4
56336,108168,5
56111,107729,5
55871,107276,5
55701,107096,5
55696,107106,4
55793,107306,5
55989,107662,5
56180,108042,5
56379,108363,5
56453,108437,4
56408,108313,5
56307,108143,5
56212,107981,5
56179,107937,4
56140,107808,5
56137,107857,5
56128,107838,5
56114,107849,5
56175,107919,4
56286,108154,5
56384,108334,5
56460,108498,5
56565,108685,5
56681,108884,4
56783,109055,6
56853,109163,4
56865,109211,5
56873,109207,5
56908,109274,6
56971,109391,3
57056,109612,5
57164,109741,5
57253,109904,5
57341,110049,4
57429,110223,5
57490,110299,5
57551,110421,5
57621,110537,4
57684,110636,5
57714,110697,5
57749,110742,5
57781,110792,5
57808,110839,4
57823,110877,5
57850,110904,5
57874,110929,5
57882,110945,5
57898,110986,4
57912,110999,5
57920,111030,6
57943,111038,4
57943,111067,5
57952,111081,4
57966,111087,5
57976,111113,5
57978,111115,5
57984,111128,5
57986,111130,4
57994,111147,5
58002,111173,5
58007,111185,5
58019,111187,4
58013,111181,5
58003,111149,5
57980,111130,5
57971,111113,5
57948,111086,4
57934,111023,5
57909,110986,5
57883,110978,5
57874,110939,5
57870,110949,4
57857,110934,5
57859,110929,5
57860,110917,6
57866,110914,4
57862,110913,4
57856,110923,5
57861,110921,5
57864,110927,5
57870,110926,5
57870,110935,4
57878,110931,5
57875,110938,5
57872,110945,5
57880,110944,4
57886,110948,5
57891,110959,5
57884,110967,5
57901,110960,5
57892,110972,4
57897,110993,5
57898,110991,5
57913,110981,5
57917,111009,5
57924,110994,5
57904,110978,4
57909,110990,5
57918,110997,5
57909,110993,6
57911,110986,3
57909,110977,5
57899,110971,5
57888,110942,5
57882,110940,5
57871,110925,4
57859,110899,5
57855,110892,5
57845,110878,5
57833,110856,4
57825,110857,5
57824,110858,5
57823,110848,5
57810,110838,5
57816,110833,4
57818,110831,5
57813,110824,5
57799,110821,5
57794,110813,5
57807,110822,4
57802,110821,6
57799,110811,4
57800,110818,5
57783,110823,5
57806,110824,4
57807,110826,5
57812,110824,5
57772,110822,5
57797,110823,5
57790,110807,4
57790,110797,5
57749,110785,5
57780,110774,5
57767,110773,4
57761,110753,5
57753,110742,5
57741,110733,5
57750,110733,5
57747,110727,4
57784,110724,5
57748,110723,5
57744,110715,5
57751,110729,5
57819,110761,4
57771,110770,5
57781,110782,6
57788,110794,4
57804,110789,5
57775,110772,4
57779,110770,5
57786,110779,5
57770,110737,5
57738,110715,5
57741,110708,4
57735,110722,5
57738,110693,5
57729,110712,5
57739,110715,4
57727,110712,5
57736,110689,5
57744,110724,5
57752,110735,5
57752,110738,4
57759,110701,5
57764,110760,5
57767,110763,5
57767,110779,5
57785,110790,4
57786,110784,5
57792,110794,5
57795,110799,6
57795,110842,4
57801,110816,4
57811,110824,5
57822,110846,5
57820,110889,5
57828,110858,5
57830,110860,4
57832,110865,5
57847,110909,5
57860,110900,5
57861,110902,4
57865,110920,5
57874,110936,5
57878,110931,5
57877,110939,5
57888,110953,4
57881,110943,10
57875,110938,5
57875,110938,5
57877,110926,5
57867,110933,4
57870,110929,5
57861,110925,5
57868,110934,5
57863,110917,4
57860,110920,5
57860,110924,5
57866,110924,5
57864,110918,4
57865,110919,4
57864,110905,5
57860,110914,5
57860,110918,5
57857,110925,4
57872,110936,5
57883,110960,5
57886,110977,5
57891,110996,5
57903,110993,4
57911,111006,5
57912,111025,5
57916,111023,5
57915,111027,5
57925,111030,4
57928,111032,6
57921,111028,4
57920,111032,5
57906,111006,5
57898,111003,4
57883,110970,5
57872,110950,5
57849,110931,5
57848,110913,4
57842,110903,4
57839,110902,5
57834,110888,5
57829,110881,5
57820,110870,4
57809,110858,5
57817,110886,5
57832,110914,5
57862,110947,5
57889,111000,4
57902,111019,5
57919,111037,5
57936,111075,5
57940,111076,5
57937,111061,4
57936,111072,5
57942,111076,6
57926,111054,4
57911,111015,5
57899,111003,4
57903,111019,5
57904,111027,5
57921,111040,5
57936,111062,4
57926,111062,4
57929,111075,5
57944,111072,5
57946,111086,5
57942,111096,4
57956,111100,5
57958,111120,5
57978,111142,5
57977,111148,5
57989,111147,4
57994,111147,5
57992,111158,5
58004,111179,5
58008,111190,5
58013,111188,4
58023,111217,5
58038,111235,5
58030,111254,5
58064,111267,5
58062,111280,4
58065,111293,5
58045,111301,5
58084,111327,5
58097,111328,4
58106,111326,4
58059,111343,5
58108,111348,5
58113,111354,5
58120,111357,4
58122,111359,5
58113,111338,5
58115,111329,5
58115,111330,5
58138,111319,4
58101,111302,5
58079,111290,5
58074,111274,5
58119,111272,5
58071,111264,5
58063,111252,4
58058,111248,5
58085,111240,5
58057,111243,5
58064,111237,4
58053,111229,5
58058,111225,5
58055,111226,5
58042,111216,4
58042,111222,4
58039,111195,5
58047,111220,5
58045,111225,5
58045,111223,4
58049,111188,5
58054,111224,5
58049,111237,5
58056,111246,5
58056,111186,4
58050,111240,5
58052,111238,5
58040,111223,5
58036,111213,5
58030,111205,4
58029,111190,6
58025,111177,4
58014,111200,5
58000,111134,5
57992,111121,4
57972,111105,5
57959,111124,5
57941,111063,5
57928,111028,4
57921,111030,4
57922,111059,5
57916,111027,5
57913,111015,5
57912,111007,4
57906,111025,5
57912,111011,5
57920,111014,5
57929,111060,5
57945,111087,4
57965,111121,5
57979,111136,5
57989,111157,5
58000,111148,5
57979,111121,4
57967,111115,5
57965,111106,5
57947,111072,5
57920,111031,5
57913,111033,4
57914,111042,5
57924,111051,5
57935,111060,5
57941,111069,4
57938,111082,4
57951,111085,5
57949,111087,5
57954,111099,5
57952,111096,4
57964,111104,5
57955,111107,5
57962,111117,5
57969,111118,5
57981,111136,4
57987,111142,5
57988,111170,5
58010,111180,5
58017,111191,5
58025,111209,4
58035,111226,5
58047,111245,5
58050,111262,5
58062,111265,5
58071,111278,4
58064,111277,5
58074,111283,5
58088,111302,5
58086,111302,4
58085,111293,4
58076,111300,5
58080,111302,5
58085,111301,5
58089,111301,4
58085,111304,5
58083,111288,5
58085,111300,5
58082,111302,5
58083,111298,4
58080,111313,6
58072,111302,4
58087,111303,5
58074,111305,5
58082,111296,6
58076,111295,3
58067,111284,5
58058,111282,5
58063,111279,5
58061,111273,4
58058,111274,5
58059,111261,5
58052,111260,5
58052,111249,4
58053,111244,4
58056,111269,5
58052,111260,5
58055,111259,5
58062,111277,4
58067,111278,5
58075,111291,5
58073,111293,5
58078,111303,5
58084,111312,4
58088,111320,5
58095,111315,6
58092,111314,4
58091,111324,5
58091,111323,4
58094,111322,5
58080,111318,5
58075,111321,5
58067,111314,5
58077,111303,4
58062,111280,5
58049,111260,5
58001,111239,5
58030,111217,4
58010,111201,4
58006,111184,5
57940,111163,5
57977,111155,5
57980,111152,4
57974,111133,5
57959,111134,5
57964,111135,5
57960,111118,5
57954,111107,4
57980,111102,5
57962,111129,5
57975,111153,6
57986,111159,4
58044,111167,4
58012,111192,5
58008,111189,5
57985,111169,5
58013,111150,5
57976,111143,4
57961,111105,5
57932,111057,5
57930,111048,5
57915,111046,4
57911,111041,4
57920,111056,5
57926,111024,5
57921,111051,5
57929,111059,4
57934,111078,5
57947,111044,5
57953,111085,5
57955,111108,5
57960,111117,5
57975,111091,4
57973,111138,5
57985,111151,5
57991,111153,6
57981,111143,3
57990,111153,5
57993,111158,5
57995,111176,5
58012,111216,5
58011,111193,4
58008,111189,5
58017,111200,5
58013,111236,5
58017,111199,4
58016,111205,4
58025,111207,5
58030,111240,5
58034,111208,5
58037,111218,4
58033,111210,5
58040,111229,5
58036,111228,5
58037,111212,5
58025,111208,4
58034,111208,6
58033,111216,4
58029,111221,5
58028,111193,5
58024,111194,6
58021,111198,3
58027,111209,5
58024,111201,5
58030,111212,5
58021,111214,4
58029,111209,5
58035,111233,5
58042,111229,5
58050,111232,4
58051,111249,4
58053,111253,5
58074,111270,5
58075,111293,5
58087,111305,4
58111,111343,5
58128,111375,5
58156,111408,5
58168,111432,5
58172,111457,4
58201,111482,5
58216,111508,6
58238,111533,4
58239,111560,5
58256,111572,4
58268,111600,5
58285,111606,5
58291,111619,5
58290,111626,5
58309,111641,4
58309,111651,5
58310,111668,5
58299,111651,5
58311,111661,4
58321,111672,4
58324,111668,5
58319,111673,5
58326,111681,5
58327,111687,4
58341,111682,5
58326,111690,5
58325,111692,5
58341,111686,5
58336,111694,4
58329,111684,5
58313,111672,5
58310,111667,6
58299,111640,4
58291,111622,4
58285,111599,5
58271,111579,5
58256,111565,5
58250,111567,5
58248,111558,4
58246,111562,5
58244,111554,5
58234,111552,5
58246,111557,4
58242,111554,4
58244,111554,5
58252,111576,5
58263,111588,5
58282,111603,4
58275,111596,5
58273,111604,5
58271,111582,5
58251,111552,5
58242,111530,5
58215,111500,4
58193,111450,5
58157,111404,5
58158,111393,6
58147,111391,3
58148,111394,5
58150,111370,5
58153,111368,5
58139,111371,5
58131,111367,4
58143,111370,5
58141,111365,5
58150,111371,5
58121,111372,4
58154,111364,4
58158,111376,5
58169,111392,5
58126,111393,5
58171,111401,4
58184,111405,5
58191,111414,5
58159,111431,5
58194,111431,5
58195,111444,4
58208,111449,6
58226,111462,4
58220,111465,5
58217,111473,5
58226,111481,4
58277,111489,5
58228,111493,5
58236,111492,5
58242,111482,5
58272,111500,4
58234,111492,5
58229,111480,5
58230,111496,5
58244,111483,4
58218,111475,4
58217,111455,5
58210,111456,5
58212,111433,5
58196,111437,4
58193,111414,5
58189,111413,5
58181,111368,5
58187,111400,5
58172,111404,4
58182,111407,5
58193,111370,6
58191,111433,4
58189,111424,5
58182,111425,4
58190,111413,5
58194,111442,5
58210,111453,5
58204,111448,5
58209,111491,4
58217,111466,8
58219,111465,2
58234,111463,5
58225,111523,4
58233,111474,4
58233,111474,5
58231,111488,5
58233,111521,5
58240,111496,4
58236,111488,5
58240,111484,5
58242,111502,5
58243,111475,5
58234,111473,4
58226,111462,5
58215,111446,5
58211,111447,6
58202,111437,4
58199,111431,4
58197,111416,5
58188,111405,5
58194,111415,5
58192,111419,5
58189,111404,4
58196,111412,5
58192,111407,5
58184,111420,5
58208,111438,4
58212,111442,4
58205,111429,5
58208,111424,5
58192,111408,5
58166,111381,4
58156,111350,5
58141,111331,5
58116,111291,5
58072,111219,5
58046,111169,5
58023,111125,4
57985,111070,5
57955,111027,5
57930,110979,5
57916,110960,4
57906,110935,5
57877,110891,5
57853,110820,5
57809,110776,5
57811,110773,4
57823,110761,5
57802,110729,5
57773,110698,5
57722,110555,4
57595,110322,4
57487,110143,5
57449,110119,5
57460,110142,5
57482,110156,4
57433,110021,5
57263,109699,5
57105,109436,5
57073,109442,5
57118,109494,4
57135,109518,6
57117,109450,4
57038,109308,5
56967,109155,5
56822,108855,4
56642,108573,5
56557,108416,5
56502,108323,5
56502,108366,5
56545,108397,4
56497,108304,5
56466,108262,5
56470,108293,5
56518,108381,4
56544,108409,4
56516,108362,5
56523,108415,5
56606,108578,5
56695,108722,4
56674,108634,5
56438,108094,5
55986,107269,5
55730,106918,5
55781,107061,4
55935,107331,5
56016,107381,6
55852,106963,4
55482,106314,5
55306,106109,4
55423,106357,5
55525,106534,5
55623,106694,5
55683,106737,5
55510,106325,4
55158,105695,5
54997,105536,5
55207,105963,5
55398,106193,4
55263,105873,4
55052,105502,5
55028,105521,5
55124,105704,5
55085,105648,4
55067,105583,5
55101,105619,5
55117,105658,5
55181,105841,5
55337,106092,4
55448,106266,5
55441,106176,5
55136,105469,5
54733,104860,5
54623,104763,4
54746,105030,5
54918,105175,5
54763,104864,5
54485,104412,5
54438,104376,4
54429,104297,5
54416,104407,5
54594,104761,5
54653,104824,4
54637,104740,4
54525,104568,5
54373,104234,5
54153,103853,5
54064,103738,4
54121,103879,6
54238,104084,4
54349,104285,5
54393,104328,5
54454,104487,6
54533,104622,3
54525,104572,5
54562,104661,5
54654,104854,5
54614,104685,4
54437,104360,5
54278,104064,5
54170,103946,5
54234,104129,5
54440,104512,4
54578,104713,5
54600,104725,5
54606,104745,5
54671,104913,4
54802,105209,4
54931,105354,5
54943,105345,5
54898,105274,5
54872,105253,4
54833,105186,5
54865,105270,6
54932,105347,4
54916,105335,5
54950,105416,4
55080,105695,7
55283,106047,3
55463,106373,5
55598,106599,5
55703,106779,4
55761,106883,5
55787,106904,5
55804,106956,5
55854,107062,5
55943,107231,4
56020,107357,5
56077,107451,5
56134,107570,5
56193,107638,4
56245,107728,4
56295,107818,5
56341,107923,5
56414,108031,5
56484,108155,4
56554,108280,5
56597,108366,5
56630,108425,6
56664,108482,4
56699,108533,4
56724,108585,5
56745,108628,5
56770,108654,5
56790,108706,5
56821,108765,4
56845,108799,5
56880,108832,5
56892,108871,5
56907,108888,5
56922,108918,4
56931,108936,5
56939,108951,5
56951,108972,5
56951,108978,4
56964,108975,4
56960,109000,5
56989,109044,5
57008,109063,5
57015,109090,5
57026,109114,4
57038,109118,5
57036,109125,5
57046,109135,6
57045,109154,3
57040,109125,5
57026,109101,5
57009,109105,5
57007,109072,5
56980,109048,4
56973,109023,5
56969,109013,5
56968,109016,5
56973,109027,5
56980,109045,4
57007,109064,5
57010,109100,5
57033,109131,5
57052,109162,4
57053,109164,4
57046,109158,5
57046,109126,5
57009,109083,5
57001,109067,4
56990,109076,6
57007,109079,4
57014,109088,5
57028,109130,5
57050,109152,6
57056,109170,3
57067,109185,5
57044,109140,5
56992,109030,5
56920,108911,4
56860,108816,5
56825,108770,5
56838,108809,5
56881,108865,5
56865,108821,4
56835,108773,5
56809,108726,5
56771,108662,5
56727,108603,4
56700,108552,4
56658,108532,5
56690,108552,5
56705,108576,5
56699,108552,4
56651,108541,5
56637,108447,6
56599,108390,4
56586,108373,5
56555,108370,4
56525,108203,5
56341,107854,5
56175,107617,5
56163,107625,5
56217,107743,4
56286,107831,5
56286,107838,5
56348,107896,5
56364,108009,5
56430,108113,4
56488,108210,5
56582,108327,5
56618,108453,5
56673,108559,4
56694,108591,4
56690,108527,5
56624,108423,5
56547,108285,5
56494,108217,4
56472,108163,5
56414,108050,5
56359,107961,6
56310,107884,4
56269,107793,4
56266,107809,5
56275,107859,5
56288,107868,5
56307,107860,5
56345,107998,4
56408,108122,5
56468,108225,5
56544,108305,5
56587,108422,5
56570,108361,4
56522,108262,5
56485,108214,5
56471,108201,5
56501,108244,5
56552,108357,4
56602,108483,5
56638,108487,5
56654,108505,5
56634,108456,5
56561,108387,4
56492,108217,5
56445,108138,5
56431,108144,6
56467,108220,3
56495,108244,5
56504,108243,5
56421,108040,5
56284,107819,5
56172,107577,4
55960,107203,5
55834,107037,5
55859,107111,5
55943,107262,5
55993,107330,4
55998,107293,5
55885,107023,5
55711,106759,5
55629,106630,5
55530,106434,4
55395,106170,5
55274,106011,5
55292,106036,5
55185,105797,4
55067,105628,6
55135,105802,4
55274,106023,5
55302,106026,5
55236,105916,4
55235,105939,5
55284,106001,5
55255,105944,5
55188,105852,5
55244,105983,4
55357,106185,5
55436,106275,5
55406,106204,5
55360,106096,5
55190,105756,4
54987,105450,5
54951,105416,5
54984,105501,5
55049,105617,5
55187,105893,4
55338,106143,5
55397,106215,5
55371,106131,5
55308,106045,4
55308,106060,5
55273,105950,6
55156,105756,4
55130,105763,5
55223,105911,4
55278,105987,5
55331,106099,5
55454,106347,5
55590,106547,5
55639,106648,4
55626,106551,5
55415,106152,5
55228,105866,5
55182,105851,5
55277,106054,4
55465,106405,5
55616,106626,5
55704,106782,5
55751,106818,5
55752,106834,4
55795,106938,5
55884,107110,5
55978,107263,5
56042,107374,4
56085,107455,5
56114,107485,5
56144,107563,6
56197,107669,4
56257,107747,4
56266,107759,5
56272,107798,5
56335,107905,5
56410,108049,5
56511,108229,4
56624,108424,5
56712,108569,5
56788,108700,5
56853,108808,5
56885,108859,4
56893,108856,5
56878,108840,5
56876,108845,5
56881,108836,5
56878,108836,4
56886,108855,5
56886,108882,5
56920,108925,5
56950,108953,5
56959,108973,4
56931,108990,5
56973,108990,5
56973,109007,5
56985,109009,4
56938,109013,5
56994,109010,5
56985,109014,5
56986,109015,5
56982,109021,4
56997,109037,5
57000,109028,5
56998,109045,5
57039,109048,5
57006,109042,4
57006,109052,5
57018,109066,5
57069,109075,5
57016,109084,5
57041,109113,4
57054,109117,5
57080,109145,5
57066,109159,5
57071,109174,4
57081,109189,11
57097,109189,4
57099,109212,5
57106,109227,4
57109,109231,5
57115,109220,5
57117,109241,5
57114,109221,5
57113,109226,4
57115,109188,5
57104,109235,5
57103,109230,5
57106,109217,5
57092,109169,4
57092,109202,5
57088,109197,5
57081,109193,5
57078,109178,5
57082,109184,4
57084,109175,5
57075,109179,5
57080,109223,5
57076,109178,4
57081,109184,5
57076,109185,6
57081,109241,4
57087,109202,5
57098,109214,4
57102,109216,5
57091,109253,5
57111,109218,5
57112,109228,5
57107,109244,4
57111,109249,5
57115,109252,5
57116,109245,5
57116,109251,5
57120,109262,4
57124,109263,5
57124,109257,5
57121,109264,5
57118,109261,5
57136,109263,4
57127,109272,5
57118,109263,5
57122,109268,5
57131,109281,4
57128,109269,5
57130,109277,5
57130,109272,5
57124,109263,5
57111,109249,4
57094,109217,5
57084,109210,5
57067,109183,5
57045,109158,5
57038,109127,4
57012,109095,5
57003,109077,5
56989,109048,5
56974,109033,5
56966,109017,4
56945,108974,5
56921,108962,5
56908,108952,5
56904,108953,5
56924,108971,4
56946,109010,4
56965,109045,5
56988,109091,5
56999,109109,6
57016,109133,3
57029,109154,5
57032,109158,5
57031,109161,5
57020,109135,4
57024,109125,5
56995,109107,5
56974,109083,5
56982,109084,5
56986,109082,4
56991,109090,5
56991,109093,5
56985,109080,5
56979,109080,5
56980,109081,4
56990,109105,5
57011,109117,5
57017,109130,5
57024,109151,5
57030,109165,4
57033,109168,6
57047,109182,4
57048,109184,5
57046,109195,4
57062,109202,7
57069,109218,3
57066,109228,5
57076,109244,5
57093,109268,4
57100,109296,5
57114,109311,5
57125,109335,5
57138,109345,5
57147,109364,4
57151,109369,5
57153,109391,5
57167,109410,5
57175,109417,5
57182,109428,4
57182,109445,5
57195,109445,5
57200,109450,5
57187,109453,5
57178,109427,4
57177,109414,5
57175,109409,6
57177,109406,4
57159,109408,4
57172,109411,5
57170,109399,5
57165,109405,5
57134,109407,5
57169,109422,4
57185,109433,5
57186,109433,5
57153,109457,5
57193,109465,5
57197,109475,4
57212,109485,5
57186,109490,5
57211,109489,5
57205,109489,5
57208,109489,4
57234,109491,5
57224,109503,5
57232,109506,5
57225,109501,5
57273,109514,4
57239,109525,5
57238,109532,5
57242,109535,6
57284,109544,3
57253,109556,5
57257,109565,5
57260,109566,5
57277,109578,5
57267,109578,4
57264,109584,5
57282,109595,5
57280,109590,5
57285,109607,5
57285,109619,4
57294,109619,5
57292,109579,5
57284,109615,5
57290,109601,5
57283,109601,4
57274,109550,5
57271,109588,5
57268,109569,5
57270,109579,5
57264,109536,5
57266,109574,4
57261,109575,5
57270,109573,5
57255,109587,6
57270,109571,3
57272,109582,5
57298,109607,5
57305,109673,5
57298,109621,4
57303,109623,5
57301,109629,5
57291,109651,5
57281,109587,5
57274,109586,4
57262,109543,5
57236,109517,5
57223,109480,5
57216,109472,5
57207,109475,4
57211,109466,5
57198,109457,5
57207,109447,5
57204,109442,5
57198,109440,4
57198,109428,6
57192,109418,4
57188,109415,5
57181,109409,4
57181,109398,5
57176,109407,5
57183,109397,5
57180,109393,5
57173,109379,4
57170,109368,5
57174,109366,5
57168,109364,5
57164,109349,5
57152,109341,4
57151,109335,5
57145,109322,5
57139,109322,5
57143,109307,5
57135,109310,4
57140,109305,5
57137,109318,5
57146,109312,5
57149,109319,5
57142,109330,4
57153,109322,5
57150,109316,6
57148,109312,4
57141,109299,4
57136,109298,5
57133,109292,5
57125,109283,5
57119,109267,5
57112,109258,4
57108,109263,5
57103,109258,5
57102,109250,5
57106,109253,5
57099,109260,4
57109,109262,5
57112,109257,5
57115,109261,5
57109,109260,5
57115,109275,4
57112,109271,5
57127,109283,5
57130,109298,5
57130,109298,5
57139,109308,4
57138,109308,5
57151,109323,5
57153,109333,6
57157,109336,3
57165,109340,4
57169,109347,5
57170,109354,5
57176,109363,5
57163,109369,4
57175,109365,5
57169,109357,5
57173,109354,5
57161,109344,5
57156,109330,4
57143,109315,5
57140,109306,5
57125,109299,5
57125,109285,5
57116,109273,4
57115,109269,5
57096,109261,5
57105,109258,5
57108,109264,5
57102,109265,5
57109,109279,4
57105,109265,5
57122,109287,5
57133,109310,4
57132,109319,4
57131,109308,5
57144,109320,5
57131,109322,5
57102,109294,4
57111,109278,5
57114,109261,5
57081,109226,5
57015,109174,5
57010,109111,4
57004,109098,5
56993,109084,5
56926,109043,5
56966,109035,5
56945,109020,4
56953,109021,5
56954,109020,5
56948,109028,5
56963,109059,5
56970,109062,4
57017,109054,6
56964,109058,4
56971,109061,5
56965,109055,4
57024,109075,4
56982,109073,5
56979,109070,5
56984,109072,5
56997,109076,4
56978,109061,5
56971,109070,5
56986,109072,5
56994,109073,5
56974,109066,4
56958,109029,5
56952,109021,5
56936,108982,5
56935,108995,5
56940,109014,4
56955,109032,5
56958,108990,5
56951,109042,5
56966,109056,5
56964,109055,4
56962,109018,5
56959,109058,6
56970,109067,4
56975,109071,4
56969,109070,5
56951,109000,5
56903,108927,5
56870,108895,5
56853,108907,4
56841,108863,5
56839,108864,5
56851,108861,5
56842,108923,5
56859,108882,4
56868,108889,5
56863,108899,5
56848,108862,5
56805,108787,5
56787,108737,4
56750,108686,5
56743,108667,5
56733,108650,5
56751,108676,5
56785,108749,4
56830,108826,5
56856,108865,5
56837,108817,5
56768,108660,4
56639,108407,4
56487,108155,5
56397,108023,5
56375,108003,5
56403,108086,4
56431,108098,5
56408,108051,5
56372,107992,5
56319,107885,5
56276,107797,4
56230,107741,5
56215,107724,5
56213,107708,5
56179,107671,5
56159,107646,4
56176,107659,5
56151,107571,5
56000,107256,5
55878,107066,5
55887,107127,5
55968,107275,4
56061,107455,5
56141,107574,5
56106,107469,4
55994,107250,4
55805,106895,5
55585,106469,5
55391,106169,5
55345,106115,4
55399,106252,5
55505,106427,5
55566,106511,5
55589,106539,5
55593,106549,4
55602,106566,5
55628,106629,5
55657,106711,5
55688,106710,5
55616,106555,4
55531,106444,5
55552,106492,5
55606,106610,5
55692,106761,5
55729,106767,4
55678,106697,6
55664,106681,4
55675,106724,5
55694,106757,4
55723,106810,5
55784,106930,5
55854,107028,5
55893,107129,5
55930,107173,4
55956,107223,5
55979,107243,5
55962,107210,5
55941,107179,5
55920,107142,4
55914,107137,5
55947,107217,5
56006,107309,5
56054,107405,5
56120,107537,4
56169,107606,5
56198,107661,5
56206,107688,5
56230,107700,5
56241,107716,4
56250,107747,5
56275,107787,5
56291,107806,5
56274,107797,4
56283,107798,5
56300,107835,5
56319,107855,5
56327,107893,5
56341,107924,4
56352,107959,5
56400,108004,5
56418,108040,5
56432,108059,5
56410,108080,4
56452,108091,9
56465,108117,1
56481,108147,5
56441,108165,5
56510,108183,4
56515,108192,5
56521,108203,5
56522,108211,5
56533,108225,5
56526,108220,4
56526,108218,5
56556,108219,5
56524,108216,5
56522,108214,4
56521,108218,5
56570,108214,5
56522,108227,5
56530,108229,5
56545,108256,4
56581,108280,5
56571,108294,5
56568,108304,5
56575,108293,5
56568,108270,4
56542,108258,5
56545,108258,5
56541,108228,5
56507,108177,5
56500,108187,4
56505,108192,6
56502,108189,4
56510,108164,5
56517,108197,5
56510,108210,6
56522,108213,3
56531,108199,5
56535,108253,5
56545,108263,4
56556,108276,5
56563,108288,5
56569,108298,5
56578,108300,5
56574,108316,4
56585,108355,5
56591,108318,5
56599,108329,5
56593,108344,5
56597,108392,4
56592,108331,5
56600,108345,5
56612,108351,5
56604,108377,5
56610,108348,4
56619,108366,5
56613,108383,6
56620,108375,4
56617,108379,5
56623,108403,4
56641,108401,5
56635,108415,5
56647,108424,5
56644,108413,4
56635,108405,5
56632,108398,5
56633,108386,5
56619,108382,5
56624,108382,4
56607,108365,5
56609,108360,5
56607,108351,5
56600,108346,5
56598,108349,4
56586,108336,5
56588,108335,5
56580,108329,5
56587,108331,5
56586,108337,4
56591,108330,5
56578,108349,5
56580,108333,6
56579,108337,4
56589,108334,4
56583,108341,5
56594,108344,5
56594,108357,5
56599,108360,4
56600,108367,5
56599,108366,5
56599,108356,5
56599,108361,5
56595,108349,4
56599,108351,5
56588,108344,5
56574,108320,5
56567,108306,5
56560,108286,4
56553,108274,5
56542,108271,5
56547,108265,5
56528,108248,5
56526,108244,5
56530,108253,4
56540,108271,5
56556,108282,5
56552,108291,6
56558,108296,3
56552,108284,5
56559,108281,5
56540,108259,5
56544,108263,4
56526,108231,5
56496,108180,5
56469,108159,5
56474,108154,5
56473,108169,4
56483,108172,5
56481,108169,5
56492,108185,5
56500,108201,5
56504,108227,4
56515,108229,5
56521,108247,5
56538,108274,5
56546,108281,5
56555,108310,4
56577,108344,6
56585,108361,4
56591,108387,5
56608,108400,5
56617,108426,4
56632,108432,5
56643,108455,5
56655,108478,5
56663,108475,4
56669,108501,5
56668,108505,5
56677,108514,5
56689,108527,5
56688,108542,4
56705,108568,5
56704,108575,5
56720,108593,5
56725,108599,5
56729,108600,4
56691,108616,5
56748,108630,5
56751,108650,5
56751,108646,5
56716,108657,4
56771,108671,5
56774,108688,6
56783,108694,4
56773,108695,5
56775,108695,4
56771,108692,5
56784,108691,5
56805,108687,5
56769,108683,4
56772,108685,5
56775,108686,5
56835,108700,5
56775,108695,5
56772,108685,4
56778,108688,5
56803,108704,5
56784,108715,5
56794,108732,5
56801,108735,4
56804,108734,5
56810,108753,5
56818,108753,5
56813,108775,5
56824,108744,4
56829,108779,5
56822,108771,5
56819,108763,6
56821,108729,4
56816,108761,4
56809,108765,5
56808,108750,5
56804,108704,5
56799,108733,4
56785,108703,5
56772,108672,5
56742,108656,5
56729,108636,5
56722,108609,4
56719,108600,5
56716,108629,5
56711,108581,5
56696,108577,5
56692,108554,4
56680,108587,5
56672,108537,5
56695,108566,5
56707,108584,5
56721,108627,5
56723,108605,4
56722,108605,5
56724,108588,5
56711,108576,5
56707,108586,4
56691,108555,5
56668,108514,5
56664,108498,5
56666,108501,4
56666,108513,5
56673,108515,5
56678,108523,5
56675,108522,5
56688,108548,4
56691,108553,5
56705,108575,5
56707,108583,5
56722,108594,5
56729,108612,4
56733,108624,5
56756,108631,5
56755,108657,5
56758,108661,5
56764,108668,4
56772,108668,6
56772,108688,4
56784,108689,5
56797,108694,5
56801,108725,4
56805,108746,5
56828,108749,5
56827,108755,5
56834,108768,4
56829,108787,5
56843,108787,5
56859,108798,5
56850,108790,5
56857,108805,4
56854,108806,5
56846,108803,5
56854,108800,5
56854,108810,5
56853,108791,4
56846,108797,5
56854,108791,5
56858,108800,5
56853,108796,5
56860,108801,4
56851,108799,5
56849,108797,6
56853,108798,4
56852,108797,5
56849,108787,4
56842,108794,5
56835,108785,5
56839,108791,5
56841,108786,4
56839,108781,5
56841,108778,5
56835,108789,5
56853,108793,5
56853,108803,4
56856,108797,5
56868,108815,5
56862,108818,5
56867,108828,5
56876,108848,4
56881,108843,5
56876,108851,5
56890,108869,5
56895,108877,5
56902,108880,4
56915,108901,5
56916,108904,5
56920,108910,5
56926,108915,5
56924,108916,4
56925,108916,5
56912,108914,5
56912,108888,5
56902,108888,4
56883,108876,5
56877,108844,5
56858,108824,5
56851,108803,5
56830,108778,4
56813,108756,5
56811,108757,5
56790,108741,5
56804,108739,5
56805,108726,4
56791,108725,5
56763,108714,5
56794,108726,5
56810,108747,5
56824,108773,5
56808,108813,4
56867,108835,5
56878,108859,5
56889,108877,4
56878,108874,4
56873,108861,5
56886,108870,5
56875,108851,5
56884,108822,4
56844,108800,5
56843,108806,5
56854,108822,5
56901,108833,5
56861,108852,4
56871,108856,5
56880,108856,5
56910,108868,5
56892,108883,5
56889,108901,4
56914,108930,5
56927,108938,5
56932,108958,5
56948,108990,5
56951,109004,4
56952,108996,6
56962,109027,4
56974,109038,5
56972,109030,4
56954,108975,4
56932,108968,5
56913,108925,5
56858,108845,5
56842,108769,4
56845,108817,5
56854,108836,5
56872,108882,5
56901,108924,5
56931,108963,4
56933,108958,5
56880,108844,5
56815,108771,5
56773,108689,5
56766,108708,4
56801,108757,5
56804,108792,5
56810,108781,5
56842,108827,5
56855,108858,4
56864,108884,5
56830,108788,5
56719,108542,5
56530,108213,4
56413,108070,4
56397,108054,5
56431,108112,5
56463,108136,5
56452,108124,4
56394,108012,5
56266,107761,5
56192,107690,5
56231,107754,5
56242,107739,4
56205,107694,5
56218,107737,5
56229,107740,5
56149,107622,5
56093,107515,4
56025,107392,5
56023,107412,5
56110,107573,5
56198,107720,5
56281,107860,4
56377,108041,5
56415,108068,5
56333,107898,5
56170,107565,4
55972,107235,4
55930,107238,5
56010,107404,5
56121,107594,5
56159,107599,4
56083,107443,5
55927,107163,5
55745,106821,5
55598,106572,5
55511,106457,4
55534,106535,5
55604,106635,5
55586,106562,5
55475,106381,5
55391,106230,4
55280,105997,6
55118,105679,4
54974,105468,5
55002,105557,5
54995,105491,6
54961,105471,3
55072,105712,5
55177,105821,5
55150,105765,4
55089,105676,4
55069,105615,5
54991,105430,5
54907,105331,5
54984,105509,4
55104,105711,5
55208,105919,5
55251,105914,5
55097,105657,5
54956,105401,4
54796,105073,5
54638,104839,5
54613,104825,5
54663,104912,5
54712,104981,4
54726,104998,5
54761,105097,6
54847,105279,4
54981,105533,5
55138,105815,4
55261,106025,5
55372,106222,5
55471,106350,5
55456,106323,4
55407,106196,4
55289,105970,8
55153,105743,2
54990,105426,5
54933,105364,4
54918,105367,5
54933,105387,5
54994,105517,5
55135,105794,5
55261,105999,4
55351,106155,5
55464,106343,5
55505,106394,5
55504,106400,5
55480,106341,4
55427,106232,5
55371,106158,5
55339,106163,6
55393,106215,4
55394,106205,4
55413,106237,5
55368,106195,5
55301,105937,5
55080,105570,4
54966,105405,4
54883,105309,5
54928,105398,5
55026,105564,5
55092,105653,4
55116,105650,5
55090,105645,5
54997,105446,5
54856,105166,5
54755,104946,4
54589,104737,5
54580,104764,5
54670,104900,5
54762,105028,5
54838,105223,5
54894,105282,4
54791,105017,5
54421,104285,5
54113,103873,6
54115,103892,3
54153,103964,5
54214,104085,5
54353,104352,5
54415,104403,4
54379,104394,4
54401,104383,5
54346,104282,5
54209,103988,5
54064,103789,4
54022,103658,5
54022,103731,5
54071,103827,5
54056,103781,5
53979,103664,4
53994,103694,5
53993,103672,5
53886,103462,5
53831,103446,5
53849,103443,4
53855,103459,6
53892,103509,4
53905,103580,5
53931,103592,5
53980,103656,4
53887,103434,5
53754,103269,5
53705,103195,5
53738,103285,4
53799,103392,4
53886,103596,5
54029,103863,5
54199,104142,5
54268,104236,4
54254,104197,5
54176,104060,5
54071,103884,5
54019,103816,5
54072,103960,4
54195,104181,5
54331,104405,5
54433,104589,5
54504,104658,5
54514,104692,4
54538,104744,5
54575,104835,6
54665,104993,4
54778,105198,5
54902,105432,4
55012,105600,5
55053,105671,5
55095,105735,5
55151,105839,4
55216,105959,4
55291,106089,5
55372,106227,5
55427,106303,5
55446,106310,4
55417,106251,5
55402,106246,5
55422,106299,5
55476,106392,5
55540,106515,4
55621,106641,5
55691,106772,5
55750,106882,5
55808,106967,5
55846,107022,4
55865,107043,5
55839,106997,5
55841,106989,6
55833,106998,4
55845,107022,4
55863,107034,5
55868,107058,5
55890,107096,5
55920,107144,4
55940,107180,4
55960,107218,5
55980,107249,5
55994,107265,5
56003,107296,4
56008,107303,5
56012,107318,5
56026,107338,5
56037,107356,5
56054,107356,4
56055,107364,5
56055,107378,5
56063,107381,5
56069,107398,5
56080,107428,5
56096,107437,4
56096,107450,5
56100,107436,5
56092,107438,5
56089,107437,4
56094,107423,5
56086,107420,5
56085,107416,5
56078,107419,4
56091,107425,5
56102,107438,5
56092,107449,5
56097,107445,5
56102,107463,4
56117,107477,5
56118,107493,5
56119,107463,5
56111,107463,5
56108,107462,4
56125,107498,5
56143,107523,5
56141,107524,5
56145,107525,5
56137,107521,4
56139,107522,6
56136,107508,4
56131,107484,5
56091,107472,5
56094,107433,4
56074,107403,5
56060,107392,5
56020,107385,5
56060,107386,4
56063,107391,5
56062,107397,5
56049,107395,5
56077,107398,5
56083,107413,4
56088,107421,5
56118,107445,5
56104,107443,5
56112,107458,5
56121,107452,4
56164,107468,5
56120,107471,5
56130,107474,5
56133,107479,5
56162,107473,4
56114,107469,5
56121,107462,6
56120,107463,4
56124,107463,5
56126,107457,4
56129,107466,5
56127,107478,5
56129,107486,5
56138,107507,4
56133,107485,5
56156,107534,5
56165,107514,5
56153,107529,5
56152,107528,4
56158,107540,5
56140,107478,5
56152,107512,5
56154,107517,5
56136,107504,4
56141,107494,5
56132,107491,5
56115,107484,5
56119,107464,5
56112,107478,4
56104,107452,5
56093,107442,5
56091,107414,5
56086,107463,5
56080,107414,4
56069,107404,5
56069,107399,5
56068,107439,5
56072,107386,4
56066,107381,5
56054,107374,5
56070,107382,5
56068,107391,5
56069,107388,4
56069,107395,5
56081,107390,5
56078,107395,5
56080,107396,5
56073,107378,4
56071,107367,5
56054,107366,5
56057,107356,5
56047,107331,5
56036,107326,5
56025,107308,4
56018,107287,5
56002,107275,5
55989,107267,5
55982,107252,4
55983,107240,5
55978,107228,5
55976,107216,5
55972,107225,4
55979,107240,5
55993,107253,5
55988,107253,5
55994,107251,5
55999,107250,4
55978,107226,5
55975,107214,5
55962,107199,5
55937,107167,5
55906,107112,4
55895,107092,5
55885,107081,5
55885,107080,5
55883,107077,5
55886,107074,4
55874,107074,6
55874,107069,4
55884,107079,5
55885,107075,5
55883,107079,4
55886,107084,5
55890,107084,5
55888,107074,5
55889,107087,4
55883,107085,5
55883,107090,5
55888,107080,5
55896,107088,5
55897,107093,4
55901,107105,5
55897,107098,5
55902,107103,5
55912,107102,5
55914,107115,4
55919,107118,5
55921,107126,5
55927,107135,5
55932,107137,5
55931,107144,4
55940,107158,5
55955,107175,5
55951,107161,5
55941,107175,5
55942,107178,4
55933,107153,5
55938,107153,5
55934,107139,5
55938,107139,4
55915,107132,5
55912,107129,5
55903,107104,5
55891,107084,5
55883,107071,4
55884,107080,5
55882,107075,5
55873,107061,5
55866,107065,5
55867,107059,4
55874,107063,5
55881,107058,5
55872,107063,5
55861,107061,5
55866,107062,4
55868,107061,5
55875,107071,5
55876,107070,5
55877,107070,5
55843,107073,4
55879,107091,5
55890,107085,5
55890,107087,5
55844,107089,4
55897,107103,5
55887,107103,5
55900,107113,5
55877,107121,5
55898,107122,4
55903,107114,5
55907,107125,5
55931,107123,5
55911,107130,5
55912,107133,4
55912,107137,6
55961,107132,4
55904,107120,5
55887,107098,5
55889,107089,6
55903,107076,3
55860,107044,5
55836,107010,5
55816,106990,5
55819,106967,4
55786,106954,5
55779,106944,5
55767,106917,5
55760,106881,4
55739,106866,5
55733,106870,5
55738,106880,5
55752,106878,5
55780,106942,4
55814,106990,5
55828,107014,5
55846,106987,5
55860,107044,5
55860,107046,4
55856,107041,5
55845,107021,6
55855,107039,4
55830,107002,5
55806,106970,4
55796,106991,5
55800,106964,5
55799,106975,5
55792,106963,5
55792,107005,4
55795,106960,5
55795,106969,5
55806,106967,5
55802,107012,4
55815,106986,5
55814,106982,5
55814,106994,5
55823,107010,5
55827,107005,4
55826,107017,5
55834,107020,5
55847,107010,5
55844,107031,5
55849,107035,4
55856,107039,5
55852,107049,5
55870,107061,6
55873,107076,4
55880,107068,4
55882,107083,5
55893,107098,5
55897,107101,5
55898,107116,5
55905,107130,4
55909,107130,5
55926,107149,5
55924,107137,5
55921,107155,4
55930,107162,5
55926,107156,5
55933,107144,5
55934,107159,5
55921,107155,4
55922,107144,5
55915,107145,5
55918,107140,5
55914,107138,5
55911,107120,5
55918,107130,4
55910,107125,5
55911,107138,5
55913,107143,6
55912,107142,3
55914,107136,5
55915,107144,5
55922,107146,5
55919,107146,5
55915,107150,4
55922,107160,5
55917,107154,5
55928,107173,5
55927,107186,4
55938,107193,5
55944,107197,5
55952,107202,5
55958,107210,5
55960,107205,4
55954,107212,5
55960,107212,5
55955,107225,5
55963,107214,5
55954,107224,4
55970,107229,11
55965,107228,4
55970,107230,5
55965,107236,4
55966,107230,5
55973,107228,5
55979,107235,5
55963,107234,4
55962,107218,4
55954,107218,5
55955,107219,5
55952,107198,5
55933,107171,4
55918,107163,5
55900,107124,5
55902,107117,5
55869,107080,5
55861,107065,4
55852,107052,5
55845,107039,5
55832,107007,5
55812,106992,5
55795,106963,4
55790,106956,5
55785,106964,6
55804,106989,4
55821,107007,5
55843,107044,4
55854,107069,5
55873,107107,5
55879,107125,5
55901,107151,5
55910,107150,4
55912,107154,5
55870,107133,5
55893,107137,5
55883,107120,4
55869,107079,5
55813,107070,5
55853,107068,5
55865,107079,5
55869,107076,4
55835,107092,5
55865,107089,5
55871,107094,5
55872,107105,5
55894,107106,4
55881,107122,5
55896,107135,5
55904,107147,6
55957,107145,4
55909,107168,4
55923,107169,5
55925,107180,5
55964,107182,5
55937,107188,4
55947,107204,4
55953,107212,5
55975,107228,5
55964,107237,5
55978,107246,4
55995,107267,5
55993,107264,5
56004,107279,5
55997,107283,5
56010,107304,4
56013,107283,5
56029,107334,5
56025,107336,5
56040,107339,5
56034,107297,5
56036,107340,4
56042,107343,5
56042,107348,5
56036,107323,5
56046,107354,4
56042,107351,5
56045,107352,5
56034,107372,5
56035,107345,4
56040,107340,4
56032,107330,5
56028,107376,5
56021,107323,5
56032,107330,4
56027,107317,5
56021,107361,5
56026,107320,5
56013,107322,5
56024,107316,4
56025,107331,5
56026,107321,5
56026,107323,5
56030,107328,5
56025,107317,4
56027,107343,6
56034,107338,4
56041,107356,5
56052,107363,5
56058,107367,4
56055,107375,5
56066,107383,5
56071,107378,5
56052,107374,4
56068,107382,4
56069,107382,5
56069,107379,5
56073,107382,5
56066,107394,4
56069,107391,5
56073,107407,5
56079,107406,5
56084,107409,5
56087,107417,4
56085,107430,5
56092,107437,5
56096,107437,5
56090,107439,5
56087,107427,4
56090,107414,5
56060,107389,6
56059,107381,4
56045,107374,5
56038,107355,4
56028,107333,5
56020,107328,5
56007,107313,5
55999,107306,4
55998,107297,4
55997,107290,5
55984,107281,5
55985,107266,5
55985,107274,4
55977,107279,5
56002,107295,5
56004,107305,5
56028,107334,5
56022,107336,4
56028,107347,5
56029,107342,5
56020,107326,5
56009,107309,5
56010,107308,4
55995,107275,5
55962,107242,5
55954,107221,5
55959,107224,5
55965,107230,4
55965,107225,5
55961,107241,5
55965,107241,5
55969,107239,4
55969,107251,4
55984,107271,5
55990,107284,5
56003,107299,5
56016,107312,4
56016,107317,5
56024,107326,5
56034,107335,5
56040,107354,5
56040,107361,4
56056,107375,5
56075,107392,5
56079,107400,5
56083,107420,5
56098,107428,5
56098,107447,4
56107,107462,5
56107,107475,5
56123,107484,5
56124,107477,4
56132,107491,5
56126,107491,5
56134,107500,5
56133,107510,5
56141,107511,4
56135,107502,5
56131,107514,5
56103,107501,5
56131,107487,4
56125,107487,5
56129,107486,5
56082,107483,5
56104,107480,5
56116,107471,4
56114,107472,5
56073,107477,5
56108,107470,5
56109,107475,5
56098,107479,4
56117,107481,6
56112,107493,4
56116,107497,5
56109,107502,5
56159,107496,4
56114,107499,5
56109,107500,5
56126,107501,5
56172,107522,4
56134,107535,4
56142,107559,5
56156,107574,5
56190,107610,5
56196,107642,4
56213,107674,5
56230,107697,5
56251,107727,5
56262,107768,5
56288,107788,4
56288,107803,5
56288,107786,5
56299,107827,5
56313,107849,5
56329,107856,4
56322,107837,5
56334,107887,5
56337,107895,5
56349,107910,5
56366,107887,4
56360,107919,5
56373,107945,5
56381,107953,5
56369,107976,4
56378,107940,4
56362,107937,5
56361,107921,5
56351,107956,5
56340,107894,4
56174,107656,5
56177,107656,5
56175,107695,5
56175,107642,5
56174,107628,4
56164,107623,5
56155,107630,5
56150,107608,5
56167,107648,5
56188,107704,4
56202,107724,5
56204,107734,5
56223,107745,5
56220,107773,5
56237,107800,4
56250,107814,5
56256,107824,5
56267,107823,5
56260,107811,4
56246,107818,4
56255,107816,5
56234,107791,5
56228,107770,5
56219,107777,4
56241,107783,5
56247,107798,5
56258,107827,5
56272,107859,5
56301,107884,4
56316,107919,6
56341,107945,4
56357,107985,5
56384,108037,5
56410,108067,6
56437,108111,3
56465,108156,5
56497,108203,5
56513,108230,5
56539,108258,4
56559,108275,5
56574,108312,5
56597,108342,5
56624,108383,4
56645,108398,4
56662,108437,5
56681,108459,5
56688,108478,5
56699,108483,4
56707,108505,5
56712,108512,5
56724,108519,5
56735,108535,5
56735,108543,4
56745,108559,5
56750,108569,6
56763,108582,4
56778,108607,5
56779,108610,4
56765,108616,7
56780,108628,3
56787,108624,5
56785,108637,5
56789,108632,4
56788,108627,5
56777,108628,5
56780,108629,5
56784,108610,5
56777,108601,4
56768,108608,5
56770,108612,5
56766,108598,5
56778,108606,4
56760,108600,5
56761,108581,5
56761,108597,5
56759,108586,5
56760,108586,4
56753,108566,5
56734,108518,5
56693,108479,6
56674,108437,4
56668,108411,4
56661,108428,5
56671,108437,5
56678,108439,5
56665,108421,5
56664,108423,4
56680,108449,5
56688,108463,5
56680,108419,5
56626,108340,4
56574,108277,4
56549,108192,5
56530,108168,5
56517,108162,5
56485,108152,4
56493,108139,5
56481,108121,5
56489,108126,5
56452,108152,5
56495,108132,5
56469,108068,4
56403,107961,5
56306,107859,5
56297,107792,6
56284,107787,3
56295,107815,5
56357,107886,5
56367,107931,5
56379,107941,5
56384,107966,4
56443,107965,5
56383,107952,5
56372,107940,5
56370,107921,4
56385,107889,4
56328,107862,5
56295,107805,5
56234,107676,5
56174,107574,4
56122,107512,5
56104,107488,5
56093,107487,5
56111,107508,5
56123,107551,4
56150,107592,6
56186,107640,4
56205,107641,5
56229,107718,5
56254,107742,6
56268,107759,3
56257,107701,5
56228,107663,5
56180,107592,5
56161,107571,4
56156,107531,5
56168,107587,5
56180,107616,5
56197,107635,4
56215,107705,4
56238,107712,5
56238,107701,5
56229,107676,5
56204,107668,4
56192,107605,5
56197,107604,5
56186,107613,5
56183,107642,5
56167,107575,4
56160,107563,5
56148,107543,6
56133,107541,4
56134,107526,5
56125,107519,4
56132,107516,5
56132,107521,5
56108,107480,5
56085,107443,5
56081,107434,4
56073,107444,5
56072,107442,5
56062,107423,5
56062,107413,4
56060,107390,4
56010,107288,5
55925,107147,5
55867,107088,5
55866,107077,4
55891,107116,5
55908,107150,5
55933,107186,5
55945,107181,5
55884,107062,4
55811,106959,5
55764,106867,5
55721,106801,6
55706,106778,4
55726,106822,4
55782,106927,5
55829,107001,5
55815,106949,5
55715,106735,5
55513,106385,4
55366,106169,5
55346,106173,5
55390,106266,5
55443,106338,4
55444,106308,4
55406,106254,9
55397,106269,1
55426,106318,5
55490,106432,4
55558,106570,5
55609,106605,5
55599,106575,5
55580,106558,5
55565,106535,5
55561,106525,4
55571,106556,5
55575,106578,5
55587,106584,6
55599,106598,3
55604,106610,5
55604,106613,5
55593,106585,5
55571,106545,5
55559,106546,4
55568,106563,5
55585,106590,5
55613,106623,5
55632,106659,4
55659,106711,4
55693,106745,5
55709,106779,5
55723,106807,5
55740,106826,4
55747,106845,5
55748,106869,5
55779,106881,5
55784,106910,5
55802,106924,4
55810,106934,6
55819,106944,4
55823,106968,5
55836,106975,5
55839,106989,4
55848,106994,5
55859,107020,5
55867,107025,5
55871,107043,5
55886,107050,4
55886,107043,5
55878,107028,5
55861,107016,5
55867,107010,4
55861,107000,4
55858,106992,5
55855,106990,5
55846,106984,5
55848,106985,4
55810,106984,5
55842,106978,5
55826,106967,5
55829,106965,5
55792,106960,4
55844,106965,5
55846,106971,6
55846,106977,4
55805,106973,5
55846,106971,4
55840,106984,5
55853,106981,5
55863,106988,5
55841,106982,5
55849,106982,4
55840,106982,5
55890,106988,5
55840,106984,5
55844,106974,4
55831,106973,5
55879,106968,5
55837,106964,5
55831,106963,5
55826,106950,4
55833,106932,5
55809,106938,5
55820,106946,5
55819,106926,5
55813,106926,4
55811,106935,5
55808,106917,5
55808,106931,5
55825,106910,5
55837,106970,4
55847,106975,5
55832,106970,5
55830,106914,5
55821,106936,5
55805,106928,4
55805,106902,5
55785,106826,5
55750,106825,5
55743,106801,4
55742,106784,5
55737,106815,5
55736,106782,5
55720,106770,5
55728,106774,4
55724,106813,5
55723,106779,5
55718,106782,5
55739,106782,5
55733,106825,5
55740,106789,4
55729,106789,5
55742,106804,5
55742,106833,5
55748,106825,4
55756,106813,5
55755,106823,5
55752,106830,5
55759,106838,4
55773,106844,4
55775,106852,5
55779,106863,5
55791,106876,5
55797,106882,4
55800,106902,5
55801,106903,5
55808,106915,5
55810,106904,5
55820,106937,4
55830,106931,5
55825,106936,5
55823,106929,5
55819,106926,5
55804,106929,4
55814,106924,6
55814,106934,4
55821,106931,5
55807,106923,5
55807,106908,4
55804,106912,5
55782,106895,5
55774,106878,5
55778,106868,4
55771,106857,4
55767,106860,5
55758,106842,5
55746,106830,5
55749,106827,4
55751,106831,5
55745,106811,5
55743,106816,5
55744,106811,5
55731,106814,4
55745,106815,5
55747,106822,5
55747,106817,5
55743,106813,5
55746,106813,4
55742,106805,5
55729,106795,5
55731,106806,5
55713,106782,5
55706,106773,4
55702,106751,5
55690,106735,5
55676,106734,5
55675,106706,4
55666,106705,5
55661,106680,5
55644,106681,5
55659,106695,5
55682,106737,4
55699,106753,5
55706,106768,5
55717,106788,5
55723,106788,5
55706,106777,4
55714,106781,5
55708,106772,5
55688,106728,5
55664,106690,5
55660,106685,4
55657,106682,5
55660,106680,5
55642,106679,5
55646,106672,5
55645,106678,4
55655,106673,5
55659,106684,5
55665,106698,5
55674,106704,4
55686,106713,5
55684,106722,5
55686,106723,5
55698,106738,5
55703,106736,4
55704,106746,5
55707,106752,5
55717,106771,5
55729,106772,5
55723,106791,4
55738,106799,5
55702,106804,4
55740,106804,5
55738,106804,5
55748,106813,5
55711,106817,3
55763,106831,5
55770,106847,5
55784,106871,4
55775,106866,4
55801,106897,5
55804,106917,5
55812,106924,5
55835,106928,4
55812,106914,5
55814,106918,5
55812,106929,5
55874,106928,5
55821,106925,4
55823,106935,5
55816,106935,5
55856,106942,5
55814,106940,5
55812,106925,4
55806,106922,5
55808,106907,6
55811,106926,4
55800,106919,5
55815,106935,4
55814,106916,5
55821,106932,5
55810,106936,5
55821,106942,4
55822,106906,5
55820,106937,5
55826,106954,5
55824,106953,5
55836,106920,4
55839,106980,5
55850,106981,5
55851,106989,5
55852,106989,5
55858,107008,4
55860,107000,5
55860,106991,5
55855,107023,5
55850,106995,5
55852,106990,4
55843,106964,5
55824,106991,5
55810,106920,6
55781,106873,4
55763,106858,4
55750,106860,5
55737,106816,5
55729,106811,5
55728,106808,4
55740,106819,5
55724,106796,5
55720,106795,5
55722,106812,5
55748,106824,4
55758,106863,5
55781,106895,5
55802,106918,5
55815,106945,5
55818,106959,4
55836,106972,5
55838,106988,5
55825,106965,5
55833,106986,5
55830,106966,5
55805,106930,4
55785,106912,5
55787,106922,5
55787,106923,6
55787,106911,3
55781,106907,5
55777,106901,5
55770,106880,5
55761,106871,4
55743,106856,5
55732,106834,5
55709,106803,5
55681,106745,5
55648,106697,4
55600,106613,5
55536,106479,5
55484,106396,5
55476,106387,5
55477,106404,4
55471,106404,5
55462,106378,5
55419,106292,5
55350,106174,5
55297,106088,4
55255,105998,6
55148,105795,4
55062,105692,5
55073,105695,4
55044,105647,5
55015,105588,5
55029,105666,5
55087,105732,5
54996,105490,4
54782,105117,5
54705,105048,5
54769,105179,5
54858,105341,5
54936,105509,4
55040,105668,5
55109,105768,5
55019,105539,5
54815,105164,5
54637,104868,4
54564,104782,5
54562,104801,5
54559,104787,5
54503,104667,5
54454,104609,4
54425,104556,5
54416,104565,6
54469,104675,4
54548,104811,4
54588,104865,5
54600,104886,5
54599,104850,5
54451,104544,5
54294,104326,4
54290,104380,5
54398,104586,5
54551,104836,5
54632,104941,5
54555,104758,4
54449,104626,5
54395,104483,5
54270,104245,5
54214,104218,5
54313,104435,4
54478,104697,5
54619,104917,5
54691,105051,5
54724,105156,5
54798,105240,4
54832,105310,5
54876,105397,5
54883,105479,6
54990,105600,3
55059,105709,5
55045,105666,5
54966,105613,5
54986,105580,5
54958,105537,4
54951,105522,5
54967,105541,5
54988,105598,5
55026,105653,5
55051,105709,4
55143,105786,5
55172,105913,5
55248,106019,5
55302,106123,5
55403,106225,4
55403,106294,5
55433,106341,5
55459,106375,5
55497,106408,4
55486,106426,5
55490,106448,4
55508,106474,5
55533,106504,5
55544,106530,4
55563,106575,5
55583,106597,5
55607,106599,5
55627,106661,5
55637,106689,4
55650,106695,5
55667,106695,5
55685,106760,5
55701,106784,5
55718,106801,4
55729,106779,5
55737,106824,5
55734,106832,5
55748,106862,5
55755,106871,4
55755,106876,5
55757,106885,5
55778,106899,5
55792,106958,4
55802,106941,5
55814,106965,6
55820,106989,4
55843,107075,5
55860,107044,4
55883,107076,5
55897,107110,5
55898,107145,5
55910,107139,5
55924,107144,4
55923,107144,5
55907,107135,5
55897,107108,5
55893,107107,5
55894,107107,4
55875,107075,5
55828,107011,5
55792,106931,5
55754,106882,4
55732,106850,4
55697,106766,5
55635,106679,5
55605,106615,5
55552,106535,4
55531,106492,5
55509,106445,5
55447,106355,6
55406,106296,4
55378,106242,4
55357,106207,5
55338,106165,5
55318,106148,7
55318,106177,3
55353,106214,4
55289,106035,5
55148,105835,5
55121,105823,5
55159,105901,5
55207,105956,4
55168,105899,5
55157,105878,5
55154,105828,5
55009,105557,4
54841,105275,5
54802,105261,5
54869,105390,5
54932,105486,5
54980,105554,5
55024,105649,4
55098,105771,5
55160,105851,5
55196,105917,5
55222,105994,4
55261,106046,5
55237,105967,5
55151,105844,5
55088,105754,5
55050,105686,4
55025,105648,5
55052,105692,5
55017,105628,5
54966,105538,5
54952,105535,4
54958,105544,5
54961,105556,5
55003,105630,5
55005,105602,4
54952,105532,5
54954,105563,5
55005,105654,5
55078,105780,5
55163,105944,4
55255,106108,6
55348,106223,4
55405,106332,5
55437,106367,5
55391,106266,4
55349,106202,5
55341,106208,5
55344,106220,5
55350,106212,5
55349,106216,4
55357,106242,5
55366,106239,5
55314,106154,5
55209,105939,4
55101,105811,4
55098,105817,5
55137,105880,5
55201,105978,5
55272,106132,4
55360,106272,5
55409,106364,5
55439,106384,5
55453,106398,5
55453,106412,4
55445,106448,5
55498,106478,6
55496,106471,4
55495,106471,5
55476,106516,4
55547,106567,5
55582,106612,5
55601,106658,5
55615,106723,5
55642,106723,4
55656,106736,5
55658,106745,5
55694,106781,5
55695,106813,4
55714,106868,5
55751,106917,5
55825,106963,5
55808,107003,5
55828,107029,4
55849,107050,5
55874,107036,5
55833,107021,5
55817,107019,5
55831,107037,4
55856,107062,5
55859,107083,5
55878,107101,5
55884,107129,5
55907,107157,4
55914,107182,5
55913,107183,5
55935,107222,5
55942,107200,5
55947,107260,4
55975,107292,5
55981,107309,5
55991,107288,5
56007,107348,4
56020,107377,5
56031,107386,5
56035,107413,5
56061,107442,5
56069,107452,4
56079,107470,5
56093,107526,5
56097,107508,5
56111,107519,5
56122,107542,5
56128,107601,4
56131,107558,5
56127,107561,5
56145,107590,5
56153,107635,4
56153,107619,5
56166,107640,5
56181,107648,5
56189,107662,4
56190,107667,4
56194,107668,5
56189,107657,5
56179,107656,5
56176,107650,4
56172,107634,5
56169,107635,5
56157,107623,5
56134,107608,5
56128,107586,4
56127,107574,5
56114,107562,5
56103,107557,4
56103,107562,5
56106,107552,4
56105,107548,6
56102,107556,3
56094,107538,5
56088,107535,5
56081,107527,4
56088,107547,5
56098,107560,5
56107,107573,5
56118,107582,4
56125,107601,4
56125,107602,5
56107,107583,5
56103,107567,5
56103,107568,4
56080,107556,5
56072,107530,5
56065,107533,5
56071,107550,5
56074,107559,4
56089,107584,5
56107,107603,5
56118,107624,6
56130,107637,4
56147,107666,4
56154,107689,5
56180,107709,5
56196,107728,5
56216,107755,5
56227,107790,4
56244,107815,5
56267,107843,5
56288,107869,5
56294,107910,4
56319,107925,5
56328,107953,5
56342,107969,5
56359,107988,5
56372,108007,4
56382,108030,5
56396,108058,5
56405,108073,5
56411,108098,5
56428,108110,5
56451,108140,4
56459,108167,5
56470,108171,5
56478,108189,6
56476,108194,3
56483,108207,5
56485,108201,5
56477,108199,5
56478,108185,4
56473,108193,4
56471,108189,5
56474,108182,5
56477,108176,5
56473,108170,4
56471,108168,5
56461,108153,5
56465,108151,5
56453,108131,5
56449,108120,4
56443,108115,5
56432,108099,5
56430,108099,5
56426,108094,5
56427,108081,4
56426,108091,6
56431,108094,4
56419,108102,5
56436,108113,5
56438,108113,6
56444,108109,3
56401,108111,5
56444,108110,5
56444,108113,4
56445,108110,4
56405,108115,5
56457,108134,5
56451,108133,5
56460,108132,4
56463,108132,5
56453,108124,5
56452,108126,5
56450,108117,5
56483,108105,4
56444,108098,5
56431,108075,5
56419,108057,5
56443,108020,5
56381,108000,4
56363,107974,5
56336,107938,6
56355,107929,4
56318,107904,5
56294,107887,4
56293,107881,5
56305,107871,5
56294,107877,5
56298,107886,4
56297,107870,5
56288,107850,5
56280,107864,5
56274,107865,5
56301,107876,4
56300,107831,5
56289,107859,5
56275,107857,5
56278,107846,5
56267,107767,8
56244,107787,5
56229,107752,5
56194,107702,5
56151,107689,8
56151,107689,5
56145,107620,5
56134,107607,5
56136,107602,8
56140,107649,5
56142,107602,5
56128,107593,8
56120,107577,5
56127,107600,5
56144,107581,8
56139,107589,5
56132,107599,5
56143,107597,5
56169,107638,8
56169,107638,5
56192,107646,5
56197,107655,8
56190,107645,5
56162,107651,5
56188,107657,5
56187,107666,8
56185,107678,5
56178,107659,5
56184,107663,8
56188,107662,5
56188,107658,5
56167,107644,8
56167,107644,5
56169,107627,5
56150,107626,5
56137,107609,8
56144,107594,5
56138,107593,5
56147,107587,8
56130,107584,5
56140,107580,5
56141,107582,5
56151,107598,8
56140,107594,5
56139,107580,5
56136,107590,8
56136,107590,5
56143,107593,5
56145,107604,8
56155,107622,5
56151,107610,5
56156,107601,5
56153,107614,8
56173,107612,5
56174,107615,5
56160,107625,8
56159,107625,5
56172,107637,5
56167,107630,5
56125,107559,8
56125,107559,5
56120,107530,5
56109,107497,8
56138,107593,5
56097,107520,5
56124,107534,5
56093,107535,8
56085,107537,5
56100,107537,5
56105,107540,8
56099,107541,5
56098,107537,5
56118,107548,8
56118,107548,5
56112,107517,5
56098,107515,5
56083,107487,8
56050,107444,5
56025,107400,5
55996,107373,8
56006,107350,5
55986,107368,5
55980,107332,5
55971,107305,8
55973,107308,5
55977,107302,5
55984,107319,8
55984,107319,5
55950,107331,5
55991,107333,8
55984,107334,5
56003,107341,5
55969,107378,5
56002,107356,8
56005,107327,5
56014,107341,5
56036,107370,8
56037,107384,5
56037,107384,5
56032,107404,5
56035,107390,8
56082,107392,5
56035,107396,5
56039,107393,8
56038,107386,5
56043,107381,5
56006,107350,8
56020,107358,5
56025,107353,5
56009,107327,5
55966,107270,8
55966,107270,5
55949,107250,5
55953,107255,8
55953,107212,5
55955,107261,5
55938,107247,5
55934,107224,8
55933,107210,5
55938,107216,5
55934,107217,8
55927,107220,5
55918,107240,5
55933,107201,8
55933,107201,5
55938,107207,5
55935,107209,2
55939,107239,2
55939,107239,2
55934,107196,5
55919,107182,5
55910,107181,4
55908,107183,5
55895,107147,5
55887,107143,5
55877,107119,5
55862,107126,4
55860,107114,5
55850,107100,5
55853,107086,5
55830,107068,5
55830,107065,4
55833,107051,5
55830,107052,5
55812,107052,10
55810,107054,4
55826,107064,5
55835,107061,5
55828,107058,5
55828,107058,4
55817,107039,5
55808,107029,5
55800,107005,5
55777,106981,5
55752,106932,4
55719,106879,5
55697,106861,5
55691,106839,5
55691,106832,5
55683,106813,4
55673,106811,5
55656,106796,5
55669,106798,5
55674,106791,4
55667,106796,4
55665,106800,5
55673,106802,5
55682,106815,5
55680,106811,5
55673,106813,4
55679,106808,5
55680,106814,5
55686,106813,5
55697,106825,4
55694,106841,5
55712,106855,5
55723,106865,5
55728,106877,5
55725,106890,4
55743,106891,5
55735,106903,5
55734,106904,5
55747,106920,5
55757,106925,4
55764,106929,5
55761,106937,5
55775,106947,5
55765,106943,4
55760,106953,5
55766,106943,5
55760,106929,5
55757,106923,5
55740,106913,4
55743,106910,7
55728,106898,3
55721,106884,5
55713,106873,5
55703,106864,4
55699,106869,5
55705,106854,5
55704,106846,5
55705,106855,5
55708,106866,4
55698,106860,5
55697,106864,5
55694,106840,5
55690,106848,5
55684,106853,4
55686,106830,5
55684,106843,5
55691,106859,5
55691,106858,4
55709,106873,5
55708,106876,5
55714,106889,5
55718,106894,5
55717,106897,4
55719,106894,5
55723,106915,5
55736,106917,5
55742,106928,5
55704,106927,4
55746,106931,5
55742,106928,5
55743,106926,5
55695,106922,5
55725,106912,4
55722,106900,5
55702,106875,5
55676,106847,5
55671,106822,4
55640,106789,4
55617,106761,5
55627,106710,5
55580,106677,5
55563,106644,5
55535,106606,4
55564,106567,5
55509,106555,5
55499,106566,6
55507,106575,3
55551,106613,5
55555,106664,5
55572,106691,5
55592,106713,5
55614,106742,4
55607,106759,5
55614,106752,5
55605,106744,5
55584,106689,5
55533,106614,4
55481,106529,5
55451,106495,5
55446,106446,5
55433,106475,4
55440,106476,5
55447,106496,5
55443,106444,5
55415,106443,5
55401,106423,4
55402,106417,6
55395,106417,4
55412,106436,5
55431,106466,5
55457,106504,6
55475,106577,3
55486,106543,5
55492,106559,5
55490,106549,5
55470,106577,4
55475,106512,5
55462,106499,5
55461,106521,5
