RED,IR,EKG,TIME
38681,72453,10
38684,72459,9
38674,72469,5
38684,72464,8
38690,72423,5
38686,72450,5
38682,72478,8
38677,72442,5
38677,72442,5
38666,72420,5
38649,72389,8
38656,72367,5
38630,72353,5
38628,72341,8
38622,72341,5
38630,72338,5
38619,72291,5
38621,72341,8
38638,72348,5
38641,72349,5
38637,72372,8
38637,72372,5
38645,72362,5
38642,72364,5
38644,72365,8
38678,72371,5
38648,72375,5
38631,72360,8
38637,72339,5
38631,72368,5
38637,72366,8
38628,72367,5
38629,72334,5
38637,72339,5
38631,72362,8
38631,72362,5
38672,72353,5
38648,72372,8
38618,72353,5
38622,72340,5
38632,72349,5
38623,72364,8
38629,72362,5
38633,72358,5
38632,72351,8
38631,72352,5
38638,72360,5
38639,72374,8
38639,72374,5
38622,72368,5
38619,72372,5
38634,72375,8
38640,72385,5
38650,72386,5
38646,72395,8
38641,72388,5
38651,72404,5
38649,72406,5
38671,72414,8
38656,72417,5
38659,72414,5
38669,72436,8
38669,72436,5
38670,72448,5
38676,72454,8
38680,72463,5
38679,72432,5
38675,72432,5
38677,72434,8
38698,72433,5
38683,72440,5
38668,72421,8
38666,72432,5
38661,72436,5
38674,72441,5
38668,72430,8
38668,72430,5
38666,72391,5
38673,72403,8
38666,72429,5
38663,72425,5
38662,72418,8
38637,72426,5
38663,72429,5
38673,72431,5
38666,72435,8
38670,72428,5
38668,72409,5
38638,72369,8
38638,72369,5
38640,72345,5
38631,72339,5
38632,72335,8
38611,72321,5
38610,72320,5
38615,72314,8
38619,72332,5
38617,72350,5
38621,72335,8
38625,72346,5
38633,72354,5
38648,72386,5
38648,72386,8
38656,72389,5
38653,72391,5
38643,72395,5
38651,72394,0
38655,72385,3
38643,72364,5
38618,72335,5
38606,72286,5
38591,72259,4
38574,72248,5
38574,72221,5
38562,72227,5
38554,72219,5
38553,72213,4
38561,72210,5
38566,72218,5
38547,72213,5
38554,72208,5
38557,72206,4
38555,72205,5
38545,72208,5
38558,72215,5
38562,72220,5
38557,72221,5
38556,72214,4
38560,72229,5
38567,72218,5
38564,72215,5
38572,72216,4
38566,72223,5
38560,72219,5
38563,72213,5
38571,72217,4
38556,72215,5
38548,72206,5
38545,72205,5
38564,72196,5
38551,72202,4
38550,72189,5
38542,72195,5
38556,72203,5
38555,72208,5
38548,72193,4
38553,72193,5
38544,72182,5
38547,72190,5
38544,72185,5
38540,72184,4
38550,72176,6
38536,72191,4
38535,72184,5
38539,72188,4
38538,72166,4
38548,72188,5
38548,72187,5
38551,72200,5
38552,72200,4
38556,72204,5
38552,72200,5
38559,72204,5
38560,72220,5
38561,72215,4
38561,72214,5
38560,72227,5
38564,72246,5
38562,72225,5
38569,72242,4
38564,72239,5
38572,72252,5
38578,72238,6
38573,72259,4
38583,72263,4
38585,72264,5
38586,72278,5
38590,72268,5
38586,72268,4
38599,72277,4
38586,72276,5
38584,72274,5
38585,72281,5
38591,72282,4
38586,72277,5
38595,72279,5
38595,72279,5
38593,72273,5
38583,72275,4
38591,72276,5
38580,72263,5
38588,72270,5
38590,72267,5
38591,72269,5
38586,72264,4
38587,72268,5
38587,72274,5
38583,72266,6
38592,72278,3
38582,72276,5
38594,72270,5
38582,72273,5
38578,72275,4
38583,72279,5
38581,72279,5
38589,72280,5
38580,72280,5
38589,72272,4
38583,72277,5
38595,72271,5
38584,72275,5
38577,72260,5
38590,72273,4
38572,72259,5
38572,72245,5
38571,72247,5
38562,72228,5
38563,72225,4
38566,72212,6
38557,72208,4
38558,72206,5
38559,72213,5
38558,72217,6
38556,72227,3
38561,72236,5
38567,72244,5
38570,72254,4
38577,72258,4
38589,72277,5
38588,72265,5
38590,72290,5
38594,72301,5
38601,72290,4
38598,72308,5
38599,72296,5
38598,72298,5
38599,72297,4
38588,72300,5
38594,72274,5
38575,72229,5
38544,72197,5
38533,72182,4
38532,72173,5
38527,72161,6
38525,72155,4
38533,72148,5
38524,72158,4
38526,72153,5
38519,72161,5
38523,72166,5
38534,72173,4
38543,72170,5
38543,72185,5
38537,72191,5
38550,72196,5
38537,72207,4
38542,72205,5
38548,72207,5
38552,72207,5
38552,72203,5
38539,72195,4
38550,72202,5
38543,72187,5
38546,72192,5
38523,72185,5
38534,72177,4
38535,72167,5
38537,72164,5
38520,72161,6
38527,72163,4
38524,72149,4
38525,72158,5
38527,72159,5
38532,72166,5
38532,72173,4
38535,72169,4
38544,72166,5
38528,72167,5
38524,72159,5
38526,72166,4
38547,72156,5
38527,72165,5
38528,72166,5
38526,72167,5
38534,72172,4
38539,72166,5
38536,72187,5
38541,72190,5
38548,72188,5
38552,72200,5
38551,72205,4
38557,72213,5
38555,72214,5
38556,72226,6
38562,72236,3
38568,72238,5
38565,72231,5
38580,72259,5
38572,72265,4
38584,72274,4
38587,72267,5
38590,72295,5
38594,72287,5
38597,72300,4
38604,72305,5
38605,72301,5
38600,72302,5
38603,72308,5
38604,72323,4
38605,72306,5
38598,72296,5
38600,72301,5
38599,72305,5
38600,72294,4
38602,72290,6
38595,72295,4
38600,72299,5
38597,72296,5
38592,72298,4
38608,72298,5
38597,72298,5
38597,72295,5
38602,72294,4
38598,72295,4
38595,72293,5
38601,72292,5
38602,72302,5
38602,72295,4
38602,72292,5
38608,72308,5
38599,72296,5
38599,72290,5
38605,72294,4
38601,72303,5
38602,72298,5
38601,72292,5
38598,72297,5
38594,72289,4
38601,72305,5
38599,72298,6
38594,72293,4
38597,72295,5
38594,72289,4
38596,72289,5
38589,72279,5
38596,72284,5
38599,72289,4
38599,72279,4
38589,72281,5
38600,72279,5
38585,72273,5
38583,72265,4
38584,72257,5
38581,72260,5
38578,72244,5
38583,72256,5
38578,72250,4
38587,72265,5
38580,72266,5
38586,72278,5
38591,72275,5
38598,72285,4
38604,72300,5
38599,72307,5
38614,72313,6
38604,72321,4
38613,72327,4
38617,72331,5
38621,72330,5
38624,72331,5
38615,72326,4
38604,72321,4
38606,72311,5
38599,72295,5
38583,72252,5
38566,72214,4
38549,72197,5
38543,72199,5
38531,72179,5
38540,72186,5
38541,72186,4
38544,72188,5
38544,72195,5
38549,72199,5
38546,72198,5
38565,72215,5
38566,72220,4
38562,72222,5
38571,72221,5
38567,72235,5
38559,72237,4
38569,72243,5
38567,72244,5
38563,72248,5
38570,72243,4
38569,72243,4
38569,72245,5
38571,72242,5
38568,72230,5
38576,72237,4
38564,72229,5
38564,72224,5
38567,72238,5
38565,72229,5
38567,72226,4
38547,72227,5
38562,72226,5
38570,72225,5
38562,72235,5
38561,72251,4
38573,72251,6
38575,72248,4
38568,72253,5
38563,72241,5
38572,72243,4
38577,72258,5
38583,72263,5
38599,72262,5
38578,72270,4
38585,72271,4
38579,72272,5
38604,72283,5
38583,72279,5
38590,72279,4
38584,72285,5
38603,72294,5
38595,72295,5
38596,72313,5
38607,72320,4
38616,72329,5
38612,72334,5
38625,72337,5
38629,72345,5
38629,72357,4
38633,72364,5
38647,72377,6
38646,72385,4
38654,72380,5
38659,72402,4
38654,72409,5
38653,72400,5
38662,72391,5
38656,72413,5
38661,72408,4
38668,72410,5
38657,72409,5
38667,72419,5
38651,72414,4
38668,72416,5
38658,72420,5
38657,72408,5
38659,72395,5
38656,72388,4
38646,72400,5
38649,72377,5
38640,72373,5
38630,72362,5
38635,72367,4
38637,72348,5
38632,72348,5
38634,72352,5
38625,72364,5
38631,72353,4
38637,72367,5
38641,72385,5
38648,72392,5
38655,72396,5
38660,72417,4
38665,72419,5
38664,72420,5
38662,72417,5
38671,72421,4
38670,72417,5
38671,72430,5
38675,72425,5
38664,72420,5
38661,72407,4
38654,72384,5
38634,72357,5
38631,72322,5
38628,72322,5
38608,72308,5
38605,72309,4
38608,72305,5
38606,72316,5
38608,72318,5
38618,72329,4
38619,72323,5
38618,72337,5
38614,72322,5
38624,72339,4
38622,72350,4
38625,72347,5
38630,72354,5
38635,72354,5
38633,72364,4
38635,72354,5
38636,72359,5
38633,72355,5
38640,72365,5
38636,72356,4
38631,72352,5
38634,72354,5
38625,72339,4
38622,72340,5
38628,72343,4
38625,72342,7
38628,72342,3
38634,72345,5
38628,72360,5
38643,72368,4
38636,72370,5
38640,72372,5
38631,72372,5
38645,72367,4
38643,72374,4
38648,72381,5
38640,72377,5
38643,72374,5
38648,72390,4
38649,72399,5
38657,72391,5
38657,72397,5
38660,72390,5
38653,72394,4
38650,72391,5
38664,72410,5
38658,72406,6
38664,72415,4
38676,72424,4
38669,72438,5
38676,72446,5
38692,72451,5
38691,72461,5
38693,72476,4
38700,72488,5
38708,72494,5
38710,72507,5
38719,72514,4
38723,72523,5
38725,72527,5
38724,72538,5
38735,72542,5
38724,72540,4
38736,72547,5
38733,72544,5
38735,72556,5
38736,72549,5
38733,72552,5
38741,72554,4
38716,72544,5
38734,72538,5
38730,72532,6
38727,72524,3
38702,72522,5
38709,72504,5
38713,72493,5
38705,72484,5
38697,72490,4
38711,72498,5
38713,72493,5
38718,72504,5
38726,72509,4
38719,72521,5
38723,72516,5
38722,72526,5
38743,72541,5
38731,72537,4
38731,72544,5
38735,72536,5
38748,72546,5
38744,72552,5
38734,72553,4
38717,72518,6
38710,72490,4
38689,72463,5
38690,72460,5
38685,72441,6
38676,72429,3
38671,72425,5
38681,72439,5
38682,72430,5
38673,72422,4
38680,72433,5
38686,72441,5
38676,72434,5
38680,72424,4
38684,72437,5
38674,72450,5
38684,72450,5
38690,72438,5
38676,72446,4
38686,72443,5
38678,72439,5
38680,72458,5
38679,72438,5
38677,72440,4
38677,72425,5
38668,72445,6
38676,72432,4
38667,72428,5
38672,72422,4
38672,72433,5
38674,72415,5
38669,72410,5
38675,72424,4
38673,72438,4
38675,72440,5
38670,72429,5
38666,72430,5
38678,72418,4
38657,72410,5
38661,72416,5
38665,72405,5
38657,72392,5
38660,72398,4
38655,72392,5
38653,72385,5
38657,72384,5
38656,72374,5
38649,72381,4
38639,72377,5
38644,72381,5
38649,72378,6
38640,72381,4
38645,72374,4
38650,72382,5
38643,72378,5
38654,72388,5
38655,72395,4
38661,72401,4
38654,72405,5
38664,72402,5
38669,72409,5
38667,72413,4
38664,72423,5
38665,72416,5
38673,72429,5
38670,72430,5
38677,72429,4
38673,72431,5
38673,72430,5
38669,72431,5
38679,72428,5
38673,72434,5
38679,72438,4
38678,72440,5
38678,72429,5
38675,72427,8
38665,72416,2
38649,72416,4
38659,72400,5
38658,72390,5
38644,72370,4
38640,72357,5
38632,72336,5
38612,72313,5
38617,72307,5
38611,72300,4
38601,72304,5
38602,72304,5
38607,72304,5
38608,72311,5
38616,72312,4
38610,72323,5
38615,72331,5
38625,72331,5
38622,72334,5
38629,72336,4
38622,72333,6
38626,72344,4
38629,72354,5
38623,72354,5
38616,72321,4
38608,72294,5
38582,72251,5
38567,72230,5
38561,72211,4
38544,72180,5
38537,72173,5
38535,72169,5
38541,72165,5
38532,72162,4
38528,72166,5
38541,72152,5
38525,72157,5
38529,72152,5
38530,72157,4
38528,72152,5
38533,72153,5
38523,72158,5
38521,72151,5
38528,72167,4
38536,72156,5
38531,72167,6
38519,72152,4
38531,72162,4
38533,72156,4
38531,72158,5
38511,72142,5
38526,72149,5
38518,72135,4
38524,72137,5
38511,72136,5
38519,72132,5
38516,72117,5
38505,72121,4
38527,72123,5
38513,72131,5
38510,72127,5
38509,72135,5
38522,72115,4
38505,72112,5
38500,72118,5
38509,72114,5
38515,72112,5
38507,72105,4
38506,72110,5
38506,72104,5
38497,72106,5
38500,72096,4
38499,72104,4
38498,72110,5
38496,72100,5
38493,72099,5
38508,72116,4
38513,72121,5
38506,72111,5
38508,72125,5
38513,72127,5
38510,72135,4
38518,72117,5
38519,72143,5
38524,72154,5
38523,72158,5
38535,72170,4
38541,72163,5
38524,72176,5
38536,72165,5
38538,72195,5
38542,72175,5
38537,72182,4
38543,72187,5
38544,72202,5
38540,72183,4
38546,72190,4
38545,72196,5
38548,72207,5
38538,72196,5
38546,72198,4
38541,72198,5
38548,72201,5
38544,72196,5
38549,72196,5
38541,72191,4
38543,72188,5
38546,72191,5
38538,72192,5
38543,72180,5
38539,72183,4
38540,72174,5
38548,72186,5
38542,72178,5
38540,72181,5
38541,72178,4
38537,72170,6
38531,72170,4
38532,72176,5
38532,72179,4
38540,72167,5
38538,72170,5
38532,72170,5
38537,72173,5
38540,72176,4
38536,72176,5
38533,72169,5
38528,72165,5
38531,72159,5
38521,72145,4
38508,72144,5
38521,72122,5
38510,72106,5
38500,72098,5
38490,72080,4
38483,72076,5
38488,72079,5
38484,72078,5
38490,72087,5
38490,72093,4
38498,72107,5
38496,72124,5
38513,72137,5
38509,72146,4
38521,72148,5
38521,72158,5
38523,72166,5
38538,72182,5
38545,72183,4
38531,72186,5
38542,72187,5
38551,72196,5
38541,72195,5
38529,72171,4
38512,72127,5
38495,72082,5
38465,72054,5
38461,72044,5
38448,72020,4
38443,72006,5
38448,72001,5
38438,71999,5
38442,71999,5
38440,71996,4
38431,71992,5
38444,71988,5
38437,71987,5
38440,71991,4
38434,71995,5
38442,71995,5
38438,71996,5
38437,71984,5
38444,71996,4
38448,72002,5
38443,71995,5
38445,71997,5
38441,71997,5
38441,71997,4
38438,71986,5
38437,71987,5
38436,71984,5
38425,71985,5
38431,71975,4
38426,71971,6
38432,71967,4
38419,71962,5
38422,71960,5
38417,71968,6
38425,71974,3
38433,71981,5
38434,71974,5
38417,71983,4
38426,71980,5
38430,71978,5
38429,71979,5
38423,71978,5
38435,71987,4
38433,71986,5
38438,71984,5
38436,71997,5
38433,71989,5
38443,71989,4
38442,72003,5
38467,72006,5
38447,72007,5
38443,72016,5
38445,72023,4
38476,72019,5
38461,72026,6
38457,72030,4
38472,72044,5
38481,72047,4
38476,72060,5
38469,72069,5
38480,72066,5
38480,72077,4
38485,72080,5
38492,72084,5
38495,72097,5
38506,72103,5
38496,72104,4
38488,72121,5
38508,72117,5
38503,72116,5
38503,72123,5
38514,72126,4
38514,72134,5
38513,72121,5
38510,72129,5
38520,72135,5
38516,72135,4
38507,72142,5
38517,72132,5
38503,72135,6
38515,72131,4
38513,72142,4
38510,72135,5
38505,72126,5
38507,72118,5
38497,72138,4
38500,72109,5
38498,72114,5
38498,72104,5
38488,72108,5
38502,72104,4
38497,72104,5
38497,72103,5
38494,72114,5
38494,72094,5
38494,72107,4
38489,72102,5
38499,72112,5
38498,72114,5
38504,72110,5
38498,72119,5
38506,72116,4
38504,72099,5
38493,72103,5
38488,72098,6
38483,72087,3
38490,72087,5
38485,72081,5
38476,72076,5
38482,72076,4
38489,72087,4
38498,72093,5
38490,72098,5
38496,72109,5
38498,72118,4
38508,72141,5
38519,72140,5
38524,72164,5
38533,72170,5
38524,72172,4
38527,72185,5
38537,72194,5
38540,72185,5
38533,72191,5
38536,72181,4
38530,72177,6
38518,72155,4
38504,72107,5
38486,72065,5
38463,72042,4
38451,72022,5
38449,72014,5
38451,72000,5
38439,71998,4
38436,72002,4
38439,72007,5
38445,72005,5
38446,72014,5
38444,72009,4
38440,72012,5
38447,72017,5
38448,72022,5
38447,72029,5
38462,72032,4
38458,72031,5
38466,72034,5
38463,72038,5
38460,72032,5
38459,72037,4
38458,72036,5
38464,72034,6
38455,72028,4
38446,72031,5
38455,72027,4
38454,72030,5
38455,72030,5
38461,72025,5
38452,72019,4
38444,72025,4
38448,72022,5
38445,72027,5
38455,72040,5
38458,72028,4
38451,72030,5
38456,72031,5
38458,72027,5
38453,72019,5
38448,72022,4
38453,72023,5
38448,72027,5
38459,72032,5
38460,72035,5
38456,72041,4
38465,72048,5
38470,72055,5
38470,72060,6
38475,72074,4
38473,72081,4
38481,72073,5
38489,72085,5
38483,72089,5
38493,72102,4
38483,72112,4
38503,72119,5
38511,72127,5
38510,72136,5
38494,72139,4
38511,72154,5
38515,72143,5
38527,72164,5
38527,72160,5
38528,72178,4
38533,72175,5
38536,72182,5
38542,72180,5
38533,72184,5
38530,72172,5
38531,72182,4
38548,72174,5
38531,72180,5
38535,72184,5
38535,72183,4
38547,72168,5
38534,72177,5
38537,72178,5
38538,72176,4
38538,72176,4
38528,72166,5
38528,72170,5
38531,72154,5
38526,72155,4
38521,72160,5
38529,72157,5
38517,72157,5
38526,72151,5
38528,72162,4
38524,72166,5
38519,72163,5
38535,72153,5
38534,72163,5
38529,72164,4
38531,72166,6
38525,72169,4
38520,72160,5
38525,72154,5
38518,72143,4
38519,72147,5
38514,72139,5
38514,72141,5
38512,72136,4
38513,72152,4
38507,72123,5
38515,72139,5
38524,72140,5
38532,72164,4
38532,72172,5
38536,72185,5
38546,72193,5
38541,72201,5
38543,72196,4
38544,72207,5
38542,72197,5
38552,72206,5
38541,72209,5
38540,72202,4
38542,72194,5
38542,72195,6
38532,72171,4
38506,72136,5
38498,72097,4
38487,72071,5
38475,72075,5
38479,72056,5
38469,72055,4
38469,72052,4
38464,72069,5
38470,72067,5
38474,72066,5
38474,72068,4
38485,72072,5
38483,72073,5
38475,72071,5
38489,72088,5
38490,72098,6
38490,72103,3
38492,72098,5
38488,72101,5
38489,72107,5
38489,72111,4
38486,72102,5
38500,72101,5
38489,72101,5
38490,72096,5
38481,72102,4
38483,72095,5
38481,72092,5
38489,72082,5
38487,72084,4
38487,72083,4
38488,72086,5
38488,72100,5
38493,72098,5
38491,72111,4
38493,72105,5
38487,72103,5
38500,72107,5
38489,72110,5
38491,72104,4
38491,72107,5
38496,72106,5
38499,72105,5
38500,72113,5
38507,72107,5
38501,72114,4
38498,72112,5
38497,72117,5
38506,72123,5
38512,72127,4
38511,72135,5
38515,72138,5
38514,72142,5
38519,72158,5
38517,72167,4
38529,72182,5
38533,72179,5
38533,72193,5
38549,72204,4
38554,72211,5
38561,72221,5
38567,72229,5
38566,72240,5
38574,72240,4
38573,72254,5
38577,72256,5
38572,72262,5
38571,72267,5
38587,72276,4
38588,72274,6
38575,72279,4
38582,72289,5
38589,72279,5
38588,72284,4
38597,72279,5
38588,72290,5
38586,72288,5
38594,72293,5
38585,72288,4
38578,72292,5
38594,72293,5
38596,72291,5
38595,72296,4
38577,72282,5
38584,72286,5
38587,72288,5
38592,72288,5
38587,72297,4
38581,72288,5
38587,72280,5
38592,72275,5
38593,72274,5
38582,72268,4
38580,72257,5
38572,72252,5
38593,72252,5
38568,72252,5
38572,72256,4
38581,72248,5
38587,72264,5
38584,72282,5
38584,72287,5
38586,72291,4
38601,72310,5
38606,72316,5
38611,72333,5
38608,72336,4
38617,72335,5
38615,72350,5
38620,72351,5
38622,72351,5
38620,72325,4
38619,72339,4
38601,72301,5
38586,72267,5
38564,72226,6
38555,72217,3
38547,72207,5
38537,72205,5
38546,72196,5
38541,72201,5
38547,72207,4
38554,72205,5
38551,72236,5
38555,72230,5
38562,72226,5
38558,72233,4
38567,72266,5
38571,72247,5
38585,72259,5
38581,72260,4
38576,72275,5
38578,72266,5
38576,72269,5
38588,72266,5
38584,72267,4
38577,72265,6
38579,72263,4
38577,72255,5
38585,72251,5
38577,72263,6
38572,72255,3
38568,72255,5
38575,72259,5
38572,72262,5
38584,72266,4
38579,72278,5
38586,72282,5
38586,72280,5
38594,72276,5
38590,72288,4
38589,72276,5
38599,72282,5
38584,72286,5
38596,72292,4
38589,72286,5
38592,72285,5
38597,72288,5
38591,72289,5
38603,72291,4
38598,72301,5
38600,72302,6
38604,72312,4
38603,72314,5
38615,72325,4
38614,72337,5
38616,72336,5
38620,72356,5
38631,72358,5
38643,72380,4
38641,72394,5
38649,72397,5
38654,72417,5
38668,72427,5
38673,72439,4
38675,72451,5
38685,72453,5
38689,72471,5
38689,72476,4
38692,72483,5
38694,72488,5
38701,72494,5
38696,72490,5
38704,72494,4
38699,72492,5
38704,72489,5
38693,72488,6
38691,72484,4
38688,72473,4
38687,72470,5
38693,72465,5
38682,72452,5
38670,72449,5
38678,72435,4
38677,72438,5
38669,72437,5
38677,72436,5
38676,72437,5
38683,72457,4
38680,72456,5
38682,72472,5
38699,72487,5
38701,72497,4
38697,72501,5
38710,72509,5
38716,72522,5
38717,72530,5
38722,72527,5
38724,72541,4
38725,72529,5
38709,72494,5
38690,72465,6
38680,72448,3
38673,72426,5
38667,72431,5
38664,72418,5
38664,72410,5
38660,72411,4
38668,72421,5
38660,72414,5
38655,72420,5
38669,72416,5
38663,72425,4
38663,72416,5
38647,72426,5
38671,72430,5
38673,72431,4
38676,72435,5
38662,72443,5
38678,72442,5
38674,72438,5
38690,72449,4
38677,72440,6
38683,72451,4
38682,72446,5
38672,72448,5
38690,72441,4
38679,72442,5
38669,72447,5
38672,72446,5
38698,72438,5
38676,72458,4
38694,72470,5
38693,72480,5
38710,72467,5
38703,72478,5
38698,72487,4
38701,72485,5
38710,72487,5
38704,72487,5
38705,72497,4
38709,72507,5
38711,72508,5
38711,72517,5
38716,72508,5
38714,72519,4
38716,72509,5
38711,72524,6
38718,72528,4
38722,72542,5
38721,72523,4
38728,72556,5
38737,72558,5
38743,72569,5
38743,72578,5
38751,72583,4
38760,72596,5
38760,72611,5
38766,72635,5
38773,72633,5
38774,72636,4
38783,72641,5
38777,72670,5
38783,72653,5
38788,72657,4
38788,72665,5
38794,72679,5
38797,72662,5
38799,72671,5
38800,72663,4
38786,72666,5
38783,72653,5
38780,72649,6
38781,72634,4
38784,72637,4
38776,72619,5
38773,72625,5
38758,72609,5
38762,72608,5
38763,72614,4
38768,72609,5
38775,72611,5
38775,72625,5
38774,72622,5
38781,72635,4
38776,72640,5
38789,72651,5
38789,72664,5
38794,72669,4
38799,72668,5
38801,72651,5
38773,72625,5
38769,72585,5
38753,72569,5
38747,72565,4
38732,72545,5
38730,72548,5
38737,72543,5
38737,72546,4
38736,72553,5
38738,72547,5
38738,72554,5
38736,72559,5
38729,72544,4
38738,72552,5
38736,72550,5
38746,72551,5
38741,72559,5
38747,72559,4
38743,72579,5
38745,72587,5
38751,72591,5
38756,72591,4
38760,72593,4
38756,72600,5
38758,72599,5
38775,72604,5
38770,72612,4
38771,72612,6
38774,72626,4
38775,72627,5
38763,72609,5
38748,72588,4
38732,72551,5
38728,72550,5
38713,72524,5
38712,72517,5
38708,72514,4
38709,72514,5
38715,72526,5
38728,72540,5
38743,72561,5
38741,72596,4
38770,72655,5
38802,72705,5
38831,72761,5
38858,72806,4
38885,72856,4
38903,72886,5
38919,72928,5
38942,72972,5
38961,73005,4
38987,73033,5
39001,73065,6
39007,73072,4
39011,73088,5
39019,73092,4
39022,73098,5
39034,73108,5
39029,73115,5
39049,73134,5
39062,73159,4
39082,73196,5
39106,73235,5
39136,73296,5
39173,73378,5
39214,73452,4
39260,73538,5
39324,73639,5
39360,73732,5
39442,73844,4
39496,73939,4
39543,74024,5
39571,74095,5
39621,74155,5
39640,74201,4
39672,74256,5
39699,74310,5
39733,74360,5
39759,74380,5
39759,74389,4
39758,74390,5
39754,74386,5
39753,74384,5
39757,74401,5
39799,74453,4
39810,74513,5
39846,74571,5
39872,74629,5
39914,74669,5
39890,74654,4
39875,74621,5
39871,74617,5
39880,74624,5
39896,74661,4
39913,74699,4
39935,74736,5
39976,74824,5
40020,74897,5
40070,74975,5
40113,75062,4
40167,75151,5
40248,75328,5
40350,75521,5
40479,75740,4
40577,75900,5
40653,76080,5
40732,76221,5
40809,76344,5
40874,76444,4
40917,76560,5
40986,76673,5
41047,76814,5
41121,76959,5
41182,77083,4
41250,77215,5
41342,77386,5
41428,77587,5
41530,77760,5
41627,77932,4
42364,79430,55
42464,79631,4
42545,79760,8
42610,79919,2
42692,80066,3
42745,80202,5
42840,80328,5
42895,80479,5
42956,80602,4
42998,80718,5
43057,80838,5
43109,80926,5
43142,81003,5
43175,81064,4
43192,81103,5
43201,81136,5
43213,81139,4
43199,81125,4
43176,81085,5
43157,81042,5
43129,81011,5
43122,80956,5
43099,80915,4
43073,80864,5
43044,80815,5
43015,80767,5
43001,80734,5
42970,80682,4
42945,80635,5
42921,80578,5
42896,80532,5
42878,80490,5
42847,80451,4
42814,80396,5
42793,80362,5
42770,80292,5
42754,80256,5
42722,80213,4
42698,80163,5
42687,80128,5
42676,80109,6
42660,80083,3
42653,80074,5
42647,80046,5
42632,80023,5
42614,80003,5
42608,79986,4
42609,79969,5
42597,79948,5
42596,79943,5
42586,79924,5
42578,79895,4
42540,79816,5
42490,79730,5
42465,79686,5
42449,79651,5
42426,79593,4
42407,79564,5
42388,79540,5
42382,79520,5
42371,79499,5
42361,79476,5
42344,79436,4
42334,79398,5
42319,79383,5
42305,79361,6
42290,79333,3
42290,79339,5
42296,79332,5
42285,79337,5
42298,79362,4
42312,79383,5
42327,79414,5
42346,79447,5
42362,79480,5
42376,79526,4
42393,79549,5
42407,79575,5
42424,79601,5
42431,79608,5
42436,79613,4
42428,79623,5
42436,79640,5
42441,79631,5
42448,79642,5
42454,79653,4
42445,79666,6
42453,79663,4
42457,79677,5
42459,79690,4
42445,79705,5
42477,79721,5
42478,79728,5
42482,79724,5
42462,79736,4
42487,79749,5
42496,79754,5
42503,79767,5
42517,79773,5
42506,79774,4
42504,79767,5
42501,79765,5
42525,79773,5
42508,79777,5
42505,79792,4
42513,79783,5
42533,79789,5
42517,79810,5
42539,79846,5
42568,79892,4
42600,79931,5
42607,79980,6
42622,80020,4
42636,80033,4
42653,80043,5
42656,80065,5
42672,80113,5
42679,80135,5
42700,80145,4
42720,80203,5
42723,80212,5
42725,80197,5
42711,80159,5
42702,80178,4
42702,80172,5
42704,80188,5
42708,80170,5
42710,80178,5
42690,80169,4
42682,80135,5
42670,80126,5
42674,80110,5
42663,80098,5
42647,80085,4
42645,80119,5
42644,80088,5
42647,80100,6
42656,80116,3
42664,80151,4
42660,80123,5
42665,80134,5
42666,80140,5
42665,80163,4
42672,80165,5
42674,80165,5
42673,80168,5
42658,80153,5
42635,80100,4
42602,80030,5
42568,79974,5
42543,79951,5
42533,79944,5
42534,79909,4
42516,79903,5
42512,79896,5
42501,79883,5
42488,79863,5
42494,79854,5
42468,79819,4
42460,79811,5
42445,79810,5
42448,79795,4
42439,79793,4
42437,79784,5
42429,79780,5
42428,79775,5
42432,79775,4
42429,79788,5
42446,79785,5
42430,79763,5
42435,79763,5
42426,79743,4
42416,79725,5
42406,79722,5
42404,79703,5
42387,79686,5
42387,79677,4
42370,79649,5
42366,79634,5
42360,79608,5
42341,79586,5
42337,79580,4
42324,79557,6
42317,79535,4
42307,79507,5
42298,79489,4
42298,79497,4
42281,79486,5
42286,79494,5
42286,79505,5
42298,79520,4
42303,79519,5
42301,79507,5
42300,79518,5
42296,79514,5
42306,79525,4
42303,79527,5
42311,79522,5
42288,79502,5
42278,79478,5
42269,79480,4
42273,79467,5
42275,79465,5
42275,79478,5
42264,79475,5
42281,79479,4
42287,79488,5
42284,79487,6
42284,79505,4
42295,79505,4
42299,79510,4
42299,79514,5
42286,79515,5
42293,79507,5
42299,79523,4
42294,79521,5
42301,79535,5
42301,79532,5
42298,79538,5
42300,79533,4
42295,79518,5
42298,79519,5
42290,79527,5
42292,79528,5
42297,79534,4
42310,79530,5
42306,79534,5
42307,79540,5
42303,79541,5
42308,79565,4
42317,79571,5
42292,79557,5
42307,79539,5
42294,79505,5
42288,79499,4
42246,79484,5
42273,79464,5
42257,79453,5
42265,79445,4
42221,79442,5
42245,79407,5
42208,79338,5
42177,79275,5
42149,79233,4
42150,79230,5
42148,79212,5
42138,79194,5
42163,79210,5
42135,79213,4
42150,79227,5
42157,79246,5
42194,79250,5
42177,79264,5
42173,79272,5
42181,79289,4
42206,79288,5
42188,79309,5
42204,79331,5
42210,79345,4
42223,79354,5
42221,79362,5
42229,79366,5
42225,79376,4
42229,79370,5
42245,79399,5
42244,79403,5
42239,79415,5
42242,79384,4
42256,79426,5
42262,79447,5
42264,79470,5
42284,79444,5
42289,79500,4
42295,79512,5
42297,79514,5
42296,79490,5
42300,79504,5
42295,79496,4
42290,79497,6
42292,79525,4
42285,79499,5
42285,79486,5
42280,79478,4
42285,79515,5
42268,79469,5
42265,79462,5
42267,79461,4
42276,79488,4
42270,79466,5
42281,79486,5
42289,79491,5
42282,79499,4
42284,79485,5
42283,79481,5
42281,79488,5
42280,79493,5
42291,79507,4
42291,79504,5
42288,79515,5
42293,79508,5
42296,79519,5
42299,79520,4
42304,79526,5
42297,79534,6
42298,79547,4
42311,79530,5
42301,79537,4
42298,79527,5
42299,79517,5
42277,79504,5
42289,79492,4
42273,79480,4
42272,79470,5
42264,79462,5
42260,79436,5
42255,79429,4
42245,79426,5
42239,79395,5
42224,79394,5
42222,79373,5
42218,79375,4
42213,79364,5
42208,79374,5
42218,79368,5
42218,79374,5
42221,79378,4
42234,79391,5
42239,79395,5
42233,79403,5
42232,79387,5
42228,79379,4
42222,79355,5
42216,79355,5
42210,79344,5
42209,79353,4
42208,79343,4
42206,79327,5
42174,79271,5
42134,79186,5
42097,79129,4
42091,79100,5
42079,79079,5
42064,79054,5
42054,79042,5
42053,79033,4
42058,79044,5
42057,79043,5
42059,79055,5
42056,79064,5
42074,79089,5
42095,79115,3
42111,79149,5
42111,79165,5
42132,79197,5
42142,79212,4
42150,79234,5
42168,79265,5
42172,79284,5
42198,79303,4
42197,79343,4
42219,79349,5
42232,79381,5
42248,79405,5
42257,79433,4
42268,79452,5
42286,79474,5
42286,79485,5
42288,79503,5
42296,79514,4
42298,79518,5
42304,79532,6
42312,79530,4
42315,79548,5
42316,79554,4
42317,79557,7
42327,79561,3
42318,79581,5
42329,79606,5
42338,79617,4
42336,79615,5
42314,79616,5
42335,79626,5
42355,79628,5
42356,79649,4
42339,79660,5
42375,79678,5
42371,79692,5
42382,79706,4
42363,79707,5
42381,79715,5
42392,79726,5
42394,79736,5
42417,79754,4
42397,79770,5
42410,79784,5
42425,79806,6
42461,79825,4
42426,79843,4
42442,79867,5
42461,79887,5
42487,79905,5
42468,79918,5
42477,79937,4
42492,79957,5
42507,79970,5
42506,79988,5
42501,79997,5
42502,79999,4
42513,79999,5
42507,80008,5
42506,80005,5
42500,79995,4
42494,79968,5
42496,80000,5
42499,80012,5
42515,80048,5
42528,80035,5
42541,80087,4
42547,80120,5
42570,80145,5
42567,80153,7
42585,80176,2
42573,80166,5
42574,80159,5
42574,80181,5
42573,80167,5
42573,80170,4
42580,80180,5
42585,80212,5
42578,80162,5
42552,80107,5
42513,80030,4
42494,80040,5
42487,80004,5
42483,80004,5
42480,79999,4
42478,80007,4
42485,80015,5
42489,80041,5
42504,80053,5
42507,80070,4
42526,80097,6
42541,80118,4
42560,80150,5
42572,80198,5
42590,80239,6
42617,80279,3
42640,80323,5
42659,80355,5
42667,80388,5
42678,80404,4
42697,80440,5
42706,80456,5
42710,80482,5
42723,80501,5
42728,80517,4
42741,80534,5
42752,80564,5
42768,80596,5
42770,80611,4
42798,80648,4
42814,80688,5
42826,80722,5
42841,80744,5
42848,80745,4
42849,80776,5
42855,80790,6
42883,80819,4
42887,80831,5
42896,80859,4
42900,80871,5
42910,80882,5
42915,80892,5
42919,80911,5
42929,80925,4
42936,80925,5
42935,80928,5
42930,80923,5
42926,80934,5
42922,80946,4
42938,80969,5
42939,80973,5
42949,80973,5
42951,80971,5
42938,80977,4
42941,80983,5
42955,80993,5
42960,81016,5
42973,81067,4
42996,81095,5
43017,81144,5
43047,81189,6
43060,81243,4
43094,81306,4
43111,81344,5
43122,81374,5
43150,81419,5
43170,81473,5
43179,81500,4
43206,81526,5
43215,81560,5
43244,81603,5
43261,81653,5
43297,81698,4
43309,81732,5
43315,81750,5
43317,81748,5
43316,81758,5
43305,81767,4
43323,81777,5
43314,81780,5
43311,81772,5
43300,81760,5
43307,81776,4
43318,81794,5
43333,81833,5
43349,81872,6
43355,81906,3
43390,81981,5
43408,81346,5
43397,81324,5
43380,81317,5
43403,81368,4
43414,81418,5
43437,81445,5
43433,81502,5
43481,81563,5
43493,81585,4
43501,81614,5
43464,81641,5
43507,81667,5
43510,81670,5
43517,81685,4
43491,81711,5
43535,81737,5
43541,81768,5
43557,81791,4
43581,81820,6
43573,81856,4
43603,81916,5
43632,81980,5
43672,82046,4
43674,82112,5
43697,82203,5
43731,82260,5
43796,82340,5
43779,82406,4
43814,82477,5
43850,82561,5
43917,82639,5
43919,82700,5
43948,82778,4
43977,82811,5
43980,82819,5
43995,82841,5
43994,82862,5
44014,82870,4
44018,82851,5
44019,82895,5
44033,82917,5
44031,82913,4
44023,82885,5
44034,82918,6
44031,82934,4
44030,82954,5
44046,82933,4
44058,82992,5
44075,83013,5
44070,83024,5
44074,83055,5
44075,83040,4
44080,83056,5
44077,83054,5
44076,83093,5
44069,83047,5
44059,83007,4
44048,82984,5
44039,83009,5
44028,82968,5
44029,82962,5
44027,82952,4
44026,82947,5
44011,82897,5
43994,82869,5
43959,82797,4
43933,82732,4
43892,82665,5
43861,82594,6
43841,82538,4
43819,82490,4
43794,82455,5
43776,82414,5
43764,82378,5
43753,82344,5
43736,82321,4
43730,82307,5
43729,82300,5
43729,82296,5
43727,82303,5
43726,82297,4
43725,82275,5
43713,82255,5
43708,82256,5
43709,82248,5
43704,82240,4
43693,82209,5
43670,82164,5
43630,82063,5
43554,81907,5
43515,81813,4
43489,81747,5
43456,81671,5
43415,81604,5
43391,81543,4
43367,81499,5
43364,81455,5
43348,81424,5
43331,81388,5
43318,81356,4
43301,81331,5
43295,81295,5
43285,81277,5
43279,81250,5
43261,81249,4
43268,81233,5
43267,81228,5
43263,81224,5
43254,81225,5
43256,81224,4
43261,81229,5
43263,81236,5
43272,81244,5
43270,81238,5
43278,81242,5
43269,81243,4
43276,81240,5
43275,81233,5
43275,81245,4
43279,81256,5
43288,81256,5
43277,81226,5
43260,81213,5
43252,81194,4
43241,81161,5
43232,81131,5
43209,81099,5
43188,81067,5
43180,81034,4
43168,81009,5
43149,80980,5
43145,80963,5
43129,80922,5
43106,80887,4
43096,80836,5
43081,80806,5
43061,80771,5
43046,80740,5
43035,80699,4
43008,80654,6
43000,80624,4
42988,80615,5
42980,80605,4
42980,80600,5
42979,80597,5
42980,80609,5
42995,80623,5
43002,80653,4
43031,80697,5
43059,80742,5
43068,80777,5
43049,80800,5
43079,80821,4
43096,80827,5
43088,80828,5
43069,80845,5
43091,80838,5
43092,80827,4
43097,80813,5
43047,80811,5
43078,80791,5
43067,80776,5
43054,80759,4
43059,80733,5
43034,80717,5
43021,80681,5
43006,80655,4
43028,80638,5
42987,80632,5
42999,80632,5
43006,80633,5
43039,80659,4
43025,80670,5
43023,80685,5
43031,80701,5
43056,80695,5
43029,80680,4
43023,80657,5
43012,80639,5
43015,80639,5
43008,80643,5
43003,80631,5
42995,80603,4
42974,80503,5
42901,80411,5
42863,80360,6
42864,80343,3
42859,80297,5
42853,80320,5
42860,80327,5
42860,80344,4
42869,80324,4
42882,80394,5
42893,80406,5
42913,80432,5
42922,80468,4
42932,80494,5
42949,80516,5
42964,80546,5
42990,80621,5
42998,80615,4
43009,80650,5
43027,80676,5
43046,80750,5
43071,80744,5
43080,80778,4
43099,80796,6
43108,80848,4
43122,80857,5
43125,80886,5
43151,80917,6
43165,80944,3
43180,80975,5
43193,81013,5
43217,81063,4
43236,81090,4
43246,81101,5
43249,81106,5
43256,81129,5
43264,81155,4
43278,81180,5
43282,81185,5
43287,81198,5
43285,81193,5
43293,81218,4
43303,81233,5
43310,81246,5
43315,81258,5
43310,81254,5
43315,81267,4
43308,81252,5
43311,81264,6
43313,81260,4
43304,81251,5
43299,81251,4
43296,81247,5
43305,81237,5
43307,81254,5
43297,81256,4
43311,81268,4
43320,81282,5
43319,81296,5
43341,81308,5
43338,81326,4
43346,81340,5
43357,81364,5
43366,81364,5
43368,81383,5
43365,81381,4
43366,81388,5
43381,81394,5
43378,81391,5
43373,81390,5
43374,81383,4
43364,81357,5
43358,81347,5
43344,81330,6
43339,81316,4
43336,81297,4
43326,81296,5
43318,81286,5
43318,81268,5
43320,81282,5
43321,81284,4
43315,81280,5
43311,81271,5
43315,81265,5
43306,81238,4
43284,81218,5
43289,81218,5
43285,81213,5
43293,81226,5
43292,81228,4
43289,81212,5
43249,81132,5
43190,81000,5
43149,80948,5
43148,80937,5
43142,80931,4
43139,80921,5
43135,80925,5
43147,80931,6
43148,80929,3
43146,80933,5
43153,80946,5
43148,80954,5
43156,80965,5
43169,80979,4
43176,80992,5
43185,81005,5
43190,81012,5
43200,81037,4
43209,81067,5
43217,81086,5
43233,81098,5
43241,81119,5
43230,81131,4
43257,81144,5
43265,81158,5
43271,81169,5
43243,81182,5
43283,81207,4
43296,81229,6
43311,81249,4
43284,81278,5
43339,81315,5
43362,81339,4
43366,81348,5
43366,81354,5
43378,81389,5
43390,81398,5
43396,81414,4
43424,81437,5
43406,81448,5
43412,81454,5
43420,81458,4
43469,81466,4
43421,81477,5
43420,81464,5
43411,81465,6
43435,81462,3
43417,81468,5
43418,81462,5
43431,81461,5
43414,81457,5
43412,81451,4
43400,81442,5
43401,81437,6
43406,81421,4
43414,81452,5
43417,81460,4
43430,81473,5
43424,81440,5
43428,81497,5
43439,81513,5
43448,81524,4
43457,81489,5
43449,81530,5
43451,81537,5
43460,81544,4
43465,81547,4
43458,81541,5
43464,81553,5
43464,81552,5
43471,81603,4
43470,81569,5
43479,81584,5
43476,81574,5
43478,81617,5
43478,81576,4
43472,81568,5
43467,81557,5
43460,81567,6
43449,81520,4
43447,81502,4
43425,81491,5
43412,81472,5
43414,81456,5
43405,81451,5
43402,81445,4
43413,81437,5
43409,81446,5
43402,81450,5
43408,81442,4
43404,81424,4
43396,81418,5
43392,81416,5
43390,81407,5
43385,81409,4
43387,81417,5
43406,81433,5
43409,81445,5
43403,81432,5
43374,81371,5
43319,81232,4
43271,81154,5
43256,81134,5
43243,81118,5
43236,81098,4
43229,81086,5
43236,81071,5
43228,81079,5
43239,81102,5
43240,81111,4
43252,81132,5
43262,81155,5
43275,81181,5
43291,81204,4
43303,81243,4
43321,81252,5
43330,81272,5
43340,81285,5
43346,81308,4
43359,81332,5
43372,81356,5
43379,81380,5
43392,81390,5
43403,81419,4
43407,81422,6
43416,81439,4
43423,81451,5
43426,81456,5
43430,81461,4
43431,81482,5
43444,81498,5
43461,81518,5
43460,81537,5
43455,81527,4
43476,81539,5
43470,81541,5
43463,81535,5
43475,81547,5
43467,81553,4
43469,81558,5
43481,81559,5
43482,81570,5
43498,81566,4
43489,81558,5
43474,81557,5
43482,81570,5
43481,81569,5
43485,81576,4
43494,81588,5
43488,81599,6
43509,81614,4
43502,81625,5
43517,81637,4
43524,81648,5
43530,81668,5
43541,81684,5
43553,81709,5
43566,81737,4
43580,81749,5
43568,81766,5
43581,81780,5
43586,81795,5
43596,81792,4
43601,81821,5
43601,81817,5
43612,81826,5
43603,81830,4
43603,81833,5
43613,81840,5
43613,81841,5
43625,81850,5
43583,81830,4
43612,81829,5
43607,81811,5
43595,81789,5
43541,81760,5
43570,81755,4
43563,81730,5
43555,81724,5
43553,81708,5
43543,81710,5
43553,81705,4
43553,81711,5
43582,81711,5
43556,81726,5
43552,81716,5
43561,81729,4
43599,81743,5
43579,81769,5
43586,81808,5
43596,81820,4
43629,81834,5
43599,81797,5
43554,81709,5
43504,81620,5
43485,81593,5
43485,81606,4
43488,81595,5
43486,81596,5
43483,81574,5
43484,81606,4
43494,81623,5
43499,81626,5
43503,81591,5
43512,81651,5
43521,81660,4
43525,81688,5
43548,81671,5
43550,81737,5
43572,81770,5
43588,81796,4
43598,81838,5
43615,81867,5
43633,81898,5
43640,81930,4
43668,81982,5
43669,81984,5
43684,82002,4
43684,82025,5
43705,82088,4
43708,82058,6
43718,82076,3
43732,82105,5
43737,82149,5
43756,82147,4
43745,82132,5
43720,82118,5
43737,82105,5
43726,82089,5
43725,82092,4
43735,82104,5
43735,82107,5
43738,82109,5
43737,82108,5
43734,82107,4
43733,82093,5
43732,82093,5
43728,82088,5
43725,82094,4
43735,82109,5
43733,82117,5
43751,82140,6
43758,82151,4
43760,82170,4
43776,82188,5
43782,82204,5
43788,82232,5
43801,82256,5
43809,82287,4
43831,82328,5
43849,82361,5
43868,82413,5
43900,82479,5
43923,82534,4
43954,82609,5
43970,82642,5
43991,82701,5
44005,82723,4
44015,82756,4
44030,82784,5
44027,82784,5
44038,82797,5
44028,82790,5
44032,82798,4
44025,82783,5
44022,82793,5
44039,82798,6
44041,82801,3
44031,82792,5
44035,82800,5
44035,82812,5
44047,82822,5
44046,82846,4
44067,82867,5
44062,82885,5
44079,82893,5
44081,82890,5
44085,82942,4
44106,82986,5
44132,83039,5
44139,83057,5
44134,83025,5
44100,82935,4
44047,82862,5
44038,82855,5
44035,82864,5
44037,82882,4
44057,82897,6
44064,82944,4
44093,82987,5
44121,83045,5
44142,83105,6
44162,83160,3
44210,83228,5
44239,83296,5
44272,83364,5
44299,83428,4
44321,83479,5
44342,83538,5
44361,83591,5
44387,83635,5
44412,83673,4
44420,83711,5
44432,83729,5
44449,83776,5
44465,83816,4
44471,83831,4
44485,83869,5
44488,83903,5
44500,83932,5
44513,83962,4
44533,84012,5
44539,84072,6
44575,84133,4
44587,84134,5
44592,84165,4
44565,84202,5
44616,84227,5
44617,84248,5
44628,84266,5
44597,84296,4
44651,84313,5
44650,84321,5
44660,84339,5
44671,84356,5
44672,84358,4
44644,84370,5
44651,84374,5
44703,84398,5
44661,84419,5
44667,84441,4
44682,84463,5
44746,84488,5
44695,84508,5
44719,84541,4
44729,84564,5
44774,84602,5
44755,84624,6
44767,84661,4
44782,84684,4
44801,84698,5
44799,84712,5
44798,84723,5
44797,84721,5
44781,84695,4
44782,84700,5
44773,84698,5
44773,84696,5
44766,84636,5
44758,84652,4
44740,84621,5
44715,84587,5
44696,84511,5
44674,84512,5
44652,84449,4
44628,84402,5
44601,84357,5
44582,84307,5
44564,84271,5
44543,84239,4
44528,84240,5
44506,84137,5
44473,84077,6
44459,84050,3
44454,84094,5
44443,84011,5
44428,83965,5
44391,83886,5
44326,83764,4
44254,83599,5
44221,83533,5
44197,83470,5
44165,83402,5
44130,83345,4
44111,83293,5
44107,83276,5
44094,83246,5
44081,83225,5
44068,83192,4
44064,83169,5
44053,83145,5
44039,83117,5
44029,83095,4
44020,83070,6
44006,83044,4
43994,83014,5
43978,82978,5
43958,82945,4
43946,82913,5
43939,82892,5
43925,82865,5
43913,82839,5
43906,82820,4
43897,82795,5
43886,82766,5
43879,82753,5
43870,82730,5
43869,82743,4
43870,82737,5
43867,82745,5
43856,82715,5
43850,82694,4
43853,82692,4
43849,82681,5
43844,82676,5
43839,82658,5
43836,82653,4
43827,82633,5
43813,82620,6
43807,82596,4
43799,82571,5
43777,82544,4
43777,82517,5
43762,82488,5
43749,82462,5
43729,82441,5
43724,82425,4
43711,82395,5
43706,82358,5
43689,82331,5
43673,82311,5
43666,82293,4
43672,82290,5
43673,82285,5
43676,82293,5
43675,82302,5
43669,82303,4
43678,82297,5
43671,82303,5
43680,82296,5
43666,82295,4
43666,82285,5
43672,82274,5
43666,82268,6
43662,82259,4
43649,82239,4
43635,82214,5
43629,82190,5
43619,82164,5
43600,82135,5
43581,82091,4
43577,82062,5
43558,82055,5
43566,82051,5
43563,82060,5
43560,82042,4
43570,82042,5
43563,82031,5
43550,82029,5
43568,82041,5
43568,82060,4
43576,82057,5
43557,82030,5
43527,81941,5
43455,81796,5
43420,81740,4
43424,81716,5
43392,81692,5
43397,81669,5
43388,81656,4
43384,81649,5
43349,81653,5
43384,81658,8
43394,81667,2
43404,81669,4
43366,81673,5
43422,81687,5
43405,81699,5
43418,81711,5
43416,81739,4
43432,81743,5
43435,81752,5
43450,81772,5
43487,81786,5
43458,81800,4
43477,81817,5
43467,81822,5
43523,81827,5
43477,81827,4
43477,81832,5
43475,81840,4
43514,81849,5
43496,81854,5
43501,81867,4
43499,81886,5
43513,81890,5
43502,81884,5
43505,81876,5
43506,81880,4
43502,81870,5
43502,81891,5
43514,81895,5
43516,81892,5
43521,81859,4
43512,81886,5
43517,81886,5
43511,81879,5
43506,81840,5
43501,81879,4
43505,81882,5
43498,81875,5
43509,81881,5
43506,81880,4
43503,81877,4
43500,81887,6
43510,81912,4
43509,81885,5
43509,81892,4
43510,81916,5
43523,81974,5
43527,81934,5
43542,81944,5
43544,81954,4
43548,81984,5
43546,81963,5
43540,81956,5
43532,81946,5
43539,81950,4
43529,81943,5
43526,81935,5
43522,81903,5
43513,81899,5
43505,81871,4
43492,81859,5
43482,81834,5
43473,81817,5
43461,81819,5
43472,81810,4
43484,81822,5
43476,81825,5
43471,81815,5
43469,81801,4
43461,81790,5
43460,81785,5
43451,81775,5
43464,81795,5
43462,81805,4
43465,81791,5
43440,81718,5
43371,81582,5
43323,81506,5
43314,81483,4
43305,81470,5
43298,81466,5
43300,81467,5
43306,81484,5
43319,81503,4
43318,81511,5
43337,81519,5
43341,81527,5
43351,81543,5
43353,81557,4
43356,81567,5
43365,81580,5
43374,81589,5
43376,81591,4
43376,81592,5
43382,81601,5
43383,81607,5
43380,81609,5
43388,81610,4
43387,81614,5
43386,81621,5
43390,81628,5
43399,81634,5
43405,81647,4
43407,81647,5
43411,81648,5
43415,81677,5
43438,81698,5
43452,81707,4
43440,81710,6
43457,81731,4
43446,81726,5
43458,81723,5
43452,81731,6
43458,81734,3
43464,81740,5
43466,81749,5
43474,81760,4
43473,81756,5
43468,81754,5
43459,81757,5
43457,81754,5
43469,81735,4
43459,81752,5
43463,81763,5
43469,81755,5
43466,81754,5
43462,81761,4
43461,81761,5
43467,81756,5
43465,81771,5
43472,81768,5
43472,81764,4
43476,81778,5
43478,81782,6
43478,81791,4
43487,81777,5
43481,81775,4
43471,81778,5
43482,81763,5
43463,81772,5
43469,81754,4
43460,81752,4
43473,81757,5
43439,81756,5
43465,81745,5
43457,81739,4
43455,81722,5
43414,81724,5
43454,81726,5
43456,81720,5
43454,81723,4
43435,81721,5
43455,81718,5
43450,81710,5
43449,81704,5
43472,81720,4
43461,81748,5
43472,81763,5
43470,81751,6
43506,81702,4
43401,81594,4
43367,81548,5
43365,81542,5
43388,81533,5
43358,81525,4
43360,81534,4
43361,81531,5
43374,81551,5
43364,81553,5
43370,81570,4
43387,81570,5
43382,81582,5
43395,81617,5
43409,81626,5
43421,81653,4
43430,81637,5
43439,81670,5
43437,81702,5
43447,81710,5
43454,81690,5
43468,81734,4
43484,81760,5
43491,81777,5
43495,81791,6
43504,81811,3
43518,81824,5
43532,81858,5
43541,81899,5
43547,81890,4
43554,81917,4
43567,81940,5
43583,81998,5
43584,81952,5
43592,81970,4
43599,81987,5
43603,82025,5
43607,82008,5
43608,82020,5
43629,82048,4
43635,82070,5
43636,82078,5
43646,82102,5
43653,82111,5
43662,82118,4
43651,82116,6
43654,82109,4
43656,82111,5
43659,82104,5
43642,82088,4
43651,82095,5
43638,82071,5
43634,82061,5
43627,82063,4
43623,82054,4
43631,82048,5
43626,82051,5
43628,82044,5
43629,82048,4
43638,82042,5
43634,82053,5
43634,82063,5
43645,82057,5
43644,82058,4
43652,82058,5
43649,82058,5
43639,82042,5
43626,82019,5
43616,82007,4
43606,81986,5
43607,81993,6
43612,81987,4
43608,81984,5
43606,81983,4
43612,81985,5
43615,81999,5
43610,82013,5
43620,82036,5
43632,82056,4
43646,82064,5
43640,82067,5
43653,82071,5
43648,82086,4
43661,82104,5
43663,82117,5
43668,82118,5
43667,82102,5
43622,82012,4
43556,81883,5
43517,81824,5
43512,81798,5
43496,81771,5
43485,81760,4
43488,81745,5
43483,81760,5
43488,81761,6
43493,81763,4
43487,81758,4
43497,81753,5
43492,81757,5
43504,81754,5
43496,81768,5
43492,81758,4
43501,81757,5
43502,81774,5
43509,81783,5
43509,81781,4
43507,81770,5
43514,81770,5
43514,81782,5
43513,81765,5
43505,81776,4
43514,81793,5
43528,81799,5
43527,81813,5
43526,81822,5
43537,81832,5
43554,81859,4
43564,81883,5
43574,81897,5
43582,81910,5
43585,81923,4
43585,81943,5
43600,81959,5
43614,81971,5
43603,81968,5
43613,81990,4
43619,81996,5
43625,82005,5
43602,82012,5
43636,82011,4
43631,82009,5
43621,81997,5
43586,81997,5
43624,81990,5
43622,81994,4
43613,81991,5
43595,81981,5
43606,81971,5
43603,81943,5
43599,81955,4
43632,81966,6
43609,81959,4
43607,81970,5
43619,81984,5
43670,81988,4
43625,82000,5
43637,81998,5
43640,82010,5
43681,82018,5
43641,82022,4
43643,82019,5
43633,81999,5
43642,82002,5
43625,81981,4
43618,81962,5
43612,81955,5
43611,81955,5
43617,81961,5
43621,81974,4
43618,81994,5
43632,81968,5
43639,82007,5
43634,82008,5
43643,82021,4
43638,81963,5
43615,81983,6
43615,81956,4
43617,81967,5
43628,81978,4
43629,81995,5
43628,81981,5
43597,81901,5
43532,81809,5
43502,81733,4
43496,81718,5
43483,81693,5
43478,81707,5
43466,81658,4
43467,81655,4
43477,81662,5
43471,81699,5
43471,81660,5
43476,81657,4
43467,81632,5
43459,81636,5
43434,81582,5
43427,81561,5
43438,81563,4
43446,81594,5
43468,81638,5
43496,81672,5
43519,81712,5
43531,81745,4
43546,81758,5
43562,81789,5
43584,81831,5
43608,81881,5
43628,81916,4
43658,81972,5
43684,82004,5
43695,82045,5
43713,82064,4
43723,82090,4
43736,82088,5
43738,82103,5
43755,82131,5
43763,82133,4
43765,82170,5
43777,82194,5
43794,82204,5
43791,82205,5
43798,82208,5
43788,82210,4
43790,82206,5
43789,82221,5
43802,82245,5
43804,82255,4
43813,82273,5
43817,82284,5
43820,82289,5
43814,82295,5
43801,82280,4
43797,82245,5
43777,82220,5
43761,82196,5
43755,82181,4
43758,82182,4
43758,82196,5
43771,82232,5
43788,82266,5
43825,82324,4
43853,82382,5
43879,82434,5
43892,82476,5
43904,82491,5
43901,82475,4
43880,82437,6
43868,82401,4
43846,82378,5
43829,82350,5
43813,82308,4
43799,82279,5
43779,82245,5
43760,82222,5
43753,82211,5
43755,82215,4
43762,82231,5
43784,82247,5
43790,82254,5
43791,82274,5
43800,82290,4
43819,82337,5
43844,82365,5
43849,82366,5
43829,82341,4
43789,82240,5
43746,82159,5
43730,82135,6
43713,82118,4
43701,82099,4
43712,82100,5
43715,82119,5
43730,82146,5
43746,82170,5
43751,82192,4
43763,82209,5
43764,82217,5
43778,82230,5
43781,82257,5
43793,82276,4
43812,82296,5
43824,82312,5
43837,82340,5
43814,82347,5
43853,82371,4
43868,82400,5
43882,82422,5
43865,82461,5
43916,82487,5
43942,82542,4
43962,82610,5
43957,82647,5
44010,82680,6
44030,82722,3
44050,82785,5
44091,82841,5
44094,82872,5
44091,82882,5
44091,82882,4
44134,82906,5
44094,82918,5
44101,82926,5
44101,82932,5
44131,82941,4
44101,82940,5
44101,82927,5
44089,82923,5
44093,82915,5
44081,82910,4
44076,82891,5
44064,82898,5
44059,82866,5
44062,82871,4
44058,82871,6
44054,82869,4
44044,82815,5
44037,82828,5
44026,82801,6
44003,82787,3
44009,82730,5
44003,82773,5
44004,82771,5
44005,82785,4
44018,82777,5
44021,82817,5
44034,82840,5
44044,82863,5
44053,82888,4
44058,82888,5
44054,82880,5
44048,82865,5
44036,82883,5
44018,82807,4
44002,82762,5
43975,82723,5
43957,82715,5
43944,82668,4
43928,82653,4
43932,82651,6
43932,82657,4
43921,82626,5
43904,82617,4
43910,82615,5
43916,82623,5
43930,82613,5
43911,82602,5
43893,82559,4
43846,82451,5
43785,82343,5
43764,82289,5
43731,82231,5
43703,82162,4
43674,82107,5
43649,82067,5
43627,82027,5
43631,82023,5
43616,82012,4
43607,81990,5
43607,81981,5
43599,81960,5
43584,81951,4
43581,81947,4
43573,81932,5
43572,81918,6
43563,81899,4
43558,81889,4
43555,81892,5
43551,81872,5
43542,81864,5
43539,81869,5
43539,81857,4
43530,81849,5
43526,81830,5
43517,81832,5
43514,81816,5
43512,81810,4
43510,81792,5
43515,81808,5
43514,81817,5
43509,81789,5
43491,81768,4
43487,81752,5
43477,81729,5
43454,81696,5
43452,81680,5
43448,81658,4
43428,81648,5
43426,81638,5
43418,81610,6
43406,81604,3
43391,81578,5
43377,81558,5
43374,81534,5
43362,81511,5
43348,81490,4
43329,81468,5
43323,81432,5
43302,81420,5
43286,81383,5
43271,81363,4
43267,81321,5
43251,81299,5
43231,81277,5
43221,81255,5
43219,81250,4
43226,81257,5
43228,81259,5
43224,81269,5
43228,81278,5
43239,81281,5
43242,81276,4
43218,81262,5
43221,81239,5
43206,81214,4
43193,81178,5
43169,81137,5
43146,81110,5
43125,81069,5
43107,81035,4
43090,81003,5
43092,80996,5
43082,80991,5
43084,81000,5
43099,81015,4
43104,81032,5
43105,81049,5
43118,81039,5
43109,81044,5
43081,81035,4
43106,81047,5
43121,81052,5
43115,81038,5
43075,80999,5
43046,80884,4
42983,80778,6
42956,80736,4
42910,80705,5
42918,80686,4
42916,80666,5
42914,80669,5
42924,80674,5
42933,80692,5
42936,80718,4
42956,80733,5
42994,80746,5
42966,80763,5
42970,80773,5
42977,80780,4
43021,80798,5
42991,80810,5
42993,80821,5
43013,80830,5
43027,80839,4
43011,80846,5
43018,80854,5
43027,80861,5
43028,80867,5
43030,80880,4
43031,80887,5
43040,80898,6
43046,80881,4
43053,80920,4
43060,80949,5
43072,80964,5
43077,80937,5
43083,80974,5
43090,80981,4
43086,80983,5
43098,80965,5
43106,81022,5
43114,81021,5
43104,81025,4
43117,81056,5
43113,81037,5
43123,81045,5
43125,81045,5
43125,81076,4
43131,81040,5
43125,81032,5
43131,81045,5
43128,81073,5
43116,81026,4
43121,81011,5
43111,81005,5
43109,81017,6
43109,81005,3
43106,81009,4
43108,81007,5
43108,81016,5
43106,81010,5
43111,81014,4
43114,81017,5
43109,81017,5
43121,81025,5
43112,81027,5
43116,81035,4
43117,81043,5
43125,81056,5
43131,81051,5
43133,81065,5
43133,81061,4
43130,81058,5
43135,81054,5
43127,81053,5
43124,81048,5
43129,81030,5
43111,81025,4
43096,80998,5
43095,80986,5
43081,80964,4
43067,80942,4
43059,80916,5
43039,80893,5
43031,80864,5
43022,80851,4
43006,80833,5
42998,80812,5
43002,80815,5
42995,80812,5
43004,80809,4
42999,80796,5
43003,80799,5
42997,80814,5
42997,80816,5
43008,80807,4
43015,80816,5
43001,80817,5
43004,80812,5
43008,80826,5
43011,80811,4
42979,80775,6
42925,80645,4
42872,80555,5
42850,80532,4
42848,80509,4
42835,80494,5
42831,80486,5
42831,80497,5
42839,80493,4
42835,80492,5
42848,80520,5
42854,80520,5
42852,80528,5
42859,80547,4
42865,80569,5
42888,80578,5
42898,80594,5
42905,80628,5
42921,80635,4
42920,80656,5
42932,80662,5
42938,80684,5
42936,80701,5
42966,80725,4
42957,80734,5
42977,80741,6
42979,80760,4
42991,80784,4
42999,80799,4
43008,80822,5
43035,80856,5
43037,80870,5
43060,80912,4
43069,80939,5
43076,80942,5
43076,80946,5
43089,80962,5
43088,80979,4
43093,80980,5
43101,80976,5
43099,80981,5
43091,80977,5
43101,80976,4
43085,80985,5
43095,80974,5
43095,80964,5
43089,80959,5
43065,80964,4
43101,80977,5
43092,80969,5
43098,80977,5
43067,80971,5
43101,80972,4
43102,80977,5
43097,80984,5
43109,80987,5
43110,81004,4
43111,81009,5
43106,80998,5
43135,81004,5
43114,81007,5
43115,81012,4
43112,80999,5
43139,81009,5
43120,81004,5
43109,81009,5
43110,81012,4
43129,81025,5
43122,81025,5
43132,81040,5
43128,81047,5
43132,81040,5
43130,81050,4
43127,81040,5
43120,81038,5
43126,81007,5
43103,81002,4
43093,80975,5
43086,80939,5
43068,80892,5
43047,80898,4
43042,80883,5
43041,80860,5
43029,80835,5
43030,80858,5
43029,80870,4
43037,80881,5
43044,80897,5
43047,80896,5
43052,80900,5
43048,80911,4
43049,80943,5
43060,80924,6
43064,80930,4
43066,80947,5
43076,80999,4
43076,80959,7
43050,80905,3
43002,80799,5
42956,80746,5
42954,80712,4
42938,80693,5
42927,80671,5
42932,80671,5
42931,80679,4
42939,80684,5
42947,80698,5
42949,80696,5
42949,80708,5
42960,80718,4
42961,80729,5
42968,80743,5
42969,80749,5
42990,80756,5
42983,80776,4
42997,80784,5
43006,80787,5
43008,80806,6
43011,80804,4
43012,80810,4
43021,80828,5
43029,80844,5
43035,80855,5
43047,80878,5
43055,80900,4
43061,80917,5
43079,80942,5
43089,80975,5
43123,81011,4
43134,81033,5
43142,81045,5
43145,81029,5
43138,81031,5
43129,81028,4
43126,81028,5
43128,81019,5
43119,81016,5
43120,81020,5
43115,81004,5
43119,81010,4
43126,81014,5
43120,80996,5
43109,80991,6
43107,80986,3
43114,80986,5
43105,80978,5
43103,80981,5
43095,80969,5
43106,80978,4
43101,80983,5
43106,80984,5
43104,80979,5
43117,81001,4
43122,81009,4
43131,81001,9
43120,81014,2
43128,81009,4
43129,81021,4
43125,81029,5
43131,81012,5
43121,81015,5
43117,81017,5
43135,81015,4
43137,81037,6
43140,81053,4
43151,81069,5
43156,81078,5
43176,81089,6
43168,81087,3
43169,81096,5
43167,81094,5
43164,81093,5
43162,81083,4
43161,81081,5
43164,81065,5
43137,81040,5
43125,81018,4
43139,81032,4
43144,81060,5
43146,81056,5
43149,81055,5
43141,81048,4
43131,81041,5
43131,81031,5
43123,81007,5
43120,80998,5
43101,80959,4
43083,80941,5
43063,80919,6
43070,80909,4
43071,80914,5
43068,80922,4
43038,80908,5
43064,80910,5
43065,80906,5
43073,80916,5
43047,80925,4
43088,80935,5
43081,80934,5
43081,80927,5
43076,80918,4
43076,80931,4
43079,80925,5
43084,80931,5
43106,80895,5
43048,80833,4
42984,80725,5
42948,80679,5
42980,80663,5
42932,80639,5
42929,80623,4
42920,80622,5
42937,80628,5
42924,80608,6
42901,80582,4
42886,80570,4
42893,80561,5
42891,80558,5
42883,80564,5
42890,80580,5
42916,80593,4
42936,80631,5
42948,80658,5
42955,80678,5
42974,80685,5
42986,80733,4
42995,80756,5
43005,80767,5
43006,80736,5
43002,80768,4
42994,80766,5
43008,80761,5
42995,80765,5
43011,80778,5
43012,80791,5
43020,80796,4
43033,80857,5
43057,80869,5
43074,80873,6
43062,80863,3
43060,80893,5
43063,80856,5
43056,80854,5
43052,80864,5
43057,80886,4
43073,80866,5
43064,80867,5
43068,80870,5
43055,80866,5
43059,80865,4
43053,80850,5
43045,80848,5
43043,80840,5
43044,80839,4
43040,80843,5
43050,80837,5
43046,80841,5
43055,80852,5
43053,80862,4
43062,80871,6
43052,80870,4
43058,80864,5
43063,80880,5
43073,80879,4
43070,80892,5
43073,80894,5
43068,80905,5
43072,80910,5
43081,80917,4
43084,80927,5
43103,80946,5
43111,80954,5
43116,80971,5
43118,80972,4
43121,80989,5
43133,80993,5
43122,80998,5
43117,80990,4
43121,80989,5
43113,80981,5
43112,80970,5
43110,80951,5
43099,80940,4
43082,80932,5
43077,80926,6
43077,80918,4
43079,80912,5
43074,80927,4
43077,80922,5
43074,80915,5
43069,80919,5
43077,80924,5
43072,80931,4
43072,80917,5
43078,80912,5
43071,80906,5
43074,80908,5
43081,80920,4
43081,80927,5
43086,80939,5
43091,80941,5
43077,80914,4
43041,80834,5
43001,80781,5
42987,80757,5
42975,80734,5
42967,80730,4
42968,80720,5
42973,80729,5
42977,80732,6
42972,80754,4
42987,80762,4
42984,80773,5
42987,80787,5
43006,80797,5
42999,80802,5
43020,80823,4
43020,80844,5
43035,80856,5
43059,80887,5
43066,80924,5
43084,80947,4
43099,80966,5
43106,81001,5
43122,81016,5
43137,81036,4
43154,81063,5
43160,81088,5
43172,81107,5
43177,81122,5
43206,81157,5
43216,81190,4
43230,81239,5
43239,81255,5
43264,81255,5
43256,81259,4
43251,81261,5
43233,81265,5
43263,81258,5
43260,81268,5
43256,81260,4
43222,81272,5
43253,81275,5
43260,81271,5
43257,81279,5
43247,81283,4
43249,81293,5
43263,81284,5
43272,81299,5
43290,81294,4
43262,81301,5
43271,81289,5
43265,81294,5
43304,81309,5
43283,81332,4
43299,81349,6
43308,81364,4
43338,81392,5
43335,81420,5
43347,81437,4
43355,81464,5
43370,81479,5
43372,81506,5
43391,81521,5
43396,81545,4
43422,81564,5
43423,81590,5
43442,81614,5
43460,81647,5
43461,81643,4
43469,81676,5
43492,81703,5
43490,81705,5
43491,81685,4
43494,81723,4
43491,81714,5
43479,81683,5
43466,81655,5
43456,81659,4
43455,81646,5
43455,81638,6
43451,81655,4
43460,81651,5
43461,81654,4
43459,81660,5
43465,81712,5
43479,81686,5
43487,81699,5
43492,81712,4
43488,81747,5
43496,81737,5
43522,81751,5
43524,81764,5
43517,81756,4
43513,81743,5
43480,81702,5
43458,81629,5
43427,81594,4
43423,81585,5
43415,81576,5
43410,81565,5
43410,81579,5
43420,81588,4
43433,81613,5
43444,81624,5
43448,81631,5
43449,81645,5
43456,81670,4
43464,81689,5
43480,81707,5
43500,81731,5
43510,81761,5
43529,81791,4
43555,81823,5
43568,81848,5
43577,81896,5
43594,81908,5
43607,81943,4
43629,81990,5
43643,82025,5
43660,82048,5
43677,82081,4
43695,82113,5
43700,82135,4
43727,82160,5
43739,82203,5
43751,82245,6
43767,82253,3
43769,82269,5
43764,82275,5
43779,82294,5
43779,82294,4
43773,82304,5
43778,82307,5
43782,82312,5
43779,82314,5
43776,82311,4
43779,82294,5
43764,82280,5
43751,82260,5
43744,82257,5
43752,82253,4
43753,82248,5
43752,82255,5
43746,82255,5
43749,82268,4
43757,82275,4
43766,82285,6
43769,82300,4
43786,82312,5
43796,82334,4
43794,82352,7
43811,82366,3
43818,82393,5
43820,82399,5
43837,82414,4
43844,82433,5
43843,82450,5
43841,82468,5
43853,82469,5
43860,82486,4
43867,82490,5
43863,82500,5
43867,82498,5
43858,82489,5
43861,82482,4
43855,82448,5
43837,82433,5
43827,82418,5
43813,82382,4
43791,82364,4
43782,82325,5
43758,82296,6
43752,82249,4
43717,82211,4
43701,82182,5
43686,82154,5
43676,82133,5
43652,82107,5
43648,82081,4
43623,82045,5
43630,82035,5
43593,82020,5
43612,82013,5
43604,82004,4
43594,81979,5
43544,81927,5
43516,81831,5
43475,81736,5
43443,81696,4
43401,81650,5
43411,81604,5
43391,81566,5
43380,81548,5
43380,81528,4
43364,81524,5
43347,81513,5
43335,81492,6
43379,81485,3
43333,81473,5
43333,81470,5
43333,81472,5
43356,81467,5
43332,81453,4
43323,81443,5
43318,81440,5
43339,81442,5
43321,81449,5
43328,81450,4
43324,81440,5
43322,81436,5
43328,81442,5
43321,81431,5
43314,81423,4
43309,81396,5
43303,81421,5
43319,81429,5
43324,81440,5
43329,81426,5
43328,81439,4
43320,81439,5
43325,81437,5
43308,81410,6
43318,81421,3
43312,81401,5
43296,81392,5
43283,81381,5
43270,81344,4
43263,81316,5
43247,81290,5
43233,81294,5
43216,81223,5
43194,81181,4
43174,81144,5
43156,81146,5
43141,81072,5
43123,81055,5
43110,81023,4
43096,81012,5
43081,80983,5
43076,80964,5
43065,80945,5
43060,80939,4
43056,80915,6
43039,80904,4
43036,80889,5
43033,80893,4
43040,80890,5
43037,80876,5
43034,80881,5
43037,80881,5
43033,80873,4
43038,80869,5
43028,80870,5
43026,80870,5
43024,80865,5
43032,80865,4
43025,80867,5
43027,80871,5
43018,80860,5
43016,80861,5
43012,80848,4
43012,80844,5
43023,80834,5
43011,80832,5
43002,80829,5
42998,80810,4
42988,80804,5
42980,80773,6
42970,80743,4
42940,80703,4
42921,80670,4
42900,80607,7
42873,80567,3
42839,80503,5
42824,80463,4
42796,80420,5
42766,80378,5
42745,80325,5
42741,80296,5
42720,80276,4
42711,80278,5
42726,80266,5
42712,80279,5
42717,80278,5
42728,80288,4
42722,80289,5
42718,80285,5
42721,80280,5
42719,80287,5
42725,80286,4
42722,80288,5
42708,80240,5
42666,80147,6
42595,80035,3
42576,79993,4
42559,79963,5
42541,79925,5
42522,79902,5
42517,79894,4
42510,79880,5
42513,79885,5
42510,79879,5
42511,79867,5
42504,79853,4
42503,79857,5
42493,79853,5
42498,79857,5
42503,79861,5
42510,79852,4
42503,79869,5
42505,79864,5
42508,79868,5
42514,79882,5
42505,79884,5
42516,79890,4
42526,79903,5
42523,79917,5
42532,79912,4
42540,79918,4
42533,79928,5
42547,79934,5
42545,79931,5
42545,79940,4
42556,79961,5
42566,79986,5
42581,80002,5
42564,80002,5
42577,79994,4
42579,80005,5
42587,80010,5
42556,80012,5
42585,80010,5
42588,80015,4
42585,80007,5
42552,79998,5
42581,79983,5
42571,79979,5
42572,79967,4
42568,79962,6
42554,79949,4
42557,79953,5
42556,79944,5
42585,79944,4
42552,79942,5
42550,79939,5
42550,79935,5
42583,79937,4
42549,79943,5
42550,79936,5
42558,79947,5
42568,79956,5
42560,79962,4
42564,79968,5
42564,79969,5
42566,79978,5
42572,79985,5
42575,79992,4
42593,79984,5
42585,79975,5
42585,79996,5
42591,80010,5
42579,80008,4
42589,79991,5
42592,80025,6
42601,80029,4
42597,80039,5
42604,80018,4
42604,80034,5
42596,80039,5
42603,80030,5
42608,80054,4
42602,80031,5
42597,80038,5
42593,80029,5
42600,80056,5
42594,80035,4
42587,80014,5
42592,80001,5
42582,80024,5
42568,79974,5
42556,79955,4
42543,79925,5
42530,79912,5
42514,79880,5
42504,79855,5
42491,79826,4
42491,79814,5
42472,79800,5
42471,79785,5
42459,79764,5
42465,79773,4
42464,79779,5
42467,79785,5
42479,79799,5
42487,79803,4
42493,79816,5
42500,79826,5
42505,79835,5
42494,79841,5
42500,79829,4
42503,79835,5
42498,79839,5
42499,79823,5
42472,79755,5
42416,79665,4
42387,79616,5
42379,79604,5
42367,79582,5
42356,79578,5
42354,79568,5
42360,79570,4
42357,79565,5
42354,79581,5
42360,79579,4
42367,79587,4
42374,79599,5
42374,79605,5
42385,79611,5
42385,79623,4
42395,79640,5
42401,79651,5
42408,79677,5
42413,79675,5
42427,79703,4
42432,79721,5
42434,79726,5
42452,79740,5
42455,79759,5
42459,79774,4
42470,79777,5
42470,79792,5
42478,79792,5
42487,79810,5
42491,79826,4
42507,79852,6
42521,79875,4
42533,79893,5
42538,79907,4
42546,79918,4
42546,79916,5
42553,79918,5
42552,79935,5
42557,79927,4
42557,79925,5
42538,79919,5
42547,79914,5
42549,79910,5
42549,79910,4
42549,79915,5
42539,79923,5
42555,79921,5
42559,79930,5
42553,79925,4
42552,79928,5
42550,79925,5
42562,79935,6
42557,79921,4
42557,79931,4
42561,79933,5
42568,79950,5
42566,79963,5
42588,79977,4
42580,79983,4
42579,79998,5
42600,79998,5
42600,80005,5
42610,80027,4
42610,80040,5
42612,80046,5
42620,80057,5
42634,80054,5
42608,80071,4
42637,80072,5
42634,80083,5
42649,80090,5
42621,80101,5
42647,80098,5
42651,80096,4
42658,80098,5
42632,80106,5
42651,80101,6
42645,80107,3
42657,80110,5
42666,80117,5
42658,80118,5
42660,80109,4
42650,80115,4
42699,80119,5
42663,80122,5
42656,80116,5
42671,80122,4
42680,80123,5
42653,80119,5
42658,80122,5
42651,80110,5
42662,80101,4
42646,80091,5
42637,80072,5
42624,80058,5
42619,80038,5
42608,80028,4
42608,80015,6
42598,80005,4
42587,79959,5
42591,79984,5
42571,79987,6
42582,79993,3
42598,79975,5
42606,80024,5
42617,80036,4
42611,80045,5
42627,80057,5
42623,80068,5
42632,80075,5
42631,80069,4
42632,80094,5
42630,80072,5
42628,80065,5
42625,80022,5
42576,79971,4
42533,79884,5
42517,79872,5
42523,79857,5
42513,79865,5
42506,79843,4
42501,79839,5
42506,79840,6
42512,79857,4
42520,79866,5
42507,79855,4
42528,79881,5
42530,79880,5
42544,79895,5
42549,79908,4
42552,79911,5
42555,79924,5
42550,79930,5
42565,79954,5
42571,79964,4
42588,79981,5
42592,80000,5
42600,80010,5
42609,80027,5
42614,80039,4
42619,80039,5
42625,80045,5
42628,80052,5
42632,80056,5
42627,80072,4
42643,80093,5
42659,80124,5
42670,80151,6
42674,80151,4
42674,80143,4
42681,80151,5
42678,80139,5
42675,80158,5
42681,80143,4
42674,80138,5
42664,80137,5
42665,80128,5
42662,80130,5
42655,80128,4
42673,80126,5
42661,80125,5
42673,80131,5
42671,80143,5
42664,80141,4
42673,80135,5
42664,80136,5
42681,80140,5
42673,80135,5
42679,80151,5
42681,80160,4
42684,80157,5
42691,80170,5
42702,80189,6
42712,80207,3
42715,80217,5
42727,80245,5
42739,80248,5
42741,80265,4
42750,80268,5
42751,80276,5
42749,80280,5
42742,80284,5
42754,80276,4
42745,80278,5
42752,80279,5
42756,80286,5
42760,80299,5
42769,80303,4
42764,80308,5
42761,80312,5
42765,80302,5
42767,80293,5
42760,80287,4
42760,80285,6
42755,80288,4
42760,80283,5
42754,80297,4
42750,80284,4
42749,80283,5
42747,80284,5
42749,80259,5
42742,80253,4
42726,80233,5
42715,80208,5
42699,80178,5
42682,80154,5
42677,80139,4
42668,80116,5
42654,80105,5
42655,80100,5
42651,80106,5
42656,80107,4
42640,80101,5
42655,80111,5
42668,80103,5
42661,80109,5
42637,80116,4
42667,80116,5
42662,80108,6
42655,80102,4
42650,80096,4
42648,80085,4
42650,80077,5
42633,80045,5
42633,79988,5
42551,79891,4
42508,79839,5
42503,79836,5
42538,79820,5
42503,79807,5
42502,79810,4
42498,79813,5
42523,79820,5
42518,79834,5
42513,79839,5
42516,79846,4
42527,79852,5
42530,79869,5
42530,79885,5
42544,79900,5
42548,79905,4
42569,79933,5
42573,79959,5
42590,79974,6
42592,79961,3
42607,80006,4
42612,80027,5
42621,80039,5
42632,80011,5
42640,80059,4
42649,80076,5
42652,80088,5
42660,80097,5
42664,80120,5
42672,80153,4
42696,80182,5
42707,80231,5
42728,80231,5
42727,80232,5
42734,80243,4
42733,80283,5
42735,80261,5
42738,80260,5
42740,80265,5
42737,80282,5
42750,80268,4
42733,80266,5
42751,80277,5
42751,80285,4
42753,80294,4
42753,80289,5
42761,80306,5
42778,80330,5
42786,80344,4
42787,80341,5
42779,80353,5
42795,80362,5
42790,80369,5
42802,80372,4
42808,80397,5
42824,80412,5
42830,80441,5
42846,80455,5
42858,80484,4
42867,80507,5
42882,80527,6
42895,80547,4
42903,80565,5
42908,80581,4
42913,80588,6
42918,80605,4
42927,80620,5
42929,80632,5
42940,80634,4
42949,80640,5
42945,80659,5
42943,80655,5
42947,80661,4
42938,80655,5
42937,80650,5
42935,80650,5
42940,80650,5
42935,80651,4
42942,80650,5
42952,80668,5
42938,80660,5
42944,80673,5
42951,80683,4
42949,80699,5
42959,80708,5
42965,80717,5
42964,80716,5
42967,80715,4
42962,80705,5
42966,80716,6
42974,80727,4
42977,80728,5
42968,80707,4
42965,80694,5
42927,80634,5
42890,80572,5
42872,80553,4
42870,80541,5
42867,80532,5
42868,80538,5
42875,80547,5
42882,80549,4
42880,80570,5
42896,80586,5
42899,80604,5
42916,80621,5
42922,80650,4
42934,80667,5
42952,80706,5
42974,80725,5
42993,80772,5
43012,80791,4
43026,80831,5
43037,80861,5
43063,80900,5
43073,80935,5
43098,80960,4
43119,80997,5
43135,81036,5
43154,81062,5
43167,81095,4
43182,81120,5
43194,81158,5
43211,81188,5
43240,81239,5
43259,81265,4
43261,81283,5
43255,81288,5
43267,81314,5
43281,81336,5
43300,81340,4
43302,81350,5
43283,81374,5
43303,81367,5
43307,81370,5
43298,81363,5
43277,81360,4
43301,81366,5
43314,81372,5
43305,81377,5
43305,81388,4
43325,81403,5
43332,81411,5
43341,81430,5
43367,81443,4
43347,81471,4
43360,81472,5
43377,81505,5
43419,81527,5
43396,81562,4
43411,81589,5
43432,81624,5
43465,81649,5
43457,81673,5
43467,81712,4
43486,81734,5
43489,81745,6
43493,81756,4
43500,81772,5
43514,81788,4
43525,81789,7
43514,81809,3
43524,81811,5
43513,81808,5
43514,81772,4
43507,81791,5
43503,81777,5
43490,81769,5
43485,81724,4
43490,81759,4
43482,81757,5
43495,81758,5
43492,81764,5
43496,81787,4
43502,81792,5
43501,81795,5
43510,81820,5
43498,81788,5
43504,81806,4
43512,81809,5
43524,81864,5
43517,81830,6
43521,81829,4
43498,81781,4
43480,81761,5
43467,81714,5
43465,81696,5
43449,81685,5
43450,81690,4
43455,81684,5
43448,81692,5
43452,81704,5
43450,81713,4
43466,81723,4
43474,81720,5
43470,81732,5
43476,81745,5
43477,81743,4
43488,81756,5
43484,81751,5
43480,81765,5
43479,81761,5
43492,81756,5
43484,81771,4
43494,81757,5
43481,81752,5
43469,81744,6
43484,81732,3
43474,81729,5
43467,81737,5
43464,81722,5
43467,81711,5
43464,81711,4
43459,81711,5
43479,81722,5
43470,81724,5
43456,81694,5
43444,81680,4
43436,81663,5
43430,81638,5
43421,81633,5
43411,81610,4
43390,81586,5
43381,81559,5
43374,81537,5
43353,81510,5
43347,81481,4
43316,81440,6
43294,81405,4
43275,81361,5
43258,81329,5
43248,81292,6
43231,81265,3
43219,81242,5
43203,81221,5
43202,81197,5
43190,81189,4
43180,81163,5
43175,81148,5
43163,81144,5
43163,81133,5
43163,81136,4
43159,81131,5
43159,81128,5
43159,81127,5
43153,81123,4
43154,81119,4
43147,81107,5
43141,81092,5
43136,81072,5
43117,81047,4
43109,81031,5
43089,81001,6
43077,80963,4
43054,80941,5
43048,80910,4
43027,80876,5
43008,80847,5
43003,80835,5
42976,80809,5
42981,80791,4
42971,80765,5
42947,80735,5
42933,80704,5
42935,80702,5
42924,80686,4
42926,80690,5
42916,80682,5
42922,80661,5
42891,80597,4
42841,80495,4
42808,80441,5
42781,80401,5
42752,80359,5
42735,80332,4
42725,80305,5
42712,80292,5
42692,80278,6
42703,80279,4
42711,80261,4
42698,80262,5
42673,80246,5
42690,80250,5
42697,80233,5
42697,80235,4
42668,80231,5
42673,80216,5
42676,80214,5
42677,80210,5
42693,80204,4
42662,80199,5
42666,80203,5
42668,80197,5
42703,80202,4
42674,80189,4
42671,80198,5
42680,80200,5
42693,80202,5
42676,80199,5
42682,80204,4
42681,80220,5
42714,80226,5
42698,80246,6
42698,80236,3
42691,80237,5
42685,80218,5
42693,80226,5
42691,80226,5
42693,80230,4
42679,80181,5
42686,80208,5
42674,80190,5
42675,80186,5
42673,80139,4
42657,80155,5
42636,80136,5
42630,80107,5
42634,80081,5
42621,80073,4
42609,80046,5
42598,80037,5
42584,80040,5
42579,80000,4
42574,79991,6
42571,79982,4
42568,80009,5
42567,79987,5
42575,79983,4
42575,79977,5
42568,80009,5
42569,79983,5
42577,79995,5
42583,79989,4
42570,79992,5
42575,79986,5
42569,79973,5
42573,79982,5
42570,79988,4
42561,79978,5
42569,79966,5
42561,79970,5
42563,79968,5
42567,79964,4
42550,79946,5
42548,79932,5
42523,79897,5
42501,79866,4
42496,79826,4
42468,79786,6
42455,79751,4
42433,79728,5
42413,79679,4
42394,79663,5
42383,79628,5
42369,79592,5
42359,79589,5
42343,79573,4
42356,79567,5
42344,79568,5
42346,79569,5
42350,79581,5
42358,79581,4
42358,79582,5
42342,79564,5
42334,79567,5
42332,79566,5
42345,79581,4
42337,79567,5
42320,79517,5
42274,79425,5
42223,79351,4
42200,79320,4
42208,79303,5
42189,79276,6
42179,79264,4
42173,79272,4
42175,79263,5
42174,79253,5
42173,79255,5
42163,79251,5
42161,79253,4
42163,79247,5
42165,79269,5
42168,79272,5
42167,79268,5
42163,79272,4
42172,79288,5
42178,79298,5
42185,79303,5
42194,79301,5
42196,79316,4
42187,79318,5
42198,79331,5
42198,79328,5
42206,79334,5
42199,79345,4
42204,79340,5
42205,79357,5
42211,79360,5
42219,79368,4
42224,79383,5
42224,79395,5
42245,79406,5
42240,79403,5
42235,79396,4
42240,79404,5
42245,79413,5
42247,79413,5
42253,79414,5
42242,79414,4
42249,79428,5
42249,79425,5
42253,79422,5
42249,79414,5
42242,79416,4
42251,79410,5
42238,79415,5
42241,79410,5
42237,79408,5
42237,79404,5
42227,79394,4
42233,79397,5
42216,79395,5
42231,79401,4
42243,79393,4
42241,79406,5
42211,79408,5
42235,79414,5
42242,79421,4
42241,79423,5
42225,79428,5
42254,79435,5
42253,79435,5
42261,79437,4
42282,79445,5
42267,79446,5
42268,79453,5
42274,79461,5
42298,79459,4
42264,79471,5
42283,79478,5
42282,79469,5
42312,79487,5
42281,79479,4
42284,79468,6
42280,79472,4
42292,79468,5
42275,79459,4
42267,79441,4
42245,79429,5
42249,79396,5
42225,79376,5
42216,79350,4
42212,79330,5
42197,79306,5
42184,79301,5
42187,79295,5
42181,79288,4
42184,79269,5
42182,79293,5
42188,79306,5
42182,79306,5
42198,79285,4
42196,79320,5
42203,79327,5
42208,79346,5
42215,79353,5
42204,79339,4
42212,79343,5
42211,79354,5
42225,79394,5
42223,79364,4
42220,79345,4
42189,79271,5
42136,79224,5
42121,79161,5
42105,79140,4
42091,79128,8
42097,79133,2
42091,79120,5
42093,79122,5
42089,79127,4
42097,79136,5
42099,79121,5
42102,79140,5
42103,79145,5
42107,79151,5
42113,79167,4
42120,79175,5
42131,79189,5
42133,79193,6
42145,79208,3
42143,79218,5
42159,79225,5
42152,79239,5
42164,79250,5
42172,79260,4
42184,79277,5
42185,79293,5
42198,79302,5
42197,79307,4
42197,79318,5
42213,79319,5
42211,79341,5
42216,79355,5
42240,79386,4
42249,79402,5
42248,79401,5
42249,79405,5
42244,79403,5
42245,79407,4
42245,79403,6
42249,79412,4
42248,79421,5
42260,79417,5
42263,79414,6
42260,79423,3
42263,79420,5
42263,79424,5
42263,79420,5
42261,79436,4
42265,79419,5
42258,79423,5
42257,79429,5
42263,79419,4
42260,79421,4
42262,79428,5
42263,79427,5
42259,79431,5
42264,79442,4
42280,79447,5
42268,79440,5
42273,79451,5
42288,79465,5
42292,79477,4
42294,79481,5
42296,79487,6
42297,79503,4
42313,79509,5
42315,79526,4
42325,79535,5
42327,79549,5
42336,79559,5
42330,79561,5
42344,79561,4
42337,79565,5
42341,79575,5
42346,79581,5
42343,79585,4
42349,79581,4
42350,79584,5
42339,79582,5
42347,79586,5
42346,79579,4
42352,79586,5
42356,79583,5
42349,79582,5
42355,79588,5
42353,79593,4
42357,79599,5
42353,79597,5
42359,79598,6
42348,79591,4
42350,79597,4
42357,79596,5
42361,79602,5
42360,79591,5
42341,79597,5
42351,79585,4
42351,79580,5
42347,79572,5
42310,79551,5
42320,79529,5
42311,79506,4
42297,79476,5
42256,79461,5
42269,79436,5
42261,79422,4
42269,79415,5
42255,79412,5
42258,79416,5
42261,79434,5
42276,79444,5
42305,79472,4
42296,79489,5
42303,79502,5
42309,79513,6
42348,79536,3
42326,79537,5
42318,79528,5
42327,79539,5
42340,79545,5
42324,79544,4
42321,79517,5
42286,79449,5
42254,79392,5
42240,79373,5
42225,79366,4
42216,79352,5
42214,79323,5
42225,79332,5
42210,79331,4
42218,79339,5
42223,79328,5
42218,79352,5
42223,79350,5
42231,79365,4
42237,79344,6
42242,79388,4
42241,79380,5
42255,79404,5
42261,79416,4
42261,79425,5
42267,79445,5
42284,79456,5
42280,79496,5
42299,79486,4
42305,79490,5
42307,79499,5
42317,79555,5
42321,79526,5
42316,79527,4
42329,79538,5
42334,79561,5
42333,79547,5
42340,79561,4
42353,79583,5
42362,79615,5
42365,79615,5
42374,79609,5
42370,79611,4
42367,79611,5
42377,79618,6
42379,79619,4
42372,79612,5
42369,79612,4
42358,79608,5
42356,79607,5
42365,79600,5
42358,79601,5
42365,79600,4
42363,79590,5
42352,79595,5
42359,79580,5
42346,79587,5
42353,79580,4
42350,79576,5
42353,79575,5
42352,79582,5
42354,79587,4
42352,79580,5
42362,79595,5
42365,79607,5
42371,79614,5
42375,79627,4
42383,79635,5
42383,79645,5
42394,79654,6
42392,79656,4
42393,79665,4
42399,79666,5
42391,79658,5
42386,79673,5
42402,79669,5
42399,79675,4
42410,79672,5
42400,79685,5
42398,79680,5
42411,79680,5
42412,79679,4
42402,79678,5
42401,79682,5
42408,79672,5
42398,79677,4
42400,79665,4
42402,79668,5
42391,79659,5
42396,79661,5
42393,79663,5
42385,79659,4
42385,79652,5
42390,79653,5
42387,79644,5
42383,79635,4
42383,79634,5
42373,79614,5
42369,79616,5
42367,79595,5
42354,79585,4
42343,79561,5
42342,79551,5
42331,79535,5
42319,79532,5
42313,79522,4
42315,79526,5
42319,79524,5
42316,79519,5
42306,79512,4
42315,79517,4
42319,79536,5
42323,79541,5
42337,79546,5
42339,79546,4
42329,79552,6
42337,79553,4
42340,79551,5
42329,79551,5
42325,79548,4
42333,79545,5
42328,79542,5
42311,79503,5
42262,79416,5
42219,79366,4
42231,79352,5
42211,79340,5
42218,79331,5
42185,79337,5
42216,79323,4
42222,79344,5
42225,79363,5
42206,79363,5
42241,79375,4
42248,79406,4
42266,79428,5
42272,79441,5
42284,79459,5
42292,79485,4
42303,79505,5
42338,79525,6
42321,79555,4
42344,79570,5
42348,79595,4
42381,79606,5
42367,79626,5
42369,79643,5
42384,79654,5
42409,79671,4
42393,79682,5
42411,79694,5
42409,79699,5
42427,79715,5
42439,79736,4
42436,79758,5
42463,79788,5
42467,79770,5
42461,79794,4
42467,79813,5
42473,79817,5
42473,79808,5
42477,79839,5
42482,79841,4
42481,79845,5
42494,79827,5
42490,79848,5
42493,79859,5
42496,79867,4
42497,79882,5
42492,79881,5
42501,79876,5
42506,79895,5
42507,79933,4
42519,79921,5
42530,79923,5
42535,79936,5
42545,79982,5
42552,79976,4
42569,79987,5
42565,80019,5
42585,80049,5
42591,80053,4
42605,80076,5
42608,80105,5
42627,80115,5
42636,80139,5
42645,80163,5
42659,80176,4
42666,80203,5
42678,80208,5
42680,80231,5
42689,80255,4
42702,80263,5
42710,80287,5
42712,80293,5
42730,80301,5
42727,80319,4
42728,80324,5
42727,80329,5
42738,80334,5
42738,80337,5
42738,80338,4
42728,80321,5
42732,80321,5
42723,80316,5
42724,80314,4
42730,80321,5
42725,80326,5
42730,80336,5
42738,80340,5
42746,80348,4
42757,80355,6
42758,80377,4
42764,80405,5
42770,80405,5
42779,80419,4
42764,80419,5
42784,80420,5
42784,80445,5
42792,80460,5
42798,80470,4
42800,80477,5
42793,80450,5
42765,80393,5
42732,80335,5
42720,80311,4
42706,80305,5
42699,80283,5
42697,80283,5
42699,80283,4
42702,80302,5
42712,80309,5
42722,80321,5
42730,80339,4
42738,80361,4
42749,80385,5
42768,80410,5
42769,80434,5
42796,80464,5
42809,80490,4
42822,80523,5
42844,80552,5
42858,80589,5
42880,80622,5
42898,80655,4
42907,80696,5
42924,80721,5
42933,80737,5
42949,80769,4
42957,80786,4
42966,80806,5
42971,80825,5
42989,80854,5
43005,80894,5
43029,80929,4
43026,80954,5
43039,80967,5
43041,80975,6
43053,80979,3
43050,80983,5
43047,80993,5
43058,81000,5
43057,80996,5
43051,80980,4
43048,80990,5
43041,80977,5
43042,80973,5
43040,80956,5
43038,80963,4
43007,80956,5
43028,80950,5
43038,80963,5
43036,80959,4
43015,80967,4
43044,80978,5
43051,80984,5
43053,81002,5
43042,81011,4
43058,81031,6
43078,81023,4
43083,81053,5
43115,81064,5
43110,81095,6
43117,81107,3
43122,81124,5
43162,81141,5
43126,81139,5
43137,81157,4
43137,81158,5
43171,81164,5
43148,81177,5
43143,81174,5
43144,81168,4
43157,81164,5
43136,81162,5
43138,81152,5
43117,81136,4
43116,81099,4
43100,81090,5
43088,81055,5
43065,81023,5
43061,80984,4
43049,80984,5
43027,80956,6
43016,80927,4
43007,80886,5
43003,80889,4
42991,80883,6
42982,80871,4
42966,80860,5
42966,80843,5
42962,80814,4
42941,80796,5
42936,80811,5
42931,80786,5
42934,80784,5
42935,80779,4
42932,80794,5
42899,80701,5
42854,80598,5
42809,80522,4
42781,80507,4
42764,80448,5
42745,80404,5
42728,80385,5
42721,80366,4
42717,80359,5
42702,80361,5
42697,80347,6
42696,80327,4
42703,80331,4
42686,80315,5
42690,80323,5
42683,80323,5
42694,80304,5
42684,80302,4
42681,80300,5
42668,80277,5
42670,80280,5
42671,80281,5
42673,80257,4
42663,80264,5
42649,80255,5
42651,80250,5
42639,80220,4
42640,80216,5
42620,80204,5
42618,80184,5
42611,80174,5
42617,80169,5
42615,80171,4
42617,80171,5
42595,80138,5
42586,80103,6
42580,80098,3
42565,80071,5
42554,80049,5
42532,80017,5
42518,79988,5
42508,79968,4
42495,79932,5
42483,79908,5
42464,79880,5
42442,79848,5
42438,79813,4
42414,79781,5
42407,79758,5
42390,79736,5
42372,79701,4
42366,79679,5
42353,79662,5
42341,79652,5
42344,79647,5
42341,79633,4
42338,79640,6
42341,79639,4
42331,79640,5
42337,79630,5
42330,79629,4
42334,79624,5
42341,79640,5
42348,79635,5
42345,79639,5
42346,79641,4
42339,79636,5
42343,79627,5
42337,79631,5
42336,79636,5
42332,79627,4
42328,79626,5
42325,79627,5
42333,79611,5
42327,79611,4
42330,79605,5
42321,79595,5
42325,79596,5
42317,79579,5
42303,79566,4
42297,79552,5
42284,79522,6
42266,79507,4
42259,79471,5
42240,79442,4
42214,79405,5
42187,79353,5
42179,79321,5
42151,79297,5
42144,79272,4
42145,79264,5
42150,79265,5
42126,79270,5
42159,79280,5
42157,79296,4
42161,79296,5
42141,79318,5
42175,79328,5
42183,79328,4
42181,79324,5
42158,79328,5
42180,79319,5
42171,79313,5
42164,79311,4
42181,79320,5
42176,79320,5
42171,79290,6
42129,79207,4
42100,79132,4
42061,79097,5
42053,79073,5
42027,79059,5
42058,79036,5
42019,79017,4
42012,79009,5
42014,79001,5
42024,79011,5
42017,79012,4
42018,79012,4
42014,79019,5
42029,79029,5
42034,79036,5
42039,79050,4
42045,79065,5
42049,79055,5
42057,79089,5
42057,79094,5
42070,79099,5
42074,79084,4
42087,79135,5
42094,79140,5
42091,79150,5
42091,79137,4
42097,79159,5
42102,79174,5
42103,79179,5
42117,79210,5
42123,79208,4
42125,79205,5
42139,79236,5
42150,79280,5
42152,79254,4
42152,79255,4
42152,79269,5
42154,79292,5
42160,79274,5
42161,79273,4
42165,79279,5
42164,79278,5
42167,79270,5
42160,79263,5
42166,79265,4
42157,79273,6
42155,79271,4
42149,79267,5
42159,79276,5
42149,79268,4
42153,79265,5
42156,79266,5
42160,79261,5
42152,79264,5
42154,79258,4
42150,79262,5
42154,79260,5
42158,79262,5
42158,79263,4
42164,79271,4
42158,79270,5
42165,79269,5
42164,79285,5
42166,79278,4
42173,79282,5
42167,79297,5
42167,79289,5
42173,79299,5
42170,79296,4
42180,79300,5
42181,79311,6
42183,79308,4
42188,79310,5
42189,79326,4
42192,79313,5
42183,79318,5
42184,79308,5
42189,79311,5
42186,79309,4
42184,79305,5
42182,79305,5
42184,79304,5
42180,79302,4
42171,79304,4
42172,79290,5
42170,79293,5
42181,79289,5
42171,79294,4
42171,79285,5
42161,79283,5
42163,79281,5
42165,79279,5
42158,79276,4
42155,79271,5
42150,79259,5
42143,79242,5
42133,79228,5
42131,79210,4
42112,79187,5
42099,79154,5
42093,79134,5
42071,79103,5
42051,79083,4
42043,79063,5
42047,79056,5
42037,79059,5
42057,79080,4
42065,79091,4
42072,79112,5
42081,79141,5
42091,79154,5
42092,79150,4
42096,79155,5
42114,79173,5
42111,79183,5
42117,79182,5
42112,79187,5
42111,79185,4
42125,79193,5
42127,79196,5
42115,79177,5
42090,79116,4
42045,79048,5
42026,79021,5
42010,79003,5
42004,78988,5
41997,78965,4
41989,78956,5
41989,78957,5
41992,78958,5
41968,78958,4
41995,78973,4
42009,78981,5
42012,78995,5
41990,79002,5
42030,79016,4
42035,79033,5
42044,79043,5
42026,79052,4
42053,79059,5
42060,79071,4
42059,79089,7
42079,79089,3
42076,79096,5
42083,79118,5
42083,79132,4
42126,79140,5
42093,79155,5
42110,79161,5
42124,79172,5
42141,79181,9
42124,79196,5
42124,79206,5
42142,79215,5
42174,79278,8
42174,79278,5
42156,79295,5
42165,79298,8
42187,79304,5
42193,79279,5
42187,79306,5
42192,79304,8
42180,79299,5
42183,79275,5
42184,79307,8
42187,79309,5
42175,79295,5
42183,79328,8
42183,79328,5
42173,79304,5
42186,79314,5
42197,79336,8
42192,79360,5
42196,79321,5
42202,79334,8
42211,79335,5
42234,79368,5
42204,79349,5
42209,79359,8
42221,79371,5
42228,79385,5
42238,79407,8
42238,79407,5
42233,79409,5
42246,79388,8
42240,79400,5
42251,79420,5
42289,79418,5
42258,79421,8
42218,79423,5
42255,79429,5
42262,79436,8
42256,79434,5
42256,79432,5
42254,79423,5
42250,79412,8
42250,79412,5
42243,79414,5
42253,79415,8
42245,79418,5
42247,79415,5
42232,79405,8
42245,79406,5
42241,79426,5
42242,79407,5
42233,79390,8
42237,79390,5
42231,79388,5
42182,79295,8
42182,79295,5
42176,79280,5
42161,79256,5
42141,79244,8
42150,79234,5
42148,79228,5
42152,79273,8
42157,79251,5
42167,79247,5
42179,79294,8
42209,79337,5
42209,79337,5
42211,79349,5
42201,79350,8
42205,79349,5
42209,79346,5
42212,79348,8
42216,79347,5
42194,79306,5
42148,79181,9
42128,79163,5
42113,79158,5
42101,79142,5
42079,79129,8
42079,79129,5
42049,79125,5
42087,79137,8
42105,79153,5
42107,79158,5
42118,79172,5
42116,79179,8
42121,79188,5
42131,79204,5
42148,79228,8
42146,79230,5
42141,79237,5
42194,79303,8
42194,79303,5
42169,79306,5
42188,79317,5
42198,79347,8
42208,79334,5
42185,79330,5
42208,79343,8
42219,79368,5
42253,79380,5
42214,79407,5
42246,79414,8
42251,79415,5
42248,79412,5
42278,79412,8
42278,79412,5
42249,79421,5
42250,79386,8
42242,79398,5
42279,79421,5
42282,79415,5
42250,79422,8
42217,79423,5
42264,79421,5
42247,79423,8
42260,79440,5
42255,79435,5
42270,79440,10
42270,79440,8
42272,79452,9
42280,79479,8
42280,79479,5
42300,79495,5
42318,79473,3
42314,79512,0
42314,79512,3
42308,79517,5
42299,79526,5
42316,79526,4
42310,79531,5
42311,79532,5
42321,79531,5
42322,79562,5
42318,79533,4
42319,79537,5
42305,79537,5
42320,79573,5
42311,79536,4
42321,79528,4
42309,79525,5
42303,79540,5
42316,79523,5
42305,79525,4
42309,79526,5
42307,79514,6
42293,79498,4
42296,79484,5
42282,79475,4
42270,79456,5
42261,79436,5
42253,79420,5
42241,79397,5
42234,79386,4
42225,79371,5
42220,79360,5
42206,79357,5
42213,79347,5
42210,79334,4
42207,79349,5
42215,79360,5
42219,79353,5
42230,79378,4
42227,79361,4
42222,79365,5
42223,79374,5
42229,79368,5
42219,79361,4
42214,79361,5
42225,79360,5
42211,79346,6
42199,79332,4
42181,79267,4
42143,79200,5
42119,79174,5
42115,79172,5
42104,79150,5
42102,79130,4
42097,79136,5
42096,79132,5
42093,79135,5
42103,79142,5
42103,79154,4
42106,79159,5
42119,79172,5
42131,79185,5
42132,79198,5
42139,79214,4
42156,79225,5
42158,79244,5
42161,79264,5
42172,79277,5
42176,79293,4
42186,79307,5
42194,79308,5
42194,79324,5
42201,79336,4
42209,79344,5
42211,79356,5
42218,79353,5
42229,79370,5
42232,79383,4
42233,79385,5
42238,79410,5
42251,79422,5
42265,79452,5
42260,79440,4
42274,79458,5
42275,79459,5
42277,79459,5
42274,79468,5
42277,79467,4
42283,79457,5
42281,79467,5
42281,79469,5
42278,79477,4
42285,79477,6
42286,79482,4
42292,79482,5
42293,79487,5
42296,79491,4
42296,79495,5
42298,79494,5
42302,79505,5
42301,79507,5
42303,79503,4
42303,79512,5
42309,79529,5
42322,79540,5
42334,79551,5
42327,79575,4
42344,79586,5
42349,79603,5
42356,79615,5
42348,79637,5
42380,79660,4
42390,79673,5
42392,79680,5
42375,79699,5
42406,79711,4
42407,79708,4
42418,79729,6
42416,79736,4
42438,79757,5
42441,79768,4
42436,79772,5
42457,79775,5
42441,79783,5
42439,79781,5
42442,79767,4
42471,79761,5
42442,79764,5
42441,79751,5
42430,79744,5
42448,79736,4
42414,79728,5
42415,79717,5
42409,79713,5
42412,79707,5
42408,79701,4
42412,79714,5
42408,79716,5
42415,79701,5
42405,79708,4
42411,79713,4
42411,79723,5
42428,79710,5
42419,79727,5
42414,79728,4
42409,79725,5
42413,79694,5
42418,79734,5
42416,79725,5
42424,79723,4
42420,79703,5
42404,79686,5
42360,79613,5
42337,79577,5
42313,79565,4
42320,79534,5
42317,79527,5
42301,79523,5
42311,79560,5
42316,79528,4
42320,79541,5
42329,79557,5
42330,79590,5
42343,79584,5
42348,79606,3
42363,79621,5
42379,79652,5
42395,79668,5
42399,79693,4
42403,79703,5
42414,79742,5
42429,79761,5
42449,79781,5
42459,79810,4
42478,79830,5
42484,79853,5
42493,79863,5
42504,79893,5
42516,79917,4
42529,79942,5
42529,79950,5
42555,79977,5
42569,80007,5
42580,80052,4
42608,80080,6
42612,80086,4
42615,80073,5
42617,80090,5
42620,80104,6
42614,80106,3
42624,80111,5
42641,80122,5
42637,80126,4
42636,80132,5
42643,80137,5
42632,80142,5
42638,80149,5
42654,80147,4
42646,80162,5
42653,80164,5
42667,80181,5
42663,80191,5
42670,80215,4
42689,80222,5
42695,80250,5
42702,80267,5
42713,80282,5
42732,80305,4
42748,80340,5
42760,80365,6
42774,80392,4
42789,80419,5
42805,80444,4
42814,80482,5
42831,80498,5
42839,80526,5
42863,80555,4
42873,80575,5
42885,80597,5
42894,80618,5
42893,80631,5
42919,80657,4
42919,80670,5
42934,80691,5
42944,80708,5
42952,80712,5
42944,80709,4
42940,80705,5
42943,80697,5
42937,80691,5
42935,80682,5
42940,80674,4
42926,80671,5
42924,80674,5
42928,80682,6
42927,80684,4
42931,80688,4
42944,80704,5
42948,80716,5
42955,80729,5
42963,80748,4
42975,80762,4
42976,80763,5
42983,80777,5
42994,80778,5
42993,80806,4
43003,80810,5
43012,80827,5
43015,80812,5
42989,80780,5
42958,80712,4
42930,80687,5
42922,80665,5
42915,80643,5
42909,80634,5
42876,80621,5
42900,80636,4
42912,80643,5
42917,80663,5
42897,80676,6
42945,80698,3
42943,80706,5
42962,80738,5
42953,80762,5
42996,80800,4
43005,80828,4
43033,80860,5
43054,80898,5
43076,80941,5
43096,80980,4
43112,81015,5
43155,81038,5
43140,81072,5
43148,81096,5
43170,81121,4
43221,81148,5
43197,81181,5
43205,81203,5
43213,81205,5
43232,81227,4
43235,81238,6
43238,81270,4
43252,81290,5
43254,81286,5
43248,81275,4
43247,81277,5
43243,81280,5
43236,81248,5
43235,81257,4
43217,81230,4
43214,81227,5
43196,81182,5
43198,81189,5
43186,81169,4
43168,81142,5
43156,81093,5
43144,81083,5
43127,81076,5
43112,81049,4
43113,81030,5
43086,81019,5
43093,80999,5
43080,80982,5
43070,81003,4
43070,80963,5
43067,80960,6
43063,80959,4
43074,80986,5
43064,80964,4
43071,80957,5
43072,80945,5
43071,80973,5
43064,80962,5
43066,80952,4
43070,80953,5
43067,80945,5
43057,80947,5
43054,80927,4
43058,80924,5
43049,80912,5
43037,80898,5
43033,80881,5
43014,80842,4
42998,80809,5
42978,80775,5
42955,80731,5
42932,80698,5
42907,80663,4
42891,80624,5
42870,80582,5
42854,80551,6
42846,80530,4
42822,80500,4
42819,80482,5
42796,80464,5
42791,80435,5
42787,80410,5
42780,80387,4
42768,80384,5
42756,80380,5
42751,80374,5
42759,80361,4
42750,80342,4
42723,80300,5
42680,80197,5
42628,80120,5
42609,80093,4
42590,80042,5
42568,80003,5
42551,79972,5
42535,79946,5
42518,79928,5
42525,79918,4
42521,79904,5
42511,79895,5
42513,79895,5
42511,79896,4
42501,79893,5
42513,79896,5
42512,79897,5
42507,79897,5
42510,79895,4
42517,79903,5
42520,79902,5
42525,79904,5
42514,79918,4
42530,79913,4
42525,79923,5
42529,79929,5
42515,79913,5
42522,79916,4
42529,79929,5
