RED,IR,EKG,TIME
35367,65571,9
35366,65564,5
35351,65571,8
35361,65576,5
35380,65566,5
35378,65585,8
35378,65583,5
35366,65566,5
35384,65574,8
35375,65569,5
35380,65577,5
35373,65570,5
35367,65553,8
35367,65553,5
35347,65546,5
35354,65543,8
35356,65566,5
35355,65547,5
35359,65529,5
35358,65528,8
35352,65527,5
35367,65524,5
35347,65520,8
35337,65510,5
35341,65512,5
35341,65518,5
35328,65500,8
35328,65500,5
35335,65545,5
35332,65489,8
35326,65478,5
35328,65497,5
35352,65500,8
35344,65498,5
35305,65494,5
35324,65492,5
35329,65489,8
35327,65505,5
35336,65490,5
35316,65475,8
35316,65475,5
35319,65435,5
35356,65566,8
35312,65482,5
35317,65474,5
35304,65477,5
35304,65480,8
35323,65474,5
35317,65486,5
35318,65478,8
35312,65471,5
35324,65462,5
35307,65472,5
35303,65459,8
35303,65459,5
35305,65452,5
35305,65443,8
35290,65439,5
35296,65437,5
35292,65441,5
35291,65445,8
35280,65425,5
35279,65392,5
35278,65401,8
35299,65399,5
35261,65376,5
35261,65376,8
35260,65366,5
35258,65375,5
35251,65369,5
35255,65375,8
35254,65382,5
35254,65370,5
35247,65317,8
35241,65351,5
35250,65367,5
35248,65360,5
35255,65379,8
35255,65379,5
35256,65370,5
35259,65370,8
35256,65378,5
35266,65386,5
35268,65382,8
35252,65386,5
35268,65387,5
35266,65392,5
35279,65395,8
35271,65392,5
35258,65399,5
35268,65387,8
35268,65387,5
35269,65405,5
35265,65401,5
35291,65399,8
35271,65397,5
35266,65397,5
35268,65390,8
35278,65399,5
35275,65400,5
35256,65401,8
35266,65389,5
35265,65389,5
35267,65389,5
35260,65378,8
35260,65378,2
35239,65373,0
35239,65373,3
35248,65371,5
35263,65381,5
35260,65375,4
35262,65372,5
35252,65370,5
35258,65370,5
35263,65376,5
35257,65361,4
35266,65367,6
35257,65371,4
35260,65367,5
35255,65364,4
35268,65368,5
35253,65361,5
35252,65367,5
35251,65366,5
35263,65366,4
35248,65377,5
35253,65366,5
35255,65367,5
35250,65372,5
35252,65366,4
35253,65358,5
35242,65359,5
35243,65356,5
35254,65346,5
35246,65354,4
35243,65355,5
35244,65351,5
35254,65359,5
35249,65353,4
35249,65364,5
35242,65351,5
35243,65360,5
35252,65364,5
35246,65362,4
35250,65365,5
35254,65358,5
35245,65351,5
35255,65355,5
35251,65362,4
35252,65355,5
35241,65354,5
35246,65350,5
35248,65356,5
35245,65355,4
35247,65355,5
35243,65355,5
35249,65359,5
35245,65356,5
35242,65356,4
35250,65360,5
35242,65354,5
35234,65350,5
35250,65350,5
35246,65340,4
35239,65341,5
35238,65337,5
35234,65333,5
35230,65332,4
35235,65335,5
35229,65329,5
35227,65322,5
35222,65327,5
35226,65330,4
35232,65322,5
35226,65311,5
35224,65332,5
35224,65321,5
35219,65323,4
35224,65328,5
35228,65328,5
35232,65330,5
35232,65334,4
35230,65337,4
35229,65334,5
35240,65324,4
35232,65327,5
35227,65327,4
35231,65325,7
35225,65326,3
35228,65314,5
35226,65315,5
35217,65312,4
35222,65319,5
35223,65321,5
35222,65318,5
35226,65328,5
35222,65321,4
35217,65320,5
35229,65323,5
35224,65326,5
35223,65335,5
35228,65323,4
35225,65326,5
35223,65328,5
35226,65327,5
35224,65327,4
35233,65328,5
35227,65326,5
35233,65336,6
35234,65325,4
35222,65322,4
35231,65317,5
35227,65320,5
35232,65321,5
35224,65319,5
35224,65317,4
35227,65319,5
35227,65329,5
35225,65323,5
35226,65327,5
35229,65321,4
35229,65323,5
35229,65328,5
35235,65326,5
35238,65326,4
35231,65333,4
35232,65338,5
35231,65332,5
35234,65340,5
35231,65343,5
35231,65326,4
35231,65321,5
35232,65326,5
35222,65326,6
35219,65319,3
35222,65319,5
35216,65322,5
35216,65312,5
35220,65313,5
35218,65317,4
35220,65307,5
35209,65302,5
35220,65303,5
35209,65300,5
35210,65297,4
35195,65288,5
35206,65282,5
35209,65282,5
35206,65298,4
35193,65285,5
35201,65297,5
35207,65293,5
35209,65303,5
35205,65297,4
35208,65286,6
35203,65278,4
35202,65288,5
35202,65278,5
35196,65277,6
35198,65276,3
35196,65281,5
35206,65274,5
35202,65266,5
35193,65270,4
35197,65273,5
35200,65271,5
35201,65268,5
35193,65263,4
35195,65266,4
35187,65265,5
35190,65253,5
35191,65265,5
35184,65267,4
35191,65267,5
35195,65262,5
35205,65254,5
35194,65268,5
35195,65259,4
35190,65269,5
35183,65265,6
35184,65269,4
35185,65253,5
35199,65265,4
35193,65265,5
35197,65256,5
35180,65263,5
35190,65253,5
35187,65257,4
35189,65259,5
35193,65266,5
35192,65260,5
35192,65268,4
35187,65274,5
35189,65278,5
35192,65265,5
35193,65278,5
35198,65280,4
35200,65290,5
35199,65290,5
35198,65288,5
35202,65300,5
35214,65297,4
35212,65299,5
35209,65303,5
35209,65297,6
35202,65291,4
35200,65277,4
35196,65271,5
35197,65275,5
35190,65266,5
35193,65268,4
35189,65270,4
35197,65276,5
35194,65281,5
35203,65273,5
35186,65275,4
35193,65273,5
35186,65266,5
35194,65272,5
35200,65275,5
35194,65276,4
35196,65277,5
35194,65272,5
35188,65275,5
35194,65282,5
35194,65274,5
35185,65268,4
35191,65267,5
35191,65274,5
35188,65258,6
35190,65269,3
35184,65280,5
35197,65269,5
35194,65281,5
35202,65284,4
35209,65279,5
35206,65296,5
35215,65309,5
35212,65316,5
35213,65321,4
35219,65325,5
35223,65317,5
35223,65315,5
35214,65308,5
35212,65305,4
35209,65301,5
35206,65304,5
35207,65295,5
35201,65304,5
35203,65284,4
35204,65285,11
35201,65288,4
35190,65283,4
35190,65285,5
35198,65282,5
35191,65275,5
35194,65270,5
35190,65268,4
35186,65269,5
35183,65256,5
35182,65248,5
35185,65245,5
35174,65239,4
35159,65228,5
35166,65222,5
35149,65213,5
35154,65209,5
35152,65201,4
35148,65204,5
35154,65197,5
35138,65185,5
35138,65178,4
35141,65190,4
35140,65179,5
35136,65170,6
35128,65161,4
35126,65163,4
35125,65153,5
35113,65148,5
35119,65140,5
35117,65141,5
35124,65140,4
35118,65143,5
35124,65145,5
35112,65143,5
35110,65141,5
35115,65137,4
35119,65143,5
35115,65143,5
35115,65142,5
35112,65149,5
35122,65146,4
35118,65152,5
35116,65145,5
35112,65148,5
35116,65144,5
35120,65144,4
35120,65143,5
35121,65136,5
35116,65138,5
35107,65141,4
35111,65145,5
35127,65138,5
35113,65140,5
35123,65137,5
35118,65146,4
35126,65150,5
35117,65143,5
35111,65140,5
35115,65139,5
35121,65146,4
35115,65141,5
35110,65133,5
35117,65145,5
35113,65136,4
35110,65135,4
35110,65129,5
35100,65124,5
35107,65115,5
35110,65126,4
35107,65126,6
35107,65132,4
35106,65125,5
35120,65132,5
35114,65135,4
35115,65143,5
35122,65151,5
35125,65150,5
35116,65158,5
35128,65165,4
35133,65185,5
35141,65179,5
35144,65192,5
35144,65186,5
35141,65205,4
35147,65208,5
35157,65217,5
35158,65225,5
35167,65228,4
35175,65241,5
35181,65253,5
35183,65256,5
35194,65261,5
35189,65280,4
35203,65280,5
35208,65291,6
35213,65303,4
35209,65306,5
35213,65309,4
35216,65321,5
35225,65324,5
35224,65320,5
35221,65329,5
35223,65336,4
35224,65338,5
35225,65339,5
35236,65336,5
35237,65337,4
35237,65346,4
35248,65360,5
35236,65358,5
35232,65365,5
35233,65358,4
35246,65363,5
35237,65356,5
35244,65351,5
35241,65352,5
35233,65363,4
35237,65352,5
35249,65363,5
35250,65371,5
35256,65369,5
35250,65372,4
35250,65371,5
35256,65382,5
35252,65385,5
35262,65384,5
35255,65396,4
35263,65395,5
35265,65397,5
35273,65403,5
35269,65399,4
35272,65404,5
35274,65404,5
35271,65406,5
35274,65404,5
35278,65413,4
35275,65415,5
35286,65408,5
35271,65424,5
35284,65421,5
35282,65428,5
35279,65421,4
35284,65436,5
35287,65443,5
35284,65436,5
35289,65442,4
35294,65433,5
35295,65432,5
35291,65436,5
35294,65443,4
35295,65447,4
35301,65451,5
35298,65449,5
35292,65446,5
35293,65442,4
35295,65456,5
35303,65452,5
35313,65456,5
35312,65465,5
35306,65456,4
35313,65466,5
35314,65487,5
35312,65472,5
35316,65480,5
35322,65497,4
35318,65491,6
35318,65486,4
35322,65495,5
35325,65493,5
35320,65497,4
35324,65506,5
35333,65510,5
35334,65508,5
35328,65509,4
35330,65522,5
35345,65525,5
35332,65527,5
35342,65527,5
35338,65535,4
35351,65539,5
35344,65533,5
35348,65536,5
35349,65536,5
35345,65530,4
35346,65531,5
35345,65529,5
35338,65528,5
35349,65533,5
35349,65521,4
35345,65534,5
35353,65537,5
35347,65536,5
35357,65541,4
35362,65556,4
35364,65565,5
35363,65561,5
35376,65574,5
35369,65579,4
35369,65575,5
35371,65576,5
35373,65581,5
35365,65588,5
35375,65589,4
35376,65589,5
35381,65588,5
35385,65605,5
35385,65595,5
35388,65600,5
35389,65592,4
35389,65610,5
35391,65612,5
35402,65633,6
35395,65616,3
35407,65625,5
35409,65636,5
35410,65639,5
35410,65649,4
35421,65650,5
35417,65671,5
35432,65672,5
35425,65677,5
35434,65678,4
35427,65671,5
35438,65673,5
35433,65687,5
35437,65687,5
35437,65683,4
35438,65691,5
35441,65697,5
35439,65689,5
35450,65696,5
35443,65707,4
35446,65709,6
35450,65705,4
35452,65726,5
35454,65721,4
35458,65724,6
35459,65729,3
35456,65735,5
35464,65736,5
35457,65734,4
35472,65741,5
35472,65748,5
35473,65760,5
35472,65770,5
35483,65784,4
35479,65791,5
35493,65807,5
35513,65822,5
35514,65825,5
35521,65837,4
35541,65852,5
35525,65857,5
35532,65861,5
35547,65873,5
35542,65873,4
35552,65893,5
35547,65898,6
35559,65905,4
35565,65905,4
35565,65921,5
35567,65929,5
35575,65924,5
35575,65933,5
35585,65942,4
35593,65946,5
35588,65955,5
35587,65955,5
35598,65959,5
35595,65958,4
35593,65957,5
35596,65963,5
35593,65963,5
35597,65964,5
35594,65973,4
35596,65961,5
35608,65957,5
35597,65958,5
35594,65974,5
35606,65975,4
35613,65987,5
35613,65999,5
35618,66015,6
35629,66029,3
35659,66064,5
35667,66094,5
35684,66114,5
35688,66133,5
35705,66137,4
35700,66141,5
35699,66146,5
35704,66158,5
35713,66174,5
35714,66181,4
35722,66184,5
35727,66183,5
35720,66185,5
35718,66186,5
35722,66186,4
35724,66182,5
35717,66179,5
35724,66179,5
35719,66174,4
35713,66178,6
35710,66177,4
35711,66166,5
35723,66166,5
35706,66168,6
35706,66167,3
35708,66161,5
35710,66164,5
35706,66151,5
35702,66146,4
35705,66145,5
35693,66147,5
35700,66143,5
35698,66128,5
35693,66128,4
35686,66120,5
35678,66118,5
35681,66108,5
35671,66097,4
35674,66087,4
35660,66080,5
35664,66077,5
35654,66068,5
35664,66059,4
35642,66045,5
35642,66045,6
35632,66039,4
35633,66017,5
35624,66012,4
35617,66009,5
35624,65986,5
35610,65985,5
35601,65974,5
35596,65975,4
35604,65976,5
35598,65966,5
35599,65961,5
35583,65954,5
35585,65953,4
35582,65964,5
35588,65958,5
35588,65964,5
35595,65950,4
35591,65968,5
35594,65963,5
35598,65972,5
35593,65960,5
35593,65971,4
35598,65970,5
35600,65976,5
35598,65961,6
35597,65957,4
35596,65960,4
35591,65949,5
35589,65945,5
35585,65948,5
35586,65950,5
35584,65945,4
35590,65953,5
35579,65947,5
35590,65948,5
35586,65947,4
35585,65956,4
35590,65952,5
35591,65945,5
35590,65944,5
35591,65943,4
35589,65933,5
35584,65940,5
35577,65930,5
35577,65927,5
35572,65915,5
35580,65918,4
35573,65913,5
35558,65905,5
35560,65901,6
35551,65893,3
35552,65885,5
35553,65882,5
35552,65873,5
35541,65875,5
35538,65870,4
35532,65862,5
35529,65852,5
35531,65852,5
35530,65859,4
35530,65838,5
35526,65829,5
35525,65833,5
35515,65838,5
35516,65828,4
35505,65817,5
35501,65819,5
35509,65811,5
35507,65819,5
35506,65812,4
35508,65814,6
35516,65807,4
35503,65803,5
35509,65809,5
35510,65799,4
35496,65796,5
35501,65791,5
35504,65789,5
35497,65786,4
35500,65785,4
35484,65781,5
35496,65782,5
35487,65791,5
35491,65778,4
35488,65782,5
35490,65788,5
35499,65783,5
35494,65780,9
35479,65772,0
35487,65773,5
35480,65727,5
35478,65756,5
35471,65752,5
35462,65733,4
35458,65737,5
35458,65727,6
35457,65727,4
35450,65732,5
35453,65726,4
35454,65720,5
35449,65712,5
35436,65709,5
35441,65694,4
35442,65696,4
35441,65700,5
35431,65696,5
35444,65688,5
35433,65678,4
35430,65677,5
35421,65678,5
35426,65672,5
35429,65677,5
35432,65677,4
35429,65681,5
35426,65669,5
35430,65675,5
35430,65678,5
35423,65675,4
35433,65679,5
35419,65674,5
35434,65685,5
35435,65682,5
35437,65685,4
35432,65680,5
35435,65677,5
35434,65678,5
35425,65684,4
35422,65683,5
35430,65677,5
35421,65684,5
35430,65678,5
35424,65675,4
35422,65663,5
35419,65667,5
35423,65659,5
35425,65661,5
35419,65656,4
35416,65662,5
35416,65663,5
35413,65651,5
35416,65662,5
35424,65659,5
35420,65645,4
35416,65644,5
35414,65654,5
35419,65644,5
35406,65643,4
35404,65639,5
35408,65630,5
35411,65636,5
35399,65637,4
35406,65619,5
35408,65625,5
35400,65618,5
35397,65626,5
35395,65611,4
35399,65620,5
35393,65624,5
35391,65613,5
35392,65609,5
35392,65603,4
35382,65603,5
35390,65593,5
35383,65594,5
35378,65597,5
35373,65589,4
35385,65588,6
35374,65587,4
35376,65582,5
35373,65568,4
35374,65580,4
35368,65582,5
35373,65569,5
35369,65565,5
35366,65562,4
35362,65565,5
35371,65563,5
35362,65575,5
35369,65563,5
35364,65563,4
35361,65556,5
35368,65570,5
35360,65557,5
35360,65554,5
35362,65556,4
35354,65558,5
35354,65547,5
35344,65540,5
35351,65548,5
35357,65536,4
35344,65537,5
35343,65532,5
35346,65515,5
35335,65521,4
35329,65508,4
35324,65503,5
35328,65505,5
35322,65499,5
35321,65486,4
35311,65479,5
35312,65477,5
35303,65466,5
35295,65457,5
35296,65453,4
35291,65449,5
35294,65439,5
35280,65427,5
35283,65426,5
35283,65431,4
35284,65421,5
35281,65427,5
35278,65425,5
35277,65423,5
35279,65417,4
35277,65420,5
35275,65409,5
35265,65414,5
35270,65403,4
35265,65394,5
35261,65404,5
35271,65409,5
35273,65399,5
35266,65398,4
35267,65402,5
35278,65412,5
35267,65400,5
35266,65410,5
35269,65404,4
35277,65402,5
35262,65408,5
35269,65399,5
35274,65399,5
35274,65405,4
35273,65417,5
35275,65423,5
35275,65424,5
35273,65426,5
35284,65432,5
35287,65432,4
35286,65434,5
35291,65432,5
35280,65436,4
35290,65427,5
35286,65440,5
35286,65430,5
35287,65424,5
35290,65424,4
35276,65439,5
35274,65429,5
35271,65426,5
35280,65418,5
35273,65417,4
35282,65412,5
35274,65414,5
35278,65407,5
35276,65411,5
35267,65415,4
35273,65409,5
35272,65409,6
35275,65402,4
35278,65404,4
35270,65407,4
35276,65404,5
35269,65409,5
35265,65399,5
35267,65404,4
35269,65398,5
35267,65399,5
35263,65391,5
35274,65394,5
35269,65399,4
35276,65403,5
35270,65396,5
35261,65402,5
35264,65399,5
35275,65398,4
35261,65395,5
35269,65390,5
35259,65393,5
35268,65384,5
35267,65385,4
35260,65384,5
35260,65389,5
35267,65384,6
35267,65388,3
35262,65387,4
35261,65386,5
35264,65385,5
35264,65383,5
35251,65379,4
35265,65379,5
35253,65383,5
35253,65373,5
35260,65373,5
35260,65378,4
35256,65383,5
35249,65379,5
35260,65372,5
35270,65377,5
35255,65382,4
35256,65384,5
35260,65384,5
35253,65371,5
35251,65374,5
35254,65365,5
35252,65367,4
35254,65361,5
35251,65372,5
35252,65370,6
35252,65364,3
35247,65356,5
35249,65367,5
35248,65365,5
35245,65363,4
35246,65355,5
35245,65355,5
35246,65359,5
35236,65359,5
35240,65360,4
35237,65362,5
35249,65361,5
35233,65362,5
35238,65371,5
35253,65344,4
35242,65361,5
35237,65350,5
35234,65364,5
35239,65358,5
35240,65356,4
35240,65360,6
35245,65368,4
35245,65350,5
35244,65354,4
35237,65344,5
35242,65351,5
35242,65352,5
35250,65356,5
35233,65350,4
35232,65355,5
35241,65342,5
35234,65342,5
35226,65344,5
35237,65337,4
35230,65340,5
35231,65333,5
35226,65338,5
35216,65324,5
35222,65334,4
35227,65330,5
35227,65335,5
35223,65328,5
35229,65338,4
35234,65343,4
35231,65335,5
35225,65337,6
35226,65346,4
35238,65336,4
35239,65347,5
35235,65352,5
35237,65347,5
35246,65353,5
35244,65354,4
35238,65354,5
35233,65357,5
35242,65357,5
35242,65361,5
35239,65358,4
35241,65357,5
35248,65344,5
35246,65358,5
35250,65366,5
35254,65366,4
35255,65366,5
35248,65362,5
35242,65364,5
35245,65357,5
35237,65358,4
35247,65342,5
35229,65340,5
35232,65332,6
35235,65325,3
35216,65326,5
35225,65314,5
35221,65309,5
35208,65310,5
35213,65300,4
35208,65306,5
35208,65296,5
35209,65291,5
35203,65286,5
35196,65282,4
35200,65281,5
35194,65271,5
35189,65279,5
35189,65263,5
35185,65256,4
35181,65243,5
35178,65241,5
35171,65235,5
35159,65224,4
35159,65210,6
35156,65198,4
35143,65189,5
35144,65183,5
35130,65177,4
35145,65162,5
35125,65167,5
35127,65151,5
35119,65155,5
35110,65146,4
35113,65140,5
35117,65129,5
35102,65134,5
35110,65116,5
35101,65121,4
35092,65099,5
35095,65093,5
35086,65089,5
35072,65084,4
35073,65080,4
35071,65075,5
35068,65084,5
35072,65078,5
35068,65081,4
35077,65068,5
35067,65066,6
35064,65069,4
35067,65066,5
35063,65054,4
35057,65057,5
35057,65051,5
35065,65047,5
35055,65042,5
35057,65059,4
35054,65047,5
35069,65043,5
35063,65059,5
35056,65056,5
35068,65070,4
35070,65070,5
35072,65087,5
35078,65085,5
35086,65088,4
35079,65090,4
35084,65101,5
35091,65105,5
35091,65107,5
35091,65112,4
35097,65107,5
35091,65113,5
35092,65109,6
35081,65100,4
35099,65102,4
35093,65105,5
35095,65110,5
35091,65101,5
35091,65111,5
35094,65105,4
35094,65112,5
35091,65115,5
35091,65118,5
35088,65111,5
35099,65122,4
35101,65125,5
35105,65129,5
35106,65134,5
35116,65144,4
35116,65157,4
35122,65149,5
35117,65166,5
35123,65166,5
35131,65175,5
35133,65177,4
35136,65197,5
35144,65197,5
35147,65209,5
35153,65197,4
35150,65217,5
35158,65220,5
35160,65229,5
35166,65234,5
35175,65235,4
35175,65233,5
35183,65249,5
35178,65250,5
35182,65252,5
35176,65258,4
35182,65271,5
35183,65273,5
35187,65261,5
35192,65266,4
35195,65270,5
35188,65287,5
35192,65280,5
35197,65279,5
35196,65278,4
35198,65283,6
35184,65278,4
35194,65276,5
35191,65272,5
35195,65269,4
35184,65266,5
35181,65268,5
35182,65260,5
35182,65258,5
35172,65247,7
35175,65263,2
35178,65249,5
35184,65250,5
35176,65247,5
35177,65239,4
35168,65250,5
35166,65246,5
35177,65236,5
35175,65238,4
35171,65232,5
35167,65235,5
35170,65233,5
35155,65220,5
35152,65209,4
35141,65209,5
35147,65197,6
35136,65193,4
35136,65173,5
35136,65181,4
35134,65175,5
35127,65170,5
35131,65172,5
35132,65160,5
35127,65154,4
35115,65148,5
35115,65143,5
35118,65149,5
35112,65135,5
35116,65139,4
35110,65128,5
35107,65136,5
35109,65122,5
35113,65133,4
35104,65125,5
35103,65126,5
35109,65142,5
35108,65142,5
35107,65131,4
35110,65133,5
35115,65133,5
35115,65138,5
35103,65136,5
35109,65124,4
35103,65134,5
35099,65129,5
35106,65125,5
35100,65116,5
35102,65120,4
35099,65129,5
35101,65124,5
35107,65119,5
35102,65121,4
35099,65123,4
35095,65124,5
35100,65128,5
35099,65117,5
35104,65123,4
35098,65123,5
35088,65114,5
35106,65114,5
35099,65112,5
35094,65109,5
35086,65116,4
35095,65121,5
35091,65110,5
35095,65112,5
35095,65122,4
35106,65128,5
35107,65130,5
35106,65140,5
35120,65148,5
35112,65156,4
35121,65176,5
35133,65179,5
35143,65188,5
35143,65200,4
35149,65200,4
35158,65213,5
35160,65221,5
35165,65217,5
35163,65231,4
35163,65237,5
35167,65246,5
35165,65243,5
35173,65253,5
35183,65258,4
35178,65261,6
35201,65270,4
35190,65274,5
35195,65283,5
35204,65289,4
35212,65308,5
35215,65306,5
35216,65323,5
35222,65332,5
35230,65336,4
35232,65352,5
35235,65351,5
35228,65352,5
35238,65357,4
35229,65360,4
35231,65355,5
35244,65357,5
35234,65353,5
35235,65365,4
35235,65348,5
35238,65355,5
35230,65348,5
35236,65349,4
35238,65360,4
35231,65346,5
35236,65349,5
35229,65342,5
35226,65350,5
35223,65348,4
35233,65347,5
35238,65353,5
35230,65351,5
35239,65344,5
35233,65358,4
35235,65359,5
35229,65354,5
35242,65362,5
35244,65366,4
35250,65373,5
35251,65381,5
35254,65384,5
35250,65385,5
35252,65380,5
35256,65385,4
35251,65383,5
35268,65400,5
35265,65395,6
35263,65404,3
35262,65401,5
35268,65406,5
35266,65417,5
35280,65420,5
35278,65432,4
35289,65433,5
35286,65437,5
35287,65444,5
35292,65455,5
35298,65463,4
35304,65459,5
35292,65455,5
35302,65454,5
35299,65468,4
35302,65468,5
35308,65466,5
35302,65473,5
35309,65472,5
35303,65480,4
35303,65481,6
35301,65487,4
35310,65487,5
35322,65481,5
35314,65486,6
35309,65492,3
35315,65478,5
35320,65487,5
35316,65487,5
35310,65486,4
35299,65483,5
35308,65479,5
35305,65483,5
35299,65477,4
35303,65473,4
35299,65469,5
35305,65476,5
35300,65470,5
35305,65471,4
35298,65476,5
35303,65475,5
35312,65475,5
35308,65487,5
35321,65494,4
35318,65495,5
35325,65497,6
35318,65511,4
35334,65515,5
35339,65525,4
35347,65536,5
35344,65545,5
35343,65550,5
35363,65561,5
35359,65571,4
35363,65585,5
35375,65591,5
35382,65599,5
35382,65606,4
35383,65617,4
35391,65624,5
35393,65633,5
35393,65637,5
35399,65630,4
35397,65632,5
35398,65633,5
35404,65635,5
35399,65643,5
35411,65641,4
35412,65657,5
35420,65664,5
35409,65664,6
35428,65677,4
35422,65682,4
35423,65675,5
35436,65684,5
35436,65687,5
35430,65690,5
35438,65688,4
35439,65690,5
35432,65694,5
35427,65681,5
35431,65682,4
35441,65677,5
35421,65682,5
35430,65680,5
35428,65674,5
35434,65681,4
35431,65683,5
35428,65674,5
35432,65683,5
35431,65688,5
35433,65685,5
35427,65689,4
35429,65692,5
35438,65681,5
35439,65694,6
35446,65693,3
35443,65706,5
35444,65707,5
35452,65714,5
35441,65715,5
35450,65720,4
35444,65710,5
35451,65727,5
35450,65719,5
35452,65725,4
35449,65725,5
35461,65739,5
35458,65743,5
35463,65734,5
35465,65755,4
35468,65747,5
35472,65749,5
35478,65751,5
35474,65771,5
35469,65750,4
35471,65762,6
35474,65765,4
35479,65767,5
35470,65767,5
35470,65759,4
35466,65756,5
35483,65769,5
35490,65767,5
35480,65771,4
35475,65779,4
35487,65772,5
35482,65771,5
35485,65781,5
35486,65786,4
35484,65779,5
35499,65781,5
35499,65792,5
35485,65792,5
35490,65794,4
35497,65788,5
35498,65796,5
35495,65796,5
35505,65800,5
35501,65800,4
35508,65799,5
35502,65806,6
35518,65814,4
35505,65810,5
35511,65817,4
35507,65809,5
35508,65823,5
35508,65823,5
35519,65828,4
35516,65831,4
35522,65832,5
35519,65841,5
35532,65839,5
35534,65846,4
35531,65848,5
35527,65856,5
35531,65852,5
35539,65865,5
35541,65871,4
35536,65871,5
35537,65868,5
35543,65874,5
35551,65879,5
35533,65861,4
35542,65867,5
35541,65872,5
35543,65879,6
35543,65877,4
35539,65872,4
35543,65868,5
35536,65874,5
35532,65867,5
35547,65861,4
35538,65867,5
35540,65857,5
35533,65864,5
35534,65856,5
35531,65862,4
35538,65871,5
35540,65860,5
35533,65863,5
35537,65862,5
35541,65863,4
35526,65854,5
35533,65855,5
35531,65854,5
35535,65851,5
35528,65846,5
35530,65845,4
35527,65842,5
35518,65855,5
35522,65824,5
35524,65833,4
35515,65819,5
35512,65818,5
35508,65809,5
35501,65794,4
35491,65804,5
35494,65797,5
35501,65791,5
35491,65797,5
35488,65778,4
35477,65776,5
35483,65769,5
35477,65764,5
35480,65766,5
35475,65758,4
35467,65753,5
35474,65745,5
35472,65759,5
35473,65753,5
35466,65758,4
35477,65761,6
35475,65761,4
35474,65766,5
35474,65760,4
35479,65762,4
35475,65769,5
35488,65782,5
35491,65783,5
35481,65785,4
35492,65790,5
35491,65788,5
35497,65780,5
35487,65787,5
35493,65778,4
35488,65782,5
35497,65790,5
35484,65796,5
35497,65786,5
35487,65788,4
35495,65789,5
35497,65782,5
35496,65788,5
35494,65794,5
35487,65788,4
35486,65783,5
35490,65786,6
35491,65781,4
35489,65775,4
35481,65786,5
35483,65776,5
35483,65769,5
35483,65762,5
35473,65771,4
35478,65755,5
35471,65745,5
35465,65746,5
35471,65742,5
35466,65748,4
35455,65738,5
35461,65734,5
35462,65717,5
35445,65713,5
35452,65719,4
35447,65726,5
35446,65709,5
35450,65703,5
35449,65700,5
35445,65705,4
35440,65703,5
35437,65695,5
35437,65694,5
35442,65698,4
35438,65692,5
35441,65685,5
35427,65694,5
35438,65682,5
35430,65692,4
35430,65692,5
35425,65686,5
35431,65682,5
35427,65687,5
35443,65689,4
35432,65679,5
35428,65679,5
35427,65681,5
35423,65681,5
35423,65676,4
35422,65671,5
35423,65670,5
35418,65660,5
35417,65653,4
35408,65658,10
35408,65646,4
35406,65660,5
35409,65653,4
35408,65646,5
35401,65640,5
35401,65633,5
35403,65636,5
35401,65631,4
35397,65631,5
35393,65621,5
35395,65610,5
35382,65611,5
35389,65601,4
35377,65600,5
35371,65586,5
35372,65589,5
35378,65595,5
35370,65594,4
35373,65588,5
35369,65592,5
35372,65588,5
35376,65590,4
35368,65583,5
35371,65584,6
35366,65570,4
35358,65568,5
35367,65560,4
35361,65572,5
35361,65556,5
35358,65557,5
35355,65552,5
35350,65546,4
35345,65548,5
35345,65546,5
35344,65544,5
35338,65530,5
35334,65537,4
35338,65524,5
35335,65530,5
35336,65533,5
35337,65517,5
35337,65522,4
35343,65524,5
35332,65523,5
35333,65533,5
35334,65516,4
35336,65528,5
35342,65526,5
35345,65524,5
35344,65535,5
35348,65531,4
35346,65531,5
35343,65533,5
35347,65536,5
35344,65543,5
35342,65547,4
35345,65548,5
35355,65543,5
35342,65537,5
35345,65541,5
35350,65540,4
35339,65538,5
35338,65538,5
35347,65532,5
35333,65541,4
35345,65538,5
35345,65535,4
35343,65527,5
35330,65524,5
35335,65523,6
35332,65523,3
35336,65514,5
35328,65510,5
35328,65506,5
35324,65502,4
35320,65504,5
35331,65504,5
35321,65492,5
35323,65499,5
35320,65498,4
35331,65484,5
35315,65482,5
35314,65476,5
35315,65479,5
35315,65480,4
35312,65472,5
35310,65482,5
35309,65479,5
35313,65471,4
35296,65472,4
35302,65468,6
35309,65463,4
35298,65458,5
35291,65454,4
35306,65450,7
35287,65446,3
35291,65436,5
35290,65450,5
35290,65440,4
35284,65433,5
35280,65423,5
35286,65429,5
35285,65428,5
35277,65422,4
35282,65428,5
35278,65419,5
35280,65415,5
35276,65417,5
35278,65425,4
35267,65415,5
35274,65408,5
35267,65412,5
35269,65419,4
35268,65405,5
35273,65399,5
35268,65402,6
35266,65402,4
35265,65402,4
35266,65399,5
35257,65395,5
35256,65401,5
35263,65388,5
35261,65386,4
35252,65379,5
35250,65380,5
35249,65384,5
35252,65378,5
35255,65386,4
35254,65374,5
35258,65379,5
35247,65376,5
35244,65363,5
35253,65372,4
35236,65370,5
35236,65369,5
35237,65375,5
35244,65369,5
35250,65381,4
35247,65363,5
35251,65376,5
35241,65371,6
35244,65362,3
35230,65363,5
35240,65360,5
35237,65362,5
35239,65351,5
35226,65341,4
35240,65343,5
35218,65341,5
35222,65328,5
35215,65330,5
35212,65326,4
35217,65319,5
35208,65324,5
35219,65325,5
35220,65322,4
35210,65323,4
35214,65322,5
35210,65320,5
35219,65328,5
35223,65317,4
35220,65332,6
35228,65321,4
35226,65335,5
35220,65329,5
35229,65340,6
35229,65342,3
35231,65345,5
35231,65343,5
35230,65348,5
35234,65338,4
35234,65347,5
35234,65346,5
35236,65344,5
35229,65351,5
35231,65347,4
35237,65358,5
35241,65348,5
35224,65347,5
35239,65355,4
35233,65349,4
35245,65362,5
35247,65358,5
35243,65366,5
35243,65368,4
35246,65365,5
35250,65365,6
35238,65363,4
35245,65360,5
35237,65361,4
35244,65353,5
35238,65350,5
35224,65345,5
35232,65348,5
35231,65341,4
35234,65327,5
35224,65331,5
35218,65322,5
35228,65334,5
35228,65334,4
35225,65330,5
35219,65325,5
35221,65350,5
35219,65335,4
35229,65330,4
35230,65327,5
35223,65334,5
35225,65343,5
35217,65331,4
35220,65335,5
35228,65331,5
35222,65340,6
35223,65334,4
35217,65344,4
35229,65332,5
35226,65325,5
35225,65327,5
35214,65327,5
35219,65328,4
35225,65331,5
35223,65329,5
35222,65318,5
35215,65322,5
35213,65312,4
35225,65322,5
35225,65323,5
35212,65313,5
35215,65313,4
35219,65316,5
35223,65318,5
35207,65311,5
35217,65305,5
35207,65312,5
35213,65303,4
35215,65306,5
35207,65302,5
35203,65301,6
35201,65305,3
35205,65303,5
35211,65296,5
35201,65305,5
35204,65291,5
35208,65304,4
35213,65303,5
35201,65310,5
35201,65291,5
35210,65310,5
35205,65309,4
35206,65298,5
35213,65310,5
35202,65304,5
35206,65305,4
35201,65298,5
35203,65302,5
35193,65295,5
35198,65299,5
35204,65303,4
35197,65305,6
35209,65300,4
35201,65299,5
35211,65298,5
35208,65303,4
35207,65302,5
35209,65303,5
35206,65304,5
35207,65298,5
35212,65301,4
35201,65304,5
35207,65295,5
35206,65298,5
35206,65299,4
35196,65292,4
35211,65285,5
35193,65292,5
35198,65290,5
35192,65295,4
35195,65292,5
35199,65300,5
35206,65300,5
35203,65306,5
35204,65297,4
35211,65311,5
35211,65309,6
35216,65318,4
35215,65313,5
35208,65321,4
35229,65326,5
35224,65325,5
35227,65328,5
35223,65338,5
35226,65340,4
35215,65336,5
35222,65342,5
35229,65349,5
35230,65352,4
35238,65359,4
35236,65355,5
35231,65357,5
35231,65360,5
35235,65361,4
35242,65361,5
35244,65361,5
35244,65364,5
35246,65368,5
35235,65371,4
35253,65366,5
35250,65370,5
35250,65375,6
35243,65379,4
35247,65386,4
35253,65377,5
35263,65382,5
35251,65389,5
35253,65385,5
35252,65392,4
35261,65385,5
35251,65386,5
35254,65382,5
35256,65391,4
35259,65393,5
35257,65396,5
35253,65404,5
35253,65403,5
35257,65405,4
35263,65403,5
35267,65410,5
35264,65410,5
35272,65403,5
35276,65408,5
35275,65409,4
35274,65412,5
35269,65413,5
35271,65420,5
35276,65420,4
35271,65416,5
35267,65409,5
35275,65409,5
35269,65409,5
35264,65411,4
35279,65406,5
35262,65404,5
35265,65396,5
35263,65403,4
35267,65403,5
35264,65400,5
35260,65402,5
35258,65401,5
35265,65401,4
35267,65402,5
35265,65405,5
35251,65404,5
35266,65397,5
35260,65402,4
35265,65392,6
35252,65398,4
35261,65406,5
35261,65400,5
35261,65409,4
35252,65404,5
35257,65408,5
35255,65402,5
35259,65391,4
35262,65399,4
35257,65395,5
35263,65396,5
35251,65408,5
35265,65400,4
35257,65403,5
35266,65410,5
35263,65403,5
35272,65413,5
35267,65404,4
35262,65417,5
35258,65409,5
35269,65405,5
35260,65402,5
35257,65397,4
35268,65405,5
35263,65414,6
35269,65410,4
35267,65413,5
35259,65411,4
35273,65420,5
35269,65416,5
35272,65417,5
35266,65413,4
35266,65409,5
35263,65413,5
35270,65418,5
35270,65422,5
35271,65417,4
35271,65411,5
35271,65424,5
35267,65415,5
35263,65419,5
35268,65410,4
35267,65409,5
35253,65405,5
35260,65420,5
35262,65406,5
35263,65404,4
35261,65397,5
35248,65398,5
35252,65396,5
35252,65391,5
35244,65377,4
35254,65396,5
35253,65397,5
35256,65389,5
35247,65385,4
35243,65376,5
35240,65387,5
35243,65383,5
35252,65387,5
35243,65382,4
35252,65374,5
35238,65357,9
35229,65373,1
35230,65358,5
35240,65352,4
35240,65373,5
35230,65353,5
35230,65338,5
35225,65342,5
35224,65336,5
35219,65320,4
35209,65323,5
35223,65312,5
35208,65316,5
35208,65321,4
35206,65313,5
35209,65311,5
35213,65302,5
35203,65301,4
35208,65294,5
35200,65291,5
35199,65289,5
35195,65291,5
35191,65286,4
35193,65280,5
35196,65280,5
35197,65284,5
35194,65275,5
35193,65288,4
35189,65284,5
35183,65277,6
35191,65278,4
35188,65269,5
35186,65270,4
35186,65273,7
35193,65272,3
35192,65273,5
35192,65276,4
35191,65268,4
35191,65271,5
35186,65277,5
35181,65273,5
35192,65281,4
35190,65284,5
35195,65283,5
35196,65280,5
35201,65290,5
35192,65295,4
35197,65291,5
35210,65297,5
35200,65297,5
35206,65298,5
35210,65299,4
35205,65317,5
35204,65315,5
35216,65315,6
35210,65321,4
35216,65318,4
35213,65329,5
35223,65320,5
35222,65322,5
35218,65333,4
35218,65319,4
35214,65327,5
35223,65328,5
35226,65334,5
35216,65330,4
35220,65331,5
35228,65328,5
35218,65328,5
35224,65320,5
35218,65319,4
35214,65315,5
35222,65320,5
35219,65318,5
35220,65323,5
35217,65314,5
35212,65311,4
35210,65318,5
35221,65313,5
35208,65327,6
35222,65328,3
35220,65325,5
35215,65312,5
35216,65314,5
35216,65312,4
35214,65315,4
35213,65319,5
35211,65324,5
35218,65326,5
35209,65309,4
35213,65326,5
35220,65320,5
35212,65325,5
35217,65317,5
35218,65325,4
35227,65331,5
35229,65333,5
35227,65341,5
35232,65347,5
35238,65356,4
35238,65358,6
35246,65375,4
35249,65391,5
35264,65393,5
35258,65402,6
35261,65408,3
35268,65418,5
35279,65424,5
35275,65438,4
35288,65439,5
35281,65447,5
35292,65446,5
35299,65458,5
35298,65466,4
35293,65463,5
35292,65464,5
35308,65468,5
35315,65471,5
35309,65480,4
35308,65491,5
35308,65480,5
35313,65477,5
35312,65474,5
35301,65488,4
35314,65479,5
35309,65480,6
35323,65490,4
35313,65491,5
35317,65497,4
35324,65498,5
35315,65497,5
35318,65503,5
35317,65489,4
35319,65493,5
35320,65488,5
35312,65483,5
35303,65486,5
35316,65482,4
35316,65486,5
35320,65484,5
35313,65494,5
35316,65497,5
35319,65499,4
35329,65501,5
35311,65506,5
35320,65510,5
35329,65516,5
35335,65516,4
35326,65526,5
35341,65535,5
35341,65539,6
35336,65546,4
35350,65552,4
35351,65555,5
35354,65555,5
35351,65554,5
35360,65559,4
35353,65562,5
35360,65572,5
35365,65583,5
35366,65569,5
35372,65576,4
35368,65576,5
35360,65568,5
35362,65565,5
35358,65569,5
35359,65567,4
35363,65574,5
35356,65567,5
35361,65571,5
35361,65571,5
35362,65570,5
35360,65572,4
35364,65573,5
35352,65574,5
35363,65580,6
35359,65580,3
35359,65581,5
35368,65579,5
35363,65581,5
35372,65581,4
35364,65586,5
35364,65582,5
35370,65583,5
35377,65573,5
35364,65574,4
35359,65577,5
35362,65580,5
35364,65580,5
35367,65572,5
35369,65576,4
35361,65583,5
35370,65590,5
35365,65587,5
35373,65596,5
35371,65610,4
35375,65605,6
35381,65619,4
35390,65624,5
35396,65636,4
35398,65629,5
35391,65636,5
35406,65641,5
35404,65654,5
35412,65664,4
35417,65672,5
35429,65678,5
35427,65678,5
35430,65696,5
35443,65703,4
35430,65690,5
35439,65697,5
35442,65707,5
35445,65712,5
35457,65716,4
35445,65710,5
35455,65710,5
35449,65729,5
35456,65734,5
35461,65735,4
35456,65739,5
35455,65738,6
35457,65745,4
35462,65740,4
35463,65748,5
35466,65738,5
35462,65746,5
35467,65736,5
35453,65738,4
35466,65735,5
35471,65738,5
35452,65736,5
35455,65738,5
35467,65733,4
35457,65743,5
35465,65740,5
35473,65743,5
35468,65750,5
35466,65754,4
35471,65764,5
35483,65767,5
35476,65767,5
35480,65769,5
35479,65774,4
35487,65778,5
35487,65780,5
35490,65777,5
35481,65788,4
35491,65791,5
35491,65795,5
35492,65801,5
35495,65804,5
35505,65809,4
35512,65822,5
35513,65823,5
35520,65832,5
35511,65827,5
35516,65846,4
35524,65839,5
35517,65836,5
35516,65825,5
35520,65829,5
35516,65842,4
35518,65837,5
35502,65838,5
35511,65826,5
35503,65835,4
35509,65835,5
35517,65839,4
35524,65832,5
35520,65840,5
35514,65835,4
35514,65848,5
35519,65844,5
35521,65837,5
35522,65846,5
35506,65842,4
35517,65836,5
35520,65833,5
35512,65831,5
35508,65838,5
35521,65831,4
35513,65832,5
35516,65833,5
35515,65826,5
35516,65836,5
35511,65830,4
35515,65835,5
35508,65834,5
35510,65825,5
35511,65841,4
35513,65821,4
35510,65822,6
35505,65824,4
35512,65818,5
35513,65822,4
35512,65829,5
35508,65826,5
35512,65824,5
35512,65824,5
35501,65818,4
35517,65814,5
35511,65828,5
35505,65822,5
35501,65815,5
35511,65817,4
35506,65801,5
35502,65813,5
35501,65807,5
35502,65819,5
35507,65819,4
35503,65814,5
35497,65812,5
35499,65797,5
35496,65794,4
35488,65786,5
35492,65779,5
35484,65779,5
35477,65766,5
35466,65764,4
35472,65758,5
35469,65756,5
35479,65769,5
35472,65780,5
35469,65768,4
35467,65753,5
35458,65745,5
35458,65740,5
35463,65737,5
35457,65727,4
35435,65701,5
35418,65673,5
35404,65641,5
35391,65599,5
35374,65577,4
35350,65577,5
35346,65529,5
35304,65466,5
35270,65414,5
35254,65366,4
35228,65333,5
35236,65360,5
35247,65365,5
35252,65363,4
35237,65332,5
35205,65291,5
35187,65250,5
35181,65259,5
35189,65285,4
35209,65333,5
35240,65373,5
35260,65389,5
35257,65378,5
35234,65322,4
35168,65226,5
35115,65113,5
35057,65016,5
35022,64969,4
35023,64980,4
35028,64992,5
35018,64987,5
35028,65001,5
35053,65041,4
35079,65080,6
35086,65103,4
35085,65109,5
35093,65090,5
35084,65071,4
35073,65061,5
35072,65071,5
35080,65101,5
35111,65142,5
35142,65202,4
35166,65258,5
35197,65308,5
35224,65343,5
35229,65361,5
35256,65380,4
35255,65377,5
35250,65363,5
35239,65361,5
35231,65347,4
35221,65340,4
35217,65326,5
35223,65332,5
35230,65340,5
35212,65339,4
35223,65331,5
35221,65334,5
35224,65330,5
35221,65331,5
35231,65336,4
35232,65343,5
35222,65331,5
35228,65334,5
35218,65330,5
35221,65334,4
35223,65323,5
35221,65322,5
35221,65325,5
35231,65332,5
35222,65327,4
35223,65330,5
35222,65335,5
35219,65331,5
35215,65336,5
35229,65337,4
35231,65349,5
35234,65345,5
35240,65360,6
35234,65354,3
35236,65348,5
35240,65359,5
35233,65367,5
35234,65356,5
35236,65359,4
35247,65366,5
35242,65365,5
35235,65357,8
35230,65355,2
35237,65357,4
35238,65355,5
35251,65359,5
35229,65355,5
35233,65345,5
35234,65355,4
35236,65338,5
35231,65343,5
35232,65346,5
35229,65352,4
35233,65339,6
35226,65338,4
35220,65337,5
35218,65332,5
35216,65327,6
35209,65312,3
35212,65309,5
35211,65310,5
35213,65310,5
35202,65312,4
35201,65306,5
35207,65304,5
35197,65291,5
35193,65290,5
35191,65277,4
35192,65275,5
35183,65274,5
35182,65262,5
35182,65269,4
35174,65272,4
35182,65270,5
35192,65273,5
35184,65279,5
35192,65274,4
35189,65275,5
35187,65269,6
35190,65266,4
35182,65276,5
35195,65273,4
35184,65267,5
35191,65271,5
35192,65271,5
35192,65268,5
35176,65260,4
35179,65259,5
35178,65256,5
35177,65247,5
35187,65264,5
35176,65261,4
35180,65254,5
35177,65262,5
35178,65254,5
35184,65260,4
35180,65256,5
35184,65264,5
35180,65267,5
35182,65267,5
35188,65271,4
35185,65269,5
35190,65267,5
35189,65274,6
35190,65276,4
35183,65276,4
35192,65276,5
35191,65272,5
35188,65270,5
35185,65267,5
35180,65267,4
35184,65273,5
35183,65269,5
35190,65267,5
35186,65251,5
35184,65260,4
35186,65258,5
35182,65255,5
35172,65253,5
35177,65256,4
35177,65246,5
35172,65251,5
35174,65252,5
35169,65249,5
35175,65239,5
35177,65233,4
35171,65241,5
35172,65242,5
35176,65226,6
35162,65238,3
35166,65231,5
35159,65231,5
35170,65221,5
35155,65226,5
35167,65215,4
35166,65235,5
35172,65223,5
35159,65225,5
35172,65221,4
35161,65232,4
35162,65223,5
35155,65226,5
35166,65229,5
35167,65234,4
35164,65236,5
35179,65241,5
35169,65245,5
35175,65245,5
35172,65249,4
35175,65248,6
35174,65249,4
35173,65246,5
35179,65245,5
35172,65246,4
35178,65248,5
35179,65240,5
35173,65243,5
35178,65237,5
35172,65237,4
35173,65242,5
35167,65238,5
35171,65240,5
35168,65236,4
35172,65229,5
35171,65220,5
35174,65224,5
35158,65226,5
35156,65221,4
35163,65214,5
35157,65208,5
35158,65214,5
35150,65208,5
35150,65204,4
35148,65199,5
35143,65195,6
35136,65190,4
35136,65181,5
35138,65182,4
35132,65184,5
35141,65171,5
35135,65175,5
35131,65178,5
35128,65167,4
35127,65169,5
35126,65173,5
35133,65176,5
35131,65189,4
35127,65180,5
35136,65177,5
35132,65174,5
35133,65176,5
35128,65183,4
35137,65176,5
35130,65180,5
35127,65181,5
35126,65179,5
35133,65175,4
35122,65178,5
35128,65174,5
35127,65182,6
35135,65172,4
35133,65180,4
35131,65177,5
35131,65180,5
35131,65176,5
35127,65179,4
35143,65181,4
35127,65170,5
35129,65170,5
35130,65169,5
35126,65173,4
35133,65169,5
35133,65173,5
35131,65171,5
35130,65164,5
35120,65158,4
35129,65175,5
35129,65167,5
35124,65160,5
35117,65169,5
35126,65155,5
35125,65160,4
35126,65160,5
35117,65165,5
35116,65163,5
35118,65157,4
35119,65157,5
35126,65166,5
35124,65171,5
35134,65170,4
35134,65165,5
35134,65180,5
35129,65181,5
35141,65185,5
35134,65193,4
35136,65179,5
35142,65194,5
35144,65189,5
35135,65195,5
35137,65190,4
35133,65188,5
35142,65190,5
35145,65196,5
35134,65202,5
35146,65193,4
35147,65198,6
35150,65198,4
35139,65193,5
35146,65199,5
35144,65197,4
35137,65213,5
35153,65195,5
35147,65206,5
35161,65213,4
35160,65208,5
35150,65214,5
35159,65215,5
35162,65209,5
35145,65209,4
35153,65209,5
35156,65214,5
35153,65199,5
35154,65214,5
35150,65208,4
35149,65210,5
35145,65208,5
35161,65214,5
35146,65204,5
35147,65211,4
35145,65207,5
35147,65205,6
35145,65203,4
35144,65205,4
35146,65200,4
35140,65206,5
35147,65202,5
35142,65207,5
35146,65202,4
35134,65202,5
35156,65196,5
35146,65200,5
35158,65206,5
35146,65215,4
35151,65217,5
35159,65208,5
35158,65216,5
35157,65223,5
35159,65220,4
35158,65216,5
35161,65226,5
35175,65222,5
35155,65222,5
35163,65222,4
35159,65230,5
35166,65224,5
35160,65218,5
35152,65215,4
35146,65222,5
35158,65218,5
35146,65210,5
35146,65195,5
35151,65212,4
35149,65200,5
35149,65203,5
35152,65198,5
35149,65195,5
35141,65199,4
35143,65207,5
35152,65204,5
35148,65188,5
35137,65197,5
35149,65195,4
35153,65194,5
35148,65203,5
35148,65209,5
35144,65203,4
35147,65188,5
35137,65204,4
35143,65212,5
35138,65204,5
35144,65200,4
35138,65200,5
35144,65212,5
35138,65213,5
35151,65209,5
35141,65204,4
35150,65226,5
35149,65218,5
35156,65212,5
35157,65211,5
35142,65220,4
35156,65217,5
35151,65219,5
35153,65218,5
35157,65223,5
35148,65210,4
35150,65222,5
35148,65228,5
35159,65218,5
35153,65223,4
35159,65226,4
35153,65222,6
35150,65221,4
35150,65222,5
35163,65216,4
35151,65215,5
35152,65215,5
35156,65217,5
35156,65224,5
35149,65219,4
35148,65221,5
35150,65217,5
35151,65222,5
35157,65223,5
35160,65219,4
35159,65229,5
35168,65233,5
35159,65237,5
35162,65243,5
35168,65243,4
35161,65246,5
35165,65245,5
35162,65235,5
35172,65243,4
35165,65237,5
35164,65245,5
35163,65238,5
35163,65236,5
35162,65238,4
35168,65241,5
35162,65238,5
35164,65237,5
35165,65239,5
35173,65248,4
35172,65249,5
35182,65238,5
35176,65243,5
35169,65239,5
35171,65242,4
35176,65240,5
35171,65230,5
35165,65235,5
35163,65231,4
35157,65230,4
35160,65228,4
35157,65214,5
35157,65219,5
35149,65204,5
35155,65206,3
35133,65195,5
35132,65191,5
35137,65181,5
35126,65178,4
35129,65176,5
35128,65162,5
35125,65161,5
35121,65163,5
35113,65150,4
35117,65159,5
35128,65158,5
35120,65163,5
35121,65162,5
35131,65160,4
35124,65156,5
35123,65154,5
35116,65152,5
35115,65154,4
35130,65162,4
35129,65162,6
35127,65158,4
35135,65167,5
35130,65161,4
35126,65171,7
35128,65173,3
35122,65169,5
35123,65180,5
35133,65176,4
35124,65180,5
35129,65182,5
35133,65176,5
35134,65175,5
35137,65188,4
35141,65178,5
35130,65184,5
35143,65190,5
35140,65183,5
35135,65197,4
35151,65194,5
35145,65194,5
35151,65202,5
35149,65197,4
35149,65203,5
35143,65193,5
35141,65193,6
35144,65203,4
35147,65196,4
35141,65190,5
35138,65198,5
35139,65190,5
35135,65197,5
35145,65185,4
35138,65194,5
35138,65192,5
35140,65186,5
35138,65198,5
35133,65191,4
35135,65202,5
35146,65197,5
35155,65195,5
35139,65194,5
35141,65202,4
35148,65203,5
35149,65206,5
35157,65205,5
35148,65208,5
35150,65206,4
35150,65216,5
35151,65215,5
35153,65222,11
35153,65222,3
35159,65241,5
35165,65230,5
35174,65246,5
35173,65252,4
35179,65259,5
35177,65265,5
35188,65267,5
35184,65280,5
35199,65277,4
35200,65290,5
35195,65292,5
35192,65301,5
35206,65304,4
35209,65308,4
35206,65320,5
35211,65320,5
35221,65327,5
35222,65330,4
35219,65326,6
35231,65343,4
35236,65352,5
35236,65361,5
35243,65364,6
35243,65371,3
35245,65378,5
35246,65381,5
35251,65381,5
35254,65393,4
35258,65393,5
35260,65396,5
35263,65405,5
35255,65400,5
35271,65406,4
35260,65408,5
35264,65408,5
35271,65402,5
35257,65395,4
35266,65397,4
35266,65396,5
35256,65394,5
35257,65400,5
35262,65397,4
35253,65392,5
35263,65386,6
35257,65389,4
35261,65388,5
35259,65389,4
35256,65401,5
35251,65391,5
35252,65386,5
35263,65392,5
35254,65398,4
35267,65406,5
35260,65398,5
35266,65408,5
35266,65408,5
35272,65412,4
35279,65417,5
35274,65415,5
35279,65427,5
35282,65430,4
35280,65433,5
35278,65433,5
35285,65445,5
35292,65449,5
35297,65451,4
35296,65455,5
35297,65461,5
35307,65462,6
35306,65473,4
35309,65485,4
35312,65476,5
35303,65482,5
35318,65484,5
35316,65497,5
35309,65498,4
35318,65490,5
35313,65506,5
35316,65501,5
35315,65506,5
35311,65502,4
35314,65488,5
35310,65489,5
35320,65488,5
35313,65483,4
35312,65500,5
35314,65494,5
35315,65492,5
35315,65488,5
35309,65484,5
35310,65489,4
35313,65489,5
35310,65482,5
35302,65485,6
35303,65478,3
35297,65470,5
35307,65472,5
35291,65469,5
35296,65477,5
35297,65467,4
35307,65474,5
35296,65482,5
35306,65482,5
35309,65483,4
35305,65485,4
35309,65488,5
35314,65496,5
35311,65503,5
35324,65507,4
35331,65524,5
35334,65526,5
35346,65542,5
35347,65559,5
35367,65574,4
35367,65579,6
35371,65590,4
35378,65614,5
35394,65625,5
35397,65642,4
35402,65638,5
35407,65647,5
35414,65664,5
35416,65661,5
35426,65681,4
35427,65695,5
35425,65684,5
35439,65695,5
35438,65702,4
35440,65712,4
35440,65706,5
35441,65715,5
35437,65703,5
35445,65722,4
35455,65714,5
35453,65734,5
35463,65733,5
35461,65734,5
35460,65742,4
35452,65739,5
35456,65739,6
35462,65737,4
35463,65752,5
35461,65753,4
35467,65757,5
35470,65760,5
35469,65774,5
35481,65771,5
35490,65787,4
35489,65793,5
35497,65813,5
35494,65806,5
35495,65811,4
35488,65816,5
35490,65809,5
35504,65804,5
35492,65816,5
35503,65824,4
35511,65822,5
35514,65838,5
35523,65839,5
35520,65841,5
35518,65851,4
35516,65850,5
35517,65844,5
35519,65852,6
35530,65855,4
35531,65846,4
35523,65855,5
35533,65853,5
35527,65871,5
35536,65865,4
35529,65857,4
35533,65871,5
35537,65869,5
35531,65867,5
35525,65859,4
35519,65854,5
35527,65859,5
35519,65862,5
35527,65850,5
35526,65859,4
35516,65849,5
35530,65853,5
35526,65859,5
35524,65851,5
35526,65861,5
35530,65864,4
35530,65866,5
35525,65868,5
35529,65871,5
35526,65864,4
35534,65865,5
35525,65873,5
35522,65867,5
35530,65858,4
35527,65859,4
35521,65857,5
35518,65848,5
35518,65844,5
35518,65855,4
35520,65854,5
35516,65862,5
35530,65855,5
35532,65862,5
35523,65860,4
35525,65864,5
35530,65878,5
35527,65855,5
35533,65866,5
35535,65875,4
35530,65868,6
35542,65868,4
35540,65879,5
35537,65878,5
35542,65873,4
35543,65884,5
35538,65867,5
35540,65875,5
35532,65875,4
35539,65872,5
35543,65884,5
35539,65878,5
35537,65883,5
35538,65887,4
35542,65890,5
35546,65881,5
35551,65895,5
35536,65885,5
35548,65890,4
35550,65886,5
35536,65886,5
35539,65880,5
35537,65879,5
35528,65873,4
35524,65867,5
35529,65864,6
35513,65853,4
35515,65834,4
35506,65828,4
35509,65828,5
35499,65812,5
35500,65810,5
35495,65812,4
35496,65801,5
35491,65797,5
35487,65792,5
35487,65792,5
35479,65786,4
35486,65790,5
35489,65779,5
35486,65791,5
35484,65777,5
35475,65782,4
35479,65770,5
35486,65767,5
35475,65781,5
35468,65783,5
35480,65778,4
35486,65790,5
35482,65778,5
35489,65782,5
35478,65783,4
35492,65793,4
35486,65796,5
35475,65798,5
35473,65795,5
35480,65789,4
35485,65788,5
35478,65790,5
35479,65782,5
35477,65771,5
35477,65778,4
35485,65778,5
35480,65789,5
35487,65778,5
35477,65779,5
35476,65779,4
35469,65768,5
35462,65762,5
35460,65754,5
35466,65755,5
35458,65754,5
35459,65755,4
35450,65740,5
35454,65740,5
35455,65723,4
35447,65738,5
35449,65723,5
35449,65729,5
35439,65727,5
35450,65737,4
35433,65727,5
35436,65717,5
35445,65718,5
35446,65726,5
35446,65728,4
35444,65723,5
35451,65731,5
35452,65726,5
35450,65739,5
35451,65736,4
35452,65747,5
35457,65745,5
35456,65749,4
35452,65747,4
35459,65749,4
35453,65749,5
35465,65759,5
35460,65759,5
35458,65756,4
35464,65762,5
35458,65758,5
35469,65756,5
35458,65753,5
35462,65756,4
35461,65759,5
35461,65768,5
35464,65760,5
35461,65756,5
35469,65759,4
35455,65745,5
35463,65746,5
35455,65749,5
35464,65742,5
35451,65746,4
35455,65738,5
35454,65735,5
35450,65734,6
35457,65735,3
35446,65725,4
35446,65720,5
35436,65726,5
35448,65714,5
35435,65713,4
35433,65706,5
35437,65700,5
35428,65694,5
35427,65697,5
35433,65698,4
35436,65697,5
35425,65686,5
35426,65697,5
35431,65693,5
35426,65693,4
35418,65690,5
35422,65692,5
35429,65692,5
35425,65691,5
35425,65682,5
35426,65687,4
35419,65696,5
35423,65689,5
35421,65683,6
35418,65688,3
35418,65679,5
35409,65673,5
35419,65668,5
35417,65663,4
35409,65673,5
35418,65665,5
35416,65666,5
35406,65665,5
35405,65660,4
35403,65652,5
35393,65652,5
35397,65645,5
35392,65630,5
35395,65631,4
35386,65628,5
35378,65625,5
35374,65610,5
35368,65601,4
35364,65596,4
35366,65582,6
35368,65578,4
35349,65579,5
35344,65577,4
35346,65569,5
35351,65576,5
35353,65578,5
35359,65579,5
35363,65569,4
35355,65566,5
35350,65567,5
35357,65571,5
35353,65566,5
35341,65562,4
35341,65560,5
35340,65559,5
35341,65557,5
35344,65559,5
35355,65558,4
35341,65555,5
35343,65562,5
35336,65548,5
35349,65541,4
35338,65547,4
35331,65541,5
35329,65527,6
35334,65536,4
35334,65539,4
35335,65522,5
35326,65527,5
35334,65528,5
35329,65527,5
35331,65529,4
35329,65540,5
35346,65539,5
35338,65545,5
35339,65539,5
35331,65557,4
35342,65549,5
35339,65551,5
35338,65556,5
35339,65556,5
35343,65547,9
35342,65552,0
35344,65536,5
35348,65569,5
35345,65556,5
35354,65561,4
35356,65553,5
35353,65571,5
35350,65565,6
35350,65558,3
35355,65554,5
35350,65562,5
35353,65565,5
35345,65557,5
35346,65559,4
35341,65550,5
35340,65561,5
35348,65554,5
35344,65541,5
35337,65541,4
35328,65544,5
35335,65536,5
35340,65540,5
35334,65530,5
35336,65524,4
35331,65519,5
35328,65513,5
35316,65516,5
35326,65517,4
35316,65518,6
35318,65507,4
35320,65503,5
35322,65501,5
35320,65501,4
35314,65501,5
35314,65497,5
35319,65507,5
35307,65496,5
35308,65502,4
35318,65499,5
35330,65505,5
35321,65518,5
35322,65506,5
35310,65510,4
35321,65515,5
35319,65509,5
35316,65509,5
35323,65512,4
35333,65513,4
35324,65511,5
35323,65513,5
35316,65522,5
35317,65512,4
35319,65511,5
35318,65497,6
35321,65512,4
35324,65502,5
35308,65500,4
35323,65508,5
35316,65494,5
35304,65484,5
35306,65484,5
35305,65486,4
35304,65481,5
35291,65474,5
35301,65476,5
35300,65463,5
35290,65466,4
35292,65457,5
35286,65454,5
35273,65446,5
35279,65443,4
35287,65434,5
35273,65424,5
35270,65433,5
35276,65437,5
35274,65420,4
35265,65423,5
35259,65416,5
35261,65424,6
35267,65411,4
35261,65411,4
35259,65413,5
35258,65416,5
35257,65420,5
35261,65410,5
35261,65410,4
35268,65412,5
35257,65415,5
35249,65405,5
35255,65406,5
35254,65417,4
35254,65402,5
35261,65407,5
35258,65406,5
35261,65400,4
35252,65402,5
35260,65400,5
35254,65403,5
35247,65390,5
35245,65396,5
35250,65385,4
35244,65389,5
35236,65380,5
35247,65374,5
35226,65363,4
35233,65370,5
35231,65368,5
35231,65375,5
35228,65362,5
35229,65360,4
35224,65348,5
35213,65341,5
35211,65331,5
35207,65327,4
35214,65324,4
35207,65317,5
35207,65318,5
35201,65310,5
35203,65310,4
35196,65308,5
35210,65309,5
35195,65309,5
35197,65306,5
35206,65313,4
35223,65309,6
35204,65322,4
35201,65318,5
35212,65324,5
35212,65322,4
35220,65322,5
35208,65315,5
35203,65320,5
35210,65319,5
35205,65319,4
35207,65314,5
35202,65316,5
35210,65310,5
35199,65306,4
35208,65316,4
35203,65304,5
35207,65298,5
35204,65313,5
35205,65312,4
35197,65308,5
35206,65299,5
35210,65310,5
35206,65312,5
35202,65312,4
35203,65312,5
35199,65306,6
35201,65305,4
35198,65308,5
35197,65308,4
35194,65304,5
35198,65290,5
35188,65288,5
35191,65297,5
35184,65273,4
35184,65269,5
35175,65267,5
35181,65262,5
35183,65264,4
35175,65259,5
35162,65254,5
35165,65243,5
35171,65232,5
35165,65238,4
35159,65230,5
35158,65226,5
35155,65224,5
35144,65221,5
35150,65214,4
35148,65205,5
35147,65205,5
35147,65206,5
35138,65201,5
35134,65193,4
35132,65196,5
35128,65176,5
35118,65163,5
35115,65165,4
35101,65151,4
35110,65147,5
35100,65138,5
35098,65132,5
35092,65134,4
35092,65120,5
35086,65123,5
35083,65110,5
35090,65107,5
35078,65103,4
35075,65101,5
35074,65088,5
35065,65080,5
35065,65071,5
35063,65066,5
35057,65068,4
35051,65055,5
35049,65047,5
35047,65044,5
35050,65043,4
35041,65045,5
35041,65040,5
35044,65036,5
35041,65037,4
35035,65036,5
35041,65039,5
35047,65043,5
35047,65052,5
35051,65052,4
35055,65053,5
35052,65058,5
35051,65059,5
35057,65055,5
35056,65058,4
35068,65056,5
35051,65061,5
35044,65054,5
35039,65055,5
35053,65050,4
35058,65037,6
35044,65035,4
35030,65027,5
35035,65026,5
35027,65019,4
35036,65014,5
35036,65009,5
35029,65014,5
35033,65017,4
35040,65029,5
35031,65021,5
35030,65025,5
35041,65027,5
35036,65034,4
35036,65035,5
35043,65038,5
35046,65037,5
35036,65039,5
35041,65040,4
35047,65047,5
35035,65040,5
35055,65039,5
35045,65043,5
35046,65031,4
35046,65039,5
35039,65047,5
35044,65029,5
35050,65037,4
35044,65033,4
35035,65034,5
35032,65020,5
35052,65030,5
35038,65030,4
35032,65028,5
35037,65025,5
35027,65022,5
35036,65024,5
35036,65017,4
35036,65014,5
35033,65021,5
35029,65017,5
35037,65018,5
35031,65014,5
35028,65011,4
35023,64996,5
35031,64992,5
35014,64990,6
35010,64980,3
35012,64975,5
35007,64982,5
35008,64973,5
35004,64969,4
35006,64974,4
35006,64968,5
34994,64958,5
34996,64967,5
35001,64963,4
34996,64964,5
34997,64959,5
35005,64966,5
35003,64972,5
35005,64971,4
35008,64973,5
35009,64982,5
35001,64990,5
35014,64980,5
35008,64988,4
35020,64983,6
35014,64986,4
35019,64993,5
35017,64981,5
35010,64975,6
35007,64969,3
35007,64979,5
35005,64969,5
35002,64969,4
34999,64967,5
34996,64978,5
34990,64949,5
34987,64944,5
34983,64925,4
34978,64921,5
34970,64908,5
34970,64909,5
34966,64902,5
34965,64889,4
34958,64893,5
34945,64884,5
34942,64878,5
34953,64866,5
34929,64872,4
34934,64856,5
34934,64850,6
34935,64836,4
34917,64821,4
34901,64808,4
34905,64791,5
34883,64776,5
34882,64762,5
34879,64747,4
34871,64738,5
34859,64725,5
34850,64712,5
34848,64699,5
34845,64695,4
34843,64678,5
34844,64672,5
34828,64668,5
34827,64673,5
34824,64665,4
34824,64670,5
34826,64652,5
34827,64677,5
34830,64675,5
34825,64669,4
34829,64657,5
34829,64656,5
34824,64656,6
34818,64646,3
34804,64624,4
34812,64643,5
34815,64639,5
34813,64635,5
34802,64637,4
34819,64649,5
34824,64648,5
34811,64644,5
34823,64664,5
34825,64671,4
34838,64669,5
34829,64671,5
34837,64685,5
34847,64688,5
34840,64684,4
34848,64698,5
34855,64707,5
34853,64718,5
34863,64717,5
34863,64723,5
34869,64736,4
34867,64745,5
34870,64745,5
34874,64751,6
34885,64758,3
34887,64772,5
34889,64767,5
34887,64769,5
34887,64758,4
34889,64770,5
34890,64772,5
34888,64775,5
34898,64791,5
34907,64803,4
34909,64808,5
34911,64800,5
34908,64804,5
34907,64798,5
34901,64806,4
34912,64823,5
34910,64821,5
34913,64814,5
34913,64815,5
34926,64829,4
34924,64838,6
34922,64852,4
34935,64847,5
34935,64858,4
34941,64859,5
34938,64856,5
34943,64870,5
34937,64877,5
34939,64871,4
34953,64874,5
34958,64886,5
34946,64881,5
34951,64905,5
34965,64905,4
34973,64918,5
34978,64929,5
34986,64941,5
35002,64956,5
34991,64965,4
35019,64972,5
35010,64988,5
35022,65001,5
35032,65017,4
35040,65022,4
35043,65039,5
35058,65054,6
35060,65064,4
35067,65069,4
35062,65094,5
35076,65098,5
35077,65106,5
35086,65104,5
35082,65105,4
35092,65110,5
35081,65128,8
35089,65124,2
35125,65142,5
35100,65149,4
35114,65159,5
35110,65163,5
35122,65188,5
35125,65198,5
35131,65201,4
35137,65193,5
35140,65196,5
35141,65208,5
35137,65209,5
35142,65217,4
35147,65213,5
35143,65207,5
35147,65214,6
35153,65233,3
35145,65231,5
35156,65231,5
35159,65230,5
35152,65253,5
35159,65253,4
35174,65258,5
35163,65256,5
35171,65272,5
35177,65273,5
35180,65284,4
35192,65293,5
35202,65309,5
35209,65328,5
35216,65348,5
35228,65364,4
35232,65388,5
35250,65393,5
35256,65411,5
35269,65434,4
35279,65454,6
35286,65466,4
35302,65487,5
35309,65504,5
35326,65507,4
35321,65522,5
35332,65527,5
35334,65537,5
35336,65539,5
35339,65547,4
35348,65554,5
35349,65557,5
35354,65558,5
35362,65572,5
35367,65586,4
35371,65596,5
35378,65604,5
35376,65608,5
35383,65629,4
35394,65633,4
35389,65639,5
35402,65651,5
35403,65661,5
35414,65678,4
35419,65677,5
35417,65678,6
35419,65696,4
35430,65695,5
35427,65696,4
35427,65691,5
35429,65698,5
35423,65697,5
35433,65708,5
35424,65706,4
35434,65708,5
35438,65712,5
35436,65721,5
35432,65719,5
35441,65713,4
35451,65733,5
35452,65725,5
35454,65738,5
35444,65739,4
35454,65743,4
35449,65730,5
35456,65737,5
35464,65744,5
35463,65761,4
35468,65761,5
35466,65760,5
35466,65767,6
35475,65776,4
35478,65768,4
35474,65772,5
35478,65774,5
35478,65785,5
35481,65782,5
35476,65787,4
35482,65790,5
35482,65798,5
35481,65802,5
35494,65810,5
35483,65816,4
35488,65819,5
35496,65825,5
35507,65840,5
35502,65844,4
35519,65845,5
35509,65849,5
35513,65853,5
35514,65855,5
35523,65863,5
35526,65868,4
35539,65873,5
35532,65866,5
35529,65876,5
35534,65876,4
35530,65885,5
35536,65890,5
35545,65894,5
35546,65908,5
35545,65921,4
35562,65931,5
35569,65938,5
35575,65950,5
35573,65964,5
35598,65978,4
35604,65999,5
35609,66011,5
35608,66016,5
35623,66021,4
35622,66031,5
35623,66038,5
35642,66041,5
35645,66061,5
35641,66059,4
35649,66069,6
35659,66075,4
35651,66076,5
35654,66083,5
35653,66093,4
35669,66097,5
35660,66096,5
35669,66104,5
35670,66112,5
35671,66107,4
35670,66120,5
35679,66117,5
35673,66119,5
35671,66102,4
35663,66110,4
35669,66111,5
35668,66111,5
35671,66099,5
35666,66104,4
35663,66102,5
35664,66109,5
35666,66094,5
35660,66097,5
35660,66093,4
35660,66092,5
35656,66081,6
35650,66074,4
35651,66073,5
35655,66075,4
35650,66087,5
35646,66060,5
35641,66071,5
35639,66060,5
35642,66063,4
35641,66053,5
35635,66043,5
35622,66039,5
35625,66042,4
35623,66048,4
35631,66040,5
35624,66031,5
35632,66045,5
35633,66034,4
35633,66034,5
35619,66036,5
35628,66038,5
35622,66029,5
35618,66020,4
35613,66012,5
35616,66018,5
35614,65997,5
35611,66006,5
35604,65996,4
35610,65997,5
35602,65994,5
35594,65980,5
35590,65973,5
35586,65958,4
35579,65957,5
35579,65953,5
35570,65943,5
35568,65931,4
35565,65936,5
35560,65919,5
35563,65919,5
35554,65914,5
35555,65903,4
35543,65905,5
35540,65889,5
35533,65889,5
35538,65897,5
35538,65879,5
35541,65875,4
35538,65883,5
35530,65883,5
35533,65891,5
35541,65897,4
35540,65885,5
35544,65885,5
35544,65886,5
35537,65891,5
35537,65880,4
35544,65889,5
35546,65890,5
35534,65898,5
35551,65897,4
35543,65897,5
35543,65902,5
35548,65899,5
35549,65896,5
35552,65895,4
35545,65898,5
35551,65902,6
35547,65898,4
35545,65906,5
35546,65906,4
35558,65912,7
35554,65907,3
35551,65899,5
35553,65904,5
35545,65904,4
35550,65899,5
35547,65901,5
35543,65894,5
35542,65893,4
35542,65889,4
35531,65881,5
35533,65873,5
35534,65866,5
35527,65878,4
35532,65867,5
35536,65865,5
35529,65856,5
35522,65863,5
35523,65862,4
35525,65861,5
35519,65865,5
35514,65863,6
35516,65857,4
35522,65851,4
35520,65856,5
35509,65845,5
35518,65846,5
35513,65849,5
35522,65841,4
35518,65834,5
35503,65835,5
35508,65824,5
35512,65824,4
35513,65841,4
35503,65821,5
35493,65821,5
35506,65824,5
35504,65822,4
35514,65811,5
35493,65821,5
35499,65808,5
35497,65806,5
35500,65805,5
35490,65806,4
35485,65792,5
35482,65798,5
35490,65791,6
35491,65779,3
35471,65777,5
35480,65773,5
35478,65769,5
35470,65764,5
35461,65749,4
35469,65758,5
35461,65733,5
35459,65736,5
35446,65725,4
35442,65727,5
35433,65709,5
35436,65717,5
35435,65710,5
35443,65719,4
35436,65709,5
35441,65721,5
35434,65721,5
35433,65712,5
35443,65699,4
35439,65705,6
35428,65700,4
35434,65704,5
35423,65701,5
35420,65695,6
35432,65698,3
35424,65698,5
35428,65710,5
35424,65694,5
35414,65684,4
35415,65688,5
35420,65685,5
35414,65675,5
35413,65662,4
35400,65665,5
35402,65662,5
35402,65647,5
35399,65643,5
35395,65652,4
35402,65657,5
35402,65654,5
35396,65646,5
35394,65647,5
35393,65637,4
35394,65630,5
35389,65620,6
35377,65615,4
35379,65615,5
35378,65609,4
35370,65611,5
35371,65617,5
35380,65609,5
35378,65609,4
35375,65594,4
35375,65594,5
35365,65576,5
35349,65566,5
35353,65562,4
35347,65554,5
35345,65550,5
35340,65543,5
35339,65547,5
35334,65539,4
35334,65537,5
35327,65536,5
35335,65540,5
35335,65532,5
35325,65518,4
35323,65520,5
35321,65514,5
35330,65515,6
35326,65509,4
35319,65508,4
35322,65506,5
35316,65494,5
35313,65494,5
35304,65497,4
35308,65496,5
35302,65480,5
35306,65487,5
35307,65476,5
35299,65465,4
35299,65466,5
35297,65460,5
35294,65469,5
35301,65470,5
35294,65473,4
35302,65476,5
35301,65481,5
35305,65486,5
35303,65491,5
35314,65496,5
35315,65488,4
35302,65482,5
35314,65493,5
35318,65512,4
35317,65497,4
35321,65506,5
35313,65501,5
35321,65503,5
35323,65500,4
35315,65502,5
35322,65498,5
35312,65496,5
35313,65492,5
35318,65492,4
35316,65488,5
35309,65492,5
35303,65486,5
35302,65483,5
35294,65481,4
35296,65473,5
35294,65472,5
35292,65463,5
35290,65464,5
35286,65450,4
35283,65435,6
35280,65440,4
35263,65432,5
35259,65412,4
35260,65414,4
35257,65401,5
35256,65398,5
35257,65406,5
35245,65396,4
35258,65395,5
35260,65398,5
35254,65397,5
35241,65384,5
35244,65385,4
35239,65379,5
35242,65374,5
35231,65364,5
35231,65362,5
35231,65358,4
35225,65356,5
35225,65355,5
35222,65344,5
35215,65343,5
35217,65339,4
35226,65334,5
35217,65325,11
35208,65321,3
35208,65318,5
35207,65319,5
35212,65315,5
35198,65320,5
35207,65307,4
35212,65312,5
35207,65317,5
35197,65317,5
35195,65310,5
35194,65291,4
35201,65298,5
35195,65289,5
35183,65285,5
35190,65269,5
35181,65278,4
35173,65268,5
35178,65265,5
35178,65254,5
35187,65256,5
35173,65264,4
35171,65256,5
35168,65249,5
35172,65252,5
35170,65247,4
35170,65241,5
35169,65252,5
35168,65238,5
35164,65240,5
35169,65239,4
35166,65253,5
35177,65246,5
35161,65245,5
35165,65238,5
35163,65239,4
35162,65239,5
35168,65242,5
35163,65236,5
35167,65243,5
35170,65225,4
35167,65229,5
35152,65214,5
35163,65214,5
35147,65205,4
35150,65211,5
35144,65203,4
35145,65200,5
35142,65189,5
35132,65195,4
35137,65187,5
35130,65182,5
35128,65172,5
35126,65170,5
35116,65166,4
35126,65173,5
35127,65157,5
35123,65157,5
35121,65157,5
35122,65147,4
35119,65150,5
35118,65138,5
35117,65135,5
35105,65140,5
35111,65124,4
35102,65122,5
35101,65114,5
35092,65114,5
35089,65108,4
35080,65099,5
35080,65084,6
35084,65084,4
35073,65074,5
35064,65069,4
35065,65052,5
35057,65052,5
35057,65053,5
35058,65050,5
35048,65040,4
35045,65039,5
35054,65038,5
35049,65033,5
35047,65017,5
35032,65011,4
35028,65017,5
35032,65010,5
35019,65005,5
35028,65004,5
35026,64995,4
35024,64996,5
35031,64992,5
35021,64988,5
35021,64978,4
35017,64983,5
35017,64976,5
35013,64966,5
35000,64958,5
35004,64955,4
35002,64945,5
34994,64928,5
34983,64926,5
34978,64920,5
34972,64908,4
34975,64901,5
34967,64906,5
34975,64896,5
34977,64895,5
34967,64885,4
34967,64893,5
34967,64881,5
34963,64885,5
34955,64875,4
34960,64883,4
34952,64874,5
34950,64875,5
34956,64868,5
34943,64862,5
34952,64852,4
34937,64848,5
34931,64837,5
34931,64827,5
34922,64813,4
34914,64807,5
34909,64798,5
34907,64791,5
34901,64787,5
34902,64784,4
34896,64776,5
34899,64780,5
34904,64774,5
34891,64789,5
34890,64782,4
34891,64778,5
34897,64773,5
34889,64776,5
34892,64779,4
34897,64776,5
34888,64775,5
34899,64769,5
34894,64773,5
34900,64772,4
34901,64772,6
34901,64774,4
34897,64763,5
34901,64776,5
34895,64779,4
34894,64775,5
34905,64773,5
34902,64782,5
34901,64775,5
34899,64776,4
34907,64794,5
34906,64782,5
34908,64774,5
34905,64787,5
34904,64790,4
34910,64785,5
34904,64787,5
34916,64793,5
34906,64799,4
34911,64784,5
34907,64794,5
34914,64792,5
34913,64793,4
34914,64783,4
34907,64791,5
34908,64789,5
34909,64783,5
34912,64797,5
34905,64785,4
34910,64787,5
34903,64775,5
34903,64784,5
34907,64780,5
34897,64774,4
34896,64768,5
34895,64771,5
34897,64756,5
34891,64758,4
34894,64771,4
34895,64763,5
34895,64760,5
34885,64757,5
34883,64752,5
34879,64749,4
34882,64738,5
34885,64749,5
34881,64745,6
34878,64738,3
34891,64748,5
34875,64739,5
34875,64731,5
34874,64737,5
34877,64740,4
34874,64732,5
34879,64731,5
34881,64728,5
34877,64727,5
34878,64724,4
34873,64740,5
34879,64742,5
34882,64748,5
34875,64733,4
34878,64741,5
34882,64744,5
34877,64744,5
34874,64736,5
34877,64745,4
34874,64739,6
34871,64723,4
34875,64731,5
34867,64724,5
34869,64719,6
34867,64722,3
34863,64711,5
34863,64716,5
34856,64705,5
34858,64709,4
34859,64705,5
34854,64691,5
34849,64707,5
34854,64698,5
34857,64707,4
34848,64695,5
34847,64677,5
34837,64687,5
34844,64670,4
34835,64674,5
34838,64667,5
34826,64665,5
34828,64663,5
34830,64654,4
34830,64648,5
34822,64649,6
34820,64634,4
34809,64630,5
34809,64639,4
34811,64628,5
34808,64620,5
34811,64628,5
34804,64632,5
34806,64608,4
34787,64620,5
34796,64608,5
34799,64602,5
34792,64608,4
34800,64611,4
34797,64605,5
34796,64609,5
34800,64606,5
34789,64599,4
34793,64596,5
34790,64599,5
34796,64594,5
34786,64592,5
34784,64582,4
34791,64584,5
34780,64589,5
34790,64584,6
34783,64593,4
34788,64585,4
34785,64596,5
34785,64594,5
34789,64596,5
34792,64603,5
34787,64599,4
34793,64594,5
34784,64588,5
34780,64585,5
34783,64591,4
34783,64587,4
34787,64589,5
34786,64586,5
34774,64576,5
34788,64575,4
34774,64584,5
34775,64580,5
34777,64570,5
34778,64564,5
34770,64578,5
34779,64575,4
34782,64570,5
34770,64556,5
34769,64550,6
34765,64552,3
34765,64551,5
34754,64538,5
34759,64533,5
34754,64534,5
34760,64528,4
34751,64521,5
34745,64504,5
34738,64491,5
34724,64486,4
34720,64480,5
34716,64465,5
34717,64462,5
34709,64449,5
34698,64446,4
34702,64439,5
34691,64430,5
34688,64417,5
34686,64414,5
34688,64401,4
34688,64406,6
34674,64397,4
34679,64405,5
34684,64398,5
34683,64393,4
34686,64404,5
34682,64402,5
34685,64391,5
34678,64405,5
34677,64415,4
34687,64406,5
34685,64417,5
34686,64401,5
34685,64418,4
34694,64404,5
34682,64415,5
34693,64410,5
34689,64422,5
34691,64406,4
34690,64417,5
34695,64423,5
34693,64421,5
34685,64420,5
34702,64431,4
34697,64416,5
34700,64422,6
34691,64428,4
34693,64419,5
34695,64427,4
34692,64420,5
34697,64418,5
34697,64412,5
34697,64422,4
34694,64422,5
34691,64416,5
34688,64414,5
34690,64423,5
34694,64409,4
34695,64412,5
34694,64413,5
34689,64426,5
34684,64416,5
34700,64415,4
34694,64416,5
34694,64408,5
34690,64414,5
34698,64416,5
34689,64416,4
34679,64412,5
34689,64410,5
34681,64408,6
34690,64402,4
34676,64410,4
34680,64404,5
34682,64404,5
34686,64410,5
34678,64394,4
34693,64404,5
34691,64416,5
34691,64420,5
34699,64430,5
34698,64450,4
34708,64459,5
34717,64460,5
34714,64468,5
34722,64464,5
34723,64475,4
34724,64476,5
34724,64475,5
34724,64489,5
34727,64483,5
34741,64494,5
34751,64500,4
34742,64516,5
34754,64515,5
34755,64516,4
34752,64513,4
34761,64532,5
34752,64522,5
34762,64534,5
34761,64534,4
34768,64537,5
34771,64545,5
34766,64543,5
34773,64544,5
34770,64551,4
34763,64549,5
34768,64561,5
34769,64554,5
34780,64556,5
34773,64563,4
34782,64564,5
34780,64569,5
34783,64581,5
34786,64576,5
34786,64583,4
34798,64584,6
34799,64591,4
34804,64601,5
34804,64605,4
34805,64614,5
34803,64627,5
34811,64627,5
34812,64627,5
34823,64639,4
34818,64637,5
34820,64641,5
34838,64663,5
34828,64653,5
34841,64665,4
34840,64678,5
34846,64682,5
34847,64688,5
34851,64685,9
34859,64696,0
34851,64702,5
34859,64677,5
34864,64712,5
34873,64708,5
34858,64713,4
34867,64718,5
34872,64729,6
34880,64723,4
34874,64728,4
34874,64733,5
34877,64728,5
34887,64736,5
34870,64741,5
34877,64745,4
34881,64746,5
34882,64746,5
34878,64746,5
34882,64755,5
34889,64749,4
34881,64743,5
34883,64756,5
34890,64756,5
34891,64751,5
34886,64741,4
34887,64753,5
34883,64744,5
34889,64749,5
34891,64745,5
34882,64747,4
34890,64746,5
34891,64750,5
34883,64755,5
34881,64754,4
34888,64749,5
34883,64757,5
34882,64761,5
34892,64763,5
34889,64765,4
34890,64763,5
34887,64767,5
34893,64765,5
34905,64774,5
34903,64771,4
34907,64783,5
34906,64777,5
34907,64779,5
34920,64787,5
34918,64802,4
34916,64804,5
34924,64806,5
34933,64815,5
34919,64823,4
34933,64832,5
34939,64834,4
34943,64842,5
34939,64850,5
34951,64854,4
34959,64865,5
34961,64874,5
34956,64879,5
34971,64879,5
34965,64888,4
34974,64893,5
34972,64898,5
34979,64903,5
34981,64900,5
34981,64909,4
34982,64917,5
34987,64910,5
34984,64915,5
34993,64918,5
34983,64914,4
34990,64919,5
34992,64919,5
34988,64919,5
34990,64918,4
34987,64923,5
34997,64930,6
34992,64927,4
34992,64929,5
34987,64931,4
34998,64934,5
34988,64944,5
35000,64944,5
35005,64956,5
35007,64955,4
35008,64958,5
35012,64965,5
35007,64968,5
35007,64976,5
35020,64973,4
35024,64973,5
35023,64985,5
35027,64986,5
35016,64985,4
35023,64976,4
35021,64990,5
35025,64989,5
35026,64984,5
35025,64997,4
35034,64992,5
35035,64993,5
35029,64996,5
35026,65005,5
35036,65000,4
35033,64997,5
35029,64999,5
35038,65001,5
35035,64994,5
35037,64993,4
35037,65002,5
35037,65004,5
35038,64995,5
35029,64998,5
35041,64996,4
35032,65008,5
35031,64999,5
35036,64998,5
35029,65000,4
35033,65000,4
35032,64994,4
35040,64993,5
35034,64997,5
35037,65008,6
35038,65006,3
35029,64998,5
35046,65004,5
35037,65023,5
35038,65017,4
35038,65016,5
35055,65025,5
35051,65019,5
35034,65025,5
35046,65028,4
35053,65024,5
35051,65036,5
35053,65040,5
35057,65049,5
35066,65052,4
35064,65064,5
35069,65064,5
35072,65065,5
35079,65081,4
35084,65089,5
35083,65089,6
35092,65088,4
35093,65096,5
35102,65109,4
35103,65102,7
35102,65115,3
35099,65109,5
35089,65119,5
35110,65136,4
35110,65122,5
35119,65129,5
35110,65128,5
35122,65138,5
35119,65144,4
35109,65150,5
35124,65145,5
35119,65145,5
35131,65147,5
35131,65145,4
35122,65158,5
35127,65153,5
35124,65157,5
35130,65163,4
35132,65172,5
35132,65159,5
35137,65163,6
35138,65166,4
35133,65161,4
35128,65168,5
35132,65176,5
35129,65174,5
35131,65166,5
35128,65176,4
35127,65166,5
35126,65165,5
35130,65153,5
35131,65163,5
35121,65152,4
35132,65148,5
35125,65155,5
35126,65158,5
35129,65156,4
35124,65154,4
35128,65152,5
35127,65152,5
35129,65156,5
35118,65152,5
35120,65150,4
35119,65152,5
35126,65146,5
35127,65144,6
35119,65150,3
35120,65145,5
35115,65135,5
35108,65132,5
35104,65119,5
35101,65121,4
35098,65106,5
35095,65102,5
35090,65094,5
35082,65099,5
35102,65094,4
35087,65091,5
35079,65079,5
35078,65069,5
35080,65068,4
35077,65063,5
35067,65069,5
35067,65055,5
35073,65051,5
35066,65051,4
35060,65045,6
35060,65038,4
35060,65045,5
35044,65030,5
35050,65037,6
35055,65029,3
35044,65023,5
35040,64998,5
35037,64995,5
35020,64993,4
35026,64985,5
35019,64994,5
35031,64993,5
35030,64994,4
35029,64989,4
35034,64994,5
35032,64988,5
35028,64992,5
35021,64990,4
35027,64989,5
35031,64981,5
35013,64976,5
35019,64967,5
35016,64959,4
35008,64957,5
35000,64943,6
35006,64945,4
34995,64938,5
34992,64937,4
34984,64932,5
34996,64927,5
34989,64918,5
34984,64914,5
34987,64917,4
34980,64918,5
34982,64906,5
34982,64902,5
34979,64905,4
34973,64901,4
34977,64893,5
34972,64904,5
34973,64898,5
34973,64892,4
34973,64884,5
34963,64897,5
34970,64891,5
34966,64884,5
34969,64879,4
34964,64881,5
34966,64875,5
34955,64868,6
34945,64858,4
34947,64865,4
34949,64847,5
34948,64855,5
34948,64853,5
34945,64854,5
34947,64844,4
34939,64839,5
34939,64846,5
34934,64838,5
34937,64831,4
34931,64819,4
34929,64826,5
34922,64797,5
34909,64789,5
34912,64776,4
34897,64770,5
34896,64761,5
34900,64762,5
34897,64758,5
34895,64754,5
34897,64771,4
34891,64772,5
34911,64770,5
34889,64767,6
34909,64766,3
34891,64764,5
34901,64745,5
34884,64745,5
34875,64720,5
34859,64714,4
34853,64685,5
34849,64675,5
34841,64660,5
34828,64644,4
34824,64632,5
34818,64633,5
34816,64637,5
34816,64642,5
34825,64636,4
34826,64657,5
34833,64658,5
34835,64660,5
34827,64658,5
34833,64660,4
34840,64655,6
34825,64653,4
34827,64656,5
34826,64648,5
34822,64653,4
34833,64647,5
34823,64657,5
34828,64653,5
34831,64656,5
34816,64648,4
34829,64658,5
34834,64653,5
34830,64656,5
34840,64656,4
34836,64673,5
34841,64678,5
34845,64675,5
34840,64675,5
34843,64689,4
34850,64688,5
34849,64695,5
34857,64690,5
34863,64705,5
34861,64709,4
34864,64714,5
34870,64703,6
34864,64708,4
34864,64705,5
34858,64700,4
34858,64699,5
34850,64696,5
34854,64698,5
34843,64682,4
34847,64688,4
34854,64687,5
34854,64679,5
34843,64678,5
34855,64676,4
34854,64682,5
34848,64680,5
34842,64683,5
34851,64675,5
34844,64678,4
34842,64682,5
34847,64679,5
34840,64669,5
34852,64679,5
34846,64675,4
34843,64666,5
34851,64671,5
34836,64669,6
34845,64674,4
34839,64663,4
34842,64672,5
34842,64667,5
34848,64672,5
34837,64670,4
34843,64663,5
34845,64666,5
34842,64674,5
34838,64661,5
34840,64669,4
34841,64666,5
34840,64677,5
34836,64678,5
34844,64670,5
34848,64679,4
34847,64673,5
34841,64672,5
34844,64668,5
34839,64666,5
34839,64666,5
34842,64660,4
34836,64665,5
34833,64661,5
34837,64659,5
34832,64654,4
34838,64662,5
34831,64660,5
34831,64662,5
34834,64653,4
34833,64664,5
34839,64658,5
34838,64654,5
34833,64655,5
34827,64657,4
34827,64654,5
34837,64652,5
34841,64646,5
34829,64647,5
34829,64643,4
34822,64637,5
34824,64642,5
34826,64642,5
34821,64641,5
34826,64644,4
34828,64645,7
34827,64641,3
34832,64636,5
34824,64646,4
34823,64642,4
34829,64647,5
34821,64636,5
34825,64634,5
34826,64630,4
34826,64633,8
34827,64636,2
34811,64635,5
34820,64638,5
34813,64642,4
34818,64630,5
34801,64621,5
34807,64618,5
34812,64621,5
34822,64623,4
34816,64619,5
34811,64619,5
34812,64628,5
34815,64620,5
34812,64622,4
34818,64628,5
34814,64621,5
34810,64616,5
34814,64611,4
34804,64612,4
34799,64603,5
34804,64604,5
34804,64599,5
34805,64601,4
34800,64597,5
34799,64587,5
34798,64581,5
34795,64588,5
34782,64580,4
34799,64583,5
34785,64581,5
34793,64592,5
34795,64587,5
34791,64595,4
34791,64585,5
34792,64604,5
34800,64602,5
34805,64599,5
34809,64607,4
34802,64610,5
34802,64619,5
34801,64613,5
34807,64626,4
34811,64622,5
34817,64624,5
34816,64620,5
34818,64635,5
34817,64621,4
34821,64632,5
34809,64629,5
34812,64640,5
34811,64631,5
34822,64633,4
34821,64636,5
34820,64629,5
34813,64637,5
34819,64629,5
34821,64634,4
34824,64639,5
34815,64641,5
34824,64632,5
34827,64640,5
34815,64628,5
34812,64624,4
34810,64624,5
34822,64621,5
34818,64634,4
34822,64625,5
34818,64620,5
34811,64625,5
34807,64617,5
34799,64603,4
34804,64596,5
34793,64585,5
34785,64579,5
34783,64565,5
34779,64561,4
34769,64542,5
34766,64540,5
34761,64535,5
34760,64518,5
34745,64517,4
34747,64511,5
34741,64506,6
34732,64502,4
34738,64505,5
34735,64493,4
34741,64487,5
34745,64487,5
34736,64487,5
34730,64487,4
34733,64475,5
34721,64467,5
34714,64471,5
34724,64461,5
34720,64461,4
34713,64454,5
34715,64457,5
34715,64454,5
34712,64450,5
34712,64453,4
34715,64450,5
34715,64456,5
34705,64455,5
34702,64450,5
34715,64454,4
34714,64451,5
34713,64457,5
34714,64448,6
34718,64455,3
34719,64452,4
34707,64458,5
34713,64447,5
34709,64447,5
34706,64442,4
34708,64442,5
34701,64452,5
34717,64450,5
34712,64439,5
34707,64442,4
34707,64448,5
34701,64439,5
34701,64434,5
34703,64434,5
34695,64415,4
34700,64423,5
34692,64419,5
34695,64407,5
34682,64413,5
34681,64424,5
34689,64414,4
34683,64409,5
34685,64402,5
34679,64395,6
34669,64391,3
34663,64377,5
34665,64389,5
34673,64390,5
34672,64387,4
34663,64378,5
34679,64382,5
34670,64381,5
34665,64384,5
34667,64387,4
34673,64377,5
34670,64375,5
34660,64371,5
34660,64376,5
34659,64360,4
34658,64367,5
34658,64376,5
34661,64372,5
34658,64367,5
34659,64370,4
34669,64370,6
34671,64373,4
34664,64386,5
34666,64395,4
34675,64388,5
34685,64400,5
34684,64399,5
34688,64405,5
34680,64415,4
34685,64406,5
34689,64418,5
34692,64411,5
34699,64416,5
34695,64424,4
34693,64417,5
34695,64421,5
34700,64426,5
34700,64423,5
34696,64432,4
34711,64429,5
34710,64432,5
34706,64444,5
34700,64450,5
34712,64450,4
34715,64459,5
34711,64450,6
34710,64465,4
34720,64462,4
34708,64456,5
34716,64456,5
34719,64462,5
34716,64464,5
34719,64463,4
34717,64469,5
34713,64461,5
34717,64462,5
34719,64463,5
34717,64475,4
34722,64477,5
34720,64465,5
34735,64480,5
34726,64481,5
34726,64472,4
34731,64481,5
34727,64479,5
34729,64475,5
34726,64480,5
34726,64477,4
34720,64476,5
34727,64478,5
34715,64474,6
34729,64480,3
34724,64481,5
34718,64475,5
34721,64475,5
34723,64474,5
34718,64466,4
34724,64471,5
34721,64461,5
34717,64467,5
34727,64464,5
34717,64467,4
34720,64461,5
34725,64463,5
34718,64460,5
34710,64454,5
34714,64462,4
34713,64459,5
34713,64462,5
34711,64454,5
34710,64453,4
34709,64452,5
34707,64458,4
34718,64454,5
34718,64460,5
34720,64452,4
34712,64466,5
34709,64453,5
34721,64466,5
34722,64467,5
34722,64471,4
34728,64470,5
34727,64474,5
34726,64480,5
34732,64489,5
34732,64491,4
34728,64492,5
34736,64492,5
34733,64498,5
34740,64500,5
34736,64496,4
34739,64503,5
34744,64495,5
34742,64507,5
34735,64500,4
34747,64513,4
34752,64507,6
34752,64513,4
34759,64515,5
34755,64518,4
34756,64528,5
34760,64541,5
34766,64536,5
34764,64542,5
34774,64548,4
34768,64553,5
34769,64563,5
34774,64571,5
34783,64562,5
34782,64562,4
34777,64561,5
34771,64563,5
34773,64564,5
34773,64575,5
34782,64563,4
34777,64571,5
34780,64589,5
34794,64594,5
34788,64592,4
34796,64608,4
34802,64601,5
34809,64619,6
34810,64618,4
34818,64625,4
34815,64624,5
34808,64630,5
34817,64641,5
34812,64632,5
34817,64645,4
34823,64652,5
34818,64657,5
34835,64651,5
34824,64660,5
34830,64668,4
34832,64661,5
34836,64672,5
34839,64671,5
34844,64676,5
34835,64682,4
34849,64693,5
34860,64698,5
34856,64699,5
34867,64713,5
34859,64716,4
34876,64727,5
34879,64729,5
34885,64734,5
34886,64743,4
34881,64734,5
34876,64743,5
34890,64750,5
34889,64756,5
34895,64762,4
34897,64761,5
34895,64776,5
34895,64771,5
34904,64783,5
34914,64801,4
34913,64782,5
34912,64795,5
34914,64789,5
34916,64804,5
34911,64790,4
34915,64794,5
34917,64804,5
34912,64819,5
34925,64803,4
34936,64831,6
34926,64842,4
34938,64841,5
34946,64835,5
34935,64848,4
34945,64853,5
34945,64861,5
34950,64862,5
34941,64849,5
34959,64859,4
34942,64852,5
34940,64859,5
34939,64847,5
34947,64842,5
34942,64864,4
34955,64867,5
34949,64868,5
34950,64869,5
34956,64868,5
34952,64864,4
34943,64863,5
34953,64865,5
34948,64863,5
34960,64867,4
34956,64871,5
34955,64867,6
34953,64869,4
34957,64871,5
34945,64858,4
34954,64862,5
34959,64877,5
34967,64880,5
34967,64893,5
34976,64906,4
34976,64914,5
34986,64929,5
34995,64932,5
35004,64952,5
35002,64945,4
34995,64929,5
34981,64908,5
34971,64885,5
34954,64873,5
34960,64888,4
34978,64916,5
34992,64928,5
34996,64950,5
35002,64948,4
34993,64931,5
34986,64941,5
34997,64944,5
35001,64952,5
35012,64984,4
35037,64997,5
35040,65029,5
35038,65015,5
35039,65029,5
35049,65021,4
35051,65035,5
35056,65041,5
35062,65055,5
35073,65082,5
35085,65096,4
35094,65118,5
35094,65119,5
35112,65132,5
35111,65144,4
35121,65148,4
35116,65147,5
35120,65145,5
35118,65156,5
35124,65153,5
35122,65161,4
35125,65149,5
35128,65157,5
35130,65159,5
35120,65169,4
35128,65169,5
35121,65164,5
35127,65175,5
35126,65166,5
35120,65165,4
35127,65170,5
35125,65182,5
35135,65171,5
35131,65173,5
35129,65183,4
35136,65175,5
35125,65179,5
35128,65170,5
35136,65177,4
35136,65166,4
35125,65179,5
35132,65182,5
35131,65176,5
35138,65177,4
35141,65179,11
35138,65181,4
35131,65180,5
35142,65181,4
35135,65180,5
35143,65192,5
35142,65192,5
35139,65208,5
35146,65200,4
35151,65217,5
35153,65216,5
35150,65223,5
35156,65220,5
35160,65221,4
35160,65239,5
35167,65225,5
35155,65231,5
35165,65233,4
35161,65224,5
35165,65245,5
35166,65230,5
35169,65237,4
35163,65243,4
35162,65242,5
35178,65238,5
35170,65240,5
35175,65254,5
35169,65248,4
35180,65248,5
35176,65258,5
35186,65257,5
35177,65251,5
35179,65246,4
35182,65254,5
35182,65262,5
35183,65265,5
35181,65266,5
35186,65266,4
35195,65277,5
35187,65270,5
35189,65273,5
35187,65277,5
35196,65280,4
35191,65287,5
35195,65284,5
35203,65293,6
35202,65300,3
35200,65298,5
35212,65301,5
35202,65311,5
35209,65315,5
35213,65320,4
35216,65321,5
35223,65313,5
35219,65323,5
35216,65317,5
35232,65341,4
35226,65340,5
35223,65341,5
35230,65337,5
35238,65354,5
35231,65343,4
35243,65360,5
35238,65364,5
35252,65377,5
35257,65371,4
35254,65376,6
35248,65384,4
35253,65386,5
35254,65374,5
35249,65374,6
35255,65382,3
35257,65385,5
35252,65378,5
35258,65390,5
35262,65392,4
35261,65389,5
35268,65398,5
35258,65390,5
35266,65396,5
35259,65392,4
35259,65401,5
35256,65395,5
35261,65392,5
35248,65391,4
35256,65376,4
35254,65385,5
35248,65375,5
35244,65384,5
35240,65380,4
35244,65371,5
35241,65369,6
35239,65363,4
35243,65364,5
35238,65365,4
35235,65359,5
35244,65349,5
35237,65347,5
35234,65349,5
35236,65346,4
35233,65346,5
35224,65344,5
35225,65336,5
35227,65334,5
35237,65333,4
35222,65334,5
35230,65322,5
35216,65325,5
35217,65318,4
35214,65323,4
35215,65307,5
35209,65311,5
35205,65299,5
35208,65296,4
35201,65297,5
35203,65294,5
35195,65290,6
35187,65276,4
35187,65272,4
35189,65270,5
35186,65266,5
35187,65272,5
35183,65258,5
35177,65258,4
35175,65248,5
35172,65249,5
35179,65251,5
35173,65243,5
35177,65242,4
35174,65239,5
35157,65236,5
35162,65236,5
35167,65233,4
35158,65229,5
35162,65227,5
35157,65221,5
35160,65221,5
35154,65220,5
35151,65222,4
35154,65212,5
35155,65209,5
35155,65210,6
35153,65204,3
35157,65217,5
35153,65214,5
35157,65218,5
35144,65213,5
35148,65205,4
35159,65203,5
35155,65217,5
35150,65218,5
35157,65213,5
35154,65210,4
35146,65211,5
35147,65208,5
35157,65209,5
35155,65209,4
35151,65206,5
35147,65212,5
35159,65212,5
35151,65205,5
35154,65188,4
35143,65193,6
35145,65187,4
35140,65177,5
35148,65176,5
35136,65167,4
35128,65163,5
35133,65156,5
35133,65159,5
35127,65161,5
35120,65153,4
35118,65159,5
35129,65160,5
35124,65153,5
35120,65149,5
35120,65147,4
35121,65144,5
35115,65134,5
35103,65139,5
35112,65133,4
35110,65118,5
35112,65124,5
35101,65124,5
35099,65123,5
35102,65116,4
35091,65106,5
35094,65115,6
35097,65121,4
35104,65105,5
35103,65119,4
35097,65113,5
35102,65107,5
35097,65107,5
35096,65108,5
35102,65111,4
35098,65116,5
35098,65108,5
35101,65108,5
35099,65107,4
35099,65098,4
35094,65113,5
35084,65094,5
35087,65086,5
35077,65084,4
35072,65090,5
35078,65082,5
35079,65079,5
35060,65070,5
35074,65059,4
35064,65070,5
35068,65058,5
35062,65051,6
35063,65050,4
35050,65038,4
35051,65037,5
35045,65013,5
35040,65023,5
35028,65014,5
35033,65007,4
35039,65012,5
35042,65007,5
35030,65007,5
35032,64999,4
35027,65002,5
35017,64988,5
35025,64974,5
35015,64967,5
35006,64955,4
34993,64934,5
34992,64931,5
34988,64921,5
34984,64916,5
34986,64924,5
34976,64907,4
34969,64898,5
34969,64898,5
34969,64895,5
34972,64892,4
34966,64892,5
34976,64890,5
34957,64891,5
34964,64882,5
34962,64883,4
34966,64885,5
34961,64885,5
34960,64886,5
34958,64888,4
34955,64889,5
34962,64890,5
34959,64884,5
34965,64888,5
34965,64885,4
34967,64893,5
34960,64892,9
34974,64893,5
34971,64888,5
34969,64884,5
34983,64898,8
34983,64898,5
34978,64914,5
34983,64909,5
35010,64921,8
34995,64917,5
34978,64905,5
34989,64913,8
34982,64917,5
34986,64909,5
34980,64912,5
34983,64906,8
34972,64897,5
34970,64900,5
34969,64875,8
34969,64875,5
34946,64875,5
34917,64862,8
34944,64863,5
34943,64866,5
34955,64863,5
34946,64852,8
34949,64838,5
34939,64853,5
34944,64845,8
34951,64844,5
34936,64839,5
34937,64852,5
34941,64839,8
34941,64839,5
34939,64851,5
34936,64844,8
34940,64858,5
34933,64838,5
34942,64831,8
34928,64839,5
34962,64841,5
34930,64841,5
34925,64832,8
34942,64838,5
34935,64833,5
34930,64835,8
34930,64835,5
34935,64870,5
34938,64850,5
34932,64807,8
34933,64833,5
34936,64833,5
34963,64833,8
34921,64835,5
34915,64825,5
34934,64827,8
34924,64827,5
34930,64823,5
34924,64824,5
34913,64808,8
34913,64808,5
34919,64787,5
34919,64794,8
34929,64803,5
34920,64797,5
34879,64780,5
34900,64794,8
34907,64787,5
34897,64805,5
34898,64790,8
34902,64774,5
34902,64785,5
34907,64786,8
34907,64786,5
34910,64796,5
34901,64791,5
34894,64775,8
34901,64780,5
34904,64776,5
34898,64816,8
34901,64791,5
34892,64740,5
34895,64763,5
34913,64766,8
34901,64772,5
34901,64772,5
34895,64775,8
34885,64781,5
34892,64773,5
34895,64784,8
34916,64792,5
34906,64791,5
34910,64748,5
34906,64781,8
34906,64801,5
34926,64805,5
34928,64825,8
34928,64825,5
34920,64827,5
34924,64811,5
34918,64824,8
34935,64836,5
34934,64840,5
34934,64835,8
34938,64839,5
34931,64853,5
34943,64852,8
34955,64864,5
34947,64862,5
34952,64867,5
34962,64867,8
34962,64867,5
34972,64874,5
34981,64883,8
34971,64880,5
34946,64866,5
34959,64871,5
34961,64883,8
34961,64887,5
34967,64883,5
34958,64885,8
34957,64879,5
34962,64878,5
34957,64867,8
34957,64867,5
34970,64872,5
34945,64872,5
34937,64872,8
34951,64872,5
34951,64871,5
34960,64877,4
34952,64864,0
34953,64878,3
34960,64878,4
34953,64870,5
34953,64859,10
34955,64872,5
34951,64864,4
34954,64864,6
34958,64863,4
34950,64864,5
34944,64870,4
34954,64858,6
34953,64873,3
34963,64876,5
34954,64862,5
34957,64863,4
34956,64870,5
34954,64864,5
34949,64870,5
34950,64871,5
34951,64863,4
34950,64857,5
34949,64866,5
34946,64863,5
34933,64857,5
34946,64864,4
34942,64867,5
34950,64853,5
34938,64857,5
34943,64870,5
34947,64865,4
34952,64871,5
34959,64870,6
34948,64864,4
34954,64867,4
34953,64858,4
34962,64867,5
34953,64870,5
34947,64875,5
34955,64878,4
34959,64875,5
34948,64872,5
34962,64871,5
34956,64874,5
34959,64880,4
34963,64864,5
34948,64870,5
34943,64861,5
34940,64866,5
34942,64858,4
34936,64852,5
34943,64853,5
34942,64849,5
34939,64842,5
34940,64845,4
34939,64844,5
34938,64828,5
34939,64845,6
34930,64848,3
34929,64842,5
34934,64830,5
34935,64836,5
34929,64838,5
34930,64830,4
34921,64836,5
34927,64828,5
34923,64832,5
34928,64818,5
34924,64819,4
34916,64828,5
34924,64819,5
34924,64819,5
34923,64815,5
34919,64815,4
34920,64820,5
34919,64818,5
34922,64829,5
34920,64830,4
34927,64842,5
34938,64840,4
34944,64859,5
34949,64866,5
34952,64872,6
34948,64882,3
34955,64879,5
34961,64892,5
34964,64889,5
34977,64905,4
34965,64901,5
34970,64894,5
34972,64906,5
34969,64908,5
34976,64910,4
34973,64912,5
34981,64917,5
34978,64914,5
34982,64922,5
34974,64918,4
34978,64925,5
34988,64938,5
34995,64942,5
34988,64948,4
34989,64939,4
34988,64940,6
34998,64952,4
35000,64952,5
34990,64946,4
34994,64955,5
35000,64946,5
35006,64948,5
34998,64951,5
34991,64941,4
34995,64941,5
34994,64938,5
34995,64950,5
34996,64955,5
34994,64946,4
35000,64946,5
35009,64956,5
34998,64959,5
35001,64955,5
34995,64962,4
34996,64955,5
35005,64961,5
34995,64946,5
34991,64941,4
34985,64941,5
34985,64930,5
34991,64938,6
34993,64927,4
34987,64940,4
34987,64925,5
34981,64932,5
34987,64931,5
34972,64925,5
34973,64917,4
34975,64906,5
34978,64914,5
34975,64909,5
34971,64907,5
34971,64917,4
34977,64900,5
34966,64892,5
34970,64894,5
34962,64889,5
34966,64879,4
34952,64871,5
34954,64865,5
34960,64863,5
34940,64857,5
34936,64857,4
34934,64849,5
34947,64851,5
34929,64847,6
34938,64841,3
34942,64844,5
34932,64841,5
34930,64832,5
34931,64834,5
34931,64833,4
34934,64831,5
34939,64845,5
34936,64847,5
34931,64855,5
34931,64845,4
34930,64845,5
34934,64837,5
34928,64835,5
34928,64837,4
34915,64837,4
34936,64840,5
34932,64842,5
34929,64835,5
34923,64827,4
34929,64840,6
34933,64827,4
34934,64837,5
34932,64846,5
34938,64850,4
34932,64853,5
34937,64846,5
34938,64855,5
34939,64843,5
34944,64854,4
34942,64850,5
34947,64856,5
34941,64849,5
34941,64867,5
34948,64854,4
34948,64857,5
34939,64867,5
34949,64867,5
34953,64873,4
34951,64876,4
34951,64876,5
34954,64875,5
34959,64885,5
34965,64894,4
34968,64899,5
34960,64904,6
34973,64902,4
34973,64900,5
34977,64908,4
34983,64903,5
34980,64915,5
34973,64925,5
34986,64936,5
34982,64933,4
34987,64940,5
34991,64949,5
35001,64945,5
34997,64947,5
35010,64958,4
35002,64979,5
35001,64967,5
35014,64979,5
35019,64979,4
35018,64987,5
35020,64991,5
35021,64994,5
35021,64995,5
35020,65004,4
35024,65005,5
35038,65015,5
35029,65015,6
35047,65019,4
35052,65031,4
35050,65034,5
35041,65041,5
35050,65042,5
35058,65049,5
35053,65042,4
35054,65046,5
35061,65049,5
35049,65050,5
35049,65055,5
35064,65039,4
35056,65055,5
35062,65052,5
35058,65052,5
35059,65061,4
35063,65070,5
35062,65065,5
35066,65070,5
35066,65066,5
35071,65074,5
35064,65071,4
35064,65068,5
35070,65069,5
35070,65065,5
35064,65064,4
35065,65069,5
35060,65066,5
35066,65066,5
35056,65067,5
35060,65065,4
35056,65059,5
