RED,IR,EKG,TIME
82031,150914,11
82030,150920,5
82026,150911,7
82021,150903,8
82024,150912,5
82018,150932,7
81894,150726,8
81894,150726,5
81874,150685,7
81826,150663,8
81825,150658,5
81849,150670,7
81852,150701,8
81855,150700,5
81949,150802,7
81949,150802,8
81971,150832,5
81982,150863,7
82022,150914,8
82034,150931,7
82050,150963,5
82140,151079,8
82140,151079,7
82163,151096,5
82030,150920,8
82208,151135,7
82222,151160,9
82368,151385,10
82368,151385,9
82383,151396,8
82381,151395,7
82314,151303,10
82314,151303,7
82266,151288,5
82290,151282,8
82283,151257,7
82256,151250,5
82089,151200,8
82089,151200,7
82259,151224,9
82265,151224,10
82272,151251,5
82222,151239,5
82380,151390,10
82380,151390,5
82401,151430,5
82434,151466,10
82648,151504,5
82492,151556,5
82572,151638,10
82572,151638,5
82569,151626,5
82615,151641,10
82577,151652,5
82582,151654,7
82560,151654,8
82543,151565,5
82567,151649,7
82571,151637,8
82571,151637,9
82574,151643,10
82581,151477,5
82638,151739,7
82638,151739,8
82649,151740,5
82651,151756,7
82669,151938,6
82697,151810,0
82718,151832,5
82707,151813,6
82705,152026,4
82711,151831,5
82718,151836,4
82724,151850,5
82730,151932,5
82729,151846,5
82725,151845,5
82725,151847,4
82723,151872,5
82721,151853,5
82712,151841,5
82721,151862,5
82739,151892,4
82782,151928,5
82809,151977,5
82830,152011,5
82869,152052,4
82892,152106,4
82930,152157,5
82982,152223,5
83020,152280,5
83068,152337,4
83116,152394,5
83149,152455,5
83196,152517,5
83214,152551,5
83250,152584,4
83255,152596,5
83263,152623,5
83285,152651,5
83294,152657,5
83308,152667,4
83305,152672,5
83313,152669,5
83320,152672,5
83309,152665,5
83313,152678,4
83313,152673,5
83323,152686,5
83324,152703,5
83333,152712,5
83335,152715,4
83349,152729,5
83353,152740,5
83372,152763,5
83365,152764,5
83376,152779,4
83389,152808,5
83421,152820,5
83443,152852,5
83454,152873,4
83480,152893,5
83479,152923,5
83499,152944,5
83524,152970,5
83547,153002,4
83559,153031,5
83584,153066,5
83617,153096,5
83620,153103,5
83644,153136,4
83674,153171,5
83691,153203,5
83728,153261,5
83766,153313,5
83803,153356,4
83841,153416,5
83879,153460,4
83921,153530,5
83960,153570,5
83990,153614,5
84019,153645,3
84030,153655,5
84044,153681,5
84050,153689,4
84061,153701,5
84056,153705,5
84058,153701,5
84056,153701,5
84053,153702,4
84056,153706,5
84054,153706,5
84056,153712,5
84062,153705,5
84072,153711,4
84076,153729,5
84091,153744,5
84100,153768,5
84103,153768,5
84029,153782,4
84138,153820,5
84156,153851,6
84174,153862,4
84016,153861,5
84167,153840,4
84160,153824,5
84141,153817,5
83947,153811,5
84133,153805,4
84124,153797,4
84109,153765,5
84084,153731,5
84065,153723,5
84049,153688,4
84019,153667,5
84147,153642,5
83994,153639,5
83998,153648,5
84002,153650,4
84199,153656,5
84004,153655,5
84004,153661,5
84009,153656,5
84096,153666,4
84015,153664,5
84012,153654,5
84004,153651,6
84009,153634,4
83993,153642,4
83985,153630,5
83973,153606,5
83954,153468,5
83948,153563,5
83928,153552,4
83907,153519,5
83881,153317,7
83861,153460,3
83834,153431,5
83811,153399,4
83791,153253,5
83773,153339,5
83747,153306,5
83743,153307,4
83730,153369,5
83713,153260,5
83680,153206,5
83643,153179,5
83626,153332,5
83599,153096,4
83557,153047,5
83510,152989,5
83470,153084,6
83440,152885,3
83402,152858,5
83385,152821,5
83359,152819,5
83335,152748,5
83304,152698,4
83288,152695,5
83281,152667,5
83267,152679,5
83273,152669,4
83261,152651,4
83260,152655,5
83261,152648,5
83254,152635,5
83243,152640,4
83245,152629,5
83234,152630,5
83241,152633,5
83238,152622,5
83238,152616,4
83229,152612,6
83233,152618,4
83230,152592,5
83214,152584,5
83207,152567,6
83186,152552,3
83171,152525,5
83152,152495,5
83132,152472,5
83118,152434,4
83080,152395,5
83057,152372,5
83035,152344,5
83026,152309,5
83001,152303,4
82994,152289,5
82987,152267,5
82977,152262,5
82978,152263,4
82972,152262,5
82969,152246,5
82973,152253,5
82965,152254,5
82975,152269,4
82983,152277,5
82985,152268,6
82974,152248,4
82951,152225,5
82934,152199,4
82911,152175,5
82905,152157,5
82889,152142,5
82864,152091,5
82829,152055,4
82803,152023,5
82785,151982,5
82749,151920,5
82704,151881,5
82699,151870,4
82689,151864,5
82690,151858,5
82687,151865,5
82683,151854,4
82672,151851,4
82677,151850,5
82687,151846,5
82682,151858,5
82693,151867,4
82687,151868,5
82703,151881,5
82718,151889,6
82712,151897,4
82708,151892,4
82707,151885,5
82717,151889,5
82707,151876,5
82700,151872,5
82693,151870,4
82694,151863,5
82690,151854,5
82678,151841,5
82672,151828,5
82668,151833,4
82659,151810,5
82644,151813,5
82655,151814,5
82646,151799,5
82626,151766,4
82491,151742,5
82603,151741,5
82594,151714,5
82565,151693,5
82395,151671,4
82537,151654,5
82527,151646,5
82522,151623,6
82407,151614,3
82488,151589,5
82491,151580,5
82475,151569,5
82564,151558,5
82455,151554,4
82454,151554,5
82452,151541,5
82635,151538,5
82448,151530,5
82451,151536,4
82444,151523,5
82573,151521,5
82439,151517,5
82448,151524,5
82443,151529,4
82497,151520,5
82453,151535,5
82454,151543,5
82459,151542,4
82452,151476,5
82463,151549,4
82455,151537,5
82457,151544,5
82452,151398,4
82461,151546,5
82456,151537,5
82458,151530,5
82456,151359,5
82451,151535,4
82438,151519,5
82439,151515,5
82439,151503,5
82428,151495,5
82422,151493,4
82415,151477,5
82398,151618,5
82385,151438,5
82368,151410,5
82338,151367,4
82299,151526,5
82274,151278,5
82231,151231,5
82196,151174,5
82161,151213,4
82124,151084,6
82109,151054,4
82098,151043,5
82090,151050,4
82082,151020,5
82082,151033,5
82095,151035,5
82095,151041,5
82101,151043,4
82104,151048,5
82115,151067,5
82129,151083,5
82135,151093,5
82134,151087,4
82135,151079,5
82139,151092,5
82145,151089,5
82132,151090,5
82125,151082,4
82116,151069,5
82114,151061,5
82105,151044,5
82074,151001,5
82038,150955,4
82013,150932,5
81989,150900,6
81951,150837,4
81924,150809,4
81922,150801,4
81923,150822,5
81932,150827,5
81935,150826,5
81931,150826,4
81937,150830,5
81954,150823,5
81954,150846,5
81962,150851,5
81964,150859,4
81973,150870,5
81972,150873,5
81982,150879,5
81992,150886,5
81993,150900,4
81995,150913,5
82006,150916,5
82005,150905,5
82011,150916,5
82000,150907,4
81995,150901,5
81988,150888,5
81978,150870,5
81968,150861,4
81965,150857,4
81963,150848,5
81959,150862,5
81955,150854,5
81968,150844,4
81955,150848,5
81943,150831,5
81930,150821,5
81940,150809,5
81924,150809,4
81924,150804,5
81917,150804,5
81911,150787,5
81905,150770,5
81902,150766,4
81894,150761,9
81881,150735,5
81874,150729,5
81856,150716,7
81856,150729,8
81827,150675,9
81827,150675,8
81828,150644,5
81831,150656,7
81815,150666,8
81812,150652,5
81801,150625,7
81690,150471,8
81690,150471,5
81661,150402,7
81496,150391,8
81627,150381,9
81598,150355,5
81548,150274,8
81548,150274,7
81511,150276,5
81542,150267,8
81543,150285,7
81544,150285,7
81747,150307,8
81747,150307,7
81569,150313,5
81564,150314,8
81564,150293,7
81662,150310,5
81587,150319,8
81584,150322,7
81643,150421,10
81643,150421,7
81653,150340,5
81695,150486,8
81717,150523,7
81764,150581,5
81920,150628,10
81920,150628,9
81938,150790,5
81939,150802,10
81946,150803,5
81951,150878,5
81940,150802,10
81940,150802,5
81938,150800,5
81909,150777,10
81902,150919,5
81920,150774,5
81933,150810,10
81933,150810,5
81995,150832,5
81992,150874,10
81968,150909,5
82043,150950,5
82072,150996,10
82109,151062,5
82290,151293,7
82290,151293,8
82318,151325,5
82340,151361,7
82381,151408,8
82413,151463,5
82477,151507,7
82576,151666,8
82576,151666,5
82598,151703,7
82617,151741,8
82655,151772,5
82678,151823,7
82708,151853,8
82695,151877,5
82720,151878,7
82683,151810,8
82683,151810,9
82671,151803,8
82655,151796,5
82669,151766,7
82653,151783,8
82653,151783,5
82630,151790,7
82649,151788,8
82660,151792,5
82666,151793,7
82670,151749,8
82680,151814,9
82680,151814,8
82550,151663,5
82709,151847,7
82742,151856,8
82743,151872,5
82714,151893,2
82745,151885,4
82742,151902,4
82750,151923,5
82756,151895,5
82758,151901,5
82748,151915,5
82745,151903,4
82738,151895,5
82740,151898,5
82744,151889,5
82730,151879,5
82719,151861,4
82702,151847,5
82698,151826,6
82678,151820,4
82665,151789,4
82658,151780,5
82640,151761,5
82633,151759,5
82635,151750,5
82638,151747,4
82639,151750,5
82638,151764,5
82642,151765,5
82648,151774,5
82658,151789,4
82565,151806,5
82685,151811,5
82688,151834,5
82707,151851,5
82556,151867,4
82731,151866,5
82730,151884,5
82731,151891,5
82580,151868,5
82711,151876,4
82724,151863,5
82724,151867,5
82791,151857,6
82703,151847,3
82699,151840,4
82689,151838,5
82850,151816,5
82667,151804,5
82673,151802,4
82688,151834,5
82856,151852,5
82732,151893,5
82766,151935,5
82787,151974,4
82880,152018,5
82875,152098,5
82932,152180,5
82990,152248,5
83056,152269,4
83099,152396,5
83144,152460,5
83190,152512,5
83221,152409,5
83325,152722,9
83325,152722,5
83360,152753,5
83382,152794,6
83405,152806,3
83432,152852,5
83449,152883,5
83477,152923,5
83504,153106,4
83528,153006,5
83548,153019,5
83562,153030,5
83567,153254,5
83571,153045,4
83569,153046,5
83572,153037,5
83576,153140,5
83568,153046,5
83577,153047,4
83568,153055,5
83585,153090,5
83585,153071,5
83598,153086,5
83611,153105,4
83630,153136,6
83658,153167,4
83686,153214,5
83717,153262,5
83758,153316,4
83791,153360,5
83826,153418,5
83868,153458,5
83901,153515,4
83954,153578,4
83991,153624,5
84019,153677,5
84057,153713,5
84095,153765,4
84120,153803,5
84151,153831,5
84164,153873,5
84191,153909,5
84211,153931,4
84237,153962,5
84255,153983,5
84269,154005,5
84277,154019,5
84282,154031,4
84271,154030,5
84281,154028,6
84281,154019,4
84278,154013,5
84272,154005,4
84268,154012,5
84267,153997,5
84266,154005,5
84263,154002,4
84262,154005,4
84262,154001,5
84263,154014,5
84276,154016,5
84276,154020,4
84288,154023,5
84292,154035,5
84311,154072,5
84312,154078,5
84317,154070,4
84314,154068,5
84317,154062,5
84304,154060,5
84295,154052,5
84307,154056,4
84285,154049,5
84280,154031,5
84260,154002,6
84250,153992,4
84234,153959,4
84213,153942,5
84195,153915,5
84192,153911,5
84192,153912,5
84189,153910,4
84184,153913,5
84178,153911,5
84179,153895,5
84170,153888,4
84173,153898,4
84162,153884,5
84175,153886,5
84157,153893,5
84163,153885,4
84152,153876,5
84155,153873,5
84145,153866,5
84139,153849,5
84140,153832,5
84113,153816,4
84100,153804,5
84076,153769,5
84053,153747,5
84031,153713,4
83929,153679,5
83988,153643,5
83954,153604,5
83926,153584,5
83748,153546,4
83895,153526,5
83856,153465,5
83807,153407,5
83598,153378,4
83753,153330,4
83710,153268,5
83660,153212,5
83642,153153,5
83587,153101,4
83567,153073,5
83553,153066,5
83689,153031,5
83514,153002,5
83503,152982,4
83477,152971,6
83670,152956,4
83458,152943,5
83459,152938,5
83444,152924,4
83523,152920,5
83435,152909,5
83434,152911,5
83438,152909,5
83444,152893,4
83429,152908,5
83436,152909,5
83429,152907,5
83434,152783,5
83432,152900,4
83421,152901,5
83417,152891,5
83410,152695,5
83404,152868,4
83406,152869,4
83403,152873,5
83409,152748,5
83410,152871,5
83415,152869,4
83399,152857,6
83393,152938,5
83380,152837,4
83377,152821,5
83366,152799,4
83354,152983,5
83331,152786,5
83320,152757,5
83316,152730,5
83296,152861,4
83281,152703,5
83275,152676,5
83260,152645,5
83234,152668,5
83207,152582,4
83170,152548,5
83156,152524,5
83134,152488,5
83114,152456,5
83101,152443,4
83092,152438,5
83079,152417,5
83071,152419,5
83071,152416,4
83078,152430,5
83070,152415,5
83076,152419,6
83088,152430,4
83096,152438,4
83097,152431,5
83094,152442,5
83096,152429,5
83066,152401,5
83047,152371,4
83019,152345,5
83000,152301,5
82953,152239,5
82897,152160,5
82839,152086,4
82791,152026,5
82738,151934,5
82651,151819,5
82609,151762,5
82575,151723,4
82562,151703,5
82540,151695,5
82543,151666,5
82525,151674,5
82528,151671,4
82516,151671,5
82525,151663,5
82533,151672,5
82532,151674,4
82543,151679,5
82546,151689,5
82542,151691,5
82546,151687,5
82552,151690,4
82551,151682,5
82534,151681,5
82542,151680,5
82547,151688,5
82535,151689,4
82534,151670,5
82537,151657,5
82530,151658,5
82521,151661,5
82514,151648,4
82519,151633,5
82527,151653,5
82517,151642,5
82522,151638,5
82512,151638,5
82497,151610,4
82498,151616,5
82495,151609,5
82477,151592,4
82469,151577,4
82453,151566,5
82453,151561,5
82461,151558,5
82460,151568,4
82456,151568,5
82463,151577,5
82461,151576,5
82470,151575,5
82463,151571,4
82464,151575,5
82472,151578,5
82471,151589,5
82479,151596,5
82481,151590,4
82484,151595,5
82478,151602,5
82493,151602,5
82502,151615,5
82497,151611,4
82504,151618,6
82413,151635,4
82511,151632,5
82512,151647,5
82522,151643,4
82354,151638,5
82529,151647,5
82531,151642,5
82527,151665,4
82377,151649,5
82533,151656,5
82541,151663,5
82538,151663,5
82594,151669,4
82533,151668,5
82530,151652,5
82535,151656,5
82693,151644,5
82512,151637,4
82502,151595,5
82477,151587,5
82609,151558,6
82431,151531,4
82420,151509,4
82399,151477,5
82452,151482,5
82396,151479,5
82389,151481,5
82400,151475,4
82414,151435,5
82409,151493,5
82409,151494,5
82417,151514,4
82433,151387,4
82435,151533,5
82443,151534,5
82456,151553,5
82460,151384,4
82454,151558,5
82458,151543,5
82453,151546,5
82455,151500,5
82439,151535,5
82432,151531,4
82436,151511,5
82421,151641,5
82398,151474,6
82394,151451,3
82381,151444,5
82353,151603,5
82323,151372,5
82305,151346,5
82295,151349,4
82311,151450,5
82311,151359,5
82321,151364,5
82317,151361,5
82314,151394,4
82323,151379,5
82338,151391,5
82344,151408,5
82348,151416,4
82370,151430,5
82372,151444,5
82374,151454,5
82383,151468,5
82401,151471,4
82398,151471,6
82411,151486,4
82413,151497,5
82423,151501,5
82414,151500,6
82426,151518,3
82442,151536,5
82429,151517,5
82432,151535,5
82441,151532,4
82444,151551,5
82455,151549,5
82460,151568,5
82484,151590,5
82494,151593,4
82479,151587,5
82491,151604,5
82486,151590,5
82484,151580,4
82477,151568,4
82467,151564,5
82452,151552,5
82463,151558,5
82462,151547,4
82458,151555,5
82458,151546,6
82454,151546,4
82460,151551,5
82461,151561,4
82458,151546,5
82454,151565,5
82463,151557,5
82464,151562,5
82464,151562,4
82464,151566,5
82464,151568,5
82470,151583,5
82473,151568,5
82481,151583,4
82488,151608,5
82510,151611,5
82510,151631,5
82521,151633,5
82526,151643,4
82547,151658,5
82566,151687,5
82575,151711,5
82592,151725,4
82591,151734,5
82610,151760,5
82612,151765,6
82625,151761,4
82635,151774,4
82633,151788,5
82643,151780,5
82637,151794,5
82641,151790,5
82635,151794,4
82644,151784,5
82632,151779,5
82635,151783,5
82627,151776,5
82620,151763,4
82610,151751,5
82601,151740,5
82599,151723,5
82587,151714,5
82572,151712,4
82580,151708,5
82571,151707,5
82575,151720,5
82523,151722,5
82584,151720,4
82593,151722,5
82595,151739,5
82454,151734,6
82615,151751,3
82620,151764,5
82628,151778,5
82455,151788,5
82651,151802,5
82653,151809,4
82665,151818,5
82648,151810,5
82664,151813,5
82655,151800,5
82658,151806,4
82795,151803,5
82649,151800,5
82628,151783,5
82627,151760,5
82807,151759,4
82609,151757,5
82596,151728,5
82587,151725,5
82680,151726,4
82598,151746,5
82607,151758,4
82612,151767,5
82645,151783,5
82625,151785,4
82647,151810,5
82666,151832,5
82689,151760,5
82717,151898,5
82736,151924,4
82766,151963,5
82794,151829,5
82820,152035,5
82836,152057,8
82855,152078,2
82861,151975,4
82902,152144,5
82914,152161,5
82928,152189,5
82936,152280,4
82943,152214,5
82945,152217,5
82962,152232,5
82963,152416,5
82967,152231,4
82968,152253,6
82977,152257,4
82985,152419,5
82988,152261,4
82979,152265,4
82979,152259,5
82983,152291,5
82966,152247,5
82970,152237,4
82956,152245,5
82956,152231,5
82954,152238,5
82964,152228,5
82954,152215,4
82961,152240,5
82951,152225,5
82962,152236,5
82959,152243,5
82970,152249,4
82983,152255,5
82994,152271,5
83009,152295,5
83021,152307,5
83030,152321,4
83041,152340,5
83052,152357,6
83071,152390,4
83088,152407,4
83103,152437,4
83128,152463,5
83153,152490,5
83167,152509,5
83183,152545,4
83205,152592,5
83238,152607,5
83253,152642,5
83279,152669,5
83293,152694,4
83310,152708,5
83309,152719,5
83317,152728,5
83316,152716,5
83330,152718,4
83324,152720,5
83314,152719,5
83306,152707,5
83310,152699,5
83301,152697,4
83292,152704,5
83314,152724,5
83317,152716,6
83326,152731,4
83337,152754,4
83358,152754,5
83358,152771,5
83362,152780,5
83368,152787,4
83377,152795,4
83388,152820,5
83397,152833,5
83401,152833,5
83394,152826,4
83390,152811,5
83387,152805,5
83390,152820,5
83385,152826,5
83387,152797,4
83369,152784,5
83355,152767,5
83360,152767,5
83345,152756,5
83342,152755,5
83352,152761,4
83359,152777,5
83382,152813,5
83408,152867,5
83435,152900,4
83472,152935,5
83496,152989,5
83542,153025,5
83563,153073,4
83604,153130,4
83638,153182,5
83685,153242,5
83723,153300,5
83768,153343,4
83813,153410,5
83813,153446,5
83871,153495,5
83896,153528,5
83925,153565,4
83828,153595,5
83980,153631,5
84005,153655,5
84018,153686,5
83864,153720,4
84074,153753,6
84096,153796,4
84120,153826,5
84061,153864,5
84179,153915,4
84198,153922,5
84206,153924,5
84315,153923,5
84206,153931,5
84201,153928,4
84198,153930,5
84392,153916,5
84191,153918,5
84198,153917,4
84205,153932,4
84344,153945,5
84221,153953,5
84215,153956,5
84237,153972,4
84293,154005,5
84284,154033,5
84312,154076,5
84347,154125,5
84387,154110,4
84426,154240,5
84480,154303,6
84523,154365,4
84557,154265,5
84604,154478,4
84649,154551,5
84703,154618,5
84748,154497,5
84782,154734,5
84811,154781,4
84848,154819,5
84875,154864,5
84892,154872,5
84918,154893,4
84910,154908,4
84919,155076,5
84922,154919,5
84922,154914,5
84922,154916,4
84925,155125,5
84915,154904,5
84920,154899,5
84911,154895,6
84893,154973,3
84916,154897,5
84898,154902,5
84914,154904,5
84918,154918,5
84919,154910,4
84915,154910,5
84917,154914,5
84925,154927,5
84941,154952,5
84973,154991,4
84998,155009,5
84995,155025,5
84995,155028,5
85001,155017,5
84996,155009,4
85003,155022,5
84995,155013,5
84993,155002,5
84979,154992,4
84969,154987,4
84961,154975,5
84958,154971,5
84942,154958,5
84960,154970,5
84977,155008,4
85004,155049,5
85047,155106,5
85086,155156,5
85129,155203,4
85166,155265,5
85227,155348,5
85273,155416,5
85316,155481,5
85359,155547,4
85411,155606,5
85443,155654,5
85480,155690,5
85505,155723,5
85525,155759,4
85539,155776,5
85564,155809,5
85579,155812,5
85592,155833,4
85610,155855,4
85610,155857,6
85614,155873,4
85608,155866,5
85605,155877,4
85609,155873,6
85604,155873,3
85605,155870,5
85605,155868,5
85599,155834,4
85580,155840,5
85582,155821,5
85558,155794,5
85542,155769,5
85522,155760,4
85513,155735,5
85502,155727,5
85502,155721,5
85485,155705,5
85469,155692,4
85442,155656,5
85429,155631,5
85399,155608,5
85373,155574,5
85359,155549,4
85348,155528,5
85325,155514,6
85312,155492,4
85317,155477,4
85295,155471,4
85288,155456,5
85278,155438,5
85268,155424,5
85270,155428,4
85257,155406,5
85240,155384,5
85227,155378,5
85201,155349,5
85184,155314,4
85149,155271,5
85122,155229,5
85008,155181,5
85048,155133,5
85012,155074,4
84950,155000,5
84741,154939,5
84835,154850,5
84788,154777,5
84732,154705,4
84511,154655,5
84656,154596,5
84612,154544,6
84584,154491,4
84564,154458,4
84532,154428,5
84510,154403,5
84487,154374,5
84616,154351,4
84441,154326,5
84428,154306,5
84426,154295,5
84620,154289,5
84397,154256,4
84356,154191,5
84304,154116,5
84333,154046,5
84196,153980,5
84149,153922,4
84113,153853,5
84046,153751,5
83967,153677,5
83912,153614,5
83857,153511,5
83771,153286,4
83700,153325,5
83665,153264,5
83641,153237,6
83628,153059,3
83613,153196,5
83590,153167,5
83567,153142,5
83554,152994,4
83547,153102,4
83546,153086,5
83525,153092,5
83521,153165,5
83513,153066,4
83499,153059,5
83498,153035,5
83473,153208,5
83460,152993,5
83442,152958,4
83421,152920,5
83412,153051,5
83375,152871,5
83359,152845,5
83326,152818,4
83306,152845,6
83290,152761,4
83285,152744,5
83275,152730,5
83249,152714,6
83251,152706,3
83242,152688,5
83213,152641,5
83180,152614,5
83180,152600,4
83158,152573,5
83137,152545,5
83117,152525,5
83099,152502,4
83093,152492,4
83094,152494,5
83087,152476,5
83090,152472,5
83081,152471,4
83070,152462,5
83069,152465,5
83078,152467,5
83086,152466,5
83075,152466,4
83077,152468,5
83083,152475,6
83090,152473,4
83091,152469,5
83094,152480,4
83096,152483,5
83101,152497,5
83095,152482,5
83099,152491,5
83106,152494,4
83105,152492,5
83110,152492,5
83110,152497,5
83102,152502,4
83108,152496,4
83103,152505,5
83110,152507,5
83109,152490,5
83108,152500,4
83102,152487,5
83094,152485,5
83083,152473,5
83079,152466,5
83064,152451,4
83039,152423,5
83016,152378,5
82997,152346,6
82968,152325,4
82946,152291,4
82933,152279,5
82927,152256,5
82910,152234,5
82899,152218,5
82892,152224,4
82899,152227,5
82900,152218,5
82902,152217,5
82906,152228,5
82911,152223,4
82914,152246,5
82926,152256,5
82929,152248,5
82930,152257,4
82932,152260,4
82932,152263,5
82920,152249,5
82912,152236,5
82897,152225,5
82892,152220,4
82883,152198,5
82869,152162,5
82820,152109,6
82800,152092,3
82787,152063,5
82745,152001,5
82716,151952,5
82706,151945,5
82688,151948,4
82700,151951,5
82714,151963,5
82720,151957,5
82590,151969,5
82717,151970,4
82728,151978,5
82732,151990,5
82569,152000,5
82756,152008,5
82760,152026,4
82761,152018,5
82668,152028,5
82779,152035,5
82771,152043,4
82777,152056,6
82869,152040,4
82777,152044,5
82776,152034,5
82765,152032,4
82963,152028,5
82769,152033,5
82776,152040,5
82772,152042,5
82912,152049,4
82780,152047,5
82781,152058,5
82801,152065,5
82836,152063,5
82796,152065,4
82794,152057,5
82791,152057,5
82787,151976,5
82786,152042,5
82773,152032,4
82778,152033,5
82759,151868,5
82768,152024,5
82765,152017,4
82755,152016,4
82760,151836,11
82760,152016,4
82754,152010,5
82760,152015,4
82764,152040,5
82768,152025,5
82780,152034,5
82779,152055,4
82785,152211,5
82786,152073,5
82794,152058,5
82808,152074,5
82808,152277,4
82813,152091,5
82818,152103,5
82819,152112,5
82827,152184,5
82827,152103,4
82830,152101,5
82825,152104,5
82826,152119,5
82830,152102,5
82825,152103,4
82828,152104,5
82827,152106,6
82818,152096,4
82817,152092,4
82817,152099,5
82815,152099,5
82813,152097,5
82820,152090,5
82808,152084,4
82801,152076,5
82791,152066,5
82792,152062,5
82782,152052,5
82772,152043,4
82753,152021,5
82743,151988,5
82722,151970,5
82708,151936,5
82682,151915,4
82670,151882,5
82648,151863,5
82622,151837,5
82620,151820,5
82622,151832,4
82621,151835,5
82623,151834,5
82620,151830,5
82634,151839,4
82632,151837,4
82647,151855,5
82649,151856,5
82669,151885,5
82681,151905,4
82686,151919,5
82691,151919,5
82709,151936,5
82706,151930,5
82706,151939,4
82700,151922,5
82699,151918,5
82700,151922,5
82690,151905,5
82686,151909,4
82677,151881,5
82648,151852,5
82634,151852,5
82631,151843,5
82626,151831,5
82607,151804,4
82610,151813,5
82612,151812,5
82633,151834,5
82646,151854,4
82642,151853,5
82648,151857,5
82655,151867,5
82658,151885,4
82685,151903,5
82702,151920,5
82727,151967,5
82760,151991,5
82767,152039,4
82799,152069,5
82824,152092,5
82851,152137,5
82856,152159,5
82876,152170,4
82893,152176,5
82893,152192,5
82897,152192,5
82902,152194,5
82902,152195,4
82915,152206,6
82913,152207,4
82914,152216,5
82930,152240,5
82934,152252,4
82952,152267,5
82880,152277,5
82979,152291,5
82965,152278,4
82969,152282,4
82810,152286,5
82959,152281,5
82955,152276,5
82944,152263,4
82766,152257,5
82948,152254,5
82945,152261,5
82949,152249,5
82967,152251,4
82939,152241,5
82936,152252,5
82933,152249,5
83109,152249,5
82947,152252,4
82953,152263,5
82958,152275,6
83147,152281,4
82979,152285,5
82982,152310,4
82997,152331,5
83085,152341,5
83029,152368,5
83048,152402,5
83074,152421,4
83097,152419,5
83093,152476,5
83132,152482,5
83125,152498,4
83130,152385,4
83141,152522,5
83155,152537,5
83155,152532,5
83162,152365,4
83171,152545,5
83166,152546,5
83175,152570,5
83167,152473,5
83174,152566,4
83172,152565,5
83166,152550,5
83174,152651,5
83159,152538,5
83157,152530,4
83140,152510,5
83137,152694,5
83117,152484,5
83117,152482,5
83108,152465,4
83103,152591,5
83099,152461,5
83092,152472,5
83097,152458,4
83093,152496,4
83093,152453,5
83110,152463,5
83121,152480,5
83124,152496,4
83136,152501,5
83140,152520,4
83157,152539,5
83176,152549,5
83175,152558,6
83177,152560,3
83172,152547,5
83164,152542,5
83149,152528,5
83134,152518,4
83137,152482,5
83115,152463,5
83085,152431,5
83055,152396,5
83043,152385,4
83028,152358,5
83001,152314,5
82983,152307,5
82982,152314,5
82991,152312,4
83011,152338,5
83018,152357,5
83017,152360,5
83028,152379,4
83043,152393,4
83059,152416,6
83082,152438,4
83089,152457,5
83108,152485,4
83120,152499,7
83134,152510,3
83140,152534,5
83154,152528,5
83161,152534,4
83155,152531,5
83155,152532,5
83161,152533,5
83158,152541,5
83164,152540,4
83172,152559,5
83168,152563,5
83176,152559,5
83180,152566,5
83179,152572,4
83180,152580,5
83185,152577,5
83195,152579,5
83188,152581,4
83182,152568,4
83162,152561,5
83165,152550,6
83158,152544,4
83156,152528,4
83150,152529,5
83143,152524,5
83138,152512,5
83149,152504,5
83133,152504,4
83126,152494,5
83131,152497,5
83129,152501,5
83134,152509,5
83135,152501,4
83138,152516,5
83147,152527,5
83154,152535,5
83165,152541,5
83178,152562,4
83189,152577,5
83205,152609,5
83231,152638,5
83246,152664,5
83260,152682,4
83269,152711,5
83289,152717,5
83291,152730,6
83257,152734,3
83307,152738,4
83316,152739,5
83313,152759,5
83192,152775,5
83329,152782,4
83334,152799,5
83352,152797,5
83164,152809,5
83358,152802,5
83345,152802,4
83344,152798,5
83286,152798,5
83331,152770,5
83329,152771,5
83321,152764,4
83440,152746,5
83311,152747,5
83310,152751,5
83314,152765,5
83513,152768,5
83328,152786,4
83339,152783,5
83351,152795,5
83465,152807,6
83356,152808,3
83352,152818,5
83364,152817,5
83398,152818,5
83371,152828,4
83367,152810,5
83352,152803,5
83346,152693,5
83343,152805,5
83331,152793,4
83321,152776,5
83323,152590,5
83307,152735,5
83288,152727,5
83283,152720,4
83291,152544,5
83282,152706,5
83286,152712,5
83295,152725,5
83308,152812,4
83328,152781,6
83342,152796,4
83352,152821,5
83388,153027,5
83401,152882,4
83420,152920,5
83446,152942,5
83478,153161,5
83489,153011,4
83517,153030,4
83525,153063,5
83539,153136,5
83561,153072,5
83555,153088,4
83557,153093,5
83549,153095,5
83545,153077,5
83543,153064,5
83542,153072,4
83540,153066,5
83545,153085,5
83549,153085,5
83550,153081,5
83562,153098,4
83566,153105,5
83570,153109,6
83566,153126,4
83572,153114,5
83572,153110,4
83561,153116,5
83566,153102,5
83561,153087,5
83555,153093,4
83563,153096,4
83565,153097,5
83567,153100,5
83565,153096,5
83560,153102,4
83566,153110,5
83579,153108,5
83584,153121,5
83590,153133,5
83603,153161,4
83601,153164,5
83633,153180,5
83648,153217,5
83682,153272,5
83725,153329,4
83773,153397,5
83806,153449,5
83854,153494,6
83889,153546,4
83923,153589,4
83948,153643,5
83976,153664,5
84001,153708,5
84038,153749,5
84059,153785,4
84080,153803,5
84085,153824,5
84107,153861,5
84135,153891,4
84152,153900,5
84163,153926,5
84160,153912,5
84158,153909,5
84165,153914,4
84168,153929,5
84169,153926,5
84173,153920,5
84179,153949,5
84187,153959,5
84196,153976,4
84225,154004,5
84237,154026,5
84264,154060,5
84306,154122,4
84366,154203,5
84427,154278,5
84476,154344,5
84534,154417,5
84564,154462,4
84580,154470,5
84585,154474,5
84596,154505,5
84598,154512,4
84601,154506,4
84580,154477,5
84566,154473,5
84573,154477,5
84565,154476,4
84565,154468,5
84560,154475,5
84599,154490,5
84620,154537,5
84649,154584,4
84549,154621,6
84719,154671,4
84758,154727,5
84795,154803,5
84670,154859,4
84901,154930,5
84942,154987,5
84983,155052,5
84923,155099,5
85058,155141,4
85081,155168,5
85087,155187,5
85192,155191,5
85106,155198,4
85112,155199,4
85115,155209,5
85312,155204,5
85109,155209,5
85102,155197,4
85103,155199,5
85226,155191,5
85092,155199,5
85100,155190,5
85092,155183,4
85140,155184,5
85082,155178,6
85073,155165,4
85073,155156,5
85053,155049,4
85046,155103,5
85024,155078,5
84995,155050,5
84967,154855,5
84941,155001,4
84927,154970,5
84916,154946,5
84900,154736,5
84870,154888,5
84852,154867,8
84842,154851,1
84823,154867,5
84828,154835,5
84812,154809,4
84799,154786,4
84799,154971,5
84787,154778,5
84787,154788,6
84783,154786,3
84782,154989,5
84790,154796,5
84781,154778,7
84770,154770,3
84768,154837,4
84756,154746,5
84743,154713,5
84714,154696,5
84700,154673,5
84677,154617,4
84646,154577,5
84605,154529,5
84558,154477,5
84523,154420,5
84480,154370,4
84452,154327,5
84427,154284,5
84402,154245,5
84371,154219,4
84341,154190,4
84343,154168,5
84325,154157,5
84315,154134,5
84301,154125,5
84288,154110,4
84274,154098,5
84263,154066,5
84253,154064,5
84246,154057,4
84253,154058,5
84252,154058,5
84226,154018,5
84195,153978,5
84167,153950,4
84149,153918,5
84126,153900,5
84109,153854,5
84048,153790,5
83991,153724,4
83968,153678,5
83937,153623,5
83866,153549,5
83836,153497,5
83809,153474,4
83796,153467,5
83807,153468,5
83803,153458,5
83794,153455,4
83785,153445,6
83781,153442,4
83788,153446,5
83793,153445,5
83787,153451,4
83797,153462,5
83790,153458,5
83798,153463,5
83806,153473,5
83799,153468,4
83802,153460,5
83809,153457,5
83802,153454,5
83790,153449,5
83793,153457,4
83791,153453,5
83785,153441,5
83790,153437,5
83782,153442,5
83778,153443,4
83785,153425,5
83768,153425,5
83775,153428,5
83772,153427,4
83746,153390,4
83734,153366,6
83721,153346,4
83701,153332,5
83700,153317,4
83672,153278,5
83640,153243,5
83620,153226,5
83616,153201,5
83606,153199,4
83596,153187,5
83585,153157,5
83571,153146,5
83554,153114,5
83535,153101,4
83537,153103,5
83539,153090,5
83426,153103,5
83539,153094,5
83528,153094,4
83528,153082,5
83360,153090,5
83527,153078,5
83522,153081,4
83518,153075,4
83373,153071,5
83520,153075,5
83509,153054,5
83501,153058,4
83566,153046,5
83488,153035,5
83489,153022,5
83465,153017,5
83644,153009,4
83454,152997,5
83444,152982,5
83446,152960,5
83582,152954,5
83425,152944,4
83422,152937,5
83410,152923,5
83451,152912,5
83381,152897,5
83364,152879,5
83354,152852,4
83339,152772,5
83306,152790,5
83281,152739,6
83244,152697,3
83209,152498,5
83158,152573,5
83110,152519,5
83068,152452,4
83022,152202,4
82968,152319,5
82940,152270,5
82913,152239,5
82900,152201,4
82892,152234,5
82914,152231,5
82910,152240,5
82902,152367,5
82917,152245,4
82922,152253,5
82927,152258,5
82933,152470,5
82945,152281,5
82963,152288,4
82968,152310,6
82977,152417,4
82970,152317,5
82961,152320,5
82981,152324,6
82970,152333,3
82965,152291,5
82945,152283,5
82940,152264,5
82915,152245,4
82890,152200,5
82841,152133,5
82809,152099,5
82792,152078,4
82748,152006,5
82708,151954,5
82690,151939,5
82687,151927,5
82682,151940,4
82685,151928,5
82689,151933,5
82694,151936,5
82685,151931,5
82685,151941,4
82699,151942,5
82711,151960,6
82715,151969,4
82717,151975,5
82713,151971,4
82719,151986,5
82740,151995,5
82753,152011,5
82754,152013,5
82757,152023,4
82770,152040,5
82764,152047,5
82775,152042,5
82769,152029,4
82768,152039,4
82774,152035,5
82776,152041,5
82773,152041,5
82777,152050,4
82774,152051,5
82788,152058,5
82794,152075,5
82797,152069,5
82794,152055,4
82785,152060,5
82788,152064,5
82789,152063,6
82783,152060,4
82785,152054,4
82771,152052,5
82774,152054,5
82787,152051,5
82776,152057,5
82786,152051,4
82775,152042,5
82758,152028,5
82768,152033,5
82764,152021,4
82758,152019,4
82752,152027,5
82763,152031,5
82766,152028,5
82766,152023,4
82768,152038,5
82766,152038,5
82784,152053,5
82785,152053,5
82784,152063,5
82791,152056,4
82799,152079,5
82794,152070,5
82805,152090,6
82811,152083,3
82806,152087,5
82804,152084,5
82813,152087,5
82807,152088,5
82803,152085,4
82812,152079,5
82797,152080,5
82800,152089,5
82805,152083,5
82710,152082,4
82797,152078,5
82793,152074,5
82786,152068,5
82626,152058,4
82791,152056,4
82790,152053,5
82775,152056,5
82597,152044,5
82767,152031,4
82758,152015,6
82743,152004,4
82762,151991,5
82721,151972,5
82718,151967,4
82698,151945,5
82847,151927,5
82684,151924,5
82665,151907,5
82664,151919,4
82853,151926,5
82677,151920,5
82691,151931,5
82697,151951,5
82774,151952,4
82713,151982,5
82738,152001,5
82739,152010,5
82772,151998,4
82772,152036,4
82790,152067,5
82806,152093,5
82820,151968,5
82818,152095,4
82830,152102,5
82828,152119,6
82830,151935,4
82824,152102,5
82825,152111,5
82827,152099,4
82817,152013,5
82809,152060,5
82779,152041,5
82771,152030,4
82758,152127,5
82731,151998,5
82729,151979,5
82739,151986,5
82733,152187,4
82752,152007,5
82755,152019,5
82766,152030,5
82786,152193,5
82791,152078,4
82822,152109,5
82846,152147,5
82882,152217,5
82907,152219,4
82936,152262,4
82954,152305,5
82991,152330,6
83014,152360,4
83030,152378,4
83040,152405,5
83064,152427,5
83057,152448,5
83072,152445,5
83090,152459,4
83093,152468,5
83098,152479,5
83115,152487,5
83121,152505,5
83134,152528,4
83134,152532,5
83152,152544,5
83174,152563,5
83179,152587,5
83178,152583,4
83173,152587,5
83184,152583,5
83176,152588,5
83180,152575,5
83173,152563,4
83161,152563,5
83171,152576,5
83161,152573,5
83169,152563,4
83176,152569,5
83171,152570,5
83169,152570,5
83171,152578,5
83171,152580,4
83181,152573,5
83185,152585,5
83196,152611,5
83210,152621,5
83217,152636,4
83224,152644,5
83232,152654,5
83244,152672,5
83262,152693,5
83283,152725,4
83300,152735,5
83304,152746,5
83309,152767,5
83311,152768,5
83327,152779,5
83330,152769,4
83324,152773,5
83322,152770,5
83314,152770,4
83317,152756,5
83305,152761,5
83309,152758,5
83304,152758,5
83305,152754,4
83304,152760,5
83312,152761,5
83311,152765,5
83296,152747,5
83287,152740,4
83293,152739,5
83279,152719,5
83274,152702,5
83265,152681,5
83237,152662,4
83223,152638,5
83209,152626,5
83197,152610,5
83184,152595,5
83177,152592,4
83182,152607,6
83188,152610,4
83194,152608,5
83203,152620,4
83215,152639,4
83225,152659,5
83194,152669,5
83261,152688,5
83268,152700,4
83285,152720,5
83168,152752,5
83312,152776,5
83329,152771,5
83320,152774,4
83160,152782,5
83321,152776,5
83326,152775,5
83319,152776,5
83268,152761,4
83308,152741,5
83288,152719,5
83266,152701,5
83407,152706,5
83276,152703,4
83271,152699,5
83266,152696,6
83473,152714,4
83286,152745,4
83314,152768,4
83331,152792,5
83458,152821,5
83378,152866,5
83414,152916,4
83456,152958,5
83513,153006,5
83538,153061,5
83570,153120,5
83609,153168,4
83637,153109,5
83670,153260,5
83703,153289,5
83729,153324,5
83751,153203,4
83778,153397,5
83788,153428,5
83813,153443,5
83822,153303,5
83834,153490,4
83846,153500,5
83865,153512,5
83875,153587,5
83883,153541,6
83884,153542,3
83905,153566,5
83915,153760,5
83919,153571,5
83906,153557,4
83901,153551,4
83896,153728,5
83878,153531,5
83864,153502,5
83851,153490,4
83839,153551,5
83844,153485,5
83836,153491,5
83824,153481,5
83837,153477,4
83834,153478,5
83830,153483,5
83843,153488,5
83857,153499,5
83863,153522,5
83879,153534,4
83900,153570,5
83912,153596,5
83929,153603,5
83955,153653,4
83975,153675,5
84000,153718,5
84035,153749,5
84054,153793,4
84083,153827,4
84104,153854,5
84126,153886,5
84149,153900,5
84159,153915,4
84163,153924,5
84179,153945,5
84187,153956,5
84198,153961,5
84192,153975,4
84200,153973,5
84202,153978,5
84206,153977,4
84210,153985,5
84200,153971,4
84207,153983,6
84208,153977,4
84200,153973,5
84191,153965,5
84192,153968,4
84193,153948,5
84175,153958,5
84189,153960,5
84192,153960,5
84193,153969,4
84198,153979,5
84209,153991,5
84220,154000,5
84225,154010,4
84240,154035,5
84252,154053,5
84276,154083,5
84299,154108,5
84317,154142,4
84353,154177,5
84381,154233,5
84417,154266,6
84434,154276,4
84455,154320,4
84465,154319,5
84463,154319,5
84471,154338,5
84475,154323,5
84465,154322,4
84448,154306,5
84434,154298,5
84439,154304,5
84444,154286,5
84436,154286,4
84440,154305,5
84447,154323,5
84480,154368,5
84518,154401,4
84551,154437,4
84570,154486,5
84601,154519,5
84624,154570,5
84656,154595,5
84695,154657,4
84735,154694,5
84763,154745,5
84806,154806,6
84822,154826,3
84861,154856,5
84878,154891,5
84893,154915,5
84784,154932,5
84918,154957,4
84939,154987,5
84963,155004,5
84803,155021,5
84992,155053,5
84998,155067,4
85017,155081,5
84894,155115,5
85037,155120,5
85050,155143,5
85067,155153,4
85167,155169,5
85088,155170,5
85099,155199,5
85111,155202,4
85298,155200,5
85105,155200,4
85104,155188,5
85098,155192,5
85251,155190,6
85086,155173,3
85072,155160,5
85059,155133,5
85107,155113,5
85037,155100,4
85021,155095,5
85017,155077,5
85018,155013,5
85008,155071,5
85015,155077,4
85012,155059,5
85003,154917,5
85010,155072,5
85009,155084,5
85013,155080,4
85024,154916,5
85034,155094,5
85034,155108,5
85034,155104,4
85030,155062,4
85013,155079,6
85008,155070,4
84997,155042,5
84975,155178,4
84958,155012,5
84929,154961,5
84891,154931,5
84857,155086,5
84819,154811,4
84770,154751,5
84722,154692,5
84660,154719,5
84615,154541,5
84572,154488,4
84531,154429,5
84487,154416,5
84466,154345,5
84427,154307,5
84388,154242,4
84350,154200,5
84318,154147,5
84272,154093,5
84235,154046,5
84205,153995,4
84174,153955,5
84130,153910,6
84099,153865,4
84053,153799,4
84003,153719,4
83933,153631,5
83881,153558,5
83832,153488,5
83790,153436,4
83735,153349,5
83654,153249,5
83593,153169,5
83558,153113,5
83504,153039,4
83445,152964,5
83395,152912,5
83382,152887,5
83373,152888,5
83367,152876,4
83367,152859,5
83353,152854,5
83352,152848,5
83358,152855,5
83354,152854,4
83353,152845,5
83353,152861,5
83358,152867,6
83369,152868,3
83370,152869,4
83360,152869,5
83373,152872,5
83375,152876,5
83365,152881,4
83367,152855,5
83370,152875,5
83372,152862,5
83367,152863,5
83359,152857,4
83348,152855,5
83365,152857,5
83362,152864,5
83356,152842,5
83359,152854,4
83361,152865,5
83370,152856,5
83357,152852,5
83360,152851,5
83349,152840,5
83348,152839,4
83352,152831,5
83336,152816,5
83315,152794,5
83314,152791,4
83321,152796,5
83323,152797,5
83315,152804,5
83315,152807,4
83331,152809,5
83326,152800,5
83325,152816,5
83332,152812,5
83336,152832,4
83351,152835,5
83349,152834,5
83352,152845,5
83353,152836,5
83349,152844,4
83359,152837,5
83355,152853,5
83365,152859,5
83381,152868,5
83380,152874,4
83313,152871,6
83394,152880,4
83393,152876,5
83395,152879,5
83231,152894,4
83382,152890,5
83391,152889,5
83395,152880,5
83210,152884,4
83394,152887,4
83385,152892,5
83393,152885,5
83383,152874,5
83376,152859,4
83357,152851,5
83340,152836,5
83481,152799,5
83298,152767,5
83266,152737,4
83254,152713,5
83436,152706,5
83233,152691,5
83234,152683,5
83235,152683,4
83321,152694,5
83232,152687,6
83243,152689,4
83244,152694,5
83262,152696,4
83248,152707,5
83261,152712,5
83258,152711,5
83274,152610,5
83268,152738,4
83275,152746,5
83280,152733,5
83278,152556,5
83269,152722,4
83265,152715,5
83254,152708,5
83243,152571,5
83238,152675,5
83213,152639,5
83171,152588,4
83145,152653,5
83127,152536,5
83103,152484,5
83056,152428,4
83038,152603,5
83036,152428,5
83041,152429,6
83053,152439,4
83045,152581,4
83046,152435,5
83045,152438,5
83048,152450,5
83060,152497,5
83065,152459,4
83062,152457,5
83066,152445,5
83069,152450,5
83064,152454,4
83055,152449,4
83051,152443,5
83056,152435,5
83044,152435,5
83045,152423,4
83027,152410,5
83014,152406,5
83014,152375,5
83004,152364,5
82987,152348,5
82976,152342,4
82959,152311,5
82947,152296,5
82941,152285,5
82940,152281,4
82942,152273,5
82934,152270,5
82912,152244,5
82909,152234,5
82900,152216,4
82886,152207,5
82883,152202,5
82853,152178,5
82856,152161,5
82848,152163,4
82847,152153,5
82845,152142,5
82835,152138,5
82830,152127,4
82819,152116,4
82816,152129,5
82829,152125,5
82826,152121,5
82832,152120,4
82826,152132,6
82839,152136,4
82835,152133,5
82839,152142,5
82843,152154,4
82844,152170,5
82858,152169,5
82853,152171,5
82872,152180,5
82882,152196,4
82878,152200,5
82885,152204,5
82885,152205,5
82886,152220,5
82900,152232,4
82908,152234,5
82918,152243,5
82930,152272,5
82956,152292,5
82982,152328,4
83000,152349,5
83022,152381,5
83048,152422,5
83068,152452,4
83083,152469,5
83096,152484,6
83113,152503,4
83115,152507,5
83111,152507,4
83121,152517,5
83117,152507,5
83111,152495,5
83100,152489,5
83100,152475,4
83080,152468,5
83086,152469,5
83086,152458,5
83089,152468,5
83098,152469,4
83100,152473,5
83095,152487,5
83097,152501,5
83114,152505,5
83134,152524,4
83140,152537,5
83026,152549,5
83156,152564,5
83188,152608,4
83217,152633,4
83061,152661,5
83252,152672,5
83252,152687,5
83271,152692,4
83160,152701,5
83262,152698,5
83262,152703,5
83253,152703,5
83359,152698,4
83255,152680,5
83230,152648,5
83216,152642,5
83407,152635,5
83204,152614,4
83177,152588,5
83171,152570,5
83301,152588,5
83170,152594,5
83180,152603,5
83191,152605,4
83225,152605,5
83196,152609,5
83199,152612,6
83185,152624,3
83209,152563,5
83207,152643,5
83208,152638,5
83213,152627,4
83204,152473,4
83186,152621,5
83201,152606,5
83188,152610,5
83184,152418,4
83191,152604,5
83187,152607,5
83189,152611,5
83185,152607,5
83190,152609,4
83181,152606,5
83192,152602,9
83184,152768,1
83198,152625,5
83201,152610,4
83207,152642,6
83224,152862,4
83241,152686,5
83256,152678,5
83249,152693,6
83255,152790,3
83267,152712,5
83266,152702,5
83263,152704,4
83253,152720,4
83256,152705,5
83262,152702,5
83263,152703,5
83266,152711,4
83268,152720,5
83280,152735,5
83292,152752,5
83310,152771,5
83339,152805,4
83367,152844,5
83388,152890,5
83431,152922,5
83445,152948,5
83462,152979,4
83486,153010,5
83487,153015,6
83496,153019,4
83511,153034,5
83509,153047,4
83516,153049,5
83522,153053,5
83531,153056,5
83524,153054,5
83505,153049,4
83515,153049,5
83507,153046,5
83502,153019,5
83479,152995,4
83458,152977,4
83440,152955,5
83418,152921,5
83402,152902,5
83383,152864,4
83353,152840,5
83340,152822,5
83332,152806,5
83332,152809,5
83327,152795,4
83324,152791,5
83323,152798,5
83314,152797,6
83323,152809,4
83337,152820,4
83343,152815,5
83344,152836,5
83371,152862,5
83378,152886,5
83422,152925,4
83447,152976,5
83466,153000,5
83490,153031,5
83508,153060,5
83523,153056,4
83527,153070,5
83551,153095,5
83548,153113,5
83564,153114,4
83545,153102,5
83561,153104,5
83564,153123,5
83563,153125,5
83572,153140,5
83591,153157,4
83624,153217,5
83676,153295,5
83730,153367,6
83793,153448,3
83853,153509,5
83893,153587,5
83948,153673,5
84003,153738,5
84063,153828,4
84126,153905,5
84182,153976,5
84231,154049,5
84277,154119,5
84304,154150,4
84332,154189,5
84361,154207,5
84375,154227,5
84320,154250,4
84403,154262,4
84413,154271,5
84413,154287,5
84285,154298,5
84438,154307,4
84450,154311,6
84453,154322,4
84265,154336,5
84459,154331,5
84474,154367,6
84487,154355,3
84446,154353,5
84468,154343,5
84476,154342,5
84463,154337,4
84592,154315,5
84436,154302,5
84425,154294,5
84418,154292,5
84609,154277,4
84410,154257,5
84409,154262,5
84394,154261,5
84500,154258,5
84403,154273,4
84415,154259,5
84409,154259,5
84431,154269,5
84407,154262,4
84397,154257,4
84403,154255,6
84395,154143,4
84393,154234,5
84375,154231,4
84375,154226,5
84362,154030,5
84339,154178,5
84329,154153,5
84309,154125,4
84282,153927,5
84247,154045,5
84211,153990,5
84166,153934,5
84117,153951,4
84076,153817,5
84028,153744,5
83957,153666,5
83906,153785,5
83857,153506,4
83791,153433,5
83736,153357,5
83684,153457,5
83652,153239,4
83603,153185,4
83561,153145,5
83535,153145,6
83507,153061,4
83474,153007,4
83442,152985,5
83417,152940,5
83382,152875,5
83347,152823,5
83316,152800,4
83281,152754,5
83270,152716,5
83224,152668,5
83178,152596,5
83127,152528,4
83079,152466,5
83034,152417,5
82999,152367,5
82972,152319,5
82923,152250,4
82870,152178,5
82838,152139,5
82814,152108,5
82767,152051,5
82728,151991,4
82703,151970,5
82699,151969,5
82691,151965,6
82701,151973,3
82695,151953,4
82681,151938,5
82687,151936,5
82688,151942,5
82686,151948,4
82701,151963,5
82711,151970,5
82721,151988,5
82736,152010,5
82756,152029,4
82767,152060,5
82784,152073,5
82797,152097,5
82810,152112,5
82824,152130,4
82835,152126,5
82837,152134,5
82837,152135,5
82834,152137,5
82846,152134,5
82840,152131,4
82833,152129,5
82829,152142,5
82843,152143,4
82842,152137,4
82835,152134,5
82830,152129,5
82829,152115,5
82816,152120,4
82814,152120,5
82817,152109,5
82810,152103,5
82815,152113,5
82820,152117,4
82828,152115,5
82818,152117,5
82832,152120,5
82838,152136,5
82844,152153,4
82857,152175,5
82877,152194,5
82901,152217,5
82908,152252,5
82930,152266,4
82960,152294,6
82970,152315,4
82997,152351,5
83002,152374,5
83024,152399,4
83046,152418,5
83064,152446,5
83083,152469,5
83098,152491,4
83109,152504,4
83112,152529,5
83134,152549,5
83156,152571,5
83172,152587,4
83063,152589,5
83181,152593,5
83193,152610,5
83194,152621,5
83018,152622,4
83198,152627,5
83196,152614,5
83186,152623,5
83076,152619,5
83189,152631,4
83208,152632,5
83216,152648,6
83317,152672,4
83261,152703,5
83273,152731,4
83297,152743,5
83508,152769,5
83333,152793,5
83341,152820,4
83348,152840,4
83507,152857,5
83386,152873,5
83407,152884,5
83395,152890,4
83435,152883,5
83388,152881,5
83385,152879,5
83382,152866,5
83382,152817,4
83362,152852,5
83365,152850,5
83370,152853,5
83367,152706,5
83355,152828,4
83352,152818,5
83350,152815,5
83347,152651,5
83366,152849,5
83369,152860,5
83372,152879,4
83393,152872,5
83407,152918,5
83422,152931,5
83449,152972,4
83482,153156,5
83517,153047,5
83541,153094,5
83563,153114,4
83585,153350,4
83603,153169,5
83605,153179,5
83616,153190,5
83612,153279,4
83618,153191,5
83620,153189,5
83620,153185,5
83627,153208,5
83632,153193,5
83613,153196,4
83625,153185,5
83624,153188,5
83618,153192,5
83619,153191,4
83620,153193,5
83612,153181,5
83606,153173,5
83612,153180,5
83603,153179,4
83595,153158,5
83595,153145,5
83571,153133,5
83577,153124,4
83572,153122,4
83562,153115,5
83559,153112,5
83549,153094,5
83540,153079,4
83534,153078,5
83528,153067,5
83529,153073,5
83531,153072,5
83535,153074,4
83526,153076,6
83531,153074,4
83525,153077,5
83530,153079,5
83528,153063,4
83521,153063,5
83532,153078,5
83528,153079,5
83531,153077,5
83530,153073,4
83530,153071,5
83531,153068,5
83526,153066,5
83521,153069,5
83519,153062,4
83515,153052,5
83516,153039,5
83512,153052,5
83503,153031,4
83492,153017,4
83475,152992,5
83452,152977,5
83436,152945,5
83423,152931,4
83382,152886,5
83353,152844,6
83337,152815,4
83319,152789,5
83310,152777,4
83299,152766,5
83290,152753,5
83285,152766,5
83276,152759,5
83295,152761,4
83290,152758,5
83293,152770,5
83298,152767,5
83300,152788,5
83319,152783,4
83329,152810,5
83333,152817,5
83339,152821,5
83335,152825,5
83332,152805,4
83314,152789,5
83307,152792,5
83317,152774,5
83299,152751,3
83277,152737,4
83247,152697,5
83240,152705,5
83236,152693,5
83220,152662,4
83205,152653,5
83197,152647,5
83160,152661,5
83233,152673,5
83249,152695,4
83251,152709,5
83134,152738,5
83286,152759,5
83311,152796,5
83342,152835,4
83189,152863,5
83391,152895,5
83424,152923,5
83443,152938,5
83405,152970,5
83459,152990,4
83463,152996,5
83474,153003,5
83597,153003,6
83477,153016,3
83482,153016,5
83484,153012,5
83683,153018,5
83488,153028,4
83494,153028,5
83503,153050,5
83626,153054,5
83519,153059,5
83526,153069,4
83546,153086,5
83566,153090,5
83545,153089,5
83531,153083,5
83543,153085,4
83528,152974,5
83523,153057,5
83502,153029,5
83497,153031,5
83496,152854,4
83487,153020,6
83483,153011,4
83483,152999,5
83475,152820,5
83470,153001,6
83471,152985,3
83466,152985,5
83471,153024,5
83473,152996,4
83476,153007,6
83475,153007,3
83479,153176,5
83488,153014,5
83503,153039,4
83504,153046,5
83503,153232,5
83511,153048,5
83515,153062,5
83515,153074,4
83531,153148,5
83539,153074,5
83533,153070,5
83535,153087,5
83533,153096,4
83536,153079,5
83536,153071,6
83521,153070,4
83519,153067,5
83518,153032,4
83510,153040,5
83496,153019,5
83476,153001,5
83459,152973,5
83440,152965,4
83432,152941,5
83425,152938,5
83411,152926,5
83416,152903,4
83394,152901,4
83387,152881,5
83384,152890,5
83375,152868,5
83376,152865,4
83379,152870,5
83376,152872,5
83386,152888,5
83401,152901,5
83400,152913,4
83416,152920,5
83420,152913,5
83416,152923,6
83415,152903,4
83405,152884,4
83387,152877,5
83381,152860,5
83345,152820,5
83298,152760,5
83272,152727,4
83260,152714,5
83232,152656,5
83210,152626,5
83190,152630,5
83202,152638,4
83206,152642,5
83213,152644,5
83213,152650,5
83221,152658,4
83228,152669,5
83243,152686,5
83255,152714,5
83281,152737,5
83294,152766,5
83316,152790,4
83334,152803,5
83358,152838,5
83366,152854,6
83375,152870,3
83400,152892,5
83402,152909,5
83408,152927,5
83426,152932,5
83429,152952,4
83443,152963,5
83450,152975,5
83461,153000,5
83475,152999,5
83491,153019,4
83494,153034,5
83508,153053,5
83533,153085,5
83554,153084,4
83546,153083,4
83554,153090,5
83535,153093,5
83546,153090,5
83536,153083,4
83541,153083,6
83540,153078,4
83532,153075,5
83541,153082,5
83535,153089,4
83549,153097,5
83550,153101,5
83558,153107,5
83500,153117,5
83587,153138,4
83597,153168,5
83624,153188,5
83495,153216,5
83659,153245,5
83692,153276,4
83710,153302,5
83542,153343,5
83747,153361,5
83773,153400,5
83790,153424,4
83798,153458,5
83828,153479,5
83846,153508,5
83872,153517,4
84017,153547,4
83904,153564,6
83905,153590,4
83931,153589,5
84135,153615,4
83930,153616,5
83935,153612,5
83930,153617,5
84025,153620,5
83929,153587,4
83902,153578,5
83899,153554,5
83899,153526,5
83860,153528,5
83860,153522,4
83850,153509,5
83843,153402,5
83854,153499,5
83856,153511,5
83870,153521,4
83868,153353,5
83865,153519,5
83879,153529,5
83875,153544,5
83892,153383,4
83907,153576,5
83909,153571,6
83916,153589,4
83916,153631,4
83910,153590,4
83913,153586,5
83917,153577,5
83917,153773,5
83910,153589,4
83899,153569,5
83894,153556,5
83886,153739,5
83881,153547,5
83873,153550,4
83865,153538,5
83891,153636,5
83910,153597,5
83934,153623,5
83958,153642,4
83981,153686,5
83998,153711,5
84014,153746,5
84053,153780,5
84091,153827,4
84125,153883,5
84174,153953,5
84232,154028,6
84278,154093,3
84317,154143,4
84355,154193,5
84396,154244,5
84417,154270,5
84446,154300,4
84456,154320,5
84480,154358,5
84492,154373,5
84506,154397,5
84529,154414,4
84532,154418,5
84541,154427,5
84544,154443,5
84566,154463,5
84585,154494,4
84593,154520,5
84601,154513,5
84596,154509,5
84600,154518,5
84599,154518,5
84599,154512,4
84598,154507,5
84599,154506,5
84589,154498,5
84583,154499,4
84600,154512,5
84590,154492,5
84587,154498,5
84575,154500,4
84585,154497,4
84584,154500,5
84601,154503,5
84591,154508,5
84597,154504,4
84597,154508,5
84591,154508,5
84597,154501,5
84601,154511,5
84600,154528,4
84611,154520,5
84609,154525,5
84611,154542,5
84634,154549,5
84629,154569,4
84633,154565,6
84635,154569,4
84647,154558,5
84620,154551,5
84617,154535,4
84586,154499,5
84548,154451,5
84512,154381,5
84438,154282,5
84349,154165,4
84251,154020,5
84134,153855,5
83992,153665,5
83848,153490,4
83715,153295,5
83589,153130,5
83470,152960,5
83364,152827,5
83264,152717,4
83198,152612,5
83129,152516,5
83070,152443,5
83010,152359,5
82976,152313,4
82928,152253,5
82896,152210,6
82846,152135,4
82797,152064,5
82648,151978,4
82665,151869,5
82569,151728,5
82417,151512,5
82057,151212,5
81963,150843,4
81678,150453,5
81407,150062,5
80955,149670,5
80847,149288,4
80574,148912,4
80335,148614,5
80173,148371,5
80027,148158,5
79898,148001,5
79769,147830,4
79816,147673,5
79562,147534,5
79491,147423,6
79427,147339,3
79546,147269,5
79331,147204,5
79300,147152,5
79258,147129,5
79313,147096,4
79234,147079,5
79229,147077,5
79239,147086,5
79265,147087,5
79275,147130,4
79289,147167,5
79332,147224,5
79370,147166,5
79422,147338,5
79472,147417,4
79546,147507,5
79618,147445,5
79706,147747,5
79796,147859,5
79896,147985,4
79969,147981,5
80061,148212,5
80145,148320,5
80222,148443,5
80303,148627,4
80365,148650,5
80438,148738,5
80514,148837,5
80587,149126,4
80668,149055,5
80745,149164,5
80824,149262,5
80888,149497,5
80945,149431,4
81011,149519,5
81066,149609,5
81138,149751,5
81195,149776,5
81241,149832,4
81274,149875,5
81299,149915,5
81318,149935,5
81354,149989,5
81383,150013,4
81402,150048,5
81422,150088,5
81456,150133,5
81485,150178,4
81524,150219,6
81545,150250,3
81550,150276,5
81584,150297,5
81598,150318,4
81617,150352,5
81631,150371,5
81649,150396,5
81663,150406,5
81676,150429,4
81686,150451,5
81693,150472,5
81718,150484,5
81727,150495,5
81733,150515,4
81735,150523,5
81746,150535,5
81754,150541,5
81758,150549,5
81750,150549,4
81769,150555,5
81761,150557,6
81760,150557,4
81758,150549,4
81755,150539,4
81750,150535,5
81751,150538,5
81760,150561,5
81762,150558,4
81766,150566,5
81773,150575,5
81781,150582,5
81781,150598,5
81799,150597,4
81797,150611,5
81800,150597,5
81803,150609,5
81806,150625,5
81807,150618,4
81815,150637,5
81823,150649,5
81843,150672,5
81860,150696,5
81893,150722,4
81900,150749,5
81906,150755,5
81904,150767,6
81901,150770,4
81904,150753,4
81884,150726,5
81879,150728,5
81877,150718,5
81850,150685,4
81841,150665,4
81839,150669,5
81841,150679,5
81846,150690,5
81851,150701,4
81853,150702,5
81865,150713,5
81870,150726,5
81884,150745,5
81917,150776,4
81932,150802,5
81961,150828,5
81981,150871,5
82003,150904,5
82030,150935,5
82051,150953,4
82053,150979,5
82074,151004,5
82089,151017,6
82091,151020,3
82014,151051,5
82115,151065,5
82128,151072,5
82138,151085,4
81986,151088,4
82142,151097,5
82146,151096,5
82146,151107,5
81976,151119,4
82167,151125,5
82165,151127,5
82150,151109,5
82177,151113,5
82141,151097,4
82139,151094,5
82136,151078,5
82296,151077,5
82122,151072,5
82121,151077,4
82119,151084,6
82298,151089,4
82135,151083,5
82132,151087,5
82138,151083,6
82194,151069,3
82127,151079,5
82117,151072,5
82116,151062,5
82120,151033,4
82111,151064,5
82110,151047,5
82110,151045,5
82111,150935,4
82107,151047,4
82106,151062,5
82114,151073,5
82114,150886,5
82119,151072,4
82116,151063,5
82111,151063,5
82108,150969,9
82077,151002,1
82041,150953,4
81982,150841,5
81934,150900,6
81875,150723,4
81819,150648,5
81765,150579,4
81725,150708,5
81684,150461,5
81642,150413,5
81606,150359,5
81573,150447,4
81537,150262,5
81515,150239,5
81483,150191,5
81456,150205,4
81440,150143,4
81424,150110,5
81399,150088,5
81381,150068,5
81377,150040,4
81359,150030,5
81355,150009,5
81336,149987,5
81314,149940,5
81261,149883,4
81206,149812,5
81160,149758,5
81130,149700,6
81111,149667,4
81080,149640,4
81069,149610,5
81049,149606,5
81042,149602,5
81046,149584,5
81037,149575,4
81028,149573,5
81035,149575,5
81053,149587,5
81048,149599,5
81056,149605,4
81059,149593,5
81050,149598,5
81050,149606,5
81051,149598,4
81041,149593,4
81034,149589,5
81038,149579,5
81033,149562,5
81004,149537,5
81001,149532,4
80988,149531,5
80991,149513,5
80959,149491,6
80968,149491,3
80969,149498,5
80973,149509,5
80988,149515,5
80993,149533,5
80999,149525,4
81002,149532,5
81012,149557,5
81031,149570,5
81050,149605,5
81070,149631,4
81100,149666,5
81114,149700,5
81145,149734,5
81173,149769,5
81191,149773,4
81204,149810,5
81223,149823,5
81227,149844,5
81247,149853,4
81249,149866,6
81258,149870,4
81246,149873,5
81249,149862,5
81256,149864,4
81255,149860,5
81256,149863,5
81261,149884,5
81280,149899,5
81290,149913,4
81296,149914,5
81277,149904,5
81278,149898,5
81282,149894,5
81281,149907,4
81269,149903,5
81284,149919,5
81287,149915,5
81300,149938,5
81323,149959,4
81330,149963,5
81332,149978,5
81323,149986,5
81326,149974,4
81333,149986,4
81336,149990,6
81233,149995,4
81350,150008,5
81361,150025,4
81360,150032,5
81222,150044,5
81395,150062,5
81394,150073,5
81397,150086,4
81297,150094,5
81417,150111,5
81425,150114,5
81428,150120,5
81521,150137,4
81449,150148,5
81454,150153,5
81453,150147,5
81639,150155,5
81460,150149,4
81466,150157,5
81447,150146,5
81579,150143,5
81438,150133,5
81428,150108,4
81413,150094,5
81443,150067,6
81370,150040,4
81351,150017,4
81331,149984,4
81306,149889,5
81282,149902,5
81257,149873,5
81230,149837,4
81210,149675,5
81199,149805,5
81181,149776,5
81174,149769,5
81153,149567,4
81149,149735,5
81134,149720,5
81116,149686,5
81110,149659,5
81096,149670,4
81094,149662,5
81082,149634,5
81059,149749,5
81036,149563,5
81006,149529,4
80987,149499,5
80971,149679,5
80939,149460,5
80909,149413,5
80879,149369,4
80871,149452,5
80856,149345,5
80847,149326,5
80851,149320,4
80850,149350,5
80862,149350,5
80872,149372,5
80893,149379,5
80885,149373,4
80880,149371,5
80890,149385,5
80893,149380,5
80912,149390,5
80924,149420,4
80949,149456,5
80975,149488,5
81007,149539,5
81029,149563,5
81055,149601,5
81070,149637,4
81098,149669,5
81140,149715,5
81151,149746,5
81197,149784,4
81234,149830,5
81247,149863,5
81274,149892,5
81295,149936,4
81317,149966,4
81348,150005,5
81355,150011,5
81376,150031,5
81384,150031,4
81372,150033,5
81366,150027,5
81358,150012,5
81357,150001,5
81343,149981,4
81311,149953,5
81289,149920,5
81275,149907,5
81262,149889,5
81251,149866,4
81220,149837,6
81216,149815,4
81205,149813,5
81200,149804,5
81199,149793,4
81188,149785,5
81187,149783,5
81182,149783,5
81176,149777,5
81176,149771,4
81170,149769,5
81184,149779,5
81180,149786,5
81198,149797,4
81212,149810,5
81223,149829,5
81228,149833,5
81242,149853,5
81255,149873,4
81270,149886,5
81274,149883,5
81277,149895,5
81263,149884,5
81262,149877,4
81254,149858,5
81236,149847,6
81218,149815,4
81199,149802,5
81186,149775,4
81157,149761,5
81159,149737,5
81159,149736,5
81147,149745,5
81158,149741,4
81161,149744,5
81160,149747,5
81169,149748,5
81170,149762,4
81158,149765,4
81166,149770,5
81172,149768,5
81179,149775,5
81146,149794,4
81212,149826,5
81230,149849,5
81227,149846,5
81099,149852,5
81227,149855,4
81237,149858,5
81244,149876,5
81077,149865,5
81252,149858,5
81244,149869,4
81254,149874,5
81214,149866,5
81250,149863,5
81261,149886,5
81280,149907,4
81441,149962,5
81335,149993,5
81362,150017,5
81379,150057,5
81607,150098,4
81459,150146,5
81488,150195,5
81528,150250,5
81671,150302,4
81619,150364,6
81657,150419,4
81694,150473,5
81744,150505,5
81745,150528,6
81753,150554,3
81771,150578,5
81771,150491,5
81782,150601,5
81784,150609,4
81810,150620,5
81819,150476,5
81838,150670,5
81847,150671,5
81861,150716,4
81875,150549,5
81892,150748,5
81890,150743,5
81897,150747,5
81889,150817,4
81902,150759,5
81896,150750,5
81892,150752,5
81889,150921,4
81875,150738,4
81876,150720,6
81876,150724,4
81878,150891,5
81881,150726,4
81872,150726,7
81872,150720,3
81870,150795,5
81883,150726,5
81877,150729,4
81892,150739,5
81892,150743,5
81888,150751,5
81902,150759,5
81898,150772,4
81916,150781,5
81925,150796,5
81931,150789,5
81938,150808,5
81951,150825,4
81952,150841,5
81967,150843,5
81971,150860,5
81985,150870,5
81985,150867,4
81991,150873,5
81989,150874,6
81973,150852,4
81966,150845,4
81961,150839,4
81940,150815,5
81925,150790,5
81894,150750,5
81868,150714,4
81841,150676,5
81804,150640,5
81783,150581,5
81747,150550,5
81717,150528,4
81703,150485,5
81673,150444,5
81657,150434,5
81649,150414,5
81646,150405,4
81635,150405,5
81621,150395,5
81613,150368,5
81589,150346,5
81563,150312,4
81547,150272,5
81525,150246,5
81486,150193,6
81442,150120,3
81397,150083,4
81386,150049,5
81349,150001,5
81321,149975,5
81317,149967,4
81312,149965,5
81329,149981,5
81337,150009,5
81358,150019,5
81367,150031,4
81384,150053,5
81400,150082,5
81404,150093,5
81426,150112,5
81437,150132,4
81453,150149,5
81461,150158,5
81481,150176,5
81492,150199,5
81482,150187,5
81489,150201,4
81491,150191,5
81495,150208,5
81494,150207,6
81497,150192,3
81487,150197,5
81483,150196,5
81488,150190,5
81484,150182,4
81478,150182,4
81482,150186,5
81487,150187,5
81495,150192,5
81495,150190,4
81483,150193,5
81485,150185,5
81470,150169,5
81465,150159,5
81452,150148,4
81357,150137,5
81427,150127,5
81414,150103,5
81402,150088,5
81239,150082,4
81396,150070,6
81383,150047,4
81367,150040,5
81198,150030,5
81355,150017,4
81354,150012,5
81345,150006,5
81382,150010,5
81344,150001,5
81349,149991,4
81339,150001,5
81502,150007,5
81342,149998,5
81335,149991,4
81347,150003,4
81527,149991,5
81341,150001,5
81347,150002,5
81339,149986,4
81406,149979,5
81336,149984,5
81322,149978,5
81316,149973,5
81324,149936,4
81305,149954,5
81286,149921,6
81270,149904,4
81263,149763,5
81259,149871,4
81247,149870,5
81256,149873,5
81243,149687,5
81249,149858,5
81233,149830,5
81215,149823,7
81207,149739,2
81202,149812,5
81190,149795,4
81190,149772,4
81179,149876,5
81182,149780,5
81183,149787,5
81197,149794,4
81194,149991,5
81186,149780,5
81170,149756,5
81149,149741,5
81140,149849,4
81116,149681,5
81081,149643,5
81049,149599,6
81034,149609,4
80994,149529,4
80963,149469,5
80944,149445,5
80940,149456,5
80936,149450,5
80937,149445,4
80946,149457,5
80942,149455,5
80944,149457,5
80941,149457,5
80943,149459,4
80960,149469,5
80965,149483,5
80974,149509,5
80989,149510,4
80996,149528,4
80996,149533,5
81002,149526,5
81015,149542,5
81001,149544,5
81022,149553,4
81014,149556,5
81014,149550,5
81024,149548,6
81023,149554,3
81028,149557,5
81024,149564,5
81023,149568,5
81032,149570,5
81062,149589,4
81068,149599,5
81066,149592,5
81063,149595,5
81055,149595,5
81048,149590,4
81046,149592,5
81040,149589,5
81035,149568,5
81040,149565,5
81041,149572,4
81036,149579,5
81040,149574,5
81038,149574,5
81032,149574,4
81040,149584,6
81038,149569,4
81042,149572,5
81038,149564,5
81040,149568,4
81037,149566,5
81030,149567,5
81037,149560,5
81037,149570,5
81029,149556,4
81027,149556,5
81032,149568,5
81044,149577,5
81041,149594,5
81058,149600,4
81062,149601,5
81054,149605,5
81059,149591,5
81054,149599,5
81045,149583,4
81045,149579,5
81036,149570,5
81016,149571,5
81016,149526,4
80997,149522,4
80993,149516,6
80982,149494,4
80974,149488,5
80968,149468,4
80953,149464,5
80945,149437,5
80946,149431,5
80932,149426,5
80921,149401,4
80910,149399,5
80898,149372,5
80863,149362,5
80875,149347,5
80869,149338,4
80844,149319,5
80713,149274,5
80791,149217,5
80745,149140,5
80685,149055,4
80451,148979,5
80571,148922,5
80525,148862,5
80480,148790,5
80347,148719,4
80379,148651,5
80334,148577,6
80258,148460,4
80251,148356,4
80101,148250,4
80045,148192,5
79994,148139,5
80133,148079,5
79931,148019,4
79896,147990,5
79870,147956,5
79982,147932,5
79850,147918,5
79840,147922,4
79847,147915,5
79889,147913,5
79843,147923,5
79839,147901,5
79832,147890,4
79817,147796,5
79813,147851,5
79789,147820,5
79747,147766,5
79702,147576,4
79668,147647,5
79620,147601,5
79591,147538,5
79545,147320,4
79519,147440,4
79490,147400,5
79470,147386,5
79457,147365,5
79451,147365,4
79450,147357,5
79435,147332,5
79424,147461,5
79416,147317,5
79409,147295,4
79397,147270,5
79369,147427,5
79345,147209,5
79341,147191,5
79329,147185,4
79310,147254,5
79290,147141,5
79284,147119,5
79271,147104,5
79261,147104,5
79236,147071,4
79227,147047,5
79213,147023,5
79180,146967,5
79156,146934,4
79126,146897,5
79104,146851,5
79077,146806,5
79058,146784,4
79038,146763,4
79018,146736,5
78999,146713,5
78976,146680,5
78953,146642,4
78927,146604,5
78905,146560,5
78874,146508,5
78819,146453,5
78782,146384,4
78730,146303,5
78684,146254,5
78656,146193,5
78610,146142,5
78579,146091,4
78533,146026,6
78480,145955,4
78398,145820,5
78286,145671,5
78170,145497,4
78062,145334,5
77962,145191,5
77886,145068,5
77808,144988,4
77750,144893,4
77688,144817,5
77651,144765,5
77617,144724,5
77603,144701,4
77590,144678,5
77575,144658,5
77568,144639,5
77558,144633,5
77538,144613,4
77534,144601,5
77538,144598,5
77543,144604,5
77546,144615,4
77544,144606,4
77537,144597,5
77541,144605,5
77559,144628,5
77562,144647,5
77582,144677,4
77616,144714,5
77665,144798,5
77727,144859,5
77767,144911,5
77813,144960,4
77842,145025,5
77876,145069,5
77912,145129,5
77963,145195,4
78010,145258,4
78046,145298,5
78051,145320,5
78060,145316,5
78027,145268,5
77980,145210,4
77938,145135,5
77881,145053,5
77810,144961,6
77754,144898,3
77693,144815,5
77640,144726,5
77579,144657,5
77525,144575,5
77472,144485,4
77429,144439,5
77396,144386,5
77360,144351,5
77311,144309,5
77318,144289,4
77289,144237,5
77249,144168,5
77091,144115,5
77177,144073,5
77144,144027,4
77115,143990,5
76933,143961,5
77085,143953,5
77086,143934,4
77082,143941,5
77019,143954,4
77089,143944,5
77082,143939,5
77086,143958,6
77191,143968,3
77110,143981,5
77123,144008,5
77139,144022,5
77327,144053,4
77176,144072,5
77198,144089,5
77221,144106,5
77347,144152,5
77241,144161,4
77263,144176,5
77282,144194,5
77331,144232,5
77314,144257,5
77325,144277,4
77354,144305,5
77371,144267,5
77377,144341,5
77397,144367,4
77419,144388,4
77428,144277,6
77449,144429,4
77462,144447,5
77474,144459,4
77484,144319,5
77505,144506,5
77534,144551,5
77559,144585,5
77592,144640,4
77616,144674,5
77649,144703,5
77679,144753,5
77711,144935,5
77747,144844,4
77783,144900,5
77810,144941,5
77869,145206,5
77912,145087,5
77958,145137,4
77969,145145,5
77982,145252,5
77991,145180,5
77980,145163,5
77972,145152,4
77951,145152,5
77960,145134,6
77946,145108,4
77912,145073,4
77891,145038,4
77881,145039,5
77874,145018,5
77856,145002,5
77861,145015,4
77862,145014,5
77879,145038,5
77891,145054,5
77906,145075,5
77912,145081,4
77937,145111,5
77960,145136,5
77986,145178,5
78015,145213,5
78043,145249,4
78062,145298,5
78095,145329,5
78121,145372,5
78141,145397,5
78155,145409,4
78175,145432,5
78186,145454,5
78202,145472,6
78207,145478,4
78201,145488,4
78217,145488,5
78214,145501,5
78223,145510,5
78237,145526,4
78249,145549,5
78272,145578,5
78302,145628,5
78338,145658,5
78348,145680,4
78362,145689,5
78370,145714,5
78381,145722,5
78391,145730,5
78393,145736,4
78403,145742,5
78404,145757,5
78411,145767,5
78418,145765,5
78414,145782,5
78425,145788,4
78422,145779,5
78433,145790,5
78430,145796,6
78450,145827,3
78474,145847,5
78483,145870,5
78499,145885,5
78504,145921,4
78535,145927,4
78545,145966,5
78576,145990,5
78604,146037,5
78636,146078,4
78663,146122,5
78687,146173,5
78731,146206,5
78752,146243,5
78763,146258,4
78770,146258,5
78768,146284,5
78781,146286,5
78772,146278,5
78773,146250,4
78746,146241,6
78737,146205,4
78708,146179,5
78693,146163,5
78671,146147,4
78658,146118,5
78649,146097,5
78634,146074,5
78616,146065,5
78566,146061,4
78624,146059,5
78617,146052,5
78616,146069,5
78491,146067,4
78630,146080,4
78634,146084,5
78633,146101,5
78468,146092,5
78635,146087,4
78635,146078,5
78623,146072,5
78580,146071,5
78611,146059,5
78616,146056,4
78608,146051,5
78717,146042,6
78581,146029,4
78569,146012,5
78535,145959,4
78686,145930,5
78489,145900,5
78459,145860,5
78444,145836,5
78512,145809,4
78392,145763,5
78378,145737,5
78345,145714,5
78354,145686,4
78333,145678,4
78319,145673,5
78312,145674,5
78320,145580,5
78317,145656,4
78300,145644,5
78288,145631,5
78274,145456,5
78245,145583,10
78232,145562,4
78229,145531,5
78217,145376,6
78198,145534,4
78211,145526,4
78203,145525,5
78210,145576,5
78210,145530,5
78213,145540,5
78236,145558,4
78243,145735,5
78239,145568,5
78239,145559,5
78225,145550,5
78211,145684,4
78163,145465,5
78121,145386,5
78064,145305,5
78016,145293,4
77977,145188,4
77938,145153,5
77913,145105,5
77895,145085,5
77869,145044,5
77848,145025,4
77836,145011,5
77827,144999,5
77821,144991,5
77808,144991,4
77800,144976,5
77800,144951,5
77787,144940,5
77780,144931,5
77769,144917,4
77747,144896,5
77741,144878,5
77734,144868,5
77726,144869,5
77730,144861,4
77724,144865,5
77725,144867,5
77730,144865,5
77731,144884,5
77742,144871,4
77739,144876,5
77741,144882,5
77746,144894,5
77741,144900,4
77758,144899,6
77752,144898,4
77751,144895,5
77751,144888,5
77751,144903,4
77758,144885,5
77752,144890,5
77750,144882,5
77749,144898,5
77748,144889,4
77753,144891,5
77749,144890,5
77747,144899,5
77756,144906,5
77752,144899,4
77759,144903,5
77764,144909,5
77772,144930,5
77785,144949,5
77797,144962,4
77805,144987,5
77840,145017,5
77852,145046,5
77886,145081,4
77907,145098,4
77911,145121,6
77925,145127,4
77928,145134,5
77923,145103,4
77904,145097,5
77887,145078,5
77879,145078,5
77871,145049,5
77832,145013,4
77816,145004,5
77811,144979,5
77796,144954,5
77787,144942,5
77780,144937,4
77787,144957,5
77799,144969,5
77811,144986,5
77816,144989,5
77828,145007,4
77837,145010,5
77847,145027,5
77861,145045,5
77873,145058,5
77888,145096,4
77903,145088,5
77898,145095,5
77895,145116,5
77908,145115,4
77906,145118,4
77916,145131,5
77847,145128,5
77921,145131,5
77929,145147,4
77920,145134,5
77786,145129,5
77922,145113,5
77916,145118,5
77909,145128,4
77756,145126,5
77916,145129,5
77926,145135,5
77932,145162,5
77930,145138,4
77918,145135,5
77932,145145,5
77924,145129,5
78063,145141,5
77925,145134,4
77911,145141,5
77916,145122,5
78093,145128,5
77915,145118,5
77904,145113,4
77902,145101,5
77973,145097,5
77895,145089,5
77880,145071,4
77878,145089,5
77895,145087,5
77890,145088,5
77895,145089,5
77904,145108,4
77912,145017,5
77915,145130,5
77919,145138,5
77924,145142,5
77942,145011,4
77947,145182,6
77961,145196,4
77979,145210,5
77990,145094,5
77987,145221,6
77992,145239,3
78010,145256,5
78006,145317,5
78011,145259,5
78008,145266,4
78025,145273,5
78028,145432,5
78032,145277,5
78031,145292,4
78044,145307,4
78054,145463,5
78063,145325,5
78061,145331,5
78065,145326,4
78078,145394,5
78082,145339,5
78087,145357,5
78088,145345,5
78083,145354,4
78079,145343,5
78074,145338,6
78075,145324,4
78076,145326,5
78062,145323,4
78047,145307,7
78049,145301,3
78036,145295,5
78033,145289,5
78036,145290,4
78031,145288,5
78044,145299,5
78050,145309,5
78055,145320,5
78066,145328,4
78081,145351,5
78098,145379,5
78107,145406,5
78144,145437,4
78176,145473,5
78197,145518,5
78218,145548,5
78242,145594,5
78283,145634,4
78302,145654,5
78302,145661,5
78309,145656,6
78298,145647,4
78300,145647,4
78284,145636,5
78291,145618,5
78273,145623,5
78287,145632,5
78272,145624,4
78270,145630,5
78286,145632,5
78292,145656,5
78319,145684,5
78351,145724,4
78370,145754,5
78375,145768,5
78377,145773,5
78388,145771,4
78398,145780,4
78387,145781,5
78391,145784,5
78391,145796,5
78400,145794,5
78399,145799,4
78417,145819,5
78433,145845,5
78451,145846,6
78460,145880,3
78474,145900,5
78483,145909,5
78494,145905,5
78492,145910,5
78496,145929,4
78505,145929,5
78511,145934,5
78517,145936,5
78508,145940,5
78520,145945,4
78512,145937,5
78495,145898,5
78458,145874,5
78443,145839,5
78410,145806,4
78394,145777,5
78368,145741,5
78348,145724,5
78333,145706,4
78326,145693,5
78326,145693,4
78310,145677,5
78299,145653,5
78285,145636,6
78279,145628,3
78266,145610,5
78262,145607,5
78162,145606,5
78268,145605,4
78255,145584,5
78257,145576,5
78091,145569,5
78231,145563,5
78227,145548,4
78215,145553,5
78070,145542,5
78218,145556,5
78221,145545,5
78224,145552,4
78267,145540,5
78211,145540,5
78202,145516,5
78204,145519,4
78363,145519,4
78206,145522,6
78202,145516,4
78201,145503,5
78334,145492,4
78185,145504,5
78190,145507,5
78177,145492,5
78231,145489,5
78166,145470,4
78166,145450,5
78148,145429,5
78127,145359,5
78105,145378,5
78088,145363,4
78077,145338,5
78062,145181,5
78037,145286,5
78021,145259,5
78004,145237,4
77980,145046,5
77967,145189,5
77951,145154,5
77923,145129,5
77908,145066,4
77907,145108,5
77895,145087,6
77881,145076,4
77878,145184,4
77879,145066,4
77874,145056,5
77877,145053,5
77884,145248,5
77879,145057,4
77881,145049,5
77859,145038,5
77853,145121,5
77828,144984,5
77809,144965,4
77781,144935,5
77757,144926,5
77724,144847,5
77681,144798,5
77672,144762,4
77647,144742,5
77621,144703,5
77597,144683,5
77590,144669,5
77599,144681,4
77593,144675,5
77591,144671,5
77592,144670,6
77590,144670,4
77587,144666,4
77582,144663,5
77583,144666,5
77595,144679,5
77602,144667,4
77604,144678,5
77593,144668,5
77604,144682,5
77595,144667,5
77590,144665,4
77580,144656,5
77568,144638,5
77573,144628,5
77559,144613,5
77553,144615,4
77544,144599,5
77540,144602,5
77543,144589,5
77536,144578,5
77533,144582,5
77514,144571,4
77522,144572,5
77524,144567,5
77509,144537,5
77502,144544,4
77501,144543,5
77488,144523,5
77481,144514,5
77470,144496,4
77464,144487,4
77459,144488,5
77447,144473,5
77447,144453,5
77437,144456,4
77432,144444,5
77434,144450,5
77435,144457,5
77440,144455,5
77440,144453,4
77445,144461,5
77450,144471,5
77449,144479,5
77456,144470,5
77480,144491,4
77482,144504,6
77491,144510,4
77485,144516,5
77510,144527,5
77504,144537,4
77511,144539,5
77516,144550,5
77514,144550,5
77507,144544,5
77520,144540,4
77515,144548,5
77510,144544,5
77517,144549,5
77510,144535,4
77514,144530,4
77496,144522,5
77496,144523,5
77493,144507,5
77480,144500,4
77461,144473,5
77457,144467,5
77446,144456,5
77438,144442,5
77441,144435,4
77414,144426,5
77425,144419,6
77418,144399,4
77419,144404,5
77294,144411,4
77412,144399,5
77409,144408,5
77425,144411,5
77257,144408,5
77415,144417,4
77419,144430,5
77423,144413,5
77337,144410,5
77414,144391,4
77391,144376,4
77388,144367,5
77479,144381,5
77384,144360,5
77388,144352,4
77374,144338,5
77537,144341,5
77375,144348,5
77369,144342,5
77368,144344,4
77490,144359,5
77394,144363,5
77393,144386,6
77401,144385,4
77435,144396,4
77398,144393,5
77399,144386,5
77400,144386,5
77401,144314,5
77397,144375,4
77391,144369,5
77374,144343,8
77343,144165,2
77305,144261,5
77265,144191,4
77205,144124,5
77161,143881,5
77108,143962,5
77060,143907,4
77020,143850,4
76997,143809,5
76972,143766,5
76948,143738,5
76914,143706,5
76904,143815,4
76880,143657,5
76880,143651,5
76873,143643,5
76866,143810,4
76863,143618,5
76851,143611,5
76848,143599,5
76853,143689,5
76848,143605,4
76850,143605,5
76861,143613,5
76874,143650,5
76881,143659,5
76905,143675,4
76918,143681,5
76924,143708,5
76941,143735,5
76967,143759,5
76988,143796,4
77009,143829,5
77046,143858,5
77074,143909,5
77103,143953,4
77137,143994,6
77168,144043,4
77211,144087,5
77239,144148,5
77290,144205,4
77313,144231,5
77342,144283,5
77385,144325,5
77419,144376,5
77452,144426,4
77481,144479,5
77529,144512,5
77554,144569,5
77597,144613,5
77619,144662,4
77643,144691,5
77674,144730,5
77690,144750,5
77711,144774,5
77741,144827,4
77774,144870,5
77812,144928,5
77858,145005,5
77920,145083,4
77989,145184,4
78063,145296,6
78143,145403,4
78212,145498,5
78265,145565,4
78304,145616,5
78319,145648,5
78362,145690,5
78392,145745,5
78424,145791,4
78447,145811,5
78450,145814,5
78449,145829,5
78461,145839,5
78489,145858,4
78496,145880,5
78489,145866,5
78475,145864,5
78495,145884,5
78499,145896,4
78493,145890,5
78499,145883,5
78506,145900,5
78505,145912,5
78538,145953,4
78547,145973,5
78562,145990,5
78584,145992,5
78587,146010,4
78580,146016,5
78591,146030,5
78591,146021,5
78587,146025,5
78589,146026,4
78598,146031,5
78593,146023,5
78582,146015,5
78573,145998,5
78566,145994,4
78561,145994,5
78553,145968,5
78537,145955,5
78533,145945,5
78512,145917,4
78498,145891,4
78394,145840,5
78426,145793,5
78387,145757,6
78369,145707,3
78176,145646,5
78271,145565,5
78209,145505,5
78159,145426,4
77940,145354,4
78058,145292,5
78009,145224,5
77966,145156,5
77935,145106,4
77892,145055,5
77866,145024,5
77826,144982,5
77956,144941,5
77775,144900,4
77763,144868,5
77730,144836,5
77888,144813,5
77692,144788,5
77682,144758,4
77661,144744,6
77722,144719,4
77639,144701,5
77635,144699,5
77623,144692,7
77641,144688,2
77629,144686,5
77619,144684,5
77622,144683,5
77614,144561,4
77612,144672,5
77606,144664,5
77594,144644,5
77580,144478,4
77570,144612,5
77569,144601,5
77548,144585,5
77530,144454,5
77506,144529,5
77469,144479,4
77449,144437,5
77405,144480,5
77375,144331,5
77343,144286,4
77288,144213,5
77235,144326,6
77191,144089,4
77161,144028,5
77125,143985,4
77096,144072,5
77070,143912,5
77053,143894,5
77048,143897,5
77055,143931,4
77050,143873,5
77019,143858,5
77004,143806,5
76964,143748,4
76927,143709,4
76890,143662,5
76846,143589,5
76778,143478,5
76678,143322,4
76559,143169,5
76438,143006,5
76312,142829,5
76184,142661,5
76098,142514,4
75996,142366,5
75912,142254,5
75838,142154,6
75762,142025,4
75683,141913,4
75609,141798,5
75550,141710,5
75485,141636,5
75436,141567,5
75395,141491,4
75343,141428,5
75296,141359,5
75256,141301,5
75196,141215,5
75141,141147,4
75098,141088,5
75053,141033,5
75018,140967,5
74966,140905,4
74918,140824,5
74870,140752,5
74836,140691,5
74801,140649,5
74785,140619,5
74763,140601,4
74753,140584,5
74745,140570,5
74722,140542,6
74689,140477,3
74668,140456,5
74638,140405,5
74629,140391,5
74604,140359,5
74594,140341,4
74584,140334,5
74576,140323,5
74560,140301,5
74561,140292,5
74548,140274,4
74524,140235,5
74512,140223,5
74491,140202,5
74488,140191,4
74484,140183,4
74482,140184,5
74477,140178,5
74478,140176,5
74469,140162,4
74463,140153,6
74450,140139,4
74454,140133,5
74448,140137,5
74456,140135,6
74446,140137,3
74455,140141,5
74468,140147,5
74455,140143,5
74454,140143,4
74443,140131,5
74433,140115,5
74433,140126,5
74442,140129,5
74435,140114,4
74428,140106,5
74425,140092,5
74419,140072,5
74377,140064,5
74398,140047,4
74387,140028,5
74369,140006,5
74253,140013,5
74349,139989,4
74343,139963,5
74327,139952,6
74175,139941,4
74317,139927,5
74302,139911,4
74298,139904,5
74219,139907,5
74300,139909,5
74296,139906,5
74301,139909,4
74385,139906,5
74285,139873,5
74260,139855,5
74248,139844,5
74398,139818,4
74220,139793,5
74196,139753,5
74165,139707,5
74248,139694,5
74131,139668,4
74116,139627,5
74089,139597,5
74110,139592,5
74074,139589,4
74065,139579,4
74069,139580,5
74059,139502,6
74063,139561,4
74057,139553,4
74045,139547,5
74045,139403,5
74038,139530,5
74038,139524,5
74023,139522,4
74017,139350,5
74017,139491,5
74003,139466,5
73986,139452,5
73964,139439,4
73950,139387,5
73925,139355,5
73904,139338,5
73882,139445,5
73860,139266,4
73842,139225,5
73822,139203,5
73804,139343,5
73789,139142,5
73772,139119,4
73761,139105,5
73736,139133,5
73706,139034,6
73684,139001,3
73667,138968,5
73640,138951,5
73603,138882,5
73576,138840,5
73551,138797,4
73520,138747,5
73469,138681,5
73430,138623,5
73409,138590,5
73387,138542,4
73358,138513,5
73341,138493,5
73337,138468,5
73327,138452,5
73324,138457,4
73324,138454,5
73326,138458,5
73325,138449,5
73316,138449,5
73329,138457,5
73326,138479,4
73343,138475,5
73351,138484,5
73360,138495,4
73373,138528,4
73391,138527,5
73393,138546,5
73388,138544,5
73404,138551,4
73397,138554,5
73410,138555,5
73418,138559,5
73415,138576,5
73414,138565,4
73411,138546,5
73397,138547,5
73389,138543,5
73384,138538,5
73391,138535,4
73379,138521,5
73362,138504,5
73352,138487,5
73355,138490,5
73343,138485,4
73349,138489,6
73350,138478,4
73346,138476,5
73356,138501,5
73376,138518,4
73394,138549,5
73408,138569,5
73432,138593,5
73441,138605,4
73440,138606,5
73451,138626,5
73469,138648,5
73477,138651,5
73473,138663,4
73478,138662,5
73474,138654,5
73487,138667,5
73478,138673,5
73480,138678,4
73495,138683,5
73510,138703,5
73520,138734,5
73547,138765,5
73570,138792,4
73581,138804,5
73595,138834,6
73617,138860,4
73641,138883,5
73667,138926,4
73691,138954,5
73708,138983,5
73719,139013,5
73738,139022,4
73739,139036,4
73752,139050,5
73764,139065,5
73773,139078,5
73772,139071,4
73704,139080,5
73769,139083,5
73784,139089,5
73777,139089,5
73646,139087,4
73787,139100,5
73789,139109,5
73813,139131,5
73670,139153,5
73824,139141,4
73822,139145,5
73816,139143,5
73833,139144,5
73806,139137,5
73814,139132,4
73805,139134,5
73945,139137,5
73813,139159,5
73822,139166,5
73825,139183,4
74000,139189,5
73849,139191,5
73844,139196,5
73846,139198,4
73913,139195,5
73857,139202,5
73861,139207,5
73869,139222,5
73889,139213,4
73892,139251,6
73896,139267,4
73902,139275,5
73917,139190,5
73981,139378,10
73981,139378,4
73994,139389,5
74001,139406,5
74010,139346,4
74023,139440,5
74030,139447,5
74036,139451,5
74039,139552,5
74056,139477,4
74058,139502,5
74081,139521,5
74090,139700,5
74097,139555,4
74111,139557,4
74111,139577,5
74113,139690,5
74120,139575,5
74122,139577,4
74121,139573,5
74136,139614,5
74134,139601,5
74153,139608,5
74152,139614,4
74158,139616,6
74147,139617,4
74159,139622,5
74159,139630,5
74157,139623,4
74146,139604,5
74132,139594,5
74131,139581,5
74129,139585,5
74111,139569,4
74115,139564,5
74119,139579,5
74124,139579,5
74142,139611,5
74143,139617,4
74152,139623,5
74162,139637,5
74170,139639,5
74185,139662,4
74194,139670,5
74202,139696,5
74228,139711,5
74236,139738,4
74243,139754,4
74255,139771,5
74254,139773,5
74250,139764,5
74258,139758,5
74249,139750,4
74235,139739,5
74243,139741,5
74234,139742,5
74239,139741,5
74245,139742,4
74240,139732,5
74245,139750,5
74251,139757,5
74259,139775,5
74270,139783,4
74281,139789,5
74282,139792,5
74288,139800,5
74281,139808,5
74288,139794,4
74277,139799,5
74283,139800,5
74276,139789,6
74282,139792,3
74278,139802,5
74277,139789,5
74284,139804,5
74287,139803,5
74290,139808,4
74294,139816,5
74301,139825,5
74308,139836,5
74314,139841,5
74315,139853,4
74333,139867,5
74354,139903,5
74375,139937,5
74391,139965,5
74415,139987,4
74432,140014,5
74445,140037,5
74457,140046,5
74476,140054,5
74473,140060,5
74477,140077,4
74497,140084,5
74492,140089,5
74497,140101,6
74502,140105,3
74504,140098,5
74493,140102,5
74502,140108,5
74498,140113,4
74492,140104,5
74509,140107,5
74503,140111,5
74497,140118,5
74413,140114,4
74502,140124,5
74510,140106,5
74499,140103,5
74355,140099,5
74498,140096,4
74495,140102,5
74494,140090,5
74366,140075,5
74463,140048,5
74441,140022,4
74432,139992,6
74473,139970,4
74397,139946,5
74348,139894,4
74313,139832,6
74427,139775,3
74241,139756,5
74214,139694,5
74165,139643,4
74277,139602,5
74121,139579,5
74115,139576,5
74107,139559,5
74142,139548,4
74081,139516,5
74048,139484,5
74020,139461,5
74016,139383,5
73996,139403,4
73977,139378,5
73951,139352,5
73942,139201,5
73922,139309,5
73909,139287,4
73897,139257,5
73866,139069,6
73845,139186,4
73817,139151,5
73781,139121,5
73767,139057,4
73746,139046,5
73715,139003,5
73688,138964,4
73661,139053,4
73632,138907,5
73632,138890,5
73618,138856,5
73591,138987,4
73549,138757,5
73531,138723,5
73486,138673,5
73447,138711,5
73401,138553,4
73362,138473,5
73307,138400,5
73267,138376,5
73226,138287,5
73192,138214,4
73139,138146,5
73096,138103,5
73070,138038,6
73040,138007,4
73021,137982,4
73013,137964,5
72996,137942,5
72975,137913,5
72964,137894,5
72941,137865,4
72925,137847,5
72909,137807,5
72896,137803,5
72892,137786,4
72900,137785,5
72892,137787,5
72897,137788,5
72908,137815,5
72911,137833,4
72933,137844,5
72932,137860,5
72940,137866,5
72955,137882,5
72962,137898,5
72979,137918,4
72992,137916,5
72996,137926,5
72994,137927,6
73000,137943,3
73009,137966,5
73019,137975,5
73039,137995,5
73047,138026,5
73078,138050,4
73088,138078,5
73108,138099,5
73135,138125,5
73153,138164,4
73173,138195,4
73186,138207,5
73201,138240,5
73233,138273,5
73249,138313,4
73278,138344,5
73296,138379,5
73328,138423,5
73354,138447,5
73379,138478,4
73382,138495,6
73406,138513,4
73402,138530,5
73406,138527,5
73407,138515,4
73406,138532,5
73412,138540,5
73416,138548,5
73424,138553,5
73426,138560,4
73448,138583,5
73464,138637,5
73506,138681,5
73534,138718,5
73555,138750,4
73578,138784,5
73598,138809,5
73611,138831,5
73645,138853,4
73652,138887,4
73661,138886,5
73675,138917,5
73690,138923,5
73690,138934,4
73694,138950,5
73699,138943,6
73700,138950,4
73708,138947,5
73701,138948,4
73697,138954,5
73666,138954,5
73705,138953,5
73707,138945,5
73711,138949,4
73593,138962,5
73711,138957,5
73714,138963,5
73706,138952,5
73550,138942,4
73684,138925,5
73688,138920,5
73677,138906,5
73621,138886,4
73656,138868,4
73638,138858,5
73633,138846,5
73736,138848,5
73616,138842,4
73615,138829,5
73601,138826,5
73769,138811,6
73598,138806,4
73590,138794,4
73585,138787,5
73677,138791,5
73577,138778,5
73578,138778,5
73568,138774,4
73593,138757,5
73562,138751,5
73549,138730,5
73538,138717,5
73530,138628,4
73520,138684,5
73507,138685,5
73503,138668,5
73492,138520,5
73487,138631,4
73469,138623,5
73461,138616,5
73442,138451,5
73438,138579,5
73433,138574,4
73433,138568,5
73416,138603,5
73416,138544,5
73410,138536,4
73403,138536,5
73410,138669,5
73400,138525,5
73403,138519,5
73386,138520,4
73377,138668,5
73382,138506,5
73389,138488,5
73362,138474,5
73358,138529,4
73345,138455,5
73350,138444,5
73328,138425,5
73319,138409,5
73305,138388,4
73292,138362,5
73281,138333,5
73262,138328,5
73255,138303,4
73239,138300,5
73224,138282,4
73227,138278,5
73217,138263,5
73204,138239,4
73186,138217,5
73177,138183,5
73148,138143,5
73124,138119,5
73083,138059,4
73050,138011,5
73023,137974,5
72996,137940,5
72983,137927,5
72974,137911,4
72970,137897,5
72959,137882,5
72953,137877,5
72938,137866,5
72945,137867,4
72937,137859,5
72943,137865,5
72941,137868,5
72959,137877,5
72963,137896,4
72984,137897,6
72974,137907,4
72970,137896,5
72965,137890,4
72947,137865,4
72947,137859,5
72922,137839,5
72907,137805,5
72886,137779,4
72885,137761,5
72860,137737,5
72847,137716,5
72813,137692,5
72798,137668,4
72802,137667,5
72807,137670,5
72810,137673,5
72807,137674,5
72812,137669,4
72809,137659,5
72798,137677,5
72813,137677,5
72827,137685,5
72819,137695,4
72836,137711,5
72839,137727,6
72842,137736,4
72849,137733,5
72861,137742,4
72857,137741,5
72859,137747,5
72869,137742,5
72870,137746,4
72867,137747,5
72863,137745,5
72873,137757,5
72870,137746,5
72863,137739,4
72870,137748,5
72866,137752,5
72868,137753,5
72875,137759,5
72869,137745,4
72858,137737,5
72844,137733,5
72848,137710,5
72843,137705,5
72833,137694,4
72823,137690,5
72828,137683,5
72750,137673,5
72816,137671,5
72820,137684,4
72824,137688,5
72691,137690,5
72822,137683,5
72811,137673,4
72824,137685,4
72688,137695,5
72837,137716,5
72849,137709,5
72852,137726,4
72874,137728,5
72857,137742,5
72867,137756,5
72876,137770,5
73015,137779,4
72900,137780,5
72913,137789,5
72903,137805,5
73080,137806,5
72920,137825,5
72939,137836,3
72940,137850,5
73013,137871,5
72965,137884,5
72962,137873,4
72979,137887,5
72988,137874,5
72978,137904,5
72981,137900,5
72994,137916,4
72996,137812,5
72995,137929,5
73000,137923,8
73002,137934,2
72985,137785,4
73008,137933,5
73010,137929,5
73008,137928,5
73005,137842,4
72999,137926,5
73002,137924,6
72996,137911,4
72995,137986,5
72988,137905,4
72988,137885,7
72971,137887,3
72959,138021,5
72943,137834,5
72931,137808,4
72904,137798,5
72891,137887,5
72882,137752,5
72872,137723,5
72840,137703,4
72832,137713,5
72823,137657,5
72812,137645,5
72804,137645,5
72796,137633,4
72803,137642,5
72803,137638,5
72799,137645,5
72797,137645,4
72817,137653,5
72815,137660,5
72822,137664,6
72821,137665,4
72828,137688,4
72845,137697,5
72851,137706,5
72853,137713,5
72857,137714,5
72845,137711,4
72842,137697,5
72836,137686,5
72827,137689,5
72833,137673,5
72829,137673,4
72809,137633,5
72787,137629,5
72785,137628,5
72782,137610,5
72762,137589,4
72763,137590,5
72769,137613,5
72769,137614,5
72790,137627,5
72798,137636,4
72793,137635,5
72805,137660,5
72816,137663,6
72822,137684,3
72842,137697,5
72851,137715,5
72871,137750,5
72890,137770,5
72898,137796,4
72917,137825,5
72935,137837,5
72944,137850,5
72958,137868,5
72967,137876,4
72977,137879,5
72976,137901,5
72995,137909,5
72989,137911,5
72999,137920,4
73003,137928,5
73019,137936,5
73029,137979,5
73058,137992,5
73065,138021,5
73087,138038,4
73085,138051,5
73095,138056,5
73098,138069,6
73112,138076,3
73125,138081,5
73129,138097,5
73145,138133,5
73156,138135,4
73178,138169,5
73202,138197,5
73215,138225,5
73227,138254,5
73245,138279,4
73272,138304,5
73296,138352,5
73324,138385,5
73355,138431,5
73395,138488,4
73428,138537,5
73466,138588,5
73496,138633,5
73524,138689,5
73567,138734,4
73590,138779,6
73628,138829,4
73656,138866,5
73591,138906,5
73707,138937,4
73724,138963,5
73740,138970,5
73608,138985,5
73770,139011,4
73777,139029,4
73789,139033,5
73675,139053,5
73806,139072,5
73818,139085,4
73833,139104,5
73897,139108,5
73828,139120,5
73851,139121,5
73842,139114,4
74002,139119,5
73848,139117,5
73840,139119,5
73834,139111,5
73972,139103,4
73829,139095,5
73826,139102,6
73831,139098,4
73882,139097,5
73824,139096,4
73841,139125,5
73851,139134,5
73860,139112,5
73869,139160,5
73886,139192,4
73908,139208,5
73913,139115,5
73931,139267,5
73966,139294,4
73985,139327,5
74001,139196,5
74016,139369,5
74027,139376,5
74032,139396,5
74050,139364,4
74064,139422,5
74062,139423,5
74053,139413,5
74049,139518,4
74054,139434,5
74064,139434,5
74065,139436,6
74069,139628,4
74088,139468,4
74102,139496,5
74112,139518,5
74132,139636,5
74146,139561,5
74153,139570,4
74184,139602,5
74212,139677,5
74238,139693,5
74263,139723,4
74301,139769,4
74327,139801,5
74343,139825,5
74360,139860,5
74369,139873,4
74382,139868,5
74380,139878,5
74377,139881,5
74375,139877,5
74380,139870,5
74381,139876,4
74374,139866,5
74370,139872,5
74384,139884,6
74380,139884,3
74388,139901,5
74386,139894,5
74397,139885,5
74399,139900,5
74399,139894,4
74380,139892,5
74381,139888,5
74386,139878,5
74391,139885,5
74384,139883,4
74396,139891,5
74403,139898,5
74404,139922,5
74403,139930,4
74413,139937,4
74435,139951,5
74447,139972,5
74461,139999,5
74487,140032,4
74507,140061,6
74527,140100,4
74569,140151,5
74598,140203,5
74645,140270,4
74690,140337,5
74740,140391,5
74787,140472,5
74854,140540,5
74907,140622,4
74963,140711,5
75038,140828,5
75120,140938,5
75196,141038,5
75262,141132,4
75329,141223,5
75391,141295,5
75439,141370,5
75480,141415,5
75505,141448,4
75510,141471,5
75518,141480,5
75536,141497,5
75532,141496,4
75529,141506,5
75525,141497,6
75534,141501,4
75536,141480,5
75531,141482,4
75531,141493,5
75521,141497,5
75528,141509,5
75543,141514,5
75553,141540,4
75560,141559,5
75577,141562,5
75596,141581,5
75600,141605,5
75629,141636,4
75650,141664,5
75655,141673,5
75651,141667,5
75640,141658,5
75624,141631,4
75598,141613,5
75597,141603,5
75577,141566,5
75542,141508,4
75369,141436,4
75438,141386,5
75410,141350,6
75367,141284,4
75153,141193,4
75257,141136,5
75224,141090,5
75202,141064,5
75098,141048,5
75177,141019,4
75155,140999,5
75146,140988,5
75211,140975,5
75121,140955,5
75121,140943,4
75108,140942,5
75272,140934,5
75101,140921,5
75092,140914,5
75081,140918,5
75200,140909,4
75076,140890,5
75076,140895,5
75065,140876,6
75094,140862,3
75051,140853,5
75042,140849,5
75035,140827,5
75022,140763,4
75017,140810,4
75010,140788,5
74990,140767,5
74975,140604,5
74956,140710,4
74932,140682,5
74938,140674,5
74909,140494,5
74901,140636,5
74880,140616,4
74873,140592,5
74856,140564,5
74848,140579,5
74845,140557,5
74832,140545,4
74826,140661,5
74823,140533,5
74812,140517,5
74806,140507,5
74806,140679,5
74810,140488,4
74803,140498,5
74796,140499,5
74800,140582,5
74803,140501,4
74798,140500,5
74799,140502,5
74798,140522,5
74808,140504,4
74809,140503,5
74802,140501,5
74799,140497,5
74807,140504,5
74801,140506,4
74807,140505,5
74796,140499,5
74795,140492,5
74805,140497,5
74799,140484,4
74795,140480,5
74795,140474,5
74786,140490,5
74792,140486,5
74787,140464,4
74776,140464,6
74769,140437,4
74749,140424,5
74731,140400,5
74710,140363,4
74684,140326,5
74664,140289,5
74639,140254,5
74618,140249,4
74613,140229,4
74600,140217,5
74591,140211,5
74591,140187,5
74575,140182,4
74566,140162,5
74553,140135,5
74552,140133,5
74543,140120,5
74533,140129,4
74531,140122,5
74540,140136,5
74536,140121,5
74534,140114,5
74516,140096,4
74492,140056,5
74484,140040,5
74468,140021,5
74447,139999,9
74408,139932,5
74377,139841,5
74358,139843,8
74338,139831,5
74298,139777,5
74244,139746,8
74234,139741,5
74247,139734,5
74252,139731,8
74245,139729,5
74243,139720,5
74242,139701,5
74244,139720,4
74244,139720,0
74244,139720,4
74258,139733,5
74253,139744,6
74261,139732,3
74261,139744,5
74264,139743,5
74255,139732,5
74267,139743,5
74258,139727,4
74248,139730,5
74252,139725,5
74248,139715,5
74241,139714,5
74245,139708,4
74237,139703,5
74229,139694,5
74233,139708,5
74230,139694,5
74218,139671,4
74204,139663,5
74188,139635,5
74177,139612,5
74149,139579,4
74139,139562,6
74123,139533,4
74102,139514,5
74099,139511,5
74100,139508,6
74095,139503,3
74093,139500,5
74083,139486,5
74081,139489,5
74084,139485,4
74076,139470,5
74080,139478,5
74073,139477,5
74081,139463,5
74063,139464,4
74066,139452,5
74057,139471,5
74078,139477,5
74064,139467,5
74072,139472,4
74070,139470,5
74074,139475,5
74072,139476,5
74064,139460,4
74068,139465,4
74059,139453,6
74057,139451,4
74061,139458,5
74059,139467,4
74058,139463,11
74073,139470,4
74077,139476,5
74084,139479,4
74079,139473,5
74071,139474,5
