RED,IR,EKG,TIME
152952,246680,8
152953,246681,5
152954,246689,7
152954,246708,8
152954,246708,5
152956,246726,7
152968,246701,8
152952,246739,9
152946,246737,8
152946,246737,5
152970,246749,7
152960,246729,8
152952,246727,5
152945,246729,7
152936,246728,8
152949,246725,5
152945,246722,7
152945,246722,8
152949,246727,5
152938,246734,7
152210,246735,8
152954,246735,5
152987,246752,7
152944,246738,8
152944,246738,5
152908,246747,7
152939,246744,8
152951,246733,7
152962,246747,5
153686,246760,8
152952,246744,7
152929,246734,10
152929,246734,5
152925,246717,7
153336,246728,5
152922,246734,8
152922,246750,7
152905,246701,5
152819,246055,8
152819,246055,7
152798,246605,8
152812,246618,7
152823,246627,7
152860,246048,8
152860,246048,7
152866,246652,5
152841,246579,8
152841,246620,7
152830,247000,5
152862,246597,8
152805,246555,7
152696,246404,7
152696,246404,10
152645,247068,5
152654,246333,5
152637,246321,10
152611,246265,5
152572,246385,5
152266,245750,10
152266,245750,5
152198,245667,5
152152,245560,10
152126,245533,5
152097,245480,5
151997,245341,10
151997,245341,5
151985,245299,5
151977,245281,10
151981,245272,5
151947,245238,4
151894,245223,10
151912,245206,5
151922,245219,5
151886,245175,10
151886,245175,5
151868,245177,5
151842,245138,10
151839,245098,5
151843,245156,5
151849,245157,10
151836,245147,5
151824,245136,6
151824,245136,8
151842,245129,5
151833,245133,7
151850,245140,8
151847,245136,5
151872,245142,7
151892,245199,8
151892,245199,5
151900,245200,7
151899,245205,8
151896,245186,5
151894,245192,7
151888,245183,8
151872,245200,5
151888,245195,7
151873,245199,8
151873,245199,9
151873,245200,8
151878,245196,5
151871,245169,7
151861,245191,8
151861,245191,5
151834,245179,7
151853,245173,8
151863,245164,5
151846,245144,7
151835,245101,8
151824,245138,9
151824,245138,5
151887,245204,8
151819,245110,7
151819,245110,5
151787,245068,8
151787,245068,7
151284,245086,7
151776,245047,8
151770,245038,7
151747,245028,5
150953,244927,8
150953,244927,7
151680,244905,8
151653,244899,7
151626,244859,8
152403,244748,8
152403,244748,7
151527,244733,5
151495,244699,8
151464,244650,7
152175,244618,10
151326,244472,7
151326,244472,5
151238,244448,5
151232,244363,10
151233,244059,5
151149,244218,5
151081,244100,10
151030,244025,5
150972,243346,5
150873,243954,10
150873,243954,5
150815,243870,5
150782,243828,10
150735,243621,5
150732,243753,5
150607,243577,10
150607,243577,5
150598,243572,5
150611,244505,10
150574,243497,5
150552,243490,5
150525,243472,10
150544,243964,5
150523,243406,7
150523,243406,8
150521,243418,9
150541,243397,10
150522,243341,5
150475,243181,7
150475,243181,8
150448,243126,5
150434,243057,7
150427,243034,8
150413,243027,5
150411,243035,7
150487,243071,8
150487,243071,5
150508,243083,7
150496,243056,2
150463,243026,2
150447,243026,5
150465,243009,5
150449,242968,4
150441,242939,5
150411,242907,5
150367,242843,5
150344,242804,5
150309,242768,4
150295,242749,5
150289,242734,5
150302,242753,5
150315,242760,5
150319,242774,4
150306,242756,5
150291,242761,6
150268,242732,4
150225,242685,5
150198,242676,4
150187,242682,5
150185,242683,5
150169,242704,5
150163,242686,4
150154,242692,4
150146,242672,5
150128,242652,5
150111,242632,5
150101,242626,4
150104,242620,5
150080,242591,5
150070,242579,5
150060,242565,5
150053,242571,4
150052,242575,5
150035,242562,5
150035,242551,5
149991,242517,5
149973,242515,4
149932,242482,5
149891,242457,5
149871,242449,6
149859,242453,4
149845,242446,4
149850,242446,5
149837,242431,5
149840,242431,5
149830,242425,5
149829,242423,4
149818,242418,5
149816,242407,5
149792,242394,5
149789,242393,4
149804,242395,5
149810,242400,5
149818,242416,5
149810,242428,5
149831,242420,4
149837,242440,5
149856,242456,5
149637,242475,5
149877,242507,5
149899,242544,5
149917,242572,4
149264,242603,5
149953,242623,5
149983,242681,5
150010,242703,4
149172,242772,5
150095,242822,5
150118,242874,5
150177,242949,7
149968,243025,2
150326,243090,5
150396,243185,5
150478,243273,5
151081,243295,4
150519,243303,4
150555,243325,5
150573,243358,5
151580,243390,5
150679,243458,4
150740,243515,5
150810,243620,5
151447,243704,5
150929,243768,5
150975,243777,4
151004,243799,6
151216,243862,4
151137,243922,5
151217,244009,5
151236,243960,4
151193,243474,5
151197,243907,5
151178,243908,5
151181,243903,5
151169,243080,4
151172,243897,5
151180,243911,5
151190,243933,5
151212,243018,5
151240,244005,4
151250,244039,5
151276,244076,5
151282,244249,5
151290,244132,4
151306,244163,4
151333,244220,5
151360,245113,5
151393,244318,5
151424,244354,4
151457,244364,5
151463,245352,6
151466,244402,4
151481,244399,5
151472,244409,4
151475,244779,5
151476,244412,5
151491,244412,5
151504,244432,5
151516,244501,4
151512,244461,5
151505,244469,5
151479,244458,5
151485,244454,5
151473,244461,4
151450,244431,5
151432,244431,5
151426,244449,5
151405,244436,4
151366,244418,4
151355,244407,5
151307,244366,5
151257,244303,5
151196,244251,4
151140,244185,5
151037,244106,5
150964,244023,6
150852,243906,4
150793,243887,4
150722,243816,5
150656,243755,5
150605,243701,5
150557,243680,5
150522,243653,4
150475,243591,5
150403,243548,5
150343,243469,5
150265,243387,5
150238,243351,4
150185,243308,5
150102,243232,5
150066,243167,5
150005,243098,5
149980,243043,4
149943,243000,5
149930,242976,5
149890,242931,5
149845,242910,5
149819,242858,4
149780,242820,5
149775,242816,5
149726,242738,5
149683,242693,4
149670,242662,5
149647,242632,5
149621,242607,5
149615,242601,5
149609,242581,4
149613,242592,5
149602,242597,5
149611,242591,5
149616,242609,5
149614,242601,4
149635,242623,5
149656,242626,5
149660,242642,5
149694,242664,5
149714,242681,4
149729,242697,5
149750,242709,5
149756,242716,5
149770,242742,4
149769,242735,5
149781,242737,4
149786,242750,5
149790,242770,5
149799,242778,4
149806,242783,5
149808,242783,5
149822,242794,5
149836,242803,5
149837,242836,4
149841,242825,5
149841,242837,5
149837,242829,5
149836,242828,5
149832,242811,4
149827,242810,5
149832,242812,5
149823,242805,5
149425,242801,5
149831,242803,4
149819,242795,5
149827,242793,5
149066,242780,5
149831,242795,4
149838,242789,4
149831,242797,6
148943,242797,4
149815,242794,5
149817,242812,4
149822,242809,5
149925,242817,5
149825,242839,5
149835,242870,5
149830,242855,4
150575,242854,5
149826,242857,5
149822,242851,5
149831,242845,5
150742,242867,4
149844,242865,5
149847,242869,5
149845,242872,5
150213,242865,5
149862,242881,4
149870,242886,5
149876,242886,5
149930,242826,5
149879,242903,5
149884,242898,4
149879,242907,5
149884,242352,5
149892,242912,5
149896,242916,4
149894,242923,4
149895,242098,5
149893,242928,5
149919,242935,5
149904,242938,5
149915,242366,4
149918,242946,5
149928,242941,5
149928,242956,5
149934,243375,4
149930,242959,5
149930,242959,5
149930,242959,5
149939,243875,5
149934,242970,5
149933,242976,4
149948,242973,5
149939,243671,5
149953,243001,6
149957,243008,3
149954,243006,5
149962,243231,5
149976,243016,5
149976,243032,4
149990,243044,4
150001,243064,5
150012,243066,5
150016,243080,5
150019,243090,4
150023,243091,5
150040,243100,5
150034,243102,5
150039,243119,5
150037,243107,4
150044,243117,5
150054,243118,5
150070,243127,5
150062,243133,5
150060,243144,4
150074,243130,6
150077,243149,4
150071,243155,5
150078,243141,5
150078,243146,6
150075,243145,3
150087,243148,5
150089,243159,5
150082,243160,5
150091,243162,4
150088,243168,5
150087,243172,5
150092,243199,5
150103,243204,4
150095,243216,5
150111,243233,5
150093,243222,5
150098,243241,5
150112,243224,4
150106,243239,5
150098,243231,5
150101,243236,5
150102,243221,5
150102,243237,4
150100,243210,5
150096,243203,6
150090,243215,4
150084,243202,5
150083,243197,4
150087,243201,5
150084,243186,5
150087,243201,5
150080,243191,5
150090,243210,4
150082,243206,5
150084,243209,5
150068,243188,5
150065,243194,4
150079,243198,4
150081,243219,5
150079,243224,5
150072,243237,5
150085,243246,4
150076,243241,5
150083,243258,5
150091,243272,5
150099,243255,5
150092,243238,4
150093,243244,5
150100,243255,5
150100,243247,6
150098,243245,4
150095,243258,4
150104,243252,5
150101,243260,5
150097,243252,5
150112,243237,5
150098,243250,4
150108,243259,5
150096,243235,5
150093,243249,5
150096,243234,5
150101,243253,4
150107,243255,5
150100,243253,5
150102,243260,5
150105,243263,4
149645,243270,4
150103,243266,5
150102,243270,5
150120,243269,5
149316,243260,5
150099,243255,4
150105,243244,5
150098,243259,5
149258,243256,6
150101,243262,3
150104,243254,5
150105,243273,5
150310,243278,5
150111,243277,5
150111,243287,4
150131,243286,5
150931,243311,5
150147,243321,5
150144,243315,5
150163,243334,4
150992,243370,5
150188,243369,5
150195,243382,5
150217,243383,5
150517,243395,4
150215,243406,5
150231,243424,5
150246,243436,5
150284,243289,4
150246,243440,6
150254,243447,4
150259,243445,5
150269,242838,5
150274,243470,4
150290,243488,5
150290,243486,5
150309,242640,5
150300,243507,5
150328,243509,4
150323,243522,5
150324,243168,5
150338,243558,5
150335,243564,5
150346,243567,4
150349,244100,5
150362,243577,5
150358,243586,5
150352,243587,5
150355,244517,4
150360,243604,5
150370,243605,5
150379,243622,5
150387,244239,4
150408,243654,4
150409,243653,6
150418,243667,4
150415,243839,5
150424,243679,4
150430,243689,5
150442,243702,5
150456,243717,5
150472,243745,5
150485,243753,4
150502,243780,5
150538,243814,5
150561,243859,5
150596,243899,5
150628,243936,4
150624,243957,5
150657,243964,5
150650,243995,5
150663,243996,5
150671,244024,4
150684,244050,5
150697,244072,5
150714,244098,5
150722,244110,5
150740,244127,4
150743,244148,5
150763,244156,6
150773,244189,4
150809,244226,4
150843,244245,4
150857,244255,5
150865,244285,5
150884,244307,5
150913,244341,4
150938,244352,5
150932,244360,5
150945,244378,5
150952,244392,5
150966,244381,4
150966,244389,5
150984,244418,5
150988,244434,5
151007,244437,5
151006,244450,4
151015,244456,5
151016,244453,5
151015,244450,5
151014,244448,5
151010,244438,4
150999,244448,5
151008,244424,5
151006,244431,6
150995,244424,3
150983,244414,4
150986,244408,5
150980,244413,5
150972,244417,5
150978,244393,4
150958,244399,5
150969,244387,5
150955,244395,5
150953,244388,5
150960,244399,4
150951,244380,5
150942,244376,5
150944,244386,5
150941,244368,5
150937,244362,4
150933,244349,5
150935,244372,5
150917,244353,5
150923,244342,5
150918,244345,5
150913,244333,4
150899,244317,5
150900,244306,5
150882,244310,5
150875,244289,4
150879,244287,5
150869,244265,5
150859,244265,5
150846,244251,4
150844,244243,4
150826,244217,5
150813,244234,5
150823,244222,5
150832,244224,4
150811,244206,5
150280,244202,5
150780,244199,5
150792,244187,5
150782,244175,4
149971,244168,5
150773,244160,10
150759,244148,5
150764,244124,4
150011,244116,6
150733,244104,4
150730,244105,5
150724,244093,5
150998,244082,4
150710,244084,5
150702,244084,5
150700,244072,5
151516,244070,5
150682,244054,4
150682,244039,5
150664,244044,5
151423,244038,5
150660,244035,4
150656,244020,5
150643,244014,5
150894,243990,5
150619,243974,5
150607,243968,4
150582,243946,5
150620,243745,5
150590,243935,5
150580,243917,5
150571,243918,4
150562,243256,5
150565,243892,6
150557,243890,4
150567,243887,5
150564,243012,4
150566,243875,5
150553,243879,5
150558,243884,5
150544,243575,5
150527,243870,4
150525,243864,5
150533,243893,5
150531,244471,5
150539,243887,4
150538,243880,4
150529,243887,5
150520,244807,5
150517,243881,5
150521,243870,4
150522,243859,5
150507,244411,5
150520,243859,5
150517,243836,6
150514,243844,3
150516,243992,5
150517,243842,5
150517,243828,5
150522,243831,5
150521,243843,4
150523,243830,5
150517,243837,5
150512,243826,5
150516,243822,5
150517,243826,4
150516,243813,5
150517,243817,5
150505,243805,5
150520,243830,5
150519,243830,4
150525,243807,5
150517,243829,5
150520,243817,5
150519,243817,4
150502,243819,5
150518,243818,5
150515,243822,5
150515,243817,5
150521,243824,5
150507,243813,4
150511,243821,5
150511,243821,5
150510,243832,5
150504,243822,4
150510,243828,5
150502,243827,5
150502,243810,5
150513,243815,5
150510,243823,4
150499,243805,5
150507,243811,5
150518,243820,5
150518,243807,5
150508,243810,4
150509,243798,5
150506,243798,5
150511,243793,5
150516,243795,4
150512,243798,4
150523,243786,5
150527,243790,5
150515,243786,5
150518,243781,4
150519,243793,6
150511,243789,4
150519,243776,5
150526,243785,5
150516,243771,4
150514,243777,5
150520,243767,5
150518,243785,5
150513,243781,5
150515,243783,4
150505,243778,5
150523,243795,5
150511,243788,5
150514,243783,5
150517,243785,4
150512,243781,5
150517,243803,5
150514,243791,5
150525,243795,5
150513,243801,4
150519,243792,5
150525,243794,6
150511,243783,4
150520,243779,4
150517,243776,4
150510,243774,5
150512,243782,5
150509,243772,5
150512,243789,4
150519,243777,5
150501,243779,5
150514,243782,5
150502,243791,5
150491,243786,4
150505,243797,5
150512,243790,5
150502,243781,5
150009,243780,5
150514,243785,4
150511,243779,5
150512,243786,5
149700,243778,5
150512,243777,5
150506,243773,4
150515,243766,5
149683,243772,5
150512,243759,6
150502,243754,4
150511,243771,4
150757,243761,5
150507,243745,5
150497,243721,5
150492,243734,4
151311,243743,5
150491,243742,5
150483,243750,5
150491,243749,5
151284,243756,4
150492,243746,5
150488,243749,5
150500,243763,5
150795,243774,5
150515,243774,4
150508,243784,5
150514,243771,5
150547,243598,5
150513,243783,5
150515,243770,5
150509,243775,4
150526,243130,5
150522,243766,5
150533,243772,6
150527,243770,3
150531,242892,5
150538,243755,5
150542,243760,5
150546,243757,4
150542,243433,4
150546,243756,5
150551,243742,5
150547,243744,5
150558,244308,4
150551,243736,5
150556,243748,5
150549,243726,5
150539,244683,5
150549,243732,4
150540,243728,5
150543,243733,5
150549,244341,5
150546,243733,5
150547,243732,4
150553,243734,6
150557,243897,4
150554,243731,5
150559,243745,5
150556,243730,6
150550,243734,3
150549,243742,5
150551,243737,5
150561,243740,5
150559,243743,4
150562,243735,5
150547,243736,5
150564,243731,5
150558,243726,4
150556,243743,5
150541,243716,5
150563,243723,5
150558,243722,5
150567,243717,4
150569,243724,5
150569,243726,5
150571,243717,5
150571,243716,5
150573,243717,4
150571,243715,5
150568,243708,6
150570,243703,4
150570,243712,5
150577,243710,4
150574,243712,5
150572,243709,5
150563,243699,5
150560,243700,5
150561,243698,4
150573,243692,5
150568,243693,5
150563,243704,5
150572,243689,4
150570,243701,4
150569,243698,5
150567,243694,5
150568,243692,5
150578,243687,4
150571,243697,5
150576,243693,5
150570,243698,5
150574,243706,5
150577,243711,4
150578,243713,5
150570,243713,5
150570,243710,6
150577,243700,4
150578,243703,4
150565,243682,5
150567,243703,5
150581,243696,5
150572,243697,5
150577,243702,4
150577,243706,5
150574,243696,5
150572,243723,5
150570,243694,5
150570,243699,4
150574,243706,5
150569,243719,5
150581,243724,5
150582,243728,4
150587,243729,4
150580,243735,5
150588,243729,5
150588,243734,5
150591,243724,5
150597,243726,4
150590,243728,5
150589,243717,5
150591,243723,6
150591,243721,3
150610,243717,5
150597,243725,5
150606,243709,5
150602,243713,5
150603,243712,4
150595,243709,5
150598,243716,5
150602,243716,5
150610,243708,5
150087,243729,4
150610,243726,5
150610,243729,5
150616,243725,5
149776,243730,5
150610,243749,4
150611,243749,5
150620,243751,5
149852,243735,5
150604,243742,4
150619,243736,6
150618,243726,4
150909,243734,5
150615,243744,5
150613,243741,4
150612,243752,5
151454,243740,5
150606,243737,5
150608,243749,5
150608,243737,4
151377,243741,5
150604,243744,5
150606,243727,5
150605,243729,5
150876,243731,4
150604,243713,5
150604,243727,5
150596,243715,5
150630,243502,5
150597,243708,4
150604,243718,5
150588,243719,5
150594,243037,5
150594,243698,4
150596,243696,4
150592,243695,6
150584,242800,4
150582,243681,5
150591,243679,5
150577,243675,4
150589,243409,5
150572,243678,5
150585,243685,5
150575,243672,4
150575,244288,5
150577,243685,5
150579,243687,5
150564,243678,5
150567,244640,4
150557,243674,5
150566,243672,5
150551,243672,5
150557,244222,5
150549,243671,4
150548,243675,5
150548,243674,5
150547,243806,5
150540,243652,5
150537,243639,4
150544,243653,5
150540,243644,6
150530,243656,4
150518,243654,4
150514,243639,5
150518,243652,5
150515,243630,5
150504,243636,5
150492,243643,4
150494,243655,5
150500,243663,5
150499,243668,5
150490,243664,5
150477,243645,4
150486,243641,5
150484,243640,5
150483,243629,5
150486,243632,5
150490,243635,4
150485,243641,5
150491,243651,5
150490,243653,5
150487,243637,5
150491,243639,4
150479,243629,5
150482,243629,5
150475,243634,5
150482,243639,4
150478,243618,4
150470,243631,5
150470,243624,5
150457,243617,5
150461,243616,4
150461,243619,5
150458,243610,5
150444,243602,5
150445,243595,5
150446,243598,4
150433,243585,5
150433,243589,5
150411,243559,5
150423,243560,5
150405,243545,4
150406,243546,5
150389,243528,5
150381,243507,5
150359,243512,5
150329,243483,5
150321,243459,4
150326,243461,5
150315,243461,5
150306,243454,5
150300,243450,4
150295,243446,5
150285,243438,5
150297,243441,5
150289,243435,4
150286,243437,5
150290,243426,5
150278,243418,5
150283,243432,5
150286,243433,4
150284,243427,5
150280,243406,5
150286,243415,5
150286,243412,5
150273,243414,4
150277,243402,5
150273,243400,5
150267,243395,5
150280,243401,5
150268,243405,4
150273,243401,6
150270,243402,4
150280,243424,5
150270,243409,5
150271,243414,4
150261,243412,5
150108,243422,5
150279,243415,5
150264,243415,4
150275,243430,7
149645,243416,2
150264,243422,5
150269,243414,5
150273,243405,4
149400,243393,5
150252,243406,5
150256,243392,5
150260,243391,5
149897,243375,4
150245,243383,5
150233,243363,5
150225,243347,5
150749,243350,5
150210,243354,4
150220,243377,5
150213,243383,6
151143,243392,4
150221,243377,5
150223,243395,4
150214,243385,5
150775,243391,5
150219,243381,5
150213,243385,5
150222,243363,4
150363,243370,5
150206,243349,5
150203,243348,5
150196,243318,4
150191,242922,4
150188,243324,5
150193,243323,5
150193,243306,5
150182,242555,4
150185,243333,5
150183,243333,5
150195,243330,5
150177,242451,5
150177,243329,4
150165,243325,5
150171,243305,5
150163,243430,5
150169,243312,5
150158,243306,4
150174,243298,5
150169,244105,5
150160,243309,5
150177,243300,5
150157,243298,4
150162,244228,5
150156,243299,5
150157,243298,5
150163,243289,5
150149,243634,4
150139,243274,5
150128,243282,5
150143,243289,5
150142,243325,4
150137,243271,5
150131,243271,4
150125,243288,5
150127,243261,5
150117,243259,5
150126,243262,3
150117,243272,5
150130,243264,5
150129,243258,5
150124,243267,4
150122,243248,5
150120,243261,5
150127,243254,5
150126,243259,5
150126,243266,4
150124,243255,5
150124,243258,5
150116,243252,5
150128,243246,5
150112,243244,4
150122,243241,5
150111,243236,5
150125,243244,5
150118,243240,4
150114,243258,4
150117,243258,6
150114,243249,4
150110,243242,5
150104,243242,4
150101,243225,7
150094,243234,3
150095,243243,5
150087,243217,5
150073,243193,4
150071,243184,5
150051,243190,5
150046,243155,5
150030,243154,5
150027,243132,4
150011,243136,5
150024,243125,5
150014,243125,5
150009,243125,5
149987,243085,4
149957,243038,5
149923,242978,5
149872,242932,5
149850,242880,5
149819,242864,4
149780,242827,5
149734,242769,6
149698,242723,4
149651,242714,4
149618,242627,5
149561,242561,5
149533,242542,5
149481,242490,5
149477,242460,4
149458,242469,5
149453,242450,5
149450,242448,5
149445,242438,5
149445,242423,4
149441,242420,5
149430,242399,5
149429,242407,5
149426,242383,5
149411,242390,4
149408,242395,5
149389,242393,5
149387,242383,5
149413,242395,5
149420,242416,4
149434,242446,5
149454,242451,5
149477,242489,6
149481,242503,3
149505,242516,4
149515,242533,5
149538,242550,5
149172,242560,5
149560,242562,4
149571,242558,5
149576,242572,5
148835,242575,5
149606,242585,5
149626,242619,4
149648,242641,5
148782,242671,5
149677,242688,5
149699,242700,5
149711,242706,4
149775,242738,5
149747,242762,5
149754,242748,5
149765,242766,5
150501,242776,5
149795,242814,4
149831,242856,5
149890,242906,5
150856,242966,6
149984,243008,3
149997,243039,5
150036,243098,5
150429,243122,5
150065,243120,4
150083,243151,5
150085,243162,5
150151,243129,5
150082,243177,5
150092,243175,4
150082,243183,5
150072,242630,5
150083,243180,5
150081,243206,5
150098,243209,4
150100,242386,5
150137,243261,5
150159,243270,5
150196,243351,5
150235,242785,4
150263,243415,6
150279,243447,4
150332,243507,5
150354,243918,5
150364,243533,4
150397,243567,5
150413,243583,5
150416,244513,5
150417,243620,4
150458,243662,4
150465,243653,5
150460,244345,5
150461,243650,5
150473,243645,4
150460,243634,5
150457,243856,5
150452,243663,5
150468,243666,5
150483,243673,4
150501,243716,5
150515,243715,5
150509,243729,5
150531,243763,5
150531,243766,4
150533,243777,5
150541,243780,6
150572,243810,4
150594,243838,5
150632,243852,4
150653,243898,5
150689,243937,5
150731,244003,5
150786,244066,5
150809,244116,4
150848,244137,5
150859,244165,5
150881,244191,5
150893,244197,4
150882,244203,4
150876,244221,5
150894,244248,5
150899,244240,5
150911,244262,4
150925,244266,5
150935,244277,5
150951,244299,5
150955,244305,5
150938,244312,4
150925,244309,5
150930,244276,5
150913,244274,6
150916,244295,4
150934,244296,4
150955,244316,5
150983,244348,5
151004,244374,5
150998,244379,5
151011,244390,4
151003,244411,5
151017,244417,5
151058,244464,5
151098,244503,4
151123,244531,4
151141,244560,5
151150,244577,5
151175,244603,5
151203,244624,4
151231,244667,5
151252,244689,5
151278,244711,5
151299,244733,5
151323,244767,5
151341,244776,4
151357,244809,5
151373,244828,5
151410,244852,6
151442,244873,3
151468,244910,5
151489,244929,5
151528,244956,5
151566,245008,5
151608,245067,4
151661,245104,5
151678,245129,5
151691,245155,5
151699,245166,5
151703,245183,4
151711,245190,5
151720,245207,5
151734,245216,5
151757,245225,4
151754,245200,4
151758,245208,5
151775,245207,5
151789,245221,5
151801,245234,4
151811,245249,6
151839,245286,4
151861,245301,5
151884,245319,5
151360,245349,4
151950,245389,5
152005,245417,5
151995,245407,5
151143,245406,5
152026,245419,4
152008,245403,5
152012,245419,5
151310,245418,5
152023,245432,5
152023,245433,4
152019,245423,5
152358,245417,5
151975,245412,5
151953,245383,5
151938,245362,4
152814,245320,5
151873,245285,5
151825,245249,5
151786,245192,4
152471,245173,5
151715,245143,6
151668,245100,4
151637,245075,5
151861,245050,4
151586,245028,5
151569,245007,5
151521,244971,5
151499,244649,5
151419,244849,4
151375,244788,5
151343,244755,5
151302,243990,5
151277,244669,5
151223,244607,4
151210,244615,5
151190,243670,5
151166,244538,5
151149,244533,5
151164,244518,4
151150,244407,5
151147,244519,5
151156,244517,6
151147,244520,3
151141,245215,4
151132,244509,5
151138,244515,7
151140,244502,3
151110,245437,4
151089,244442,5
151071,244406,5
151042,244376,5
151025,244822,5
151010,244324,4
150994,244309,5
150988,244296,5
150970,244372,5
150954,244247,5
150940,244219,4
150929,244193,5
150915,244169,5
150903,244147,5
150900,244124,5
150870,244117,4
150860,244107,5
150869,244088,5
150858,244081,5
150841,244059,5
150838,244041,4
150820,244035,5
150814,244013,5
150790,243985,5
150784,243986,4
150760,243963,5
150752,243949,5
150756,243948,5
150752,243926,5
150752,243927,4
150741,243923,5
150729,243925,5
150727,243902,5
150725,243900,5
150710,243870,4
150708,243867,5
150698,243856,5
150699,243845,5
150685,243848,5
150685,243831,4
150663,243792,5
150669,243787,5
150646,243756,5
150651,243755,5
150630,243734,5
150629,243739,4
150618,243733,5
150620,243719,5
150603,243709,4
150567,243662,4
150541,243635,5
150539,243626,5
150541,243634,5
150546,243639,4
150544,243639,5
150545,243628,5
150521,243611,5
150518,243613,5
150515,243610,4
150528,243594,5
150525,243598,5
150519,243597,5
150496,243571,5
150498,243575,4
150485,243559,5
150481,243558,5
150482,243549,5
150456,243536,5
150447,243518,4
150443,243512,6
150439,243505,4
150419,243489,5
150424,243474,5
150399,243456,4
150367,243417,5
150338,243388,5
150322,243359,5
150291,243344,4
150269,243299,5
150251,243282,5
150222,243253,5
150190,243216,5
150172,243211,4
150169,243192,5
150135,243163,5
150117,243130,5
150102,243109,5
150054,243070,4
150008,243001,5
149669,242951,5
149911,242884,10
149865,242848,4
149827,242783,5
149064,242706,5
149731,242657,5
149676,242586,5
149595,242480,4
148658,242384,5
149468,242269,5
149390,242172,5
149363,242096,4
149179,241994,4
149243,241896,5
149158,241800,5
149092,241700,5
149675,241616,4
148969,241557,5
148929,241474,5
148865,241395,5
149740,241325,5
148769,241257,5
148733,241210,4
148671,241146,5
149027,240997,5
148496,240904,6
148418,240835,3
148395,240800,5
148434,240731,5
148320,240716,5
148293,240668,5
148263,240639,4
148232,240111,5
148211,240600,5
148195,240587,5
148179,240577,5
148167,239757,4
148140,240520,5
148108,240508,5
148066,240482,5
148064,239716,4
148062,240479,5
148037,240493,4
148042,240481,5
148021,240757,5
148005,240469,4
147976,240435,6
147946,240408,4
147878,241207,5
147849,240333,5
147814,240312,6
147814,240322,3
147819,241115,5
147835,240361,5
147873,240429,5
147916,240503,4
147966,240838,5
148014,240686,5
148084,240740,5
148148,240813,5
148174,240909,4
148218,240936,5
148238,240984,5
148249,241025,5
148269,241040,4
148262,241070,4
148277,241080,5
148279,241147,5
148320,241235,5
148362,241361,4
148441,241524,5
148493,241626,6
148527,241755,4
148595,241856,5
148656,241972,4
148737,242096,5
148845,242238,5
148942,242346,5
149009,242469,5
149160,242682,4
149371,242904,5
149571,243139,5
149725,243312,5
149826,243425,5
149939,243545,4
150117,243741,5
150329,243981,5
150568,244247,5
150844,244572,5
151084,244857,4
151306,245083,5
151482,245277,5
151674,245440,5
151851,245628,4
152022,245800,4
152211,245990,5
152327,246137,6
152526,246323,4
152707,246497,4
152851,246675,5
153005,246859,5
153119,247001,5
153221,247122,5
153299,247241,4
153340,247278,5
153367,247311,5
153364,247334,5
153369,247369,5
153387,247368,4
153397,247404,5
153408,247421,5
153451,247448,5
153489,247472,5
153505,247505,4
153524,247533,5
153537,247557,5
153537,247549,5
153545,247551,5
153548,247562,4
153530,247577,5
153518,247598,5
153495,247620,6
153493,247603,3
153479,247574,4
153466,247519,5
153406,247409,5
153348,247360,5
153317,247307,4
153299,247229,5
153297,247187,5
153310,247173,5
153310,247131,5
153286,247109,4
153319,247154,5
153271,247084,5
153234,247053,5
153219,247075,5
153256,247163,4
153271,247183,5
153259,247282,5
153287,247371,5
152804,247408,5
153297,247490,5
153304,247548,4
153326,247612,5
152509,247600,5
153433,247695,6
153490,247748,3
153584,247797,5
152623,247787,5
153545,247677,5
153506,247526,4
153431,247377,5
153490,247241,5
153193,247145,5
153076,247024,5
152883,246934,4
153683,246800,5
152640,246691,5
152503,246561,5
152420,246509,5
153349,246471,4
152240,246402,5
152182,246312,5
152024,246157,5
152259,246033,5
151753,245930,4
151631,245836,6
151488,245690,4
151421,245460,5
151293,245577,5
151220,245503,4
151140,245443,5
151076,244704,5
151038,245451,5
151004,245562,4
150994,245671,4
150965,244692,5
150941,245773,5
150934,245848,5
150931,245919,4
150927,245501,5
150893,246063,5
150870,246106,5
150833,246154,5
150860,246815,4
150843,246295,5
150868,246378,5
150809,246326,5
150789,247362,5
150757,246275,4
150702,246234,5
150657,246201,6
150625,246880,4
150623,246213,5
150598,246172,4
150575,246177,5
150551,246353,5
150521,246110,5
150493,246069,5
150470,246064,4
150460,246063,5
150461,246054,5
150486,246036,5
150492,246030,4
150528,246059,5
150548,246087,5
150573,246096,5
150596,246162,5
150655,246262,4
150705,246321,5
150747,246399,5
150758,246446,5
150808,246526,5
150838,246582,4
150874,246694,5
150890,246763,5
150911,246793,6
150910,246775,4
150909,246731,4
150916,246718,5
150941,246758,5
150999,246823,5
151037,246871,5
151082,246935,4
151101,246978,5
151123,247042,5
151165,247115,5
151171,247138,4
151191,247243,4
151142,247233,5
151087,247280,5
151130,247363,5
151213,247485,4
151247,247602,5
151280,247693,5
151300,247735,5
151388,247869,5
151419,247920,5
151471,248007,4
151525,248116,5
151551,248237,5
151626,248424,5
151621,248524,4
151672,248611,5
151720,248728,5
151744,248833,5
151790,248979,5
151896,249141,4
151952,249197,5
151952,249271,5
152003,249402,5
152047,249533,5
152160,249674,4
152241,249888,5
152263,249995,5
152313,250079,5
152355,250214,4
152398,250282,4
152488,250421,5
152648,250657,5
152756,250820,5
152857,250923,4
152905,250955,6
152946,250970,4
153006,251047,5
153077,251129,5
153197,251274,4
153337,251424,5
153440,251553,5
153548,251665,5
153649,251785,5
153814,251940,4
153962,252038,5
154041,252082,5
154123,252138,5
154264,252227,5
154377,252287,4
154412,252362,5
154581,252366,5
154695,252375,5
154791,252317,4
154260,252263,4
154955,252222,5
155003,252204,5
155074,252204,5
154164,252137,4
155124,252084,5
155111,252095,6
155171,252129,4
154721,252197,5
155247,252296,4
155350,252372,5
155395,252453,5
155938,252491,5
155476,252590,5
155507,252610,4
155551,252711,5
156554,252750,5
155671,252825,5
155719,252966,5
155792,253083,4
156528,253263,5
155990,253396,5
156125,253544,5
156229,253684,5
156511,253820,4
156417,253982,5
156468,254046,5
156517,254155,5
156489,253895,4
156308,254230,4
156367,254340,5
156386,254413,5
156401,253736,5
156383,254532,5
156385,254552,4
156403,254602,5
156383,253774,5
156366,254609,5
156272,254580,4
156263,254564,5
156240,254616,5
156171,254515,5
156074,254481,5
156044,254445,4
155963,255122,5
155971,254446,5
155946,254427,5
155878,254355,5
155872,255229,4
155861,254381,5
155865,254380,5
155865,254432,5
155872,254768,5
155879,254439,4
155863,254421,5
155860,254416,5
155854,254464,5
155849,254399,4
155835,254361,4
155834,254343,5
155820,254317,5
155790,254259,5
155791,254249,4
155785,254221,5
155786,254213,5
155803,254213,5
155790,254169,5
155785,254141,4
155791,254091,5
155774,254017,5
155769,253933,5
155773,253913,5
155814,253854,4
155867,253798,5
155917,253715,5
155931,253657,5
155929,253610,5
155971,253541,5
155999,253468,4
155989,253449,5
155978,253358,5
155973,253297,4
155948,253207,4
155933,253134,5
155909,253079,5
155920,253025,5
155924,252976,4
155926,252954,5
155908,252883,5
155919,252843,5
155901,252788,5
155908,252770,4
155928,252748,5
155919,252745,5
155921,252721,5
155907,252691,5
155898,252667,4
155888,252606,5
155888,252582,6
155878,252569,4
155899,252557,5
155920,252514,4
155934,252447,7
155963,252417,3
155990,252438,5
155992,252439,5
155972,252417,4
155942,252364,5
155959,252345,5
155961,252291,5
155950,252237,4
155929,252200,4
155931,252179,5
155929,252153,5
155934,252150,5
155925,252141,4
155921,252124,5
155917,252092,5
155906,252076,5
155914,252090,5
155918,252122,4
155926,252119,5
155922,252156,5
155929,252133,6
155933,252114,4
155936,252104,4
155933,252093,5
155933,252085,5
155928,252068,5
155926,252041,5
155902,252029,4
155894,252016,5
155890,251981,5
155884,251985,5
155882,251982,5
155882,251974,4
155890,251980,9
155562,251986,1
155877,251992,5
155870,251989,4
155871,252028,5
155175,252017,5
155873,252037,5
155868,252017,5
155865,252027,5
155007,252020,4
155850,252011,5
155862,252030,5
155856,252039,6
155814,252049,3
155848,252061,5
155834,252062,5
155828,252048,5
156488,252034,5
155816,252050,4
155824,252045,5
155821,252073,5
156708,252067,5
155824,252082,5
155817,252069,4
155809,252065,5
156167,252089,5
155749,252045,5
155687,252002,4
155657,252015,4
155710,251987,5
155628,252010,5
155632,252004,5
155612,251981,4
155552,251492,6
155539,252015,4
155529,252021,5
155490,252025,5
155428,251273,6
155345,251958,3
155309,251936,5
155268,251891,5
155238,251231,5
155224,251803,5
155173,251737,4
155125,251701,5
155051,251899,5
154975,251494,5
154919,251390,4
154846,251311,5
154828,252082,5
154811,251281,5
154795,251246,5
154767,251221,4
154722,251868,5
154691,251126,5
154614,251050,5
154565,251011,4
154543,251220,4
154542,250947,6
154529,250913,4
154469,250860,5
154467,250868,4
154468,250834,5
154454,250803,5
154414,250759,5
154340,250640,5
154218,250573,4
154179,250533,5
154143,250494,5
154078,250444,5
154029,250402,5
153983,250374,4
153940,250391,5
153902,250374,5
153845,250321,5
153740,250178,5
153629,250096,4
153627,250069,5
153655,250077,5
153681,250111,5
153701,250123,5
153697,250132,4
153710,250140,5
153711,250144,6
153726,250160,4
153763,250177,4
153811,250208,5
153816,250211,5
153845,250211,5
153884,250241,5
153919,250245,4
153920,250195,5
153918,250179,5
153931,250168,5
153924,250117,5
153943,250084,4
153939,250057,5
153908,250007,5
153888,249959,5
153853,249949,5
153811,249900,4
153808,249879,5
153817,249880,5
153813,249864,5
153799,249824,5
153752,249765,4
153730,249731,5
153715,249688,5
153667,249651,6
153627,249612,3
153604,249578,4
153596,249568,5
153582,249543,5
153570,249528,5
153520,249464,4
153439,249408,5
153383,249341,5
153345,249292,5
153341,249295,5
153348,249325,4
153342,249308,5
153332,249297,5
153283,249287,5
153264,249266,5
153232,249230,4
153183,249173,5
153108,249107,5
153034,249037,5
152939,248932,5
152885,248895,5
152844,248876,4
152834,248881,5
152835,248881,5
152817,248882,5
152826,248871,4
152810,248868,5
152783,248837,5
152732,248793,5
152674,248753,4
152673,248736,4
152644,248711,5
152601,248659,5
152221,248584,5
152437,248488,4
152302,248341,5
152203,248236,5
151496,248129,5
152060,248073,5
152005,248030,4
151978,248000,5
151232,247965,5
151928,247940,5
151881,247918,5
151860,247889,4
151819,247819,6
151747,247768,4
151715,247743,5
151689,247705,5
152189,247605,4
151468,247465,5
151373,247384,5
151342,247331,5
152070,247308,5
151299,247289,4
151250,247231,5
151197,247203,5
151485,247168,5
151146,247161,4
151132,247129,5
151078,247074,5
151079,246966,5
150934,246893,5
150876,246830,4
150783,246715,5
150701,246212,5
150658,246606,5
150662,246607,5
150641,246565,4
150588,245850,5
150507,246397,6
150402,246291,4
150316,246192,5
150239,245628,4
150177,246050,5
150126,245993,5
150096,245961,5
150047,246192,5
149950,245779,4
149829,245594,5
149732,245527,5
149722,246186,5
149682,245451,4
149653,245434,4
149640,245414,5
149587,245933,5
149536,245321,5
149453,245218,4
149407,245154,5
149334,245255,5
149218,244907,5
149065,244711,5
148949,244540,4
148819,244415,5
148724,244249,5
148674,244130,6
148585,243921,4
148474,243765,4
148360,243615,5
148093,243300,5
147760,242929,5
147665,242790,5
147653,242737,4
147553,242579,5
147382,242370,5
147271,242294,5
147286,242308,5
147319,242294,4
147220,242162,5
146999,241887,5
146767,241650,5
146667,241533,4
146606,241435,4
146533,241366,5
146384,241156,5
146153,240837,5
145849,240410,5
145561,240059,4
145337,239741,5
145193,239590,5
145096,239458,5
144997,239339,4
144878,239194,5
144772,239092,5
144743,239056,5
144687,238982,5
144633,238900,4
144544,238768,5
144435,238623,5
144270,238418,5
144079,238187,5
143899,237982,4
143805,237880,5
143754,237819,5
143697,237726,5
143624,237644,5
143515,237510,4
143386,237319,5
143193,237097,5
143049,236892,5
142872,236651,4
142762,236495,6
142619,236299,4
142388,235990,5
142217,235791,5
142122,235707,4
142070,235610,5
141982,235503,5
141880,235348,5
141720,235164,5
141614,235053,4
141568,234982,5
141533,234953,5
141534,234937,5
141489,234883,5
141407,234764,4
141286,234618,5
141162,234470,5
141089,234401,5
141074,234388,5
141090,234401,4
141065,234366,5
140980,234227,5
140879,234114,5
140801,233998,4
140725,233927,4
140725,233950,6
140726,233927,4
140691,233870,5
140571,233725,4
140452,233570,5
140376,233462,5
140306,233368,5
140273,233322,5
139998,233253,4
140124,233111,5
140024,232955,5
139951,232866,5
139453,232749,5
139826,232679,4
139798,232649,5
139771,232605,5
139230,232519,5
139594,232351,5
139483,232237,4
139419,232152,5
139408,232083,5
139309,231978,5
139215,231831,4
139062,231618,4
139318,231438,5
138797,231330,5
138726,231234,5
138653,231173,4
139136,231107,4
138537,230984,5
138428,230824,5
138336,230750,5
138539,230733,4
138332,230751,5
138352,230759,5
138340,230744,5
138343,230670,5
138225,230587,4
138123,230459,5
138027,230364,5
137989,230015,5
137960,230287,5
137912,230217,4
137843,230143,4
137765,229598,5
137732,230004,5
137738,230056,5
137770,230084,3
137792,229778,5
137776,230078,5
137725,229986,5
137665,229916,5
137596,230059,4
137527,229764,5
137521,229760,5
137521,229773,5
137473,230198,4
137422,229594,5
137333,229510,5
137298,229456,5
137270,229811,5
137291,229456,4
137305,229455,5
137309,229465,5
137274,229503,5
137196,229268,5
137117,229755,4
137032,229660,6
136979,229601,4
136968,229589,5
136945,229558,5
136895,229486,6
136827,229405,3
136799,229366,5
136798,229376,5
136802,229405,5
136801,229392,4
136801,229392,5
136775,229366,5
136753,229363,5
136750,229360,4
136753,229365,4
136770,229377,5
136750,229358,5
136713,229324,5
136630,229216,4
136567,229129,5
136501,229076,5
136478,229051,5
136464,229034,5
136457,229038,4
136476,229056,5
136475,229086,6
136491,229101,4
136506,229133,5
136548,229214,4
136604,229254,5
136611,229288,5
136595,229255,5
136579,229242,5
136558,229210,4
136538,229208,5
136545,229232,5
136593,229285,5
136612,229308,5
136631,229296,4
136623,229292,5
136594,229274,5
136620,229271,5
136631,229302,4
136651,229323,4
136656,229320,5
136634,229292,5
136602,229262,5
136593,229248,4
136574,229230,5
136554,229203,5
136544,229183,6
136531,229166,4
136487,229108,4
136464,229105,5
136491,229139,5
136503,229157,5
136529,229183,5
136562,229234,4
136560,229230,5
136541,229182,5
136517,229183,5
136509,229183,5
136528,229204,4
136550,229228,5
136565,229242,5
136557,229217,5
136533,229206,5
136531,229177,4
136541,229194,5
136592,229261,5
136657,229351,5
136706,229414,5
136732,229433,4
136750,229448,5
136736,229447,5
136753,229441,11
136753,229441,3
136764,229452,5
136770,229446,5
136519,229473,5
136802,229501,4
136817,229523,5
136832,229533,5
136426,229532,5
136846,229532,5
136825,229534,4
136846,229533,5
136486,229573,5
136890,229616,5
136929,229655,5
136928,229685,4
137089,229693,5
136941,229694,5
136980,229764,5
137060,229865,5
137567,229960,5
137182,230016,4
137225,230052,5
137238,230065,5
137624,230072,6
137253,230082,3
137276,230114,5
137314,230174,5
137520,230242,5
137400,230263,4
137389,230234,5
137368,230214,5
137395,230126,5
137423,230285,5
137469,230377,4
137552,230508,5
137621,230232,5
137652,230615,5
137648,230611,5
137660,230641,4
137705,230276,5
137792,230837,5
137857,230880,5
137865,230891,5
137875,230756,4
137880,230879,6
137865,230878,4
137903,230944,5
137974,231341,4
138064,231126,4
138103,231160,5
138105,231138,5
138085,231604,5
138041,231065,4
138053,231067,5
138076,231094,5
138112,231401,5
138112,231129,5
138093,231093,4
138062,231056,5
138053,231111,5
138032,231025,5
138060,231041,5
138075,231046,4
138086,231057,5
138074,231044,5
138077,231038,5
138070,231024,5
138058,230999,4
138070,231016,5
138104,231040,6
138134,231085,4
138159,231115,5
138205,231134,4
138216,231159,5
138219,231169,5
138234,231218,5
138310,231323,4
138423,231473,4
138508,231594,5
138573,231691,5
138588,231719,5
138592,231694,4
138561,231660,5
138545,231644,5
138546,231638,5
138521,231604,5
138492,231531,4
138424,231453,5
138383,231394,5
138366,231383,5
138352,231379,5
138372,231374,4
138357,231364,5
138345,231342,5
138296,231274,6
138271,231220,4
138235,231193,4
138232,231182,5
138232,231173,5
138207,231139,5
138149,231070,5
138097,230995,4
138044,230936,5
138021,230898,5
137996,230863,5
137984,230855,4
137976,230850,4
137958,230826,5
137956,230803,5
137937,230797,5
137922,230789,4
137933,230777,5
137902,230752,5
137891,230752,5
137890,230744,5
137862,230709,5
137845,230687,4
137829,230665,5
137808,230626,5
137801,230617,5
137793,230630,4
137782,230586,5
137741,230539,5
137702,230485,5
137665,230440,5
137646,230412,4
137621,230377,5
137595,230339,5
137549,230256,5
137458,230151,4
137413,230097,4
137392,230074,5
137406,230071,5
137402,230061,5
137395,230043,4
137372,230031,5
137350,229977,5
137336,229984,5
137359,229994,5
137365,230019,4
137316,230000,6
137378,229995,4
137374,230010,5
137370,229998,5
137036,229966,4
137349,229982,5
137341,229979,5
137344,229984,5
136881,229961,5
137303,229931,4
137281,229909,5
137262,229885,5
137014,229896,5
137275,229902,5
137279,229928,4
137287,229931,5
137515,229919,5
137267,229880,5
137214,229833,4
137158,229742,4
137573,229674,5
137077,229633,5
137065,229625,5
137067,229619,4
137393,229624,5
137065,229631,6
137045,229595,4
137038,229582,5
137113,229559,4
137008,229542,5
137016,229539,5
137010,229527,5
136985,229302,5
136895,229348,4
136785,229202,5
136685,229074,5
136608,228613,5
136590,228963,5
136562,228889,4
136542,228885,5
136525,228412,5
136494,228829,5
136477,228821,5
136492,228841,5
136525,228893,4
136523,228875,5
136527,228869,5
136534,228887,4
136530,229272,4
136548,228895,5
136558,228913,5
136610,228963,5
136610,229484,4
136637,229006,5
136618,228973,5
136590,228951,5
136577,229170,5
136571,228954,4
136574,228942,5
136586,228946,5
136570,228983,5
136576,228930,5
136554,228929,4
136550,228920,5
136564,228929,5
136578,228951,5
136604,228988,5
136618,228975,4
136622,228993,5
136611,228982,5
136600,228971,5
136579,228957,5
136565,228940,4
136559,228941,5
136558,228928,5
136555,228929,5
136551,228917,4
136532,228905,4
136529,228900,5
136509,228883,5
136507,228892,5
136527,228876,4
136515,228877,5
136532,228897,5
136524,228884,5
136506,228880,5
136517,228909,4
136572,228940,5
136591,228982,5
136602,228976,5
136597,228968,5
136550,228919,4
136499,228881,5
136507,228884,5
136517,228889,5
136534,228907,5
136529,228893,5
136531,228897,4
136513,228871,5
136480,228833,5
136430,228780,5
136399,228748,4
136394,228726,5
136388,228707,5
136356,228680,5
136344,228637,4
136314,228600,5
136278,228570,5
136269,228569,5
136284,228564,5
136295,228562,4
136268,228533,5
136250,228520,5
136217,228454,5
136155,228366,5
136095,228310,4
136043,228263,5
136006,228203,5
135969,228168,4
135937,228095,5
135880,228012,4
135830,227923,6
135803,227890,3
135806,227894,5
135809,227906,5
135816,227888,4
135798,227874,5
135756,227803,5
135684,227722,5
135640,227648,4
135614,227645,4
135620,227641,5
135594,227622,5
135592,227603,5
135599,227590,4
135580,227570,5
135568,227571,5
135569,227573,5
135592,227589,5
135589,227595,4
135585,227571,5
135446,227538,5
135494,227460,6
135444,227395,4
135422,227386,4
135083,227382,5
135430,227373,5
135414,227360,5
135382,227312,5
134889,227243,4
135315,227208,5
135300,227180,5
135289,227186,5
135157,227173,5
135258,227111,4
135236,227082,5
135153,226958,5
135366,226844,5
134993,226744,4
134967,226741,4
134965,226716,5
135429,226685,5
134935,226672,5
134918,226630,5
134867,226577,4
135099,226525,5
134808,226496,5
134820,226505,6
134800,226482,3
134885,226481,5
134770,226437,5
134740,226388,5
134729,226379,5
134720,226166,4
134718,226378,5
134724,226365,5
134723,226389,5
134743,226003,5
134732,226392,4
134722,226380,5
134724,226385,5
134746,225956,5
134766,226419,5
134791,226449,4
134798,226461,5
134767,226491,5
134773,226425,5
134781,226461,4
134805,226489,5
134846,226934,4
134860,226545,5
134870,226562,5
134871,226545,6
134850,227016,3
134863,226541,5
134881,226576,5
134897,226588,5
134865,226747,4
134863,226543,5
134845,226510,5
134780,226455,5
134757,226439,5
134733,226390,4
134756,226426,5
134771,226423,5
134793,226457,5
134821,226487,5
134812,226476,4
134825,226491,5
134842,226518,5
134894,226585,5
134921,226595,5
134933,226666,4
134961,226671,6
134949,226673,4
134966,226689,5
134967,226694,4
134974,226720,4
134999,226728,5
135023,226776,5
135058,226835,5
135071,226837,4
135081,226845,5
135105,226891,5
135139,226941,5
135173,227001,5
135218,227050,4
135252,227106,5
135276,227141,5
135329,227217,5
135364,227239,5
135382,227271,4
135380,227272,5
135390,227272,5
135412,227304,5
135439,227330,5
135475,227396,4
135472,227394,5
135476,227386,6
135479,227411,4
135480,227415,5
135503,227457,4
135567,227531,5
135632,227636,5
135673,227696,5
135674,227711,4
135690,227732,5
135736,227834,5
135838,227975,5
135955,228116,5
136065,228284,4
136141,228374,5
136141,228381,5
136134,228366,5
136120,228356,5
136125,228373,4
136146,228414,5
136190,228474,5
136222,228490,5
136218,228480,5
136227,228499,4
136243,228535,5
136281,228583,5
136365,228712,6
136500,228877,4
136538,228935,4
136544,228933,5
136558,228946,5
136582,229013,5
136702,229202,4
136890,229451,4
137037,229593,5
137040,229596,5
137002,229542,5
136997,229564,4
137041,229608,5
137048,229635,9
137055,229636,1
137055,229641,5
137048,229617,4
137034,229594,5
137054,229641,5
136907,229665,5
137119,229722,5
137202,229848,5
137289,229948,4
136952,229988,5
137337,229976,5
137336,230000,6
137391,230078,3
137047,230234,5
137707,230529,5
137929,230800,5
138071,230976,5
138075,231017,4
138095,231010,5
138103,231037,5
138133,231083,5
138611,231240,4
138301,231306,4
138287,231252,5
138198,231145,5
138617,231047,5
138078,231023,4
138078,231006,5
138072,231004,5
138344,231049,5
138118,231060,5
138113,231043,4
138075,230995,6
138108,230977,4
138057,230973,5
138073,231017,5
138106,231033,4
138079,230701,5
137979,230856,5
137844,230686,5
137780,230651,5
137837,230275,4
137893,230797,5
137980,230912,5
138049,230972,5
138046,230556,5
137934,230801,4
137850,230720,5
137846,230712,5
137875,230926,5
137917,230782,4
137949,230834,4
137942,230821,5
137900,231245,5
137839,230691,5
137859,230731,4
137921,230808,5
137982,231297,6
138030,230916,4
137989,230884,5
137962,230840,4
137908,230913,5
137862,230731,5
137860,230735,5
137911,230800,5
137989,230907,4
138008,230925,5
137972,230862,5
137921,230810,5
137934,230818,5
137956,230848,4
137993,230913,5
138018,230917,5
137980,230873,5
137943,230833,5
137911,230800,4
137924,230808,5
137928,230825,5
137938,230832,5
137939,230829,4
137940,230827,5
137932,230796,5
137874,230724,6
137817,230678,4
137779,230644,4
137760,230644,5
137775,230654,5
137805,230665,5
137807,230686,5
137805,230679,4
137799,230678,5
137819,230714,5
137876,230777,5
137959,230917,5
138052,230997,4
138078,231029,5
138059,230997,5
138014,230938,5
137980,230920,5
137997,230946,4
138068,231042,5
138105,231069,5
138119,231061,5
138051,230963,5
137966,230883,4
137954,230875,5
137963,230887,5
137992,230919,5
138021,230966,4
138050,231000,5
138066,231019,5
138082,231022,5
138078,231050,5
138117,231096,4
138166,231169,5
138292,231313,5
138313,231292,5
138241,231206,5
138207,231181,4
138182,231153,5
138192,231157,5
138237,231238,5
138292,231301,5
138344,231383,4
138387,231435,5
138409,231425,5
138393,231411,5
138385,231409,5
138384,231432,5
138465,231535,4
138556,231639,5
138649,231747,5
138662,231755,4
138627,231726,4
138608,231703,5
138623,231722,5
138662,231782,5
138728,231863,4
138763,231905,5
138793,231923,5
138808,231928,5
138808,231925,5
138788,231929,4
138827,231972,5
138899,232085,5
138989,232192,5
138800,232278,5
139061,232245,4
138957,232112,5
138867,232010,5
138407,232000,5
138858,232038,5
138924,232105,4
138967,232172,6
138562,232233,4
139011,232211,5
138986,232204,5
139048,232310,4
139311,232463,5
139328,232667,5
139451,232795,5
139475,232812,4
139853,232713,5
139308,232618,5
139269,232587,5
139299,232626,5
139832,232756,4
139494,232870,5
139511,232880,5
139476,232825,5
139606,232794,5
139452,232820,4
139480,232842,5
139523,232899,5
139572,232847,5
139587,232965,5
139591,232886,4
139531,232876,5
139526,232521,5
139536,232908,5
139574,232949,5
139609,232979,4
139636,232511,5
139640,232993,5
139641,232986,5
139629,232998,5
139663,232871,4
139788,233226,5
139972,233437,5
140050,233517,5
140039,233812,4
140016,233462,5
140036,233521,5
140137,233649,5
140285,234378,5
140420,234000,4
140466,234051,4
140465,234030,5
140413,234298,5
140372,233920,5
140382,233945,3
140425,233993,5
140489,234192,5
140596,234222,5
140686,234324,5
140693,234300,4
140621,234229,5
140632,234240,5
140662,234276,5
140724,234369,5
140762,234407,4
140806,234445,5
140843,234473,5
140811,234444,5
140794,234418,4
140797,234423,4
140835,234485,5
140925,234596,5
141004,234696,5
141042,234728,4
141014,234671,6
140985,234663,4
141027,234701,5
141111,234820,5
141206,234930,6
141268,234980,3
141269,234982,5
141240,234937,5
141206,234899,5
141195,234901,4
141201,234917,5
141210,234920,5
141218,234928,5
141216,234935,5
141213,234937,4
141177,234868,5
141101,234785,5
141103,234805,5
141134,234855,5
141194,234935,4
141265,234991,5
141269,234995,5
141213,234916,5
141144,234830,4
141084,234776,4
141053,234750,6
141038,234726,4
141055,234741,5
141043,234728,4
141015,234690,7
141004,234689,3
140992,234683,5
141002,234691,5
141023,234724,4
141045,234744,5
141049,234738,5
141033,234703,5
140978,234650,5
140951,234641,4
140932,234611,5
140938,234623,5
140959,234635,5
140956,234623,5
140925,234596,4
140899,234563,5
140881,234552,5
140898,234565,5
140901,234600,5
140947,234633,4
140963,234649,5
140944,234622,6
140930,234609,4
140909,234588,4
140878,234555,5
140861,234547,5
140871,234560,5
140894,234583,5
140878,234562,4
140879,234554,5
140878,234551,5
140867,234524,5
140851,234513,5
140810,234473,4
140790,234456,5
140795,234457,5
140779,234427,5
140734,234390,5
140399,234318,4
140627,234260,5
140604,234229,5
140611,234221,5
140165,234231,5
140627,234246,4
140616,234230,5
140596,234204,5
140134,234171,6
140541,234132,3
140523,234089,4
140490,234070,5
140628,234054,5
140475,234046,5
140460,234023,4
140453,233993,5
140900,233965,5
140393,233932,5
140370,233903,5
140364,233895,4
140804,233885,5
140358,233896,5
140351,233867,5
140311,233819,5
140460,233799,4
140268,233767,5
140237,233748,5
140219,233726,5
140205,233589,5
140178,233650,5
140142,233602,4
140090,233523,5
140055,233136,5
140036,233478,6
140023,233462,3
140025,233439,5
140021,232970,5
140029,233457,5
140036,233450,4
139992,233414,4
139932,233114,5
139859,233210,5
139783,233120,5
139698,233046,4
139661,233287,5
139649,232975,5
139635,232958,5
139603,232938,5
139577,233415,4
139545,232852,5
139522,232835,5
139532,232814,5
139527,233185,5
139525,232831,4
139512,232793,6
139496,232774,4
139491,232887,5
139492,232767,5
139492,232790,4
139488,232775,5
139500,232794,5
139492,232765,5
139469,232743,5
139439,232710,4
139409,232667,5
139363,232602,5
139320,232546,5
139274,232481,4
139217,232425,4
139200,232372,5
139143,232323,5
139126,232293,5
139123,232292,4
139102,232261,5
139100,232250,5
139086,232225,5
139058,232193,5
139030,232136,4
139003,232110,5
138985,232093,6
138986,232097,4
138990,232104,5
139005,232115,4
139011,232114,5
139012,232109,5
139020,232107,5
138989,232079,5
138962,232050,4
138940,232010,5
138918,231982,5
138903,231966,5
138865,231921,5
138844,231888,4
138819,231867,5
138791,231842,5
138790,231837,5
138782,231823,4
138789,231841,5
138786,231833,5
138770,231806,5
138767,231794,5
138755,231781,4
138746,231768,5
138709,231723,5
138708,231708,6
138699,231694,4
138694,231702,4
138678,231668,5
138672,231657,5
138670,231658,5
138649,231635,5
138609,231579,4
138585,231564,5
138578,231527,5
138559,231503,5
138535,231456,5
138482,231395,4
138467,231377,5
138471,231382,5
138474,231393,5
138489,231416,4
138486,231412,4
138464,231374,5
138443,231337,5
138414,231333,5
138409,231308,5
138402,231296,4
138377,231270,5
138369,231263,5
138380,231266,5
138386,231262,7
138376,231267,2
138374,231259,5
138375,231261,5
138355,231220,5
138329,231190,4
138314,231167,5
138312,231159,5
138291,231138,5
138266,231085,5
138231,231043,4
137928,231011,5
138168,230961,5
138120,230907,5
138105,230892,5
137647,230893,4
138092,230875,5
138087,230854,5
138082,230855,5
137632,230851,4
138087,230848,5
138090,230866,4
138094,230859,5
138232,230863,5
138098,230866,4
138103,230859,5
138094,230857,5
138543,230849,5
138056,230788,5
138011,230731,4
137986,230712,5
138431,230706,5
137985,230682,5
137962,230657,5
137942,230645,4
138103,230632,5
137921,230622,5
137912,230586,5
137904,230587,5
137915,230498,4
137888,230563,5
137887,230545,5
137864,230510,5
137849,230159,5
137832,230457,4
137806,230431,6
137798,230419,4
137801,229948,5
137792,230410,4
137796,230412,4
137784,230405,5
137790,230160,5
137795,230403,5
137778,230381,4
137781,230389,6
137791,230671,4
137794,230382,5
137775,230381,5
137773,230354,4
137757,230857,5
137750,230330,5
137719,230287,5
137706,230272,5
137697,230623,4
137700,230269,5
137698,230234,5
137667,230215,6
137656,230310,4
137660,230206,4
137666,230217,5
137671,230220,7
137663,230202,3
137643,230189,5
137630,230163,4
137610,230142,5
137593,230117,5
137593,230113,5
137577,230086,4
137569,230099,4
137571,230106,5
137588,230101,5
137603,230131,5
137613,230138,4
137614,230138,5
137630,230146,5
137630,230142,5
137625,230161,5
137642,230171,4
137636,230156,5
137633,230152,5
137624,230135,5
137626,230135,5
137610,230121,4
137594,230093,5
137581,230080,5
137587,230075,5
137586,230080,5
137586,230068,4
137562,230039,5
137571,230051,5
137550,230025,5
137529,229996,5
137532,230008,4
137531,230007,5
137538,230011,5
137530,229997,5
137511,229968,4
137493,229947,4
137471,229900,5
137424,229846,5
137406,229836,5
137415,229831,4
137409,229827,5
137404,229826,5
137412,229817,5
137406,229828,5
137387,229789,5
137365,229753,4
137367,229755,5
137346,229738,5
137346,229707,5
137321,229680,4
137300,229649,5
137269,229622,5
137232,229575,5
137223,229565,5
137222,229564,4
137229,229555,5
137250,229584,5
137240,229570,5
137243,229585,5
137265,229606,4
137250,229595,5
137245,229595,5
137255,229586,5
137249,229574,4
137234,229570,5
137231,229565,5
137224,229555,5
137216,229526,5
137193,229506,4
137203,229504,6
137200,229512,4
137195,229500,5
137181,229481,5
137178,229484,4
137164,229480,5
137164,229468,5
137169,229462,5
137188,229494,5
137223,229519,4
137237,229534,5
137001,229541,5
137214,229514,5
137183,229472,5
137176,229455,4
136734,229435,5
137143,229435,5
137144,229431,5
137135,229433,5
136651,229441,4
137151,229468,5
137176,229470,6
137175,229482,4
137240,229505,4
137208,229535,5
137212,229529,5
137220,229542,5
137647,229547,5
137248,229585,4
137269,229605,5
137271,229606,5
137803,229623,5
137283,229625,5
137282,229618,4
137279,229619,5
137511,229626,5
137305,229632,5
137290,229637,5
137299,229644,4
137338,229631,5
137296,229643,5
137290,229640,5
137294,229649,5
137300,229345,4
137319,229662,5
137311,229652,5
137309,229662,6
137316,229210,4
137324,229688,4
137331,229671,5
137330,229676,5
137324,229283,5
137324,229681,4
137328,229670,5
137325,229677,5
137328,229851,5
137327,229662,5
137322,229659,4
137328,229650,5
137316,230142,5
137315,229674,5
137324,229676,5
137324,229682,4
137336,230136,5
137322,229674,5
137319,229671,5
137323,229676,5
137319,229849,5
137326,229694,4
137335,229688,5
137332,229683,5
137333,229704,6
137343,229692,3
137343,229700,5
137345,229701,5
137341,229712,5
137352,229724,5
137373,229732,4
137367,229746,5
137363,229726,5
137359,229727,5
137350,229714,4
137343,229720,5
137353,229721,5
137360,229728,5
137363,229732,5
137352,229724,4
137348,229717,5
137329,229692,5
137313,229668,5
137309,229677,5
137302,229685,4
137314,229677,6
137309,229678,4
137312,229674,5
137284,229664,5
137271,229635,6
137272,229639,3
137267,229642,5
137281,229655,5
137295,229664,5
137301,229669,4
137296,229658,5
137289,229647,5
137280,229643,5
137281,229656,5
137297,229669,4
137315,229682,5
137301,229658,5
137267,229624,5
137225,229561,4
137198,229555,5
137195,229562,5
137199,229566,5
137198,229567,5
137211,229578,4
137219,229578,5
137207,229571,6
137191,229562,4
137185,229539,5
137183,229557,4
137205,229584,5
137236,229592,5
137240,229616,5
137241,229607,5
137227,229614,4
137231,229599,5
137213,229595,5
137240,229618,5
137275,229661,5
137297,229691,4
137328,229737,5
137329,229745,5
137350,229779,5
137390,229839,4
137475,229950,4
137579,230104,5
137675,230209,5
137705,230249,5
137706,230234,4
137696,230222,5
137702,230227,5
137726,230287,6
137783,230366,4
137870,230442,4
137897,230490,5
137891,230475,5
137868,230448,5
137869,230445,5
137918,230528,4
138025,230691,5
138179,230872,5
138197,231036,5
138378,231102,5
138383,231098,4
138386,231100,5
138042,231140,5
138477,231206,5
138544,231318,5
138611,231362,4
138130,231391,5
138623,231372,5
138605,231362,5
138607,231368,5
138463,231426,4
138725,231557,5
138873,231753,5
139016,231912,6
139393,231973,3
139101,232002,5
139120,232023,5
139141,232077,5
139745,232164,5
139324,232306,4
139432,232410,5
139474,232459,5
139838,232496,5
139507,232490,5
139516,232516,4
139556,232582,5
139709,232655,5
139670,232706,5
139718,232763,5
139761,232805,4
139773,232599,5
139755,232823,5
139811,232902,5
139898,233058,5
140039,232816,5
140174,233397,4
140229,233434,5
140203,233404,5
140181,232869,4
140185,233399,4
140208,233436,5
140289,233541,5
140357,233609,5
140371,233601,4
140341,233570,5
140284,233513,5
140273,233939,5
140306,233562,5
140404,233704,4
140512,233835,5
140598,234506,5
140636,233979,5
140647,233991,5
140649,233993,4
140694,234313,5
140766,234163,5
140891,234312,5
140976,234434,5
141031,234528,4
141035,234471,6
141000,234440,4
140970,234431,5
141003,234443,5
141037,234513,4
141083,234576,5
141127,234621,5
141140,234628,5
141139,234631,4
141141,234638,4
141185,234732,5
141289,234860,5
141402,235000,5
141468,235055,4
141464,235065,5
141456,235053,5
141440,235014,5
141438,235036,5
141457,235070,4
141504,235133,5
141547,235189,5
141588,235222,5
141600,235260,5
141598,235250,4
141589,235239,5
141582,235233,6
141610,235289,4
141673,235376,5
141736,235438,4
141755,235444,5
141750,235438,5
141746,235426,5
141742,235419,5
141729,235418,4
141766,235462,5
141802,235532,5
141851,235559,5
141852,235575,4
141829,235554,5
141836,235561,5
141827,235544,5
141828,235546,5
141849,235590,4
141894,235647,5
141942,235713,5
141955,235721,5
141957,235713,5
141963,235708,4
141949,235691,5
141944,235709,5
141952,235734,6
141996,235759,4
142009,235770,4
142008,235778,5
142000,235780,5
142000,235778,5
141995,235769,5
142001,235786,4
142016,235804,5
142037,235848,5
142073,235884,5
142088,235887,4
142076,235897,4
142074,235912,9
142087,235888,1
142106,235893,5
142150,236002,4
142242,236110,5
142314,236224,5
142364,236261,5
142395,236297,5
142431,236354,5
142460,236396,4
142518,236454,5
142554,236541,5
142590,236567,5
142574,236544,4
142560,236533,5
142549,236528,5
142542,236521,5
142420,236527,5
142545,236536,4
142568,236568,5
142588,236586,5
142200,236604,5
142617,236615,5
142620,236636,4
142635,236663,5
142134,236680,5
142683,236716,5
142723,236779,4
142782,236850,4
142620,236875,5
142810,236884,5
142829,236911,5
142846,236935,4
143199,236943,6
142886,236981,4
142928,237053,5
142968,237092,5
143541,237117,4
142989,237114,5
142973,237110,5
142978,237089,5
143318,237099,5
142978,237090,4
142983,237112,5
142992,237128,5
143093,237111,5
142984,237121,5
142990,237115,4
142969,237098,5
142964,236834,5
142951,237072,5
142954,237071,5
142945,237071,4
142944,236589,5
142939,237059,5
142929,237057,5
142928,237061,5
142921,236503,4
142926,237046,6
142920,237038,4
142935,237063,5
142927,237083,4
142927,237038,5
142920,237042,5
142915,237023,5
142910,237492,5
142917,237022,4
142917,237029,5
142941,237031,5
142940,237642,5
142934,237041,5
142927,237037,4
142908,236998,5
142887,237233,5
142857,236954,5
142852,236939,5
142836,236936,4
142812,236943,5
142787,236861,5
142751,236828,5
142714,236782,5
142693,236755,4
142659,236719,5
142650,236711,5
142647,236705,5
142627,236692,4
142609,236672,4
142572,236638,5
142554,236591,5
142524,236557,5
142502,236550,4
142503,236544,5
142498,236518,5
142460,236491,5
142427,236427,5
142385,236390,4
142348,236347,5
142298,236285,5
142266,236257,5
142253,236218,5
142219,236187,4
142184,236149,4
142161,236094,5
142126,236048,5
142089,236027,6
142081,236012,3
142076,236000,5
142087,236015,5
142102,236014,5
142104,236021,5
142089,235996,4
142062,235953,5
142015,235915,5
141971,235844,5
141950,235823,4
141948,235847,4
141942,235829,5
141940,235838,5
141973,235877,5
141971,235879,4
141970,235869,5
141983,235880,5
141990,235910,5
142013,235913,5
141997,235916,4
142002,235915,6
141987,235904,4
141983,235890,5
141971,235865,5
141964,235860,6
141948,235867,3
141957,235862,5
141954,235885,5
141953,235886,5
141968,235887,4
141963,235895,5
141972,235891,5
141980,235909,5
141995,235931,4
142018,235954,4
142024,235950,5
142018,235947,5
142017,235935,5
142017,235942,4
142008,235938,5
142019,235929,5
142016,235934,5
142003,235916,5
141993,235912,4
141982,235895,5
141968,235883,6
141962,235857,4
141942,235848,5
141917,235807,4
141910,235798,5
141912,235795,5
141901,235801,5
141905,235793,5
141801,235796,4
141912,235813,5
141932,235815,5
141928,235828,5
141550,235825,5
141948,235832,4
141938,235826,5
141932,235831,5
141435,235847,5
141967,235865,4
141988,235889,4
141995,235911,5
141783,235908,5
141992,235894,5
141955,235841,4
141915,235799,5
142206,235761,5
141866,235717,6
141852,235707,4
141832,235679,4
142366,235673,5
141824,235676,5
141815,235664,5
141809,235660,5
142160,235659,4
141788,235618,5
141760,235596,5
141733,235561,5
141797,235506,5
141669,235473,4
141630,235417,5
141587,235365,5
141570,235136,5
141558,235323,5
141558,235335,4
141562,235332,5
141572,234904,5
141579,235358,5
141587,235365,5
141604,235382,4
141591,234840,5
141577,235340,5
141554,235326,6
141542,235287,4
141513,235284,4
141507,235245,5
141488,235232,5
141498,235237,5
141502,235704,4
141498,235251,5
141497,235236,5
141506,235240,5
141498,235825,5
141513,235235,4
141494,235225,5
141474,235210,5
141490,235470,5
141481,235207,5
141484,235215,4
141484,235212,5
141487,235258,5
141478,235211,5
141483,235215,5
141482,235217,5
141497,235236,4
141519,235234,5
141506,235243,5
141505,235225,6
141511,235220,3
141496,235222,5
141484,235186,5
141446,235138,5
141422,235116,4
141422,235113,5
141409,235094,5
141385,235072,5
141363,235037,5
141325,234985,4
141296,234946,5
141271,234912,5
141262,234911,5
141270,234905,5
141265,234909,4
141268,234908,5
141263,234891,5
141267,234897,5
141263,234891,5
141244,234857,4
141238,234868,6
141230,234873,4
141233,234858,5
141217,234839,5
141193,234808,4
141179,234763,5
141150,234728,5
141106,234682,5
141087,234646,4
141064,234618,5
141056,234613,5
141030,234571,5
141021,234557,5
140997,234532,4
140984,234496,5
140930,234445,5
140893,234400,5
140869,234374,5
140863,234363,4
140860,234336,5
140831,234300,5
140808,234271,5
140783,234234,5
140733,234170,4
140713,234138,5
140705,234159,6
140704,234122,4
140687,234102,5
140670,234064,4
140637,234038,5
140605,233970,5
140545,233933,5
140506,233844,5
140455,233792,4
140424,233714,5
140390,233674,5
140325,233581,5
140203,233441,4
140097,233275,5
139955,233088,5
139857,233000,5
139824,232971,5
139829,232971,4
139805,232944,5
139795,232932,5
139787,232921,5
139792,232930,5
139802,232930,4
139805,232923,5
139816,232934,5
139797,232891,6
139752,232824,4
139689,232744,4
139528,232651,5
139552,232539,5
139493,232456,5
139434,232376,5
139030,232370,4
139390,232325,5
139357,232259,5
139274,232161,5
138682,232026,4
139028,231811,4
138896,231651,5
138819,231587,5
138593,231542,5
138749,231486,4
138735,231451,5
138725,231445,5
139028,231453,5
138746,231468,5
138753,231485,5
138774,231491,4
139308,231503,5
138781,231476,5
138756,231456,5
138723,231387,4
139008,231347,5
138601,231249,5
138521,231130,5
138439,231050,5
138511,230976,4
138348,230908,5
138347,230882,5
138308,230833,5
138256,230574,5
138241,230771,4
138255,230785,5
138275,230793,5
138263,230336,5
138259,230768,4
138254,230749,4
138213,230689,5
138189,230160,4
138175,230662,5
138214,230711,4
138273,230787,6
138343,230851,4
138380,230879,5
138445,230924,5
138468,230953,4
138450,231345,5
138442,230931,5
138461,230922,5
138461,230923,5
138485,231471,4
138485,230893,5
138491,230902,5
138498,230885,5
138477,231083,5
138484,230809,4
138494,230814,5
138560,230865,5
138608,230978,5
138662,230983,5
138683,231011,4
138728,231044,5
138741,231034,5
138739,231006,5
138724,230930,4
138684,230849,4
138638,230752,6
138560,230667,4
138487,230574,5
138421,230521,4
138374,230429,5
138359,230400,5
138368,230411,5
138360,230396,5
138354,230400,4
138360,230395,5
138368,230425,5
138390,230464,5
138393,230467,5
138406,230451,4
138398,230435,5
138404,230446,5
138417,230472,5
138404,230451,5
138384,230412,4
138345,230375,5
138327,230362,5
138342,230371,5
138350,230378,5
138341,230365,4
138331,230363,5
138311,230333,6
138291,230317,4
138284,230295,4
138258,230262,4
138227,230203,5
138148,230058,5
137977,229833,5
137822,229651,4
137699,229481,5
137619,229319,5
137516,229190,5
137415,229040,5
137289,228816,4
137046,228478,5
136815,228181,5
136585,227858,5
136386,227590,5
136231,227362,4
136116,227199,5
136027,227116,5
135913,226900,5
135763,226682,5
135617,226502,4
135450,226279,5
135313,226113,5
135228,225977,5
135109,225807,7
134950,225521,2
134679,225149,5
134441,224839,5
134271,224584,5
134081,224322,4
133882,224060,5
133648,223746,5
133379,223325,5
133014,222856,5
132725,222506,4
132525,222263,5
132370,222051,5
132231,221862,5
132089,221681,5
131928,221459,4
131755,221201,5
131577,220927,5
131363,220686,5
131245,220551,5
131168,220470,5
131085,220336,4
130959,220168,5
131487,219948,5
131326,219691,5
131168,219507,4
130793,219350,5
130958,219263,5
130889,219166,5
130810,219035,5
130319,218782,4
130469,218537,5
130297,218278,5
130121,218059,5
129653,217778,4
129707,217481,5
129556,217228,5
129370,216945,5
129259,216603,5
128860,216279,4
128702,216087,5
128613,215984,6
128895,215889,4
128476,215772,5
128406,215678,4
128294,215547,7
128518,215455,3
128182,215425,5
128178,215427,5
128176,215409,4
128235,215356,5
128077,215266,5
127986,215122,5
127914,215015,5
127869,214860,4
127829,214908,5
127808,214875,5
127774,214840,5
127757,214536,4
127719,214752,4
127639,214636,5
127609,214607,5
127596,214255,5
127577,214567,4
127569,214551,5
127555,214536,5
127509,214382,6
127461,214394,4
127435,214342,4
127393,214316,5
127345,214457,5
127241,214091,5
127189,214030,5
127176,213997,4
127148,214339,5
127102,213939,5
127090,213884,5
127006,213723,5
126804,213637,4
126577,213062,5
126325,212699,5
126068,212865,5
125773,212490,5
125470,212042,4
125306,211727,5
125197,211542,5
125056,211302,5
124933,211105,5
124853,211014,4
124847,211017,5
124899,211072,5
124926,211069,6
124864,210970,3
124749,210788,5
124562,210492,5
124218,209959,5
123877,209520,5
123639,209196,4
123449,208890,5
123283,208636,5
123144,208389,5
122963,208151,5
122823,207941,4
122658,207693,5
122525,207579,5
122539,207595,5
122573,207664,5
122666,207801,4
122792,207942,5
122902,208103,5
122975,208201,5
123110,208393,5
123278,208617,5
123406,208787,4
123557,208968,5
123653,209078,5
123750,209190,6
123834,209236,3
123869,209233,5
123900,209287,5
123920,209300,5
124007,209449,4
124123,209604,5
124227,209746,5
124306,209800,5
124368,209895,5
124481,210030,4
124603,210203,5
124713,210343,5
124783,210465,5
124920,210606,5
124967,210652,4
124965,210660,5
124958,210659,5
124987,210727,5
125050,210835,5
125173,210976,4
125262,211107,6
125331,211167,4
125348,211181,5
125340,211168,5
125348,211200,4
125409,211302,5
125496,211426,5
125592,211570,5
125666,211663,4
125718,211702,5
125701,211691,5
125717,211704,5
125706,211710,5
125726,211767,4
125768,211822,5
125822,211890,5
125877,211959,5
125876,211952,5
125859,211924,4
125838,211908,5
125851,211925,5
125900,211996,5
125973,212110,5
126046,212199,4
126052,212192,5
126009,212163,6
125997,212156,4
126000,212161,5
125983,212151,4
125986,212154,5
125808,212177,5
126003,212205,5
126005,212202,4
126009,212221,4
125756,212254,5
126086,212337,5
126145,212402,5
126153,212405,4
125900,212351,5
126024,212180,5
125900,211981,5
125833,211946,5
126020,212040,4
126011,212182,5
126108,212285,5
126179,212372,5
126512,212408,5
126195,212360,4
126162,212334,5
126150,212336,5
126408,212323,6
126128,212291,4
126089,212232,4
126045,212171,5
126096,212094,5
125949,212064,5
125942,212065,5
125959,212093,4
126002,212072,5
126023,212140,5
126017,212121,5
126020,212114,4
125978,211836,4
125941,212019,5
125896,211928,5
125774,211774,5
125625,211272,4
125476,211359,5
125342,211189,5
125204,211005,5
125099,210752,5
125032,210785,5
125007,210754,4
124986,210718,5
124968,210882,5
124921,210613,6
124834,210482,3
124689,210269,5
124521,210361,5
124353,209812,5
124229,209657,5
124158,209569,4
124108,209697,5
124032,209398,5
123930,209236,5
123791,209043,5
123647,208920,4
123584,208786,5
123573,208787,5
123554,208787,5
123561,208777,4
123542,208758,4
123517,208723,5
123490,208674,5
123470,208638,5
123459,208655,4
123454,208644,6
123479,208668,4
123507,208721,5
123541,208751,5
123513,208696,4
123487,208645,5
123435,208581,5
123400,208545,5
123373,208499,5
123361,208459,4
123329,208416,5
123275,208330,5
123178,208185,5
123066,208040,5
122974,207879,4
122851,207712,5
122734,207552,5
122682,207492,5
122602,207355,4
122526,207253,4
122432,207124,5
122341,206976,5
122231,206816,5
122135,206655,4
122020,206512,5
121904,206310,6
121764,206106,4
121613,205855,5
121432,205579,4
121287,205393,5
121153,205200,5
121039,205025,5
120879,204803,5
120721,204579,4
120605,204406,5
120533,204291,5
120465,204197,5
120402,204136,5
120358,204077,4
120325,204035,5
120277,203929,5
120203,203820,5
120125,203701,5
120010,203531,4
119870,203349,5
119757,203194,5
119675,203068,5
119618,202974,4
119538,202880,4
119501,202823,5
119481,202818,6
119491,202783,4
119452,202736,4
119390,202639,5
119319,202518,5
119249,202445,5
119227,202408,5
119198,202367,4
119158,202288,5
119107,202207,5
119064,202155,5
119041,202119,5
119016,202071,4
118967,202002,5
118960,201974,5
118970,201993,5
119004,202053,5
119065,202167,4
119127,202262,5
119246,202432,5
119356,202578,5
119450,202710,5
119524,202785,4
119595,202887,5
119655,202980,5
119563,203077,5
119769,203140,4
119809,203217,4
119841,203247,5
119551,203265,5
119851,203299,5
119887,203342,4
119966,203460,5
119799,203644,5
120197,203830,5
120359,204002,5
120455,204174,4
120703,204374,5
120731,204561,5
120899,204816,5
121110,205112,5
121646,205403,4
121550,205709,5
121753,205986,5
121940,206277,5
122463,206552,5
122318,206788,5
122503,207041,4
122617,207184,5
122790,207227,5
122693,207264,5
122636,207161,4
122564,207053,5
122501,206866,5
122414,206845,5
122376,206771,4
122310,206693,4
122257,206374,5
122199,206518,5
122103,206388,5
122011,206277,4
121961,205875,4
121949,206194,5
121937,206155,5
121856,206087,5
121792,205829,4
121730,205884,5
121660,205792,5
121652,205779,5
121638,205930,5
121620,205723,4
121569,205643,6
121566,205612,4
121521,205918,5
121512,205519,5
121512,205515,4
121514,205519,5
121522,205805,5
121553,205589,5
121563,205571,5
121558,205545,4
121556,205627,5
121543,205532,5
121565,205549,5
121653,205672,4
121740,205800,5
121772,205865,5
121833,205953,5
121867,205982,5
121880,206024,4
121951,206142,5
122072,206326,5
122235,206565,5
122387,206768,5
122581,207044,4
122755,207236,5
122863,207376,5
122932,207482,5
122994,207571,5
123058,207645,4
123120,207729,5
123165,207778,5
123230,207867,5
123276,207895,5
123272,207897,4
123290,207935,5
123320,208014,5
123410,208111,5
123465,208201,4
123536,208287,4
123601,208384,5
123650,208450,5
123702,208531,5
123772,208645,4
123851,208767,5
123919,208862,5
123955,208917,5
123977,208945,5
123973,208937,3
123960,208938,5
123956,208943,5
123955,208948,5
123978,208986,5
123999,209015,4
124047,209066,5
124071,209093,5
124083,209110,5
124097,209141,5
124155,209239,4
124268,209434,5
124455,209667,5
124592,209866,5
124727,210056,5
124810,210137,4
124860,210201,9
124903,210298,1
124993,210415,5
125114,210525,4
125168,210616,5
125264,210726,4
125368,210842,5
125390,210870,5
125430,210895,6
125472,210946,3
125540,211039,5
125606,211121,5
125636,211141,5
125651,211133,4
125626,211039,5
125566,210954,5
125533,210904,5
125510,210869,5
125535,210891,4
125546,210897,5
125568,210873,5
125570,210867,5
125554,210829,5
125516,210776,4
125483,210719,5
125462,210703,5
125428,210643,5
125399,210579,5
125357,210524,4
125325,210469,6
125283,210419,4
125241,210383,5
125016,210353,4
125243,210375,6
125254,210360,3
125286,210395,5
124934,210388,5
125280,210335,4
125240,210275,5
125204,210219,5
124814,210231,5
125185,210199,5
125195,210235,4
125258,210284,5
125417,210367,5
125407,210481,5
125498,210610,5
125619,210784,4
126105,210931,5
125814,211024,5
125892,211116,5
125932,211152,5
126295,211134,4
125899,211122,5
125914,211117,6
125939,211151,4
126118,211177,5
126025,211258,4
126096,211371,5
126171,211460,5
126246,211473,5
126282,211622,4
126324,211680,4
126377,211735,5
126382,211471,5
126438,211821,5
126448,211831,4
126469,211829,5
126456,211404,5
126450,211778,5
126422,211729,5
126414,211732,5
126434,211550,4
126422,211714,5
126374,211662,5
126333,211557,5
126237,211660,4
126123,211227,5
126012,211087,5
125958,211014,6
125939,211448,4
125930,210967,4
125901,210922,5
125847,210851,5
125757,211015,5
125702,210625,5
125683,210614,4
125680,210613,5
125686,210700,5
125700,210625,5
125691,210583,4
125669,210549,4
125661,210563,5
125700,210604,5
125757,210681,5
125817,210775,4
125894,210863,5
125970,210970,5
126060,211092,5
126156,211223,5
126268,211391,5
126436,211610,4
126626,211883,5
126880,212232,5
127133,212566,6
127332,212813,3
127477,213010,5
127627,213223,5
127850,213528,5
128115,213913,5
128498,214476,4
128921,215012,5
129300,215535,5
129635,215941,5
129927,216311,5
130215,216748,4
130564,217213,5
130977,217820,5
131465,218528,5
131940,219169,4
132415,219793,4
132771,220209,5
133017,220507,5
133258,220818,5
133521,221213,4
133892,221754,6
134369,222435,4
134893,223161,5
135324,223686,5
135625,224120,4
135947,224569,5
136384,225171,5
136860,225782,5
137376,226465,5
137896,227174,4
138310,227667,5
138594,228018,5
138824,228322,5
139091,228660,5
139291,228952,4
139473,229217,5
139667,229467,5
139842,229044,5
139865,229085,5
139858,229069,4
139812,229069,5
139814,229083,5
139765,229033,5
139665,228936,4
139565,228809,5
139426,228626,6
139227,228412,4
139033,228184,5
138873,228016,4
138756,227891,5
138658,227796,5
138603,227713,5
138508,227620,5
138398,227501,4
138252,227354,5
138192,227309,5
138147,227297,5
138137,227291,5
138121,227282,4
138105,227260,5
138056,227179,5
137939,227011,5
137832,226909,5
137763,226836,4
137725,226768,5
137709,226745,5
137678,226681,5
137598,226586,5
137185,226403,4
137362,226284,5
137307,226228,6
137285,226203,4
136787,226182,4
137257,226150,5
137216,226101,5
137129,225982,5
136497,225832,5
136926,225774,4
136928,225765,5
136943,225792,5
137091,225811,5
136955,225793,5
136920,225731,4
136820,225587,5
137196,225489,5
136683,225456,5
136679,225450,5
136687,225425,4
137160,225432,5
136639,225360,5
136541,225205,5
136420,225056,5
136532,224994,4
136334,224994,5
136338,224983,5
136347,224990,6
136347,224880,3
136305,224911,4
136205,224774,5
136113,224691,5
136068,224302,5
136056,224665,4
136073,224695,5
136062,224690,5
136073,224192,5
136025,224611,5
135953,224517,4
135895,224467,5
135788,224104,5
135681,224188,5
135658,224184,5
135607,224080,4
135416,224112,5
135048,223294,5
134541,222649,5
134111,222120,5
133853,222363,5
133605,221499,4
133399,221205,5
133097,220829,5
132980,221023,5
132915,220648,4
132927,220645,5
134665,222721,5
133696,221931,5
134036,222230,4
134088,222317,4
134272,222542,5
134297,222541,5
134269,222476,5
134198,222399,4
134195,222391,5
134264,222464,5
134356,222555,5
134441,222668,5
134618,222911,4
134873,223240,5
135153,223613,5
135466,224028,5
135833,224464,5
135984,224572,4
135908,224424,6
135677,224133,4
135441,223836,5
135206,223561,5
135054,223398,4
134991,223320,5
134914,223202,5
134767,223014,5
134610,222806,5
134487,222680,4
134472,222700,5
134522,222766,5
134610,222883,5
134649,222930,4
134637,222883,5
134600,222833,5
134557,222753,5
134450,222638,5
134501,222700,4
134554,222758,5
134591,222804,5
134605,222804,5
134567,222772,5
134519,222701,4
134518,222732,5
134562,222798,6
134623,222851,4
134591,222791,5
134578,222781,4
134587,222782,5
134543,222765,5
134531,222754,5
134537,222755,5
134559,222785,4
134644,222912,5
134616,222909,5
134617,222868,5
134428,222636,4
134582,222804,4
134589,222799,5
134542,222768,5
134522,222704,5
134481,222679,4
134285,222393,5
134519,222735,5
134396,222511,5
134353,222528,5
134329,222532,4
134410,222654,5
134568,222847,5
134642,222921,5
134619,222908,5
134628,222964,4
134700,223085,5
134823,223280,5
134984,223512,5
135128,223701,5
135175,223807,4
135238,223893,5
135275,223958,5
135273,223947,5
135238,223862,5
135115,223685,4
135001,223529,5
134965,223501,5
134978,223487,5
134964,223462,4
134959,223454,5
134745,223541,4
135123,223709,5
135251,223845,5
135254,223797,5
134753,223726,4
135178,223704,5
135228,223764,5
135276,223825,5
134843,223862,4
135362,223933,5
135453,224056,5
135550,224183,5
135775,224320,5
135761,224441,4
135819,224476,5
135814,224487,5
136341,224605,5
136088,224895,5
136355,225218,4
136524,225425,5
137182,225712,5
136929,226032,5
137205,226424,5
137604,227013,4
138292,227712,5
138730,228591,5
139433,229495,5
140088,230345,4
140728,231021,5
141171,231772,4
141654,232399,5
141997,232839,5
142225,232768,4
142333,233287,5
142287,233233,5
142197,233111,5
142171,232541,5
142115,233084,4
142213,233198,5
142274,233334,5
142623,233612,5
142950,234279,5
143089,234563,4
143196,234684,5
143215,235028,5
143078,234546,5
142885,234271,5
142617,234025,4
142517,234523,5
142349,233707,6
142159,233485,4
142035,233353,5
141874,233556,4
141569,232758,5
141331,232482,5
141094,232178,5
140816,231946,4
140596,231502,4
140258,231001,5
139819,230390,5
139386,229866,5
139008,229361,4
138657,228880,5
138287,228447,5
138089,228175,5
137876,227892,5
137701,227637,4
137460,227314,5
137248,227059,5
137147,226912,5
137013,226719,5
136835,226476,4
136656,226228,5
136526,226054,5
136454,226010,6
136372,225877,4
136158,225625,4
136049,225481,5
135943,225371,5
135880,225262,5
135750,225082,4
135657,225003,4
135709,225065,5
135692,225014,5
135614,224930,5
135598,224943,4
135622,224947,5
135608,224942,5
135630,224970,5
135650,224979,5
135647,225007,4
135632,224972,5
135613,224966,5
135607,224963,5
135629,225003,5
135641,225006,5
135649,225013,4
135644,225012,5
135639,225013,5
135632,225025,6
135638,225019,3
135622,224991,5
135628,224992,5
135596,224961,5
135572,224922,7
135526,224867,2
135464,224768,5
135359,224676,5
135302,224585,5
135232,224496,4
135196,224421,4
135088,224284,5
134990,224131,5
134816,223926,5
134684,223743,4
134566,223587,5
134455,223448,5
134337,223297,5
134254,223171,5
134148,223055,4
134055,222910,6
133902,222719,4
133754,222536,5
133614,222305,5
133452,222085,6
133282,221840,3
133091,221577,5
132934,221354,5
132775,221105,5
132629,220900,4
132479,220702,5
132284,220395,5
132031,220083,5
131815,219773,5
131535,219367,4
131269,219014,5
131072,218705,5
130783,218313,5
130496,217959,4
130288,217684,4
130157,217501,5
129773,217241,5
129802,216960,5
129592,216666,4
129362,216353,5
128763,216055,6
128914,215698,4
128668,215340,5
128469,215055,4
127841,214749,5
128072,214478,5
127870,214179,5
127692,213928,5
127656,213777,4
127425,213583,5
127337,213439,5
127203,213237,5
127463,213087,5
126971,212913,4
126848,213288,5
126692,213054,5
126912,212707,5
126204,212327,5
125918,211861,4
125575,211345,5
125458,210966,5
125100,210675,5
124837,210289,4
124598,209929,5
124361,209482,5
124074,209128,6
123866,208854,4
123659,208527,4
123505,208002,5
123330,207980,5
123134,207720,5
122986,207481,5
122825,206854,4
122636,206964,5
122512,206736,5
122359,206505,5
122215,206011,5
122073,206037,4
121938,205827,5
121755,205486,5
121524,205346,5
121332,204858,5
121112,204533,4
120965,204304,5
120710,204368,5
120427,203558,5
120068,203045,5
119782,202649,4
119475,202488,5
119124,201699,5
118804,201251,6
118479,200785,3
118142,200427,5
117875,199991,5
117645,199647,5
117392,199312,5
117174,199039,4
116996,198759,5
116716,198335,5
116460,197967,5
116215,197673,5
115955,197288,4
115661,196948,5
115358,196518,5
115078,196635,5
114734,196150,5
114457,195773,4
114921,195408,5
114672,195084,5
114504,194820,5
114319,194581,5
114096,194240,5
113809,193796,4
113448,193227,5
112934,192494,5
112462,191817,4
111829,190919,4
111227,190060,5
110504,189005,5
109623,187632,5
108727,186410,4
107963,185379,5
107266,184453,5
106736,183800,5
106298,183220,5
105862,182500,4
105298,181701,5
104761,180952,5
104150,179975,5
103398,179647,5
102726,178642,4
101906,177440,5
101131,176339,5
100268,175085,5
99497,173972,5
98782,173019,4
98190,172178,6
98253,171487,4
97768,170772,5
97187,169915,5
96583,169046,4
96047,168267,5
95528,167552,5
94995,166734,5
94396,165866,4
93780,164886,4
93016,163753,5
92144,162977,5
91064,161474,5
90181,160216,4
89490,159229,5
88958,158427,5
88394,157739,5
88053,157159,5
87763,156736,4
87524,156396,5
87304,156048,5
87150,155878,5
87090,155766,5
86974,155548,4
86791,155205,5
86538,154777,6
86262,154359,4
85985,153962,5
85752,153642,4
85621,153468,5
85535,153341,5
85447,153219,5
85403,153158,5
85425,153187,4
85439,153207,5
85415,153143,5
85334,152995,5
85256,152831,4
85137,152669,5
85041,152512,5
84944,152367,5
84784,152285,5
84812,152207,4
84790,152152,5
84716,152042,5
84496,151916,5
84555,151805,5
84507,151742,4
84515,151749,5
84361,151749,5
84528,151769,6
84511,151746,4
84497,151730,4
84532,151784,5
84574,151851,5
84647,151955,5
84677,152017,5
84825,151998,4
84698,152053,5
84770,152181,5
84888,152373,5
85242,152644,5
85182,152808,4
85307,152999,5
85408,153130,5
85588,153279,5
85597,153415,4
85694,153572,5
85836,153809,5
86020,154074,5
86195,154372,5
86430,154712,5
86647,155032,4
86937,155376,5
87228,155881,5
87496,156292,5
87730,156644,4
87968,156831,5
88186,157354,5
88337,157569,5
88469,157779,5
88623,157865,4
88824,158341,5
89048,158701,5
89229,158997,5
89413,159315,5
89603,159569,4
89728,159738,5
89797,159828,5
89894,160208,5
90003,160190,4
90076,160287,4
90094,160332,6
90107,160539,4
90094,160275,5
89973,160053,4
89893,159973,7
89778,159915,3
89721,159787,5
89713,159782,5
89750,159844,4
89756,159856,5
89769,159892,5
89827,160003,5
89976,160243,5
90151,160503,4
90340,160815,5
90522,161107,5
90652,161290,5
90780,161494,5
90936,161732,4
91088,162001,5
91269,162308,5
91538,162702,5
91743,163013,5
91860,163193,4
91979,163370,5
92126,163614,5
92322,163947,5
92538,164252,4
92724,164521,4
92894,164777,6
93049,164956,4
93114,165070,5
93220,165233,4
93347,165444,5
93528,165708,5
93710,165980,5
93874,166206,5
93996,166385,4
94156,166613,5
94235,166695,5
94334,166836,5
94458,167023,5
94605,167231,4
94738,167423,5
94874,167600,5
95028,167844,5
95188,168067,5
95313,168284,4
95586,168691,5
95859,169137,5
96144,169551,5
96388,169871,5
96612,170185,4
96776,170404,5
96878,170526,5
96959,170652,5
97037,170788,4
97154,170988,4
97296,171178,5
97422,171364,5
97516,171479,5
97549,171502,4
97531,171478,5
97559,171541,5
97632,171634,5
97719,171760,5
97818,171895,4
97896,172034,5
97955,172083,5
97972,172123,5
97986,172155,5
98050,172249,5
98102,172323,4
98169,172390,5
98159,172383,5
98112,172285,6
98051,172184,3
98005,172151,5
98028,172188,5
98066,172250,5
98107,172304,5
98123,172338,4
98156,172378,5
98167,172403,5
98181,172415,5
98218,172488,4
98278,172578,4
98377,172739,5
98478,172878,5
98532,172942,5
98413,172855,4
98420,172730,5
98313,172554,5
98295,172528,5
98113,172560,5
98339,172584,4
98340,172581,6
98338,172553,4
98064,172479,5
98270,172445,5
98291,172486,6
98346,172540,3
98322,172605,5
98423,172682,5
98480,172732,5
98485,172738,4
98679,172754,5
98520,172812,5
98601,172950,5
98731,173164,5
99107,173317,4
98916,173427,5
98962,173508,5
99039,173610,5
99229,173642,4
99090,173665,4
99113,173705,5
99162,173754,5
99247,173807,5
99214,173815,4
99200,173777,5
99174,173737,6
99178,173608,4
99199,173783,5
99255,173863,4
99311,173939,5
99355,173788,5
99396,174050,5
99433,174124,5
99466,174182,4
99544,174091,4
99722,174639,5
99939,174994,5
100185,175372,5
100408,175737,4
100616,176005,5
100797,176251,5
100935,176487,5
101101,176986,5
101328,177128,4
101570,177475,5
101779,177782,5
101923,178260,5
102053,178134,4
102133,178243,5
102267,178495,5
102580,179136,6
103085,179830,4
103848,181026,4
104654,181660,5
105502,182890,5
106241,183908,5
106796,184633,5
107524,185817,4
108240,186745,5
108766,187463,5
109234,188073,5
109642,188606,5
109941,188959,4
110155,189215,5
110370,189501,5
110572,189802,5
110806,190106,5
110975,190324,4
111121,190479,5
111185,190526,5
111178,190509,5
111200,190525,5
111213,190507,4
111244,190633,5
111367,190806,5
111447,190917,6
111489,190941,3
111469,190887,5
111396,190765,5
111245,190517,5
111064,190216,5
110823,189853,4
110557,189476,5
110338,189125,5
110046,188709,5
109742,188226,5
109394,187724,4
109080,187261,5
108770,186806,5
108498,186408,5
108208,185965,5
107856,185428,4
107482,184926,10
107180,184475,5
106864,183982,5
106506,183464,5
106163,182987,4
105849,182536,5
105449,181936,5
105007,181291,6
104531,180586,3
104040,179860,5
103504,179089,5
102970,178263,5
102280,177194,4
101468,176014,5
100807,175061,5
100155,174116,5
99512,173155,5
98841,172094,4
98192,171222,5
97710,170507,5
97235,169811,5
96788,169217,5
96525,168872,4
96326,168576,5
96170,168309,5
96023,168114,5
95882,167915,5
95815,167836,4
95771,167769,6
95763,167758,4
95764,167774,5
95802,167850,5
95869,167970,4
95967,168118,5
96121,168391,5
96392,168816,5
96683,169277,4
97020,169792,4
97294,170173,5
97473,170427,5
97697,170786,5
97972,171211,4
98269,171677,5
98587,172237,5
98978,172715,5
99306,173236,5
99924,174027,4
99672,174118,5
100229,174601,5
100496,174992,5
100794,175448,5
100840,175907,4
101356,176271,5
101633,176685,6
101868,177056,4
101949,177336,5
102255,177579,4
102371,177813,5
102561,178095,5
102935,178355,5
102824,178460,5
102880,178555,4
102959,178662,5
103330,178768,5
103122,178914,5
103249,179120,4
103383,179325,5
103698,179475,5
103586,179633,5
103667,179747,5
103721,179790,4
103816,179865,5
103774,179885,5
103843,179989,5
103885,180053,5
103897,179941,4
103904,180081,5
103932,180091,5
103922,180073,6
103904,179802,4
103872,180019,4
103838,179964,5
103817,179922,5
103746,179509,5
103663,179661,5
103612,179542,5
103469,179304,4
103289,178955,5
102965,178528,5
102645,178087,4
102310,177560,4
101976,177311,5
101629,176560,5
101326,176098,5
101041,175669,4
100770,175575,5
100564,174972,5
100384,174686,5
100201,174404,5
99941,174151,5
99615,173499,4
99261,172971,5
98938,172473,5
98595,172014,5
98290,171501,4
98055,171163,5
97858,170891,5
97700,170673,5
97597,170527,5
97506,170419,4
97473,170360,5
97439,170325,5
97436,170351,5
97472,170396,5
97516,170458,4
97568,170561,5
97638,170655,5
97699,170754,5
97765,170872,4
97865,171031,4
97994,171245,5
98167,171510,5
98348,171797,5
98567,172161,4
98829,172577,6
99109,173031,4
99456,173557,5
99812,174129,5
100197,174707,4
100545,175219,5
101862,176967,5
101396,176457,5
101634,176760,5
101788,177042,4
101975,177309,5
102127,177540,5
102309,177813,5
102428,177942,5
102435,177933,4
102430,177929,5
102449,177959,5
102460,177992,5
102465,177981,5
102478,177990,4
102455,177973,5
102436,177928,5
102388,177866,5
102339,177808,4
102313,177782,4
102289,177749,6
102277,177728,4
102278,177758,5
102307,177773,4
102318,177780,5
102309,177777,5
102298,177777,5
102350,177861,5
102410,177947,4
102491,178047,5
102564,178159,5
102629,178246,5
102692,178330,5
102724,178372,4
102754,178408,5
102579,177926,5
100925,175365,5
100784,175460,5
100496,174849,4
99764,173673,5
98856,172361,5
98137,171314,5
97531,170438,5
97012,169630,4
96466,168822,5
95973,168085,6
95430,167244,4
94811,166347,4
94281,165531,5
93758,164772,5
93291,164101,5
92881,163463,5
92469,163387,4
92049,162762,5
91590,162065,5
91037,161244,5
90739,160651,5
90139,159706,4
89613,158905,5
88995,158203,5
88731,157576,5
88253,156842,5
87709,155999,4
86941,155098,5
86576,154196,5
86019,153281,5
85462,152436,5
84804,151689,4
84387,150934,5
83628,149660,5
82932,148594,5
82286,147411,4
81512,147103,4
81393,145904,5
80604,144710,5
80157,143606,5
79319,142692,4
78719,141759,5
78123,140843,5
77766,139999,5
76972,138996,5
76275,137817,4
75609,136911,5
75183,136151,5
74583,135227,5
73987,134325,5
73430,133462,4
73019,132743,5
72604,132029,5
71966,131142,5
71523,130498,5
71147,130418,5
70852,130089,4
70572,129681,5
70355,129352,5
70192,128920,5
70083,128950,4
70038,128890,5
70033,128916,5
70079,128961,5
70117,129064,4
70171,129175,4
70270,129393,5
70416,129757,5
70559,129877,5
70716,130162,4
70868,130415,5
71043,130929,5
71221,131006,5
71364,131271,5
71495,131488,4
71628,131825,5
71753,131913,5
71891,132143,4
72056,132428,5
72233,132755,4
72449,133133,6
72776,133723,3
73227,134480,5
73715,135330,5
74267,136249,4
74869,137273,5
75590,138491,5
76340,139654,5
77051,140801,5
77769,141956,4
78497,143143,5
79277,144393,5
79988,145508,5
80675,146593,4
81360,147635,5
82113,148157,5
82943,149514,5
85246,152722,5
85159,152814,4
86064,154346,5
86713,155241,5
87282,156190,6
87945,157250,4
88370,157888,4
88769,158552,5
89206,159201,5
89466,159619,5
89628,159861,5
89781,160141,4
89943,160404,5
90034,160524,5
90033,160546,5
90086,160644,5
90123,160700,4
90157,160762,5
90181,160793,5
90210,160843,5
90239,160890,4
90258,160931,4
90272,160951,5
90259,160971,5
90302,161042,5
90337,161083,5
90356,161121,4
90346,161110,5
90324,161088,5
90290,161020,6
90238,160959,3
90197,160878,5
90139,160793,5
90059,160693,5
90017,160613,5
89957,160561,4
89917,160486,5
89895,160450,5
89846,160386,5
89782,160290,5
89709,160197,4
89656,160149,5
89647,160123,5
89655,160157,5
89672,160194,5
89684,160189,4
89669,160155,5
89647,160115,5
89626,160110,5
89641,160122,4
89657,160156,5
89683,160210,4
89714,160253,5
89705,160223,5
89674,160160,6
89636,160133,3
89616,160119,5
89625,160154,5
89670,160225,5
89727,160304,4
89742,160297,5
89702,160244,5
89676,160233,5
89629,160225,5
89682,160256,4
89717,160314,5
89779,160400,5
89621,160447,5
89822,160450,5
89809,160431,4
89808,160448,5
89571,160496,5
89920,160616,5
89988,160737,5
90031,160761,4
89860,160719,6
89937,160624,4
89871,160527,5
89858,160521,4
90021,160562,5
89918,160638,5
89960,160693,5
89974,160718,5
90255,160714,4
89940,160689,5
89948,160711,5
89972,160767,5
90240,160866,5
90082,160926,4
90088,160939,5
90065,160885,5
90079,160830,5
89989,160823,5
90004,160867,4
90062,160963,5
90147,160983,5
90204,161184,5
90238,161212,5
90237,161205,4
90208,160916,5
90197,161171,6
90235,161241,4
90275,161303,4
90309,161077,4
90310,161329,5
90339,161389,5
90279,161281,5
90282,161302,4
90326,161390,5
90389,161482,5
90449,161560,5
90464,161801,5
90435,161515,4
90408,161487,5
90395,161447,5
90397,161792,5
90427,161536,5
90492,161640,4
90567,161758,5
90614,161990,5
90642,161880,5
90670,161943,5
90750,162079,4
90868,162312,5
91035,162534,5
91190,162745,6
91291,162891,4
91352,162970,4
91353,162987,5
91378,163035,5
91451,163172,5
91542,163344,4
91679,163565,4
91815,163767,5
91924,163923,5
91974,163333,5
92041,163445,4
92148,163637,5
92288,163870,5
92498,164190,5
92672,164443,5
92771,164534,4
92769,164515,5
92744,164499,5
92746,164523,5
92794,164614,5
92862,164713,5
92929,164829,4
93029,164975,5
93131,165105,5
93176,165173,6
93226,165251,3
93327,165426,5
93478,165699,5
93708,166051,5
94000,166481,7
94258,166854,2
94430,167102,5
94617,167360,5
94804,167669,5
95073,168085,4
95400,168573,4
95815,169173,5
96229,169793,5
96625,170363,5
96884,170702,4
97031,170876,5
97108,170963,5
97170,171101,5
97360,171403,5
97593,171729,4
97806,172060,6
98079,172471,4
98394,172903,5
98070,173306,5
98378,173710,4
98672,174140,5
99004,174599,5
99283,174926,5
99410,175064,5
99491,175173,4
99573,175295,5
99697,175488,5
99849,175702,5
100057,176001,5
100223,176196,4
100275,176201,5
100223,176115,5
100180,176092,5
100189,176121,4
100282,176296,5
100425,176487,5
100538,176640,5
100570,176650,5
100500,176541,4
100427,176475,5
100409,176458,6
100469,176548,4
100543,176662,5
100586,176697,4
100589,176688,5
100540,176591,5
100442,176465,5
100387,176382,5
100280,176308,4
100289,176253,5
100254,176200,5
100227,176172,5
99964,176118,5
100109,175992,4
100013,175860,5
99959,175789,5
99633,175792,5
99967,175811,5
99961,175800,4
99923,175747,5
99731,175651,5
99810,175559,5
99771,175517,4
99757,175502,5
99971,175526,5
99789,175549,6
99791,175524,4
99761,175470,4
100019,175387,5
99664,175369,5
99694,175400,5
99730,175441,5
99962,175484,4
99753,175475,5
99740,175455,5
99697,175386,5
99713,175318,5
99646,175331,4
99681,175383,5
99723,175451,5
99771,175372,5
99763,175470,5
99701,175368,5
99608,175235,4
99546,174889,5
99533,175162,5
99566,175209,6
99585,175237,3
99580,174912,5
99548,175149,5
99466,175047,5
99446,175024,4
99447,175049,5
99466,175084,5
99504,175119,5
99526,175148,5
99522,175393,4
99489,175048,5
99410,174944,5
99367,174898,5
99342,175243,5
99341,174862,4
99322,174848,5
99251,174740,5
99186,174815,5
99141,174593,5
99120,174566,4
99097,174543,5
99080,174562,5
99075,174494,5
99047,174462,5
99018,174398,5
98957,174293,4
98857,174156,5
98781,174047,5
98738,174019,4
98747,174033,4
98743,174019,5
98695,173935,5
98630,173834,5
98570,173741,4
98528,173698,5
98513,173664,5
98474,173610,5
98425,173531,5
98369,173454,4
98284,173318,5
98190,173187,5
98120,173095,5
98061,173003,5
98028,172981,4
98038,173009,5
98051,173018,5
98024,172957,5
97910,172781,5
97769,172605,4
97693,172488,6
97648,172441,4
97644,172433,5
97620,172398,5
97560,172316,4
97505,172220,5
97458,172177,5
97454,172162,5
97449,172175,4
97459,172171,4
97457,172182,5
97451,172176,5
97438,172126,5
97358,172036,4
97331,172011,5
97339,172019,5
97329,172020,5
97339,172006,5
97317,171994,4
97268,171913,5
97219,171837,5
97166,171770,5
97126,171725,5
97103,171694,4
97078,171650,5
97063,171618,5
96988,171482,5
96854,171310,5
96752,171180,4
96683,171077,5
96664,171060,5
96642,171019,5
96635,171011,5
96614,170980,4
96582,170920,5
96515,170822,5
96466,170770,5
96455,170780,4
96447,170764,4
96451,170756,5
96437,170746,5
96391,170657,5
96335,170584,4
96312,170549,4
96290,170522,5
96272,170496,5
96251,170476,5
96208,170401,3
96199,170405,5
96206,170407,5
96219,170415,5
96203,170408,5
96187,170367,4
96102,170302,5
96096,170231,5
96042,170163,5
96039,170159,5
95808,170117,4
95975,170086,5
95953,170028,5
95928,170012,5
95625,169988,5
95889,169965,4
95877,169937,5
95838,169868,5
95611,169785,5
95752,169778,4
95789,169811,6
95806,169837,4
95979,169875,5
95835,169888,5
95834,169871,6
95813,169842,3
96120,169845,5
95819,169858,5
95831,169870,5
95843,169893,4
96070,169885,5
95843,169893,5
95838,169880,5
95810,169852,5
95867,169814,4
95772,169798,5
95745,169769,5
95705,169702,5
95675,169569,5
95659,169654,4
95609,169574,5
95522,169427,5
95422,169058,5
95337,169187,4
95273,169081,4
95219,168996,6
95170,168627,4
95140,168876,5
95076,168794,5
95026,168746,6
95030,168696,3
95058,168799,5
95080,168841,5
95096,168840,4
95102,169084,5
95093,168835,5
95060,168788,5
95006,168725,5
94980,169012,4
94950,168643,5
94933,168616,5
94893,168552,5
94842,168657,5
94793,168387,4
94752,168334,5
94706,168299,5
94681,168309,5
94667,168245,5
94653,168202,4
94628,168175,5
94619,168168,6
94601,168131,4
94565,168115,4
94577,168149,4
94601,168156,5
94614,168182,5
94620,168185,5
94629,168220,4
94654,168244,5
94643,168227,5
94641,168228,5
94641,168240,5
94651,168251,4
94652,168257,5
94661,168247,5
94662,168256,5
94650,168214,5
94603,168191,4
94618,168207,5
94610,168208,5
94584,168162,5
94550,168106,5
94502,168044,4
94480,168026,5
94485,168016,5
94488,168034,6
94497,168070,4
94494,168053,4
94540,168150,5
94608,168239,5
94664,168333,5
94720,168392,4
94695,168371,4
94658,168340,5
94646,168319,5
94619,168283,5
94595,168240,4
94574,168213,5
94578,168226,5
94601,168256,5
94621,168298,5
94654,168362,4
94685,168406,5
94697,168453,5
94757,168561,5
94810,168633,5
94826,168663,5
94827,168655,4
94811,168628,5
94823,168669,5
94880,168745,6
94914,168813,3
94976,168907,5
95028,169003,5
95130,169140,5
95180,169203,5
95177,169209,4
95209,169267,5
95253,169342,5
95303,169422,5
95349,169486,4
95373,169530,4
95392,169572,5
95405,169585,5
95424,169642,5
95477,169724,4
95530,169843,5
95623,169974,5
95676,170038,5
95782,170210,5
95892,170353,4
95971,170480,6
96062,170641,4
96208,170888,5
96389,171152,5
96573,171409,4
96737,171646,5
96898,171871,5
96994,171988,5
97062,172092,5
97143,172225,4
97072,172371,5
