RED,IR,EKG,TIME
41238,78204,9
41251,78194,5
41218,78199,5
41252,78205,8
41255,78205,5
41252,78203,5
41244,78196,8
41235,78171,5
41243,78179,5
41241,78180,5
41237,78189,8
41226,78174,5
41228,78162,5
41220,78161,8
41220,78161,5
41229,78159,5
41226,78160,5
41221,78169,8
41215,78117,5
41217,78150,5
41251,78160,8
41258,78162,5
41236,78164,5
41226,78171,8
41235,78178,5
41245,78202,5
41264,78215,5
41285,78270,8
41285,78270,5
41288,78230,5
41284,78258,8
41296,78277,5
41293,78290,5
41305,78283,5
41276,78289,8
41285,78283,5
41291,78294,5
41299,78302,8
41285,78288,5
41294,78279,5
41289,78264,8
41289,78264,5
41286,78252,5
41285,78262,5
41284,78266,8
41278,78258,5
41279,78241,5
41295,78254,8
41272,78253,5
41275,78269,5
41276,78235,5
41286,78224,8
41255,78227,5
41214,78133,5
41214,78133,8
41205,78102,5
41195,78089,5
41164,78074,8
41167,78057,5
41152,78034,5
41144,78045,5
41155,78035,8
41138,77980,5
41145,78006,5
41152,78016,8
41184,78085,5
41184,78085,5
41183,78100,5
41183,78099,8
41189,78093,5
41185,78094,5
41185,78090,8
41190,78095,5
41180,78078,5
41272,78253,8
41126,77975,5
41121,77960,5
41104,77973,5
41098,77953,8
41098,77953,5
41106,77943,5
41116,77964,8
41133,77985,5
41137,78003,5
41140,78012,5
41142,78018,8
41154,78046,5
41170,78080,5
41227,78153,13
41227,78153,5
41231,78154,8
41228,78161,5
41235,78166,5
41242,78192,5
41267,78195,8
41264,78195,5
41221,78197,5
41248,78202,8
41260,78210,5
41255,78224,5
41265,78226,5
41267,78230,8
41267,78230,5
41258,78166,5
41258,78203,6
41262,78217,3
41252,78215,5
41249,78205,6
41248,78202,3
41252,78207,4
41241,78191,5
41245,78192,5
41248,78197,5
41245,78186,4
41239,78195,5
41255,78198,5
41247,78203,5
41254,78220,5
41258,78233,4
41267,78226,5
41270,78252,5
41278,78265,5
41286,78281,5
41304,78299,4
41310,78306,5
41314,78326,5
41336,78334,5
41341,78351,5
41346,78362,5
41344,78368,4
41349,78373,5
41344,78380,5
41355,78382,4
41358,78400,4
41360,78402,5
41365,78409,5
41375,78409,5
41376,78414,4
41375,78424,5
41380,78421,5
41374,78422,5
41376,78429,5
41379,78438,4
41382,78419,5
41371,78412,5
41366,78407,5
41374,78405,5
41359,78405,4
41369,78390,5
41364,78385,5
41351,78365,5
41339,78357,5
41327,78337,4
41312,78321,6
41310,78313,4
41305,78302,5
41296,78289,5
41299,78292,4
41282,78279,5
41288,78275,5
41284,78272,5
41278,78265,4
41284,78278,5
41285,78284,5
41282,78282,5
41275,78276,5
41283,78272,4
41294,78271,5
41287,78269,5
41274,78278,5
41295,78275,5
41296,78272,4
41296,78284,5
41280,78253,5
41265,78234,5
41239,78175,5
41217,78151,4
41230,78137,5
41205,78127,6
41204,78121,4
41205,78137,5
41223,78133,4
41215,78154,5
41215,78153,5
41220,78163,5
41243,78179,4
41243,78191,5
41246,78221,5
41259,78237,5
41284,78259,5
41288,78280,4
41302,78300,5
41307,78312,5
41327,78332,5
41333,78355,5
41341,78366,4
41353,78388,5
41370,78383,5
41369,78411,5
41369,78422,5
41367,78424,4
41371,78410,5
41376,78432,5
41387,78433,5
41388,78443,5
41391,78453,4
41392,78461,5
41396,78475,5
41407,78481,5
41411,78497,4
41407,78484,4
41407,78470,5
41399,78463,5
41403,78483,5
41395,78466,4
41406,78456,5
41402,78457,5
41397,78469,5
41392,78462,5
41396,78453,4
41400,78461,5
41410,78457,5
41401,78464,5
41398,78471,5
41409,78470,5
41404,78470,4
41406,78478,5
41408,78494,5
41416,78506,5
41425,78509,4
41432,78541,5
41456,78566,5
41473,78590,5
41486,78610,4
41486,78633,4
41504,78643,5
41519,78669,5
41520,78694,5
41534,78704,4
41544,78721,5
41558,78744,5
41573,78751,5
41564,78774,5
41578,78782,4
41583,78800,5
41588,78809,5
41600,78808,5
41604,78822,5
41601,78810,4
41608,78816,6
41599,78810,4
41604,78793,5
41588,78784,5
41583,78769,4
41568,78754,5
41559,78741,5
41553,78715,5
41531,78704,5
41534,78685,4
41536,78676,5
41523,78665,5
41517,78669,5
41524,78676,4
41522,78677,5
41532,78686,5
41537,78702,5
41536,78703,5
41545,78714,4
41538,78711,5
41554,78727,5
41552,78732,5
41554,78750,5
41560,78750,4
41561,78749,5
41548,78729,5
41533,78685,5
41503,78644,5
41487,78622,4
41490,78611,5
41477,78603,5
41476,78592,5
41463,78593,5
41469,78587,4
41479,78597,5
41475,78607,5
41476,78621,5
41499,78634,4
41499,78637,4
41514,78667,5
41523,78683,5
41530,78713,5
41552,78733,5
41559,78750,4
41563,78776,5
41581,78789,5
41593,78809,5
41608,78830,3
41606,78841,5
41618,78853,5
41624,78863,5
41627,78875,5
41640,78875,4
41628,78876,5
41640,78876,5
41641,78893,5
41639,78896,5
41641,78893,4
41653,78899,5
41659,78921,5
41666,78931,5
41641,78934,4
41654,78930,4
41659,78918,5
41648,78913,5
41643,78912,5
41660,78922,4
41656,78915,6
41663,78910,4
41642,78917,5
41646,78913,5
41641,78895,6
41647,78892,3
41661,78898,5
41641,78890,5
41649,78904,5
41644,78899,4
41673,78914,5
41658,78920,5
41658,78938,5
41672,78946,5
41708,78960,4
41693,78992,5
41713,79013,5
41726,79024,5
41736,79066,4
41746,79086,4
41755,79104,5
41779,79128,5
41795,79152,5
41802,79185,4
41810,79196,5
41821,79213,6
41836,79207,4
41836,79245,5
41842,79241,4
41849,79256,5
41854,79243,5
41855,79262,5
41843,79257,5
41838,79251,4
41840,79223,5
41831,79213,5
41814,79203,5
41800,79173,5
41800,79175,4
41779,79148,5
41773,79130,5
41770,79113,5
41768,79129,5
41766,79109,4
41773,79126,5
41765,79120,5
41773,79157,5
41784,79151,4
41786,79144,5
41786,79152,5
41793,79170,6
41801,79180,4
41812,79198,4
41821,79209,5
41828,79215,5
41821,79195,5
41800,79157,5
41786,79129,4
41764,79115,5
41752,79097,5
41744,79087,5
41745,79078,5
41743,79081,4
41741,79072,5
41744,79078,5
41743,79088,5
41745,79086,5
41749,79089,4
41759,79107,5
41763,79117,5
41773,79133,5
41777,79131,5
41782,79155,4
41798,79173,5
41804,79172,5
41801,79190,6
41813,79194,3
41811,79203,5
41815,79212,5
41830,79215,5
41824,79215,5
41827,79229,4
41826,79220,5
41825,79220,5
41831,79223,5
41826,79220,5
41823,79229,4
41828,79234,5
41833,79235,5
41831,79243,5
41840,79251,5
41842,79240,4
41842,79247,5
41836,79232,5
41836,79233,5
41831,79230,4
41831,79219,5
41825,79205,4
41821,79207,5
41809,79196,5
41805,79186,4
41810,79180,5
41796,79173,5
41793,79161,5
41786,79154,5
41783,79145,4
41779,79135,5
41770,79119,5
41772,79121,5
41775,79120,5
41773,79120,4
41776,79123,5
41768,79121,5
41769,79123,5
41773,79132,5
41776,79131,4
41777,79139,5
41777,79133,5
41786,79145,5
41780,79146,4
41780,79146,4
41791,79155,6
41790,79155,4
41786,79146,5
41789,79154,4
41790,79153,5
41789,79153,5
41790,79146,5
41786,79139,5
41775,79141,4
41780,79140,5
41775,79128,5
41766,79116,5
41764,79111,5
41756,79098,4
41746,79071,5
41732,79047,5
41708,79004,5
41689,78962,5
41655,78913,4
41629,78863,5
41610,78822,5
41584,78785,5
41548,78754,5
41542,78726,4
41525,78692,5
41523,78685,6
41502,78677,4
41527,78677,4
41522,78671,5
41507,78668,5
41513,78673,5
41512,78672,5
41525,78667,4
41514,78664,5
41523,78674,5
41513,78679,5
41514,78683,5
41520,78683,4
41536,78669,5
41503,78627,5
41455,78558,5
41433,78512,5
41425,78486,4
41400,78447,5
41373,78421,5
41365,78409,5
41360,78389,5
41359,78388,4
41355,78377,5
41343,78370,5
41338,78355,6
41332,78353,3
41333,78350,4
41328,78355,5
41329,78339,5
41336,78357,5
41336,78350,4
41339,78364,5
41341,78352,5
41342,78357,5
41334,78372,5
41341,78366,4
41347,78369,5
41338,78362,9
41339,78370,1
41336,78362,5
41341,78413,4
41341,78379,5
41343,78374,5
41343,78375,5
41348,78394,5
41342,78379,5
41343,78373,4
41344,78375,5
41346,78402,5
41346,78385,4
41351,78377,4
41350,78375,5
41343,78371,5
41344,78370,5
41339,78357,4
41334,78350,5
41321,78340,5
41327,78326,5
41323,78326,5
41306,78302,4
41300,78294,5
41283,78267,5
41274,78252,5
41271,78245,5
41266,78226,4
41254,78222,5
41245,78208,5
41248,78200,5
41242,78198,5
41247,78195,4
41252,78187,6
41239,78188,4
41235,78190,5
41236,78195,5
41245,78200,4
41247,78193,5
41241,78195,5
41243,78198,5
41249,78209,4
41258,78204,5
41252,78206,5
41249,78211,5
41257,78214,5
41256,78218,4
41260,78215,5
41257,78221,5
41250,78219,5
41267,78222,5
41260,78223,4
41262,78218,5
41257,78218,5
41257,78221,5
41262,78216,5
41256,78220,4
41249,78206,5
41253,78213,6
41254,78206,4
41260,78203,5
41244,78200,4
41248,78197,5
41238,78201,5
41242,78202,5
41238,78193,4
41237,78182,5
41230,78172,5
41227,78157,5
41215,78143,5
41201,78122,4
41187,78076,5
41171,78063,5
41154,78025,5
41133,78003,5
41128,77987,4
41120,77965,5
41102,77961,5
41102,77959,5
41111,77964,5
41118,77973,4
41116,77987,5
41133,78002,5
41138,78028,5
41157,78037,5
41161,78052,4
41168,78066,5
41180,78085,5
41180,78098,5
41194,78099,4
41194,78118,4
41198,78124,5
41216,78142,5
41220,78145,5
41203,78117,4
41177,78075,5
41151,78031,5
41143,78012,5
41135,77997,5
41136,77998,4
41121,77986,5
41118,77971,5
41121,77991,5
41128,77987,5
41108,77990,5
41126,77996,4
41116,77992,5
41128,77997,5
41113,78005,5
41142,78015,4
41141,78029,5
41157,78040,5
41141,78050,5
41165,78060,5
41171,78068,4
41184,78070,5
41181,78089,5
41184,78087,5
41189,78093,4
41186,78107,4
41205,78113,5
41195,78120,5
41198,78116,5
41199,78122,4
41220,78122,5
41205,78131,6
41210,78131,4
41210,78128,5
41223,78135,4
41213,78155,7
41223,78155,3
41227,78138,5
41217,78138,5
41219,78141,4
41205,78137,5
41206,78129,5
41211,78127,5
41213,78124,5
41195,78131,4
41206,78122,5
41209,78095,5
41199,78118,5
41191,78119,5
41193,78120,4
41194,78101,5
41202,78119,5
41199,78121,5
41205,78122,4
41206,78125,5
41201,78129,5
41210,78133,6
41212,78133,4
41223,78163,4
41226,78153,5
41227,78171,5
41230,78170,5
41233,78204,5
41241,78181,4
41253,78203,5
41248,78194,5
41256,78226,5
41266,78221,5
41267,78228,4
41264,78244,5
41273,78254,5
41283,78248,5
41292,78266,5
41290,78283,4
41294,78287,5
41306,78290,5
41307,78297,5
41307,78298,5
41312,78314,4
41313,78312,5
41313,78310,5
41314,78296,6
41311,78301,3
41299,78302,5
41310,78291,5
41302,78295,5
41303,78295,5
41301,78298,4
41304,78290,5
41302,78285,5
41297,78276,5
41293,78267,5
41291,78267,4
41278,78268,5
41282,78258,5
41273,78262,5
41282,78241,5
41280,78245,4
41275,78255,5
41270,78245,5
41264,78235,5
41257,78227,4
41260,78207,5
41239,78191,4
41230,78171,5
41221,78144,5
41212,78121,6
41197,78116,3
41188,78091,5
41192,78091,5
41176,78079,5
41176,78078,4
41177,78078,5
41186,78091,5
41193,78102,5
41196,78116,5
41214,78123,4
41219,78143,5
41225,78163,5
41231,78175,5
41237,78191,5
41244,78197,4
41250,78201,5
41249,78216,5
41250,78219,5
41262,78219,5
41251,78197,4
41225,78155,6
41194,78117,4
41182,78082,5
41169,78078,4
41169,78067,5
41151,78051,5
41162,78048,5
41155,78044,5
41159,78039,4
41155,78045,5
41165,78053,5
41167,78065,5
41169,78077,5
41178,78084,4
41182,78093,5
41195,78119,5
41207,78126,5
41215,78139,5
41221,78145,4
41233,78173,5
41228,78178,5
41235,78177,5
41235,78186,5
41243,78195,4
41253,78205,5
41256,78201,6
41252,78211,4
41249,78221,4
41256,78212,4
41258,78215,5
41254,78223,5
41268,78210,5
41253,78220,4
41265,78221,5
41260,78230,5
41271,78241,5
41244,78232,5
41261,78226,4
41261,78217,5
41258,78223,5
41245,78218,5
41267,78209,5
41243,78213,4
41252,78203,5
41246,78188,5
41244,78181,5
41240,78180,5
41243,78178,4
41251,78187,5
41245,78185,5
41243,78170,6
41243,78178,4
41258,78172,4
41233,78188,5
41241,78186,5
41243,78203,5
41255,78198,4
41259,78213,4
41257,78217,5
41271,78232,5
41276,78241,5
41275,78256,4
41276,78261,5
41283,78273,5
41290,78254,5
41300,78292,5
41301,78298,4
41306,78305,5
41308,78282,5
41316,78311,5
41313,78323,5
41320,78324,5
41321,78309,4
41328,78337,5
41324,78341,5
41328,78348,5
41330,78350,4
41328,78349,5
41321,78343,5
41331,78342,5
41322,78351,4
41323,78337,4
41331,78337,5
41323,78331,5
41316,78353,5
41319,78330,4
41321,78326,5
41317,78318,5
41308,78312,5
41308,78310,5
41307,78301,4
41310,78303,5
41309,78301,5
41307,78294,5
41309,78302,5
41304,78297,4
41296,78291,6
41302,78306,4
41309,78292,5
41302,78299,5
41300,78293,4
41293,78290,5
41303,78286,5
41299,78279,5
41295,78284,5
41292,78277,4
41283,78278,5
41288,78281,5
41289,78280,5
41290,78278,4
41288,78270,5
41279,78256,5
41282,78250,5
41261,78233,5
41253,78215,4
41248,78190,5
41237,78187,5
41227,78163,5
41225,78158,5
41215,78149,4
41219,78141,5
41217,78148,6
41226,78161,4
41228,78166,5
41233,78193,4
41240,78202,5
41257,78224,5
41260,78228,5
41268,78246,5
41277,78258,4
41287,78263,5
41283,78278,5
41289,78278,5
41283,78279,4
41298,78270,4
41295,78279,5
41284,78267,5
41280,78256,5
41256,78199,4
41216,78148,5
41210,78125,5
41195,78125,5
41187,78103,5
41188,78102,4
41186,78107,5
41186,78110,5
41195,78114,5
41186,78115,5
41195,78133,4
41208,78136,5
41214,78142,5
41214,78153,5
41242,78181,5
41236,78197,4
41250,78208,5
41260,78221,5
41256,78236,5
41273,78253,4
41283,78249,4
41275,78260,5
41286,78266,5
41290,78273,5
41291,78278,4
41287,78279,5
41297,78278,5
41298,78285,5
41303,78294,5
41300,78279,5
41300,78283,4
41308,78296,5
41294,78291,5
41303,78298,5
41304,78309,4
41308,78297,5
41306,78297,5
41303,78285,5
41306,78278,5
41281,78276,4
41294,78280,5
41284,78275,5
41287,78255,5
41271,78261,5
41270,78244,4
41275,78235,5
41266,78239,5
41258,78243,5
41273,78244,4
41271,78235,5
41266,78245,5
41262,78237,5
41276,78239,5
41276,78245,4
41287,78249,6
41286,78253,4
41285,78257,5
41288,78271,5
41298,78282,4
41328,78295,8
41314,78315,2
41326,78324,5
41333,78330,5
41352,78358,4
41337,78359,5
41342,78368,5
41354,78374,5
41355,78373,5
41352,78392,4
41351,78395,5
41365,78398,5
41362,78393,5
41374,78396,4
41367,78407,4
41361,78412,5
41369,78390,5
41374,78400,5
41371,78405,4
41363,78401,5
41367,78379,6
41361,78408,4
41366,78392,5
41366,78392,4
41356,78383,5
41359,78383,5
41350,78379,5
41357,78379,5
41344,78381,4
41348,78360,5
41329,78347,5
41330,78326,5
41311,78335,5
41313,78296,4
41299,78285,5
41292,78271,5
41290,78270,5
41271,78246,4
41275,78238,4
41265,78250,5
41273,78246,5
41272,78245,6
41280,78253,3
41275,78254,5
41283,78253,5
41292,78267,5
41291,78267,5
41290,78268,4
41295,78272,5
41291,78266,5
41284,78274,5
41282,78268,5
41283,78252,4
41273,78238,5
41251,78206,5
41218,78158,5
41208,78119,5
41192,78096,4
41185,78092,5
41184,78089,5
41177,78091,5
41186,78088,4
41186,78108,5
41189,78119,4
41205,78127,5
41211,78134,5
41218,78156,6
41221,78161,3
41234,78185,5
41253,78201,5
41258,78220,5
41261,78237,4
41271,78241,5
41276,78253,5
41278,78271,5
41290,78277,5
41285,78277,4
41297,78285,5
41301,78287,5
41301,78301,5
41300,78290,5
41296,78296,4
41302,78294,5
41308,78303,5
41303,78300,5
41310,78309,5
41305,78309,4
41316,78324,6
41313,78318,4
41318,78322,5
41313,78325,4
41311,78316,7
41315,78313,3
41315,78312,5
41315,78309,5
41311,78310,4
41310,78300,5
41298,78286,5
41305,78283,5
41298,78292,5
41294,78280,4
41296,78283,5
41294,78285,5
41290,78274,5
41291,78283,5
41295,78297,4
41298,78296,5
41306,78300,5
41309,78314,5
41316,78318,5
41323,78335,4
41324,78348,5
41345,78358,6
41351,78383,4
41363,78398,4
41373,78415,5
41383,78425,5
41392,78442,5
41401,78461,5
41408,78471,4
41415,78480,5
41417,78498,5
41411,78498,5
41420,78500,5
41431,78518,4
41443,78520,5
41437,78527,5
41435,78517,5
41432,78506,5
41416,78499,4
41424,78492,5
41406,78488,5
41400,78465,5
41378,78451,5
41395,78450,4
41385,78441,5
41392,78436,5
41369,78429,6
41379,78425,3
41386,78431,4
41385,78434,5
41398,78438,5
41387,78457,5
41397,78455,4
41399,78460,5
41413,78460,5
41398,78472,5
41401,78476,5
41414,78471,4
41427,78487,5
41413,78483,5
41402,78465,5
41397,78447,5
41384,78403,4
41349,78378,5
41333,78366,5
41330,78343,5
41330,78345,5
41334,78336,5
41324,78348,4
41338,78350,5
41341,78352,5
41347,78367,6
41354,78378,3
41348,78397,5
41366,78400,5
41390,78434,5
41394,78458,4
41407,78481,5
41421,78488,5
41434,78524,5
41448,78544,5
41458,78563,4
41462,78589,5
41473,78608,5
41495,78621,5
41484,78624,5
41502,78655,4
41501,78645,5
41511,78649,5
41502,78661,5
41520,78681,5
41518,78675,4
41520,78688,6
41534,78698,4
41538,78714,5
41541,78715,5
41540,78710,4
41545,78700,5
41545,78703,5
41543,78702,5
41536,78698,4
41539,78698,5
41539,78690,5
41534,78695,5
41527,78688,5
41524,78683,4
41518,78680,5
41533,78671,5
41517,78667,5
41520,78662,5
41518,78674,4
41518,78679,5
41523,78684,5
41529,78690,5
41528,78703,5
41538,78723,4
41552,78731,5
41568,78743,6
41567,78777,4
41586,78788,5
41600,78813,4
41608,78826,5
41623,78854,5
41632,78888,5
41654,78903,4
41657,78915,5
41661,78932,5
41673,78940,5
41677,78957,5
41688,78956,4
41690,78972,5
41689,78977,5
41690,78974,5
41692,78966,5
41682,78962,4
41683,78945,5
41673,78935,5
41669,78913,5
41650,78898,5
41646,78888,4
41640,78881,5
41637,78872,5
41630,78865,6
41622,78871,4
41632,78875,4
41639,78871,5
41629,78886,5
41646,78894,5
41637,78879,4
41649,78900,4
41649,78905,5
41669,78917,5
41660,78926,5
41669,78942,4
41660,78936,5
41653,78906,5
41638,78871,5
41613,78848,5
41608,78839,4
41607,78825,5
41607,78826,5
41607,78820,5
41598,78821,5
41603,78832,5
41607,78832,4
41609,78840,5
41618,78848,5
41628,78854,5
41640,78877,4
41637,78894,5
41651,78913,5
41656,78926,5
41678,78950,4
41673,78969,4
41694,78991,5
41711,79006,5
41712,79022,5
41729,79046,4
41735,79055,5
41736,79066,5
41745,79074,5
41743,79072,5
41748,79084,4
41744,79084,5
41748,79077,5
41757,79087,5
41758,79095,5
41743,79097,4
41772,79107,6
41779,79132,4
41782,79137,5
41758,79126,5
41783,79133,4
41776,79126,5
41777,79117,5
41768,79126,5
41777,79125,4
41769,79111,4
41766,79104,5
41774,79106,5
41763,79100,5
41765,79093,4
41754,79090,5
41770,79089,5
41752,79073,5
41743,79078,5
41749,79085,4
41767,79082,5
41753,79091,5
41763,79092,5
41759,79103,5
41772,79119,4
41782,79127,5
41780,79141,6
41795,79156,4
41795,79157,5
41814,79186,4
41821,79207,5
41830,79231,5
41839,79221,5
41860,79258,5
41858,79265,4
41866,79280,5
41869,79279,5
41872,79297,5
41874,79297,4
41879,79299,5
41873,79288,5
41855,79287,5
41866,79275,5
41842,79258,4
41842,79262,5
41831,79231,5
41825,79212,5
41816,79192,5
41806,79204,4
41801,79166,5
41802,79166,5
41792,79162,5
41795,79184,5
41793,79161,4
41797,79168,5
41807,79190,5
41805,79196,5
41812,79199,5
41824,79219,4
41818,79219,5
41837,79234,5
41827,79212,5
41806,79175,4
41790,79142,4
41781,79131,5
41763,79107,5
41764,79098,5
41751,79089,4
41740,79082,5
41748,79076,5
41752,79083,5
41736,79082,5
41743,79072,5
41747,79057,4
41735,79062,5
41737,79058,5
41737,79080,5
41728,79073,4
41737,79068,5
41734,79077,5
41741,79064,5
41741,79059,5
41738,79062,4
41733,79060,5
41732,79051,5
41736,79058,5
41723,79042,4
41722,79041,4
41722,79038,5
41716,79027,5
41712,79016,5
41714,79011,4
41706,78993,5
41698,78995,6
41701,78986,4
41693,78993,5
41696,78991,4
41700,78992,7
41698,78981,3
41696,78979,5
41691,78966,5
41679,78956,4
41673,78943,5
41664,78928,5
41658,78918,5
41646,78902,5
41639,78891,4
41637,78873,5
41623,78859,5
41609,78830,5
41597,78817,4
41586,78802,4
41585,78771,5
41569,78753,5
41561,78750,5
41562,78747,4
41559,78740,5
41546,78743,5
41556,78736,6
41557,78733,4
41552,78734,4
41553,78733,5
41556,78741,5
41557,78741,5
41557,78752,5
41561,78756,4
41555,78749,5
41569,78751,5
41569,78764,5
41566,78754,5
41564,78762,4
41572,78764,5
41575,78771,5
41574,78766,5
41584,78777,5
41576,78782,4
41573,78771,5
41571,78776,5
41580,78770,5
41575,78774,10
41572,78774,4
41570,78769,5
41563,78772,6
41566,78760,3
41563,78752,5
41547,78748,5
41555,78737,5
41550,78731,5
41541,78715,4
41518,78682,5
41509,78646,5
41489,78603,5
41457,78573,5
41429,78539,4
41421,78491,5
41406,78457,5
41376,78432,5
41383,78407,5
41360,78400,4
41357,78403,5
41366,78409,5
41388,78409,5
41374,78427,4
41372,78433,5
41380,78454,4
41411,78458,5
41395,78467,5
41405,78480,6
41416,78486,3
41426,78491,5
41424,78514,5
41427,78517,5
41434,78519,4
41434,78496,5
41399,78449,5
41373,78411,5
41358,78382,5
41344,78358,4
41338,78348,5
41323,78336,5
41325,78324,5
41320,78299,5
41320,78324,4
41317,78324,5
41314,78327,5
41314,78304,5
41322,78326,4
41332,78340,4
41329,78348,6
41330,78359,4
41338,78355,5
41343,78359,4
41340,78374,5
41339,78386,5
41347,78376,5
41349,78384,5
41363,78383,4
41353,78416,5
41365,78401,5
41366,78403,5
41361,78400,5
41369,78403,4
41356,78402,5
41359,78390,5
41363,78393,5
41361,78392,5
41360,78393,4
41351,78386,5
41362,78404,5
41359,78392,5
41362,78401,4
41347,78388,4
41348,78373,5
41354,78376,6
41343,78374,4
41330,78365,4
41341,78359,5
41335,78356,5
41332,78338,5
41323,78338,5
41323,78331,4
41311,78314,5
41319,78312,5
41316,78305,5
41306,78296,5
41297,78287,4
41300,78293,5
41303,78284,5
41301,78291,5
41294,78287,5
41298,78277,4
41298,78281,5
41304,78285,5
41298,78295,5
41307,78304,5
41305,78305,4
41309,78316,5
41318,78324,5
41314,78332,6
41325,78340,3
41331,78346,5
41341,78360,5
41329,78353,5
41342,78349,5
41350,78368,4
41342,78360,5
41352,78367,5
41356,78376,5
41344,78375,5
41352,78376,4
41354,78376,5
41351,78379,5
41353,78381,5
41354,78385,5
41354,78371,4
41354,78375,5
41352,78380,5
41347,78366,5
41342,78355,5
41344,78365,5
41334,78358,4
41328,78355,5
41340,78347,5
41325,78341,4
41324,78332,4
41327,78324,5
41315,78327,5
41312,78318,5
41301,78295,4
41291,78282,5
41293,78272,5
41277,78251,5
41258,78210,5
41231,78181,4
41216,78149,5
41205,78110,5
41189,78099,5
41183,78078,5
41170,78062,4
41162,78053,5
41164,78052,5
41162,78068,5
41180,78080,5
41193,78103,4
41197,78118,6
41210,78131,4
41217,78144,5
41220,78157,4
41225,78175,4
41237,78187,5
41232,78206,5
41247,78202,5
41255,78207,4
41253,78200,5
41212,78158,5
41208,78121,5
41181,78090,5
41169,78071,4
41143,78052,5
41163,78051,5
41152,78038,5
41153,78034,5
41152,78035,4
41154,78034,5
41161,78042,5
41155,78037,5
41173,78052,5
41173,78052,4
41180,78067,5
41175,78074,6
41205,78099,4
41185,78092,4
41195,78109,4
41201,78118,5
41218,78130,5
41205,78134,5
41208,78148,4
41220,78144,5
41226,78160,5
41225,78151,5
41234,78169,5
41231,78173,4
41241,78167,5
41240,78176,5
41237,78189,5
41248,78194,5
41242,78176,4
41242,78192,5
41246,78207,5
41258,78212,5
41258,78197,5
41258,78214,4
41266,78206,5
41252,78204,5
41243,78195,5
41255,78198,5
41242,78187,4
41245,78192,5
41245,78208,5
41242,78178,5
41235,78171,4
41231,78177,5
41231,78193,5
41224,78167,5
41239,78173,5
41239,78175,4
41229,78182,5
41240,78164,5
41242,78183,5
41241,78184,5
41248,78186,4
41241,78195,5
41254,78198,5
41241,78209,5
41266,78220,5
41273,78236,5
41273,78249,4
41276,78253,5
41289,78263,5
41285,78266,5
41302,78290,4
41308,78297,5
41314,78294,5
41314,78311,5
41314,78309,4
41325,78322,5
41316,78328,5
41324,78330,5
41323,78335,5
41325,78343,4
41330,78337,5
41341,78340,5
41338,78360,5
41334,78341,5
41340,78349,4
41327,78348,5
41331,78341,5
41327,78341,5
41334,78345,5
41334,78335,4
41329,78334,6
41317,78335,4
41315,78319,5
41324,78323,5
41317,78323,4
41318,78315,5
41318,78301,5
41305,78315,5
41311,78301,4
41310,78289,4
41291,78281,5
41289,78264,5
41280,78244,5
41268,78223,4
41252,78213,5
41245,78192,5
41232,78172,5
41239,78171,5
41242,78162,4
41226,78168,5
41234,78174,5
41239,78173,5
41244,78190,5
41243,78201,4
41256,78217,5
41257,78213,5
41270,78227,5
41271,78253,5
41280,78267,4
41291,78267,5
41294,78275,5
41288,78274,5
41296,78278,4
41286,78262,4
41266,78241,5
41249,78181,5
41230,78158,5
41224,78148,4
41221,78142,5
41205,78140,5
41208,78135,5
41208,78131,5
41216,78141,5
41210,78134,4
41220,78145,5
41222,78156,5
41221,78155,6
41230,78164,3
41231,78180,5
41247,78186,5
41249,78206,5
41264,78216,5
41267,78229,4
41270,78247,5
41287,78250,5
41276,78264,5
41287,78266,5
41298,78277,4
41299,78291,5
41283,78289,5
41303,78298,5
41308,78305,4
41309,78308,5
41286,78303,5
41311,78303,5
41313,78309,5
41304,78311,4
41301,78322,6
41311,78313,4
41312,78318,5
41318,78317,5
41328,78312,6
41305,78306,3
41304,78300,5
41303,78294,5
41320,78300,5
41303,78296,4
41294,78284,5
41293,78280,5
41307,78281,5
41287,78259,5
41287,78265,4
41282,78263,5
41303,78271,5
41293,78263,5
41288,78279,4
41288,78285,5
41295,78281,5
41296,78293,5
41301,78295,5
41308,78304,4
41308,78295,5
41318,78328,6
41328,78329,4
41322,78340,5
41338,78346,4
41353,78377,5
41361,78388,5
41364,78396,5
41363,78395,5
41371,78423,4
41388,78433,5
41392,78440,5
41394,78463,5
41389,78448,5
41396,78472,4
41405,78472,5
41401,78496,5
41416,78483,5
41408,78478,4
41418,78493,5
41406,78509,5
41414,78488,5
41414,78485,5
41417,78485,4
41412,78486,5
41411,78480,5
41416,78474,6
41407,78470,4
41406,78467,4
41396,78468,5
41406,78464,5
41404,78461,5
41404,78455,5
41394,78461,4
41396,78455,5
41393,78444,5
41390,78442,5
41382,78447,5
41394,78440,4
41393,78435,5
41385,78445,5
41386,78431,5
41382,78433,4
41373,78428,4
41373,78412,5
41370,78405,5
41367,78397,5
41356,78379,5
41344,78356,4
41331,78341,5
41322,78316,5
41306,78304,6
41306,78295,3
41290,78285,5
41289,78278,5
41296,78280,5
41292,78281,5
41297,78288,4
41303,78295,5
41318,78304,5
41315,78319,5
41320,78330,5
41333,78340,4
41340,78352,5
41339,78352,5
41338,78352,5
41341,78354,4
41343,78352,4
41342,78355,5
41336,78340,5
41324,78325,5
41290,78259,4
41265,78215,6
41243,78200,4
41242,78193,5
41236,78182,5
41236,78169,4
41228,78169,5
41228,78169,5
41236,78176,5
41234,78185,5
41246,78185,4
41239,78194,5
41255,78205,5
41267,78220,5
41268,78232,8
41273,78250,1
41287,78258,5
41293,78281,5
41284,78295,5
41307,78303,4
41315,78306,4
41310,78311,5
41317,78315,5
41314,78319,5
41317,78322,4
41322,78320,5
41323,78330,6
41328,78344,4
41332,78334,5
41331,78335,4
41330,78337,5
41337,78348,5
41323,78344,5
41336,78352,5
41336,78347,4
41334,78340,5
41326,78331,5
41327,78333,5
41323,78321,5
41323,78328,4
41320,78327,5
41320,78319,5
41302,78302,5
41313,78299,5
41310,78294,4
41299,78286,5
41277,78287,5
41304,78284,5
41305,78285,4
41301,78289,5
41285,78293,5
41301,78297,6
41303,78301,4
41298,78301,4
41304,78302,5
41310,78305,5
41313,78325,5
41326,78345,5
41355,78351,4
41340,78355,5
41349,78377,5
41353,78388,5
41380,78400,5
41375,78408,4
41382,78423,5
41385,78431,5
41395,78438,5
41396,78452,5
41393,78449,4
41394,78461,5
41414,78471,5
41405,78476,5
41400,78468,5
41405,78481,4
41404,78475,5
41409,78481,5
41419,78473,5
41411,78471,4
41407,78452,5
41410,78462,5
41403,78461,5
41405,78461,5
41396,78432,4
41394,78450,5
41389,78440,5
41384,78436,5
41377,78423,5
41371,78402,4
41362,78396,5
41364,78382,5
41348,78390,5
41339,78361,5
41331,78344,4
41332,78332,5
41330,78348,5
41320,78323,5
41327,78324,4
41315,78328,5
41325,78339,4
41333,78340,5
41333,78349,5
41331,78354,4
41344,78366,5
41343,78363,5
41348,78365,5
41345,78373,5
41352,78375,4
41348,78375,5
41350,78386,5
41354,78373,5
41344,78357,5
41324,78307,4
41292,78273,5
41286,78260,5
41271,78244,5
41269,78240,5
41271,78238,4
41269,78233,5
41271,78238,5
41277,78247,5
41284,78255,5
41295,78272,4
41298,78275,6
41305,78297,4
41316,78318,5
41322,78333,4
41338,78348,5
41348,78376,5
41357,78393,5
41370,78410,5
41374,78431,4
41385,78430,5
41383,78452,5
41394,78455,5
41403,78465,5
41402,78472,4
41410,78477,5
41421,78493,5
41413,78491,5
41411,78501,5
41420,78499,4
41423,78490,5
41423,78510,5
41426,78515,5
41437,78514,5
41421,78509,4
41428,78505,5
41421,78500,6
41417,78501,4
41420,78489,4
41412,78479,5
41417,78492,5
41412,78487,5
41406,78481,5
41400,78470,4
41411,78478,5
41408,78462,5
41393,78471,5
41397,78466,5
41402,78477,4
41407,78483,5
41414,78488,5
41419,78488,5
41413,78506,5
41438,78511,4
41436,78520,5
41445,78546,5
41462,78576,5
41474,78596,5
41489,78624,4
41498,78643,5
41514,78669,5
41524,78695,5
41538,78715,4
41547,78732,4
41561,78760,5
41574,78767,5
41583,78786,5
41593,78792,4
41597,78805,5
41607,78822,5
41608,78844,5
41613,78847,5
41627,78862,4
41621,78858,5
41624,78859,5
41628,78845,5
41617,78828,5
41612,78819,4
41599,78806,5
41586,78793,5
41570,78782,5
41571,78752,5
41562,78745,5
41560,78732,4
41526,78723,5
41539,78721,5
41545,78722,5
41545,78720,4
41538,78728,5
41553,78732,5
41548,78745,5
41549,78742,4
41570,78743,5
41559,78752,5
41567,78755,5
41569,78769,5
41598,78764,4
41577,78763,5
41565,78738,5
41542,78704,5
41533,78675,5
41499,78657,4
41502,78641,5
41501,78635,6
41500,78626,4
41499,78622,5
41496,78629,4
41501,78655,7
41509,78645,3
41513,78662,5
41515,78669,5
41528,78692,4
41529,78687,5
41556,78717,5
41550,78726,5
41567,78760,4
41582,78760,5
41582,78798,5
41588,78801,5
41602,78823,5
41616,78818,4
41609,78840,5
41622,78846,5
41623,78853,5
41626,78871,5
41627,78859,4
41626,78858,5
41631,78863,5
41621,78883,6
41630,78876,4
41633,78866,4
41636,78893,5
41644,78911,5
41637,78883,5
41637,78866,5
41630,78872,4
41629,78867,5
41622,78870,5
41624,78857,5
41619,78852,4
41618,78848,4
41628,78847,5
41605,78837,5
41602,78838,5
41601,78821,4
41599,78820,5
41597,78811,5
41596,78812,5
41600,78816,5
41603,78823,5
41606,78826,4
41607,78832,5
41613,78850,5
41617,78856,6
41630,78868,3
41641,78885,5
41640,78901,5
41662,78933,5
41673,78957,5
41683,78980,4
41695,78984,5
41711,79010,5
41717,79026,5
41718,79050,5
41735,79063,4
41748,79074,5
41750,79084,5
41764,79105,5
41769,79120,4
41769,79114,5
41776,79120,5
41771,79117,5
41758,79104,5
41751,79093,4
41754,79083,6
41740,79065,4
41736,79057,5
41722,79043,5
41725,79037,6
41724,79028,3
41718,79019,5
41718,79025,5
41722,79029,5
41718,79026,4
41724,79038,5
41715,79031,5
41724,79037,5
41733,79051,5
41747,79065,4
41748,79078,5
41763,79091,5
41757,79099,5
41753,79081,4
41737,79045,4
41724,79034,5
41711,79020,5
41703,79012,5
41705,79010,4
41703,79004,5
41704,79003,6
41707,79010,4
41708,79018,5
41722,79029,4
41722,79028,5
41727,79034,5
41730,79054,5
41734,79069,5
41742,79073,4
41753,79087,5
41755,79094,5
41763,79120,5
41776,79126,5
41776,79134,4
41787,79153,5
41798,79168,5
41805,79182,5
41800,79180,4
41815,79196,4
41814,79190,5
41808,79202,5
41823,79210,5
41818,79210,4
41811,79205,5
41813,79205,5
41822,79208,6
41809,79221,4
41835,79235,4
41833,79231,5
41826,79229,5
41820,79216,5
41834,79220,5
41827,79220,4
41826,79221,5
41799,79218,5
41820,79222,5
41825,79217,5
41822,79210,4
41807,79197,5
41818,79193,5
41810,79187,5
41815,79186,4
41811,79181,4
41800,79175,5
41803,79169,5
41799,79163,5
41821,79170,5
41792,79171,4
41797,79176,5
41798,79179,5
41823,79189,6
41811,79185,3
41822,79205,5
41824,79210,5
41827,79219,5
41833,79227,5
41840,79228,4
41844,79240,5
41843,79242,5
41842,79255,5
41843,79261,5
41847,79245,4
41842,79231,5
41840,79240,5
41846,79241,5
41836,79221,5
41831,79192,4
41810,79192,5
41808,79191,5
41798,79160,5
41795,79135,4
41776,79118,6
41756,79092,4
41754,79073,5
41748,79087,5
41736,79063,4
41737,79044,5
41733,79052,5
41722,79061,5
41718,79032,5
41712,79021,4
41717,79031,5
41717,79043,5
41726,79030,5
41723,79030,5
41723,79029,4
41707,78990,5
41664,78927,5
41638,78878,5
41614,78839,5
41598,78810,4
41579,78799,5
41576,78772,5
41570,78769,5
41558,78750,4
41553,78731,4
41540,78716,6
41537,78706,4
41530,78698,5
41531,78686,4
41515,78663,5
41505,78655,5
41500,78631,5
41493,78620,5
41485,78613,4
41480,78614,5
41489,78604,5
41476,78598,5
41476,78592,5
41462,78586,4
41460,78578,5
41463,78567,5
41462,78575,5
41458,78558,5
41450,78554,4
41435,78550,5
41444,78547,5
41440,78548,5
41440,78543,4
41445,78549,4
41442,78554,5
41442,78537,11
41442,78537,3
41430,78536,5
41432,78522,5
41433,78506,5
41420,78502,5
41424,78499,4
41407,78481,5
41402,78459,5
41398,78452,5
41390,78447,5
41382,78425,4
41380,78421,5
41374,78416,5
41372,78413,5
41363,78399,5
41356,78399,4
41360,78399,5
41360,78403,5
41370,78395,5
41363,78405,5
41368,78398,4
41366,78400,5
41361,78411,5
41368,78417,5
41367,78413,4
41364,78417,5
41380,78422,5
41374,78425,5
41373,78420,5
41365,78431,4
41367,78430,5
41370,78416,5
41381,78431,5
41384,78427,5
41380,78430,4
41387,78441,5
41384,78433,5
41384,78439,5
41385,78440,5
41393,78435,4
41393,78432,5
41388,78442,5
41386,78440,5
41380,78443,5
41390,78438,5
41381,78435,4
41381,78431,5
41375,78431,5
41374,78426,4
41370,78411,5
41362,78407,5
41353,78383,5
41348,78361,5
41328,78340,4
41300,78298,5
41297,78272,5
41267,78230,5
41247,78191,5
41216,78157,4
41211,78128,5
41190,78111,5
41193,78092,5
41197,78109,5
41193,78104,4
41195,78107,5
41205,78131,5
41233,78141,5
41220,78143,5
41221,78164,4
41235,78166,6
41256,78185,4
41248,78185,5
41239,78187,4
41250,78202,4
41266,78212,5
41268,78217,5
41257,78191,5
41226,78149,4
41203,78109,5
41181,78080,5
41174,78064,5
41166,78050,5
41152,78029,4
41153,78043,5
41155,78045,5
41155,78037,5
41164,78026,5
41155,78045,4
41170,78056,5
41162,78052,5
41163,78047,5
41173,78075,5
41176,78082,4
41189,78090,5
41195,78113,5
41198,78115,5
41209,78134,4
41210,78132,4
41215,78152,5
41216,78155,5
41228,78147,5
41227,78156,4
41225,78187,5
41226,78153,5
41224,78163,5
41228,78158,5
41219,78170,4
41229,78157,5
41228,78163,5
41239,78168,5
41236,78168,5
41224,78163,5
41227,78167,4
41230,78162,5
41229,78160,5
41229,78155,6
41235,78152,3
41219,78149,5
41218,78145,5
41226,78143,5
41218,78145,5
41220,78131,4
41205,78132,5
41207,78121,5
41203,78114,5
41197,78114,4
41192,78113,5
41198,78097,5
41198,78099,5
41195,78101,5
41184,78096,4
41192,78095,5
41189,78102,5
41182,78097,5
41198,78106,5
41198,78112,4
41195,78114,6
41198,78126,4
41212,78137,5
41219,78145,5
41228,78155,6
41220,78169,3
41227,78167,5
41234,78170,5
41245,78183,5
41240,78183,4
41245,78193,5
41252,78194,5
41250,78197,5
41254,78213,4
41261,78212,4
41269,78219,5
41266,78213,5
41267,78225,5
41270,78224,4
41270,78231,5
41274,78225,5
41272,78225,5
41264,78226,5
41272,78226,4
41266,78222,5
41269,78219,6
41267,78213,4
41261,78215,5
41254,78210,4
41257,78201,5
41250,78200,5
41247,78174,5
41224,78164,5
41217,78147,4
41214,78123,5
41205,78098,5
41193,78089,5
41176,78074,4
41167,78058,4
41160,78046,5
41164,78045,5
41160,78047,5
41161,78046,4
41175,78052,5
41172,78068,5
41177,78077,5
41185,78072,5
41189,78097,4
41196,78115,5
41209,78114,5
41211,78124,6
41224,78135,4
41223,78147,4
41236,78164,5
41239,78179,5
41236,78181,5
41229,78152,5
41199,78105,4
41175,78071,5
41165,78056,5
41179,78048,5
41163,78046,5
41156,78042,4
41147,78040,5
41163,78048,5
41155,78043,5
41170,78047,4
41144,78061,5
41171,78066,5
41171,78069,5
41180,78081,5
41186,78100,5
41190,78099,4
41202,78129,5
41215,78138,5
41228,78147,6
41217,78153,3
41221,78156,5
41230,78170,5
41257,78176,5
41236,78179,5
41242,78190,4
41243,78188,5
41261,78188,5
41245,78191,5
41248,78197,5
41252,78199,4
41256,78206,5
41249,78197,5
41252,78210,5
41256,78220,4
41259,78213,5
41261,78214,5
41262,78218,5
41256,78205,5
41256,78182,4
41244,78195,6
41247,78196,4
41252,78205,5
41248,78167,5
41241,78181,4
41233,78182,5
41232,78173,5
41227,78171,5
41220,78165,5
41234,78163,4
41228,78166,5
41233,78176,5
41227,78161,5
41224,78167,5
41231,78172,4
41234,78199,5
41238,78178,5
41251,78190,5
41252,78194,4
41255,78220,4
41255,78211,5
41269,78227,5
41277,78239,5
41272,78248,4
41288,78269,5
41291,78280,6
41316,78298,4
41311,78303,5
41317,78320,4
41329,78325,5
41335,78337,5
41337,78354,5
41341,78350,5
41342,78357,4
41350,78368,5
41360,78376,5
41354,78383,5
41363,78379,5
41356,78388,4
41358,78386,5
41354,78378,5
41363,78384,5
41357,78390,4
41357,78383,4
41357,78379,5
41361,78390,5
41361,78374,5
41358,78378,4
41357,78375,5
41353,78379,5
41356,78375,6
41347,78367,4
41345,78375,4
41348,78372,5
41345,78371,5
41347,78368,5
41352,78367,5
41342,78365,4
41340,78357,5
41331,78344,5
41330,78319,5
41322,78309,5
41303,78306,4
41298,78275,5
41285,78259,5
41277,78249,5
41279,78239,5
41271,78236,4
41271,78228,5
41276,78236,5
41267,78242,5
41285,78263,5
41286,78260,4
41296,78278,5
41301,78297,5
41309,78305,5
41322,78318,4
41321,78337,5
41335,78346,5
41336,78355,5
41344,78357,5
41352,78370,4
41354,78379,5
41349,78369,5
41330,78341,5
41302,78292,5
41290,78259,4
41275,78258,5
41282,78233,5
41273,78228,5
41269,78230,5
41267,78222,4
41266,78221,5
41262,78232,5
41266,78236,5
41284,78238,4
41277,78259,5
41284,78255,4
41293,78264,5
41294,78282,5
41301,78295,4
41306,78317,5
41309,78319,5
41319,78326,5
41327,78347,5
41339,78357,4
41344,78356,5
41339,78370,5
41346,78372,5
41350,78381,5
41358,78376,4
41350,78376,5
41346,78385,5
41359,78391,5
41352,78395,5
41357,78388,4
41349,78385,5
41366,78395,5
41367,78401,5
41368,78398,4
41346,78394,4
41356,78390,6
41350,78386,4
41355,78380,5
41354,78382,4
41350,78374,5
41347,78367,5
41345,78362,5
41359,78345,5
41344,78336,4
41327,78332,5
41327,78334,5
41347,78338,5
41326,78333,5
41322,78340,4
41329,78342,5
41346,78335,5
41325,78347,5
41335,78350,5
41336,78349,4
41348,78355,5
41346,78365,5
41350,78377,5
41355,78390,5
41359,78378,4
41357,78402,5
41373,78417,6
41376,78411,4
41381,78413,4
41389,78455,4
41388,78462,5
41407,78473,5
41411,78459,5
41416,78480,4
41416,78486,5
41426,78508,5
41432,78518,5
41419,78516,5
41435,78528,4
41431,78519,5
41430,78543,5
41449,78525,5
41441,78530,5
41440,78523,4
41435,78543,5
41437,78518,5
41438,78511,5
41435,78516,5
41428,78522,4
41427,78511,5
41423,78505,5
41417,78487,5
41423,78486,4
41423,78485,4
41418,78491,5
41407,78483,5
41408,78476,5
41414,78469,4
41404,78466,5
41399,78458,5
41395,78442,5
41395,78448,5
41379,78436,4
41379,78412,5
41362,78391,9
41357,78383,1
41354,78398,5
41340,78362,4
41329,78338,5
41331,78339,5
41333,78337,5
41325,78328,5
41334,78336,5
41332,78334,4
41336,78357,5
41344,78349,5
41350,78359,5
41351,78373,4
41359,78377,5
41356,78384,5
41365,78389,5
41364,78403,4
41368,78399,5
41364,78394,5
41365,78389,5
41351,78360,5
41335,78328,4
41305,78293,5
41295,78281,5
41290,78271,5
41289,78265,5
41282,78268,4
41287,78258,5
41292,78276,6
41296,78276,4
41287,78282,5
41302,78291,4
41302,78294,7
41309,78316,3
41326,78322,5
41330,78339,5
41333,78354,4
41349,78369,5
41350,78385,5
41360,78393,5
41364,78399,4
41375,78409,4
41376,78424,5
41384,78431,5
41377,78437,5
41385,78442,4
41391,78438,5
41394,78447,5
41386,78452,5
41394,78451,5
41393,78443,4
41395,78446,5
41397,78455,5
41394,78462,6
41399,78463,4
41400,78460,4
41403,78446,5
41397,78449,5
41391,78443,5
41392,78437,5
41391,78436,4
41389,78424,5
41381,78426,5
41383,78411,5
41373,78417,5
41366,78408,4
41381,78418,5
41372,78405,5
41374,78411,5
41373,78412,4
41377,78412,5
41380,78422,5
41377,78437,5
41384,78432,5
41399,78448,5
41410,78460,4
41393,78485,5
41421,78503,5
41436,78518,6
41449,78540,3
41430,78567,5
41470,78579,5
41487,78596,5
41494,78624,5
41496,78632,4
41512,78655,5
41521,78669,5
41526,78691,5
41553,78702,5
41542,78708,4
41547,78725,5
41556,78731,5
41579,78740,5
41566,78748,4
41569,78749,5
41562,78740,5
41583,78756,5
41573,78742,5
41563,78741,4
41560,78741,6
41564,78735,4
41555,78731,5
41552,78710,5
41541,78704,6
41530,78683,3
41524,78684,5
41520,78657,5
41512,78661,5
41513,78643,4
41503,78659,5
41511,78659,5
41504,78656,5
41517,78638,5
41512,78669,4
41524,78674,5
41526,78688,5
41530,78681,5
41536,78689,4
41542,78692,4
41541,78707,5
41536,78727,5
41542,78715,5
41547,78703,4
41547,78698,5
41523,78690,6
41502,78634,4
41492,78605,5
41478,78599,4
41462,78606,5
41474,78587,5
41470,78580,5
41468,78592,5
41476,78593,4
41478,78601,5
41474,78608,5
41496,78612,5
41501,78627,5
41507,78647,4
41505,78668,5
41527,78683,5
41526,78699,5
41543,78715,5
41548,78739,4
41565,78751,5
41573,78781,5
41584,78786,5
41582,78787,4
41594,78803,5
41602,78816,5
41592,78813,6
41608,78821,4
41610,78821,4
41606,78825,5
41610,78823,5
41609,78833,5
41610,78835,5
41613,78842,4
41620,78850,5
41622,78840,5
41609,78832,5
41611,78831,5
41598,78818,4
41603,78814,5
41603,78815,5
41595,78804,5
41592,78809,5
41593,78790,4
41591,78788,5
41584,78787,5
41580,78776,5
41574,78774,5
41580,78770,4
41581,78777,5
41583,78777,5
41585,78784,6
41588,78800,3
41592,78803,5
41602,78816,5
41608,78841,5
41624,78855,5
41635,78871,4
41650,78895,5
41665,78930,5
41683,78956,5
41694,78989,5
41708,79006,4
41733,79039,5
41743,79054,5
41750,79082,5
41759,79099,5
41777,79117,4
41780,79136,5
41790,79144,5
41796,79150,5
41803,79175,4
41810,79174,5
41806,79166,4
41806,79174,5
41802,79169,5
41807,79165,4
41802,79150,5
41786,79139,5
41773,79121,5
41768,79104,5
41761,79096,4
41744,79071,5
41741,79059,5
41740,79057,5
41744,79062,5
41740,79061,4
41734,79060,5
41731,79059,5
41752,79071,5
41751,79071,5
41747,79091,4
41754,79083,5
41758,79098,5
41769,79124,5
41786,79126,5
41780,79134,4
41792,79140,6
41763,79117,4
41759,79080,5
41738,79064,4
41733,79054,5
41717,79040,5
41730,79026,5
41723,79029,5
41720,79031,4
41704,79045,5
41723,79044,5
41734,79047,5
41739,79057,5
41733,79067,4
41743,79072,5
41758,79091,5
41758,79107,5
41780,79117,5
41773,79133,4
41790,79157,5
41787,79162,5
41826,79176,5
41811,79185,5
41814,79212,4
41829,79216,5
41843,79219,6
41831,79221,4
41832,79219,4
41838,79230,4
41832,79224,5
41838,79230,5
41841,79246,5
41843,79242,4
41846,79244,5
41856,79275,5
41861,79279,5
41857,79267,5
41858,79251,4
41863,79274,5
41853,79275,5
41856,79265,5
41855,79246,5
41862,79255,4
41852,79267,5
41850,79255,5
41844,79255,5
41853,79249,5
41840,79247,4
41843,79239,5
41841,79247,5
41838,79235,5
41834,79236,4
41837,79245,4
41839,79271,5
41841,79257,5
41849,79267,5
41860,79276,4
41869,79313,5
41880,79315,5
41886,79336,5
41904,79368,5
41926,79392,4
41934,79412,5
41948,79424,5
41953,79454,5
41970,79474,5
41971,79493,4
41987,79508,5
41998,79528,5
42002,79526,5
42010,79545,5
42012,79544,5
42009,79565,4
42012,79543,5
42015,79544,5
42000,79540,5
42004,79525,4
41983,79510,5
41985,79489,5
41983,79489,5
41969,79468,4
41962,79462,5
41970,79457,5
41961,79460,5
41963,79454,5
41960,79461,4
41960,79456,5
41965,79456,5
41959,79458,5
41968,79474,5
41973,79484,4
41981,79496,5
41985,79514,5
41989,79511,5
41982,79490,5
41963,79453,4
41941,79427,6
41931,79417,4
41935,79401,5
41913,79389,5
41923,79376,4
41905,79378,5
41918,79376,5
41913,79373,5
41915,79369,4
41910,79370,4
41910,79364,5
41908,79356,5
41897,79354,5
41903,79356,4
41905,79362,5
41900,79375,5
41903,79358,5
41902,79361,5
41893,79362,4
41894,79352,5
41902,79348,5
41904,79356,5
41901,79357,5
41896,79345,4
41903,79352,5
41898,79340,5
41888,79344,5
41887,79319,5
41887,79320,4
41883,79322,5
41884,79318,5
41876,79328,5
41886,79329,4
41878,79320,4
41877,79301,5
41870,79303,5
41864,79284,5
41861,79283,4
41847,79271,5
41841,79257,5
41836,79235,5
41830,79227,5
41827,79212,5
41823,79206,4
41813,79193,5
41789,79180,5
41789,79161,6
41776,79135,3
41771,79111,5
41758,79107,5
41744,79089,5
41740,79070,5
41733,79058,4
41720,79056,5
41710,79052,5
41720,79047,5
41730,79055,5
41735,79062,4
41714,79063,5
41737,79065,5
41741,79075,5
41732,79066,4
41718,79058,5
41739,79075,5
41737,79075,5
41743,79079,5
41744,79068,4
41741,79069,6
41736,79073,4
41739,79069,5
41755,79065,5
41735,79070,6
41738,79069,3
41731,79070,5
41759,79055,5
41738,79063,5
41731,79071,4
41730,79063,5
41736,79054,5
41732,79052,5
41730,79037,5
41719,79034,4
41715,79024,5
41704,79012,5
41702,79004,5
41698,79006,4
41693,78967,4
41691,78962,5
41674,78949,5
41669,78930,5
41648,78887,4
41634,78885,5
41624,78855,6
41606,78810,4
41573,78760,5
41556,78725,4
41519,78675,5
41506,78629,5
41477,78578,5
41436,78530,5
41412,78496,4
41401,78452,8
41386,78458,2
41385,78423,5
41373,78424,5
41384,78411,4
41377,78430,5
41377,78428,5
41386,78428,5
41387,78438,5
41391,78467,4
41403,78464,5
41399,78469,5
41408,78474,5
41406,78484,4
41410,78487,5
41408,78481,5
41398,78452,6
41357,78379,4
41328,78339,4
41315,78318,5
41303,78294,5
41291,78265,5
41288,78262,5
41282,78245,4
41277,78256,5
41281,78255,5
41273,78252,5
41272,78255,5
41281,78258,4
41271,78248,5
41279,78257,5
41278,78260,5
41286,78270,5
41290,78279,4
41306,78279,5
41296,78300,5
41304,78300,5
41314,78308,5
41314,78314,4
41327,78312,5
41313,78328,5
41321,78331,6
41318,78332,3
41324,78325,5
41327,78336,5
41328,78332,5
41327,78338,5
41338,78340,4
41334,78346,5
41334,78349,5
41334,78354,5
41332,78349,5
41342,78358,4
41333,78347,5
41338,78344,5
41324,78336,5
41313,78333,5
41323,78337,4
41326,78328,5
41317,78310,5
41326,78310,5
41309,78300,4
41308,78301,5
41306,78279,4
41297,78287,5
41294,78277,5
41296,78268,4
41285,78260,5
41286,78254,5
41288,78255,5
41291,78256,5
41286,78253,4
41277,78249,5
41276,78259,5
41279,78256,5
41282,78268,5
41290,78267,4
41294,78273,5
41297,78286,5
41307,78310,5
41305,78299,5
41306,78304,4
41304,78307,5
41325,78317,5
41321,78329,5
41326,78327,5
41322,78337,4
41328,78337,6
41334,78352,4
41339,78351,5
41336,78344,4
41340,78361,4
41338,78354,5
41351,78355,5
41351,78361,5
41352,78365,4
41339,78360,5
41346,78360,5
41331,78354,5
41337,78359,5
41338,78348,4
41340,78352,5
41317,78334,5
41329,78331,5
41316,78316,5
41311,78300,4
41270,78272,5
41275,78247,5
41259,78214,5
41240,78178,5
41221,78159,4
41220,78138,5
41212,78122,6
41198,78101,4
41211,78092,4
41192,78092,4
41197,78090,5
41200,78102,5
41226,78118,5
41213,78128,4
41214,78138,5
41218,78139,5
41243,78153,5
41218,78170,5
41231,78171,4
41234,78178,5
41255,78196,5
41248,78191,5
41248,78191,5
41230,78163,4
41206,78108,5
41193,78090,5
41180,78077,5
41166,78057,5
41161,78035,4
41164,78043,5
41168,78050,5
41168,78055,6
41162,78031,3
41164,78050,4
41167,78058,5
41163,78063,5
41171,78064,5
41185,78072,4
41189,78096,5
41189,78098,5
41196,78129,5
41200,78125,5
41205,78133,4
41221,78151,5
41226,78173,5
41221,78160,5
41234,78166,5
41238,78183,4
41246,78190,5
41243,78180,5
41249,78197,5
41244,78200,5
41246,78202,5
41258,78199,4
41247,78203,5
41253,78208,5
41257,78211,5
41263,78225,4
41266,78222,5
41259,78221,5
41255,78208,5
41261,78208,4
41259,78209,5
41262,78211,5
41258,78206,5
41253,78205,5
41245,78193,4
41240,78195,5
41248,78180,5
41241,78177,5
41236,78176,5
41246,78178,4
41243,78180,5
41240,78175,5
41241,78188,5
41242,78183,5
41249,78185,4
41248,78189,6
41245,78185,4
41248,78190,5
41245,78202,5
41253,78205,4
41259,78214,5
41265,78219,5
41275,78225,5
41273,78238,4
41284,78258,4
41295,78270,5
41300,78283,5
41303,78294,5
41314,78315,4
41325,78314,5
41335,78332,5
41328,78332,5
41340,78345,5
41347,78352,4
41343,78358,5
41349,78366,5
41368,78375,5
41365,78375,5
41365,78392,4
41354,78386,5
41363,78387,6
41364,78390,4
41359,78389,5
41371,78387,4
41360,78381,5
41356,78384,5
41357,78381,5
41356,78371,4
41359,78369,4
41348,78360,5
41351,78364,5
41339,78355,5
41335,78345,4
41342,78336,5
41338,78332,5
41318,78316,5
41303,78299,5
41294,78272,4
41290,78254,5
41285,78244,5
41270,78231,5
41266,78210,5
41263,78209,4
41249,78201,5
41261,78207,5
41251,78201,5
41261,78208,5
41262,78223,4
41263,78223,5
41276,78237,5
41284,78242,5
41281,78252,5
41298,78269,4
41298,78283,5
41297,78285,5
41303,78300,5
41313,78308,4
41323,78308,5
41323,78317,5
41293,78298,5
41280,78252,5
41263,78208,4
41242,78198,5
41222,78187,4
41239,78172,5
41228,78164,5
41232,78159,5
41207,78165,3
41227,78167,5
41236,78164,5
41231,78172,5
41245,78183,4
41239,78187,5
41246,78194,5
41253,78216,5
41281,78225,5
41271,78234,4
41272,78244,5
41284,78255,5
41314,78277,5
41304,78274,4
41296,78288,4
41302,78292,5
41312,78307,5
41312,78299,5
41313,78315,4
41321,78311,5
41324,78322,6
41319,78311,4
41324,78325,5
41331,78323,4
41327,78316,7
41325,78327,3
41333,78334,5
41330,78342,5
41335,78322,4
41326,78333,5
41324,78322,5
41319,78317,5
41325,78301,5
41317,78314,4
41310,78310,5
41311,78294,5
41302,78289,5
41302,78285,4
41306,78289,4
41302,78279,5
41298,78304,5
41304,78284,5
41302,78286,4
41296,78291,5
41299,78318,5
41308,78296,6
41312,78298,4
41312,78301,4
41319,78322,5
41322,78327,5
41330,78339,5
41331,78352,5
41348,78363,4
41352,78370,5
41362,78382,5
41358,78405,5
41367,78417,5
41380,78424,4
41389,78441,5
41399,78447,5
41404,78465,5
41413,78474,5
41414,78487,4
41414,78502,5
41421,78500,5
41432,78505,5
41436,78504,5
41432,78529,4
41442,78526,5
41440,78534,5
41445,78534,6
41446,78536,3
41444,78539,5
41439,78531,5
41439,78535,5
41443,78527,5
41444,78533,4
41439,78527,5
41443,78522,5
41429,78524,5
41433,78514,5
41439,78517,4
41430,78506,5
41425,78518,5
41431,78505,5
41428,78502,5
41429,78509,4
41430,78509,5
41417,78500,5
41426,78493,5
41422,78487,4
41415,78482,5
41404,78472,4
41406,78462,5
41393,78446,5
41377,78423,6
41374,78406,3
41365,78383,5
41353,78372,5
41335,78350,5
41328,78336,4
41325,78328,5
41328,78325,5
41318,78308,5
41321,78319,5
41322,78310,4
41326,78329,5
41323,78331,5
41337,78348,5
41337,78357,5
41340,78362,4
41347,78375,5
41357,78390,5
41357,78392,5
41371,78412,5
41362,78415,4
41374,78408,6
41373,78390,4
41356,78366,5
41331,78323,4
41303,78289,5
41306,78284,5
41298,78266,5
41282,78263,5
41282,78257,4
41282,78252,5
41280,78260,5
41286,78264,5
41285,78266,5
41286,78275,4
41301,78288,5
41300,78293,5
41310,78299,5
41321,78315,5
41328,78328,4
41337,78346,5
41346,78358,5
41346,78375,5
41355,78379,5
41357,78392,4
41365,78396,5
41353,78401,6
41372,78400,4
41380,78409,4
41369,78400,5
41358,78409,5
41364,78416,5
41373,78414,5
41368,78411,4
41365,78405,5
41370,78409,5
41372,78428,5
41376,78424,5
41382,78421,4
41367,78408,5
41369,78406,5
41371,78407,5
41386,78404,5
41363,78397,4
41373,78384,5
41360,78391,5
41378,78393,5
41355,78379,10
41354,78374,4
41349,78365,5
41348,78360,6
41342,78371,3
41346,78369,4
41346,78366,5
41344,78367,5
41356,78386,5
41349,78390,4
41357,78385,5
41369,78379,5
41377,78406,5
41376,78416,5
41378,78429,4
41392,78422,5
41395,78444,5
41408,78465,5
41411,78485,5
41425,78487,4
41426,78512,5
41442,78522,5
41441,78537,5
41447,78569,5
41461,78560,5
41468,78570,4
41474,78580,5
41475,78608,5
41470,78593,4
41472,78602,4
41480,78588,5
41482,78619,5
41487,78601,5
41483,78599,4
41485,78591,5
41474,78598,5
41477,78587,5
41468,78586,5
41466,78578,4
41464,78559,5
41458,78546,5
41445,78539,5
41440,78524,5
41429,78498,4
41405,78475,5
41412,78470,5
41402,78459,5
41395,78441,5
41394,78444,4
41392,78443,6
41381,78439,4
41392,78437,5
41387,78437,5
41398,78453,4
41408,78467,5
41406,78480,5
41407,78476,5
41414,78486,4
41422,78496,5
41427,78500,5
41433,78510,5
41429,78502,5
41439,78507,4
41429,78495,5
41402,78459,5
41377,78415,5
41366,78396,5
41359,78387,4
41352,78382,5
41348,78370,5
41353,78369,5
41353,78378,5
41355,78385,4
41360,78388,5
41366,78394,6
41375,78410,4
41380,78440,5
41385,78441,4
41392,78467,5
41409,78484,5
41423,78491,5
41437,78530,4
41447,78539,4
41451,78557,5
41458,78580,5
41471,78588,5
41485,78597,4
41475,78614,5
41487,78618,5
41491,78629,5
41499,78626,5
41494,78630,4
41496,78629,5
41488,78632,5
41495,78641,5
41504,78646,5
41511,78654,4
41512,78669,5
41520,78665,5
41503,78656,5
41514,78654,5
41520,78655,4
41506,78659,5
41512,78654,5
41509,78656,5
41515,78641,4
41496,78650,4
41508,78638,5
41504,78636,5
41500,78633,5
41497,78634,4
41496,78637,5
41495,78638,5
41505,78637,5
41503,78644,5
41506,78656,4
41519,78663,5
41518,78680,5
41529,78687,5
41535,78702,5
41547,78722,5
41559,78748,4
41574,78757,5
41582,78794,5
41587,78804,5
41608,78830,4
41624,78852,5
41629,78871,5
41626,78898,5
41652,78911,5
41670,78926,4
41680,78961,5
41663,78960,5
41697,78973,5
41701,78989,4
41705,79001,5
41707,79003,5
41709,79007,5
41710,79002,5
41718,79003,4
41728,78998,5
41696,78975,5
41697,78969,5
41682,78951,5
41689,78949,4
41670,78927,6
41659,78919,4
41653,78903,5
41662,78898,5
41646,78894,4
41654,78894,5
41651,78911,5
41666,78920,5
41663,78936,5
41665,78939,4
41671,78940,5
41673,78948,5
41679,78961,5
41681,78962,4
41690,78973,4
41693,78955,5
41683,78971,5
41675,78940,5
41648,78887,4
41635,78852,5
41627,78861,5
41617,78840,5
41616,78840,5
41616,78841,4
41608,78835,5
41617,78851,5
41625,78853,5
41622,78882,5
41634,78873,4
41637,78886,5
41645,78891,5
41645,78928,5
41663,78927,5
41666,78937,4
41684,78964,5
41695,79000,5
41700,78995,5
41715,79018,4
41718,79028,4
41724,79037,5
41736,79056,5
41736,79053,5
41741,79067,5
41741,79065,4
41746,79070,5
41750,79070,5
41752,79078,6
41756,79087,3
41758,79093,5
41763,79111,5
41782,79126,5
41775,79129,5
41772,79127,4
41773,79118,5
41766,79115,5
41765,79115,5
41766,79098,5
41762,79103,4
41763,79102,5
41762,79097,5
41754,79089,5
41761,79095,5
41756,79097,4
41760,79080,5
41753,79088,5
41745,79086,5
41752,79084,4
41755,79081,6
41762,79091,4
41756,79092,5
41765,79108,5
41770,79116,6
41777,79127,3
41785,79153,5
41800,79167,5
41809,79186,5
41814,79208,4
41838,79233,5
41851,79253,5
41873,79283,5
41878,79305,5
41880,79327,4
41891,79334,5
41909,79350,5
41906,79353,5
41910,79363,5
41914,79370,4
41923,79377,5
41928,79375,5
41925,79390,5
41925,79376,4
41924,79378,5
41920,79372,6
41912,79362,4
41900,79353,5
41886,79327,4
41873,79299,5
41867,79282,5
41853,79261,5
41841,79241,5
41834,79223,4
41823,79215,5
41820,79203,5
41828,79206,5
41826,79209,5
41818,79192,4
41822,79210,5
41811,79203,5
41824,79214,5
41830,79217,5
41834,79227,4
41839,79244,5
41831,79240,5
41838,79212,5
41807,79170,4
41782,79126,4
41773,79118,5
41751,79104,6
41744,79072,4
41739,79068,4
41734,79071,5
41732,79059,5
41741,79047,5
41727,79048,5
41719,79038,4
41725,79039,5
41732,79039,5
41718,79041,5
41709,79036,5
41720,79049,4
41729,79054,5
41731,79041,5
41710,79052,5
41727,79040,5
41726,79051,4
41719,79042,5
41711,79039,5
41725,79033,5
41724,79027,5
41714,79020,4
41721,79008,5
41701,79001,5
41701,79000,6
41689,78986,3
41713,78974,5
41693,78978,5
41688,78979,5
41687,78985,5
41707,78970,4
41676,78951,5
41662,78931,5
41651,78912,5
41653,78895,5
41636,78873,4
41621,78851,5
41608,78838,5
41600,78802,5
41574,78783,5
41575,78760,4
41563,78741,5
41539,78698,5
41531,78684,5
41517,78671,5
41502,78653,5
41500,78625,4
41487,78628,5
41486,78603,5
41486,78611,4
41477,78592,5
41474,78603,5
41473,78604,5
41477,78594,5
41485,78620,4
41487,78618,5
41493,78616,5
41487,78617,5
41489,78652,5
41489,78626,4
41496,78641,5
41500,78636,5
41507,78678,5
41513,78664,5
41513,78669,4
41519,78668,5
41525,78694,5
41525,78684,5
41526,78691,5
41530,78696,4
41534,78712,6
41536,78705,4
41549,78712,5
41544,78717,4
41536,78706,5
41540,78709,5
41543,78702,5
41544,78696,5
41533,78685,4
41521,78669,5
41506,78647,5
41499,78617,5
41483,78582,5
41450,78562,4
41441,78528,5
41426,78498,5
41409,78481,5
41406,78471,5
41402,78456,4
41398,78457,5
41398,78459,5
41401,78466,5
41409,78480,5
41406,78473,4
41410,78486,5
41415,78496,6
41422,78500,4
41421,78498,4
41431,78496,4
41423,78516,5
41426,78527,5
41439,78534,5
41425,78518,4
41406,78465,5
41379,78427,5
41369,78385,5
41357,78364,5
41331,78353,4
41328,78336,5
41319,78329,5
41313,78314,5
41323,78327,5
41318,78322,4
41315,78318,5
41324,78318,5
41312,78322,5
41322,78326,5
41326,78322,4
41317,78341,5
41319,78340,5
41325,78339,5
41337,78348,4
41342,78363,4
41339,78366,5
41347,78366,5
41334,78371,5
41344,78364,4
41350,78383,5
41363,78381,5
41351,78387,5
41348,78388,5
41353,78396,4
41360,78386,5
41350,78383,5
41360,78373,5
41359,78390,5
41357,78381,4
41361,78399,5
41351,78401,5
41361,78386,5
41360,78376,5
41349,78374,5
41351,78366,4
41349,78364,5
41338,78357,5
41339,78343,5
41338,78347,4
41332,78336,5
41326,78339,5
41317,78318,5
41311,78318,4
41312,78300,5
41307,78292,5
41296,78293,5
41307,78294,8
41290,78290,1
41297,78281,5
41276,78281,5
41301,78289,5
41278,78294,5
41297,78297,4
41304,78296,5
41301,78293,5
41294,78297,5
41313,78311,5
41320,78321,4
41321,78322,6
41321,78336,4
41316,78333,5
41330,78339,5
41334,78337,4
41351,78346,5
41338,78359,5
41331,78356,5
41360,78368,4
41372,78366,4
41347,78376,5
41360,78383,5
41346,78373,5
41362,78386,4
41358,78381,5
41347,78389,5
41352,78378,5
41355,78381,5
41344,78367,4
41343,78371,5
41349,78374,5
41338,78352,5
41346,78360,5
41343,78351,4
41333,78344,5
41331,78324,6
41326,78333,4
41319,78329,5
41317,78316,4
41308,78298,5
41305,78306,5
41301,78307,5
41309,78287,4
41297,78302,4
41288,78286,5
41306,78269,5
41289,78269,5
41294,78276,4
41284,78252,5
41276,78245,5
41275,78239,5
41272,78257,5
41272,78226,4
41264,78221,5
41256,78210,5
41258,78222,5
41254,78201,5
41246,78200,4
41246,78178,5
41235,78174,5
41228,78146,5
41206,78114,5
41200,78083,4
41171,78043,5
41155,78015,5
41132,77988,5
41110,77956,5
41100,77937,4
41093,77917,5
41086,77911,5
41091,77921,5
41094,77926,4
41113,77941,5
41104,77959,5
41123,77969,5
41123,77987,5
41139,78014,4
41147,78018,5
41154,78031,4
41169,78043,5
41167,78060,5
41168,78056,5
41180,78072,3
41169,78073,5
41163,78047,5
41146,78001,5
41120,77957,4
41103,77936,5
41097,77916,5
41079,77897,5
41076,77885,5
41074,77887,4
41078,77878,5
41069,77869,5
41068,77879,5
41066,77879,4
41072,77892,5
41083,77901,5
41085,77902,5
41088,77918,5
41091,77928,4
41093,77930,5
41098,77950,6
41100,77968,4
41109,77961,5
41129,77982,4
41118,77984,7
41130,77995,3
41136,77993,5
41133,78008,5
41135,78005,4
41141,78009,5
41144,78011,5
41141,78013,5
41148,78016,5
41140,78022,4
41150,78019,5
41147,78019,5
41151,78013,5
41154,78030,4
41156,78028,4
41156,78028,5
41144,78023,5
41152,78020,5
41157,78017,4
41152,78020,5
41148,78016,5
41141,78006,6
41146,78001,4
41135,77999,4
41134,77997,5
41128,77989,5
41130,77993,5
41134,77985,5
41131,77981,4
41129,77987,5
41134,77984,5
41127,77989,5
41134,77994,5
41127,78003,4
41145,78006,5
41137,78004,5
41147,78010,5
41152,78029,4
41148,78040,4
41170,78048,5
41160,78048,5
41181,78071,5
41175,78075,5
41184,78093,4
41192,78102,5
41203,78099,5
41192,78120,6
41214,78127,3
41216,78136,5
41222,78139,5
41224,78158,5
41234,78168,5
41243,78171,4
41245,78174,5
41259,78186,5
41251,78186,5
41252,78192,5
41256,78190,4
41272,78197,5
41250,78182,5
41251,78190,5
41253,78179,5
41262,78188,4
41235,78168,5
41234,78160,5
41218,78141,5
41215,78119,4
41206,78101,6
41192,78093,4
41181,78068,5
41175,78051,5
41177,78057,6
41177,78062,3
41169,78056,5
41167,78039,5
41171,78075,5
41177,78073,4
41191,78089,5
41193,78067,5
41204,78108,5
41201,78124,5
41210,78128,4
41208,78136,5
41216,78129,5
41210,78134,5
41217,78141,5
41219,78166,4
41216,78128,5
41202,78105,5
41184,78060,5
41165,78058,4
41148,78033,4
41152,78004,6
41149,78011,4
41145,78021,5
41142,78000,4
41145,78013,5
41146,78009,5
41151,78023,5
41148,78026,5
41158,78034,4
41152,78045,5
41174,78054,5
41173,78078,5
41185,78083,5
41193,78095,4
41196,78098,5
41203,78116,5
41209,78126,5
41214,78127,5
41228,78140,4
41231,78151,5
41230,78153,5
41228,78164,5
41238,78166,4
41229,78170,4
41245,78172,5
41246,78177,6
41243,78180,4
41249,78185,4
41237,78188,5
41259,78204,5
41247,78201,5
41261,78195,5
41252,78190,4
41240,78186,5
41247,78188,5
41244,78180,5
41243,78184,5
41243,78176,4
41240,78170,5
41235,78165,5
41233,78163,5
41227,78153,5
41229,78149,4
41241,78150,5
41231,78163,5
41231,78162,5
41231,78163,5
41235,78177,4
41227,78168,5
41239,78183,5
41242,78184,6
41240,78182,3
41252,78197,5
41263,78212,5
41263,78223,5
41271,78234,5
41287,78245,4
41287,78268,5
41292,78282,5
41311,78301,5
41310,78304,5
41318,78307,4
41332,78328,5
41322,78332,5
41338,78344,5
41337,78348,5
41347,78362,4
41347,78351,5
41355,78373,5
41360,78377,5
41363,78375,5
41353,78382,5
41360,78380,4
41367,78389,5
41357,78380,5
41355,78383,4
41357,78372,5
41356,78374,5
41346,78367,5
41348,78365,5
41357,78368,4
41343,78366,5
41347,78356,5
41344,78360,5
41348,78363,5
41338,78359,4
41340,78346,5
41336,78348,5
41344,78345,5
41335,78348,5
41334,78348,4
41322,78339,5
41328,78336,5
41323,78322,5
41327,78335,5
41312,78323,4
41324,78314,6
41308,78285,4
41302,78274,5
41271,78252,4
41274,78231,4
41266,78223,5
41259,78200,5
41245,78210,5
41250,78190,4
41249,78188,5
41247,78180,5
41263,78200,5
41258,78206,5
41264,78224,4
41262,78242,5
41298,78238,5
41283,78256,5
41285,78271,5
41294,78275,4
41318,78286,5
41310,78289,5
41300,78296,5
41315,78288,5
41311,78304,4
41308,78280,5
41288,78239,6
41252,78182,4
41231,78158,4
41224,78140,4
41213,78125,5
41209,78126,5
41199,78092,5
41198,78109,4
41206,78107,5
41214,78113,5
41206,78112,5
41211,78128,5
41214,78137,4
41224,78149,5
41235,78148,5
41243,78175,5
41250,78187,5
41254,78210,4
41259,78227,5
41269,78224,5
41277,78229,5
41281,78249,5
41278,78279,4
41295,78267,5
41292,78267,5
41305,78272,5
41298,78303,5
41304,78283,4
41304,78291,5
41316,78295,5
41303,78297,5
41309,78297,4
41307,78290,5
41311,78297,5
41317,78306,5
41312,78295,5
41310,78301,4
41302,78290,5
41309,78290,5
41291,78289,5
41291,78269,5
41294,78280,4
41289,78259,5
41288,78260,5
41274,78241,5
41279,78237,5
41273,78232,5
41274,78229,4
41276,78227,5
41267,78217,5
41270,78219,5
41259,78229,4
41270,78224,5
41272,78230,5
41277,78234,5
41278,78242,4
41283,78259,5
41294,78258,5
41295,78262,5
41302,78279,5
41300,78298,4
41309,78299,5
41316,78317,5
41325,78330,5
41333,78345,5
41341,78355,4
41344,78364,5
41350,78364,5
41362,78370,5
41354,78387,5
41366,78398,4
41370,78397,6
41374,78398,4
41380,78399,5
41369,78409,5
41379,78416,4
41379,78408,5
41374,78414,5
41371,78412,5
41376,78403,4
41380,78403,4
41370,78398,5
41362,78384,5
41358,78370,5
41346,78369,4
41335,78348,5
41326,78332,5
41321,78304,5
41309,78293,5
41299,78266,4
41293,78252,5
41288,78257,5
41277,78243,5
41270,78247,5
41278,78238,4
41274,78233,5
41280,78235,5
41278,78247,7
41282,78256,3
41288,78267,4
41289,78267,5
41285,78265,5
41298,78278,5
41299,78284,4
41303,78280,4
41301,78280,5
41305,78287,5
41298,78284,5
41290,78255,4
41273,78217,5
41243,78176,5
41240,78156,5
41224,78148,5
41216,78137,5
41207,78138,4
41217,78139,5
41222,78146,5
41229,78147,6
41233,78161,3
41227,78171,5
41236,78195,5
41249,78207,5
41260,78221,5
41258,78237,4
41279,78250,5
41295,78270,5
41308,78300,5
41299,78302,4
41329,78325,4
41343,78349,5
41354,78366,5
41358,78378,5
41363,78378,4
41373,78392,5
41366,78405,5
41393,78395,5
41373,78414,5
41375,78423,4
41386,78415,6
41399,78430,4
41389,78437,5
41403,78443,5
41405,78457,6
41416,78445,3
41408,78457,5
41401,78456,5
41398,78452,5
41397,78440,4
41386,78432,5
41390,78440,5
41392,78442,5
41385,78416,4
41383,78428,4
41381,78421,5
41380,78420,5
41382,78405,5
41386,78418,4
41382,78425,5
41388,78420,5
41390,78415,5
41395,78440,5
41394,78458,4
41407,78463,5
41414,78487,6
41420,78504,4
41432,78524,5
41452,78551,4
41464,78590,5
41478,78607,5
41493,78616,5
41502,78645,5
41519,78686,4
41540,78694,5
41546,78706,5
41551,78725,5
41562,78746,5
41569,78746,4
41583,78767,5
41581,78765,5
41583,78790,5
41592,78789,4
41600,78803,5
41601,78809,5
41599,78794,5
41592,78794,5
41596,78800,4
41593,78779,5
41574,78776,5
41573,78754,6
41568,78746,4
41559,78725,4
41539,78710,5
41538,78694,5
41529,78677,5
41517,78673,5
41529,78661,4
41518,78652,5
41505,78654,5
41516,78657,5
41513,78663,5
41526,78678,4
41524,78687,5
41535,78685,5
41538,78693,5
41535,78710,4
41544,78712,4
41551,78725,5
41561,78735,5
41558,78743,5
41564,78742,5
41563,78729,4
41533,78674,5
41507,78641,5
41506,78635,6
41493,78623,3
41488,78610,5
41500,78612,5
41490,78614,5
41493,78626,5
41505,78630,4
41506,78640,5
41511,78651,5
41506,78670,5
41526,78681,5
41532,78703,4
41545,78722,5
41566,78737,5
41568,78770,5
41589,78787,4
41595,78801,4
41617,78836,5
41611,78844,5
41640,78864,5
41635,78878,4
41648,78884,6
41647,78904,4
41651,78911,5
41667,78921,5
41664,78917,4
41659,78926,5
41670,78922,5
41665,78936,5
41672,78951,5
41682,78952,4
41693,78963,5
41691,78964,5
41680,78953,5
41688,78954,5
41683,78954,4
41678,78939,5
41682,78944,5
41680,78943,5
41670,78933,5
41667,78928,4
41661,78929,5
41666,78918,5
41655,78914,5
41662,78920,4
41654,78906,5
41653,78916,6
41658,78914,4
41656,78907,5
41667,78913,4
41669,78931,5
41656,78937,5
41676,78943,5
41683,78970,5
41690,78987,4
41693,79004,5
41715,79019,5
41735,79049,5
41741,79062,5
41737,79086,4
41769,79110,5
41782,79129,5
41794,79147,5
41795,79168,5
41812,79180,4
41821,79197,5
41821,79205,5
41827,79215,5
41834,79213,4
41833,79215,5
41831,79220,5
41864,79223,6
41836,79214,4
41816,79203,4
41824,79199,5
41838,79177,5
41801,79164,5
41789,79143,5
41785,79121,4
41765,79108,5
41752,79087,5
41755,79075,5
41747,79075,5
41753,79070,4
41751,79067,5
41745,79072,5
41751,79078,5
41752,79072,5
41759,79084,4
41764,79105,5
41771,79100,5
41783,79099,5
41777,79129,5
41788,79145,4
41792,79152,5
41798,79135,5
41782,79099,5
41749,79066,4
41746,79067,5
41736,79055,5
41735,79042,5
41729,79034,5
41719,79032,4
41728,79063,5
41724,79039,5
41724,79046,5
41730,79044,5
41731,79070,4
41738,79061,5
41748,79070,5
41743,79077,5
41751,79087,5
41765,79103,4
41761,79113,5
41772,79120,5
41769,79128,5
41782,79135,4
41783,79135,5
41792,79143,4
41782,79142,5
41787,79142,5
41787,79150,4
41781,79145,5
41783,79142,5
41788,79148,5
41785,79141,5
41777,79134,4
41787,79136,5
41794,79150,5
41792,79155,5
41797,79159,5
41784,79148,4
41788,79140,5
41784,79136,5
41782,79128,5
41777,79119,5
41780,79112,4
41769,79116,5
41767,79103,5
41760,79096,5
41759,79083,5
41745,79072,4
41740,79063,6
41729,79049,4
41721,79032,5
41729,79039,4
41719,79018,5
41720,79018,5
41711,79006,5
41721,79024,5
41710,79016,4
41702,79009,5
41718,79012,5
41718,79010,5
41716,79019,5
41723,79019,4
41724,79022,5
41730,79035,5
41738,79040,5
41732,79049,5
41728,79045,4
41728,79042,5
41728,79059,5
41733,79051,5
41743,79052,5
41737,79055,4
41743,79054,5
41733,79052,5
41733,79043,5
41733,79043,4
41725,79040,4
41727,79028,5
41727,79039,5
41723,79031,5
41718,79018,4
41715,79018,5
41712,79020,5
41712,79000,5
41711,78993,5
41692,78971,4
41686,78956,5
41669,78934,5
41649,78890,5
41619,78850,5
41596,78809,4
41573,78759,5
41547,78721,5
41536,78682,5
41518,78652,5
41495,78619,4
41483,78597,5
41482,78601,5
41485,78599,5
41477,78593,4
41477,78596,4
41482,78598,5
41481,78604,5
41491,78624,5
41496,78627,4
41500,78620,5
41489,78620,5
41504,78635,5
41508,78655,5
41507,78648,4
41485,78640,5
41487,78593,5
41449,78528,5
41420,78499,5
41395,78474,4
41393,78458,5
41389,78437,5
41384,78425,5
41380,78416,5
41378,78422,5
41373,78421,3
41374,78411,5
41396,78416,5
41373,78422,5
41379,78425,4
41382,78427,5
41410,78432,5
41384,78443,5
41389,78448,4
41390,78452,5
41416,78459,5
41405,78464,5
41409,78459,5
41404,78466,4
41401,78472,5
41406,78466,5
41398,78466,5
41396,78464,5
41398,78456,4
41399,78464,5
41404,78469,6
41402,78463,4
41404,78446,5
41402,78467,4
41403,78459,5
41400,78462,5
41399,78436,5
41406,78466,5
41397,78450,4
41392,78452,5
41392,78445,5
41379,78445,5
41385,78437,4
41375,78413,5
41374,78428,5
41372,78395,5
41363,78382,5
41347,78376,4
41348,78386,5
41332,78349,5
41332,78337,5
41320,78321,5
41320,78331,4
41317,78302,5
41306,78290,5
41305,78293,6
41305,78294,4
41301,78291,4
41302,78295,5
41308,78293,5
41300,78298,5
41304,78298,5
41316,78303,4
41321,78310,5
41326,78313,5
41324,78324,5
41329,78329,4
41327,78332,4
41337,78337,5
41331,78346,5
41329,78339,5
41335,78355,4
41341,78356,5
41350,78361,5
41348,78364,5
41349,78370,5
41350,78379,5
41352,78364,4
41355,78356,5
41347,78364,5
41342,78362,6
41345,78359,3
41346,78356,5
41348,78350,5
41341,78350,5
41332,78336,5
41325,78332,4
41325,78320,5
41321,78301,5
41314,78305,5
41315,78280,4
41294,78260,4
41275,78230,5
41253,78203,5
41231,78163,5
41207,78122,4
41197,78096,5
41180,78068,10
41163,78039,5
41162,78035,4
41156,78016,6
41154,78030,4
41162,78034,5
41156,78036,5
41175,78049,6
41172,78058,3
41181,78071,5
41187,78086,5
41201,78103,5
41199,78112,4
41204,78123,5
41208,78122,5
41219,78126,5
41212,78132,5
41219,78139,4
41224,78138,5
41219,78116,5
41184,78087,5
41156,78027,4
41146,78000,5
41133,77974,5
41118,77966,5
41105,77952,5
41097,77939,4
41095,77928,5
41093,77930,6
41089,77935,4
41104,77933,5
41098,77936,4
41101,77945,5
41112,77956,5
41122,77953,5
41123,77978,5
41124,77982,4
41136,77999,5
41147,78001,5
41139,78007,5
41146,78018,5
41150,78026,4
41155,78034,5
41163,78046,5
41158,78041,5
41165,78043,4
41176,78056,4
41181,78056,5
41163,78073,5
41180,78075,5
41186,78066,4
41182,78069,5
41162,78073,5
41191,78084,6
41190,78092,4
41193,78090,4
41184,78089,5
41191,78088,5
41188,78082,5
41195,78084,5
41199,78073,4
41183,78066,5
41178,78059,5
41177,78054,5
41197,78050,5
41163,78048,4
41175,78040,5
41163,78042,5
41183,78039,5
41159,78041,4
41169,78032,4
41160,78034,5
41168,78040,5
41170,78041,5
41165,78033,5
41162,78034,4
41162,78045,5
41172,78040,5
41175,78060,6
41178,78069,3
41184,78061,5
41185,78082,5
41188,78090,5
41205,78110,5
41203,78094,4
41214,78124,5
41221,78130,5
41219,78136,5
41222,78133,5
41226,78152,4
41228,78156,5
41242,78162,5
41239,78179,5
41240,78173,5
41243,78176,4
41249,78178,5
41238,78196,5
41248,78189,5
41237,78188,4
41249,78188,6
41249,78201,4
41246,78175,5
41249,78189,5
41244,78181,4
41243,78185,5
41239,78175,5
41239,78170,5
41224,78170,5
41234,78161,4
41232,78159,5
41233,78151,5
41226,78149,5
41224,78156,5
41223,78146,4
41223,78136,5
41221,78144,5
41212,78128,5
41213,78141,5
41219,78124,4
41212,78120,5
41211,78131,5
41210,78112,5
41207,78122,4
41201,78112,4
41207,78111,6
41196,78103,4
41199,78101,5
41196,78097,4
41196,78078,5
41182,78067,5
41170,78039,5
41165,78028,5
41139,78008,4
41128,77985,5
41123,77970,5
41115,77949,5
41106,77945,5
41097,77938,4
41110,77935,5
41104,77940,5
41120,77956,5
41121,77974,5
41139,77992,4
41141,78004,5
41146,78018,5
41153,78042,5
41169,78044,5
41169,78056,4
41170,78070,5
41175,78061,6
41182,78062,4
41174,78064,4
41158,78022,5
41136,77985,5
41110,77942,5
41098,77932,5
41099,77919,4
41097,77924,5
41100,77914,5
41090,77918,5
41089,77918,5
41090,77928,4
41104,77933,5
41103,77948,5
41110,77953,5
41118,77974,5
41126,77964,4
41125,77991,5
41142,78010,5
41147,78025,5
41154,78037,5
41168,78049,4
41173,78067,5
41177,78064,5
41190,78080,5
41187,78089,4
41191,78097,5
41195,78105,5
41201,78108,5
41206,78104,5
41209,78113,4
41207,78108,5
41206,78116,5
41201,78119,5
41215,78123,5
41213,78119,4
41216,78132,5
41219,78136,5
41224,78134,5
41212,78131,5
41208,78130,4
41219,78126,5
41212,78115,5
41208,78116,5
41208,78115,5
41205,78111,5
41190,78093,4
41180,78096,5
41192,78096,5
41187,78090,4
41189,78091,4
41167,78092,5
41194,78095,5
41188,78087,5
41193,78090,4
41189,78104,5
41198,78103,5
41202,78111,5
41209,78113,5
41215,78118,4
41210,78124,5
41220,78143,5
41222,78141,5
41246,78151,5
41231,78160,4
41241,78161,5
41241,78177,5
41263,78185,5
41252,78200,5
41261,78209,4
41259,78205,6
41281,78224,4
41276,78232,5
41281,78232,4
41280,78244,4
41293,78245,5
41289,78244,5
41294,78261,5
41293,78257,4
41294,78251,5
41291,78275,5
41300,78274,5
41295,78274,5
41302,78254,4
41300,78272,5
41303,78275,5
41299,78270,5
41290,78266,5
41288,78264,4
41298,78267,5
41290,78265,5
41292,78271,5
41291,78267,4
41289,78264,4
41289,78254,5
41293,78288,5
41297,78262,5
41292,78254,5
41290,78259,4
41285,78265,5
41278,78236,5
41275,78232,5
41261,78209,4
41255,78202,5
41239,78178,5
41237,78157,5
41232,78147,5
41219,78141,4
41220,78130,5
41211,78126,5
41217,78133,5
41217,78134,5
41219,78146,5
41225,78167,4
41235,78176,5
41244,78179,5
41251,78199,6
41253,78201,3
41266,78212,5
41265,78224,5
41271,78229,5
41269,78225,5
41265,78222,4
41263,78230,5
41260,78198,5
41235,78157,5
41211,78110,4
41195,78098,5
41183,78085,5
41173,78074,5
41168,78065,5
41179,78068,4
41178,78068,5
41186,78071,5
41187,78078,5
41181,78079,5
41186,78104,4
41200,78108,6
41204,78123,4
41218,78127,5
41224,78144,5
41228,78161,6
41243,78176,3
41241,78182,5
41239,78195,5
41241,78193,5
41260,78201,4
41260,78196,5
41254,78209,5
41254,78221,5
41261,78203,4
41263,78212,5
41262,78216,5
41258,78213,5
41263,78212,5
41264,78212,4
41266,78225,5
41268,78229,5
41271,78233,5
41270,78228,5
41274,78211,4
41262,78218,5
41258,78205,6
41257,78198,4
41254,78191,5
41247,78204,4
41253,78190,5
41235,78170,5
41240,78167,5
41235,78164,5
41227,78156,4
41236,78145,5
41226,78149,5
41225,78144,5
41213,78141,4
41219,78138,4
41219,78138,5
41222,78144,5
41222,78150,5
41224,78152,4
41235,78165,5
41237,78175,5
41245,78179,5
41248,78188,5
41255,78193,4
41254,78208,5
41268,78221,5
41270,78236,6
41281,78240,4
41286,78255,4
41288,78267,5
41297,78272,5
41283,78277,5
41305,78285,5
41314,78297,4
41312,78306,5
41305,78305,5
41316,78320,5
41320,78313,4
41332,78326,4
41306,78322,5
41323,78327,5
41323,78315,5
41329,78313,4
41333,78320,5
41320,78318,5
41321,78312,5
41321,78307,5
41331,78295,5
41312,78288,4
41304,78295,5
41303,78276,5
41320,78277,6
41296,78254,3
41283,78241,5
41275,78231,5
41280,78220,5
41256,78205,5
41257,78190,4
41254,78195,5
41243,78179,5
41238,78177,5
41251,78181,5
41246,78183,4
41245,78171,5
41244,78192,5
41249,78202,5
41260,78208,4
41269,78187,5
41267,78204,5
41270,78210,5
41260,78222,5
41266,78204,4
41270,78218,6
41270,78214,4
41255,78190,5
41225,78152,5
41204,78095,4
41187,78085,5
41192,78069,5
41176,78085,5
41174,78065,5
41177,78063,4
41172,78068,5
41186,78101,5
41188,78080,5
41191,78108,5
41192,78106,4
41203,78137,5
41216,78139,5
41232,78165,5
41245,78188,4
41253,78209,5
41253,78223,5
41284,78247,5
41277,78253,5
41288,78269,4
41301,78282,5
41313,78287,6
41300,78294,4
41311,78303,5
41322,78314,4
41314,78306,5
41321,78312,5
41318,78307,5
41316,78317,5
41322,78318,4
41320,78314,8
41327,78331,2
41331,78329,5
41328,78329,5
41340,78337,4
41320,78317,5
41321,78322,5
41321,78316,5
41316,78315,4
41314,78307,4
41314,78309,5
41315,78310,5
41317,78293,5
41307,78303,4
41304,78292,5
41304,78290,5
41311,78299,6
41305,78295,4
41301,78298,4
41310,78303,5
41314,78309,5
41320,78314,5
41323,78321,5
41325,78330,4
41336,78351,5
41346,78355,5
41353,78375,5
41368,78406,5
41384,78420,4
41395,78445,5
41410,78464,5
41420,78489,5
41423,78504,4
41436,78520,4
41445,78532,5
41448,78545,5
41453,78559,5
41464,78568,5
41467,78585,4
41478,78591,5
41481,78596,5
41485,78589,5
41483,78594,4
41472,78595,5
41474,78583,5
41470,78564,5
41454,78554,5
41449,78538,4
41441,78532,5
41431,78513,5
41424,78509,5
41421,78499,5
41427,78496,4
41436,78494,5
41424,78499,5
41434,78511,5
41436,78513,5
41445,78529,4
41447,78537,5
41441,78530,5
41443,78542,5
41454,78546,4
41451,78555,6
41458,78554,4
41463,78568,5
41458,78562,5
41449,78543,4
41436,78503,5
41412,78470,5
41396,78458,5
41390,78438,5
41384,78430,4
41386,78426,5
41386,78428,5
41376,78437,5
41394,78452,5
41396,78457,4
41403,78474,5
41390,78479,5
41427,78503,5
41431,78516,5
41444,78544,4
41455,78559,5
41472,78583,5
41490,78606,5
41495,78615,4
41518,78631,4
41513,78659,6
41512,78679,4
41527,78672,5
41545,78681,4
41526,78683,5
41533,78698,5
41540,78698,5
41547,78705,5
41549,78713,4
41553,78716,5
41554,78726,5
41553,78722,5
41553,78732,5
41557,78747,4
41566,78738,5
41555,78733,5
41545,78724,5
41551,78729,5
41548,78717,4
41541,78703,5
41557,78706,5
41541,78704,5
41543,78695,4
41532,78673,4
41521,78685,5
41528,78681,5
41519,78668,5
41522,78653,4
41518,78669,5
41519,78679,5
41528,78677,5
41533,78708,5
41527,78685,4
41545,78697,5
41542,78708,5
41560,78750,5
41560,78746,5
41574,78765,4
41590,78790,5
41593,78824,5
41610,78825,5
41622,78849,5
41635,78870,4
41646,78880,5
41643,78901,5
41657,78906,5
41660,78914,5
41668,78926,4
41680,78938,5
41679,78948,5
41681,78945,5
41672,78933,4
41662,78921,5
41666,78915,5
41663,78904,5
41653,78887,5
41635,78883,4
41631,78872,5
41622,78851,5
41628,78844,5
41618,78831,5
41606,78836,4
41608,78830,5
41614,78847,5
41616,78847,5
41619,78849,5
41624,78851,4
41632,78859,5
41632,78873,5
41641,78891,5
41647,78906,5
41651,78901,5
41648,78896,3
41628,78868,5
41612,78837,5
41605,78831,4
41610,78817,5
41605,78819,5
41609,78815,5
41605,78813,5
41606,78814,4
41604,78830,5
41608,78836,5
41618,78839,5
41617,78858,5
41624,78859,4
41634,78869,5
41645,78894,5
41642,78900,5
41659,78919,5
41666,78932,4
41679,78954,5
41686,78967,6
41694,78972,4
41700,78978,5
41707,78999,4
41707,78998,5
41715,79006,5
41715,79017,5
41712,79013,4
41717,79010,5
41717,79017,5
41716,79021,5
41713,79025,5
41720,79024,4
41720,79052,5
41736,79062,5
41750,79066,5
41744,79068,5
41753,79063,4
41750,79068,5
41748,79070,5
41748,79062,5
41743,79067,5
41741,79065,4
41740,79063,5
41744,79058,5
41742,79060,6
41739,79045,4
41724,79046,4
41736,79044,5
41718,79022,5
41726,79018,5
41714,79023,4
41718,79025,5
41714,79032,5
41721,79033,5
41730,79035,5
41733,79047,4
41732,79045,5
41738,79049,5
41737,79072,5
41737,79075,5
41754,79086,4
41765,79100,5
41769,79107,5
41752,79118,5
41771,79117,5
41775,79118,5
41780,79119,4
41755,79121,5
41769,79114,5
41776,79107,6
41765,79097,3
41759,79077,5
41752,79066,5
41743,79046,5
41733,79029,4
41736,79010,5
41703,78986,5
41700,78981,5
41689,78974,5
41703,78960,4
41691,78960,5
41682,78959,5
41688,78958,5
41696,78953,5
41682,78957,4
41666,78949,5
41683,78954,5
41686,78965,5
41691,78968,5
41696,78971,4
41677,78950,6
41654,78889,4
41625,78864,5
41618,78836,5
41605,78819,4
41590,78776,5
41590,78781,5
41578,78773,5
41574,78778,4
41567,78740,5
41559,78737,5
41558,78729,5
41542,78714,5
41536,78710,4
41541,78693,5
41529,78689,5
41522,78685,5
41529,78693,5
41518,78659,4
41518,78663,5
41515,78654,5
41512,78672,5
41501,78648,5
41506,78645,4
41495,78637,5
41500,78640,6
41498,78635,4
41496,78626,5
41494,78626,4
41488,78628,5
41489,78615,5
41491,78616,5
41484,78609,4
41489,78606,5
41489,78622,5
41481,78614,5
41488,78601,5
41474,78601,4
41474,78583,5
41465,78577,5
41462,78555,5
41449,78552,5
41454,78539,4
41446,78521,5
41441,78518,5
41425,78500,5
41424,78498,5
41412,78474,4
41406,78465,5
41391,78458,5
41389,78433,6
41386,78426,4
41370,78419,4
41375,78412,5
41375,78403,5
41372,78403,5
41358,78399,4
41373,78405,4
41368,78412,5
41371,78417,5
41377,78417,5
41378,78414,4
41379,78432,5
41384,78429,5
41387,78437,5
41394,78445,5
41388,78451,4
41393,78449,5
41399,78447,5
41395,78449,5
41400,78448,5
41389,78445,5
41400,78456,4
41403,78461,5
41401,78456,5
41398,78458,5
41397,78453,4
41395,78461,5
41401,78459,5
41395,78445,5
41396,78450,4
41392,78430,4
41374,78438,5
41388,78421,5
41375,78416,5
41370,78389,4
41359,78375,5
41334,78350,5
41319,78302,5
41293,78268,5
41272,78235,4
41255,78190,5
41228,78149,5
41213,78123,5
41192,78102,5
41182,78090,4
41187,78088,6
41189,78094,4
41198,78097,5
41192,78100,5
41195,78106,4
41200,78113,5
41211,78136,5
41211,78150,5
41223,78151,4
41236,78166,4
41230,78171,5
41249,78186,5
41255,78192,5
41262,78192,4
41235,78164,5
41210,78113,5
41184,78080,5
41180,78070,5
41163,78045,4
41161,78028,5
41152,78026,5
41150,78023,5
41132,78017,5
41148,78025,4
41143,78012,5
41147,78013,6
41126,78012,4
41151,78011,5
41146,78028,4
41156,78027,5
41151,78037,5
41168,78052,5
41171,78053,4
41168,78060,4
41184,78062,5
41182,78070,5
41181,78068,5
41183,78076,4
41202,78075,5
41178,78069,5
41186,78079,5
41184,78085,5
41201,78081,4
41189,78091,5
41192,78092,5
41188,78093,5
41191,78086,5
41188,78084,4
41195,78078,5
41194,78094,5
41191,78078,5
41191,78089,5
41187,78082,4
41183,78070,5
41185,78052,5
41187,78059,5
41176,78069,4
41172,78050,4
41168,78023,5
41165,78045,5
41155,78025,5
41160,78030,4
41160,78023,5
41158,78028,5
41151,78027,5
41152,78014,5
41150,78029,4
41146,78020,5
41151,78019,5
41153,78011,5
41155,78047,5
41168,78044,10
41168,78044,4
41176,78070,5
41181,78073,5
41191,78094,4
41202,78101,5
41200,78101,5
41202,78118,5
41206,78124,4
41213,78131,4
41215,78137,5
41220,78134,5
41227,78143,5
41228,78146,4
41231,78150,5
41236,78150,5
41229,78153,5
41236,78165,5
41232,78175,4
41236,78171,5
41243,78167,5
41235,78165,5
41229,78161,5
41227,78158,4
41236,78162,6
41228,78149,4
41223,78139,5
41221,78133,5
41223,78135,4
41218,78127,5
41217,78121,5
41208,78114,5
41211,78105,4
41207,78105,4
41208,78109,5
41194,78103,5
41193,78090,5
41195,78080,4
41185,78076,5
41189,78081,5
41182,78077,5
41187,78073,5
41188,78066,4
41183,78060,5
41181,78064,5
41181,78052,5
41172,78056,5
41175,78056,4
41163,78052,5
41170,78046,5
41169,78049,5
41163,78033,5
41165,78027,4
41161,78028,5
41159,78027,5
41155,78013,5
41153,77993,4
41132,77984,4
41119,77947,5
41100,77915,5
41077,77886,5
41064,77849,4
41047,77822,5
41033,77805,5
41025,77788,5
41011,77781,5
41016,77788,4
41020,77794,4
41036,77810,5
41046,77832,5
41058,77861,5
41067,77871,3
41077,77882,5
41090,77915,5
41095,77931,5
41108,77947,5
41122,77959,4
41132,77966,5
41129,77968,5
41127,77973,5
41125,77962,4
41093,77913,4
41076,77871,5
41061,77850,5
41049,77838,5
41042,77833,4
41039,77822,5
41035,77824,5
41038,77818,5
41032,77822,5
41046,77829,4
41043,77829,6
41056,77840,4
41045,77859,5
41060,77873,5
41073,77876,6
41085,77887,3
41068,77910,5
41100,77914,5
41107,77933,5
41114,77942,4
41104,77954,5
41119,77959,5
41119,77975,5
41129,77983,4
41139,77977,4
41131,77981,5
41140,77994,5
41132,78002,5
41165,78000,4
41148,78001,5
41144,77998,5
41137,77999,5
41160,78006,5
41144,78014,4
41144,78018,5
41151,78021,6
41160,78019,4
41162,78028,5
41156,78011,4
41151,78015,5
41151,78013,5
41153,78010,5
41145,78008,5
41147,77998,4
41144,77987,5
41147,78002,5
41135,77991,5
41140,77993,5
41135,77972,4
41134,77989,5
41139,77987,5
41134,77978,5
41135,77969,4
41136,77982,5
41144,77992,5
41137,77984,5
41137,78010,5
41153,78014,4
41153,78014,5
41160,78038,5
41167,78056,6
41165,78051,4
41171,78055,4
41181,78062,5
41186,78099,5
41192,78092,5
41196,78096,5
41198,78105,4
41202,78119,5
41206,78124,5
41213,78124,5
41222,78127,4
41223,78139,4
41215,78146,5
41229,78149,5
41240,78143,5
41223,78153,4
41238,78154,5
41236,78159,5
41234,78162,5
41233,78154,5
41228,78153,5
41229,78150,4
41226,78152,5
41231,78144,5
41232,78148,6
41226,78144,3
41222,78134,5
41224,78149,5
41226,78135,5
41217,78129,5
41224,78128,4
41221,78118,5
41220,78120,5
41211,78122,5
41209,78120,4
41209,78114,4
41199,78114,5
41205,78108,5
41208,78101,5
41199,78113,4
41197,78089,5
41198,78091,5
41196,78090,5
41190,78083,5
41194,78085,4
41196,78078,6
41189,78075,4
41189,78074,5
41184,78078,5
41184,78074,4
41185,78076,5
41186,78062,5
41180,78066,5
41173,78058,5
41177,78051,4
41171,78026,5
41159,78014,5
41137,77995,5
41129,77958,4
41117,77940,4
41107,77921,5
41097,77913,5
41090,77903,5
41083,77894,4
41086,77919,5
41095,77915,5
41105,77934,5
41108,77948,5
41116,77959,4
41123,77980,5
41131,77999,6
41149,78013,4
41150,78020,5
41150,78020,4
41156,78026,5
41157,78037,5
41159,78030,5
41163,78018,5
41156,78028,4
41150,78011,5
41125,77948,5
41091,77910,5
41089,77893,4
41073,77873,4
41063,77869,5
41065,77866,5
41064,77870,5
41063,77865,4
41066,77877,5
41074,77871,5
41081,77882,5
41081,77889,5
41080,77901,4
41092,77906,5
41105,77929,5
41106,77944,6
41104,77956,4
41119,77967,4
41129,77974,5
41128,77988,5
41122,78001,5
41141,78015,5
41151,78017,4
41148,78013,5
41144,78028,5
41150,78030,5
41153,78034,4
41161,78034,4
41175,78037,5
41168,78044,5
41172,78039,5
41166,78051,4
41183,78056,5
41177,78064,5
41177,78069,5
41187,78073,5
41207,78068,5
41186,78073,4
41177,78065,5
41187,78054,5
41182,78062,5
41186,78061,4
41176,78060,5
41177,78044,5
41175,78047,5
41169,78039,5
41165,78046,4
41171,78041,5
41167,78035,5
41171,78044,5
41174,78055,4
41169,78060,4
41179,78047,5
41183,78069,10
41193,78074,5
41185,78075,5
41200,78077,5
41206,78096,8
41201,78102,5
41205,78104,5
41214,78137,8
41217,78146,5
41228,78179,5
41246,78156,5
41249,78190,8
41249,78187,5
41272,78220,5
41272,78220,8
41272,78222,5
41272,78233,5
41258,78213,5
41267,78217,8
41271,78211,5
41269,78208,5
41268,78173,8
41253,78169,5
41261,78199,5
41247,78175,8
41247,78175,5
41241,78172,5
41239,78175,5
41240,78151,8
41243,78164,5
41234,78166,5
41244,78170,8
41236,78141,5
41229,78116,5
41208,78101,5
41204,78100,8
41203,78078,5
41180,78060,5
41162,78038,8
41162,78038,5
41169,78035,5
41162,78047,8
41184,78051,5
41176,78053,5
41170,78070,5
41182,78065,8
41196,78082,5
41194,78078,5
41197,78086,8
41193,78085,5
41186,78090,5
41195,78088,5
41127,77951,8
41127,77951,5
41149,77948,5
41114,77944,8
41087,77929,5
41110,77938,5
41101,77940,8
41106,77965,5
41118,77964,5
41121,77971,5
41135,77979,8
41149,77999,5
41153,78032,5
41200,78099,8
41200,78099,5
41154,78109,5
41199,78113,5
41212,78114,8
41225,78152,5
41225,78149,5
41225,78130,8
41231,78142,5
41228,78158,5
41240,78167,8
41231,78163,5
41232,78147,5
41237,78156,5
41239,78175,8
41239,78175,5
41240,78200,5
41242,78189,8
41235,78141,5
41241,78153,5
41234,78159,5
41257,78154,8
41241,78147,5
41184,78141,5
41220,78131,8
41216,78128,5
41221,78135,5
41229,78139,8
41229,78139,5
41230,78117,5
41213,78120,5
41225,78152,8
41241,78171,5
41241,78178,5
41220,78196,8
41239,78206,5
41263,78225,5
41274,78238,5
41301,78260,8
41290,78270,5
41306,78282,5
41334,78325,8
41334,78325,5
41343,78327,5
41349,78336,8
41345,78335,5
41344,78345,5
41338,78341,5
41348,78353,8
41349,78379,5
41347,78353,5
41343,78323,13
41343,78323,5
41330,78325,5
41343,78334,8
41332,78328,5
41334,78301,5
41310,78302,8
41309,78283,5
41301,78275,5
41261,78208,8
41261,78208,5
41292,78177,5
41258,78179,2
41216,78174,2
41216,78174,2
41244,78200,5
41239,78170,4
41250,78182,5
41259,78195,5
41272,78219,5
41268,78217,4
41275,78220,4
41261,78216,5
41276,78234,5
41276,78230,5
41277,78229,4
41280,78226,6
41266,78222,4
41266,78202,5
41243,78151,5
41211,78133,6
41207,78117,3
41205,78103,5
41207,78110,5
41210,78110,5
41203,78118,4
41213,78131,5
41217,78133,5
41238,78154,5
41240,78170,5
41244,78194,4
41264,78208,5
41259,78226,5
41281,78244,5
41296,78266,5
41304,78288,4
41321,78320,5
41337,78333,5
41345,78347,5
41345,78369,4
41358,78385,5
41360,78399,6
41376,78398,4
41377,78411,5
41385,78416,4
41387,78434,5
41387,78435,5
41393,78435,5
41394,78452,5
41395,78449,4
41398,78459,5
41420,78481,5
41421,78481,5
41422,78476,5
41420,78476,4
41415,78474,5
41412,78465,5
41418,78470,5
41414,78464,5
41406,78464,4
41406,78467,5
41404,78453,5
41400,78454,5
41401,78448,4
41401,78447,5
41393,78433,5
41391,78441,6
41397,78437,4
41399,78442,4
41397,78448,5
41406,78460,5
41408,78462,5
41420,78484,5
41420,78501,4
41427,78519,5
41448,78531,5
41457,78558,5
41475,78579,5
41482,78603,4
41503,78624,5
41516,78642,5
41525,78673,5
41536,78693,5
41549,78708,4
41549,78708,5
41557,78732,5
41558,78742,5
41559,78746,5
41575,78759,4
41581,78761,5
41572,78752,5
41569,78755,6
