RED,IR,EKG,TIME
29950,60600,10
29945,60612,9
29953,60613,5
29941,60612,8
29951,60585,5
29955,60594,5
29952,60619,13
29958,60614,5
29951,60626,5
29956,60632,8
29963,60622,5
29950,60626,5
29960,60623,8
29954,60627,5
29958,60624,5
29954,60570,8
29959,60605,5
29956,60610,5
29949,60608,5
29951,60613,8
29951,60613,5
29942,60599,5
29951,60586,8
29936,60607,5
29948,60601,5
29954,60602,5
29931,60587,8
29936,60596,5
29942,60596,5
29950,60590,8
29943,60589,5
29933,60582,5
29945,60587,5
29934,60590,8
29934,60590,5
29962,60587,5
29962,60596,8
29945,60597,5
29938,60587,5
29933,60589,8
29932,60583,5
29937,60596,5
29935,60580,5
29932,60588,8
29937,60584,5
29941,60572,5
29923,60544,8
29923,60544,5
29906,60536,5
29885,60529,5
29893,60532,8
29906,60541,5
29917,60545,5
29925,60549,8
29923,60546,5
29928,60568,5
29928,60575,8
29931,60578,5
29936,60584,5
29929,60581,5
29947,60605,8
29947,60605,5
29956,60622,5
29964,60634,8
29968,60658,5
29970,60644,5
29964,60649,5
29975,60645,8
29986,60639,5
29971,60603,5
29931,60559,8
29926,60538,5
29910,60519,5
29908,60501,8
29908,60501,5
29914,60575,5
29936,60585,5
29954,60566,8
29917,60545,5
29962,60613,5
29985,60603,8
29954,60616,5
29945,60600,5
29962,60598,5
29957,60579,8
29953,60585,5
29958,60597,5
30018,60733,8
30018,60733,5
30028,60725,5
30035,60742,8
30045,60736,5
30030,60730,5
29988,60720,5
30005,60708,8
30021,60715,5
30021,60750,5
30011,60706,8
30009,60689,5
30001,60675,5
30013,60664,5
30005,60663,2
30000,60661,1
30011,60686,4
30029,60713,5
30033,60710,6
30019,60710,4
30007,60661,4
29992,60637,5
29982,60618,5
29972,60603,5
29965,60566,5
29960,60558,4
29957,60544,5
29944,60517,5
29935,60501,5
29936,60519,5
29945,60546,4
29951,60533,5
29958,60552,5
29955,60550,5
29946,60518,5
29927,60467,4
29919,60458,5
29908,60430,5
29898,60411,5
29899,60399,5
29886,60392,4
29886,60362,5
29870,60358,5
29887,60368,6
29884,60385,3
29905,60447,5
29933,60488,5
29948,60505,5
29932,60482,5
29932,60483,4
29911,60429,5
29888,60376,5
29867,60334,5
29843,60271,5
29829,60246,4
29830,60240,5
29830,60232,5
29833,60247,5
29834,60242,5
29815,60198,4
29788,60176,5
29795,60173,5
29794,60160,5
29781,60167,4
29794,60172,6
29811,60194,4
29827,60224,5
29819,60211,5
29797,60169,4
29780,60128,5
29778,60105,5
29779,60104,5
29774,60125,5
29785,60153,4
29797,60165,5
29796,60166,5
29803,60155,5
29792,60138,5
29778,60132,4
29782,60136,5
29791,60139,5
29789,60150,5
29801,60156,5
29801,60150,4
29800,60168,5
29802,60168,5
29798,60159,5
29801,60151,4
29795,60149,4
29789,60144,6
29775,60096,4
29760,60037,5
29720,59976,4
29690,59873,5
29656,59808,5
29636,59771,5
29635,59766,5
29634,59790,4
29668,59867,5
29699,59922,5
29692,59886,5
29641,59749,5
29575,59603,4
29536,59548,5
29544,59569,5
29573,59639,5
29617,59714,5
29619,59698,4
29593,59637,5
29558,59566,5
29553,59543,5
29549,59532,4
29567,59561,4
29560,59529,5
29533,59455,6
29509,59410,4
29517,59432,4
29536,59462,5
29562,59528,5
29605,59610,5
29626,59627,5
29632,59655,4
29621,59602,5
29600,59568,5
29572,59501,5
29545,59447,5
29522,59400,4
29518,59406,5
29513,59397,5
29530,59429,5
29552,59477,5
29568,59492,4
29547,59461,5
29541,59443,5
29542,59433,5
29537,59445,5
29556,59460,4
29567,59519,5
29602,59571,5
29601,59557,5
29598,59554,4
29582,59514,5
29557,59477,5
29548,59476,5
29568,59490,5
29577,59513,4
29587,59545,5
29604,59568,5
29615,59584,5
29620,59620,5
29623,59622,4
29612,59595,5
29604,59554,5
29589,59544,5
29569,59480,5
29558,59462,4
29546,59455,5
29546,59459,5
29547,59470,5
29565,59498,5
29572,59517,5
29586,59531,4
29576,59557,5
29591,59567,5
29607,59587,4
29614,59604,5
29616,59606,5
29611,59584,5
29603,59595,5
29609,59597,4
29608,59605,5
29613,59612,5
29633,59628,5
29629,59645,5
29640,59668,4
29653,59696,5
29655,59714,5
29675,59734,5
29671,59752,5
29692,59762,4
29677,59747,5
29667,59722,5
29664,59710,5
29658,59714,5
29655,59707,4
29662,59708,6
29662,59709,4
29659,59725,5
29677,59759,4
29675,59767,5
29678,59773,5
29694,59798,5
29704,59809,5
29713,59826,4
29716,59843,5
29711,59842,5
29713,59835,5
29708,59844,5
29722,59851,4
29728,59883,5
29745,59894,5
29749,59909,5
29764,59947,5
29773,59974,4
29798,60006,5
29802,60039,5
29818,60076,6
29843,60101,4
29863,60125,4
29867,60146,5
29872,60169,5
29878,60190,5
29886,60207,4
29893,60213,5
29891,60219,5
29899,60220,5
29904,60251,5
29912,60258,4
29922,60278,5
29931,60300,5
29939,60318,5
29945,60327,5
29948,60337,4
29957,60361,5
29951,60346,5
29954,60354,5
29949,60354,5
29946,60335,5
29947,60342,4
29945,60350,5
29952,60339,5
29953,60344,6
29942,60349,3
29945,60339,5
29945,60345,5
29953,60359,5
29951,60343,4
29941,60348,4
29950,60347,5
29947,60351,5
29947,60349,5
29945,60345,4
29955,60346,5
29951,60347,5
29949,60348,5
29952,60344,5
29943,60349,4
29943,60352,5
29936,60335,5
29941,60334,5
29938,60357,5
29946,60356,4
29949,60348,6
29936,60347,4
29939,60339,5
29932,60327,5
29933,60318,6
29930,60330,3
29934,60327,5
29928,60325,5
29927,60302,4
29923,60296,4
29918,60282,5
29911,60269,5
29905,60269,5
29900,60259,4
29899,60255,5
29897,60246,5
29892,60258,5
29896,60243,5
29888,60252,4
29887,60233,5
29886,60223,5
29881,60214,5
29865,60195,5
29862,60177,4
29855,60172,5
29857,60178,6
29859,60185,4
29861,60172,5
29844,60146,4
29831,60124,5
29825,60110,5
29835,60121,5
29833,60127,4
29844,60133,4
29849,60154,5
29861,60170,5
29854,60173,5
29858,60160,4
29844,60147,5
29840,60137,5
29841,60133,5
29829,60122,5
29819,60092,4
29812,60079,5
29806,60070,5
29817,60096,5
29818,60089,5
29822,60080,4
29804,60044,5
29787,60028,5
29791,60022,6
29778,60004,4
29783,60019,4
29798,60043,5
29812,60081,5
29819,60100,5
29819,60076,4
29792,60037,4
29786,60011,5
29775,60003,5
29789,60007,5
29794,60041,4
29805,60062,5
29826,60087,5
29827,60100,6
29837,60119,4
29833,60115,4
29841,60114,5
29840,60120,5
29843,60131,5
29838,60106,5
29826,60085,5
29823,60075,4
29815,60066,5
29798,60040,5
29790,60025,6
29802,60033,3
29791,59998,5
29779,59982,5
29771,59973,5
29778,59986,4
29784,59986,4
29793,60001,5
29789,60024,5
29805,60037,5
29801,60026,4
29777,59982,5
29764,59956,5
29757,59950,5
29755,59923,5
29751,59920,4
29755,59914,5
29753,59923,5
29758,59924,5
29756,59938,5
29772,59961,4
29768,59953,6
29765,59937,4
29761,59926,5
29755,59930,5
29762,59933,4
29752,59932,5
29772,59955,5
29773,59973,5
29774,59970,5
29771,59969,4
29773,59950,5
29765,59956,5
29767,59961,5
29781,59960,4
29780,59975,5
29775,59988,5
29786,59990,5
29798,59985,5
29781,59996,4
29780,59988,5
29787,59998,5
29795,59994,5
29798,60001,5
29797,59993,4
29788,60001,5
29789,60003,7
29793,60016,3
29796,60021,5
29796,60023,4
29800,60034,5
29799,60017,5
29795,60008,5
29780,59996,5
29781,59992,4
29782,59998,5
29781,59991,5
29785,59983,5
29779,59998,4
29787,60003,5
29793,60006,5
29795,60005,5
29781,59975,5
29763,59953,4
29748,59911,5
29739,59902,5
29733,59879,5
29732,59882,5
29733,59891,4
29739,59902,5
29743,59913,5
29742,59918,6
29752,59927,4
29754,59939,4
29767,59967,5
29776,59982,5
29784,60002,5
29785,60004,5
29791,60021,4
29801,60040,5
29813,60053,5
29820,60071,5
29825,60089,4
29829,60101,5
29827,60108,5
29840,60124,5
29844,60134,5
29870,60162,4
29872,60182,5
29878,60203,5
29885,60226,5
29907,60254,5
29917,60273,5
29921,60286,4
29934,60304,5
29935,60322,5
29937,60323,5
29941,60327,4
29947,60330,5
29957,60342,5
29950,60350,5
29954,60353,5
29962,60360,4
29960,60353,5
29947,60360,5
29944,60359,5
29957,60359,4
29959,60363,5
29964,60366,5
29960,60380,5
29964,60379,5
29976,60397,4
29965,60399,5
29972,60389,5
29964,60376,5
29960,60391,5
29963,60394,4
29970,60389,6
29967,60391,4
29966,60384,5
29961,60381,5
29965,60381,4
29971,60383,5
29959,60393,5
29961,60394,5
29970,60392,5
29963,60393,4
29964,60393,5
29969,60390,5
29968,60403,5
29967,60402,4
29975,60407,4
29974,60401,5
29967,60400,5
29967,60400,5
29975,60401,4
29968,60392,5
29958,60397,5
29960,60387,5
29970,60395,5
29970,60396,4
29967,60392,5
29964,60396,6
29964,60401,4
29972,60403,5
29958,60396,4
29976,60409,5
29969,60403,5
29968,60390,5
29965,60396,5
29957,60394,4
29966,60393,5
29963,60393,5
29959,60395,5
29968,60395,4
29964,60393,4
29967,60383,5
29961,60382,5
29964,60377,5
29972,60378,4
29960,60376,5
29954,60370,5
29961,60372,5
29952,60374,5
29958,60381,4
29956,60380,5
29959,60376,5
29964,60371,5
29962,60374,5
29956,60375,4
29969,60373,5
29965,60389,5
29969,60385,5
29963,60380,5
29966,60375,4
29965,60386,5
29970,60386,5
29963,60389,5
29961,60381,4
29956,60384,4
29957,60384,5
29958,60383,5
29960,60383,5
29965,60389,4
29960,60382,5
29964,60387,5
29966,60374,5
29954,60386,5
29961,60378,5
29971,60378,4
29955,60385,5
29959,60379,5
29955,60376,5
29963,60382,4
29954,60375,5
29952,60374,5
29957,60373,5
29956,60371,5
29955,60367,4
29948,60378,5
29959,60373,5
29950,60370,5
29943,60365,4
29943,60353,4
29948,60358,5
29937,60351,5
29944,60347,5
29946,60345,4
29945,60349,5
29935,60343,5
29932,60332,5
29928,60321,5
29918,60313,4
29931,60313,6
29926,60313,3
29922,60304,5
29915,60299,5
29918,60289,4
29912,60286,5
29908,60290,5
29907,60284,5
29905,60282,5
29916,60273,4
29910,60270,5
29905,60262,5
29898,60258,5
29901,60246,5
29885,60245,4
29893,60245,5
29901,60250,5
29905,60255,5
29903,60267,4
29912,60288,5
29923,60298,5
29926,60321,6
29937,60336,4
29946,60351,4
29944,60344,5
29939,60351,5
29951,60350,5
29944,60347,5
29938,60340,4
29939,60336,5
29926,60324,5
29936,60323,5
29943,60329,5
29934,60331,4
29943,60340,5
29953,60352,5
29960,60386,5
29966,60394,5
29977,60416,4
29976,60413,5
29976,60394,5
29963,60378,5
29953,60360,5
29944,60335,4
29943,60334,5
29943,60324,5
29949,60336,6
29947,60346,3
29949,60353,5
29947,60362,5
29962,60377,5
29971,60393,5
29979,60409,4
29974,60423,5
29998,60448,5
29998,60447,5
29998,60450,5
29993,60452,4
30002,60452,5
30000,60453,5
29997,60458,5
29996,60454,5
30005,60469,4
30009,60470,5
30006,60479,5
30018,60479,5
30020,60483,4
30010,60470,6
30003,60450,4
29995,60437,5
29990,60427,5
29983,60419,6
29979,60410,3
29981,60411,5
29977,60409,5
29983,60421,5
29989,60430,4
29985,60435,5
29997,60443,5
29998,60464,5
30015,60471,5
30009,60469,4
30015,60483,5
30008,60483,5
30015,60491,5
30023,60500,5
30015,60505,4
30019,60496,5
30020,60511,5
30018,60494,5
30001,60487,4
30013,60480,4
30003,60471,6
30009,60467,4
30006,60463,5
30003,60458,4
30000,60465,5
30002,60466,5
29995,60466,5
30002,60474,5
30007,60467,4
30006,60479,5
30007,60483,5
30010,60483,5
30012,60484,5
30009,60484,4
30008,60487,5
30006,60477,5
30016,60495,5
30004,60483,5
30016,60486,4
30012,60485,5
30013,60479,5
30009,60478,5
30008,60484,4
30000,60480,4
30011,60484,5
30014,60487,6
30020,60492,4
30020,60498,4
30007,60483,5
30003,60483,5
30005,60463,5
30000,60476,5
30006,60478,4
30007,60473,5
30011,60482,5
30010,60483,5
30008,60472,5
29995,60477,4
29997,60474,5
29995,60467,5
30000,60460,5
29992,60470,5
30001,60469,4
30001,60471,5
29999,60468,5
29991,60459,5
30001,60464,5
29994,60453,4
29995,60461,5
29993,60456,5
29999,60455,6
29990,60448,3
29981,60445,5
29992,60445,5
29984,60450,5
29977,60443,5
29983,60441,4
29970,60428,5
29974,60422,5
29983,60428,5
29974,60419,5
29968,60425,4
29976,60416,5
29964,60409,5
29972,60401,5
29960,60392,5
29956,60394,4
29959,60386,5
29957,60380,5
29953,60380,5
29946,60368,4
29948,60375,5
29949,60361,4
29936,60351,5
29940,60350,5
29940,60349,4
29941,60341,5
29928,60352,5
29938,60349,5
29929,60341,5
29932,60345,4
29929,60345,5
29940,60348,5
29937,60358,5
29939,60365,5
29944,60372,4
29946,60377,5
29951,60381,5
29958,60382,5
29960,60394,5
29957,60409,4
29971,60418,5
29969,60425,5
29975,60429,5
29979,60430,5
29977,60443,4
29987,60452,6
29983,60458,4
29987,60455,5
29988,60456,4
29988,60449,5
29992,60458,8
29991,60458,2
29983,60459,5
29989,60466,4
30025,60469,5
29995,60470,5
29994,60475,5
29997,60463,5
29998,60463,4
29995,60470,5
30001,60469,5
29994,60472,5
30002,60462,5
29997,60458,4
29997,60466,5
29984,60468,5
29988,60450,5
29980,60444,5
29989,60447,4
29982,60459,5
29981,60453,6
29979,60446,4
29988,60437,4
29984,60436,5
29986,60439,5
29983,60435,5
29973,60428,5
29973,60428,4
29981,60430,5
29983,60425,5
29974,60425,5
29968,60428,5
29969,60416,4
29978,60427,5
29984,60424,5
29975,60423,5
29973,60436,5
29981,60434,4
29974,60439,5
29973,60427,5
29980,60441,5
29974,60431,5
29978,60431,4
29984,60444,5
29986,60443,5
29985,60452,5
29989,60448,4
29993,60462,5
30003,60456,5
29991,60466,5
29997,60470,5
30000,60465,4
29998,60469,5
29992,60469,5
29993,60468,5
29997,60466,5
30007,60479,4
29999,60466,5
30002,60477,5
30007,60486,5
29993,60471,5
30003,60477,4
30001,60474,5
29999,60464,5
29995,60462,5
29997,60474,5
30000,60465,5
29995,60470,4
29991,60458,5
29995,60466,5
29999,60455,4
30000,60462,4
29989,60455,5
29994,60455,5
29994,60452,5
29991,60451,4
29988,60446,5
29992,60461,5
29996,60447,5
29987,60443,5
29986,60454,4
29989,60448,5
29988,60448,5
29986,60439,5
29988,60442,5
29990,60434,4
29979,60436,5
29987,60435,5
29978,60431,5
29978,60433,5
29977,60431,4
29983,60431,6
29985,60437,4
29987,60437,5
29974,60438,4
29982,60439,4
29984,60442,5
29992,60433,5
29984,60442,5
29989,60448,4
29987,60451,5
29991,60443,5
29983,60436,5
29980,60440,5
29979,60440,4
29988,60446,5
29975,60441,5
29983,60433,5
29980,60438,5
29970,60431,4
29978,60442,5
29981,60425,5
29981,60435,5
29978,60430,5
29972,60425,4
29983,60432,5
29974,60434,5
29981,60425,5
29967,60431,4
29979,60428,4
29982,60441,5
29978,60435,5
29979,60423,5
29971,60418,4
29980,60418,5
29977,60436,5
29978,60433,5
29980,60428,5
29978,60440,4
29974,60446,5
29988,60446,5
29988,60451,5
29994,60465,5
29992,60459,4
29998,60463,5
29980,60452,5
29979,60455,5
29988,60454,5
29997,60462,4
29983,60461,5
29991,60463,5
29985,60464,5
29990,60467,5
29994,60469,4
29998,60465,5
29994,60475,5
29996,60472,5
29999,60485,4
30002,60483,5
30004,60493,5
30012,60496,5
30006,60496,5
30012,60499,4
30014,60498,5
30009,60502,5
30010,60502,5
30014,60506,5
30022,60503,4
30017,60516,5
30011,60504,4
30012,60504,5
30015,60505,5
30014,60515,6
30023,60518,3
30014,60523,5
30025,60528,5
30026,60523,5
30023,60528,4
30020,60514,5
30022,60526,5
30017,60528,5
30021,60532,4
30022,60525,5
30012,60528,5
30017,60525,5
30022,60513,5
30018,60512,4
30022,60506,5
30016,60510,5
30020,60504,5
30007,60498,5
30017,60507,4
30021,60501,5
30015,60492,6
30015,60508,4
30013,60512,5
30024,60522,4
30018,60521,5
30024,60532,5
30019,60525,5
30017,60529,5
30029,60538,4
30032,60536,5
30032,60552,5
30027,60547,5
30040,60537,4
30028,60549,5
30037,60543,5
30043,60549,5
30043,60559,5
30037,60547,4
30042,60554,5
30045,60566,5
30036,60547,5
30037,60551,5
30038,60547,4
30034,60540,5
30035,60540,5
30037,60544,6
30027,60542,4
30035,60542,4
30029,60544,5
30031,60542,5
30034,60534,5
30030,60531,5
30036,60546,4
30034,60549,5
30042,60547,5
30050,60560,5
30038,60562,4
30042,60552,5
30038,60543,5
30032,60539,5
30037,60539,5
30029,60540,4
30032,60544,5
30033,60547,5
30036,60541,5
30034,60535,5
30027,60543,5
30027,60538,4
30039,60539,5
30038,60545,5
30040,60541,6
30032,60549,3
30038,60542,5
30043,60549,5
30045,60553,5
30047,60553,5
30041,60551,4
30043,60554,5
30039,60558,5
30040,60548,5
30049,60553,4
30048,60565,5
30043,60555,5
30038,60540,5
30036,60541,5
30038,60547,4
30043,60544,5
30027,60545,5
30031,60543,5
30031,60541,5
30023,60540,4
30028,60537,6
30021,60529,4
30026,60521,5
30030,60528,5
30028,60526,4
30027,60530,5
30024,60520,5
30024,60513,5
30024,60518,5
30023,60502,4
30016,60505,5
30009,60500,5
30008,60489,5
30016,60491,4
30011,60480,5
30012,60484,5
30008,60478,5
30006,60482,5
30000,60490,4
30008,60482,5
30007,60480,5
30016,60484,5
30018,60495,5
30011,60491,4
30014,60483,5
30010,60489,6
30011,60493,4
30011,60489,5
30008,60488,4
30011,60486,5
30005,60485,5
30000,60495,5
30010,60487,5
30006,60487,4
30008,60476,5
30012,60483,5
30010,60487,5
30008,60488,4
30002,60479,5
30012,60477,5
30000,60473,5
30005,60476,5
30002,60466,4
30005,60463,5
30007,60473,5
30008,60480,5
30006,60472,5
29997,60480,4
30006,60466,5
30001,60473,5
30006,60465,6
30008,60476,4
30012,60479,4
30012,60486,5
30004,60484,5
30012,60483,5
30012,60473,5
30010,60470,4
30011,60466,5
29997,60476,5
30007,60481,5
29999,60473,4
30005,60483,4
30011,60482,5
30011,60481,5
30012,60497,5
30014,60487,4
30009,60495,5
30021,60499,5
30023,60500,5
30018,60503,5
30023,60514,5
30022,60507,4
30030,60513,5
30025,60501,5
30032,60509,6
30027,60506,3
30024,60503,5
30023,60500,5
30016,60504,5
30026,60502,5
30017,60511,4
30029,60515,5
30028,60518,5
30035,60514,5
30020,60526,4
30024,60522,4
30029,60520,5
30024,60521,5
30031,60521,5
30024,60510,4
30030,60507,5
30027,60502,5
30026,60498,5
30012,60505,5
30016,60499,4
30015,60489,6
30023,60501,4
30016,60483,5
30015,60483,5
30022,60477,4
30010,60487,5
30003,60481,5
30014,60467,5
29999,60453,5
29994,60437,4
29987,60428,5
29973,60413,5
29973,60409,5
29975,60407,4
29971,60397,4
29961,60395,5
29967,60389,5
29969,60398,5
29970,60393,4
29970,60390,5
29955,60388,5
29968,60389,5
29954,60388,5
29953,60377,4
29963,60380,5
29957,60369,6
29947,60371,4
29945,60369,5
29952,60361,4
29940,60349,5
29952,60352,5
29950,60349,5
29945,60349,5
29941,60342,4
29936,60337,5
29931,60347,5
29934,60327,5
29932,60328,4
29937,60320,4
29928,60317,5
29932,60330,5
29922,60331,5
29934,60334,4
29932,60337,5
29939,60337,5
29936,60322,5
29921,60294,5
29905,60286,4
29909,60286,5
29908,60285,5
29910,60294,6
29913,60303,4
29915,60314,4
29922,60311,5
29919,60305,5
29913,60295,5
29909,60286,5
29910,60279,4
29909,60288,5
29922,60307,5
29914,60323,5
29914,60314,4
29931,60322,4
29927,60333,5
29934,60352,5
29946,60357,5
29935,60322,4
29904,60267,5
29885,60191,6
29836,60110,4
29797,60049,5
29792,60029,5
29793,60040,4
29787,60055,5
29807,60077,5
29831,60111,5
29843,60136,4
29850,60164,5
29863,60184,5
29873,60203,5
29888,60218,5
29882,60219,4
29878,60216,5
29892,60228,5
29891,60246,5
29909,60266,4
29928,60304,4
29932,60312,5
29913,60276,5
29882,60206,5
29832,60074,4
29781,59968,5
29741,59886,5
29709,59830,5
29686,59778,5
29660,59723,4
29634,59683,6
29643,59704,4
29663,59716,5
29640,59663,5
29599,59554,4
29508,59339,5
29412,59153,5
29344,58995,5
29285,58900,5
29259,58840,4
29248,58814,5
29238,58812,5
29244,58821,5
29250,58810,4
29235,58761,4
29212,58715,5
29194,58696,5
29194,58698,5
29202,58726,4
29207,58759,5
29227,58794,5
29249,58856,5
29282,58901,5
29305,58956,4
29329,58990,5
29347,59049,6
29372,59086,4
29383,59103,5
29357,59038,4
29326,58973,5
29292,58907,5
29274,58871,5
29260,58848,5
29254,58835,4
29246,58830,5
29254,58841,5
29252,58844,5
29260,58855,5
29262,58874,4
29280,58894,5
29302,58925,5
29304,58952,5
29333,58999,4
29344,59039,5
29370,59091,5
29399,59149,5
29430,59222,5
29472,59287,3
29503,59356,5
29531,59406,5
29538,59413,5
29530,59420,5
29547,59439,4
29553,59469,5
29570,59490,5
29579,59507,5
29587,59516,5
29591,59527,4
29596,59543,5
29604,59564,5
29608,59567,5
29609,59589,5
29627,59595,4
29636,59630,5
29646,59650,5
29658,59695,5
29669,59727,4
29686,59741,6
29686,59748,4
29698,59753,5
29692,59765,5
29697,59773,6
29705,59792,3
29717,59811,5
29734,59828,5
29733,59850,5
29752,59867,4
29755,59885,5
29763,59897,5
29763,59899,5
29770,59912,5
29772,59922,4
29767,59918,5
29773,59912,5
29768,59919,5
29771,59915,5
29768,59899,4
29761,59906,5
29773,59910,5
29768,59903,5
29774,59918,4
29767,59906,5
29756,59897,6
29757,59886,4
29746,59869,5
29745,59850,4
29726,59829,7
29720,59812,3
29716,59801,5
29699,59791,5
29698,59787,4
29711,59790,5
29699,59766,5
29695,59761,5
29683,59730,5
29674,59724,4
29675,59710,5
29674,59712,5
29668,59708,5
29666,59726,5
29683,59744,4
29686,59754,5
29689,59770,5
29701,59777,5
29707,59788,4
29714,59802,5
29712,59816,5
29724,59827,6
29727,59827,4
29736,59844,4
29736,59847,5
29735,59839,5
29721,59832,5
29723,59821,5
29715,59812,4
29725,59818,5
29711,59818,5
29718,59823,5
29723,59815,5
29723,59825,4
29721,59812,5
29713,59803,5
29711,59799,5
29708,59784,5
29700,59790,4
29714,59797,5
29712,59801,5
29715,59793,5
29710,59783,5
29710,59773,4
29705,59774,5
29698,59767,5
29700,59762,6
29698,59759,3
29703,59764,5
29702,59771,5
29692,59766,5
29699,59757,5
29702,59755,4
29696,59751,5
29705,59760,5
29695,59764,5
29691,59734,5
29660,59657,4
29608,59559,5
29572,59485,5
29542,59428,5
29521,59389,5
29516,59387,4
29520,59389,5
29541,59430,5
29546,59476,5
29565,59500,4
29580,59509,5
29578,59524,4
29577,59528,5
29577,59520,5
29579,59514,6
29586,59525,3
29594,59534,5
29587,59542,5
29578,59522,5
29570,59485,4
29559,59472,5
29553,59473,5
29560,59476,5
29563,59484,5
29558,59500,4
29576,59515,5
29583,59537,5
29583,59530,5
29581,59530,5
29585,59540,4
29589,59549,5
29604,59549,5
29602,59559,5
29596,59556,4
29588,59531,4
29579,59512,6
29582,59509,4
29568,59498,5
29570,59492,4
29572,59491,5
29566,59480,5
29554,59464,5
29549,59453,5
29539,59438,4
29538,59429,5
29544,59430,5
29545,59439,5
29555,59461,5
29558,59479,4
29554,59470,5
29552,59464,5
29549,59458,5
29555,59437,5
29533,59428,4
29530,59423,5
29525,59418,5
29531,59407,5
29521,59419,4
29537,59429,4
29542,59454,5
29577,59504,7
29574,59520,3
29576,59516,4
29570,59510,5
29567,59500,5
29562,59499,5
29572,59507,5
29582,59525,4
29591,59533,5
29592,59550,5
29597,59556,5
29614,59577,5
29622,59616,4
29640,59645,5
29648,59681,5
29673,59714,5
29679,59741,5
29693,59760,4
29703,59768,5
29709,59790,5
29709,59791,5
29711,59786,5
29710,59782,4
29719,59786,5
29707,59786,5
29708,59774,6
29697,59768,3
29693,59752,5
29696,59755,5
29692,59756,5
29692,59755,5
29696,59749,4
29689,59749,5
29690,59743,5
29684,59738,5
29685,59715,5
29671,59713,4
29675,59712,5
29676,59716,5
29672,59705,5
29667,59701,5
29656,59685,4
29643,59662,5
29634,59652,5
29636,59632,5
29624,59619,5
29624,59617,5
29618,59616,4
29625,59617,5
29617,59622,5
29616,59618,4
29630,59634,5
29634,59634,5
29632,59653,5
29630,59638,5
29627,59636,4
29630,59637,5
29632,59638,5
29617,59627,5
29617,59612,5
29618,59606,4
29616,59602,5
29602,59601,5
29609,59601,5
29598,59595,5
29606,59588,4
29610,59585,5
29599,59561,5
29581,59541,5
29567,59515,5
29561,59479,4
29550,59483,6
29544,59476,4
29548,59465,5
29546,59467,4
29537,59450,5
29531,59449,5
29519,59409,5
29516,59392,5
29503,59365,4
29498,59374,5
29502,59382,5
29509,59387,5
29515,59398,5
29523,59422,4
29538,59440,5
29534,59446,5
29535,59428,5
29531,59432,5
29543,59443,4
29536,59449,5
29533,59433,5
29529,59409,5
29503,59358,5
29479,59316,4
29463,59293,5
29470,59309,6
29489,59329,4
29498,59353,4
29505,59364,5
29507,59349,5
29493,59343,5
29495,59335,5
29493,59344,4
29496,59341,5
29508,59331,5
29496,59311,5
29484,59286,5
29476,59266,4
29449,59220,5
29429,59158,5
29383,59073,5
29353,59010,5
29330,58978,4
29330,58957,5
29312,58919,5
29285,58860,5
29249,58768,5
29210,58714,4
29214,58707,5
29224,58722,5
29223,58730,5
29233,58756,4
29252,58793,4
29262,58799,5
29266,58818,5
29267,58819,5
29264,58822,4
29265,58813,5
29253,58783,5
29233,58746,5
29217,58734,5
29235,58755,4
29248,58810,5
29279,58827,5
29284,58844,5
29281,58845,5
29284,58823,4
29268,58793,5
29252,58768,5
29246,58756,5
29238,58738,5
29236,58718,5
29222,58703,4
29217,58706,5
29227,58716,5
29235,58733,4
29243,58757,4
29253,58779,5
29258,58800,5
29272,58816,5
29273,58818,4
29273,58807,5
29275,58812,5
29274,58800,5
29270,58804,5
29259,58780,4
29255,58761,5
29237,58729,5
29224,58709,5
29214,58685,5
29210,58694,4
29222,58696,5
29220,58717,5
29232,58731,5
29241,58744,5
29244,58753,4
29247,58751,6
29244,58748,4
29235,58739,5
29231,58734,4
29216,58708,4
29207,58673,5
29197,58658,5
29184,58634,5
29173,58612,4
29164,58603,9
29163,58585,1
29155,58582,5
29153,58583,5
29148,58585,4
29158,58598,5
29168,58610,5
29186,58620,5
29184,58636,5
29188,58674,4
29201,58682,5
29209,58705,5
29221,58725,5
29231,58744,4
29234,58753,4
29232,58760,5
29237,58756,5
29232,58758,5
29239,58759,4
29236,58777,4
29241,58786,5
29255,58806,5
29267,58828,5
29274,58842,4
29287,58869,5
29289,58896,5
29314,58934,5
29324,58962,5
29347,59008,4
29371,59036,5
29371,59069,5
29392,59093,5
29402,59114,5
29407,59129,5
29425,59145,4
29428,59170,5
29437,59184,5
29439,59201,6
29459,59215,3
29461,59245,5
29480,59268,5
29494,59299,5
29493,59326,4
29507,59333,4
29519,59355,5
29531,59382,5
29550,59424,5
29563,59451,4
29576,59466,5
29592,59491,5
29605,59522,5
29609,59540,5
29622,59565,4
29630,59586,5
29640,59611,5
29659,59628,5
29669,59666,5
29678,59684,4
29685,59706,6
29695,59729,4
29706,59746,5
29708,59759,5
29716,59772,6
29713,59783,3
29745,59798,5
29733,59799,5
29747,59811,4
29744,59818,4
29743,59822,5
29756,59822,5
29751,59829,5
29747,59823,4
29744,59825,5
29742,59829,5
29751,59817,5
29762,59830,5
29747,59835,4
29745,59827,5
29749,59825,5
29757,59839,5
29749,59831,5
29748,59829,4
29744,59826,5
29749,59832,6
29745,59830,4
29751,59825,5
29745,59816,4
29746,59817,5
29745,59807,5
29743,59801,5
29746,59805,5
29740,59802,4
29742,59810,5
29744,59804,5
29742,59804,5
29743,59815,4
29745,59814,5
29749,59819,5
29750,59823,5
29740,59814,5
29753,59828,4
29749,59823,5
29756,59824,5
29751,59832,5
29752,59827,5
29751,59822,4
29742,59818,5
29745,59829,5
29747,59825,6
29750,59830,4
29754,59832,4
29758,59831,5
29757,59824,5
29753,59826,5
29757,59830,5
29747,59825,4
29759,59825,5
29752,59825,5
29748,59817,5
29749,59822,4
29749,59825,5
29743,59812,5
29744,59811,5
29758,59816,5
29742,59810,4
29739,59821,5
29742,59814,5
29741,59812,5
29740,59816,5
29742,59818,5
29746,59820,4
29742,59813,5
29739,59812,5
29743,59816,6
29737,59807,3
29729,59804,5
29739,59808,5
29744,59820,5
29752,59825,5
29753,59832,4
29765,59850,5
29770,59854,5
29768,59854,5
29766,59873,4
29768,59861,5
29778,59864,5
29762,59870,5
29763,59861,5
29761,59860,4
29767,59876,5
29768,59869,5
29768,59866,5
29780,59877,5
29772,59879,4
29777,59888,6
29782,59885,4
29773,59889,5
29783,59900,5
29782,59903,4
29791,59908,5
29789,59906,5
29790,59910,5
29791,59915,5
29787,59918,4
29794,59924,5
29799,59925,5
29794,59920,5
29799,59931,4
29800,59930,5
29797,59931,5
29798,59934,5
29797,59940,5
29799,59947,4
29800,59940,5
29811,59944,5
29814,59956,5
29807,59946,5
29805,59955,4
29811,59955,5
29801,59945,6
29807,59948,4
29808,59947,5
29797,59940,4
29809,59939,5
29805,59939,5
29801,59935,5
29803,59934,5
29804,59942,4
29806,59935,5
29809,59932,5
29792,59937,5
29796,59933,4
29795,59921,5
29796,59921,5
29797,59919,5
29796,59917,5
29788,59917,4
29794,59923,5
29793,59919,5
29799,59919,5
29792,59925,5
29796,59920,4
29796,59924,5
29800,59925,5
29797,59943,6
29799,59943,4
29795,59943,4
29804,59937,5
29800,59933,5
29799,59922,5
29796,59912,5
29786,59922,4
29797,59927,5
29795,59928,5
29792,59924,5
29789,59925,4
29797,59926,4
29790,59915,5
29801,59918,5
29801,59929,5
29800,59929,4
29789,59926,5
29795,59918,5
29796,59921,5
29789,59927,5
29790,59919,5
29791,59921,4
29788,59910,5
29780,59903,5
29791,59912,5
29783,59913,4
29785,59901,5
29790,59909,5
29787,59901,5
29782,59913,5
29792,59914,4
29788,59921,5
29796,59909,5
29790,59918,5
29793,59914,4
29782,59914,4
29791,59904,5
29788,59906,5
29793,59901,5
29783,59899,4
29781,59902,5
29788,59912,5
29785,59912,5
29793,59921,5
29798,59919,4
29796,59931,6
29798,59932,4
29794,59924,5
29789,59915,5
29785,59913,4
29789,59905,5
29794,59919,5
29781,59909,5
29791,59920,5
29785,59920,4
29785,59918,5
29790,59918,5
29790,59916,5
29799,59921,4
29789,59918,4
29793,59928,5
29794,59921,5
29789,59925,5
29794,59938,4
29801,59931,5
29797,59938,5
29799,59931,5
29801,59930,5
29796,59928,4
29790,59928,5
29798,59935,6
29805,59938,4
29804,59950,5
29802,59944,4
29806,59928,5
29798,59944,5
29815,59944,5
29805,59939,5
29810,59941,4
29797,59947,5
29806,59939,5
29806,59941,5
29802,59935,4
29798,59929,4
29799,59928,5
29794,59939,5
29796,59928,5
29801,59931,4
29800,59935,5
29797,59933,5
29792,59941,5
29805,59932,5
29798,59928,4
29799,59935,5
29798,59938,5
29793,59937,5
29797,59933,5
29797,59928,4
29799,59932,5
29802,59939,5
29798,59932,5
29803,59941,5
29794,59930,4
29803,59929,5
29803,59941,5
29800,59941,5
29800,59943,5
29807,59948,4
29808,59955,5
29809,59948,5
29808,59951,5
29803,59956,4
29811,59959,5
29806,59947,5
29808,59948,5
29808,59949,5
29804,59939,5
29802,59939,4
29801,59942,5
29802,59942,5
29802,59941,5
29796,59935,4
29796,59934,5
29802,59932,5
29797,59937,5
29798,59936,5
29801,59933,4
29799,59944,5
29802,59931,5
29798,59937,5
29793,59927,5
29798,59928,4
29793,59932,5
29796,59928,5
29788,59925,5
29793,59924,4
29797,59913,5
29784,59914,5
29785,59916,5
29776,59906,5
29775,59903,4
29779,59896,6
29786,59896,4
29783,59897,5
29780,59904,5
29776,59891,4
29770,59890,5
29781,59884,5
29770,59884,5
29779,59888,5
29776,59884,4
29774,59892,5
29781,59886,5
29779,59891,5
29773,59880,5
29777,59877,4
29776,59884,5
29763,59865,5
29756,59865,5
29773,59865,4
29762,59868,5
29765,59873,5
29765,59877,6
29767,59886,4
29777,59885,4
29779,59900,5
29775,59892,5
29781,59907,5
29784,59907,5
29790,59918,4
29790,59919,5
29788,59930,5
29783,59934,5
29794,59935,5
29796,59929,4
29797,59929,5
29793,59927,5
29795,59924,5
29794,59918,5
29779,59902,4
29776,59906,5
29774,59884,5
29769,59884,5
29760,59885,5
29759,59885,4
29773,59893,5
29776,59902,5
29784,59905,6
29782,59922,3
29790,59936,5
29796,59946,5
29794,59935,5
29803,59943,5
29806,59955,4
29800,59958,5
29807,59967,5
29815,59991,5
29823,59988,5
29819,59988,4
29827,60007,5
29825,60005,5
29827,60009,5
29829,60004,5
29831,60008,4
29824,60006,5
29824,60010,5
29824,59997,5
29821,59990,4
29817,59990,5
29819,59989,4
29820,59991,5
29816,59989,5
29815,59996,6
29817,59988,5
29810,59989,3
29815,59996,5
29824,59994,5
29820,59986,4
29813,59988,5
29818,59981,5
29815,59988,5
29817,59982,5
29813,59987,4
29816,59989,5
29811,59979,5
29817,59977,5
29806,59978,5
29812,59975,4
29816,59976,5
29801,59964,5
29816,59974,5
29808,59966,4
29798,59957,4
29800,59968,6
29801,59959,4
29800,59956,5
29803,59957,4
29799,59946,5
29793,59947,5
29798,59948,5
29785,59946,5
29795,59940,4
29792,59938,5
29786,59924,5
29784,59919,5
29780,59915,5
29773,59912,4
29782,59912,5
29772,59914,5
29783,59910,5
29781,59910,5
29770,59892,4
29758,59872,5
29743,59844,5
29744,59837,5
29731,59817,4
29719,59822,4
29724,59818,5
29724,59819,6
29736,59824,4
29728,59832,4
29733,59825,5
29733,59833,5
29731,59814,5
29728,59812,5
29723,59809,4
29734,59827,5
29741,59825,5
29731,59824,5
29726,59808,5
29717,59806,4
29721,59801,5
29713,59791,5
29721,59811,5
29718,59810,5
29729,59827,4
29736,59835,5
29735,59861,5
29755,59858,5
29756,59881,5
29762,59878,4
29767,59904,5
29775,59906,5
29776,59914,6
29785,59932,3
29796,59955,5
29794,59959,5
29802,59979,5
29817,59994,5
29809,59992,4
29824,60005,5
29823,59997,5
29814,59992,5
29824,59986,5
29817,59994,4
29819,59989,5
29821,60002,5
29821,60002,5
29824,60003,5
29818,60005,4
29831,60003,5
29821,60008,5
29820,60010,5
29829,60018,5
29833,60015,5
29832,60029,4
29824,60010,5
29830,60015,5
29829,60005,4
29828,60010,5
29821,59995,5
29817,59996,5
29833,59999,5
29822,59991,4
29812,59994,5
29818,59976,5
29811,59982,5
29804,59987,5
29818,59994,4
29818,59991,5
29828,59986,5
29816,59991,5
29813,59995,5
29820,59992,4
29813,59988,5
29817,60000,5
29822,59996,5
29816,59998,5
29824,60000,4
29825,60004,6
29817,59996,4
29816,59997,5
29820,59992,4
29824,59999,5
29820,59996,5
29814,59993,5
29816,59998,5
29824,60000,4
29814,59995,5
29820,59995,5
29813,59992,5
29814,59996,5
29814,59978,4
29817,59986,5
29822,59986,5
29816,59994,5
29816,59992,5
29808,59991,4
29809,59986,5
29819,59981,5
29817,59981,5
29819,59991,5
29816,59980,4
29810,59990,5
29816,59992,6
29826,59992,4
29817,60000,4
29809,59989,5
29816,59994,5
29815,59999,5
29825,60002,5
29818,60014,4
29832,60011,5
29821,60011,5
29834,60019,5
29834,60016,5
29828,60010,4
29818,60004,5
29827,60011,5
29828,60010,5
29828,60017,5
29826,60020,4
29827,60017,5
29837,60019,5
29834,60030,5
29838,60023,5
29836,60032,4
29836,60033,5
29831,60034,5
29834,60044,5
29842,60033,4
29841,60045,5
29842,60050,5
29848,60047,5
29839,60041,5
29847,60049,4
29845,60055,5
29849,60059,5
29853,60056,5
29844,60057,5
29851,60059,4
29851,60058,5
29852,60055,5
29851,60052,5
29853,60059,5
29847,60050,4
29852,60064,5
29851,60059,5
29847,60069,5
29855,60073,5
29845,60062,5
29853,60054,4
29850,60055,5
29838,60057,5
29852,60055,4
29848,60050,5
29852,60059,5
29844,60061,5
29842,60053,5
29845,60052,4
29851,60050,5
29844,60052,5
29838,60055,5
29843,60040,5
29845,60053,4
29846,60045,5
29842,60052,5
29849,60056,5
29849,60052,5
29847,60061,4
29856,60060,5
29849,60080,5
29847,60074,5
29856,60080,5
29854,60078,4
29868,60083,6
29868,60087,4
29865,60094,5
29862,60091,4
29868,60097,4
29864,60089,5
29858,60084,5
29860,60088,5
29867,60078,4
29859,60073,5
29853,60082,5
29863,60081,5
29853,60079,5
29856,60066,4
29856,60073,5
29851,60074,5
29855,60072,5
29856,60060,5
29847,60057,4
29849,60061,5
29845,60054,5
29846,60043,5
29836,60022,5
29820,60013,4
29808,59991,5
29812,59988,5
29812,59990,5
29808,59981,4
29813,59987,4
29819,59987,5
29822,59996,5
29813,59994,5
29824,60001,4
29812,59990,5
29811,59989,5
29807,59978,5
29797,59940,5
29786,59919,4
29771,59907,5
29767,59885,5
29753,59891,5
29761,59886,5
29760,59897,4
29774,59907,5
29769,59913,5
29765,59908,5
29771,59916,5
29774,59919,4
29779,59920,5
29786,59933,5
29785,59923,5
29768,59883,4
29744,59840,4
29725,59785,5
29693,59739,5
29690,59712,5
29682,59710,4
29693,59730,5
29702,59759,5
29718,59782,5
29719,59810,5
29733,59819,4
29730,59800,5
29716,59782,5
29701,59754,5
29684,59731,5
29676,59723,4
29675,59697,5
29674,59702,4
29676,59704,5
29675,59697,5
29664,59706,5
29671,59709,3
29682,59714,5
29687,59730,5
29685,59734,4
29684,59731,4
29687,59730,5
29691,59735,5
29690,59727,5
29676,59698,4
29671,59694,5
29675,59686,5
29670,59699,5
29682,59715,5
29690,59738,4
29696,59746,5
29691,59745,5
29693,59738,5
29693,59744,5
29693,59748,4
29695,59751,5
29692,59749,6
29699,59744,4
29709,59760,5
29701,59769,4
29704,59785,5
29717,59784,5
29720,59783,5
29714,59787,5
29713,59788,4
29715,59796,5
29718,59793,5
29719,59804,5
29724,59815,4
29734,59833,5
29745,59844,5
29746,59859,5
29747,59859,5
29757,59898,4
29768,59894,5
29769,59916,5
29779,59940,5
29791,59942,5
29798,59953,4
29800,59966,5
29798,59961,5
29801,59980,6
29813,60004,4
29824,60013,4
29822,60013,5
29831,60026,5
29830,60029,5
29831,60020,5
29828,60014,4
29829,60020,5
29830,60025,5
29821,60015,5
29828,60010,4
29828,60019,5
29827,60023,5
29826,60013,5
29827,60013,5
29828,60027,4
29822,60019,5
29835,60034,5
29830,60033,5
29834,60039,5
29842,60039,5
29846,60059,4
29845,60066,5
29846,60063,5
29846,60067,6
29843,60070,3
29850,60062,5
29852,60064,5
29836,60069,5
29839,60057,5
29842,60065,4
29849,60056,5
29842,60060,5
29847,60051,5
29841,60062,4
29837,60047,5
29840,60041,5
29835,60040,5
29838,60035,5
29821,60028,4
29840,60026,5
29834,60029,5
29833,60021,5
29828,60010,5
29827,60019,4
29822,60006,6
29816,60011,4
29814,60016,5
29825,60010,5
29821,60001,4
29823,60007,5
29819,60001,5
29817,59996,5
29808,60002,5
29821,60009,4
29821,59999,5
29822,60000,5
29818,59989,5
29816,59985,4
29805,59983,4
29811,59973,5
29808,59973,5
29808,59965,5
29802,59965,4
29801,59968,5
29807,59963,5
29807,59966,5
29808,59974,5
29800,59968,4
29803,59974,5
29798,59956,6
29795,59951,4
29795,59953,5
29798,59951,4
29794,59943,5
29785,59940,5
29784,59942,5
29778,59932,5
29780,59925,4
29785,59928,5
29781,59930,5
29786,59930,5
29789,59935,4
29790,59943,4
29796,59948,5
29798,59952,5
29804,59970,5
29800,59976,9
29808,59971,0
29801,59978,5
29797,59971,5
29808,59954,5
29804,59978,4
29810,59995,5
29814,60001,5
29817,59992,6
29817,59986,4
29807,59985,4
29809,59991,5
29816,59992,5
29824,59995,5
29816,59992,5
29818,59991,4
29834,60003,5
29824,60013,5
29816,60014,5
29826,60010,4
29824,60011,4
29826,60015,5
29823,60024,5
29829,60026,5
29830,60019,4
29828,60030,5
29837,60034,5
29837,60038,5
29836,60038,5
29838,60043,5
29837,60054,4
29846,60048,5
29841,60051,5
29841,60044,6
29840,60045,3
29838,60046,5
29848,60041,5
29843,60045,5
29841,60043,5
29843,60055,4
29837,60040,5
29838,60046,5
29844,60043,5
29835,60051,4
29844,60046,4
29845,60047,5
29835,60032,5
29843,60039,5
29830,60038,4
29841,60038,5
29833,60034,5
29840,60041,5
29828,60036,5
29839,60036,4
29829,60039,6
29837,60028,4
29836,60029,5
29841,60031,5
29825,60019,4
29828,60026,5
29833,60027,5
29829,60021,5
29834,60033,5
29833,60036,4
29836,60038,5
29836,60033,5
29829,60038,5
29836,60034,4
29831,60041,4
29829,60037,5
29843,60039,5
29838,60038,5
29838,60039,4
29838,60041,5
29840,60042,5
29839,60035,5
29850,60033,5
29836,60035,4
29842,60029,5
29838,60035,6
29843,60022,4
29832,60031,5
29832,60022,4
29836,60024,5
29834,60023,5
29826,60023,5
29825,60017,5
29838,60013,4
29828,60023,5
29822,60020,5
29838,60022,5
29825,60028,4
29829,60014,4
29828,60022,5
29834,60022,5
29830,60011,5
29826,60004,4
29819,59987,5
29827,59994,5
29815,59991,5
29818,59990,5
29818,59997,4
29821,59992,5
29828,60007,5
29828,60009,5
29834,60011,5
29833,60013,4
29832,60014,5
29828,60008,5
29815,59987,5
29813,59990,5
29817,59994,4
29809,59996,5
29815,59976,5
29807,59986,5
29816,59989,4
29816,59988,4
29828,59997,5
29815,59996,5
29825,59994,5
29823,60004,4
29814,60009,5
29825,60004,5
29831,60004,5
29821,60002,5
29820,60000,5
29824,60015,4
29825,60002,5
29828,60003,5
29819,60006,5
29824,60009,4
29829,59997,5
29829,60011,5
29830,60016,5
29820,60015,5
29824,60006,4
29827,60017,5
29834,60010,5
29829,60007,5
29829,60001,4
29821,59999,4
29822,60009,5
29823,60004,5
29823,60001,5
29822,59993,4
29818,60008,5
29824,59997,5
29829,60000,5
29825,60005,5
29825,60006,4
29818,59998,6
29810,60007,4
29822,60000,5
29824,60010,5
29823,59996,4
29823,59994,5
29820,60001,5
29819,59998,5
29818,60000,5
29814,59991,4
29814,59998,5
29817,59997,5
29826,59993,5
29825,60000,4
29825,60012,4
29827,60008,5
29825,60013,5
29821,60002,5
29822,60007,4
29824,60007,5
29819,59996,5
29821,60009,5
29823,60002,5
29828,60002,4
29831,60000,5
29815,59999,6
29828,60007,4
29820,60001,5
29818,59998,4
29824,59999,5
29815,60005,5
29821,59993,5
29818,59994,5
29823,59994,4
29826,59991,5
29822,59985,5
29819,59986,5
29806,59987,4
29805,59982,4
29814,59985,5
29812,59974,5
29811,59987,5
29810,59973,4
29810,59986,5
29819,59978,5
29813,59980,5
29811,59980,5
29807,59969,4
29807,59969,5
29809,59974,5
29807,59961,5
29801,59957,5
29801,59963,4
29804,59962,5
29797,59956,5
29804,59962,5
29804,59958,5
29811,59963,4
29801,59962,5
29806,59962,5
29797,59959,5
29803,59949,4
29801,59951,4
29799,59946,5
29793,59951,5
29804,59951,5
29806,59961,4
29808,59967,6
29809,59962,4
29805,59971,5
29805,59973,5
29809,59954,6
29800,59955,3
29802,59964,5
29802,59964,5
29805,59960,5
29803,59958,4
29797,59970,5
29804,59959,5
29805,59965,5
29811,59966,5
29796,59961,4
29801,59959,5
29805,59964,5
29801,59962,5
29805,59967,4
29807,59963,4
29811,59970,5
29810,59969,5
29816,59983,5
29814,59978,4
29810,59978,5
29813,59974,6
29806,59976,4
29805,59973,5
29804,59962,4
29796,59948,7
29793,59956,3
29806,59950,5
29787,59937,5
29791,59926,4
29789,59912,5
29786,59919,5
29781,59917,5
29784,59919,5
29779,59906,4
29775,59908,5
29775,59889,5
29765,59876,5
29758,59855,4
29737,59840,4
29731,59822,5
29733,59812,5
29724,59807,5
29728,59802,4
29715,59800,5
29724,59803,5
29717,59802,6
29723,59812,4
29726,59821,4
29734,59819,5
29731,59826,5
29722,59812,5
29727,59813,5
29717,59799,4
29719,59811,5
29716,59792,5
29718,59802,5
29715,59796,5
29723,59788,4
29722,59795,5
29732,59805,5
29734,59822,5
29744,59841,4
29756,59885,4
29775,59914,5
29790,59940,5
29793,59935,5
29782,59938,5
29776,59918,4
29779,59920,5
29775,59917,5
29780,59915,6
29787,59916,3
29795,59932,5
29790,59938,5
29783,59936,5
29788,59942,5
29797,59951,4
29805,59960,5
29804,59971,5
29814,59980,5
29816,59997,5
29818,59993,4
29819,59988,5
29812,59989,5
29820,59999,5
29818,59982,4
29807,59976,4
29807,59971,5
29811,59959,5
29800,59962,5
29794,59957,4
29799,59952,6
29800,59965,4
29800,59960,5
29806,59964,5
29805,59955,6
29800,59965,3
29795,59949,5
29791,59935,5
29779,59913,5
29783,59912,4
29780,59901,5
29777,59900,5
29777,59902,5
29776,59903,5
29773,59906,4
29781,59907,5
29778,59895,5
29762,59873,5
29762,59876,4
29768,59881,4
29767,59882,5
29769,59890,5
29768,59891,5
29778,59899,4
29782,59907,5
29783,59917,6
29789,59922,4
29794,59935,5
29791,59942,4
29791,59945,5
29797,59945,5
29798,59942,5
29798,59950,5
29794,59966,4
29806,59971,5
29814,59970,5
29825,59983,5
29817,59987,5
29825,59993,4
29827,59996,5
29826,59998,5
29827,60004,5
29826,60003,4
29824,60009,4
29830,60011,5
29834,60013,5
29831,60011,5
29836,60012,4
29835,60008,5
29828,60011,5
29829,60005,6
29830,60008,4
29820,59984,4
29816,59971,5
29813,59964,5
29804,59955,5
29801,59957,5
29798,59960,4
29811,59949,5
29796,59933,5
29796,59943,5
29797,59945,5
29798,59942,4
29804,59949,5
29802,59941,5
29793,59951,5
29804,59941,4
29798,59956,4
29803,59953,5
29806,59961,5
29809,59959,5
29808,59964,5
29811,59957,4
29814,59963,5
29814,59973,5
29813,59975,6
29813,59970,3
29819,59971,5
29813,59968,5
29818,59971,5
29814,59969,5
29819,59966,4
29809,59973,5
29814,59970,5
29810,59964,5
29812,59973,5
29810,59972,4
29817,59966,5
29807,59977,5
29816,59969,5
29813,59976,4
29820,59976,4
29818,59974,5
29820,59982,5
29812,59980,5
29820,59983,4
29807,59977,6
29809,59977,4
29817,59977,5
29819,59975,5
29811,59979,4
29814,59975,5
29819,59966,5
29818,59972,5
29814,59970,5
29815,59966,7
29809,59970,2
29807,59977,5
29817,59966,5
29813,59974,5
29816,59972,4
29817,59978,5
29809,59975,5
29817,59979,5
29811,59972,4
29813,59972,4
29815,59967,5
29812,59963,5
29807,59974,5
29815,59973,4
29818,59988,5
29823,59981,6
29816,59993,4
29821,59987,5
29820,59983,4
29811,59969,5
29814,59970,5
29818,59970,5
29811,59978,5
29812,59966,4
29813,59972,5
29812,59974,5
29815,59977,5
29816,59979,5
29821,59990,4
29819,59991,5
29827,59992,5
29824,59992,5
29822,59989,5
29827,59994,4
29830,59999,5
29826,59999,5
29833,60009,5
29834,60001,4
29833,60010,5
29835,60023,5
29835,60002,6
29834,60013,4
29829,60014,4
29834,60009,5
29829,60016,5
29829,60016,5
29834,60018,5
29831,60016,4
29833,60013,5
29834,60018,5
29838,60006,5
29826,60004,5
29830,60013,4
29827,60005,5
29827,60000,5
29827,60001,5
29830,59994,5
29823,59987,4
29818,59972,5
29807,59950,5
29795,59933,5
29785,59925,5
29788,59916,4
29783,59905,5
29769,59905,5
29778,59887,5
29762,59871,4
29758,59859,5
29748,59841,5
29742,59842,5
29742,59836,5
29741,59841,4
29742,59844,5
29747,59861,5
29747,59858,5
29757,59863,5
29758,59871,4
29775,59883,5
29775,59898,5
29787,59903,5
29792,59924,5
29796,59910,4
29787,59902,5
29765,59850,5
29743,59814,5
29720,59781,4
29702,59748,6
29707,59753,4
29703,59764,5
29708,59777,5
29720,59784,4
29709,59765,5
29699,59748,5
29691,59724,5
29685,59712,5
29679,59695,4
29675,59693,5
29668,59689,5
29677,59685,5
29678,59695,5
29667,59657,4
29649,59641,5
29649,59641,5
29653,59649,5
29681,59670,5
29667,59668,4
29668,59649,5
29665,59656,5
29653,59654,5
29649,59640,4
29634,59568,5
29603,59506,6
29554,59438,4
29531,59382,5
29520,59380,4
29530,59393,5
29545,59431,5
29556,59458,5
29571,59469,5
29563,59452,4
29548,59435,5
29549,59440,5
29557,59457,5
29573,59491,5
29596,59533,4
29624,59574,5
29630,59609,5
29652,59633,5
29662,59643,5
29654,59630,4
29651,59612,5
29632,59600,5
29627,59588,5
29624,59555,3
29616,59533,4
29591,59503,5
29578,59488,5
29573,59460,5
29563,59452,4
29558,59430,5
29551,59441,5
29569,59469,5
29581,59492,5
29580,59505,4
29592,59514,5
29594,59523,5
29606,59540,5
29618,59556,5
29618,59555,4
29608,59536,5
29598,59522,5
29597,59526,5
29605,59517,5
29592,59513,5
29603,59524,4
29602,59531,5
29594,59539,5
29605,59551,6
29627,59583,3
29648,59611,5
29667,59657,5
29681,59692,5
29695,59728,4
29715,59770,5
29728,59796,5
29741,59826,5
29753,59865,5
29762,59873,4
29766,59874,5
29769,59887,5
29775,59884,5
29786,59887,5
29773,59880,4
29780,59883,5
29775,59880,5
29780,59890,5
29787,59889,5
29794,59898,4
29792,59913,6
29793,59911,4
29799,59924,5
29800,59926,4
29808,59944,6
29799,59951,3
29816,59963,5
29816,59971,5
29822,59969,4
29824,59978,5
29826,59981,5
29828,59988,5
29833,59985,5
29837,59998,4
29834,59998,5
29828,59997,5
29830,59994,5
29836,59989,5
29828,59998,4
29824,59987,5
29826,59986,5
29824,59981,5
29834,59986,5
29835,60002,4
29841,60006,5
29839,60001,6
29838,60004,4
29839,60000,4
29835,59992,4
29828,59985,5
29837,59989,5
29833,59994,5
29830,59992,4
29826,59993,5
29835,59996,5
29836,59989,5
29829,59991,5
29824,59998,4
29837,59996,5
29835,59994,5
29832,60008,5
29834,60009,5
29843,60011,4
29830,60004,5
29842,59997,5
29842,60006,5
29842,60009,5
29841,59999,4
29850,59998,5
29838,60005,5
29834,60011,6
29838,60005,4
29839,60004,4
29836,59994,5
29835,59996,5
29833,59997,5
29839,59995,4
29834,59994,5
29837,59993,5
29833,60002,5
29839,60012,5
29835,59999,4
29828,59998,5
29832,60007,5
29840,60000,5
29838,60003,5
29840,59998,4
29833,60003,5
29834,60001,5
29841,60013,5
29843,60006,5
29840,60008,5
29841,59999,4
29842,60013,5
29845,60015,5
29842,60013,6
29850,60003,3
29845,60001,5
29841,60012,5
29854,60017,5
29843,60019,4
29843,60016,5
29851,60013,5
29856,60021,5
29855,60025,5
29857,60033,4
29859,60019,5
29858,60041,5
29859,60040,5
29854,60039,5
29859,60041,4
29854,60034,5
29856,60039,5
29861,60027,5
29859,60038,5
29849,60030,4
29853,60030,6
29853,60025,4
29846,60014,5
29846,60019,5
29848,60012,4
29850,60023,5
29849,60012,5
29848,60016,5
29851,60017,4
29848,60023,4
29846,60008,5
29850,60013,5
29852,60021,5
29844,60013,4
29845,60018,5
29847,60003,5
29846,60010,5
29839,60011,5
29839,59997,4
29836,60001,5
29844,60007,5
29846,60020,5
29848,60010,5
29854,60030,4
29855,60022,5
29853,60022,6
29854,60021,4
29843,60004,5
29847,60010,4
29847,60021,5
29841,60011,5
29846,60020,5
29848,60013,4
29851,60015,4
29853,60015,5
29852,60020,5
29855,60018,5
29856,60030,4
29854,60027,5
29856,60024,5
29853,60018,5
29854,60021,5
29855,60030,4
29858,60037,5
29855,60039,5
29859,60030,5
29859,60035,5
29863,60035,4
29864,60045,5
29861,60039,5
29854,60030,6
29855,60045,4
29866,60036,4
29860,60047,5
29855,60043,5
29851,60038,5
29857,60049,5
29851,60048,4
29850,60043,5
29861,60040,5
29852,60037,5
29857,60038,4
29850,60027,5
29861,60036,5
29853,60034,5
29845,60035,5
29856,60034,4
29858,60029,5
29851,60024,5
29855,60017,5
29852,60031,5
29856,60023,5
29852,60023,4
29850,60026,5
29850,60023,5
29848,60013,5
29844,60028,4
29852,60017,5
29844,60021,5
29851,60020,5
29845,60024,5
29851,60033,4
29841,60016,5
29854,60026,5
29851,60025,5
29854,60029,4
29847,60014,5
29844,60031,5
29841,60025,5
29848,60017,5
29843,60014,4
29848,60020,5
29840,60012,5
29853,60011,5
29844,60014,5
29850,60019,4
29849,60023,6
29854,60021,4
29849,60023,5
29841,60025,5
29837,60012,4
29847,60015,5
29839,60020,5
29844,60011,5
29845,60014,5
29846,60002,4
29838,60010,5
29845,60005,5
29843,60002,5
29837,60002,4
29847,60009,5
29841,59997,5
29845,59993,5
29845,59996,5
29841,59999,4
29844,59997,5
29839,59990,5
29837,60002,5
29842,59989,5
29841,60001,4
29843,59997,5
29845,59999,6
29843,59986,4
29842,59999,5
29839,59996,4
29841,59981,5
29832,59978,5
29828,59963,5
29823,59973,5
29829,59972,4
29821,59977,5
29822,59975,5
29815,59952,5
29820,59946,4
29815,59954,4
29825,59963,5
29825,59968,5
29834,59973,5
29825,59954,4
29822,59949,5
29810,59941,5
29809,59926,5
29819,59947,10
29819,59947,4
29810,59953,5
29820,59950,5
29815,59944,5
29822,59965,4
29829,59957,5
29825,59959,5
29829,59966,5
29823,59961,5
29820,59952,4
29819,59942,5
29811,59944,5
29818,59943,5
29817,59938,4
29817,59950,4
29820,59949,5
29813,59951,5
29818,59956,5
29828,59962,4
29824,59968,5
29833,59965,5
29826,59988,5
29833,59985,5
29828,59985,5
29844,59997,4
29836,59990,5
29836,60001,5
29855,59996,5
29844,60005,4
29843,60002,5
29847,59995,5
29843,60001,5
29843,60007,5
29838,60011,4
29842,60017,5
29856,60016,5
29856,60019,5
29855,60026,4
29861,60040,4
29860,60045,5
29861,60066,5
29870,60059,5
29873,60065,4
29879,60064,5
29879,60076,5
29871,60070,5
29867,60071,5
29877,60071,4
29864,60068,6
29876,60071,4
29877,60067,5
29880,60074,5
29876,60073,4
29878,60080,5
29881,60078,5
29876,60075,5
29882,60070,5
29881,60066,4
29880,60069,5
29872,60058,5
29876,60063,5
29867,60053,4
29861,60049,4
29868,60044,5
29867,60044,5
29869,60042,5
29861,60039,4
29866,60038,5
29856,60038,5
29868,60037,6
29866,60035,4
29863,60032,4
29866,60045,5
29863,60035,5
29859,60030,5
29852,60022,5
29851,60019,4
29845,60024,5
29859,60030,5
29862,60023,5
29851,60029,5
29856,60027,4
29850,60020,5
29851,60017,5
29849,60016,5
29851,60015,5
29845,60027,4
29854,60016,5
29855,60025,5
29859,60036,5
29858,60031,5
29857,60036,4
29848,60020,5
29854,60017,5
29842,60013,6
29845,60026,3
29860,60025,5
29852,60017,5
29854,60029,5
29849,60022,5
29856,60028,4
29857,60031,5
29862,60039,5
29858,60042,5
29864,60037,5
29856,60044,4
29863,60038,5
29863,60042,5
29865,60049,5
29860,60045,5
29869,60044,4
29870,60042,5
29868,60049,5
29867,60043,5
29866,60038,4
29862,60042,6
29868,60043,4
29861,60049,5
29862,60049,5
29871,60048,6
29862,60052,3
29864,60050,5
29867,60037,5
29866,60040,5
29859,60040,4
29861,60038,5
29860,60038,5
29859,60047,5
29861,60035,5
29855,60038,4
29858,60037,5
29861,60044,5
29869,60044,5
29865,60036,5
29862,60036,4
29864,60036,5
29869,60026,5
29859,60031,5
29854,60031,4
29852,60027,4
29856,60024,6
29850,60019,4
29850,60021,5
29846,60023,4
29852,60030,5
29853,60037,5
29851,60030,5
29852,60026,5
29861,60025,4
29864,60034,5
29860,60022,5
29856,60029,5
29861,60021,5
29857,60031,4
29859,60028,5
29853,60024,5
29855,60016,5
29850,60024,5
29849,60025,4
29850,60014,5
29845,60017,5
29844,60003,5
29849,60010,4
29848,60010,4
29855,60002,5
29839,59999,6
29845,60004,4
29843,60008,4
29842,60000,5
29843,60001,5
29837,59999,5
29845,59988,5
29839,59987,4
29840,59996,5
29836,59984,5
29833,59981,5
29834,59979,5
29834,59985,4
29829,59973,5
29839,59976,5
29836,59984,5
29823,59970,5
29821,59972,4
29827,59969,5
29825,59971,5
29821,59957,5
29826,59950,5
29817,59945,4
29816,59946,5
29806,59939,5
29811,59935,6
29806,59936,3
29815,59936,5
29812,59936,5
29813,59932,5
29806,59937,5
29805,59931,4
29810,59929,5
29799,59923,5
29802,59928,5
29805,59919,5
29801,59920,4
29792,59911,5
29805,59906,5
29801,59906,5
29801,59910,5
29793,59903,4
29792,59895,5
29790,59894,5
29784,59891,5
29785,59903,5
29786,59893,5
29786,59899,4
29799,59904,5
29796,59902,5
29792,59905,4
29788,59876,5
29783,59897,5
29794,59899,5
29793,59899,5
29798,59903,4
29800,59901,5
29793,59903,5
29801,59906,5
29797,59908,5
29797,59915,4
29809,59919,5
29806,59919,5
29798,59923,5
29803,59921,5
29795,59920,4
29800,59926,5
29807,59928,5
29800,59931,5
29803,59930,5
29802,59931,4
29811,59936,6
29810,59937,4
29815,59952,5
29822,59945,4
29811,59946,5
29816,59958,5
29820,59950,5
29820,59964,5
29822,59957,4
29825,59963,5
29824,59961,5
29824,59962,5
29820,59970,5
29831,59966,4
29835,59968,5
29830,59977,5
29823,59974,5
29835,59983,5
29841,59979,4
29834,59981,5
29839,59975,5
29834,59990,5
29831,59979,5
29833,59987,4
29843,59992,5
29839,59982,6
29837,59986,4
29839,59981,4
29839,59985,5
29831,59982,5
29832,59978,5
29834,59981,5
29838,59980,4
29838,59983,5
29839,59989,5
29842,59996,5
29841,59999,5
29848,59990,4
29840,59999,5
29847,60003,5
29844,60003,5
29843,60005,5
29838,60000,4
29849,60014,5
29851,60008,5
29849,60009,5
29853,60013,5
29854,60012,4
29854,60013,5
29849,60011,5
29854,60015,5
29845,60004,4
29844,60019,4
29853,60014,5
29856,60017,5
29849,60019,5
29853,60005,4
29852,60015,5
29853,60023,5
29854,60013,5
29858,60008,5
29847,60016,4
29851,60015,5
29856,60013,5
29852,60015,5
29852,60022,5
29858,60018,4
29846,60016,5
29854,60007,5
29849,60011,5
29850,59994,5
29846,59995,5
29840,59980,4
29831,59965,5
29830,59968,5
29824,59967,4
29828,59957,4
29828,59961,5
29819,59951,5
29820,59962,5
29821,59951,4
29814,59945,5
29814,59932,5
29810,59911,5
29794,59908,5
29806,59901,4
29791,59909,5
29790,59902,5
29795,59902,5
29789,59908,5
29793,59900,4
29786,59901,5
29802,59901,5
29785,59897,5
29800,59908,5
29799,59911,4
29802,59915,6
29796,59914,4
29804,59905,5
29807,59912,4
29804,59915,4
29795,59924,5
29808,59925,5
29807,59919,5
29809,59921,4
29810,59925,5
29815,59930,5
29813,59941,5
29815,59937,5
29814,59929,4
29808,59927,5
29806,59934,5
29810,59948,5
29821,59953,5
29828,59976,4
29836,59969,5
29833,59975,5
29835,59970,5
29828,59968,5
29828,59959,4
29828,59957,5
29818,59955,5
29824,59958,5
29825,59962,5
29833,59970,4
29835,59982,5
29843,59987,5
29838,59967,5
29824,59969,4
29823,59956,5
29823,59953,5
29819,59953,5
29834,59962,5
29830,59980,4
29831,59981,5
29830,59971,5
29827,59940,5
29800,59884,5
29778,59832,4
29766,59830,5
29770,59836,5
29772,59852,5
29775,59857,5
29788,59879,4
29790,59881,5
29781,59882,5
29792,59884,5
29796,59891,5
29792,59877,4
29778,59863,5
29783,59862,5
29784,59880,5
29788,59893,4
29798,59901,5
29805,59907,5
29804,59922,5
29806,59897,5
29796,59896,4
29794,59887,5
29803,59882,5
29784,59881,5
29797,59870,5
29786,59868,4
29787,59876,5
29778,59861,5
29784,59870,5
29781,59867,5
29790,59886,5
29787,59871,3
29776,59850,5
29772,59853,5
29779,59854,5
29776,59862,4
29787,59851,5
29782,59845,5
29766,59846,5
29766,59827,4
29763,59821,5
29761,59804,5
29746,59793,5
29756,59806,9
29760,59811,0
29756,59799,5
29757,59829,5
29765,59821,5
29765,59826,5
29760,59812,4
29748,59796,5
29748,59794,6
29741,59791,4
29737,59786,5
29747,59788,4
29741,59795,7
29756,59814,3
29756,59817,5
29741,59797,5
29741,59800,4
29740,59788,5
29743,59790,5
29747,59801,5
29746,59803,4
29740,59800,4
29742,59795,5
29742,59774,5
29738,59786,5
29748,59796,4
29750,59799,5
29749,59785,5
29741,59757,5
29709,59709,5
29704,59702,4
29698,59701,5
29695,59701,5
29701,59710,6
29712,59720,4
29719,59746,4
29726,59766,5
29737,59778,5
29732,59773,5
29732,59753,5
29721,59737,4
29720,59723,5
29719,59719,5
29704,59698,5
29688,59673,4
29694,59678,4
29696,59681,5
29691,59670,5
29692,59678,5
29694,59683,4
29703,59703,5
29703,59696,5
29699,59714,5
29709,59703,5
29705,59709,5
29710,59715,4
29706,59706,5
29704,59711,5
29713,59721,6
29724,59737,3
29717,59743,5
29722,59736,5
29719,59743,5
29719,59748,5
29725,59742,4
29723,59748,5
29718,59759,5
29735,59766,5
29736,59777,5
29744,59791,4
29753,59802,5
29756,59825,5
29773,59844,5
29789,59867,4
29800,59903,5
29803,59916,5
29819,59948,5
29831,59955,5
29833,59965,4
29829,59965,6
29831,59952,4
29826,59965,5
29839,59968,5
29826,59969,6
29831,59961,3
29841,59979,5
29836,59979,5
29838,59981,5
29838,59991,4
29846,59995,5
29856,60019,5
29860,60021,5
29868,60026,5
29864,60031,4
29866,60029,5
29864,60032,5
29873,60042,5
29871,60046,4
29874,60054,5
29880,60044,5
29870,60058,5
29878,60058,5
29888,60057,4
29877,60065,5
29879,60066,6
29886,60065,4
29884,60075,5
29887,60072,4
29889,60072,5
29879,60062,5
29885,60072,5
29885,60064,5
29874,60067,4
29882,60064,5
29881,60060,5
29879,60057,5
29880,60064,5
29883,60059,4
29881,60055,5
29886,60057,5
29890,60061,5
29879,60057,4
29879,60064,5
29879,60056,5
29890,60063,5
29874,60050,5
29878,60054,4
29876,60043,5
29867,60028,5
29862,60050,6
29876,60037,4
29867,60026,4
29870,60029,5
29867,60035,5
29873,60032,5
29870,60038,5
29871,60025,4
29876,60035,5
29867,60032,5
29864,60021,5
29862,60021,5
29859,60032,4
29858,60027,5
29866,60028,5
29872,60028,5
29872,60035,4
29870,60041,5
29873,60035,5
29875,60034,5
29872,60039,5
29879,60041,5
29867,60046,4
29876,60045,5
29878,60045,5
29875,60044,6
29881,60043,3
29880,60042,5
29880,60045,5
29876,60043,5
29872,60048,5
29880,60043,4
29877,60047,5
29880,60040,5
29876,60043,5
29873,60047,5
29867,60043,4
29866,60038,5
29868,60035,5
29866,60039,5
29876,60032,4
29865,60030,4
29875,60025,5
29867,60029,5
29872,60030,5
29871,60019,4
29862,60019,6
29857,60029,4
29863,60016,5
29874,60029,5
29877,60040,4
29883,60036,5
29870,60045,5
29877,60045,5
29873,60047,5
29871,60038,4
29872,60031,5
29872,60028,5
29871,60035,5
29875,60035,5
29877,60032,4
29872,60039,5
29880,60034,5
29880,60037,5
29877,60046,4
29876,60044,4
29882,60040,5
29875,60034,5
29881,60046,5
29884,60052,4
29881,60048,5
29881,60046,6
29883,60050,4
29886,60057,5
29880,60059,4
29877,60057,5
29888,60054,5
29882,60047,5
29882,60053,5
29880,60050,4
29884,60059,5
29886,60050,5
29878,60057,5
29887,60047,5
29881,60059,4
29887,60065,5
29881,60051,5
29884,60060,5
29878,60054,4
29880,60052,4
29881,60049,5
29876,60045,5
29879,60059,5
29881,60056,4
29883,60053,5
29874,60048,5
29884,60051,6
29876,60050,4
29879,60046,4
29873,60051,5
29880,60045,5
29880,60038,5
29874,60043,5
29888,60048,4
29879,60039,5
29878,60037,5
29873,60038,5
29882,60049,5
29880,60046,4
29878,60050,5
29885,60047,5
29879,60050,5
29881,60045,5
29886,60051,4
29886,60057,5
29882,60057,5
29885,60051,5
29882,60046,5
29887,60062,4
29882,60062,5
29880,60060,5
29879,60055,5
29884,60056,4
29884,60065,5
29886,60051,5
29882,60054,5
29887,60053,5
29894,60051,4
29878,60059,5
29887,60058,5
29881,60053,5
29885,60052,5
29885,60045,4
29874,60042,5
29883,60041,5
29878,60042,5
29882,60034,5
29872,60043,4
29877,60042,5
29869,60032,5
29881,60046,5
29872,60039,4
29874,60039,6
29870,60035,4
29877,60027,5
29874,60031,5
29874,60021,4
29871,60033,5
29880,60036,5
29879,60029,5
29876,60047,5
29888,60048,4
29884,60062,5
29886,60053,5
29886,60047,5
29880,60054,5
29873,60035,4
29881,60053,5
29887,60055,5
29878,60050,5
29877,60052,5
29888,60048,4
29880,60051,5
29888,60067,5
29898,60058,5
29883,60066,4
29889,60068,5
29892,60064,6
29889,60062,4
29899,60068,5
29891,60072,4
29900,60074,5
29887,60076,5
29896,60067,5
29890,60077,5
29897,60078,4
29889,60071,5
29898,60079,5
29893,60079,5
29902,60082,5
29892,60086,4
29904,60076,5
29890,60086,5
29894,60088,5
29897,60085,5
29904,60086,4
29894,60078,5
29901,60081,5
29896,60085,5
29900,60077,4
29900,60077,4
29900,60074,5
29901,60085,5
29900,60077,5
29891,60072,4
29901,60073,5
29898,60078,5
29894,60061,5
29892,60073,5
29887,60071,4
29896,60071,5
29896,60071,5
29892,60061,5
29895,60066,5
29894,60067,4
29896,60070,5
29890,60071,5
29888,60074,5
29898,60064,5
29894,60076,5
29889,60069,4
29900,60078,5
29894,60072,5
29895,60070,6
29893,60080,3
29900,60082,5
29893,60075,5
29890,60078,5
29898,60077,4
29896,60063,5
29890,60066,5
29891,60075,5
29892,60068,5
29891,60065,4
29887,60073,5
29904,60068,5
29890,60066,5
29891,60064,5
29895,60066,4
29894,60069,5
29890,60070,5
29892,60073,5
29884,60072,5
29895,60064,4
29889,60058,6
29886,60066,4
29895,60058,5
29889,60062,4
29890,60051,6
29883,60060,3
29888,60057,5
29888,60054,5
29888,60050,4
29893,60059,5
29885,60054,5
29888,60060,5
29888,60059,5
29885,60059,4
29896,60049,5
29880,60056,5
29887,60054,5
29881,60057,5
29885,60048,4
29876,60043,5
29883,60041,5
29883,60035,5
29877,60041,5
29871,60036,4
29874,60025,5
29874,60040,6
29880,60040,4
29876,60044,4
29887,60053,4
29881,60058,5
29882,60064,5
29882,60066,5
29896,60062,4
29879,60049,5
29880,60042,5
29881,60042,5
29879,60052,5
29885,60045,4
29884,60056,5
29874,60049,5
29886,60054,5
29885,60057,5
29898,60066,4
29891,60072,5
29895,60073,5
29899,60080,5
29897,60080,5
29900,60080,4
29906,60082,5
29900,60075,5
29901,60085,6
29905,60088,4
29898,60080,4
29906,60074,5
29890,60074,5
29900,60084,7
29905,60083,2
29899,60075,5
29901,60078,5
29903,60081,5
29907,60085,5
29902,60085,4
29906,60090,5
29900,60083,5
29903,60078,5
29902,60084,5
29908,60089,4
29904,60086,5
29897,60089,5
29900,60082,5
29902,60076,5
29906,60081,5
29896,60072,4
29893,60064,5
29902,60084,5
29895,60072,6
29901,60074,3
29889,60057,5
29897,60073,5
29896,60072,5
29900,60070,4
29889,60064,5
29892,60069,5
29896,60071,5
29893,60059,5
29888,60059,4
29891,60061,5
29891,60054,5
29894,60056,5
29893,60063,5
29894,60055,4
29888,60058,5
29884,60048,5
29889,60061,5
29891,60057,5
29886,60057,4
29898,60061,6
29894,60064,4
29886,60048,5
29888,60051,5
29884,60044,4
29883,60051,5
29881,60055,5
29886,60047,5
29889,60053,4
29877,60037,5
29893,60047,5
29886,60045,5
29890,60030,5
29879,60038,4
29883,60034,5
29882,60035,5
29872,60037,5
29878,60024,5
29884,60030,4
29874,60017,5
29880,60013,5
29879,60018,5
29876,60021,5
29872,60027,4
29873,60015,5
29878,60016,6
29873,60016,4
29872,60019,5
29869,60014,4
29863,60005,5
29863,60005,5
29862,60006,5
29863,60000,4
29861,60006,4
29866,59998,5
29861,59989,5
29866,59995,5
29856,59994,4
29853,59983,5
29857,59994,5
29847,59985,5
29855,59992,5
29843,59979,4
29844,59984,5
29844,59970,5
29843,59972,5
29840,59966,5
29848,59963,4
29851,59973,5
29851,59972,5
29851,59969,6
29855,59971,4
29851,59966,4
29845,59963,5
29842,59956,5
29844,59961,5
29847,59954,4
29839,59952,4
29845,59961,5
29855,59961,5
29841,59972,5
29845,59968,4
29854,59980,5
29847,59976,5
29846,59960,5
29845,59972,5
29850,59973,4
29857,59971,5
29849,59971,5
29847,59973,5
29860,59964,5
29853,59977,5
29865,59982,4
29854,59977,5
29858,59980,5
29871,59991,5
29861,59982,4
29859,59994,5
29863,59994,5
29858,60003,5
29868,59991,4
29868,59990,4
29870,59994,5
29873,60007,5
29874,59995,5
29872,59994,4
29868,59997,5
29871,59998,5
29869,59999,5
29873,60013,5
29875,60017,4
29873,60012,5
29883,60022,5
29875,60009,5
29874,60021,5
29880,60014,4
29888,60019,6
29874,60018,4
29882,60010,5
29892,60026,5
29890,60014,4
29882,60022,5
29881,60021,5
29890,60012,5
29881,60028,4
29883,60019,4
29883,60020,5
29885,60015,5
29882,60018,5
29883,60018,4
29889,60021,5
29875,60019,5
29886,60020,5
29882,60023,5
29885,60019,4
29891,60037,5
29888,60044,5
29901,60054,5
29900,60052,5
29896,60051,4
29898,60057,5
29899,60061,6
29905,60053,4
29912,60056,5
29901,60061,4
29906,60062,5
29908,60058,5
29911,60071,5
29910,60068,5
29911,60065,4
29914,60074,5
29912,60073,5
29913,60071,5
29908,60067,4
29906,60069,5
29914,60069,5
29914,60062,5
29902,60059,5
29900,60059,4
29906,60052,5
29899,60058,5
29897,60055,5
29900,60059,5
29901,60058,4
29899,60061,5
29892,60041,5
29900,60041,5
29900,60045,5
29890,60030,4
29894,60035,5
29888,60028,5
29889,60025,5
29888,60018,5
29888,60022,4
29889,60024,5
29887,60013,5
29882,60013,5
29880,60001,4
29874,60009,5
29875,60005,5
29878,59994,5
29865,59981,5
29863,59971,4
29856,59957,5
29838,59941,5
29848,59940,5
29847,59931,5
29842,59929,5
29843,59932,4
29841,59930,5
29841,59925,5
29832,59918,5
29827,59914,4
29833,59928,5
29848,59943,5
29858,59968,5
29866,60007,5
29888,60052,4
29915,60090,5
29928,60124,5
29935,60132,5
29938,60139,4
29955,60145,5
29952,60156,5
29955,60168,5
29957,60167,5
29964,60171,4
29968,60172,5
29963,60156,5
29950,60151,5
29947,60138,5
29936,60124,4
29938,60131,6
29949,60139,4
29951,60138,5
29951,60150,5
29955,60157,4
29961,60158,5
29963,60166,5
29958,60162,5
29957,60159,5
29963,60167,4
29964,60169,5
29966,60167,5
29969,60165,5
29959,60161,4
29952,60155,5
29962,60161,5
29966,60162,5
29966,60171,5
29972,60182,4
29979,60182,5
29969,60183,5
29966,60155,5
29953,60130,5
29943,60117,4
29929,60096,5
29940,60109,5
29937,60114,5
29951,60126,5
29950,60125,4
29932,60115,5
29923,60073,5
29912,60046,5
29900,60026,4
29890,60019,4
29908,60040,5
29923,60076,5
29941,60111,5
29933,60114,4
29930,60086,5
29930,60054,5
29896,59986,5
29867,59937,5
29856,59915,5
29850,59918,4
29862,59915,5
29866,59949,5
29887,59970,6
29882,59988,3
29901,60012,5
29904,60015,5
29920,60034,5
29913,60017,5
29887,59958,4
29876,59903,5
29819,59812,5
29791,59759,5
29774,59724,4
29757,59702,5
29765,59718,5
29764,59703,5
29745,59663,5
29721,59588,4
29687,59531,5
29677,59522,5
29676,59510,5
29671,59507,5
29666,59508,4
29680,59535,6
29684,59532,4
29681,59512,5
29662,59465,5
29641,59451,6
29650,59455,3
29646,59452,5
29642,59445,5
29645,59456,5
29657,59464,4
29649,59445,5
29632,59400,5
29614,59369,5
29607,59351,4
29598,59338,5
29600,59313,5
29586,59320,5
29599,59337,5
29607,59362,4
29628,59376,5
29627,59346,5
29605,59325,5
29600,59313,5
29590,59279,4
29578,59271,5
29576,59276,6
29600,59310,4
29611,59320,5
29607,59325,4
29605,59309,5
29605,59308,5
29595,59285,5
29591,59273,5
29595,59290,4
29605,59290,5
29602,59307,5
29593,59285,5
29576,59233,4
29554,59202,5
29553,59196,5
29554,59196,5
29559,59190,5
29558,59191,4
29553,59193,5
29553,59180,5
29529,59115,5
29491,59056,5
29473,59012,4
29460,58992,5
29452,58995,5
29452,58988,6
29444,58961,4
29449,58959,4
29447,58957,5
29426,58905,5
29405,58868,5
29383,58840,4
29386,58825,4
29389,58841,5
29394,58839,5
29402,58878,5
29416,58898,4
29433,58925,5
29435,58942,5
29423,58918,5
29416,58901,5
29427,58901,4
29424,58911,5
29422,58896,5
29407,58898,5
29418,58910,5
29425,58902,5
29410,58901,4
29409,58890,5
29404,58853,5
29383,58840,6
29389,58831,3
29393,58840,5
29387,58841,5
29389,58847,5
29393,58843,4
29393,58848,4
29400,58870,5
29422,58894,5
29448,58945,5
29445,58948,4
29436,58933,5
29427,58908,5
29417,58896,5
29421,58899,5
29430,58917,4
29437,58937,5
29445,58943,5
29450,58965,5
29455,58996,5
29485,59038,4
29489,59040,6
29487,59036,4
29480,59050,5
29501,59095,5
29529,59141,4
29550,59186,5
29565,59212,5
29577,59236,5
29586,59264,4
29604,59277,4
29617,59307,5
29617,59336,5
29641,59368,5
29658,59399,4
29670,59427,5
29672,59447,5
29684,59463,5
29692,59480,5
29692,59469,4
29698,59476,5
29702,59492,5
29709,59504,10
29721,59517,4
29732,59534,5
29717,59535,6
29721,59538,4
29726,59545,5
29725,59545,4
29737,59553,5
29743,59576,5
29745,59583,5
29748,59593,4
29750,59590,5
29757,59611,5
29773,59638,5
29779,59655,5
29787,59671,4
29793,59691,5
29814,59724,5
29819,59753,5
29821,59759,5
29841,59779,4
29853,59792,5
29849,59813,5
29850,59803,5
29850,59800,5
29841,59798,4
29849,59797,5
29845,59801,5
29861,59815,6
29862,59822,4
29865,59831,4
29865,59844,5
29867,59840,5
29880,59848,5
29869,59847,4
29880,59852,5
29868,59855,5
29880,59860,5
29890,59878,5
29889,59878,4
29891,59897,5
29900,59908,5
29901,59913,5
29905,59921,5
29910,59935,4
29909,59936,5
29916,59936,5
29922,59941,5
29919,59950,5
29921,59952,5
29924,59943,4
29923,59954,5
29922,59950,5
29925,59959,5
29927,59957,4
29925,59958,5
29922,59962,5
29921,59958,5
29920,59949,4
29919,59959,5
29925,59987,5
29939,59986,5
29941,59996,5
29945,59996,4
29944,59989,5
29936,59987,5
29932,59990,5
29931,59984,5
29945,59992,4
29946,59997,5
29943,60001,5
29945,60005,5
29930,60003,5
29944,60007,4
29947,60007,6
29947,60011,4
29953,60022,5
29957,60039,4
29953,60023,4
29956,60026,5
29953,60029,5
29953,60032,5
29964,60041,4
29958,60035,5
29964,60044,5
29963,60045,5
29953,60042,5
29954,60040,4
29961,60037,5
29963,60040,5
29955,60040,5
29961,60040,5
29964,60047,4
29953,60043,5
29959,60039,5
29955,60043,5
29949,60042,5
29961,60032,4
29960,60039,5
29948,60032,6
29953,60014,4
29950,60023,4
29956,60022,4
29954,60017,5
29948,60017,5
29955,60017,5
29943,60031,4
29946,60022,5
29949,60017,5
29957,60021,5
29948,60007,5
29950,60000,4
29947,60010,5
29944,60005,5
29943,60003,5
29943,60005,5
29945,60014,4
29946,60019,5
29946,60014,5
29947,60017,5
29948,60011,5
29948,60013,4
29952,60028,5
29949,60021,5
29950,60019,5
29947,60021,4
29959,60024,4
29939,60030,5
29947,60019,5
29950,60020,5
29953,60026,4
29942,60021,5
29953,60023,5
29946,60024,5
29953,60011,5
29943,60015,4
29949,60022,5
29943,60019,5
29952,60027,5
29957,60027,5
29944,60015,4
29952,60025,5
29937,60010,5
29947,60004,5
29941,60007,5
29940,60009,5
29939,60003,4
29947,60010,5
29941,60005,5
29941,60005,4
29948,60006,4
29943,60010,5
29936,60006,5
29940,60003,5
29935,60000,4
29934,59998,5
29939,59991,5
29940,60007,5
29941,60009,5
29943,60011,4
29947,60022,5
29952,60019,5
29943,60025,5
29952,60009,5
29953,60015,4
29935,60007,5
29936,60005,5
29939,60010,5
29947,60003,5
29930,60005,4
29945,60010,6
29949,60023,4
29944,60019,5
29938,60019,4
29942,60027,4
29950,60023,5
29952,60024,5
29951,60032,5
29956,60038,4
29964,60041,5
29947,60033,5
29943,60033,5
29956,60038,5
29954,60045,4
29952,60044,5
29953,60041,5
29959,60033,5
29955,60034,5
29955,60046,4
29958,60040,5
29961,60036,5
29961,60048,6
29959,60043,4
29957,60041,4
29961,60046,5
29966,60048,5
29957,60047,5
29953,60046,4
29960,60048,5
29958,60049,5
29953,60044,5
29954,60035,5
29963,60038,4
29952,60031,5
29952,60038,5
29959,60042,5
29962,60044,5
29960,60046,4
29956,60034,5
29961,60034,5
29963,60041,5
29959,60034,5
29954,60031,5
29958,60037,4
29954,60031,5
29960,60037,5
29957,60041,6
29952,60024,3
29947,60025,5
29944,60006,5
29933,59996,5
29938,59997,4
29929,59981,5
29926,59975,5
29934,59975,5
29931,59973,5
29933,59984,4
29937,59980,5
29942,59980,5
29932,59981,5
29935,59986,5
29925,59987,4
29938,59993,5
29933,59987,5
29940,59990,5
29934,59996,5
29942,59991,4
29936,59993,6
29942,60000,4
29938,59995,5
29939,59999,5
29943,60005,6
29938,60007,3
29935,60012,5
29941,60013,5
29953,60015,4
29948,60017,5
29940,60010,5
29944,60009,5
29937,60014,5
29934,60008,4
29942,60003,5
29944,59999,5
29935,60005,5
29936,60012,5
29940,60003,4
29936,60000,5
29937,60000,5
29940,60005,5
29936,60003,5
29932,60002,4
29940,60005,5
29943,60011,6
29935,60001,4
29943,60003,4
29936,59997,4
29938,59997,5
29926,60003,5
29941,59994,5
29934,59994,4
29938,59984,5
29938,59985,5
29930,59986,5
29936,60001,5
29937,60006,4
29943,60016,5
29951,60018,5
29952,60027,5
29954,60022,5
29945,60022,4
29955,60013,5
29950,60015,5
29952,60026,5
29947,60017,5
29954,60020,4
29950,60018,5
29949,60021,5
29951,60029,6
29958,60020,4
29944,60035,4
29951,60034,5
29955,60035,5
29964,60053,5
29960,60057,4
29971,60047,5
29964,60060,5
29965,60061,5
29965,60059,5
29967,60058,4
29961,60048,5
29962,60052,5
29961,60054,5
29968,60058,5
29964,60059,4
29970,60058,5
29969,60060,5
29967,60063,5
29969,60050,5
29971,60059,5
29970,60058,4
29965,60058,5
29960,60067,5
29970,60060,6
29978,60057,3
29973,60065,5
29973,60059,5
29966,60064,5
29972,60063,4
29969,60054,5
29962,60047,5
29962,60056,5
29961,60058,5
29959,60048,4
29959,60045,5
29959,60053,5
29962,60048,5
29956,60044,5
29958,60034,4
29960,60042,5
29962,60032,5
29953,60031,5
29955,60031,5
29954,60032,4
29951,60027,6
29964,60033,4
29965,60035,5
29957,60043,4
29954,60036,4
29959,60046,5
29968,60049,5
29956,60043,5
29958,60044,4
29959,60044,5
29953,60042,5
29962,60042,5
29957,60045,5
29957,60034,4
29964,60038,5
29957,60045,5
29952,60034,5
29954,60037,5
29961,60036,4
29962,60028,5
29953,60030,5
29948,60024,5
29963,60034,5
29957,60033,4
29949,60027,5
29957,60017,6
29949,60009,4
29950,60008,5
29951,60015,4
29941,60011,5
29946,60022,5
29940,60011,5
29944,60015,4
29948,60024,5
29946,60027,5
29940,60006,5
29945,60008,5
29944,60010,4
29949,60015,5
29938,60025,5
29939,60009,5
29936,60006,5
29946,60008,4
29946,60011,5
29944,60007,5
29947,60015,5
29938,60004,5
29941,60013,4
29942,59997,5
29934,59998,5
29940,60002,6
29939,59995,4
29933,59993,4
29926,59996,5
29937,59992,5
29927,59984,5
29928,59971,4
29917,59974,5
29924,59977,5
29921,59974,5
29934,59978,5
29929,59977,4
29938,59991,5
29928,59984,5
29933,59985,5
29940,59982,5
29930,59982,4
29918,59978,5
29931,59975,5
29924,59984,5
29926,59977,5
29931,59980,5
29931,59979,4
29930,59981,5
29930,59990,5
29932,59984,5
29937,59988,4
29934,59992,5
29945,59996,5
29936,59997,5
29940,60009,4
29938,60007,5
29948,60003,5
29939,60011,5
29950,60024,8
29954,60032,1
29954,60046,5
29938,60060,5
29974,60058,5
29977,60076,5
29974,60065,4
29964,60054,5
29973,60044,5
29958,60038,5
29957,60045,5
29963,60048,4
29965,60036,6
29948,60028,4
29949,60016,5
29953,60019,5
29955,60023,4
29955,60034,5
29965,60045,5
29963,60062,5
29981,60093,4
29987,60098,5
29999,60119,5
30001,60138,5
30014,60134,5
30012,60140,4
30008,60134,5
30002,60140,5
30001,60125,5
30010,60130,5
29993,60124,4
29999,60125,5
30001,60113,5
29997,60110,5
30005,60117,5
30003,60118,4
29998,60116,5
29995,60119,6
29989,60120,4
29990,60124,5
30003,60119,4
30000,60130,5
30011,60144,5
30018,60159,5
30022,60160,4
30021,60165,5
30025,60169,5
30025,60168,5
30029,60175,5
30026,60169,4
30020,60177,5
30022,60169,5
30020,60167,5
30030,60173,5
30027,60176,4
30024,60170,5
30027,60186,5
30026,60194,5
30034,60195,5
30037,60190,4
30036,60183,5
30029,60169,5
30015,60147,5
30006,60128,5
30008,60129,4
30001,60121,5
30006,60119,5
30007,60127,5
30004,60124,4
29999,60117,5
29998,60131,5
30003,60127,5
30008,60138,5
30011,60151,4
30018,60156,5
30015,60157,5
30018,60139,5
30007,60129,5
29999,60131,4
30013,60118,5
29998,60111,5
29997,60120,5
30008,60115,5
30004,60120,5
30003,60124,4
30009,60126,5
30018,60145,5
30004,60141,5
30015,60157,4
30018,60165,5
30027,60166,5
30025,60159,5
30016,60146,4
30023,60144,5
30019,60145,5
30008,60144,5
30017,60145,5
30017,60149,4
30010,60150,5
30012,60156,5
30011,60158,5
30024,60154,5
30017,60158,4
30022,60156,5
30010,60147,5
30006,60145,5
30011,60145,5
30012,60136,4
30014,60142,6
30009,60140,4
30004,60138,5
30003,60132,5
30006,60130,4
30000,60121,5
30007,60119,5
29996,60114,5
29999,60112,4
29998,60116,5
29997,60120,5
30000,60124,5
30000,60125,5
30004,60112,4
29989,60114,5
29991,60097,5
29988,60091,5
29989,60096,5
29989,60089,4
29986,60083,5
29981,60084,5
29984,60080,6
29978,60074,4
29980,60066,4
29976,60073,5
29968,60073,5
29976,60077,5
29982,60076,5
29980,60076,4
29980,60083,5
29978,60078,5
29978,60090,5
29982,60095,4
29983,60103,5
29992,60105,5
30003,60117,5
29998,60128,5
30000,60139,4
30006,60144,5
30017,60151,5
30018,60158,5
30020,60153,5
30019,60157,5
30024,60171,4
30026,60159,5
30027,60162,5
30030,60170,6
30016,60166,3
30026,60164,5
30023,60167,5
30016,60148,5
30018,60159,5
30012,60163,4
30013,60154,5
30019,60160,5
30016,60156,5
30017,60153,4
30014,60156,5
30019,60159,5
30019,60154,5
30014,60159,5
30019,60157,4
30023,60169,5
30024,60159,5
30018,60170,5
30021,60159,5
30029,60168,4
30015,60174,6
30022,60165,4
30014,60163,5
30023,60167,5
30022,60175,6
30030,60171,3
30024,60181,5
30023,60189,5
30030,60179,5
30022,60181,4
30022,60186,5
30022,60163,5
30022,60157,5
30015,60149,4
30006,60140,5
30014,60143,5
30016,60157,5
30017,60149,5
30014,60158,4
30009,60163,5
30016,60166,5
30021,60164,5
30026,60177,5
30029,60178,4
30034,60192,5
30031,60194,6
30040,60196,4
30033,60191,5
30038,60200,4
30032,60194,5
30032,60199,5
30033,60195,5
30031,60185,5
30038,60197,4
30033,60193,5
30042,60195,5
30031,60196,5
30030,60193,4
30031,60199,5
30036,60186,5
30033,60194,5
30035,60190,5
30028,60183,4
30022,60184,5
30025,60176,5
30024,60166,5
30032,60157,5
30020,60164,4
30013,60153,5
30019,60160,5
30009,60153,6
30011,60150,4
30018,60162,4
30010,60157,5
30014,60158,5
30022,60149,5
30014,60157,5
30020,60159,4
30019,60156,5
30016,60157,5
30016,60170,5
30019,60165,4
30023,60167,4
30024,60176,5
30027,60179,5
30029,60183,5
30030,60180,4
30034,60190,9
30038,60189,5
30038,60209,5
30017,60194,5
30020,60201,8
30039,60204,5
30035,60218,5
30048,60217,5
30042,60194,8
30040,60216,5
30044,60213,5
30040,60211,8
30040,60211,5
30054,60220,5
30049,60222,8
30040,60220,5
30041,60212,5
30044,60243,5
30036,60236,8
30047,60214,5
30045,60198,5
30039,60220,8
30050,60215,5
30050,60215,5
30046,60220,5
30038,60232,8
30042,60226,5
30045,60217,5
30048,60214,8
30058,60228,5
30037,60217,5
30040,60164,8
30043,60200,5
30041,60210,5
30041,60223,5
30048,60243,8
30048,60243,5
30052,60225,5
30053,60228,8
30053,60236,5
30065,60242,5
30062,60254,5
30046,60248,8
30062,60247,5
30059,60255,5
30072,60259,8
30060,60248,5
30059,60247,5
30057,60250,5
30051,60231,8
30051,60231,5
30077,60227,5
30067,60222,8
30057,60231,5
30034,60221,5
30050,60218,8
30048,60227,5
30048,60224,5
30037,60216,5
30039,60203,8
30044,60216,5
30060,60219,5
30034,60202,8
30034,60202,5
30038,60201,5
30013,60209,5
30023,60193,8
30039,60185,5
30035,60187,5
30023,60184,8
30027,60166,5
30030,60193,5
30032,60194,8
30040,60204,5
30035,60184,5
30030,60183,5
30033,60197,8
30033,60197,5
30041,60196,5
30038,60215,8
30037,60225,5
30043,60205,5
30033,60201,5
30040,60209,8
30059,60202,5
30049,60197,5
30027,60197,8
30030,60199,5
30032,60190,5
30027,60182,8
30027,60182,5
30036,60229,5
30037,60186,5
30039,60165,8
30035,60187,5
30037,60192,5
30058,60189,8
30021,60185,5
30019,60191,5
30036,60181,5
30030,60185,8
30031,60180,5
30036,60167,5
30037,60196,8
30037,60196,5
30043,60176,5
30040,60194,8
30041,60187,5
30037,60184,5
30001,60194,5
30033,60188,8
30026,60182,5
30031,60211,5
30035,60190,8
30041,60181,5
30033,60187,5
30044,60191,5
30040,60204,8
30040,60204,5
30036,60201,5
30033,60207,8
30034,60206,5
30036,60197,5
30038,60219,8
30038,60207,0
30036,60167,1
30038,60170,4
30050,60183,5
30025,60187,5
30023,60175,5
30023,60180,5
30022,60166,4
30024,60166,5
30027,60162,5
30019,60151,5
30021,60160,4
30025,60158,4
30023,60155,5
30026,60158,5
30020,60152,5
30012,60149,4
30007,60141,5
30005,60137,5
30007,60129,5
30003,60117,5
29999,60119,4
29989,60098,5
30000,60117,5
29994,60100,5
30001,60104,6
29998,60116,3
30002,60117,5
30006,60141,5
30019,60156,5
30019,60157,5
30034,60178,4
30035,60190,5
30041,60193,5
30040,60198,5
30042,60196,5
30048,60203,4
30044,60198,5
30038,60192,5
30047,60185,5
30030,60196,4
30032,60188,5
30039,60182,5
30021,60177,5
30020,60171,5
30031,60156,5
30022,60162,4
30016,60154,5
30019,60161,5
30027,60146,5
30023,60157,4
30013,60146,5
30016,60154,5
30013,60146,5
30018,60149,5
30013,60143,4
30011,60148,5
30017,60137,5
30011,60136,5
30014,60147,5
30009,60154,4
30011,60151,5
30011,60151,5
30018,60147,5
30016,60146,4
30021,60149,5
30023,60147,6
30015,60151,4
30016,60140,5
30012,60137,4
30011,60152,7
30015,60147,3
30020,60158,5
30021,60162,5
30025,60174,4
30032,60167,5
30034,60186,5
30033,60183,5
30031,60188,5
30035,60183,4
30015,60166,5
30023,60169,5
30020,60172,5
30021,60174,5
30024,60164,4
30021,60177,5
30026,60183,5
30045,60180,5
30031,60182,4
30035,60188,5
30033,60180,5
30031,60186,6
30040,60184,4
30043,60193,4
30037,60193,5
30039,60195,5
30034,60197,5
30033,60193,5
30041,60207,4
30045,60203,5
30038,60210,5
30042,60207,5
30045,60198,5
30043,60198,4
30044,60212,5
30043,60197,5
30039,60192,5
30047,60201,5
30040,60207,4
30055,60198,5
30045,60203,5
30043,60197,5
30046,60204,5
30045,60203,4
30049,60212,5
30049,60206,5
30042,60197,6
30040,60194,3
30042,60196,5
30038,60180,5
30029,60179,5
30035,60182,5
30039,60170,4
30036,60168,5
30023,60173,5
30023,60180,5
30028,60175,5
30026,60172,4
30030,60169,5
30035,60168,5
30028,60170,5
30030,60174,5
30037,60169,4
30029,60169,5
30033,60163,5
30026,60165,5
30029,60167,4
30028,60169,6
30025,60165,4
30027,60175,5
30026,60165,5
30024,60162,6
30028,60166,3
30025,60161,5
30032,60162,5
30031,60171,5
30024,60172,4
30029,60165,5
30023,60171,5
30035,60172,5
30023,60168,5
30034,60168,4
30027,60163,5
30029,60168,5
30023,60165,5
30029,60161,5
30027,60161,4
30016,60165,5
30028,60160,5
30027,60160,5
30022,60161,4
30028,60152,4
30017,60156,6
30018,60163,4
30024,60156,5
30016,60150,4
30020,60155,5
30010,60149,5
30019,60140,5
30018,60150,5
30016,60148,4
30016,60154,5
30019,60139,5
30011,60141,5
30013,60133,5
30005,60134,4
30012,60131,5
30014,60131,5
30013,60124,5
30003,60120,5
30009,60125,4
30005,60122,5
30013,60121,5
30005,60118,5
30011,60123,4
30004,60123,4
30013,60136,5
30016,60126,6
30009,60127,4
30013,60138,4
30015,60133,5
30007,60137,5
30008,60120,5
30006,60107,5
30001,60111,4
30009,60119,5
30005,60120,5
30007,60120,5
30002,60121,5
30004,60114,4
30004,60118,5
30006,60127,5
30002,60123,5
30011,60128,5
30009,60134,4
30016,60127,5
30011,60137,5
30014,60135,5
30011,60135,5
30015,60146,4
30003,60137,5
30016,60142,5
30013,60147,6
30015,60143,3
30016,60141,5
30016,60147,5
30008,60143,5
30009,60139,5
30018,60140,4
30020,60157,5
30015,60146,5
30009,60151,5
30015,60144,5
30016,60146,4
30018,60136,5
30016,60139,5
30017,60146,5
30021,60154,5
30020,60146,4
30015,60135,5
30013,60144,5
30014,60127,5
30003,60123,4
30004,60137,5
29999,60121,4
30000,60122,5
30005,60120,5
30000,60121,4
30004,60117,5
30011,60115,5
30005,60110,5
30008,60112,5
30008,60113,4
30001,60109,5
29999,60123,5
30006,60108,5
30006,60114,5
29996,60111,4
30001,60104,5
30008,60106,5
30004,60110,5
30003,60115,5
29995,60116,4
30001,60117,5
30003,60116,5
29997,60110,5
29994,60114,4
29999,60111,4
29995,60111,6
30001,60115,4
29997,60107,5
29999,60112,4
29994,60100,5
29997,60099,5
29997,60089,5
29991,60101,5
29989,60089,4
29983,60088,5
29987,60084,5
29990,60086,5
29983,60078,5
29989,60082,4
29976,60070,5
29985,60061,5
29969,60064,5
29978,60061,5
29965,60052,4
29964,60048,5
29961,60049,5
29962,60050,5
29967,60041,4
29973,60044,4
29963,60037,5
29962,60028,6
29956,60025,4
29957,60029,4
29940,60020,5
29948,60008,5
29944,60002,5
29943,60010,5
29943,59997,4
29938,59985,5
29935,59978,5
29925,59973,5
29927,59958,5
29919,59957,4
29904,59936,5
29912,59929,5
29910,59923,5
29898,59923,5
29905,59916,4
29904,59930,5
29902,59913,5
29898,59909,5
29887,59883,5
29871,59863,4
29875,59867,5
29886,59899,5
29893,59902,5
29899,59927,4
29922,59941,5
29918,59954,5
29924,59977,5
29931,59988,5
29941,59987,4
29951,60017,5
29959,60038,5
29969,60056,5
29980,60065,5
29994,60087,4
29979,60090,5
30000,60110,5
30011,60111,5
29996,60109,5
30000,60102,4
30005,60114,5
30000,60102,5
29999,60101,5
30009,60107,4
30002,60101,5
29996,60071,4
29967,60020,5
29958,59987,5
29930,59943,4
29918,59940,5
29934,59970,5
29955,59989,5
29947,59975,5
29945,59967,4
29940,59954,5
29936,59944,5
29915,59914,5
29911,59875,5
29899,59860,4
29899,59867,5
29898,59859,5
29875,59839,5
29868,59799,5
29878,59805,4
29886,59831,5
29894,59856,5
29910,59873,5
29894,59828,4
29869,59768,4
29848,59747,6
29851,59741,4
29853,59774,5
29861,59760,4
29858,59784,5
29876,59775,5
29872,59792,5
29878,59796,5
29877,59785,4
29876,59777,5
29883,59776,5
29874,59768,5
29872,59772,5
29886,59775,4
29873,59772,5
29875,59751,5
29866,59734,5
29861,59731,5
29872,59747,4
29882,59783,5
29905,59782,5
29905,59801,5
29919,59806,4
29885,59737,4
29840,59633,5
29802,59565,5
29792,59532,5
29770,59529,4
29791,59549,5
29780,59540,5
29776,59501,5
29761,59481,5
29763,59498,4
29784,59527,5
29798,59584,5
29825,59631,5
29842,59667,5
29840,59646,4
29818,59593,5
29796,59536,5
29774,59482,5
29737,59415,5
29714,59388,4
29725,59381,5
29720,59388,5
29716,59387,5
29742,59405,5
29750,59441,4
29773,59494,5
29790,59524,5
29791,59545,5
29803,59535,4
29792,59523,5
29784,59515,5
29779,59489,5
29769,59470,5
29755,59431,4
29748,59440,5
29758,59454,5
29766,59493,5
29785,59521,5
29787,59524,4
29793,59519,5
29788,59520,5
29797,59525,5
29799,59525,5
29796,59535,4
29811,59549,6
29810,59572,4
29829,59592,5
29826,59597,5
29835,59609,6
29841,59629,3
29858,59633,5
29847,59636,5
29849,59624,4
29842,59601,5
29837,59610,5
29836,59605,5
29842,59606,5
29833,59606,4
29823,59590,5
29824,59579,5
29818,59571,5
29819,59577,5
29826,59585,4
29819,59589,5
29816,59580,5
29813,59562,10
29811,59563,4
29815,59566,5
29815,59561,6
29819,59580,4
29820,59591,5
29819,59599,4
29822,59595,5
29820,59575,5
29817,59575,5
29813,59563,4
29805,59565,5
29803,59561,5
29811,59575,5
29812,59571,5
29821,59583,4
29828,59589,5
29830,59619,5
29837,59631,5
29852,59656,5
29858,59680,4
29868,59705,5
29880,59743,5
29909,59767,5
29910,59796,5
29929,59835,4
29942,59858,5
29963,59881,5
29957,59890,6
29968,59901,4
29976,59918,4
29983,59908,5
29976,59911,5
29971,59917,5
29967,59913,4
29982,59933,5
29974,59933,5
29987,59941,5
29988,59951,5
29996,59962,4
29999,59972,5
30003,59981,5
30013,59992,5
30013,59988,5
30016,60007,4
30016,60013,5
30026,60021,5
30035,60028,5
30028,60035,5
30033,60047,5
30041,60042,4
30048,60045,5
30053,60065,5
30055,60083,6
30061,60096,3
30069,60107,5
30064,60112,5
30071,60104,5
30069,60106,4
30060,60095,5
30060,60098,5
30060,60111,5
30063,60113,5
30063,60121,4
30062,60108,5
30065,60115,5
30071,60117,5
30072,60130,5
30069,60142,4
30077,60147,5
30084,60154,5
30078,60150,5
30072,60160,5
30086,60157,4
30081,60163,6
30094,60161,4
30084,60173,5
30081,60168,5
30079,60160,4
30079,60155,5
30075,60163,5
30081,60175,5
30086,60168,4
30083,60170,5
30084,60175,5
30086,60174,5
30092,60182,5
30081,60184,4
30088,60179,5
30089,60189,5
30095,60191,5
30091,60194,5
30089,60193,4
30087,60184,5
30087,60188,5
30089,60191,5
30085,60190,5
30089,60186,4
30088,60179,5
30085,60174,6
30088,60179,4
30083,60179,5
30077,60171,4
30084,60167,5
30080,60161,5
30075,60163,5
30081,60168,4
30079,60171,5
30082,60168,5
30082,60176,5
30078,60166,5
30082,60169,4
30083,60170,5
30087,60183,5
30084,60189,5
30082,60186,5
30095,60188,4
30095,60208,5
30095,60198,5
30086,60197,5
30093,60199,5
30096,60201,4
30096,60200,5
30098,60208,5
30097,60196,6
30095,60193,4
30095,60202,4
30088,60202,5
30094,60199,5
30091,60192,5
30105,60192,4
30102,60199,5
30095,60193,5
30093,60185,5
30079,60180,5
30086,60191,4
30079,60178,5
30080,60166,5
30080,60175,5
30080,60165,5
30082,60171,4
30070,60166,5
30064,60154,5
30061,60156,5
30065,60144,5
30059,60129,5
30043,60113,4
30050,60098,5
30038,60104,5
30045,60083,5
30033,60061,4
30021,60052,5
30017,60042,5
30010,60031,5
30005,60037,4
30023,60043,5
30012,60058,5
30020,60062,5
30026,60068,5
30021,60074,4
30023,60083,5
30034,60089,5
30033,60097,5
30032,60079,5
30026,60071,4
30020,60068,5
30008,60052,5
30018,60041,5
30019,60042,5
30021,60051,4
30034,60073,6
30028,60076,4
30034,60077,5
30031,60090,5
30034,60082,4
30037,60084,5
30030,60082,5
30031,60075,5
30026,60069,4
30026,60077,4
30025,60062,5
30027,60063,5
30025,60068,5
30026,60062,4
30008,60047,5
30015,60044,5
29995,60022,5
29994,60003,5
29991,60002,4
29982,59983,5
29984,59978,5
29985,59972,5
29981,59973,5
29983,59975,4
29990,59984,5
29980,59980,6
29997,59995,4
29993,60012,5
