RED,IR,EKG,TIME
26712,64593,8
26710,64590,5
26707,64592,5
26711,64594,8
26697,64599,5
26716,64596,5
26716,64601,5
26713,64607,8
26718,64609,5
26720,64592,5
26726,64620,8
26726,64620,5
26725,64623,5
26739,64639,8
26738,64647,5
26730,64652,5
26736,64670,5
26741,64671,8
26754,64693,5
26752,64701,5
26753,64687,8
26755,64693,5
26753,64696,5
26759,64715,5
26759,64715,8
26762,64712,5
26766,64734,5
26759,64724,8
26761,64713,5
26769,64739,5
26787,64789,8
26784,64750,5
26766,64713,5
26768,64742,5
26741,64646,8
26741,64646,5
26731,64644,5
26729,64648,8
26740,64654,5
26729,64658,5
26729,64644,5
26740,64651,8
26736,64642,5
26732,64622,5
26722,64599,8
26721,64626,5
26733,64621,5
26744,64730,8
26744,64730,5
26770,64743,5
26780,64768,5
26779,64783,8
26780,64794,5
26783,64788,5
26770,64770,8
26752,64749,5
26769,64789,5
26792,64841,5
26820,64900,8
26837,64968,5
26861,65014,5
26913,65153,8
26913,65153,5
26944,65210,5
26973,65261,5
26979,65273,8
26945,65273,5
26963,65266,5
26949,65221,8
26918,65176,5
26901,65133,5
26873,65078,8
26854,65028,5
26841,65023,5
26836,64995,5
26774,64869,8
26774,64869,5
26733,64835,5
26720,64760,8
26712,64688,5
26689,64618,5
26656,64547,5
26639,64499,8
26610,64405,5
26558,64285,5
26515,64163,8
26470,64075,5
26424,63966,5
26299,63628,8
26299,63628,5
26266,63575,5
26255,63520,5
26222,63471,8
26211,63425,5
26202,63357,5
26169,63308,8
26153,63284,5
26155,63235,5
26111,63151,5
26058,63030,3
26013,62930,0
25983,62823,4
25946,62726,5
25909,62651,5
25879,62569,4
25848,62512,5
25821,62437,5
25805,62386,6
25768,62325,4
25758,62275,4
25738,62213,5
25705,62145,5
25679,62066,5
25653,62011,5
25627,61935,4
25593,61863,5
25565,61785,5
25530,61674,5
25499,61586,5
25463,61494,4
25449,61429,5
25431,61364,5
25407,61323,5
25394,61281,5
25374,61240,4
25363,61174,5
25346,61144,5
25326,61086,5
25304,61027,5
25290,60969,4
25271,60914,5
25251,60859,5
25227,60812,5
25218,60767,4
25194,60705,5
25182,60637,5
25152,60560,5
25126,60487,5
25110,60424,4
25079,60360,5
25058,60290,5
25044,60244,5
25028,60189,5
25021,60132,4
25003,60105,5
25002,60049,5
24988,60023,5
24973,59994,5
24958,59956,4
24953,59922,5
24946,59875,5
24932,59833,5
24921,59785,5
24907,59751,5
24894,59723,4
24888,59684,5
24872,59635,5
24854,59627,5
24860,59611,4
24854,59593,5
24852,59572,5
24849,59551,5
24833,59502,4
24827,59468,4
24820,59448,5
24808,59422,5
24813,59403,5
24805,59390,4
24802,59372,5
24801,59358,5
24799,59338,5
24791,59333,5
24790,59320,4
24797,59323,5
24799,59306,5
24791,59315,5
24792,59314,5
24798,59312,4
24804,59331,6
24815,59351,4
24815,59371,5
24819,59351,5
24818,59330,4
24811,59321,5
24810,59329,5
24818,59331,5
24815,59325,5
24817,59328,4
24824,59332,5
24829,59325,5
24827,59335,5
24825,59346,4
24834,59335,4
24824,59340,5
24824,59338,5
24816,59336,5
24830,59338,4
24821,59336,5
24827,59328,5
24835,59336,5
24829,59328,5
24838,59342,4
24845,59351,5
24846,59372,6
24857,59374,4
24855,59385,5
24859,59384,4
24855,59370,5
24854,59361,5
24845,59365,5
24855,59357,5
24852,59359,4
24858,59357,5
24865,59368,5
24854,59369,5
24860,59370,5
24864,59375,4
24865,59385,5
24871,59390,5
24872,59389,5
24877,59390,4
24866,59374,4
24867,59377,5
24863,59358,5
24857,59364,5
24860,59365,4
24876,59368,5
24871,59393,5
24880,59402,5
24884,59422,5
24889,59432,4
24898,59444,5
24899,59458,5
24902,59460,8
24906,59479,2
24904,59474,4
24929,59480,5
24920,59482,5
24919,59499,5
24918,59504,5
24924,59506,4
24927,59511,5
24930,59515,5
24927,59524,5
24936,59525,5
24934,59541,4
24940,59551,5
24941,59556,5
24947,59562,5
24946,59567,5
24951,59566,3
24958,59568,5
24952,59565,5
24952,59571,5
24958,59585,4
24964,59596,5
24963,59608,5
24963,59609,5
24967,59612,5
24969,59614,4
24976,59623,5
24974,59630,5
24976,59640,5
24975,59640,5
24987,59646,4
24982,59652,5
24995,59669,5
24988,59680,5
25003,59690,5
24999,59707,4
25003,59715,6
25018,59719,4
25019,59734,5
25019,59732,5
25014,59738,6
25023,59756,3
25035,59785,5
25039,59793,5
25044,59811,5
25053,59820,4
25053,59825,5
25057,59833,5
25059,59839,5
25070,59847,4
25064,59853,5
25072,59854,5
25072,59867,5
25074,59884,5
25086,59909,4
25090,59909,5
25092,59924,5
25092,59930,5
25088,59933,5
25106,59941,4
25099,59941,5
25104,59952,6
25100,59955,4
25105,59959,5
25103,59967,4
25113,59979,5
25112,59979,5
25112,59988,5
25120,60015,5
25121,60014,4
25123,60030,5
25134,60036,5
25119,60044,5
25133,60046,5
25134,60049,4
25128,60044,5
25134,60035,5
25125,60031,5
25124,60040,4
25135,60050,5
25133,60065,5
25128,60064,5
25137,60087,5
25141,60090,4
25147,60085,5
25150,60097,5
25149,60115,6
25162,60120,4
25160,60136,4
25169,60149,5
25171,60159,5
25170,60169,5
25171,60186,5
25181,60195,4
25184,60200,5
25191,60203,5
25196,60228,5
25197,60248,5
25208,60250,4
25204,60250,5
25202,60251,5
25195,60246,5
25197,60236,5
25202,60244,4
25204,60241,5
25200,60243,5
25193,60234,5
25195,60244,5
25205,60229,4
25200,60227,5
25194,60235,5
25190,60230,6
25192,60224,3
25203,60223,5
25192,60223,5
25199,60235,5
25189,60241,5
25200,60241,4
25201,60249,5
25195,60244,5
25208,60250,5
25198,60247,5
25207,60248,4
25203,60250,5
25204,60252,5
25191,60250,5
25194,60243,5
25195,60254,4
25198,60254,5
25199,60249,5
25203,60257,5
25206,60256,5
25196,60252,5
25206,60254,4
25203,60247,5
25204,60251,5
25198,60245,6
25193,60245,3
25192,60238,5
25194,60234,5
25193,60218,5
25195,60219,4
25191,60220,5
25194,60224,5
25190,60214,5
25185,60211,5
25186,60215,4
25185,60208,5
25190,60205,5
25181,60203,5
25183,60201,5
25191,60195,4
25178,60194,5
25176,60193,5
25177,60186,5
25181,60182,5
25178,60173,4
25161,60161,6
25172,60162,4
25178,60165,5
25176,60165,5
25171,60157,4
25162,60157,5
25169,60148,5
25175,60160,5
25169,60159,4
25162,60151,5
25169,60146,5
25157,60128,5
25156,60128,5
25162,60126,4
25163,60119,5
25151,60109,5
25153,60097,5
25147,60095,5
25148,60082,4
25134,60076,5
25137,60061,5
25138,60060,5
25139,60055,5
25138,60057,4
25142,60071,5
25143,60064,6
25134,60051,4
25124,60030,5
25129,60024,4
25120,60007,5
25111,59999,5
25110,59988,5
25112,59975,5
25107,59965,4
25101,59962,5
25104,59950,5
25094,59929,5
25086,59923,4
25085,59920,4
25083,59908,5
25079,59894,5
25072,59892,5
25079,59895,4
25067,59881,5
25071,59871,5
25061,59858,5
25065,59842,5
25056,59822,4
25051,59817,5
25039,59801,5
25045,59799,6
25041,59787,4
25040,59780,4
25038,59774,5
25031,59749,5
25024,59728,5
25021,59709,5
25012,59684,4
25003,59663,5
24993,59642,5
24991,59632,5
24983,59623,5
24978,59604,4
24964,59601,5
24965,59592,5
24965,59577,5
24963,59559,4
24955,59533,4
24941,59510,5
24941,59498,5
24927,59466,5
24925,59436,5
24902,59389,4
24882,59320,5
24876,59274,5
24853,59233,6
24838,59209,3
24838,59189,5
24817,59122,5
24792,59063,5
24774,59010,5
24762,58980,4
24751,58931,5
24742,58903,5
24731,58902,5
24731,58894,5
24738,58914,4
24746,58910,5
24743,58914,5
24745,58925,5
24754,58931,5
24756,58957,4
24761,58985,5
24781,59021,5
24791,59060,5
24802,59085,5
24808,59105,5
24823,59138,4
24834,59159,5
24843,59201,5
24860,59231,4
24858,59263,5
24877,59305,5
24897,59326,5
24889,59344,5
24900,59337,4
24904,59363,5
24908,59377,5
24914,59394,5
24924,59428,5
24929,59423,4
24915,59400,5
24917,59388,5
24912,59374,5
24911,59379,5
24912,59384,4
24918,59400,5
24925,59421,5
24937,59464,5
24950,59520,5
24972,59565,4
24978,59598,6
24990,59609,4
24987,59577,5
24968,59565,5
24969,59551,4
24967,59554,5
24974,59556,5
24971,59567,5
24977,59559,4
24972,59558,4
24967,59554,5
24980,59584,5
24985,59603,5
24996,59628,4
25007,59649,5
25017,59696,5
25034,59739,5
25035,59752,5
25049,59755,4
25047,59762,5
25054,59789,5
25065,59810,5
25065,59819,5
25070,59832,4
25066,59828,5
25065,59798,6
25054,59797,4
25064,59800,5
25064,59820,4
25082,59853,5
25097,59904,5
25106,59942,5
25116,59936,5
25116,59965,4
25123,59973,5
25130,59976,5
25128,59973,5
25117,59961,4
25118,59983,4
25120,59987,5
25133,60018,5
25155,60041,5
25155,60068,4
25172,60095,5
25172,60091,5
25176,60072,5
25158,60026,5
25145,60007,4
25146,59990,5
25151,60009,5
25150,60024,5
25167,60035,5
25173,60007,4
25162,59992,5
25163,59984,5
25172,59988,5
25176,60006,5
25168,59989,4
25175,59981,5
25185,59969,5
25171,59927,5
25183,59934,5
25192,59946,4
25195,59935,5
25192,59934,5
25228,59956,5
25236,59978,4
25257,60002,4
25286,60042,5
25310,60087,5
25344,60148,5
25352,60165,5
25378,60172,4
25394,60229,5
25411,60260,5
25423,60268,5
25445,60290,4
25470,60335,5
25483,60337,5
25498,60350,5
25514,60375,5
25523,60387,4
25524,60390,5
25522,60396,5
25539,60434,5
25549,60432,5
25561,60466,4
25587,60487,5
25587,60503,5
25606,60540,5
25611,60570,5
25633,60608,4
25647,60605,5
25651,60625,5
25657,60637,5
25671,60652,4
25679,60651,5
25669,60642,4
25677,60655,5
25690,60668,5
25680,60673,4
25681,60669,5
25680,60678,5
25688,60660,5
25677,60640,5
25655,60604,4
25654,60583,5
25648,60566,5
25643,60562,5
25637,60557,5
25647,60561,4
25645,60559,5
25627,60542,5
25619,60518,5
25614,60492,5
25610,60479,4
25593,60443,5
25595,60445,5
25584,60428,5
25575,60389,5
25560,60366,4
25560,60343,6
25539,60309,4
25527,60290,5
25529,60263,4
25519,60248,4
25513,60229,5
25505,60220,5
25506,60204,5
25492,60187,4
25501,60193,5
25487,60186,5
25488,60179,5
25490,60170,5
25489,60154,4
25474,60144,5
25473,60124,5
25473,60112,5
25464,60100,5
25456,60090,5
25464,60079,4
25458,60076,5
25454,60074,6
25470,60071,4
25452,60068,4
25466,60070,5
25456,60062,5
25460,60069,5
25454,60074,5
25463,60078,4
25460,60088,5
25469,60082,5
25463,60077,5
25459,60082,5
25464,60085,4
25465,60089,5
25459,60093,5
25478,60099,5
25476,60110,4
25484,60128,5
25490,60141,5
25488,60160,5
25488,60171,5
25494,60180,5
25505,60200,4
25511,60200,5
25510,60216,5
25507,60201,6
25498,60214,3
25510,60213,5
25515,60223,5
25515,60233,5
25517,60248,5
25519,60254,4
25528,60268,5
25533,60283,5
25539,60293,5
25538,60315,5
25539,60335,4
25561,60358,5
25563,60379,5
25573,60405,5
25576,60435,5
25590,60472,4
25598,60487,5
25617,60511,5
25624,60535,5
25635,60564,4
25630,60577,6
25642,60601,4
25655,60625,5
25655,60643,5
25660,60668,6
25664,60680,3
25679,60694,5
25691,60717,5
25699,60746,5
25703,60763,4
25702,60774,5
25714,60792,5
25717,60806,5
25728,60820,5
25736,60842,4
25741,60846,5
25744,60860,5
25741,60871,5
25745,60886,5
25750,60902,4
25760,60910,5
25763,60923,5
25766,60942,5
25780,60960,5
25784,60972,4
25782,60980,6
25788,60993,4
25793,60994,5
25797,61010,4
25793,61017,7
25798,61018,3
25806,61032,5
25802,61028,5
25809,61031,4
25808,61038,5
25803,61040,5
25812,61051,5
25815,61061,5
25812,61064,4
25818,61068,5
25819,61078,5
25818,61079,5
25833,61094,5
25821,61098,4
25826,61100,5
25827,61101,5
25836,61105,5
25831,61102,5
25827,61105,4
25835,61114,5
25829,61115,6
25839,61117,4
25833,61122,5
25830,61123,4
25833,61118,5
25841,61113,5
25833,61116,5
25834,61121,4
25838,61118,5
25835,61130,5
25839,61133,5
25848,61142,5
25846,61137,4
25840,61151,5
25858,61146,5
25846,61151,5
25845,61146,5
25842,61144,4
25845,61137,5
25846,61140,5
25845,61129,5
25850,61138,5
25841,61123,4
25851,61133,5
25837,61124,5
25843,61123,6
25838,61123,4
25841,61111,4
25840,61117,5
25840,61122,5
25837,61127,5
25847,61133,5
25852,61136,4
25849,61147,5
25852,61155,5
25844,61170,5
25858,61173,4
25863,61186,4
25859,61192,5
25866,61195,5
25867,61209,5
25877,61228,4
25887,61238,5
25886,61254,5
25891,61270,5
25896,61278,5
25884,61278,5
25884,61271,4
25892,61274,5
25890,61279,5
25899,61284,6
25891,61275,3
25894,61274,5
25886,61273,5
25893,61272,5
25887,61263,5
25879,61268,4
25893,61273,5
25882,61272,5
25892,61273,5
25887,61292,5
25899,61298,4
25896,61323,5
25904,61343,5
25921,61361,5
25930,61392,4
25932,61414,4
25943,61418,5
25932,61416,5
25937,61417,5
25935,61423,4
25934,61433,6
25943,61435,4
25950,61455,5
25945,61466,5
25946,61474,4
25959,61483,5
25965,61490,5
25961,61510,5
25973,61533,5
25972,61564,4
25983,61591,5
25993,61623,5
26001,61643,5
26020,61669,5
26020,61686,4
26026,61702,5
26031,61701,5
26029,61714,5
26038,61716,5
26043,61733,4
26044,61754,5
26054,61771,5
26053,61809,5
26070,61847,4
26081,61879,4
26092,61918,6
26112,61979,4
26132,62028,5
26153,62083,4
26164,62124,5
26182,62161,5
26195,62203,5
26201,62211,5
26207,62223,4
26210,62228,5
26214,62245,5
26228,62281,5
26232,62343,5
26261,62378,4
26268,62438,5
26293,62473,5
26305,62527,5
26312,62553,5
26329,62592,4
26337,62620,5
26354,62658,5
26362,62679,5
26372,62710,5
26387,62755,4
26408,62810,5
26421,62855,6
26437,62912,4
26465,62997,4
26505,63084,4
26542,63190,5
26569,63262,5
26588,63303,5
26582,63325,4
26587,63366,5
26599,63415,5
26641,63528,5
26657,63571,5
26698,63675,4
26724,63741,5
26751,63800,5
26767,63839,5
26772,63882,5
26805,63944,4
26824,63989,5
26859,64094,5
26933,64284,5
27014,64459,5
27073,64600,4
27115,64691,5
27143,64749,5
27170,64824,6
27196,64899,4
27206,64943,4
27229,64995,5
27245,65073,5
27298,65237,5
27352,65376,4
27399,65513,4
27455,65668,5
27493,65803,5
27554,65948,5
27599,66080,4
27683,66248,5
27737,66417,5
27801,66566,5
27865,66692,5
27912,66818,4
27953,66927,5
28011,67051,5
28046,67148,5
28087,67253,5
28127,67359,5
28160,67461,4
28210,67576,5
28270,67745,5
28330,67888,5
28375,67994,4
28416,68109,5
28452,68228,5
28488,68307,5
28525,68417,5
28564,68537,4
28598,68626,5
28629,68722,5
28653,68792,5
28660,68828,4
28698,68868,4
28708,68911,5
28759,69045,5
28800,69161,5
28823,69213,4
28838,69264,5
28850,69309,5
28864,69348,5
28893,69411,5
28921,69510,4
28942,69554,6
28942,69538,4
28935,69496,5
28884,69395,5
28847,69330,4
28818,69248,5
28800,69195,5
28776,69135,5
28754,69101,5
28751,69083,4
28747,69080,5
28743,69070,5
28748,69071,5
28748,69096,5
28758,69088,4
28741,69074,5
28742,69058,5
28750,69062,5
28754,69055,5
28728,69019,4
28703,68967,5
28693,68930,5
28677,68886,5
28668,68846,4
28641,68815,5
28633,68773,6
28629,68758,4
28622,68760,5
28630,68750,4
28625,68739,5
28619,68761,5
28642,68788,5
28633,68786,5
28641,68780,4
28640,68786,5
28628,68777,5
28621,68772,5
28617,68771,5
28637,68786,4
28630,68775,5
28615,68750,5
28613,68770,5
28615,68757,5
28620,68754,4
28631,68794,5
28646,68860,5
28667,68906,5
28697,68974,4
28725,69060,4
28731,69086,5
28742,69113,5
28761,69144,5
28758,69168,4
28782,69231,5
28810,69273,5
28810,69295,5
28828,69344,5
28864,69443,4
28898,69524,5
28936,69588,5
28937,69631,5
28957,69678,5
28983,69747,4
29010,69804,5
29017,69837,5
29021,69881,5
29019,69897,5
29026,69901,4
29010,69868,5
29004,69852,5
29005,69888,5
29039,69964,5
29063,70042,4
29093,70121,5
29116,70202,5
29136,70232,5
29146,70265,5
29164,70279,4
29167,70309,5
29168,70309,5
29189,70362,5
29199,70409,4
29218,70454,5
29238,70488,5
29244,70517,5
29271,70590,5
29309,70690,4
29340,70738,5
29350,70787,5
29377,70855,5
29396,70927,5
29424,71028,4
29453,71068,5
29449,71094,5
29455,71117,5
29459,71137,5
29448,71128,5
29459,71159,4
29468,71190,5
29477,71227,5
29493,71264,5
29508,71317,4
29518,71376,5
29540,71407,5
29546,71428,5
29525,71404,5
29518,71367,4
29497,71333,5
29481,71294,5
29479,71319,5
29493,71380,4
29509,71406,5
29521,71414,5
29514,71426,5
29507,71429,5
29515,71426,4
29515,71439,5
29517,71449,6
29539,71477,4
29543,71497,5
29539,71525,4
29549,71549,7
29550,71566,3
29553,71580,5
29560,71575,5
29560,71582,4
29561,71582,8
29547,71566,2
29545,71528,5
29534,71502,5
29523,71490,4
29517,71479,5
29518,71469,5
29502,71459,5
29503,71443,5
29494,71407,4
29483,71386,5
29462,71356,5
29462,71334,5
29447,71319,4
29447,71305,4
29441,71285,5
29421,71277,6
29416,71262,4
29417,71244,4
29411,71229,5
29401,71214,5
29392,71209,5
29377,71187,5
29383,71200,4
29393,71213,5
29395,71219,5
29406,71228,5
29401,71245,5
29413,71253,4
29413,71268,5
29418,71272,5
29409,71251,5
29404,71237,5
29396,71221,4
29395,71210,5
29393,71203,5
29378,71197,5
29375,71179,5
29359,71170,4
29368,71156,5
29354,71133,5
29352,71120,6
29334,71097,3
29327,71105,4
29332,71104,5
29334,71104,5
29320,71058,5
29310,71038,4
29301,71022,5
29298,71014,5
29297,71014,5
29294,71010,5
29289,71028,4
29297,71037,5
29303,71035,5
29304,71032,5
29300,71033,5
29300,71029,4
29311,71032,5
29298,71014,5
29280,71002,5
29271,70978,5
29248,70945,5
29247,70905,4
29219,70880,5
29213,70842,5
29198,70811,6
29191,70786,3
29171,70753,5
29154,70721,5
29138,70683,5
29123,70627,4
29108,70604,4
29096,70562,5
29072,70535,5
29066,70512,5
29047,70470,4
29036,70438,5
29017,70408,5
29013,70359,5
29003,70347,5
28989,70312,4
28974,70269,5
28964,70241,5
28955,70220,5
28940,70174,5
28916,70144,4
28911,70105,6
28906,70074,4
28873,70027,5
28859,69982,5
28840,69941,4
28820,69899,5
28811,69863,5
28803,69836,5
28794,69800,5
28781,69763,4
28761,69731,5
28758,69701,5
28740,69654,5
28720,69618,5
28714,69597,4
28698,69549,5
28678,69503,5
28654,69467,5
28650,69415,4
28625,69375,5
28603,69321,5
28592,69283,5
28580,69240,5
28563,69206,4
28551,69164,5
28535,69118,6
28516,69095,4
28503,69055,5
28485,69010,4
28465,68967,5
28455,68949,5
28454,68937,5
28449,68913,5
28430,68872,4
28420,68830,5
28402,68804,5
28398,68771,5
28388,68758,5
28382,68745,4
28384,68740,5
28372,68726,5
28374,68728,5
28371,68743,5
28381,68745,4
28382,68756,5
28377,68756,5
28380,68771,5
28398,68763,4
28393,68777,5
28395,68776,5
28391,68781,6
28384,68777,4
28395,68782,4
28402,68790,5
28406,68801,5
28405,68816,5
28418,68840,5
28425,68862,4
28433,68884,5
28438,68919,5
28460,68958,5
28479,68992,5
28489,69030,4
28502,69064,5
28512,69079,5
28510,69099,5
28521,69124,5
28541,69149,4
28548,69185,5
28558,69217,5
28572,69250,5
28585,69281,5
28594,69306,4
28604,69324,5
28622,69354,5
28629,69386,6
28639,69430,3
28655,69466,4
28680,69511,5
28689,69544,5
28702,69567,5
28724,69590,4
28719,69617,5
28726,69635,5
28739,69671,5
28747,69688,5
28754,69712,4
28771,69736,5
28774,69773,5
28791,69798,5
28802,69819,5
28817,69854,4
28824,69885,5
28836,69917,5
28859,69957,5
28874,69980,5
28893,70026,5
28901,70058,4
28908,70095,5
28924,70117,5
28925,70143,5
28936,70156,4
28952,70195,5
28972,70240,5
28991,70271,5
28990,70287,4
28999,70309,4
28998,70312,5
29005,70333,5
29018,70338,5
29018,70362,4
29031,70374,5
29034,70403,5
29054,70429,5
29060,70481,5
29084,70518,4
29106,70573,5
29121,70623,5
29140,70673,5
29165,70719,5
29181,70766,4
29200,70814,6
29214,70838,4
29228,70876,5
29239,70907,5
29257,70951,4
29282,71005,5
29302,71061,5
29321,71100,5
29333,71135,5
29360,71186,4
29376,71234,5
29399,71274,5
29400,71308,5
29423,71337,4
29427,71357,4
29423,71385,5
29443,71400,5
29453,71418,5
29463,71446,4
29472,71478,5
29483,71499,5
29488,71527,5
29506,71540,5
29518,71578,4
29527,71606,5
29540,71659,6
29556,71689,4
29577,71729,5
29579,71764,4
29594,71796,5
29605,71829,5
29621,71858,5
29628,71889,5
29638,71917,4
29650,71944,5
29656,71968,5
29675,72003,5
29682,72017,5
29697,72055,4
29708,72085,5
29718,72118,5
29727,72126,5
29736,72155,5
29753,72201,4
29771,72237,5
29782,72274,5
29803,72300,5
29813,72318,4
29815,72332,5
29817,72348,5
29826,72354,6
29830,72366,4
29826,72370,4
29833,72385,5
29836,72399,5
29864,72442,5
29876,72477,5
29885,72488,4
29892,72507,5
29900,72515,5
29905,72539,5
29911,72562,5
29923,72597,4
29939,72637,5
29954,72675,5
29985,72727,5
29991,72777,5
30022,72824,4
30029,72886,5
30063,72950,5
30072,72987,5
30098,73008,5
30101,73026,4
30098,73024,5
30083,73014,5
30079,73001,5
30085,73008,4
30096,73023,5
30113,73060,5
30125,73093,5
30141,73114,5
30146,73145,4
30145,73132,5
30132,73109,5
30122,73074,5
30106,73029,5
30084,72973,4
30045,72899,5
30010,72820,5
29986,72743,5
29955,72680,5
29927,72612,4
29895,72543,5
29867,72468,5
29845,72415,5
29830,72365,5
29815,72329,5
29809,72302,4
29804,72290,5
29780,72253,5
29770,72218,5
29765,72177,4
29744,72153,5
29739,72135,5
29739,72142,5
29744,72170,4
29751,72190,5
29770,72241,5
29782,72273,5
29807,72332,5
29825,72369,4
29841,72409,5
29856,72458,5
29868,72504,5
29897,72560,5
29917,72606,4
29940,72660,5
29957,72720,5
29985,72785,5
30007,72853,5
30047,72942,4
30077,73021,6
30109,73084,4
30132,73152,5
30154,73212,5
30163,73251,4
30202,73325,5
30229,73402,5
30253,73470,5
30284,73543,5
30295,73596,4
30324,73649,5
30338,73715,5
30363,73767,5
30383,73823,4
30396,73872,5
30417,73940,5
30451,74017,5
30480,74098,5
30521,74178,4
30553,74258,5
30567,74296,5
30588,74340,5
30590,74361,5
30598,74393,4
30617,74429,5
30634,74484,5
30647,74547,5
30687,74583,5
30700,74644,4
30721,74689,5
30729,74712,5
30742,74758,5
30744,74761,5
30734,74752,4
30732,74727,5
30729,74704,5
30713,74664,5
30697,74628,5
30679,74605,4
30677,74594,5
30687,74604,5
30685,74600,5
30682,74591,4
30668,74586,4
30674,74569,5
30652,74525,5
30630,74469,5
30604,74408,3
30574,74333,5
30539,74253,5
30508,74175,5
30475,74115,5
30443,74063,4
30425,74018,5
30408,73975,5
30392,73937,5
30381,73885,5
30349,73840,4
30333,73798,5
30307,73755,5
30304,73718,5
30283,73682,5
30261,73658,4
30251,73633,5
30258,73600,5
30238,73583,5
30226,73552,5
30214,73521,5
30201,73500,4
30193,73472,5
30178,73438,5
30159,73402,6
30151,73384,3
30144,73361,5
30125,73329,5
30111,73290,5
30087,73234,4
30072,73180,5
30061,73148,5
30037,73100,5
30011,73048,5
29990,73002,4
29968,72936,5
29940,72875,5
29913,72820,5
29906,72780,5
29882,72737,4
29866,72687,5
29847,72643,5
29819,72581,6
29807,72541,4
29787,72496,4
29777,72457,6
29759,72415,4
29735,72379,5
29725,72334,5
29696,72292,6
29683,72234,3
29669,72199,5
29663,72167,5
29645,72147,4
29630,72119,4
29618,72077,5
29607,72053,5
29594,72018,5
29583,71978,4
29574,71944,5
29539,71902,5
29531,71847,5
29505,71800,5
29489,71740,4
29466,71692,5
29453,71637,5
29429,71612,5
29417,71587,5
29413,71548,4
29394,71501,5
29376,71458,6
29357,71421,4
29349,71378,5
29327,71342,4
29312,71295,5
29296,71260,5
29275,71220,5
29264,71184,5
29254,71148,4
29236,71115,5
29221,71081,5
29202,71041,5
29196,71013,4
29186,70972,4
29162,70947,5
29163,70915,5
29145,70885,5
29133,70845,4
29107,70818,5
29102,70790,5
29086,70765,5
29078,70733,5
29071,70710,4
29060,70682,5
29056,70659,5
29041,70632,6
29037,70603,4
29028,70580,4
29011,70540,5
28993,70511,5
28989,70483,5
28970,70469,5
28970,70443,4
28951,70422,5
28946,70401,5
28937,70373,5
28920,70355,5
28913,70339,4
28911,70316,5
28906,70311,5
28912,70316,5
28905,70292,4
28890,70269,4
28884,70248,5
28879,70228,5
28880,70240,5
28877,70235,5
28869,70225,4
28877,70197,5
28860,70203,5
28865,70192,6
28851,70192,3
28846,70182,5
28846,70159,5
28830,70149,5
28827,70119,5
28818,70104,4
28814,70094,5
28813,70093,5
28802,70088,5
28803,70069,5
28801,70057,4
28788,70057,5
28786,70026,5
28779,70016,5
28775,70008,5
28764,69973,4
28754,69956,5
28751,69954,5
28742,69938,5
28742,69917,4
28747,69916,5
28724,69897,4
28717,69877,5
28720,69882,5
28723,69873,6
28713,69850,3
28698,69837,5
28697,69814,5
28684,69804,5
28681,69788,4
28674,69764,5
28666,69743,5
28663,69736,5
28647,69715,5
28636,69691,4
28632,69683,5
28625,69672,5
28628,69653,5
28613,69633,5
28611,69621,4
28605,69621,5
28595,69603,5
28593,69599,5
28584,69585,5
28590,69574,4
28587,69572,6
28580,69555,4
28580,69549,5
28567,69525,4
28559,69522,4
28548,69504,5
28545,69479,5
28545,69471,5
28535,69444,4
28522,69438,5
28512,69403,5
28509,69381,5
28491,69360,5
28485,69342,4
28481,69324,5
28476,69318,5
28470,69305,5
28467,69282,5
28464,69278,4
28455,69265,5
28454,69261,5
28455,69248,5
28447,69232,5
28443,69218,4
28425,69194,5
28431,69192,6
28428,69193,4
28425,69195,5
28431,69205,4
28432,69196,5
28440,69212,5
28438,69208,5
28436,69224,4
28438,69229,4
28452,69234,5
28451,69253,5
28459,69272,5
28470,69293,4
28479,69303,5
28489,69325,5
28489,69336,5
28495,69350,5
28505,69359,4
28512,69385,5
28512,69392,5
28518,69394,5
28522,69403,5
28526,69416,4
28526,69420,5
28524,69426,5
28537,69438,6
28542,69449,4
28538,69458,4
28553,69480,5
28559,69489,5
28561,69507,5
28570,69520,5
28575,69540,4
28583,69564,5
28588,69588,5
28593,69593,5
28607,69597,5
28615,69618,4
28616,69641,5
28633,69670,5
28629,69684,5
28644,69700,4
28653,69724,5
28653,69734,5
28658,69751,5
28659,69737,5
28664,69738,5
28667,69743,4
28652,69746,5
28651,69735,5
28651,69731,5
28652,69729,4
28654,69735,5
28649,69743,5
28657,69738,5
28662,69748,5
28667,69756,4
28666,69783,5
28681,69800,5
28689,69826,5
28689,69839,5
28697,69852,4
28705,69860,5
28708,69870,5
28708,69880,5
28709,69886,5
28712,69887,4
28711,69900,5
28723,69921,5
28729,69930,5
28727,69958,4
28747,69968,6
28760,69995,4
28772,70041,5
28786,70083,5
28798,70107,4
28807,70128,5
28808,70124,5
28816,70136,5
28825,70175,5
28847,70211,4
28860,70228,5
28866,70252,5
28875,70268,5
28889,70294,5
28896,70318,4
28909,70353,5
28921,70377,5
28936,70405,5
28947,70439,5
28962,70472,4
28975,70489,5
28992,70516,5
28999,70539,5
29003,70557,5
29006,70580,4
29015,70586,6
29011,70596,4
29017,70599,5
29015,70599,4
29028,70594,5
29024,70610,5
29031,70624,5
29028,70633,5
29036,70653,4
29045,70687,5
29064,70701,5
29067,70729,5
29085,70768,5
29088,70810,4
29110,70859,5
29123,70918,5
29144,70978,5
29178,71030,5
29199,71102,4
29227,71165,5
29251,71226,5
29285,71282,5
29301,71337,5
29325,71396,4
29348,71451,5
29368,71505,6
29397,71573,4
29421,71631,5
29437,71701,4
29465,71758,5
29498,71832,5
29523,71890,5
29543,71941,4
29559,71993,4
29581,72028,5
29588,72066,5
29608,72104,5
29621,72139,4
29651,72167,5
29661,72218,5
29672,72253,5
29692,72306,5
29717,72357,4
29730,72394,5
29739,72416,5
29751,72428,5
29750,72439,5
29751,72453,4
29753,72460,5
29769,72471,5
29771,72495,5
29781,72528,5
29799,72569,4
29819,72593,5
29827,72627,5
29841,72646,5
29847,72662,5
29860,72669,4
29849,72670,5
29849,72677,5
29858,72679,5
29854,72682,4
29869,72694,4
29872,72705,5
29864,72714,5
29872,72718,5
29873,72725,4
29877,72732,5
29878,72725,5
29868,72719,5
29860,72698,5
29861,72688,5
29856,72669,4
29845,72669,5
29857,72672,5
29851,72676,5
29856,72673,4
29866,72678,5
29853,72670,5
29846,72655,5
29842,72633,5
29840,72611,4
29829,72598,5
29822,72582,5
29820,72557,5
29814,72537,5
29801,72510,4
29780,72480,5
29775,72445,5
29764,72420,5
29753,72401,4
29751,72381,4
29741,72369,5
29731,72359,5
29728,72348,5
29723,72326,4
29705,72301,6
29723,72304,4
29706,72288,5
29711,72284,5
29701,72273,4
29701,72250,5
29683,72210,5
29669,72172,5
29649,72111,5
29620,72039,4
29590,71973,5
29580,71941,5
29551,71880,5
29529,71817,5
29498,71767,4
29483,71730,5
29477,71707,5
29454,71663,5
29441,71613,5
29426,71572,4
29406,71537,5
29388,71516,6
29385,71489,4
29365,71466,5
29360,71435,4
29339,71385,5
29318,71329,5
29303,71282,5
29278,71232,4
29259,71199,5
29228,71133,5
29218,71086,5
29210,71069,5
29189,71039,4
29169,71010,5
29162,70998,5
29153,70964,5
29138,70951,5
29133,70937,4
29130,70919,5
29118,70907,5
29117,70913,5
29112,70910,5
29121,70909,4
29128,70948,5
29142,70975,5
29150,71003,6
29177,71025,4
29186,71051,4
29186,71065,5
29170,71059,5
29179,71063,5
29185,71097,5
29207,71123,4
29222,71148,5
29224,71154,5
29210,71127,5
29200,71113,4
29206,71110,5
29204,71127,5
29212,71142,5
29227,71166,5
29234,71180,4
29240,71195,5
29250,71201,5
29257,71228,5
29261,71253,5
29278,71293,5
29300,71323,4
29298,71329,5
29299,71321,5
29305,71327,6
29313,71347,3
29327,71393,5
29354,71452,5
29371,71481,5
29375,71495,7
29380,71508,2
29370,71521,5
29378,71531,5
29377,71510,5
29358,71474,5
29347,71407,4
29318,71372,5
29314,71378,5
29338,71402,5
29340,71438,4
29354,71426,5
29339,71383,5
29318,71335,5
29302,71285,5
29280,71260,4
29284,71277,6
29302,71322,4
29327,71366,5
29351,71414,5
29351,71413,6
29355,71419,3
29353,71423,5
29366,71450,5
29374,71483,5
29399,71517,4
29407,71562,5
29451,71655,5
29488,71731,5
29493,71735,5
29471,71671,4
29440,71613,5
29408,71540,5
29405,71498,5
29398,71505,5
29420,71566,4
29434,71583,5
29425,71546,5
29374,71444,5
29334,71346,4
29297,71265,5
29269,71197,6
29256,71188,4
29275,71229,5
29301,71295,4
29321,71316,5
29315,71292,5
29300,71252,5
29293,71271,5
29317,71302,4
29330,71349,5
29376,71474,5
29435,71618,5
29494,71736,5
29528,71811,4
29538,71831,5
29540,71855,5
29563,71904,5
29572,71913,5
29562,71930,4
29588,71991,5
29610,72044,5
29657,72135,5
29686,72210,5
29715,72260,4
29723,72309,5
29758,72337,6
29746,72360,4
29741,72330,4
29718,72313,5
29722,72305,5
29728,72322,5
29726,72320,5
29745,72356,4
29770,72420,5
29789,72464,5
29802,72486,5
29797,72474,5
29784,72444,4
29771,72446,5
29778,72449,5
29792,72474,5
29808,72540,5
29836,72596,4
29838,72612,5
29865,72666,5
29899,72774,5
29960,72911,5
29985,72931,4
29987,72948,5
29983,72965,5
30020,73059,6
30052,73167,3
30093,73255,4
30129,73326,5
30136,73370,5
30152,73397,5
30156,73434,4
30163,73454,5
30172,73478,5
30173,73501,5
30169,73500,5
30185,73527,4
30191,73564,5
30216,73634,5
30248,73717,5
30290,73781,5
30306,73842,4
30367,73958,5
30396,74039,5
30424,74093,5
30413,74072,5
30393,74014,5
30346,73922,4
30336,73916,5
30324,73878,5
30271,73756,6
30198,73596,3
30123,73425,5
30087,73350,5
30041,73259,5
30003,73166,4
29963,73090,4
29941,73027,5
29892,72930,5
29870,72887,5
29873,72891,4
29893,72946,5
29924,73002,5
29938,73017,5
29935,72994,5
29933,73024,4
29952,73080,5
29969,73118,5
29982,73144,5
29991,73140,5
29968,73115,4
29962,73094,6
29983,73135,4
29995,73185,5
30010,73214,5
30019,73226,4
30002,73180,5
29984,73142,5
29991,73154,5
29993,73161,5
30001,73165,4
29993,73163,5
29988,73137,5
29968,73091,5
29971,73110,4
29976,73127,4
29982,73134,5
29986,73148,5
29995,73172,5
30017,73201,4
30022,73238,5
30043,73302,5
30084,73375,5
30114,73436,5
30127,73470,4
30138,73498,5
30135,73492,6
30147,73509,4
30162,73561,5
30199,73630,4
30238,73708,5
30262,73758,5
30292,73789,5
30294,73808,5
30316,73845,4
30365,73928,5
30378,73961,5
30387,73967,5
30391,73960,5
30365,73910,4
30348,73856,5
30334,73816,5
30321,73768,5
30300,73747,5
30310,73777,4
30333,73822,5
30364,73850,5
30346,73822,5
30333,73800,4
30320,73752,5
30291,73696,5
30267,73633,6
30225,73526,4
30179,73438,4
30153,73350,5
30110,73261,5
30064,73162,5
30006,73049,5
29965,72939,4
29920,72834,5
29881,72747,5
29836,72662,5
29811,72581,5
29767,72508,4
29734,72411,5
29702,72338,5
29660,72280,5
29642,72233,5
29622,72164,4
29592,72089,5
29549,72001,5
29527,71948,5
29488,71889,5
29479,71831,4
29451,71773,5
29424,71716,5
29415,71696,5
29405,71676,4
29410,71674,5
29407,71667,5
29391,71669,5
29397,71660,5
29391,71637,4
29373,71603,5
29355,71577,5
29331,71521,5
29322,71492,5
29318,71499,4
29313,71478,5
29309,71507,5
29321,71509,5
29320,71501,5
29321,71520,4
29325,71518,5
29331,71531,5
29325,71547,5
29325,71548,5
29337,71539,5
29328,71536,4
29332,71539,5
29332,71539,5
29333,71535,5
29322,71523,4
29330,71519,5
29322,71521,5
29325,71521,5
29335,71543,4
29349,71575,5
29359,71589,5
29362,71578,5
29345,71563,5
29338,71554,4
29336,71527,5
29327,71508,5
29324,71481,5
29327,71505,5
29334,71511,4
29351,71532,5
29355,71528,5
29343,71509,5
29344,71506,5
29346,71514,4
29359,71527,6
29358,71522,4
29360,71518,5
29355,71508,5
29367,71525,4
29361,71538,5
29371,71562,5
29382,71573,5
29392,71590,5
29388,71602,4
29391,71605,5
29399,71606,5
29393,71619,5
29399,71630,4
29419,71664,5
29436,71706,5
29442,71720,5
29455,71726,5
29441,71734,4
29455,71761,5
29454,71774,5
29467,71791,5
29471,71817,5
29484,71860,4
29492,71870,5
29506,71887,6
29498,71889,4
29504,71894,5
29509,71891,4
29504,71884,5
29500,71888,5
29516,71903,5
29509,71914,5
29516,71931,4
29531,71945,5
29528,71950,5
29533,71943,5
29521,71939,5
29526,71926,4
29516,71922,5
29517,71921,5
29517,71925,5
29521,71944,4
29514,71931,4
29520,71938,5
29519,71952,5
29528,71971,5
29548,71990,4
29551,71994,5
29556,72021,5
29550,72019,5
29560,72028,5
29569,72052,4
29575,72055,5
29576,72078,5
29572,72089,5
29576,72087,5
29574,72096,4
29583,72087,5
29592,72100,5
29585,72103,5
29592,72117,5
29596,72130,4
29592,72135,5
29602,72156,5
29618,72170,5
29628,72193,5
29631,72209,4
29636,72230,4
29637,72243,5
29637,72240,5
29642,72238,5
29642,72254,3
29643,72249,5
29638,72248,5
29641,72251,5
29638,72247,4
29640,72242,5
29636,72246,5
29637,72251,5
29635,72240,5
29631,72229,4
29630,72224,5
29623,72222,5
29626,72222,5
29624,72223,5
29630,72233,4
29618,72229,5
29623,72225,5
29616,72209,5
29618,72196,5
29602,72189,4
29602,72184,6
29598,72176,4
29591,72167,5
29588,72155,5
29588,72147,6
29584,72139,3
29585,72139,5
29576,72126,5
29574,72132,4
29580,72140,4
29580,72151,5
29586,72152,5
29588,72153,5
29591,72153,4
29585,72139,5
29580,72140,5
29578,72131,5
29575,72119,5
29567,72121,4
29568,72111,5
29563,72092,5
29559,72101,5
29566,72104,5
29565,72104,4
29556,72100,5
29548,72097,6
29556,72090,4
29552,72086,5
29544,72088,4
29550,72077,5
29550,72075,5
29544,72063,5
29537,72063,5
29535,72046,4
29536,72033,5
29514,72021,5
29518,72027,5
29519,72006,4
29504,71988,4
29494,71964,5
29478,71952,5
29474,71936,5
29473,71936,4
29486,71947,5
29485,71951,5
29486,71973,5
29495,71984,5
29508,72002,4
29505,72022,5
29514,72024,5
29518,72033,6
29528,72039,4
29528,72064,4
29533,72084,5
29545,72110,5
29551,72129,5
29563,72165,5
29574,72184,4
29577,72189,5
29588,72185,5
29576,72184,5
29571,72181,5
29576,72169,4
29567,72171,5
29570,72174,5
29576,72197,5
29585,72222,4
29600,72254,10
29614,72287,0
29630,72340,5
29644,72354,5
29653,72408,5
29674,72430,4
29675,72445,5
29679,72465,5
29685,72471,6
29684,72490,3
29696,72508,5
29710,72542,5
29711,72574,5
29732,72598,5
29748,72639,4
29761,72676,5
29779,72711,5
29786,72737,5
29797,72759,5
29804,72781,4
29801,72791,5
29813,72805,5
29823,72810,5
29824,72842,4
29836,72862,4
29839,72869,5
29845,72875,5
29837,72879,5
29843,72882,4
29848,72894,6
29851,72910,4
29861,72935,5
29868,72956,5
29876,73002,6
29896,73034,3
29913,73064,5
29923,73103,5
29932,73139,5
29952,73182,4
29955,73198,5
29976,73223,5
29974,73250,5
29988,73291,5
30002,73320,4
30029,73364,5
30039,73393,5
30046,73417,5
30062,73454,5
30070,73456,4
30072,73476,5
30076,73475,5
30079,73472,5
30069,73473,4
30062,73472,4
30080,73484,6
30087,73505,4
30083,73512,5
30090,73509,4
30089,73520,5
30093,73517,5
30093,73509,5
30082,73502,5
30083,73512,4
30082,73520,5
30090,73520,5
30095,73532,5
30099,73541,5
30109,73556,4
30114,73569,5
30115,73576,5
30120,73572,5
30104,73591,5
30119,73592,4
30119,73595,5
30118,73610,5
30125,73614,5
30132,73628,5
30128,73623,4
30137,73636,5
30134,73634,6
30135,73635,4
30144,73646,4
30147,73666,4
30164,73696,5
30163,73712,5
30182,73735,5
30190,73786,4
30188,73805,5
30213,73834,5
30214,73852,5
30229,73863,5
30225,73874,4
30228,73882,5
30223,73858,5
30225,73859,5
30215,73856,5
30223,73848,4
30207,73831,5
30191,73811,5
30175,73779,5
30161,73743,5
30153,73704,4
30130,73659,5
30115,73611,5
30074,73554,6
30070,73501,4
30037,73450,4
30019,73397,5
29990,73336,5
29967,73289,5
29946,73239,4
29932,73199,5
29908,73147,5
29882,73071,5
29843,72988,5
29797,72908,4
29771,72833,5
29747,72779,5
29722,72726,5
29706,72691,5
29691,72675,4
29682,72641,5
29677,72608,5
29654,72576,5
29637,72541,5
29618,72492,5
29592,72443,4
29575,72399,5
29551,72341,5
29521,72274,5
29496,72201,4
29470,72126,5
29428,72043,5
29398,71961,5
29358,71869,4
29320,71774,4
29276,71655,5
29229,71527,5
29178,71416,5
29147,71331,4
29115,71256,5
29090,71196,5
29066,71145,5
29043,71080,5
29020,71037,4
29001,70983,5
28963,70901,5
28937,70824,5
28905,70760,5
28891,70691,4
28864,70660,6
28837,70598,4
28812,70539,5
28791,70487,5
28774,70420,4
28734,70332,5
28703,70250,5
28671,70174,5
28652,70120,5
28641,70074,4
28620,70048,5
28610,70029,5
28597,70004,5
28593,69991,4
28600,69995,4
28599,70010,5
28603,70024,5
28614,70007,5
28605,70005,4
28599,69992,5
28597,69962,5
28573,69932,5
28571,69922,5
28568,69918,4
28580,69923,5
28570,69922,6
28557,69860,4
28540,69795,5
28491,69681,4
28430,69548,5
28368,69400,5
28315,69264,5
28253,69139,5
28221,69040,4
28187,68981,5
28165,68929,5
28146,68886,5
28131,68850,5
28128,68847,4
28120,68819,5
28101,68780,5
28091,68759,5
28081,68720,4
28061,68674,4
28022,68607,5
27988,68517,5
27946,68426,5
27915,68354,4
27904,68330,5
27900,68349,5
27917,68362,6
27907,68339,4
27910,68331,4
27888,68294,5
27889,68268,5
27861,68208,5
27834,68150,5
27807,68073,4
27767,68001,5
27757,67935,5
27727,67891,5
27708,67849,5
27705,67812,4
27702,67799,5
27694,67778,5
27679,67745,5
27657,67673,5
27626,67588,4
27605,67546,5
27602,67526,5
27602,67545,5
27623,67578,5
27624,67588,4
27623,67555,5
27594,67509,5
27594,67481,5
27575,67434,4
27550,67341,5
27507,67258,5
27485,67209,5
27461,67112,5
27433,67062,4
27411,67032,5
27412,67012,5
27414,66989,5
27406,66956,5
27386,66888,4
27352,66815,5
27327,66753,5
27304,66679,5
27274,66583,5
27237,66504,4
27199,66422,5
27171,66319,5
27145,66237,5
27106,66124,4
27064,66028,6
27048,65972,3
27037,65954,5
27024,65919,5
27013,65877,4
26998,65835,5
26983,65786,5
26955,65730,5
26942,65688,5
26928,65614,4
26875,65481,5
26816,65312,5
26755,65159,5
26713,65041,5
26697,64970,4
26681,64950,5
26667,64950,5
26688,64970,5
26685,64979,5
26686,64960,4
26685,64943,5
26674,64920,5
26652,64854,5
26635,64818,5
26627,64773,4
26597,64712,6
26575,64659,4
26560,64618,5
26541,64592,4
26539,64565,4
26525,64553,5
26516,64541,5
26518,64528,5
26500,64490,4
26480,64437,5
26471,64409,5
26456,64382,5
26445,64338,5
26429,64275,4
26400,64181,5
26354,64076,5
26326,64017,5
26312,63943,5
26272,63851,4
26231,63753,5
26223,63717,5
26202,63660,5
26177,63579,5
26146,63520,4
26139,63491,5
26146,63505,5
26146,63506,5
26155,63507,5
26153,63498,4
26136,63453,5
26135,63428,5
26139,63444,5
26148,63448,4
26150,63427,4
26122,63373,5
26093,63333,5
26097,63308,5
26093,63315,4
26087,63280,5
26094,63291,5
26096,63322,5
26123,63347,5
26120,63345,4
26120,63320,4
26105,63274,5
26091,63230,5
26090,63209,6
26067,63155,3
26061,63124,5
26052,63089,5
26034,63058,5
26021,62994,5
26002,62924,4
25969,62859,5
25944,62779,5
25920,62725,5
25903,62677,5
25884,62651,4
25887,62646,5
25881,62645,5
25877,62591,5
25855,62521,4
25812,62417,5
25774,62319,5
25747,62258,5
25727,62223,5
25703,62139,4
25657,62003,6
25597,61850,4
25529,61691,5
25466,61508,5
25418,61402,6
25392,61329,3
25375,61255,5
25360,61261,5
25367,61293,5
25373,61325,4
25376,61307,5
25367,61290,5
25371,61300,5
25375,61300,5
25381,61326,4
25385,61345,5
25396,61349,5
25397,61343,5
25382,61329,5
25376,61315,4
25386,61323,5
25403,61362,5
25417,61408,5
25431,61448,4
25441,61471,5
25446,61479,6
25447,61493,4
25459,61496,5
25453,61471,4
25447,61465,7
25443,61456,3
25446,61460,5
25442,61453,5
25423,61416,4
25415,61369,5
25393,61312,5
25389,61320,5
25368,61266,5
25341,61207,4
25323,61154,5
25304,61112,5
25292,61065,5
25277,61034,5
25260,60992,4
25241,60935,5
25241,60893,5
25249,60917,5
25265,60957,5
25285,61010,4
25293,61020,5
25303,61021,6
25310,61030,4
25300,61021,4
25296,61017,4
25298,61020,5
25305,61036,5
25318,61071,5
25333,61107,4
25354,61136,5
25370,61166,5
25393,61216,5
25403,61210,5
25402,61193,4
25396,61152,5
25388,61114,5
25391,61106,5
25389,61097,5
25385,61074,4
25380,61082,5
25394,61085,5
25405,61120,5
25416,61143,5
25434,61183,4
25457,61248,5
25489,61304,5
25500,61324,6
25506,61327,4
25500,61287,4
25488,61245,5
25482,61230,5
25489,61237,7
25486,61246,2
25498,61260,4
25501,61279,5
25511,61281,5
25511,61271,5
25498,61267,4
25511,61292,5
25517,61335,5
25545,61391,5
25559,61411,5
25570,61427,4
25572,61432,5
25570,61440,5
25579,61438,5
25577,61458,5
25579,61457,5
25588,61463,4
25588,61472,5
25599,61469,5
25597,61489,6
25603,61497,3
25615,61535,5
25631,61588,5
25645,61637,5
25657,61646,5
25660,61649,4
25657,61630,5
25647,61610,5
25647,61606,5
25632,61572,4
25620,61538,4
25616,61498,5
25602,61469,5
25598,61473,5
25594,61461,4
25594,61432,5
25577,61397,5
25557,61319,5
25534,61268,5
25527,61254,4
25528,61255,6
25528,61275,4
25538,61305,5
25556,61347,5
25579,61407,4
25605,61461,5
25614,61494,5
25626,61526,5
25647,61581,5
25672,61639,4
25696,61702,5
25717,61731,5
25713,61710,5
25686,61699,5
25697,61681,4
25697,61710,5
25723,61758,5
25748,61849,5
25806,61980,5
25857,62119,4
25922,62259,5
25975,62387,5
26024,62495,5
26050,62546,4
26060,62586,5
26093,62675,6
26146,62806,4
26209,62974,5
26279,63185,4
26354,63361,5
26406,63504,5
26452,63630,5
26493,63712,5
26514,63780,4
26532,63829,5
26552,63906,5
26597,64025,5
26656,64179,5
26705,64318,4
26746,64431,5
26785,64525,5
26815,64622,5
26842,64670,5
26857,64691,4
26852,64694,5
26860,64705,5
26862,64726,5
26872,64760,5
26881,64806,4
26903,64854,5
26915,64885,6
26930,64884,4
26916,64888,4
26908,64862,4
26901,64829,5
26890,64810,5
26883,64816,5
26897,64862,4
26925,64943,5
26945,64970,5
26957,64983,5
26958,64986,5
26962,65020,4
26985,65054,5
26988,65079,5
27003,65119,5
27000,65108,5
26996,65102,4
26991,65106,5
27003,65132,5
27009,65145,5
27020,65182,5
27033,65226,4
27051,65247,5
27060,65269,5
27053,65255,6
27038,65223,4
27023,65172,4
26995,65121,5
26982,65098,5
26982,65096,5
26991,65124,4
26995,65130,4
26992,65115,5
26996,65142,5
27025,65226,5
27067,65320,4
27101,65386,5
27113,65419,5
27138,65495,5
27150,65524,5
27149,65498,4
27130,65487,5
27130,65471,5
27126,65453,5
27105,65396,5
27081,65327,5
27065,65288,4
27065,65289,5
27066,65295,5
27063,65289,5
27057,65265,4
27061,65260,5
27053,65239,5
27034,65203,5
27020,65143,5
26986,65089,4
26977,65057,5
26985,65102,5
27005,65144,5
27026,65205,4
27028,65212,4
27041,65204,5
27025,65196,5
27021,65184,5
27020,65193,4
27035,65244,5
27063,65293,5
27073,65341,5
27087,65378,5
27094,65372,4
27078,65352,6
27081,65348,4
27070,65367,5
27082,65368,5
27094,65380,4
27101,65418,5
27121,65438,5
27111,65422,5
27090,65382,5
27086,65362,4
27089,65354,5
27081,65340,5
27081,65329,5
27073,65301,5
27057,65279,4
27057,65266,5
27065,65284,5
27074,65281,5
27076,65278,5
27060,65267,4
27055,65241,5
27051,65224,5
27036,65182,5
27021,65123,4
26995,65048,5
26953,64957,6
26923,64858,4
26883,64762,5
26842,64660,4
26812,64593,5
26790,64544,5
26776,64497,5
26758,64407,5
26710,64289,4
26672,64179,5
26617,64047,5
26578,63924,5
26532,63801,5
26484,63688,4
26453,63583,5
26405,63441,5
26361,63334,5
26310,63232,5
26273,63142,4
26237,63038,5
26191,62905,5
26137,62745,5
26069,62528,5
26000,62338,4
25943,62213,5
25917,62150,6
25922,62120,4
25900,62056,4
25883,62003,4
25864,61933,5
25840,61850,5
25791,61708,5
25712,61490,4
25629,61284,5
25557,61064,5
25461,60852,5
25420,60741,5
25400,60701,4
25394,60689,5
25400,60720,5
25403,60693,5
25395,60691,5
25402,60724,4
25428,60765,5
25425,60729,5
25399,60668,5
25376,60623,5
25382,60608,4
25374,60554,5
25332,60487,5
25324,60448,5
25319,60427,5
25309,60412,4
25296,60372,5
25292,60367,5
25310,60387,5
25299,60353,4
25275,60278,4
25253,60215,5
25239,60177,5
25239,60185,5
25244,60171,4
25238,60178,5
25243,60168,5
25239,60140,5
25235,60128,5
25248,60140,4
25254,60166,5
25279,60223,5
25319,60280,5
25334,60309,5
25339,60312,5
25331,60268,4
25309,60212,5
25303,60164,5
25304,60170,5
25309,60198,4
25317,60175,5
25299,60115,5
25273,60009,5
25225,59876,5
25158,59649,4
25073,59403,5
25031,59384,5
25116,59619,5
25148,59618,5
25052,59319,4
24925,58982,5
24813,58703,5
24714,58431,5
24637,58212,4
24575,58082,5
24541,58016,5
24526,57957,5
24490,57891,5
24471,57827,4
24446,57767,6
24427,57706,3
24415,57653,5
24395,57601,5
24381,57543,4
24356,57463,5
24331,57385,5
24314,57318,5
24301,57276,5
24296,57261,4
24302,57288,5
24323,57344,5
24368,57455,5
24406,57567,5
24471,57696,4
24507,57795,5
24544,57884,5
24577,57984,5
24610,58105,5
24667,58237,4
24715,58406,5
24802,58647,6
24934,59020,4
25076,59452,4
25276,59958,4
25477,60490,5
25665,61023,5
25857,61536,5
26002,61987,4
26174,62448,5
26325,62894,5
26504,63315,5
26640,63684,5
26809,64100,4
26956,64480,5
27095,64820,5
27196,65044,5
27275,65269,5
27360,65462,4
27420,65595,5
27462,65672,5
27480,65692,5
27465,65633,5
27433,65559,4
27395,65467,5
27370,65406,5
27343,65297,6
27283,65149,4
27231,64991,4
27169,64818,5
27106,64646,5
27033,64442,5
26937,64228,4
26858,63993,4
26765,63753,5
26669,63518,5
26593,63250,5
26479,62952,4
26396,62688,5
26286,62407,5
26180,62114,5
26073,61857,5
25980,61596,4
25884,61337,5
25780,61082,5
25677,60786,5
25564,60493,5
25467,60219,5
25365,59930,4
25232,59556,5
25077,59152,5
24935,58766,6
24794,58417,3
24666,58062,5
24541,57712,5
24409,57418,5
24321,57187,5
24259,57010,4
24212,56879,5
24175,56783,5
24151,56719,5
24126,56677,5
24119,56649,4
24098,56607,5
24077,56520,5
24019,56375,5
23960,56167,4
23867,55921,5
23774,55666,5
23691,55410,5
23611,55183,5
23544,54981,4
23461,54746,6
23375,54498,4
23305,54264,5
23214,54021,5
23128,53758,6
23045,53530,3
22990,53388,5
22954,53289,5
22931,53228,5
22922,53192,4
22912,53206,5
22919,53221,5
22925,53223,5
22925,53218,5
22922,53194,4
22917,53183,5
22903,53170,5
22900,53149,5
22903,53132,5
22894,53132,4
22907,53145,5
22904,53163,5
22917,53204,5
22924,53239,4
22939,53267,4
22955,53290,6
22965,53321,4
22985,53340,5
22980,53384,4
22995,53407,5
23004,53417,5
23010,53428,5
23014,53430,5
23016,53421,4
23015,53419,5
23013,53411,5
23011,53412,5
23006,53414,5
23012,53410,4
23004,53414,5
23006,53397,5
23002,53374,5
22984,53319,9
22956,53242,0
22933,53157,5
22909,53071,5
22875,53030,5
22857,52992,5
22853,52953,4
22845,52938,5
22839,52921,6
22836,52903,4
22840,52912,4
22834,52922,4
22849,52951,5
22858,52973,5
22859,52969,5
22866,52967,4
22859,52970,5
22859,52966,5
22863,52962,5
22848,52946,5
22849,52935,4
22851,52924,5
22838,52903,5
22835,52880,5
22821,52865,5
22825,52867,4
22830,52877,5
22820,52853,5
22828,52843,5
22815,52826,5
22817,52823,4
22812,52836,5
22820,52844,5
22827,52857,6
22829,52875,4
22839,52892,4
22846,52910,5
22858,52941,5
22866,52963,5
22877,52993,4
22893,53024,4
22901,53059,5
22918,53097,5
22930,53134,5
22942,53163,4
22946,53190,5
22961,53209,5
22959,53221,5
22964,53232,5
22974,53250,4
22984,53259,5
22994,53314,5
23009,53359,5
23034,53428,5
23051,53483,5
23076,53530,4
23089,53572,5
23102,53602,5
23120,53648,6
23144,53696,3
23152,53740,5
23170,53781,5
23188,53828,5
23210,53890,5
23232,53963,4
23254,54029,5
23278,54074,5
23290,54122,5
23303,54166,4
23328,54211,4
23341,54243,5
23356,54279,5
23354,54294,5
23359,54305,4
23371,54320,5
23369,54340,5
23378,54352,5
23393,54387,5
23410,54416,4
23414,54452,6
23428,54466,4
23428,54487,5
23443,54510,5
23454,54540,4
23461,54577,5
23472,54623,5
23485,54649,5
23489,54666,5
23490,54687,4
23503,54724,5
23521,54766,5
23543,54801,5
23548,54803,5
23535,54792,4
23524,54714,5
23477,54606,5
23433,54441,5
23377,54278,5
23323,54114,4
23263,53975,5
23226,53869,5
23200,53787,5
23180,53741,4
23167,53726,5
23172,53719,6
23172,53727,4
23177,53736,5
23183,53762,4
23196,53777,5
23211,53803,5
23215,53843,5
23234,53880,5
23243,53909,4
23250,53917,5
23246,53892,5
23228,53851,5
23213,53817,5
23208,53778,4
23191,53732,5
23172,53682,5
23155,53615,5
23131,53533,5
23095,53458,4
23076,53383,5
23057,53315,5
23022,53239,5
22992,53162,5
22970,53089,4
22938,53030,5
22931,52983,6
22917,52942,4
22898,52878,4
22874,52802,4
22849,52737,5
22816,52651,5
22798,52584,5
22779,52537,4
22776,52503,5
22756,52448,5
22732,52397,5
22707,52326,5
22674,52250,4
22653,52189,5
22644,52170,5
22638,52149,5
22634,52137,5
22615,52096,4
22601,52044,5
22578,51987,5
22568,51925,5
22544,51866,5
22523,51806,4
22500,51757,5
22507,51773,5
22516,51784,5
22524,51805,5
22532,51808,4
22529,51808,5
22537,51820,5
22547,51856,5
22572,51929,4
22605,51998,4
22620,52051,5
22631,52062,5
22635,52092,5
22647,52119,4
22663,52139,5
22656,52124,5
22640,52100,5
22633,52083,5
22635,52077,4
22628,52083,5
22637,52101,5
22638,52119,5
22636,52118,5
22645,52140,5
22652,52173,4
22658,52206,5
22671,52222,5
22675,52262,5
22688,52280,4
22696,52309,5
22712,52345,5
22728,52365,5
22719,52363,5
22714,52344,4
22706,52326,5
22699,52320,5
22692,52304,5
22690,52307,4
22694,52317,4
22701,52311,5
22694,52316,5
22684,52317,5
22687,52320,4
22693,52325,5
22703,52353,5
22715,52368,5
22726,52401,5
22739,52438,4
22750,52474,6
22768,52515,4
22771,52538,5
22775,52548,5
22777,52551,4
22776,52535,5
22767,52511,5
22761,52494,5
22755,52474,5
22741,52445,4
22724,52418,5
22721,52397,5
22713,52356,5
22718,52349,5
22702,52338,4
22701,52313,5
22698,52310,5
22687,52303,5
22686,52292,4
22679,52278,4
22689,52274,5
22675,52272,5
22679,52257,5
22679,52259,4
22679,52244,5
22672,52239,6
22672,52234,4
22670,52228,5
22667,52225,4
22671,52223,5
22657,52216,5
22670,52227,5
22672,52244,5
22680,52256,4
22686,52269,5
22691,52286,5
22704,52310,5
22710,52331,5
22719,52364,4
22735,52385,5
22741,52415,5
22743,52435,5
22767,52470,5
22774,52517,4
22795,52560,5
22817,52611,5
22843,52644,5
22851,52688,5
22869,52725,4
22871,52745,5
22878,52759,5
22891,52791,5
22892,52832,4
22910,52874,5
22928,52896,5
22942,52934,5
22947,52955,5
22957,52965,4
22962,52992,5
22979,53012,5
22990,53043,5
22991,53064,5
22990,53088,4
23005,53100,5
23000,53107,5
23003,53123,5
23014,53137,5
23014,53146,4
23030,53164,4
23025,53185,5
23031,53190,5
23035,53199,5
23039,53211,3
23042,53215,5
23033,53205,5
23037,53204,5
23042,53201,5
23040,53195,4
23040,53198,5
23035,53179,5
23027,53153,5
23015,53148,4
23014,53129,4
23002,53121,5
22998,53126,5
23012,53129,5
23010,53133,4
23007,53140,5
23019,53132,5
23007,53145,5
23009,53138,5
23008,53117,4
23002,53111,6
23001,53112,4
23007,53134,5
23019,53154,5
23022,53155,6
23021,53153,3
23023,53144,5
23011,53149,5
23030,53165,5
23037,53196,4
23047,53226,5
23047,53222,5
23049,53245,5
23058,53247,5
23065,53275,4
23068,53301,5
23086,53339,5
23096,53354,5
23105,53389,4
23118,53415,4
23127,53445,5
23139,53478,5
23161,53527,5
23169,53559,4
23194,53590,5
23199,53610,6
23187,53580,4
23183,53542,5
23166,53504,4
23142,53427,7
23119,53336,3
23086,53243,5
23050,53155,5
23032,53104,4
23015,53054,5
22998,53028,5
22997,52985,5
22983,52969,5
22974,52940,4
22962,52893,5
22943,52853,5
22922,52804,5
22905,52746,5
22887,52689,4
22859,52618,5
22838,52568,5
22823,52506,5
22805,52461,4
22786,52420,4
22767,52363,5
22743,52297,6
22713,52234,4
22698,52188,4
22688,52142,5
22674,52115,5
22669,52101,5
22659,52075,5
22652,52029,4
22618,51982,5
22595,51931,5
22588,51899,5
22575,51862,5
22566,51848,4
22569,51841,5
22560,51822,5
22565,51840,5
22564,51849,5
22573,51883,4
22581,51913,5
22601,51920,5
22585,51923,5
22587,51919,5
22576,51906,4
22579,51889,5
22574,51896,5
22582,51893,6
22584,51896,3
22589,51898,4
22577,51902,5
22587,51907,5
22588,51905,5
22590,51911,4
22581,51908,5
22589,51917,5
22593,51927,5
22599,51944,5
22613,51985,4
22618,52022,5
22633,52059,5
22648,52092,5
22652,52116,5
22659,52137,4
22668,52183,5
22691,52231,5
22712,52287,5
22733,52338,5
22755,52420,5
22787,52490,4
22816,52565,5
22829,52611,5
22843,52660,6
22856,52693,3
22874,52739,5
22895,52794,5
22906,52838,5
22921,52877,4
22937,52924,4
22956,52969,5
22968,53012,5
22973,53039,5
22995,53065,4
23000,53092,5
23002,53110,5
23011,53131,5
23015,53138,5
23019,53154,4
23038,53189,5
23032,53208,5
23054,53238,5
23067,53273,5
23078,53315,4
23081,53342,6
23092,53356,4
23101,53377,5
23108,53407,5
23109,53417,4
23119,53430,7
23122,53450,3
23126,53448,5
23110,53430,5
23111,53420,4
23108,53407,5
23105,53407,5
23103,53389,5
23089,53363,5
23083,53325,4
23072,53301,5
23065,53273,5
23058,53275,5
23060,53278,4
23061,53277,5
23067,53290,5
23071,53300,5
23064,53292,5
23059,53284,4
23065,53270,5
23060,53265,6
23058,53262,4
23059,53247,5
23045,53230,4
23038,53213,5
23030,53187,5
23025,53165,5
23020,53126,5
23005,53086,4
22993,53053,5
22988,53035,5
22980,53018,5
22980,53005,5
22986,53020,4
22986,53023,5
22987,53033,5
22998,53050,5
23007,53077,5
23018,53116,4
23037,53175,5
23062,53247,5
23087,53296,5
23102,53349,4
23128,53436,4
23167,53539,5
23210,53649,6
23243,53752,4
23273,53812,4
23288,53869,5
23322,53927,5
23341,53991,5
23363,54032,5
23376,54100,4
23409,54192,5
23446,54324,5
23503,54473,5
23559,54653,5
23623,54840,4
23700,55066,5
23784,55322,5
23878,55558,5
23951,55779,5
24026,55996,4
24087,56180,5
24149,56316,5
24194,56431,5
24230,56534,5
24259,56644,4
24307,56769,5
24356,56892,5
24403,57008,6
24456,57122,3
24476,57217,4
24516,57315,5
24549,57399,5
24586,57517,5
24645,57696,4
24716,57883,5
24784,58049,5
24828,58193,5
24876,58293,5
24893,58344,4
24903,58371,5
24928,58426,5
24937,58452,5
24948,58490,5
24957,58503,4
24969,58527,5
24980,58559,5
24975,58560,5
24974,58558,5
24981,58582,5
24992,58594,4
24990,58608,5
24986,58596,5
24988,58602,5
25010,58665,4
25032,58732,5
25064,58818,5
25093,58883,5
25122,58953,4
25133,58975,4
25140,58985,5
25146,58986,5
25135,58962,5
25146,58940,4
25136,58909,5
25116,58872,5
25110,58842,5
25089,58813,5
25071,58771,4
25054,58708,5
25017,58620,5
24976,58487,5
24928,58391,5
24912,58339,4
24914,58340,6
24919,58347,4
24912,58315,5
24905,58280,5
24899,58242,4
24882,58197,5
24854,58109,5
24817,58011,5
24775,57908,5
24736,57794,4
24686,57663,5
24622,57490,5
24549,57313,5
24486,57164,5
24439,57053,4
24408,56987,5
24393,56905,5
24353,56838,5
24325,56725,4
24289,56627,5
24263,56531,5
24217,56429,5
24194,56334,5
24155,56237,4
24127,56130,5
24084,56008,6
24043,55838,4
23971,55672,5
23914,55512,4
23879,55415,5
23846,55332,5
23827,55266,5
23809,55201,5
23795,55161,4
23780,55121,5
23784,55127,5
23791,55143,5
23791,55151,5
23786,55142,4
23791,55140,5
23795,55147,5
23794,55172,5
23818,55231,5
23843,55281,4
23856,55338,5
23876,55399,5
23904,55457,5
23923,55509,4
23943,55564,5
23965,55634,5
23989,55677,5
23994,55718,5
23999,55728,4
24010,55748,5
24004,55751,5
24000,55751,5
24011,55741,5
24012,55759,4
24007,55749,5
24012,55770,5
24024,55782,5
24034,55817,5
24039,55840,4
24050,55864,5
24051,55897,5
24075,55935,5
24090,55980,5
24110,56029,4
24120,56045,5
24127,56061,5
24117,56068,5
24113,56038,5
24103,56015,4
24092,55982,5
24082,55947,5
24063,55918,5
24059,55857,4
24031,55799,4
24003,55728,5
23981,55690,5
23972,55659,5
23975,55665,4
23980,55679,5
23991,55700,5
23990,55716,5
23994,55716,5
23987,55715,4
23988,55702,5
23974,55692,5
23984,55690,5
23981,55704,5
23986,55684,4
23970,55653,5
23948,55610,5
23945,55570,5
23943,55565,5
23935,55554,5
23931,55554,4
23927,55541,5
23926,55541,5
23919,55509,5
23905,55490,4
23902,55452,5
23899,55437,5
23880,55430,5
23890,55419,4
23891,55427,4
23881,55410,5
23893,55423,5
23889,55416,5
23892,55408,4
23873,55378,5
23868,55338,5
23855,55300,5
23836,55261,5
23826,55223,4
23804,55165,5
23783,55107,5
23758,55063,5
23743,55014,5
23743,54989,4
23722,54975,6
23709,54939,4
23706,54909,5
23696,54878,5
23685,54846,4
23672,54811,5
23648,54753,5
23636,54685,5
23613,54613,5
23587,54542,4
23569,54498,5
23556,54450,5
23549,54410,5
23532,54379,4
23512,54338,4
23500,54284,5
23488,54249,5
23472,54232,5
23472,54225,4
23472,54225,5
23477,54224,5
23473,54220,6
23476,54223,4
23462,54216,4
23473,54208,5
23470,54210,5
23470,54225,5
23470,54222,5
23482,54237,4
23482,54241,5
23482,54246,5
23473,54243,5
23472,54236,5
23468,54221,4
23473,54224,5
23473,54229,5
23479,54242,5
23468,54225,5
23483,54230,4
23476,54233,5
23487,54252,5
23483,54261,5
23490,54277,5
23497,54276,4
23484,54277,5
23494,54295,5
23501,54321,6
23512,54340,3
23520,54379,5
23534,54390,5
23536,54424,5
23556,54445,5
23572,54495,4
23584,54549,5
23599,54594,5
23621,54622,5
23632,54664,5
23640,54692,4
23639,54709,5
23661,54741,5
23669,54798,5
23704,54861,5
23728,54946,4
23759,55006,5
23770,55058,5
23785,55091,5
23807,55120,5
23816,55142,5
23833,55179,4
23838,55218,5
23855,55267,5
23881,55304,6
23890,55351,3
23903,55382,5
23928,55426,5
23945,55476,5
23967,55527,4
23988,55582,5
24010,55663,5
24037,55719,5
24050,55752,5
24043,55746,4
24035,55703,5
24027,55652,5
24011,55612,5
24001,55593,5
24000,55599,4
24007,55645,5
24041,55714,5
24076,55772,5
24103,55859,5
24125,55905,4
24154,55981,6
24172,56015,4
24198,56057,5
24199,56054,5
24207,56074,6
24213,56073,3
24223,56074,5
24223,56073,5
24236,56074,5
24244,56082,4
24256,56079,5
24254,56065,5
24251,56061,5
24255,56043,4
24250,56028,5
24249,56027,5
24257,56031,5
24270,56035,5
24266,56054,4
24276,56080,5
24290,56110,5
24294,56137,5
24309,56158,5
24313,56171,4
24318,56163,5
24312,56165,6
24319,56174,4
24327,56195,5
24329,56220,4
24335,56239,5
24340,56241,5
24338,56227,5
24338,56223,5
24330,56219,4
24328,56210,5
24327,56198,5
24324,56181,5
24318,56168,5
24315,56155,4
24306,56122,5
24298,56108,5
24287,56089,5
24296,56098,4
24288,56083,4
24287,56099,5
24302,56108,5
24296,56118,5
24299,56115,4
24300,56107,5
24287,56087,5
24279,56072,6
24278,56060,4
24277,56026,4
24265,56016,5
24265,56009,5
24260,56019,5
24261,56031,5
24264,56048,4
24275,56044,5
24262,56043,5
24258,56004,5
24223,55927,5
24193,55841,4
24160,55718,5
24107,55557,5
24047,55398,5
23992,55203,5
23911,54991,4
23851,54760,5
23789,54548,5
23755,54390,5
23735,54263,5
23712,54114,4
23678,54006,5
23667,53930,5
23665,53890,6
23658,53854,3
23655,53844,5
23673,53843,5
23674,53876,5
23695,53885,5
23698,53912,4
23706,53957,5
23737,54013,5
23754,54078,5
23776,54144,5
23793,54189,4
23806,54232,5
23831,54276,9
23841,54317,1
23855,54355,5
23874,54415,4
23880,54426,5
23895,54438,5
23899,54461,5
23904,54477,5
23901,54481,5
23909,54506,4
23913,54509,5
23915,54516,5
23917,54526,4
23925,54535,4
23926,54550,5
23928,54542,5
23931,54529,5
23922,54508,4
23905,54472,5
23891,54420,5
23876,54375,5
23859,54319,5
23845,54279,4
23842,54266,5
23839,54270,5
23846,54267,5
23837,54268,5
23837,54262,4
23837,54258,5
23844,54274,5
23851,54291,5
23855,54312,5
23876,54346,4
23884,54362,6
23886,54374,4
23879,54367,5
23881,54350,5
23887,54356,4
23884,54384,5
23894,54418,5
23914,54471,5
23936,54526,4
23953,54574,4
23969,54620,5
23980,54659,5
24003,54722,5
24021,54773,4
24035,54796,5
24039,54813,5
24043,54834,5
24048,54866,5
24075,54929,4
24101,55002,5
24121,55061,5
24144,55107,5
24152,55172,5
24174,55202,4
24179,55202,5
24172,55193,6
24176,55187,4
24187,55211,5
24186,55249,4
24204,55297,5
24230,55365,5
24266,55447,5
24289,55542,5
24344,55644,4
24386,55781,5
24434,55928,5
24491,56080,5
24545,56196,4
24567,56252,4
24570,56259,5
24572,56255,5
24577,56257,5
24574,56258,4
24583,56270,5
24577,56304,5
24603,56354,5
24634,56465,5
24691,56584,4
24735,56724,5
24782,56855,5
24823,56972,6
24861,57067,4
24887,57162,4
24913,57236,5
24947,57321,5
24970,57388,5
24996,57431,5
24983,57399,4
24972,57355,5
24946,57277,5
24922,57219,5
24896,57161,5
24874,57110,4
24863,57076,5
24845,57054,5
24843,57028,5
24841,57001,4
24829,56974,4
24827,56957,5
24820,56942,5
24813,56921,5
24794,56859,5
24767,56790,4
24738,56731,5
24713,56648,5
24690,56576,5
24673,56521,4
24657,56467,5
24642,56413,5
24637,56405,5
24635,56414,5
24659,56451,4
24673,56486,5
24681,56529,5
24710,56564,5
24717,56588,5
24721,56592,4
24713,56579,5
24703,56566,5
24710,56562,5
24705,56572,5
24713,56579,4
24718,56599,5
24729,56637,5
24750,56668,5
24761,56701,4
24776,56733,5
24779,56751,4
24783,56752,5
24795,56751,5
24783,56735,4
24784,56725,5
24786,56745,5
24805,56775,5
24825,56805,5
24841,56870,4
24863,56920,5
24872,56954,5
24885,56993,5
24912,57044,5
24940,57115,4
24961,57179,5
24984,57257,5
25025,57322,5
25044,57388,5
25075,57459,4
25110,57546,5
25137,57624,5
25172,57703,5
25203,57777,5
25231,57841,4
25258,57904,6
25284,57963,4
25308,58034,5
25331,58093,5
25364,58159,4
25387,58205,5
25403,58253,5
25413,58292,5
25428,58325,4
25432,58344,5
25446,58374,5
25464,58408,5
25464,58445,5
25483,58482,4
25493,58495,5
25499,58513,5
25498,58519,5
25503,58532,5
25497,58531,4
25496,58496,5
25485,58478,5
25472,58464,5
25478,58455,5
25481,58468,4
25484,58468,5
25477,58453,6
25468,58461,4
25477,58470,5
25483,58474,4
25491,58498,5
25495,58525,5
25507,58574,5
25522,58618,5
25527,58640,4
25537,58655,5
25530,58658,5
25533,58642,5
25515,58645,4
25521,58653,4
25529,58667,5
25540,58702,5
25544,58765,5
25582,58837,4
25605,58889,5
25618,58941,5
25636,58988,5
25654,59045,5
25684,59100,4
25691,59160,5
25706,59204,5
25722,59238,5
25743,59287,5
25755,59355,4
25797,59419,5
25819,59496,5
25851,59576,5
25886,59664,5
25926,59767,4
25966,59898,5
26045,60081,5
26121,60297,5
26222,60575,5
26346,60893,4
26475,61180,5
26561,61376,5
26645,61570,5
26747,61816,4
26876,62155,4
27060,62595,5
27268,63108,5
27483,63563,5
27636,63876,5
27745,64185,3
27903,64557,5
28151,65134,5
28420,65663,5
28590,66255,4
28869,66886,5
29128,67522,5
29387,68105,5
29639,68691,5
29860,69206,4
30077,69672,5
30283,70157,5
30582,70809,5
30821,71369,5
31057,71836,4
31263,72261,5
31428,72623,5
31580,72883,5
31634,72964,5
31630,72965,4
31670,73078,6
31769,73303,4
31915,73617,5
32075,73923,4
32209,74190,6
32363,74498,3
32482,74706,5
32514,74763,5
32475,74649,4
32367,74459,5
32269,74271,5
32156,74040,5
31994,73749,5
31828,73409,4
31647,73028,5
31451,72642,5
31264,72214,5
31041,71723,5
30797,71242,4
30566,70773,5
30412,70421,5
30283,70147,5
30189,69953,5
30099,69755,4
30015,69551,5
29932,69330,6
29818,69069,4
29706,68831,5
29619,68678,4
29564,68566,5
29543,68496,5
29538,68475,5
29538,68471,5
29531,68444,4
29519,68426,5
29519,68415,5
29532,68430,5
29531,68454,4
29542,68477,4
29546,68469,5
29533,68424,5
29502,68371,5
29484,68324,4
29455,68299,5
29469,68309,5
29467,68283,5
29458,68244,5
29446,68221,4
29449,68212,5
29438,68198,5
29436,68207,6
29459,68252,4
29483,68301,4
29500,68348,5
29529,68407,5
29572,68512,5
29620,68637,5
29686,68776,4
29748,68894,5
29788,68978,5
29815,69049,5
29859,69113,5
29905,69196,4
29940,69295,5
29980,69401,5
30028,69491,5
30090,69607,4
30143,69724,4
30197,69809,5
30238,69912,5
30300,70056,5
30363,70204,5
30432,70355,4
30500,70485,5
30555,70643,5
30634,70796,6
30712,70943,3
30775,71072,5
30854,71228,5
30925,71387,5
31003,71583,5
31087,71764,4
31149,71903,5
31196,71986,5
31214,72052,5
31245,72124,5
31290,72190,4
31306,72240,5
31336,72305,5
31372,72386,5
31419,72509,5
31509,72684,4
31596,72869,5
31673,73060,5
31773,73288,5
31920,73568,5
32027,73795,5
32102,73963,4
32166,74092,5
32200,74164,5
32236,74234,6
32321,74391,3
32440,74616,5
32538,74777,5
32616,74942,5
32691,75123,4
32791,75323,5
32870,75498,5
32926,75571,5
32966,75677,5
33051,75885,4
33175,76128,5
33289,76350,5
33369,76528,5
33426,76637,5
33460,76705,4
33466,76699,5
33439,76667,5
33434,76667,5
33419,76624,5
33406,76600,4
33369,76536,6
33305,76408,4
33213,76210,5
33037,75837,5
32732,75203,4
32323,74373,5
31877,73475,5
31469,72694,5
31163,72096,4
30957,71694,5
30809,71389,5
30672,71057,5
30518,70715,5
30337,70339,4
30159,69925,5
29967,69531,5
29830,69204,5
29722,69002,5
29685,68911,4
29683,68898,5
29724,69021,5
29827,69244,5
29951,69489,5
30038,69701,4
30122,69875,5
30193,70012,6
30212,70065,4
30219,70081,5
30223,70069,4
30205,70029,5
30188,70002,5
30190,70013,5
30228,70106,5
30290,70213,4
30325,70289,5
30371,70381,5
30415,70473,5
30463,70558,4
30484,70598,5
30490,70604,5
30470,70571,5
30439,70482,5
30397,70411,4
30372,70372,5
30358,70346,5
30365,70344,5
30366,70378,5
30381,70411,4
30403,70427,5
30402,70417,5
30391,70407,6
30388,70408,6
30367,70371,2
30344,70330,5
30316,70255,5
30252,70111,5
30180,69973,5
30116,69852,4
30062,69752,5
30032,69678,5
29999,69605,5
29978,69541,5
29963,69521,4
29973,69551,5
30014,69630,5
30052,69698,5
30067,69722,4
30069,69730,5
30065,69716,5
30056,69708,5
30038,69695,5
30054,69706,5
30064,69751,4
30109,69832,5
30112,69838,5
30104,69807,5
30085,69757,4
30072,69731,5
30059,69722,5
30061,69696,5
30039,69657,5
30018,69621,4
30000,69585,5
29986,69548,5
29966,69505,5
29966,69494,5
29958,69488,4
29959,69469,5
29937,69458,5
29925,69408,5
29895,69358,4
29879,69305,4
29844,69257,5
29818,69168,5
29750,69012,5
29673,68859,4
29598,68684,6
29528,68535,4
29480,68454,5
29463,68420,5
29463,68421,4
29467,68440,5
29472,68436,5
29458,68388,5
29427,68313,5
29398,68256,4
29375,68203,5
29370,68199,5
29387,68239,5
29416,68313,5
29452,68391,4
29502,68483,5
29565,68632,5
29637,68790,5
29725,68970,5
29800,69133,4
29881,69292,5
29948,69419,5
30006,69503,5
30030,69567,4
30078,69689,4
30145,69839,6
30213,69955,4
30247,70042,5
30285,70121,4
30330,70220,5
30383,70334,5
30462,70501,5
30543,70649,5
30611,70786,4
30655,70885,5
30698,70938,5
30720,70994,5
30730,71031,5
30764,71093,4
30795,71182,5
30839,71281,5
30890,71397,5
30962,71532,5
31041,71699,4
31125,71885,5
31168,71944,5
31173,71966,5
31182,71969,5
31183,71982,4
31204,72022,5
31237,72110,6
31284,72207,4
31342,72306,4
31378,72381,4
31398,72430,5
31417,72486,5
31455,72572,5
31508,72705,4
31608,72943,5
31771,73249,5
31891,73502,5
32019,73753,5
32157,73994,4
32241,74173,5
32307,74320,5
32376,74474,5
32424,74587,5
32489,74707,4
32569,74913,5
32697,75206,5
32884,75602,5
33065,75977,5
33228,76295,4
33342,76519,5
33415,76672,5
33488,76818,5
33556,76991,5
33634,77165,4
33721,77367,5
33793,77534,5
33865,77688,5
33967,77923,4
34078,78144,5
34141,78241,5
34154,78239,5
34147,78265,5
34168,78288,4
34160,78258,5
34111,78161,5
34032,78034,5
33970,77946,5
33922,77841,4
33842,77666,5
33716,77454,5
33620,77301,5
33553,77196,5
33487,77068,5
33397,76906,4
33282,76690,5
33146,76457,5
33019,76246,5
32915,76049,4
32823,75852,5
32726,75688,5
32680,75603,5
32649,75538,5
32603,75439,4
32542,75298,5
32474,75178,5
32431,75111,5
32390,75012,4
32342,74921,5
32279,74788,5
32209,74644,5
32111,74466,5
32030,74281,4
31935,74122,5
31838,73942,5
31738,73737,5
31639,73520,5
31522,73309,4
31405,73078,6
31292,72853,4
31186,72660,5
31110,72494,5
31034,72356,4
30954,72181,5
30876,72021,5
30803,71846,5
30736,71699,5
30670,71570,4
30620,71435,5
30548,71272,5
30468,71093,5
30388,70914,4
30311,70748,4
30255,70593,5
30190,70436,5
30119,70292,5
30048,70120,4
29970,69977,5
29928,69844,5
29869,69718,5
29821,69602,5
29767,69500,4
29747,69440,5
29734,69394,5
29730,69402,5
29751,69427,5
29786,69482,4
29809,69530,5
29839,69572,5
29856,69613,5
29888,69657,5
29920,69728,4
29968,69831,5
30038,70002,5
30132,70206,5
30226,70414,5
30320,70609,4
30388,70751,5
30452,70894,5
30509,71010,5
30521,71037,5
30520,71039,4
30520,71036,5
30517,71010,5
30499,71005,6
30506,71006,3
30517,71032,5
30554,71130,5
30630,71287,5
30720,71445,5
30812,71648,4
30905,71839,5
30997,72040,5
31101,72252,5
31195,72430,5
31286,72610,4
31379,72829,5
31492,73065,5
31607,73285,5
31714,73508,5
31830,73712,4
31917,73888,5
31992,74055,5
32079,74223,5
32153,74387,5
32212,74515,5
32264,74626,4
32305,74736,5
32351,74812,5
32371,74860,6
32401,74920,3
32432,74977,5
32450,75013,5
32458,75032,5
32467,75012,4
32438,75001,5
32442,74996,5
32447,75000,5
32454,75011,5
32455,75029,4
32454,75039,5
32467,75048,5
32476,75057,5
32468,75063,5
32468,75047,4
32473,75052,5
32469,75033,5
32463,75020,5
32436,75003,5
32435,74986,4
32439,74979,6
32419,74956,4
32408,74930,5
32397,74902,5
32389,74885,6
32380,74868,3
32359,74825,5
32345,74778,5
32330,74733,4
32325,74725,4
32321,74721,5
32318,74707,5
32312,74701,5
32314,74716,4
32310,74709,5
32317,74716,5
32311,74718,5
32308,74701,5
32278,74641,4
32284,74651,5
32263,74621,5
32260,74630,5
32319,74757,5
32439,74961,4
32518,75123,5
32579,75243,6
32632,75326,4
32668,75380,5
32660,75365,4
32647,75334,5
32656,75352,5
32670,75348,5
32637,75218,5
32493,74908,4
32304,74538,5
32109,74150,5
31919,73759,5
31770,73476,4
31675,73316,5
31661,73316,5
31694,73374,5
31704,73376,5
31675,73317,4
31629,73209,5
31537,73016,5
31430,72841,5
31371,72725,5
31308,72616,4
31260,72516,5
31194,72383,5
31136,72269,6
31090,72167,4
31053,72103,4
31029,72035,5
30973,71873,5
30875,71668,5
30777,71461,5
30704,71318,4
30666,71217,5
30623,71149,5
30618,71143,5
30637,71198,5
30691,71299,4
30765,71436,5
30848,71573,5
30903,71714,5
30948,71780,4
30943,71753,5
30912,71686,5
30872,71588,5
30814,71494,5
30765,71400,5
30701,71258,4
30616,71065,5
30501,70830,5
30384,70587,6
30278,70365,3
30191,70172,5
30102,69998,5
30035,69849,5
29980,69704,5
29906,69557,4
29831,69383,5
29744,69189,5
29649,68970,5
29561,68810,5
29511,68702,4
29480,68627,5
29461,68575,5
29434,68510,5
29415,68445,5
29385,68359,4
29340,68278,5
29328,68233,5
29305,68189,5
29285,68138,4
29271,68106,6
29269,68092,4
29269,68102,5
29280,68120,5
29299,68143,4
29314,68187,5
29327,68205,5
29329,68225,5
29328,68235,5
29344,68232,4
29342,68224,5
29338,68201,5
29302,68141,5
29300,68114,5
29286,68130,4
29279,68109,5
29292,68127,5
29307,68180,5
29336,68231,5
29354,68275,4
29379,68355,5
29440,68494,5
29524,68687,5
29634,68929,4
29783,69249,4
29968,69656,6
30224,70189,4
30536,70852,5
30869,71549,4
31170,72156,5
31476,72829,5
31879,73680,5
32323,74668,5
32931,76007,4
33712,77704,5
34688,79811,5
35736,81670,5
36416,83042,5
37060,83757,4
37774,85204,5
38486,86686,5
39052,87828,5
39503,88641,5
39910,89475,4
40378,90454,5
40803,91222,5
41015,91683,5
41074,91792,5
41172,92078,4
41293,92333,5
41398,92584,6
41664,93140,4
41898,93559,4
42129,94023,4
42332,94354,5
42356,94361,5
42190,94028,5
42005,93769,4
41775,93308,5
41402,92653,5
40982,91883,5
40462,90977,5
40148,90535,4
39986,90215,9
39766,89826,1
39462,89208,5
39108,88585,5
38793,88004,4
38514,87463,5
38240,86993,5
38154,86897,5
38203,87005,5
38246,87081,4
38221,87033,5
38167,86945,5
38152,86926,6
38160,86972,4
38195,87049,4
38219,87083,5
38246,87142,5
38270,87211,5
38261,87193,4
38233,87147,5
38180,87045,5
38184,87112,5
38279,87288,5
38324,87370,4
38330,87402,5
38391,87563,5
38557,87929,5
38785,88368,5
38980,88712,4
39058,88806,5
39047,88781,5
38962,88616,5
38810,88337,5
38621,87971,5
38435,87657,4
38328,87483,5
38277,87393,5
38240,87313,5
38187,87205,4
38130,87114,5
38105,87078,5
38103,87094,5
38151,87190,5
38212,87322,4
38271,87444,5
38338,87602,5
38410,87708,5
38455,87827,4
38561,88086,5
38774,88519,5
38957,88858,5
39089,89118,5
39258,89485,4
39435,89888,5
39709,90440,5
40035,91156,5
40614,92335,5
41136,93269,4
41477,94005,6
41786,94583,4
42091,95213,5
42508,95986,5
42799,96433,4
42801,96464,5
42879,96630,5
42883,96589,5
42869,96621,5
42966,96768,4
43048,96885,5
43208,97167,5
43347,97423,5
43629,97988,5
44033,98664,4
44253,98448,5
44348,98594,5
44302,98563,5
44379,98818,4
44623,99240,5
44716,99458,5
44718,99459,5
44658,99406,5
44685,99562,4
44800,99813,5
44888,100035,6
45025,100220,4
45076,100383,5
45091,100424,4
45160,100633,5
45307,100841,5
45402,101050,5
45567,101317,5
45551,101286,4
45461,101070,5
45199,100611,5
44936,100129,5
44723,99755,5
44452,99187,4
44059,98510,5
43729,97950,5
43589,97714,5
43505,97529,5
43375,97291,4
43214,96960,5
43069,96737,5
42997,96604,5
42958,96511,4
42890,96403,4
42907,96411,5
42888,96390,5
42922,96436,5
42969,96518,4
43011,96552,5
43001,96532,5
43004,96575,5
43087,96738,5
43194,96903,4
43248,97022,5
43382,97269,5
43518,97519,5
43660,97775,5
43934,98320,4
44267,98903,5
44525,99312,5
44693,99546,5
44863,99876,5
45137,100413,4
45399,100767,5
45390,100684,5
45374,100727,5
45409,100748,5
45403,100749,4
45401,100692,5
45328,100602,5
45443,100871,5
45695,101232,4
45852,101501,4
46082,101920,5
46328,102269,5
46491,102603,5
46723,102979,4
47017,103510,5
47308,104053,5
47574,104447,5
47823,104945,5
48178,105626,4
48666,106431,5
49081,107071,5
49434,107648,5
49045,108283,5
49236,108609,4
49335,108761,5
49369,108792,5
49479,109052,5
49873,109749,5
50334,110580,5
51005,111524,4
51365,112188,5
51885,113114,5
52332,113810,5
52631,114330,4
52934,114752,5
53123,114630,5
53601,115353,5
54001,115826,4
54130,115994,4
54227,116219,5
54632,116862,5
55109,117636,5
55577,118370,4
55984,119086,5
56313,119490,5
56194,119275,5
55898,119012,5
55948,119243,4
56555,120427,5
57268,121437,5
57826,122277,4
58028,122566,5
57924,122512,4
57864,122534,6
57878,122651,3
58211,123380,5
58808,124269,5
58793,124199,4
58467,123972,5
58285,123670,5
57839,123156,5
57263,122298,5
56763,121731,4
56506,121548,5
56526,121786,5
56716,122148,5
56892,122430,4
56716,122109,4
56355,121580,5
55583,120389,5
54534,118811,5
53559,117554,4
53132,116943,5
52674,116240,5
52134,115465,6
51795,115028,4
51627,114736,4
51482,114524,5
51423,114419,5
51460,114505,5
51504,114451,5
51353,114137,4
51229,113953,5
51059,113526,5
50793,113121,5
50735,112974,5
50661,112773,4
50559,112552,5
50454,112263,5
50174,111670,5
49746,110878,5
49302,110142,4
49130,109905,5
49126,109745,5
48838,109214,5
48527,108644,5
48230,108142,4
48100,107934,5
48074,107850,5
48025,107772,6
48006,107772,3
48267,108312,5
48756,109131,5
49239,109932,5
49739,110735,10
50024,111171,9
50173,111437,5
53744,117924,8
53744,117924,5
54933,120019,5
56513,122724,8
57968,125125,5
59071,126685,5
59685,127665,8
60101,128391,5
60458,129063,5
60822,129544,5
60758,129304,8
60030,127959,5
58998,126412,5
56757,123014,8
56757,123014,5
56345,122462,5
55971,121814,5
55547,121158,8
55203,120651,5
54932,120158,5
54514,119457,8
54129,118840,5
53874,118416,5
53735,118245,8
53729,118289,5
53844,118471,5
53809,118374,5
55600,122030,8
55600,122030,5
56562,124071,5
58039,126555,8
59642,129662,5
62055,133904,5
64169,136551,5
65253,137980,8
64906,137001,5
63737,135077,5
62464,133181,8
61778,132151,5
61175,131023,5
61245,131669,8
61245,131669,5
59445,128788,5
59491,128679,5
60179,129895,8
60689,130523,5
60847,130659,5
60669,130067,8
60184,129321,5
60054,129186,5
60198,129428,5
60396,129718,8
60550,129801,5
60413,129509,5
61066,130872,8
61066,130872,5
61385,131294,5
61508,131466,8
61620,131658,5
61679,131678,5
61715,131882,5
61902,132209,8
62216,132689,5
62809,134039,5
63688,135474,8
64242,136251,5
64954,137509,5
65764,138974,5
67220,142667,8
67220,142667,5
67618,143255,5
67850,143624,8
67891,143670,5
67968,143845,5
68036,143964,8
68139,144125,5
68202,144186,5
68233,144216,5
68290,144150,8
65713,139383,5
65713,139383,5
64603,137557,8
63558,135905,5
62726,134492,5
61928,133132,5
61040,131622,8
60261,130357,5
59602,129235,5
58965,128031,8
58218,126629,5
57276,124995,5
53477,118324,8
53477,118324,5
52792,117127,5
52238,116148,5
51752,115224,8
51232,114245,5
50526,113705,5
49774,112365,8
48974,110911,5
49094,109852,5
48591,109005,5
48206,108356,8
47956,107959,5
47756,107639,5
46275,104855,8
46275,104855,5
46029,104473,5
45876,104203,8
45802,104080,5
45722,103968,5
45714,104021,5
45751,104043,8
45766,104106,5
45794,104131,5
45786,104154,8
45795,104142,5
45863,104268,5
45883,104292,4
45840,104241,2
45794,104148,3
45752,104050,5
45576,103762,5
45506,103691,5
45573,103832,5
45714,104073,4
45901,104440,5
46153,104876,5
46432,105373,5
46695,105858,5
46972,106310,4
47197,106701,6
47449,107133,4
47572,107283,5
47558,107268,5
47482,107121,4
47381,106934,5
47280,106745,5
47165,106595,5
47087,106496,4
46994,106325,4
46883,106104,5
46833,106071,5
46898,106195,5
46989,106290,4
46932,106177,5
46998,106313,5
47054,106407,5
47056,106343,5
46938,106092,4
46821,105875,5
46690,105676,5
46575,105418,5
46414,105142,5
46334,105041,4
46283,104899,5
46342,105092,6
46611,105525,6
46916,106072,3
47298,106737,4
47578,107114,5
47628,107176,5
47647,107228,5
47698,107273,5
47614,107070,4
47425,106754,5
47319,106632,5
47240,106492,5
47220,106474,4
47176,106338,4
47062,106196,5
47070,106257,5
47162,106400,5
47349,106744,4
47478,106913,5
47607,107171,5
47792,107512,5
47966,107819,5
48183,108185,4
48336,108497,5
48528,108865,5
48818,109401,6
49132,110011,4
49448,110474,4
49482,110481,5
49464,110553,5
49635,110867,5
49783,111113,5
49885,111255,4
49874,111263,5
49756,111005,5
49469,110578,5
49210,110148,5
48842,109634,4
48463,109079,5
48409,109121,5
48509,109232,5
48474,109224,4
48335,108910,4
48022,108397,5
47599,107630,5
47144,106926,5
46928,106638,5
46866,106512,4
46753,106306,5
46539,105877,5
46224,105253,5
45907,104732,4
45635,104238,5
45355,103702,5
45131,103381,5
45010,103140,5
44861,102878,4
44863,102903,5
45068,103304,5
45388,103798,5
45649,104143,5
45804,104354,4
45893,104484,5
46025,104656,5
46077,104659,5
45972,104452,5
45846,104191,4
45674,103891,5
45481,103503,5
45217,103066,5
45050,102777,4
44950,102591,5
44941,102572,4
45113,102819,5
45241,102946,5
45295,102999,4
45351,102996,5
45260,102785,5
45226,102696,5
45232,102639,5
45242,102595,4
45205,102525,5
45231,102538,5
45210,102503,5
45216,102481,5
45247,102513,4
45284,102555,5
45372,102729,5
45533,102990,5
45592,103048,5
45521,102904,4
45368,102636,5
45209,102370,5
45012,102021,5
44820,101690,5
44665,101446,4
44623,101392,6
44615,101374,4
44536,101203,5
44397,100924,4
44295,100721,5
44237,100576,5
44164,100370,5
44082,100255,5
44015,100064,4
43910,99825,5
43776,99553,5
43615,99228,5
43478,98924,5
43329,98632,4
43127,98230,5
42913,98347,5
42714,97972,5
42533,97610,5
42411,97341,4
42315,97053,5
42206,96811,5
42116,96643,5
42062,96545,5
42063,96459,4
42010,96294,5
41962,96175,5
41922,96094,5
41898,95993,5
41812,95793,4
41763,95692,5
41727,95633,5
41722,95587,5
41712,95536,4
41644,95328,5
41449,94981,5
41287,94670,5
41167,94382,5
41037,94070,4
40880,93745,5
40704,93358,5
40491,92942,5
40301,92530,5
40179,92302,4
40115,92107,5
40007,91822,5
39848,91502,5
39702,91175,5
39547,90848,4
39358,90464,5
39144,89998,5
38951,89578,5
38781,89166,5
38580,88725,4
38408,88345,5
38242,88024,5
38093,87670,5
37915,87298,4
37755,86952,4
37562,86523,5
37351,86084,5
37153,85673,5
36939,85246,4
36775,84907,5
36599,84546,5
36446,84212,5
36325,83931,5
36196,83628,4
36036,83271,6
35875,82955,4
35743,82652,5
35639,82432,5
35564,82266,6
35506,82131,3
35434,81942,5
35327,81722,5
35234,82156,5
35141,81971,4
35087,81881,5
35064,81829,5
35047,81779,5
34988,81655,5
34930,81534,4
34911,81456,5
34897,81424,5
34863,81349,5
34841,81321,4
34852,81331,4
34853,81319,5
34846,81296,5
34861,81301,5
34905,81391,4
34932,81460,5
34969,81528,6
34986,81562,4
34991,81535,5
34977,81507,4
34962,81470,7
34949,81435,3
34912,81337,5
34868,81234,5
34824,81150,4
34818,81120,5
34807,81108,5
34815,81099,5
34813,81085,5
34810,81054,4
34788,81018,5
34774,80977,5
34776,80990,5
34823,81069,5
34855,81141,4
34914,81234,5
34947,81299,5
34970,81321,5
34980,81362,4
35036,81454,4
35088,81562,5
35142,81644,6
35211,81763,4
35268,81830,4
35295,81911,5
35368,82011,5
35401,82066,5
35438,82144,5
35498,82255,4
35557,82400,5
35668,82609,5
35781,82821,5
35870,82997,5
35978,83232,4
36108,83495,5
36230,83742,5
36331,83919,5
36411,84066,5
36457,84166,4
36450,84166,5
36466,84188,5
36493,84265,5
36559,84390,5
36645,84571,4
36762,84792,5
36888,85055,5
37044,85358,6
37232,85745,3
37417,86090,4
37551,86296,5
37575,86297,5
37513,86172,5
37406,85996,4
37324,85825,5
37288,85764,5
37291,85764,5
37323,85796,5
37350,85816,4
37367,85811,5
37371,85813,5
37398,85838,5
37448,85866,5
37470,85865,4
37501,85900,5
37629,86107,5
37747,86284,5
37831,86374,5
37906,86497,5
37981,86584,4
38032,86660,5
38076,86729,5
38151,86799,6
38186,86858,3
38187,86807,5
38156,86768,5
38119,86672,5
38073,86551,4
38026,86428,4
37944,86287,5
37857,86102,5
37736,85882,5
37613,85630,4
37486,85397,5
37409,85220,5
37330,85093,5
37286,85006,5
37265,84975,4
37262,84971,5
37271,84993,5
37294,85036,5
37288,84995,5
37254,84932,4
37188,84823,6
37119,84678,4
37029,84497,5
36895,84254,5
36759,83980,4
36610,83706,5
36482,83455,5
36372,83280,5
36322,83129,5
36282,83065,4
36250,83015,5
36251,82997,5
36234,82953,5
36221,82938,5
36235,82966,4
36252,82994,5
36271,83010,5
36258,82989,5
36269,83013,4
36291,83076,5
36329,83149,5
36371,83203,5
36422,83314,5
36495,83467,4
36586,83628,5
36663,83729,6
36708,83817,4
36758,83886,5
36779,83915,4
36775,83904,5
36758,83865,5
36740,83808,5
36707,83737,5
36670,83653,4
36625,83580,5
36610,83540,5
36575,83439,5
36489,83295,5
36419,83171,4
36374,83059,5
36311,82948,5
36211,82776,5
36126,82594,5
36049,82426,4
35946,82217,5
35882,82080,5
35822,81979,5
35816,81909,4
35766,81804,5
35727,81701,5
35669,81594,6
35629,81490,4
35568,81375,4
35518,81262,5
35455,81111,5
35398,80994,5
35337,80872,5
35307,80814,4
35285,80776,5
35270,80766,5
35266,80747,5
35236,80677,5
35172,80561,4
35108,80415,5
35037,80266,5
34956,80126,5
34902,80003,5
34861,79915,4
34816,79808,5
34775,79722,5
34723,79632,5
34678,79532,5
34628,79447,4
34607,79398,5
34593,79359,5
34567,79321,6
34545,79285,3
34509,79221,4
34492,79154,5
34448,79070,5
34405,78972,5
34362,78883,4
34312,78783,5
34270,78695,5
34235,78599,5
34195,78511,5
34146,78416,4
34100,78316,5
34048,78212,5
34015,78108,5
33966,78012,5
33908,77901,4
33861,77787,5
33786,77624,5
33702,77424,5
33576,77167,5
33470,76932,5
33385,76734,4
33284,76534,5
33200,76349,5
33115,76180,5
33035,76023,4
32972,75850,5
32896,75672,5
32794,75447,5
32685,75205,4
33367,75008,4
33295,74831,5
33228,74696,5
33196,74626,5
33161,74524,4
33132,74458,5
33113,74417,5
33104,74397,5
33084,74358,5
33067,74305,4
33064,74285,5
33057,74294,5
33057,74303,5
33056,74331,5
33065,74333,4
33077,74359,6
33088,74380,4
33107,74421,5
33131,74460,5
33148,74509,4
33182,74586,5
33230,74669,5
33264,74746,5
33304,74814,5
33335,74858,4
33348,74899,5
33366,74928,5
33374,74938,5
33393,74984,8
33420,75039,1
33447,75081,5
33464,75116,5
33458,75109,5
33451,75045,4
33414,74956,5
33376,74880,5
33348,74813,5
33313,74768,5
33307,74759,4
33314,74780,5
33341,74824,6
33370,74890,4
33425,75021,5
33502,75171,4
33575,75334,5
33655,75503,5
33733,75625,5
33791,75746,5
33838,75848,4
33886,75956,5
33930,76033,5
33967,76114,5
34027,76239,5
34102,76384,4
34155,76490,5
34207,76587,5
34259,76696,5
34295,76780,5
34334,76860,4
34393,76979,5
34440,77092,5
34503,77191,5
34557,77315,4
34629,77450,5
34687,77587,5
34769,77750,6
34852,77935,4
34959,78135,4
35059,78321,5
35137,78484,5
35195,78580,5
35232,78630,5
35235,78636,4
35219,78598,5
35203,78536,5
35161,78465,5
35131,78438,5
35132,78432,4
35148,78462,5
35173,78479,5
35165,78447,5
35129,78399,5
35116,78356,4
35091,78321,5
35084,78299,5
35073,78304,5
35078,78292,5
35071,78295,4
35073,78323,5
35100,78351,5
35101,78385,5
35125,78415,4
35134,78428,4
35137,78434,5
35113,78388,5
35081,78322,5
35034,78218,4
34951,78075,5
34880,77935,5
34827,77855,5
34773,77766,5
34720,77649,4
34641,77480,5
34544,77278,5
34437,77047,5
34308,76803,5
34209,76588,4
34091,76390,5
34003,76192,5
33901,75979,5
33793,75788,5
33712,75609,5
33634,75413,4
33528,75216,5
33434,75015,5
33313,74742,5
33184,74474,4
33066,74234,5
32971,74029,5
32889,73846,5
32807,73670,4
32713,73454,4
32629,73298,5
32566,73190,5
32535,73135,5
32516,73097,4
32496,73068,5
32469,73003,5
32437,72934,5
32394,72840,5
32341,72733,4
32289,72595,5
32220,72457,5
32150,72299,5
32055,72064,5
31927,71779,4
31793,71473,6
31665,71179,4
31557,70945,5
31446,70716,5
31373,70534,4
31307,70408,5
31268,70317,5
31205,70135,5
31091,69862,5
30937,69511,4
30753,69106,5
30588,68762,5
30478,68490,5
30392,68289,5
30303,68118,4
30234,67948,5
30163,67778,5
30097,67616,5
30020,67456,4
29964,67311,5
29929,67240,5
29835,67137,5
29836,67143,4
29839,67137,4
29833,67104,5
29829,67100,5
29848,67154,5
29899,67269,5
29965,67397,4
30026,67521,5
30061,67591,5
30086,67656,5
30100,67692,5
30115,67715,4
30142,67780,5
30160,67817,5
30171,67820,5
30174,67836,5
30198,67897,4
30233,67967,5
30254,68013,5
30268,68052,5
30291,68102,5
30307,68095,4
30272,68020,5
30241,67956,5
30207,67877,6
30168,67798,3
30144,67732,5
30098,67642,5
30052,67511,5
29997,67389,5
29948,67300,4
29918,67212,5
29880,67132,5
29855,67052,5
29823,66965,5
29778,66855,4
29727,66721,5
29647,66569,5
29576,66386,5
29516,66217,5
29437,66055,4
29363,65858,5
29295,65702,5
29228,65543,5
29150,65347,5
29062,65832,5
28996,65648,4
28915,65438,5
28843,65249,5
28727,65016,6
28637,64799,3
28555,64581,5
28473,64376,5
28364,64097,5
28251,63808,4
28152,63560,4
28062,63362,5
27992,63195,5
27914,63011,5
27860,62900,4
27823,62825,5
27805,62740,5
27773,62679,5
27745,62602,5
27717,62539,4
27694,62470,5
27675,62432,5
27662,62369,5
27641,62320,5
27614,62268,4
27609,62219,6
27580,62171,4
27573,62129,5
27553,62098,5
27552,62074,6
27550,62057,3
27536,62015,5
27519,61999,5
27529,61999,5
27530,62002,4
27525,61995,5
27518,62007,5
27541,62034,5
27561,62076,5
27576,62119,4
27587,62139,5
27604,62182,5
27623,62223,5
27640,62251,4
27648,62299,5
27653,62325,5
27674,62368,5
27684,62405,5
27698,62425,4
27706,62451,5
27720,62466,6
27731,62487,4
27738,62527,5
27759,62577,4
27772,62623,5
27794,62655,5
27790,62638,5
27769,62615,5
27760,62569,4
27732,62506,5
27704,62430,5
27684,62380,5
27668,62347,5
27669,62351,4
27687,62398,5
27719,62457,5
27738,62511,5
27752,62549,5
27783,62602,4
27815,62672,5
27846,62766,5
27893,62871,5
27953,63026,4
28028,63187,5
28112,63397,5
28209,63625,6
28312,63834,4
28383,63984,4
28439,64128,5
28503,64272,5
28555,64373,5
28590,64462,5
28620,64504,4
28635,64554,5
28665,64636,5
28731,64763,5
28797,64942,5
28878,65146,4
28974,65340,5
29054,65531,5
29136,65699,5
29215,65868,5
29305,66056,4
29402,66284,5
29529,66554,5
29681,66920,5
29865,67348,5
30072,67817,4
30304,68295,5
30520,68805,5
30766,69335,6
31031,69925,3
31317,70536,4
31587,71151,5
31841,71675,5
32077,72146,5
32260,72521,4
32400,72820,5
32515,73056,5
32636,73302,5
32762,73586,5
32922,73905,4
33045,74174,5
33197,74483,5
33375,74853,5
33558,75252,5
33764,75672,4
33984,76134,5
34214,76605,5
34448,77066,5
34662,77480,5
34840,77855,5
34989,78145,4
35111,78436,5
35219,78682,5
35342,78952,6
35468,79220,3
35590,79495,5
35723,79793,5
35870,80090,5
36014,80426,4
36198,80788,4
36369,81093,5
36469,81268,5
36524,81334,5
36517,81338,4
36493,81300,5
36473,81272,5
36456,81208,5
36413,81119,5
36341,80993,4
36261,80802,5
36145,80579,5
36001,80288,5
35849,79976,5
35648,79569,4
35436,79166,6
35228,78767,4
35016,78374,5
34834,78009,5
34660,77676,4
34514,77397,5
34399,77169,5
34316,76990,5
34238,76844,5
34153,76651,4
34038,76414,5
33913,76168,5
33804,75953,5
33726,75780,5
33638,75592,4
33543,75389,5
33438,75188,5
33354,75017,5
33269,74846,4
33179,74680,5
33115,74528,5
33031,74368,5
32952,74177,5
32840,73956,4
32733,73726,5
32641,73535,6
32586,73410,4
32520,73271,5
32453,73125,4
32386,72985,5
32343,72867,5
32282,72736,5
32223,72621,5
32172,72516,4
32137,72447,5
32107,72358,5
32051,72246,5
31990,72106,5
31925,71944,4
31849,71811,5
31810,71708,5
31766,71612,5
31738,71510,5
31696,71423,4
31653,71326,5
31626,71245,5
31592,71190,5
