RED,IR,EKG,TIME
30415,60577,10
30410,60585,9
30422,60581,8
30426,60580,5
30417,60544,5
30413,60590,5
30450,60591,8
30439,60632,5
30439,60632,5
30441,60632,13
30439,60640,5
30452,60651,8
30452,60648,5
30468,60655,5
30465,60663,5
30459,60655,8
30459,60655,5
30420,60652,5
30456,60652,8
30462,60643,5
30451,60640,5
30452,60634,5
30442,60632,8
30448,60640,5
30457,60633,5
30450,60643,8
30453,60637,5
30445,60624,5
30449,60621,8
30449,60621,5
30442,60617,5
30438,60624,5
30441,60634,8
30435,60594,5
30435,60599,5
30452,60607,8
30453,60603,5
30445,60604,5
30426,60584,5
30425,60586,8
30430,60585,5
30425,60594,5
30406,60537,8
30406,60537,5
30387,60491,5
30386,60476,8
30381,60493,5
30377,60481,5
30384,60482,5
30358,60485,8
30349,60479,5
30371,60473,5
30378,60480,8
30374,60490,5
30377,60488,5
30382,60500,5
30383,60504,8
30383,60504,5
30385,60513,5
30395,60508,8
30386,60523,5
30399,60517,5
30393,60534,8
30399,60563,5
30413,60601,5
30418,60579,5
30411,60551,8
30410,60556,5
30410,60563,5
30396,60538,8
30396,60538,5
30406,60543,5
30394,60546,5
30403,60531,8
30394,60513,5
30379,60470,5
30362,60437,8
30345,60414,5
30353,60428,5
30353,60443,5
30351,60424,8
30351,60424,5
30351,60418,5
30329,60386,8
30304,60345,5
30290,60314,5
30291,60291,8
30297,60282,5
30273,60247,5
30399,60563,5
30240,60157,8
30217,60104,5
30192,60060,5
30187,60054,8
30187,60054,5
30209,60089,5
30235,60135,5
30251,60168,8
30261,60123,5
30216,60075,5
30203,60050,4
30213,60093,1
30225,60079,2
30217,60074,5
30218,60071,5
30227,60088,5
30239,60089,4
30247,60076,4
30220,60045,5
30211,60030,5
30213,60012,5
30222,60020,4
30220,60023,5
30234,60046,5
30236,60062,5
30225,60030,5
30188,59943,4
30125,59809,5
30082,59750,5
30077,59725,5
30074,59730,5
30088,59737,5
30090,59773,4
30113,59807,5
30103,59796,5
30104,59802,5
30111,59788,4
30111,59790,5
30101,59774,5
30099,59779,5
30094,59780,4
30100,59799,4
30128,59842,5
30142,59886,5
30171,59918,5
30174,59935,4
30176,59936,5
30180,59957,5
30192,59969,5
30202,60002,5
30198,59994,4
30188,59960,5
30178,59944,5
30169,59923,5
30155,59899,5
30151,59882,4
30150,59871,6
30141,59862,4
30137,59867,5
30141,59885,5
30152,59892,4
30162,59932,5
30175,59944,5
30178,59967,5
30191,59992,4
30203,60014,4
30216,60032,5
30208,60037,5
30225,60052,5
30227,60074,4
30237,60088,5
30246,60120,5
30268,60156,5
30290,60193,5
30307,60240,4
30318,60268,5
30337,60295,5
30352,60335,5
30368,60359,5
30387,60390,4
30397,60418,5
30418,60460,6
30431,60485,4
30439,60518,5
30461,60548,4
30475,60577,5
30479,60598,5
30492,60619,5
30507,60637,5
30503,60645,4
30515,60662,5
30524,60679,5
30530,60697,5
30539,60711,4
30545,60708,5
30548,60709,5
30550,60715,5
30540,60717,5
30543,60719,4
30540,60711,5
30546,60704,5
30539,60707,5
30543,60701,5
30544,60710,4
30545,60714,5
30537,60706,5
30543,60701,5
30534,60701,5
30529,60699,4
30531,60688,5
30530,60683,5
30537,60696,5
30533,60691,5
30525,60680,4
30520,60675,5
30517,60667,5
30520,60675,5
30520,60671,4
30514,60677,5
30525,60682,5
30519,60690,5
30530,60692,5
30525,60697,4
30530,60695,5
30533,60703,5
30540,60706,5
30529,60717,5
30543,60719,5
30552,60738,4
30554,60737,5
30556,60743,5
30556,60745,5
30564,60760,4
30570,60758,5
30571,60764,5
30566,60761,5
30564,60757,5
30566,60749,4
30567,60757,5
30560,60753,5
30565,60742,5
30564,60748,4
30557,60749,4
30567,60754,5
30563,60750,5
30559,60758,5
30575,60752,4
30565,60749,5
30564,60745,5
30560,60747,4
30560,60744,5
30557,60740,4
30551,60741,7
30558,60755,3
30567,60756,5
30562,60752,5
30567,60751,4
30562,60746,5
30566,60745,5
30547,60737,5
30557,60731,5
30554,60735,4
30557,60731,5
30551,60723,5
30551,60731,5
30552,60724,4
30545,60735,4
30550,60730,5
30550,60734,5
30555,60738,5
30544,60730,4
30558,60739,5
30550,60740,5
30557,60743,6
30557,60740,4
30555,60745,4
30563,60760,5
30574,60766,5
30565,60764,5
30568,60756,5
30559,60747,4
30563,60747,5
30562,60749,5
30561,60747,5
30560,60745,5
30548,60742,4
30553,60738,5
30556,60729,5
30563,60726,5
30551,60728,5
30545,60733,4
30545,60731,5
30548,60732,5
30553,60730,5
30545,60722,5
30545,60724,4
30561,60728,5
30552,60728,5
30547,60720,6
30542,60716,3
30550,60713,5
30540,60706,5
30540,60705,5
30537,60706,5
30533,60702,4
30541,60692,5
30536,60696,5
30531,60687,5
30530,60693,5
30535,60683,4
30539,60696,5
30540,60696,5
30530,60698,5
30536,60693,5
30536,60701,4
30538,60697,5
30535,60705,5
30540,60698,5
30526,60690,4
30526,60694,6
30540,60701,4
30537,60702,5
30528,60693,5
30541,60699,6
30536,60692,3
30529,60696,5
30532,60700,5
30539,60697,5
30535,60693,4
30539,60701,5
30533,60707,5
30533,60697,5
30533,60689,5
30535,60694,4
30533,60684,5
30527,60684,5
30526,60689,5
30524,60682,5
30519,60677,4
30530,60679,5
30532,60674,5
30530,60678,5
30529,60677,4
30523,60674,4
30527,60683,6
30531,60681,4
30532,60677,5
30518,60674,4
30527,60676,5
30526,60667,5
30528,60677,5
30526,60682,5
30532,60684,4
30535,60687,5
30533,60694,5
30533,60704,5
30545,60707,5
30536,60706,4
30534,60712,5
30527,60692,5
30533,60690,5
30541,60693,5
30537,60692,4
30531,60691,5
30536,60696,5
30541,60691,5
30532,60698,4
30540,60689,4
30531,60697,5
30546,60712,6
30541,60701,4
30544,60711,4
30543,60713,5
30544,60719,5
30552,60711,5
30550,60713,5
30548,60721,4
30537,60711,5
30537,60712,5
30540,60698,5
30539,60707,5
30541,60695,4
30531,60693,5
30541,60692,5
30535,60704,5
30533,60690,5
30535,60696,4
30540,60698,5
30538,60703,5
30535,60707,5
30539,60707,5
30535,60706,4
30540,60704,5
30527,60700,5
30540,60698,6
30524,60692,3
30530,60695,5
30532,60691,5
30525,60688,5
30530,60687,5
30530,60685,4
30529,60690,5
30526,60683,5
30531,60685,5
30533,60686,5
30534,60691,4
30527,60691,5
30535,60689,5
30535,60689,5
30541,60688,5
30526,60692,4
30533,60692,5
30542,60687,5
30529,60690,5
30531,60688,5
30536,60700,5
30533,60695,8
30529,60696,1
30527,60710,5
30543,60703,4
30538,60705,5
30528,60701,5
30538,60702,5
30537,60701,5
30540,60700,4
30534,60695,5
30532,60701,5
30539,60696,5
30532,60698,5
30530,60699,4
30531,60697,5
30540,60698,5
30527,60697,5
30540,60693,5
30540,60696,4
30538,60704,5
30543,60699,5
30539,60702,5
30549,60700,5
30533,60696,4
30529,60704,6
30532,60692,4
30533,60692,5
30531,60684,4
30525,60681,5
30527,60685,5
30527,60687,5
30529,60677,5
30522,60685,4
30526,60680,5
30527,60672,5
30527,60683,5
30532,60686,5
30533,60697,4
30537,60689,5
30532,60684,5
30524,60693,5
30529,60692,5
30520,60671,4
30521,60676,5
30523,60679,5
30519,60678,5
30516,60665,5
30522,60673,4
30521,60679,5
30529,60677,6
30534,60690,4
30535,60698,4
30532,60702,4
30541,60701,5
30531,60698,5
30530,60681,5
30529,60687,4
30529,60682,5
30528,60678,5
30525,60671,5
30531,60678,5
30523,60680,4
30523,60677,5
30529,60683,5
30529,60681,5
30532,60687,5
30530,60684,4
30532,60689,5
30533,60699,5
30530,60693,5
30540,60702,5
30547,60704,4
30532,60710,5
30536,60707,5
30544,60708,5
30541,60711,4
30541,60707,4
30529,60706,5
30543,60708,5
30540,60708,5
30544,60707,4
30534,60712,5
30538,60703,5
30541,60702,5
30535,60706,5
30541,60710,4
30533,60710,5
30539,60700,5
30535,60701,5
30540,60707,5
30546,60704,4
30539,60698,5
30534,60698,5
30540,60700,5
30533,60695,5
30527,60699,5
30534,60692,4
30531,60697,5
30527,60690,5
30531,60691,4
30524,60685,4
30529,60687,5
30525,60683,5
30523,60686,5
30526,60677,4
30521,60688,5
30523,60688,5
30522,60689,5
30528,60685,5
30529,60681,4
30528,60699,5
30528,60686,5
30531,60689,5
30530,60691,5
30531,60688,4
30526,60687,5
30530,60682,5
30530,60685,5
30529,60691,5
30528,60691,4
30521,60682,6
30530,60684,4
30527,60689,5
30525,60685,5
30528,60684,4
30517,60680,5
30533,60676,5
30528,60685,5
30534,60685,4
30528,60681,5
30533,60670,5
30527,60677,5
30514,60672,5
30517,60682,4
30521,60672,5
30519,60676,5
30526,60677,5
30526,60669,5
30509,60669,4
30518,60667,5
30518,60671,5
30521,60665,5
30514,60669,5
30510,60670,4
30522,60660,5
30518,60660,5
30521,60665,5
30516,60653,5
30509,60657,4
30519,60653,5
30516,60655,5
30511,60659,5
30512,60646,4
30509,60655,5
30506,60652,5
30507,60653,5
30506,60650,5
30504,60637,4
30502,60642,5
30505,60641,5
30500,60634,5
30499,60628,5
30496,60641,4
30506,60630,5
30501,60631,5
30497,60623,5
30497,60626,5
30502,60623,4
30497,60623,5
30497,60620,5
30499,60627,5
30498,60637,5
30501,60629,4
30495,60633,5
30510,60640,5
30506,60630,5
30500,60637,4
30496,60613,5
30488,60622,5
30490,60612,5
30505,60624,5
30495,60619,4
30489,60625,5
30494,60620,5
30498,60623,5
30502,60621,5
30494,60622,4
30488,60617,6
30502,60617,4
30503,60622,5
30493,60628,5
30495,60634,6
30500,60615,3
30493,60622,5
30494,60631,5
30493,60632,5
30502,60625,4
30482,60619,5
30494,60622,5
30500,60628,5
30495,60623,4
30498,60620,4
30497,60627,5
30499,60624,5
30490,60621,5
30492,60621,4
30492,60618,5
30489,60634,5
30497,60625,5
30495,60625,5
30498,60629,4
30490,60628,5
30502,60628,6
30489,60615,4
30489,60611,5
30487,60621,4
30496,60609,5
30490,60621,5
30487,60612,5
30492,60618,5
30483,60607,4
30485,60607,5
30481,60610,5
30485,60610,5
30487,60616,4
30483,60608,4
30488,60599,5
30485,60608,5
30483,60601,5
30480,60602,4
30478,60598,5
30476,60600,5
30476,60598,5
30488,60611,5
30487,60618,4
30489,60609,5
30480,60609,5
30487,60609,6
30482,60616,4
30484,60611,4
30485,60608,5
30486,60609,5
30486,60606,5
30483,60607,5
30477,60605,4
30478,60596,5
30477,60600,5
30477,60602,5
30485,60601,5
30472,60594,4
30475,60594,5
30477,60593,5
30485,60591,5
30470,60594,4
30468,60600,5
30472,60586,5
30472,60577,5
30462,60574,5
30459,60569,5
30461,60577,4
30465,60571,5
30462,60556,5
30460,60555,6
30451,60555,3
30461,60553,5
30458,60551,5
30457,60539,5
30455,60538,5
30451,60549,4
30441,60545,5
30447,60541,5
30450,60539,5
30454,60535,5
30451,60540,4
30449,60547,5
30442,60531,5
30445,60539,5
30445,60540,4
30443,60533,5
30451,60543,5
30450,60547,5
30449,60547,5
30458,60554,4
30455,60559,6
30447,60564,4
30454,60570,5
30461,60550,5
30460,60563,6
30456,60559,3
30456,60556,5
30462,60563,5
30468,60580,5
30462,60570,4
30470,60585,5
30471,60586,5
30477,60582,5
30472,60589,5
30481,60596,4
30483,60611,5
30483,60609,5
30480,60615,5
30491,60617,4
30490,60620,5
30486,60618,5
30489,60618,5
30496,60631,5
30497,60631,4
30494,60625,5
30492,60623,6
30488,60625,4
30496,60622,5
30495,60625,4
30495,60621,5
30489,60611,5
30487,60608,5
30484,60600,5
30490,60602,4
30479,60587,5
30479,60594,5
30468,60588,5
30476,60575,5
30464,60590,4
30473,60588,5
30466,60572,5
30469,60562,5
30461,60557,4
30448,60535,5
30445,60539,5
30438,60527,5
30443,60521,5
30446,60525,4
30448,60531,5
30448,60541,5
30448,60537,6
30445,60532,4
30442,60541,4
30457,60546,5
30455,60542,5
30452,60527,5
30438,60519,5
30430,60505,4
30418,60475,5
30407,60465,5
30397,60421,5
30378,60394,5
30376,60378,4
30375,60375,5
30372,60376,5
30376,60393,5
30373,60406,4
30383,60406,5
30382,60397,5
30367,60371,5
30347,60326,5
30330,60277,5
30320,60264,4
30316,60254,5
30312,60250,5
30304,60234,6
30295,60233,3
30292,60217,5
30293,60214,5
30290,60200,5
30283,60199,5
30289,60195,4
30277,60167,5
30264,60138,5
30234,60094,5
30230,60062,5
30222,60059,4
30212,60048,5
30202,60009,5
30178,59975,5
30167,59959,4
30172,59951,5
30170,59960,5
30172,59969,5
30184,59970,5
30179,59954,4
30164,59929,6
30138,59891,4
30121,59831,5
30093,59771,5
30060,59727,4
30060,59703,5
30055,59726,5
30085,59787,5
30104,59823,5
30099,59817,4
30104,59821,5
30114,59820,5
30103,59800,5
30103,59784,5
30089,59761,4
30072,59738,5
30073,59747,5
30076,59769,5
30092,59784,4
30097,59800,5
30098,59797,5
30114,59826,5
30125,59873,5
30159,59913,4
30161,59940,5
30161,59925,6
30148,59900,4
30135,59883,5
30133,59857,4
30122,59860,5
30132,59871,5
30149,59894,5
30157,59933,5
30171,59945,4
30168,59939,5
30152,59898,5
30130,59856,5
30118,59845,5
30128,59849,4
30128,59868,7
30141,59900,3
30160,59919,5
30155,59927,4
30159,59932,5
30161,59945,5
30165,59952,5
30181,59984,5
30198,60014,4
30203,60029,5
30218,60043,5
30206,60034,6
30197,59997,4
30185,60007,4
30178,59980,5
30182,59986,5
30173,59990,5
30185,59983,5
30169,59965,4
30169,59956,5
30168,59945,5
30164,59953,5
30181,59976,5
30177,59979,4
30190,59994,5
30192,60007,5
30199,60016,5
30212,60033,4
30212,60050,5
30221,60076,5
30227,60090,5
30249,60105,5
30263,60125,5
30257,60152,4
30281,60165,5
30274,60175,5
30273,60177,5
30280,60184,4
30283,60190,5
30283,60197,5
30291,60204,5
30301,60228,5
30307,60248,4
30317,60254,5
30325,60265,5
30323,60277,5
30324,60282,5
30340,60295,4
30341,60296,5
30345,60301,5
30349,60303,5
30344,60305,4
30338,60317,5
30342,60318,5
30351,60322,5
30357,60335,5
30359,60349,4
30364,60355,6
30369,60372,4
30380,60384,5
30393,60403,5
30394,60418,4
30400,60416,5
30397,60425,5
30402,60430,5
30395,60428,5
30403,60434,4
30406,60449,5
30414,60462,5
30414,60467,5
30422,60473,5
30437,60498,4
30432,60503,5
30439,60508,5
30443,60517,5
30445,60530,4
30458,60531,5
30465,60543,5
30471,60563,5
30458,60574,5
30471,60566,4
30476,60572,5
30462,60576,5
30480,60581,5
30479,60589,5
30482,60577,4
30486,60589,5
30482,60586,5
30487,60598,5
30482,60590,5
30482,60582,4
30481,60579,5
30483,60584,5
30479,60590,5
30482,60587,5
30478,60586,4
30479,60590,5
30471,60577,5
30475,60575,5
30471,60576,4
30472,60573,4
30470,60574,5
30474,60569,5
30467,60564,6
30476,60572,3
30472,60564,5
30469,60563,5
30473,60566,5
30466,60580,5
30470,60561,4
30469,60557,5
30465,60553,5
30464,60555,5
30457,60556,5
30463,60560,4
30467,60562,5
30462,60561,5
30474,60550,5
30468,60558,5
30469,60563,4
30467,60552,5
30475,60560,5
30468,60556,5
30471,60563,4
30463,60567,6
30470,60568,4
30470,60568,5
30474,60561,5
30482,60568,6
30472,60569,3
30474,60573,5
30474,60574,5
30474,60574,5
30466,60571,4
30476,60573,5
30472,60575,5
30474,60571,5
30476,60585,5
30466,60568,4
30478,60580,5
30478,60580,5
30476,60572,5
30482,60580,5
30478,60582,4
30483,60579,5
30480,60569,5
30472,60576,5
30479,60592,4
30477,60597,4
30487,60602,6
30491,60604,4
30489,60601,5
30482,60591,4
30474,60589,7
30474,60583,3
30485,60597,5
30476,60593,5
30476,60589,4
30481,60591,5
30485,60601,5
30483,60599,5
30483,60597,5
30485,60609,4
30487,60597,5
30490,60611,5
30496,60611,5
30498,60618,5
30489,60626,4
30490,60624,5
30495,60629,5
30504,60625,5
30499,60636,4
30506,60625,4
30499,60628,5
30509,60632,6
30495,60634,4
30502,60634,4
30493,60631,5
30499,60626,5
30496,60633,5
30499,60622,5
30507,60629,4
30492,60618,5
30495,60628,5
30502,60617,5
30483,60620,5
30495,60623,4
30492,60618,5
30490,60613,5
30494,60608,5
30491,60620,5
30496,60611,4
30499,60609,5
30483,60603,5
30478,60599,5
30486,60593,5
30481,60591,4
30480,60596,5
30481,60590,5
30482,60590,6
30481,60593,3
30483,60590,5
30476,60589,5
30480,60585,5
30482,60600,5
30484,60598,4
30477,60598,5
30480,60599,5
30482,60602,5
30490,60609,5
30487,60601,4
30491,60594,5
30476,60599,5
30481,60590,5
30475,60599,5
30482,60598,4
30482,60595,5
30482,60589,5
30478,60590,5
30482,60600,5
30477,60589,5
30479,60588,4
30478,60591,5
30475,60582,5
30481,60579,6
30480,60589,3
30476,60577,5
30479,60583,5
30478,60579,5
30471,60580,4
30473,60575,5
30476,60573,5
30474,60576,5
30474,60578,5
30465,60578,4
30473,60584,5
30470,60566,5
30478,60577,5
30469,60570,5
30463,60571,4
30467,60563,5
30467,60549,5
30470,60553,5
30464,60551,5
30459,60565,4
30465,60564,6
30473,60567,4
30471,60577,5
30480,60580,4
30481,60578,5
30480,60572,5
30475,60571,5
30472,60561,5
30463,60565,4
30471,60561,5
30470,60561,5
30471,60563,5
30471,60563,5
30473,60568,4
30470,60570,5
30465,60573,5
30477,60583,5
30479,60577,5
30481,60590,4
30469,60590,5
30484,60597,5
30486,60593,5
30482,60594,5
30478,60585,4
30489,60588,5
30487,60597,6
30482,60600,4
30482,60587,4
30486,60600,4
30483,60600,5
30484,60600,5
30489,60603,5
30490,60602,4
30489,60605,5
30486,60605,5
30484,60606,5
30489,60600,5
30483,60597,4
30486,60592,5
30481,60602,5
30486,60598,5
30486,60596,5
30486,60591,4
30486,60586,5
30482,60590,5
30484,60592,5
30478,60593,5
30482,60592,4
30481,60594,5
30478,60594,5
30474,60584,6
30476,60589,3
30467,60585,4
30479,60589,5
30467,60583,5
30483,60590,5
30476,60587,4
30483,60587,5
30471,60585,5
30478,60584,5
30478,60596,5
30487,60597,4
30490,60596,5
30489,60588,5
30478,60596,5
30478,60597,5
30493,60600,4
30484,60601,5
30480,60602,5
30487,60593,5
30481,60602,5
30485,60598,5
30491,60601,4
30490,60597,5
30488,60590,5
30484,60600,5
30476,60597,4
30480,60598,5
30488,60604,5
30481,60599,5
30480,60595,4
30484,60599,5
30490,60601,5
30487,60584,5
30483,60593,5
30481,60592,4
30479,60597,5
30483,60591,5
30487,60584,5
30485,60593,5
30478,60586,4
30470,60592,5
30482,60580,5
30477,60587,5
30481,60592,5
30472,60590,4
30475,60593,6
30484,60583,4
30480,60584,5
30481,60576,5
30484,60584,4
30481,60583,5
30483,60576,5
30479,60587,5
30475,60583,4
30473,60575,5
30470,60565,5
30471,60562,5
30475,60573,5
30472,60578,4
30473,60583,5
30473,60584,5
30474,60579,5
30479,60588,5
30478,60593,4
30484,60595,5
30489,60593,5
30479,60589,5
30475,60576,5
30481,60587,4
30483,60581,5
30476,60592,6
30479,60591,4
30477,60589,5
30476,60589,4
30480,60595,5
30489,60591,5
30478,60600,5
30477,60598,4
30492,60593,5
30486,60602,5
30489,60613,5
30494,60605,5
30485,60606,4
30494,60619,5
30490,60620,5
30492,60617,5
30487,60620,5
30496,60627,4
30488,60619,5
30494,60622,5
30488,60615,5
30493,60628,5
30497,60615,4
30492,60620,5
30496,60623,5
30500,60611,5
30496,60624,5
30496,60618,4
30496,60614,5
30499,60622,5
30489,60620,5
30499,60626,4
30493,60619,5
30490,60615,5
30498,60619,5
30483,60616,5
30483,60617,4
30483,60612,5
30483,60605,5
30484,60608,5
30492,60618,5
30488,60605,4
30485,60615,5
30494,60615,5
30491,60611,5
30496,60612,5
30485,60609,5
30481,60619,4
30490,60609,5
30483,60608,5
30487,60609,5
30494,60615,9
30494,60608,0
30489,60593,5
30496,60615,5
30488,60618,4
30499,60609,5
30491,60613,5
30497,60615,5
30493,60609,5
30496,60621,4
30491,60618,5
30499,60624,5
30492,60611,5
30495,60610,5
30489,60602,4
30491,60613,5
30492,60612,5
30488,60617,5
30479,60609,5
30489,60620,4
30490,60611,6
30486,60614,4
30497,60610,5
30493,60617,5
30492,60616,4
30485,60607,5
30490,60612,5
30490,60609,5
30481,60609,4
30476,60607,5
30489,60599,5
30485,60600,5
30488,60596,5
30481,60599,4
30479,60603,5
30485,60600,5
30486,60597,5
30484,60590,5
30476,60589,4
30474,60593,5
30481,60579,5
30477,60579,6
30476,60573,4
30472,60579,4
30474,60573,5
30475,60555,5
30468,60572,5
30469,60565,5
30466,60560,4
30460,60559,5
30461,60556,5
30456,60540,5
30451,60544,4
30456,60525,5
30439,60525,5
30453,60517,5
30440,60522,5
30436,60515,4
30448,60518,5
30440,60526,5
30444,60524,5
30440,60529,5
30450,60529,5
30456,60534,4
30461,60537,5
30461,60561,5
30465,60550,6
30454,60543,3
30447,60535,5
30451,60533,5
30450,60531,5
30457,60539,5
30465,60545,4
30452,60558,5
30463,60560,5
30460,60569,5
30472,60578,4
30475,60595,5
30485,60609,5
30491,60610,5
30491,60634,5
30506,60642,4
30519,60654,5
30511,60667,5
30517,60672,5
30523,60680,5
30523,60666,4
30523,60678,6
30524,60683,4
30525,60678,5
30526,60688,5
30535,60692,6
30529,60698,3
30535,60703,5
30545,60708,5
30547,60726,4
30546,60729,4
30556,60744,5
30548,60744,5
30552,60742,5
30545,60743,4
30558,60747,5
30556,60745,5
30550,60750,5
30553,60729,5
30548,60733,4
30551,60735,5
30556,60727,5
30547,60727,5
30545,60739,5
30554,60730,4
30553,60731,5
30550,60739,6
30556,60738,4
30558,60754,5
30568,60788,4
30591,60795,5
30577,60798,5
30578,60793,5
30576,60767,4
30573,60760,4
30550,60727,5
30539,60707,5
30534,60693,5
30529,60668,4
30515,60626,5
30505,60624,5
30499,60620,5
30497,60611,5
30505,60606,4
30492,60604,5
30482,60596,5
30488,60604,5
30493,60606,5
30487,60610,4
30483,60599,5
30485,60582,5
30478,60573,6
30467,60557,4
30470,60552,4
30465,60541,5
30457,60533,5
30447,60533,5
30455,60532,4
30456,60544,4
30471,60552,5
30476,60561,5
30481,60585,5
30479,60591,4
30491,60584,5
30478,60599,5
30482,60600,5
30495,60599,5
30487,60604,4
30491,60610,5
30492,60612,5
30493,60614,5
30487,60612,5
30495,60618,5
30507,60637,4
30508,60650,5
30515,60670,5
30526,60686,6
30529,60692,3
30538,60710,5
30549,60721,5
30549,60727,5
30553,60723,4
30548,60720,4
30541,60706,5
30538,60705,5
30540,60710,5
30538,60707,4
30544,60689,5
30543,60694,5
30542,60692,5
30533,60691,5
30525,60678,4
30524,60651,5
30509,60646,5
30511,60643,5
30508,60647,5
30519,60640,4
30508,60641,6
30514,60646,4
30518,60655,5
30513,60649,5
30516,60651,4
30508,60654,5
30517,60663,5
30516,60657,5
30515,60653,4
30522,60647,4
30514,60632,5
30504,60636,5
30513,60629,5
30509,60634,4
30507,60617,5
30493,60612,5
30490,60609,5
30491,60611,5
30487,60621,4
30493,60599,5
30490,60617,5
30484,60601,5
30481,60595,5
30480,60575,4
30470,60578,5
30482,60591,6
30489,60602,4
30495,60617,5
30497,60627,4
30508,60630,5
30499,60629,5
30495,60634,5
30502,60621,4
30493,60609,4
30497,60618,5
30496,60608,5
30489,60613,5
30492,60605,4
30494,60608,5
30492,60590,5
30468,60546,5
30448,60503,5
30431,60470,4
30414,60456,5
30411,60449,5
30408,60449,5
30414,60450,5
30423,60472,4
30422,60478,5
30432,60476,5
30429,60495,6
30443,60497,4
30447,60502,4
30436,60477,5
30413,60439,5
30388,60394,5
30368,60333,4
30342,60284,4
30324,60270,5
30331,60272,5
30339,60295,5
30344,60297,4
30340,60285,5
30333,60279,5
30328,60277,5
30326,60266,5
30337,60273,4
30327,60259,5
30317,60249,5
30315,60236,5
30301,60211,5
30296,60195,5
30285,60183,4
30290,60193,5
30293,60185,5
30288,60183,5
30284,60166,4
30265,60149,5
30276,60136,5
30264,60128,5
30250,60103,4
30241,60071,4
30214,60026,5
30196,59973,5
30182,59961,5
30186,59959,4
30188,59964,5
30191,59987,5
30210,60003,5
30204,59998,5
30206,59981,4
30192,59964,5
30171,59935,5
30176,59931,5
30175,59923,5
30179,59957,4
30193,59964,6
30186,59961,4
30183,59949,5
30184,59967,5
30195,59974,4
30186,59964,5
30192,59949,5
30185,59954,5
30196,59969,5
30214,60025,4
30247,60086,5
30281,60147,5
30288,60170,5
30277,60134,4
30249,60062,5
30232,60023,5
30222,60006,5
30220,60002,5
30224,60010,4
30237,60040,5
30260,60105,5
30276,60137,5
30291,60145,5
30289,60146,4
30275,60116,5
30269,60094,6
30256,60066,4
30236,60033,5
30228,60000,4
30221,59996,5
30219,59993,5
30217,59986,5
30211,59996,5
30228,60005,4
30241,60039,5
30251,60067,5
30251,60054,5
30239,60038,4
30236,60027,5
30234,60014,5
30216,59985,5
30189,59923,5
30153,59882,4
30153,59856,5
30152,59868,5
30169,59902,5
30183,59920,5
30173,59915,4
30183,59909,5
30176,59921,5
30195,59941,5
30204,59978,5
30220,59997,4
30210,59977,5
30197,59943,5
30181,59921,5
30183,59909,5
30184,59897,4
30168,59910,5
30195,59926,5
30202,59978,5
30222,60012,4
30232,60035,4
30236,60055,5
30259,60062,5
30253,60081,5
30271,60108,4
30272,60107,5
30279,60108,5
30271,60105,5
30262,60110,5
30275,60120,5
30280,60137,4
30297,60166,5
30297,60184,5
30309,60202,5
30325,60221,4
30337,60251,5
30335,60264,5
30349,60278,5
30347,60284,5
30349,60283,4
30352,60294,5
30355,60301,5
30369,60319,5
30379,60337,4
30378,60352,4
30397,60375,5
30400,60388,5
30416,60423,5
30431,60457,4
30452,60502,5
30473,60544,5
30495,60579,4
30508,60605,5
30513,60623,4
30523,60621,6
30528,60632,3
30524,60648,5
30528,60647,5
30536,60649,4
30546,60654,5
30537,60665,5
30536,60666,5
30542,60664,5
30547,60659,4
30539,60658,5
30546,60677,5
30545,60681,5
30547,60694,5
30563,60714,4
30570,60724,5
30585,60745,5
30583,60752,5
30585,60767,4
30598,60765,5
30603,60781,5
30610,60790,6
30612,60784,4
30610,60790,4
30606,60787,5
30608,60795,5
30609,60793,5
30611,60790,5
30614,60787,4
30614,60797,5
30610,60797,5
30610,60790,5
30604,60789,5
30607,60786,4
30608,60791,5
30608,60784,5
30608,60793,5
30609,60788,5
30609,60794,4
30605,60779,5
30597,60786,5
30599,60794,5
30606,60790,5
30610,60785,7
30598,60787,2
30607,60791,5
30608,60783,6
30602,60780,3
30607,60778,5
30592,60783,5
30604,60773,5
30594,60768,5
30604,60772,4
30594,60769,5
30593,60770,5
30598,60764,5
30602,60767,5
30601,60760,4
30594,60771,5
30598,60768,5
30589,60773,5
30591,60768,5
30597,60768,4
30595,60762,5
30593,60771,5
30593,60759,5
30592,60752,4
30593,60750,5
30591,60752,4
30588,60758,5
30589,60760,5
30579,60754,6
30592,60754,3
30589,60758,5
30592,60765,5
30585,60769,5
30591,60770,4
30585,60773,5
30579,60765,5
30596,60761,5
30591,60751,5
30577,60755,4
30588,60758,5
30582,60758,5
30596,60781,5
30600,60791,5
30609,60797,4
30603,60789,5
30605,60790,5
30608,60784,5
30593,60776,4
30597,60782,4
30595,60788,6
30601,60798,4
30601,60800,5
30597,60795,4
30606,60790,5
30606,60801,5
30607,60801,5
30605,60806,5
30612,60807,4
30613,60821,5
30620,60830,5
30615,60821,5
30616,60827,5
30620,60831,4
30613,60833,5
30623,60830,5
30626,60834,5
30621,60831,5
30616,60845,4
30619,60836,5
30630,60837,5
30626,60843,5
30629,60849,5
30632,60844,4
30627,60854,5
30618,60846,6
30628,60841,4
30629,60835,4
30633,60847,5
30632,60855,5
30630,60846,5
30632,60846,5
30629,60840,4
30622,60840,5
30626,60845,5
30622,60841,5
30622,60841,5
30616,60845,4
30620,60838,5
30626,60836,5
30619,60835,5
30622,60842,5
30624,60838,4
30619,60840,5
30624,60829,5
30618,60825,5
30612,60821,5
30612,60828,4
30617,60824,5
30614,60823,5
30617,60817,6
30620,60827,3
30615,60825,5
30618,60825,5
30612,60834,5
30614,60826,5
30620,60831,4
30625,60834,5
30623,60837,5
30619,60845,5
30622,60841,5
30615,60844,4
30623,60845,5
30622,60850,5
30627,60843,5
30624,60847,5
30625,60847,4
30627,60846,5
30620,60842,5
30623,60834,5
30618,60834,5
30615,60828,5
30610,60827,4
30610,60818,5
30612,60821,5
30608,60807,4
30610,60801,4
30609,60804,5
30600,60806,5
30604,60810,5
30603,60802,4
30605,60812,5
30600,60810,5
30596,60798,5
30601,60801,5
30598,60786,4
30583,60768,5
30570,60736,5
30562,60724,5
30547,60706,5
30537,60687,4
30537,60667,5
30528,60654,5
30526,60646,5
30516,60634,5
30516,60632,4
30508,60618,6
30498,60591,4
30474,60563,5
30478,60555,4
30476,60545,4
30467,60538,5
30453,60524,5
30452,60509,5
30456,60504,4
30449,60492,5
30442,60491,5
30443,60479,5
30436,60475,5
30432,60474,4
30430,60485,5
30438,60479,5
30452,60500,5
30437,60483,5
30430,60479,4
30434,60479,5
30436,60471,5
30428,60470,5
30437,60479,5
30432,60474,4
30439,60463,5
30423,60436,6
30407,60393,4
30377,60358,4
30370,60328,4
30370,60338,5
30363,60328,5
30370,60341,5
30376,60343,4
30371,60342,5
30366,60335,5
30364,60343,5
30374,60342,5
30371,60344,4
30366,60343,5
30374,60339,5
30364,60311,5
30358,60304,5
30348,60287,4
30328,60253,5
30327,60241,5
30312,60220,5
30294,60161,5
30267,60113,4
30243,60090,5
30238,60073,5
30225,60051,5
30217,60027,4
30210,60011,4
30186,59979,5
30176,59960,5
30179,59950,5
30177,59964,4
30186,59981,5
30204,59996,5
30209,60016,5
30211,60025,5
30219,60022,4
30206,59994,5
30200,59995,5
30201,59996,5
30189,60006,5
30209,60012,4
30223,60034,5
30212,60017,5
30194,59975,5
30165,59914,5
30138,59867,5
30137,59857,4
30140,59864,5
30142,59875,5
30136,59860,5
30128,59845,4
30124,59828,5
30112,59846,5
30115,59827,5
30112,59810,4
30099,59792,5
30100,59791,5
30100,59806,5
30113,59811,5
30108,59803,4
30100,59795,5
30082,59740,5
30063,59696,5
30051,59691,5
30055,59696,4
30064,59730,5
30072,59744,5
30082,59765,5
30090,59765,5
30080,59733,4
30069,59713,6
30061,59704,4
30063,59705,5
30064,59713,5
30074,59720,4
30072,59710,5
30066,59706,5
30067,59707,5
30059,59709,4
30062,59691,5
30036,59648,5
30024,59636,5
30029,59638,5
30032,59653,4
30045,59668,5
30051,59689,5
30058,59681,5
30051,59696,5
30059,59719,4
30079,59756,5
30091,59763,5
30095,59798,5
30104,59803,5
30098,59753,4
30062,59693,5
30056,59687,5
30060,59696,5
30069,59739,5
30095,59768,4
30102,59809,5
30091,59763,5
30062,59692,5
30041,59653,4
30038,59653,5
30037,59668,5
30043,59674,5
30037,59655,5
30033,59637,4
30021,59632,5
30035,59655,5
30054,59698,5
30080,59759,5
30108,59805,4
30119,59812,5
30116,59800,5
30098,59775,5
30086,59752,5
30077,59722,4
30068,59712,5
30059,59680,5
30043,59659,5
30049,59674,5
30056,59713,4
30082,59733,5
30084,59740,5
30070,59714,5
30061,59707,4
30066,59703,4
30067,59730,5
30096,59777,5
30116,59829,5
30144,59876,4
30153,59899,5
30170,59923,5
30189,59946,5
30187,59945,5
30178,59933,4
30169,59928,6
30183,59952,4
30206,59989,5
30210,59998,5
30213,60005,6
30218,60011,3
30216,60015,5
30213,60022,5
30226,60026,5
30224,60046,4
30232,60065,5
30253,60096,5
30267,60118,5
30271,60141,4
30290,60160,4
30294,60171,5
30289,60166,5
30292,60180,5
30306,60193,4
30309,60206,5
30336,60244,5
30335,60259,5
30345,60272,5
30343,60274,4
30335,60286,5
30348,60304,6
30360,60317,4
30379,60339,5
30388,60367,4
30404,60404,5
30408,60428,5
30416,60435,5
30423,60437,5
30417,60432,4
30437,60465,5
30447,60497,5
30460,60516,5
30468,60536,5
30467,60544,4
30486,60565,5
30485,60568,5
30495,60591,5
30493,60582,4
30483,60555,5
30460,60514,5
30451,60489,5
30431,60451,5
30403,60393,4
30383,60334,5
30361,60306,5
30338,60270,6
30316,60223,4
30296,60195,4
30283,60152,5
30260,60121,5
30232,60053,5
30217,60009,5
30179,59951,4
30170,59929,5
30160,59897,5
30142,59884,5
30123,59852,5
30124,59819,4
30109,59807,5
30100,59800,5
30092,59777,5
30078,59740,4
30072,59714,5
30059,59695,5
30053,59704,5
30055,59692,5
30059,59672,5
30043,59652,4
30030,59647,5
30028,59640,5
30031,59647,6
30030,59666,3
30043,59668,5
30059,59693,5
30060,59711,5
30067,59739,5
30074,59735,4
30074,59751,5
30089,59767,5
30093,59764,5
30098,59787,5
30108,59805,4
30115,59837,5
30130,59867,5
30141,59888,5
30159,59934,4
30187,59969,5
30206,60002,5
30208,60025,5
30218,60051,5
30236,60073,4
30246,60103,6
30255,60135,4
30275,60151,5
30282,60171,5
30292,60185,6
30304,60212,3
30313,60219,5
30311,60237,5
30322,60251,5
30333,60256,4
30325,60265,5
30334,60279,5
30352,60294,5
30359,60307,5
30360,60339,5
30366,60354,4
30379,60385,5
30394,60397,5
30404,60414,4
30400,60426,5
30411,60426,5
30424,60435,5
30417,60449,5
30426,60451,4
30434,60482,5
30433,60489,6
30435,60496,4
30445,60512,5
30444,60513,4
30453,60519,5
30458,60535,5
30465,60544,5
30468,60553,5
30473,60555,4
30491,60573,5
30476,60569,5
30478,60575,5
30483,60580,5
30482,60590,4
30489,60598,5
30506,60601,5
30499,60596,5
30488,60607,4
30486,60599,4
30494,60595,5
30488,60590,5
30482,60582,5
30475,60567,4
30473,60555,5
30468,60557,5
30469,60551,6
30469,60538,4
30461,60528,4
30449,60524,5
30449,60505,5
30431,60475,5
30421,60447,5
30401,60413,4
30384,60384,5
30365,60359,5
30356,60319,5
30326,60258,5
30298,60204,4
30286,60178,5
30270,60154,5
30262,60134,5
30270,60130,4
30261,60128,4
30249,60098,5
30237,60075,5
30224,60035,5
30204,60018,5
30193,60001,4
30196,59967,5
30180,59952,5
30171,59936,6
30150,59917,3
30165,59916,5
30156,59922,5
30154,59901,5
30139,59885,5
30129,59849,4
30120,59815,5
30094,59762,5
30074,59735,5
30073,59719,5
30076,59739,4
30088,59748,5
30089,59767,5
30087,59769,5
30086,59776,4
30082,59767,4
30079,59755,5
30079,59734,5
30083,59746,5
30088,59745,4
30097,59775,6
30095,59785,4
30100,59786,5
30103,59774,5
30105,59784,4
30096,59773,5
30091,59777,5
30088,59774,5
30099,59772,5
30106,59800,4
30112,59800,5
30121,59814,5
30108,59812,5
30109,59808,5
30110,59792,4
30102,59780,5
30105,59807,5
30103,59807,5
30118,59815,5
30115,59824,4
30137,59844,5
30132,59850,5
30132,59844,5
30124,59828,4
30126,59818,5
30139,59835,6
30129,59843,4
30136,59861,5
30134,59862,4
30147,59894,5
30158,59901,5
30161,59905,5
30162,59909,5
30158,59920,4
30179,59928,5
30173,59938,5
30180,59941,5
30176,59941,5
30177,59945,4
30188,59948,5
30192,59983,5
30200,60008,5
30227,60043,5
30237,60062,4
30249,60089,5
30257,60118,5
30279,60159,5
30297,60196,4
30304,60231,5
30318,60260,5
30338,60282,6
30360,60317,4
30382,60370,4
30404,60423,5
30427,60457,5
30445,60512,5
30475,60559,5
30490,60590,4
30502,60612,5
30521,60645,5
30536,60683,5
30577,60738,5
30622,60799,4
30652,60870,5
30680,60919,5
30721,60985,5
30753,61034,5
30775,61089,4
30808,61142,5
30844,61192,5
30867,61240,5
30904,61310,5
30933,61366,4
30973,61425,5
31006,61478,5
31050,61549,5
31077,61602,4
31104,61637,5
31115,61663,5
31123,61678,5
31136,61691,5
31136,61708,4
31152,61727,5
31168,61743,5
31161,61751,5
31170,61758,5
31170,61773,4
31196,61796,5
31199,61815,5
31212,61840,5
31216,61851,5
31226,61851,4
31221,61864,5
31227,61867,5
31237,61874,5
31238,61888,4
31241,61906,5
31243,61908,4
31250,61917,5
31265,61937,5
31280,61947,4
31285,61985,5
31291,61989,5
31301,61999,5
31306,62004,5
31301,62011,4
31303,62005,5
31307,62009,5
31306,62010,5
31308,61997,5
31294,61996,4
31290,61981,5
31281,61976,5
31294,61962,5
31265,61954,5
31259,61929,4
31255,61919,5
31257,61913,5
31252,61909,5
31239,61898,4
31242,61905,4
31215,61839,6
31196,61819,4
31184,61803,5
31178,61795,4
31160,61767,5
31144,61749,5
31139,61727,5
31127,61717,5
31118,61697,4
31109,61685,5
31115,61683,5
31099,61673,5
31103,61666,5
31092,61666,4
31102,61663,5
31092,61662,5
31107,61669,5
31097,61673,5
31102,61668,4
31113,61684,5
31107,61691,5
31110,61695,5
31120,61697,4
31118,61705,4
31119,61700,5
31112,61692,5
31111,61700,5
31125,61704,4
31129,61721,5
31129,61734,5
31138,61746,5
31148,61762,5
31157,61768,4
31150,61782,5
31173,61802,5
31178,61814,5
31186,61829,5
31193,61841,4
31202,61858,5
31206,61864,5
31212,61883,5
31216,61886,5
31231,61903,5
31229,61910,4
31240,61919,5
31251,61936,5
31258,61952,6
31261,61972,3
31280,61982,5
31279,62006,5
31291,62015,5
31298,62029,4
31322,62053,4
31318,62061,5
31330,62068,5
31325,62079,5
31337,62090,4
31347,62104,5
31344,62110,5
31341,62106,5
31356,62128,5
31361,62149,4
31371,62149,5
31381,62158,5
31385,62161,5
31387,62174,5
31385,62174,4
31395,62179,6
31399,62186,4
31390,62192,5
31403,62194,5
31400,62200,6
31401,62198,3
31406,62203,5
31404,62194,5
31402,62197,4
31405,62208,4
31404,62213,5
31409,62213,5
31409,62224,5
31415,62221,4
31424,62231,5
31407,62229,5
31414,62218,5
31412,62214,5
31410,62203,4
31400,62196,5
31393,62202,5
31392,62200,5
31389,62180,5
31389,62169,4
31381,62165,5
31381,62161,6
31378,62148,4
31374,62154,5
31372,62152,4
31370,62149,5
31373,62154,5
31370,62152,5
31376,62158,4
31387,62157,4
31373,62157,5
31376,62149,5
31384,62160,5
31380,62151,4
31382,62152,5
31373,62154,5
31370,62163,5
31385,62164,5
31386,62162,4
31376,62159,5
31374,62158,5
31375,62161,5
31374,62157,5
31390,62172,4
31389,62183,5
31392,62179,5
31405,62200,6
31411,62211,4
31417,62227,4
31416,62223,5
31413,62228,5
31403,62213,5
31399,62203,5
31405,62209,4
31406,62221,5
31412,62216,5
31417,62237,5
31419,62231,4
31435,62251,5
31433,62266,5
31444,62269,5
31447,62287,5
31456,62301,4
31470,62319,5
31486,62340,5
31482,62352,5
31494,62365,5
31496,62381,5
31514,62390,4
31516,62398,5
31525,62414,5
31532,62416,6
31531,62427,3
31532,62427,5
31537,62432,5
31543,62444,5
31534,62439,5
31546,62441,4
31546,62446,5
31546,62446,5
31543,62445,5
31546,62442,4
31550,62449,5
31549,62445,5
31548,62453,5
31544,62450,5
31545,62448,4
31548,62459,5
31552,62451,5
31546,62460,5
31550,62450,5
31553,62455,4
31547,62450,6
31540,62445,4
31535,62453,5
31544,62443,5
31541,62433,4
31541,62420,5
31524,62419,5
31533,62421,5
31519,62418,5
31524,62412,4
31527,62427,5
31537,62425,5
31536,62436,5
31544,62440,4
31531,62438,4
31546,62451,5
31543,62452,5
31540,62452,5
31552,62457,4
31554,62458,5
31545,62454,5
31542,62461,5
31548,62446,5
31543,62440,4
31532,62443,5
31538,62436,6
31544,62443,4
31537,62433,5
31537,62439,4
31538,62432,5
31539,62426,5
31535,62432,5
31526,62426,5
31523,62425,4
31525,62427,5
31522,62419,5
31531,62419,5
31534,62420,5
31526,62422,4
31533,62415,5
31531,62428,5
31529,62418,5
31521,62417,4
31530,62405,5
31518,62410,5
31521,62413,5
31522,62410,5
31524,62405,4
31524,62408,5
31510,62399,5
31510,62397,6
31511,62395,7
31508,62390,1
31493,62384,5
31506,62382,5
31503,62378,5
31500,62378,5
31505,62372,4
31497,62370,5
31501,62377,5
31509,62389,5
31516,62398,5
31524,62412,4
31522,62419,5
31531,62430,5
31526,62416,5
31518,62402,4
31507,62397,5
31507,62411,5
31515,62404,5
31516,62402,5
31510,62413,5
31511,62409,4
31513,62406,5
31521,62418,5
31529,62419,5
31529,62424,4
31532,62425,5
31537,62445,5
31545,62444,5
31545,62450,5
31546,62456,4
31544,62457,5
31537,62460,5
31548,62457,5
31552,62457,5
31552,62464,4
31547,62450,5
31551,62456,5
31535,62448,5
31542,62439,4
31541,62437,4
31527,62423,5
31527,62417,5
31516,62409,5
31513,62406,4
31513,62402,6
31512,62395,4
31502,62387,5
31504,62404,5
31512,62392,4
31513,62405,5
31509,62388,5
31509,62397,5
31514,62404,5
31516,62393,4
31508,62403,5
31510,62404,5
31510,62397,5
31500,62385,5
31507,62383,4
31509,62393,5
31505,62399,5
31502,62394,5
31498,62400,4
31500,62396,4
31505,62400,5
31507,62400,5
31517,62401,5
31513,62411,4
31524,62424,5
31526,62417,6
31527,62426,4
31531,62452,5
31539,62457,4
31549,62469,5
31548,62459,5
31553,62472,5
31552,62475,5
31549,62484,4
31559,62472,5
31551,62480,5
31558,62492,5
31556,62484,5
31562,62486,4
31571,62479,5
31564,62494,5
31569,62502,5
31562,62510,5
31566,62507,4
31580,62500,5
31586,62513,5
31573,62509,5
31580,62509,4
31572,62517,5
31577,62510,5
31568,62515,5
31572,62507,5
31566,62507,4
31571,62501,5
31568,62491,5
31558,62498,5
31563,62495,5
31556,62489,4
31560,62489,5
31562,62489,5
31561,62497,5
31565,62480,5
31563,62492,4
31566,62490,5
31560,62490,5
31554,62482,5
31558,62486,5
31553,62469,4
31546,62466,5
31552,62465,5
31549,62469,5
31549,62482,5
31555,62483,4
31565,62496,5
31567,62504,5
31573,62508,5
31569,62510,4
31568,62503,5
31569,62496,5
31556,62481,5
31557,62499,5
31575,62510,4
31577,62512,5
31572,62512,5
31577,62520,5
31586,62524,5
31588,62529,4
31584,62536,5
31582,62540,5
31592,62551,5
31599,62553,5
31594,62560,4
31597,62570,5
31605,62570,5
31604,62564,5
31610,62579,4
31608,62578,5
31611,62590,4
31607,62589,5
31610,62591,5
31611,62584,4
31609,62587,5
31614,62591,5
31622,62599,5
31617,62594,5
31624,62594,4
31621,62598,5
31624,62602,5
31622,62591,5
31608,62602,5
31625,62586,4
31620,62587,5
31622,62594,5
31623,62589,5
31607,62578,5
31616,62580,4
31612,62585,5
31608,62570,6
31610,62580,4
31606,62577,5
31600,62563,4
31598,62568,5
31596,62555,5
31587,62548,5
31587,62549,4
31582,62547,5
31586,62538,5
31582,62530,5
31587,62540,5
31583,62545,4
31590,62538,5
31586,62548,5
31593,62548,5
31586,62550,5
31585,62551,4
31591,62549,5
31593,62544,5
31589,62545,5
31594,62545,5
31598,62547,4
31577,62536,5
31589,62535,5
31589,62550,6
31585,62541,4
31583,62542,4
31579,62534,5
31585,62531,5
31586,62533,5
31583,62530,4
31580,62529,4
31578,62524,5
31574,62527,5
31572,62527,5
31572,62522,4
31574,62527,5
31577,62525,5
31573,62526,5
31559,62518,5
31575,62521,4
31564,62521,5
31555,62505,5
31560,62508,5
31564,62508,5
31552,62504,5
31563,62501,4
31564,62495,5
31557,62489,5
31557,62499,6
31556,62484,3
31553,62481,5
31546,62487,5
31556,62492,5
31542,62480,4
31557,62476,4
31551,62478,5
31551,62481,5
31545,62480,5
31545,62486,4
31536,62475,5
31545,62469,5
31541,62461,5
31536,62453,5
31526,62450,4
31531,62437,5
31523,62449,5
31526,62440,5
31537,62463,5
31545,62462,4
31545,62478,6
31549,62479,4
31545,62493,5
31551,62486,5
31549,62486,6
31533,62463,3
31532,62466,5
31549,62477,5
31540,62476,4
31540,62478,4
31541,62479,5
31549,62474,5
31539,62473,5
31549,62500,4
31556,62493,5
31554,62506,5
31562,62516,5
31567,62521,5
31569,62521,4
31573,62519,5
31575,62524,5
31570,62532,5
31577,62530,5
31577,62527,4
31574,62530,5
31569,62519,6
31567,62523,4
31572,62513,5
31570,62525,4
31569,62520,5
31561,62517,5
31570,62523,5
31564,62515,5
31563,62522,4
31563,62511,5
31569,62512,5
31566,62521,5
31564,62517,4
31560,62521,5
31562,62520,5
31555,62498,5
31555,62490,5
31553,62500,4
31555,62488,5
31542,62478,5
31547,62473,5
31534,62474,5
31533,62459,4
31530,62461,5
31531,62458,5
31520,62450,6
31521,62449,4
31528,62449,4
31522,62453,5
31525,62452,5
31518,62446,5
31513,62447,5
31513,62447,4
31517,62437,5
31522,62431,5
31513,62436,5
31528,62430,4
31518,62430,5
31513,62437,5
31510,62430,5
31509,62429,5
31507,62413,4
31507,62416,5
31499,62409,5
31491,62409,5
31493,62387,5
31486,62388,5
31480,62374,4
31479,62376,5
31474,62366,5
31475,62364,6
31475,62369,3
31472,62365,5
31476,62354,5
31469,62353,5
31468,62351,5
31461,62348,4
31452,62343,5
31451,62333,5
31450,62329,5
31453,62313,4
31445,62307,4
31433,62309,5
31435,62294,5
31422,62291,5
31419,62267,4
31416,62266,5
31411,62264,5
31408,62260,5
31406,62260,5
31405,62250,4
31407,62249,6
31396,62241,4
31405,62234,5
31404,62242,5
31395,62243,4
31405,62252,5
31410,62256,5
31398,62257,5
31412,62246,5
31398,62251,4
31403,62246,5
31398,62248,5
31406,62256,5
31403,62254,4
31400,62263,4
31411,62274,5
31427,62282,5
31423,62290,5
31427,62300,4
31434,62302,5
31433,62292,5
31426,62278,5
31419,62285,5
31435,62303,4
31429,62311,5
31441,62312,6
31449,62314,4
31453,62325,5
31449,62323,4
31458,62325,5
31458,62328,5
31469,62337,5
31459,62352,5
31468,62359,4
31472,62368,5
31474,62379,5
31465,62373,5
31483,62377,5
31486,62386,4
31488,62387,5
31482,62382,5
31497,62388,5
31493,62386,4
31487,62388,5
31485,62395,5
31485,62398,5
31495,62385,5
31496,62390,4
31496,62404,5
31495,62408,5
31497,62398,6
31501,62406,4
31494,62409,4
31500,62410,5
31501,62408,5
31497,62413,5
31493,62405,5
31503,62411,4
31495,62421,5
31498,62408,5
31495,62405,5
31491,62407,5
31494,62401,4
31485,62394,5
31491,62394,5
31483,62386,5
31482,62386,4
31491,62390,5
31480,62389,5
31493,62388,5
31486,62402,5
31498,62399,5
31495,62406,4
31509,62426,5
31513,62419,5
31513,62426,5
31518,62440,4
31514,62444,5
31521,62453,5
31531,62464,5
31530,62463,5
31526,62470,4
31533,62473,5
31535,62466,5
31541,62465,5
31542,62476,5
31543,62472,4
31539,62477,5
31539,62485,5
31540,62490,6
31545,62488,3
31544,62484,4
31545,62484,5
31546,62478,5
31540,62470,5
31531,62489,4
31544,62491,6
31540,62483,4
31533,62489,5
31537,62484,5
31538,62500,4
31539,62502,5
31550,62502,5
31546,62500,5
31546,62498,5
31551,62501,4
31542,62496,5
31552,62498,5
31549,62500,5
31557,62509,5
31564,62507,4
31557,62518,5
31569,62528,5
31570,62527,5
31560,62526,4
31566,62528,4
31573,62523,5
31576,62527,5
31559,62517,5
31571,62514,4
31561,62521,5
31573,62527,6
31558,62526,4
31570,62536,5
31568,62531,4
31576,62552,5
31576,62557,5
31581,62562,5
31591,62559,5
31590,62580,4
31594,62581,5
31599,62584,5
31597,62590,5
31600,62590,5
31610,62601,4
31618,62595,5
31613,62605,5
31612,62599,5
31612,62603,5
31615,62599,4
31611,62603,5
31612,62609,5
31606,62611,5
31612,62601,4
31620,62605,5
31619,62602,5
31617,62607,5
31608,62621,5
31616,62616,4
31614,62616,5
31621,62624,5
31616,62622,5
31614,62613,5
31622,62625,4
31617,62628,5
31616,62619,5
31623,62617,5
31616,62609,5
31607,62626,4
31609,62614,5
31607,62599,5
31607,62605,5
31607,62591,5
31606,62599,4
31598,62584,4
31609,62585,5
31609,62594,5
31610,62602,5
31616,62606,3
31612,62609,5
31615,62614,5
31622,62616,5
31618,62627,4
31618,62626,5
31619,62631,5
31633,62633,5
31631,62640,5
31631,62643,4
31636,62642,5
31632,62644,5
31631,62638,5
31633,62651,5
31625,62632,4
31632,62645,5
31626,62642,5
31630,62643,5
31637,62641,5
31628,62643,4
31637,62648,6
31631,62639,4
31625,62629,5
31622,62626,4
31625,62627,6
31624,62623,3
31622,62625,5
31628,62622,5
31617,62617,4
31611,62617,5
31608,62609,5
31601,62589,5
31600,62581,5
31594,62577,4
31587,62560,5
31582,62563,5
31581,62556,5
31576,62557,5
31576,62550,4
31568,62545,5
31567,62528,5
31555,62512,5
31538,62478,5
31538,62488,4
31537,62478,5
31514,62448,6
31501,62415,4
31489,62399,5
31481,62390,4
31489,62398,5
31490,62398,5
31481,62385,5
31478,62389,4
31480,62383,4
31477,62379,5
31472,62384,5
31472,62370,5
31475,62382,4
31472,62383,5
31478,62370,5
31475,62365,5
31469,62353,5
31453,62338,4
31452,62337,5
31441,62330,5
31455,62320,5
31442,62314,5
31438,62304,4
31412,62267,5
31398,62243,5
31380,62197,6
31367,62172,4
31353,62174,4
31359,62169,5
31353,62158,5
31347,62160,5
31345,62151,4
31351,62137,4
31332,62141,5
31330,62123,5
31328,62116,5
31317,62105,4
31297,62069,5
31291,62049,5
31278,62031,5
31264,62002,5
31240,61961,4
31232,61941,5
31220,61936,5
31231,61947,5
31230,61952,5
31251,61980,5
31248,61986,4
31246,61994,5
31261,61995,5
31263,62008,6
31252,61983,3
31252,61981,5
31242,61974,5
31233,61964,5
31234,61966,5
31237,61957,4
31232,61955,5
31232,61948,5
31227,61955,5
31227,61959,4
31231,61958,5
31240,61973,5
31249,61989,5
31260,62003,5
31264,62023,4
31272,62022,5
31267,62030,5
31274,62041,5
31278,62041,5
31275,62045,4
31281,62061,6
31282,62054,4
31293,62076,5
31311,62091,5
31313,62104,4
31321,62124,5
31336,62147,5
31343,62169,5
31367,62202,5
31384,62232,4
31390,62240,5
31396,62250,5
31393,62254,5
31399,62256,4
31414,62274,5
31426,62301,5
31429,62316,5
31441,62321,5
31449,62332,4
31459,62352,5
31461,62372,5
31477,62374,5
31479,62393,5
31487,62415,4
31495,62419,5
31502,62428,6
31506,62433,4
31508,62452,5
31520,62447,4
31511,62453,5
31515,62448,5
31512,62454,5
31523,62446,5
31519,62446,4
31518,62460,5
31510,62457,5
31523,62455,5
31524,62452,4
31520,62456,4
31520,62463,5
31530,62463,5
31534,62475,5
31532,62485,4
31528,62479,5
31536,62477,5
31531,62483,5
31528,62483,5
31526,62458,4
31525,62449,5
31521,62465,5
31515,62453,6
31516,62441,4
31512,62432,4
31505,62429,5
31502,62420,5
31498,62422,5
31498,62420,5
31493,62410,4
31487,62408,5
31497,62407,5
31493,62406,5
31488,62397,5
31495,62411,4
31491,62402,5
31483,62393,5
31488,62402,5
31484,62395,4
31477,62382,5
31480,62381,5
31484,62383,5
31479,62387,5
31483,62384,5
31486,62383,4
31484,62391,5
31488,62399,5
31483,62392,5
31486,62387,4
31486,62384,5
31483,62387,5
31484,62389,5
31481,62381,5
31483,62378,4
31468,62368,5
31473,62367,5
31468,62353,5
31468,62353,5
31457,62356,4
31466,62352,5
31464,62351,5
31461,62351,5
31453,62331,4
31451,62338,5
31458,62338,5
31447,62329,5
31448,62334,5
31452,62329,4
31441,62326,6
31455,62330,4
31450,62322,5
31454,62333,5
31438,62324,4
31441,62316,5
31452,62338,5
31456,62345,5
31462,62344,5
31474,62364,4
31474,62371,5
31471,62381,5
31472,62370,5
31466,62353,5
31473,62363,4
31489,62382,5
31477,62381,5
31481,62388,5
31487,62398,4
31483,62399,4
31488,62411,5
31491,62413,5
31502,62416,5
31503,62423,4
31503,62423,5
31501,62427,6
31512,62436,4
31517,62448,5
31519,62448,4
31520,62455,5
31524,62458,5
31525,62462,5
31527,62451,5
31518,62461,4
31528,62460,5
31531,62468,5
31525,62467,5
31530,62473,5
31526,62472,4
31537,62467,5
31537,62471,5
31531,62470,5
31532,62473,4
31530,62481,4
31531,62485,5
31536,62475,5
31524,62472,5
31530,62476,4
31536,62463,5
31525,62458,5
31530,62458,6
31518,62463,4
31514,62454,4
31523,62462,5
31517,62456,5
31513,62444,5
31509,62440,5
31509,62434,4
31493,62431,5
31495,62431,5
31499,62432,5
31499,62417,5
31500,62424,4
31505,62429,5
31491,62431,5
31495,62423,5
31502,62444,5
31511,62442,4
31496,62435,5
31505,62439,5
31510,62439,5
31517,62435,5
31508,62433,4
31511,62431,5
31506,62433,5
31504,62432,5
31510,62425,4
31512,62438,5
31510,62437,5
31507,62439,5
31509,62436,5
31509,62439,4
31516,62437,5
31519,62438,5
31518,62432,5
31510,62440,5
31511,62434,4
31507,62430,5
31496,62421,5
31502,62426,5
31502,62426,5
31504,62424,4
31499,62411,5
31502,62422,5
31498,62409,5
31486,62408,4
31497,62414,6
31491,62402,4
31482,62409,5
31482,62393,5
31489,62397,4
31485,62381,5
31481,62385,5
31476,62388,5
31483,62395,5
31476,62375,4
31463,62365,5
31473,62365,5
31469,62358,5
31464,62366,5
31465,62368,4
31473,62370,5
31472,62375,5
31485,62386,5
31488,62393,5
31490,62406,4
31492,62410,5
31493,62412,5
31496,62401,5
31478,62377,4
31478,62370,4
31482,62390,6
31481,62391,4
31475,62392,5
31479,62385,4
31488,62393,5
31489,62407,9
31499,62413,1
31489,62440,5
31494,62425,4
31511,62437,5
31511,62443,5
31513,62440,5
31510,62455,5
31517,62459,4
31521,62465,5
31524,62463,5
31520,62469,5
31525,62466,5
31527,62462,4
31525,62466,5
31526,62466,5
31519,62476,6
31526,62479,3
31526,62473,4
31527,62480,5
31537,62486,5
31537,62481,5
31533,62475,4
31536,62486,5
31534,62477,5
31530,62485,5
31528,62477,5
31531,62483,4
31531,62478,5
31521,62460,5
31524,62460,5
31518,62470,5
31516,62457,4
31513,62455,5
31519,62456,5
31519,62454,5
31515,62459,5
31511,62447,5
31507,62441,4
31506,62436,5
31509,62443,5
31513,62431,6
31502,62428,3
31508,62428,5
31505,62425,5
31493,62432,5
31502,62425,4
31506,62433,5
31508,62440,5
31512,62433,5
31509,62428,5
31507,62439,4
31504,62433,5
31503,62444,5
31499,62439,5
31505,62428,5
31505,62420,4
31498,62428,5
31501,62428,5
31495,62426,5
31497,62419,5
31496,62416,4
31490,62422,6
31503,62418,4
31492,62422,5
31494,62414,5
31490,62409,6
31494,62409,3
31488,62406,5
31490,62403,5
31488,62400,4
31481,62401,5
31482,62397,5
31478,62400,5
31476,62394,5
31478,62396,4
31475,62387,5
31480,62386,5
31473,62387,5
31475,62389,5
31470,62385,4
31471,62372,5
31467,62373,5
31470,62365,5
31455,62358,5
31461,62359,4
31457,62361,5
31460,62360,6
31454,62359,4
31454,62358,5
31460,62352,4
31455,62357,5
31460,62356,5
31451,62344,5
31452,62352,4
31453,62344,4
31455,62344,5
31447,62342,5
31446,62341,5
31442,62325,4
31442,62328,5
31431,62322,5
31440,62322,5
31430,62319,5
31438,62331,4
31440,62339,5
31453,62335,5
31447,62349,5
31453,62359,5
31454,62355,4
31455,62357,5
31449,62332,5
31437,62320,6
31440,62322,4
31452,62337,4
31447,62329,5
31453,62330,5
31452,62347,5
31450,62348,4
31462,62348,4
31462,62365,5
31459,62359,5
31457,62370,5
31471,62380,4
31471,62387,5
31476,62391,5
31473,62384,5
31476,62395,5
31478,62402,4
31479,62392,5
31472,62385,5
31474,62394,5
31481,62398,5
31475,62395,5
31470,62391,4
31482,62392,5
31478,62402,5
31476,62395,6
31480,62391,3
31472,62386,5
31472,62379,5
31455,62376,5
31460,62373,5
31453,62367,4
31458,62361,5
31457,62345,5
31452,62352,5
31452,62342,4
31427,62304,5
31417,62296,5
31407,62287,5
31403,62270,5
31402,62263,4
31394,62252,5
31389,62231,5
31365,62227,5
31373,62209,5
31356,62218,4
31357,62186,6
31353,62183,4
31333,62158,5
31329,62157,5
31337,62147,4
31315,62133,5
31318,62128,5
31305,62106,5
31300,62091,5
31304,62088,4
31282,62073,5
31281,62068,5
31275,62056,5
31278,62066,4
31267,62045,5
31265,62047,5
31265,62045,5
31266,62037,5
31266,62019,4
31254,62022,5
31248,62013,5
31243,62007,5
31243,61999,5
31235,61987,4
31231,61980,5
31221,61972,6
31224,61961,4
31207,61954,5
31208,61952,4
31216,61960,5
31209,61951,5
31201,61937,5
31198,61928,5
31198,61922,4
31197,61913,5
31187,61920,5
31184,61907,5
31181,61902,4
31179,61899,4
31180,61892,5
31180,61890,5
31172,61882,5
31173,61889,4
31173,61889,5
31178,61892,5
31181,61890,5
31182,61901,5
31179,61895,4
31189,61903,5
31185,61905,5
31191,61921,6
31194,61914,4
31183,61925,4
31195,61925,5
31200,61925,5
31211,61930,5
31209,61940,5
31204,61943,4
31214,61942,5
31215,61952,5
31224,61968,5
31232,61972,5
31237,61995,4
31249,62006,5
31251,62014,5
31261,62031,5
31259,62016,4
31241,62008,5
31243,61998,5
31258,62011,5
31261,62024,5
31251,62019,5
31263,62029,4
31265,62024,5
31268,62033,5
31265,62043,5
31267,62050,4
31278,62045,5
31280,62053,5
31282,62066,5
31284,62066,5
31283,62072,4
31290,62072,5
31294,62078,5
31291,62085,5
31304,62080,5
31284,62080,4
31296,62078,5
31295,62083,5
31301,62085,5
31289,62073,4
31298,62083,5
31290,62091,5
31289,62079,5
31295,62081,5
31296,62080,4
31292,62077,6
31288,62089,4
31299,62083,5
31299,62076,5
31290,62086,4
31302,62086,5
31285,62068,5
31295,62081,5
31288,62068,5
31279,62068,4
31286,62069,5
31286,62071,5
31287,62069,5
31289,62065,5
31284,62068,4
31279,62061,5
31275,62051,5
31276,62053,5
31277,62059,4
31271,62045,5
31280,62055,5
31274,62045,5
31275,62042,5
31272,62042,4
31271,62049,5
31272,62052,6
31274,62056,4
31278,62061,5
31278,62061,4
31282,62070,5
31287,62075,5
31295,62075,5
31289,62086,5
31285,62091,4
31294,62088,5
31296,62087,5
31298,62076,5
31291,62068,5
31282,62080,4
31288,62075,5
31283,62071,5
31290,62065,5
31284,62072,4
31287,62072,4
31288,62065,5
31278,62068,5
31286,62079,5
31288,62070,4
31290,62071,5
31297,62084,5
31304,62079,5
31284,62073,5
31285,62072,4
31295,62085,5
31290,62068,5
31291,62069,5
31284,62070,5
31280,62070,4
31287,62062,5
31285,62064,5
31282,62066,5
31281,62061,5
31275,62057,4
31285,62061,5
31286,62056,5
31289,62063,5
31281,62055,4
31283,62054,4
31280,62054,5
31279,62047,5
31277,62042,5
31272,62048,5
31268,62046,4
31275,62048,5
31274,62057,5
31276,62051,5
31287,62071,4
31286,62067,5
31302,62093,5
31299,62088,5
31298,62083,5
31294,62073,4
31284,62061,5
31284,62064,5
31288,62067,5
31279,62067,5
31292,62063,4
31294,62079,5
31290,62074,5
31295,62074,5
31295,62075,4
31294,62091,4
31308,62104,5
31308,62110,5
31314,62116,5
31313,62119,4
31319,62132,6
31317,62130,3
31319,62128,5
31317,62124,5
31320,62128,4
31330,62125,5
31326,62129,5
31326,62124,5
31324,62135,5
31321,62140,4
31335,62138,5
31333,62143,5
31330,62149,5
31335,62146,5
31328,62151,4
31327,62145,5
31334,62157,5
31335,62159,5
31340,62152,5
31331,62156,4
31324,62137,5
31323,62151,6
31334,62142,4
31326,62139,4
31332,62143,5
31325,62139,5
31327,62137,5
31321,62138,5
31320,62139,4
31327,62126,5
31318,62133,5
31324,62131,5
31328,62142,5
31331,62139,4
31328,62142,5
31333,62157,5
31337,62155,5
31340,62157,5
31340,62169,4
31344,62172,5
31350,62176,5
31351,62179,5
31348,62185,5
31351,62188,4
31352,62183,5
31363,62192,5
31359,62191,6
31368,62189,3
31364,62196,5
31359,62202,5
31369,62205,5
31364,62207,5
31370,62204,4
31373,62212,5
31372,62214,5
31371,62212,5
31373,62216,5
31376,62213,4
31375,62223,5
31367,62204,5
31362,62204,5
31376,62211,5
31372,62205,4
31370,62205,5
31361,62203,5
31355,62196,5
31356,62198,5
31360,62189,5
31346,62197,6
31360,62200,3
31360,62196,5
31349,62194,6
31358,62180,3
31344,62182,5
31357,62177,5
31345,62169,5
31338,62165,4
31338,62157,5
31344,62160,5
31339,62162,5
31334,62157,5
31331,62141,4
31325,62108,5
31306,62093,5
31284,62062,5
31278,62049,5
31267,62044,4
31270,62029,5
31265,62027,5
31261,62016,5
31261,62014,5
31247,62009,4
31249,62004,6
31248,62002,4
31241,62003,5
31248,62006,4
31256,62015,4
31249,62009,5
31248,62018,5
31256,62013,5
31247,62003,4
31242,61994,5
31243,61989,5
31239,61985,5
31240,61985,5
31247,61998,4
31235,62007,5
31250,62015,5
31257,62027,5
31264,62043,5
31265,62040,4
31269,62047,5
31272,62043,5
31276,62047,5
31273,62036,5
31264,62030,4
31266,62034,5
31251,62027,6
31244,62009,4
31252,62004,4
31246,62011,4
31246,62002,5
31250,62011,5
31245,62013,5
31245,62011,4
31248,62015,5
31240,62006,5
31244,62019,5
31256,62021,5
31253,62016,4
31253,62032,5
31262,62040,5
31269,62047,5
31273,62054,5
31286,62060,4
31280,62077,5
31296,62092,5
31294,62091,5
31298,62096,5
31314,62109,4
31314,62115,5
31312,62117,5
31320,62124,6
31321,62140,3
31325,62132,4
31326,62138,5
31332,62142,5
31319,62143,5
31321,62137,4
31321,62134,5
31321,62134,5
31330,62138,5
31329,62145,5
31325,62141,4
31323,62132,5
31316,62127,5
31313,62128,5
31313,62129,5
31320,62120,4
31323,62118,5
31317,62114,5
31306,62119,5
31308,62119,5
31309,62111,5
31307,62111,4
31317,62111,5
31310,62109,5
31311,62112,5
31299,62094,4
31302,62096,5
31301,62099,5
31303,62089,5
31302,62098,4
31311,62099,5
31311,62098,5
31308,62104,5
31302,62085,5
31299,62076,4
31280,62062,5
31293,62070,5
31293,62082,5
31284,62061,5
31286,62063,4
31288,62069,5
31287,62075,5
31291,62075,5
31308,62084,5
31299,62084,4
31298,62092,6
31303,62097,4
31310,62106,5
31311,62113,5
31323,62127,4
31322,62120,5
31330,62130,5
31329,62136,5
31331,62142,4
31324,62142,5
31330,62138,5
31326,62134,5
31331,62141,5
31329,62137,4
31333,62125,5
31326,62130,5
31318,62128,5
31324,62126,5
31319,62110,4
31321,62118,5
31317,62116,5
31315,62111,5
31311,62116,5
31319,62110,4
31309,62103,5
31311,62109,6
31313,62115,4
31310,62103,5
31313,62110,4
31315,62099,5
31303,62098,5
31307,62087,5
31293,62076,4
31299,62083,4
31293,62075,5
31293,62071,5
31287,62067,5
31286,62074,4
31296,62068,5
31291,62079,5
31293,62085,5
31291,62074,5
31301,62091,4
31309,62096,5
31310,62095,5
31300,62097,5
31304,62102,5
31318,62092,4
31315,62094,5
31310,62093,5
31304,62092,5
31309,62100,5
31313,62094,4
31307,62094,5
31306,62093,5
31307,62093,5
31311,62092,4
31308,62095,4
31308,62113,5
31305,62097,5
31302,62098,5
31308,62100,4
31316,62101,5
31297,62092,5
31297,62092,5
31302,62078,5
31296,62088,4
31305,62073,5
31294,62070,5
31294,62080,5
31290,62064,5
31292,62066,5
31290,62067,4
31285,62060,5
31295,62060,5
31293,62061,5
31297,62056,4
31286,62062,5
31287,62058,5
31292,62064,5
31290,62068,5
31301,62075,4
31304,62085,5
31299,62086,5
31303,62099,5
31302,62088,4
31298,62071,5
31290,62054,5
31291,62062,5
31297,62077,5
31290,62066,4
31287,62068,5
31288,62070,5
31293,62069,5
31292,62067,5
31293,62075,4
31288,62071,6
31289,62071,4
31300,62085,5
31309,62091,5
31297,62099,4
31309,62084,5
31305,62084,5
31304,62088,5
31310,62095,5
31311,62092,4
31302,62086,5
31308,62088,5
31305,62093,5
31308,62096,4
31307,62088,5
31306,62096,5
31305,62095,5
31308,62087,5
31307,62102,4
31304,62088,5
31311,62099,5
31310,62099,5
31304,62090,5
31297,62097,4
31312,62091,5
31307,62091,6
31309,62083,4
31307,62086,5
31305,62089,4
31309,62078,5
31311,62087,5
31301,62084,5
31295,62083,5
31291,62071,4
31296,62079,5
31291,62077,5
31297,62077,5
31295,62075,4
31286,62079,4
31290,62078,5
31290,62075,5
31291,62076,5
31291,62073,4
31303,62071,5
31289,62074,5
31290,62060,5
31289,62073,5
31296,62075,4
31288,62070,5
31295,62071,5
31292,62068,5
31294,62076,5
31299,62070,4
31296,62074,5
31300,62066,5
31291,62074,5
31289,62073,5
31305,62087,4
31304,62070,5
31296,62071,5
31298,62069,5
31284,62064,4
31284,62061,4
31289,62062,5
31289,62049,5
31279,62055,5
31275,62045,4
31275,62035,6
31268,62036,4
31267,62024,5
31265,62023,5
31268,62006,6
31252,61998,3
31244,61976,5
31226,61945,5
31218,61924,5
31209,61909,4
31179,61888,5
31178,61873,5
31168,61862,5
31169,61839,5
31153,61832,4
31146,61827,5
31139,61805,5
31142,61798,5
31132,61791,5
31127,61781,4
31112,61772,5
31114,61756,5
31104,61735,5
31098,61737,4
31105,61760,5
31113,61770,6
31132,61803,4
31136,61826,5
31155,61825,4
31143,61820,7
31146,61805,3
31140,61791,5
31127,61792,5
31139,61812,4
31144,61813,5
31140,61820,5
31159,61834,5
31167,61858,5
31176,61885,4
31191,61893,5
31206,61908,5
31202,61924,5
31211,61934,5
31220,61948,4
31223,61943,5
31223,61946,5
31228,61961,5
31237,61991,4
31259,62017,5
31266,62036,5
31276,62038,6
31283,62044,4
31278,62040,4
31275,62034,5
31280,62034,5
31284,62043,5
31274,62050,5
31271,62048,4
31276,62053,5
31289,62051,5
31288,62057,5
31281,62058,5
31280,62046,4
31278,62034,5
31277,62037,5
31255,62022,5
31253,61992,5
31239,61979,4
31237,61970,5
31229,61960,5
31231,61959,5
31238,61966,5
31235,61973,4
31239,61964,5
31229,61961,5
31224,61957,6
31225,61944,3
31220,61949,5
31212,61932,5
31208,61919,5
31198,61925,5
31212,61919,4
31210,61929,5
31213,61925,5
31212,61924,5
31208,61934,5
31208,61948,4
31214,61931,5
31221,61934,5
31214,61942,5
31209,61923,5
31211,61918,4
31195,61912,5
31199,61910,5
31194,61909,5
31197,61897,4
31191,61890,5
31190,61885,4
31185,61875,5
31177,61873,5
31179,61867,6
31181,61870,3
31175,61868,5
31165,61854,5
31175,61855,5
31157,61857,4
31164,61853,5
31175,61852,5
31162,61850,5
31161,61840,5
31156,61845,4
31149,61823,5
31152,61830,5
31149,61830,5
31144,61815,5
31149,61816,4
31145,61811,5
31147,61817,5
31141,61814,5
31139,61805,4
31144,61811,4
31135,61809,6
31146,61803,4
31150,61823,5
31136,61804,4
31131,61808,5
31131,61801,5
31131,61795,5
31135,61794,5
31127,61804,4
31133,61804,5
31142,61822,5
31148,61823,5
31154,61829,5
31149,61829,9
31148,61807,0
31175,61855,5
31127,61811,5
31138,61819,5
31150,61822,4
31152,61826,5
31148,61831,5
31148,61838,5
31158,61843,5
31158,61855,4
31170,61852,5
31166,61859,6
31174,61864,4
31176,61875,4
31185,61875,5
31191,61881,5
31187,61890,5
31183,61887,5
31188,61898,4
31195,61903,5
31194,61889,5
31191,61901,5
31196,61912,5
31200,61898,4
31200,61910,5
31193,61916,5
31192,61915,5
31199,61908,5
31195,61914,4
31204,61901,5
31194,61905,5
31198,61904,5
31196,61904,5
31200,61913,4
31194,61909,5
31195,61902,5
31189,61890,6
31192,61887,3
31187,61892,5
31182,61882,5
31182,61876,5
31186,61871,5
31176,61864,4
31179,61875,5
31177,61866,5
31171,61871,5
31180,61858,5
31173,61866,4
31174,61856,5
31164,61852,5
31167,61863,5
31172,61860,5
31168,61858,4
31175,61858,5
31176,61857,5
31167,61857,5
31177,61864,5
31177,61870,5
31183,61881,4
31182,61885,5
31179,61881,5
31186,61889,4
31186,61887,5
31184,61887,5
31184,61887,5
31184,61895,5
31194,61896,4
31196,61894,5
31197,61905,5
31203,61897,5
31195,61912,5
31201,61906,4
31211,61913,5
31203,61904,5
31209,61907,5
31205,61912,5
31201,61917,4
31205,61897,5
31210,61908,5
31199,61902,5
31196,61913,5
31201,61908,4
31210,61918,6
31207,61903,4
31202,61916,5
31208,61910,4
31212,61905,4
31207,61911,5
31209,61916,5
31208,61913,5
31199,61912,4
31206,61909,5
31207,61907,5
31201,61904,5
31213,61906,5
31207,61916,4
31201,61909,5
31206,61909,5
31212,61917,5
31201,61911,5
31211,61907,4
31209,61911,5
31207,61921,5
31203,61911,5
31198,61908,5
31202,61912,4
31200,61905,5
31205,61906,6
31196,61903,4
31202,61908,4
31203,61906,4
31205,61909,5
31215,61923,5
31233,61939,5
31228,61945,4
31236,61959,5
31233,61953,5
31238,61950,5
31230,61942,5
31218,61936,4
31217,61945,5
31229,61941,5
31225,61933,5
31220,61941,5
31222,61943,4
31223,61939,5
31230,61944,5
31236,61951,5
31235,61967,5
31231,61970,4
31246,61980,5
31251,61987,5
31244,61995,5
31258,61997,5
31258,61999,4
31260,61993,5
31257,61987,5
31258,61992,5
31249,61990,4
31255,61988,5
31253,61988,5
31245,61982,5
31255,61985,5
31245,61987,4
31246,61976,5
31252,61986,5
31246,61992,5
31251,61992,5
31256,61982,4
31246,61993,5
31243,61986,5
31242,61983,5
31241,61969,5
31233,61961,5
31229,61942,4
31212,61925,5
31206,61910,5
31203,61890,5
31186,61875,4
31179,61868,5
31165,61832,5
31153,61820,5
31146,61802,4
31142,61797,5
31130,61785,5
31131,61770,5
31118,61759,5
31120,61744,4
31114,61751,5
31115,61747,5
31113,61757,5
31124,61769,5
31128,61781,4
31141,61805,5
31154,61821,5
31156,61833,5
31160,61844,5
31166,61844,4
31152,61812,6
31146,61793,4
31122,61759,5
31108,61731,5
31081,61694,4
31055,61651,5
31028,61599,5
31009,61571,5
30998,61542,4
30982,61517,5
30973,61506,5
30973,61478,5
30942,61451,5
30909,61384,4
30887,61353,5
30887,61357,5
30905,61383,5
30911,61398,5
30924,61402,4
30923,61409,5
30928,61411,5
30910,61373,5
30871,61308,5
30852,61281,4
30872,61304,5
30874,61329,5
30880,61320,5
30861,61276,5
30819,61189,4
30789,61149,5
30801,61196,5
30835,61252,5
30847,61272,4
30852,61253,4
30819,61174,5
30768,61093,5
30720,61010,5
30686,60923,4
30661,60894,5
30670,60890,5
30664,60899,5
30673,60916,5
30687,60943,5
30684,60910,4
30680,60893,5
30668,60898,5
30682,60905,6
30675,60887,3
30680,60892,5
30677,60902,5
30673,60875,5
30646,60823,5
30636,60801,4
30636,60806,5
30647,60843,5
30661,60863,5
30659,60864,4
30662,60875,4
30659,60860,5
30665,60857,5
30658,60846,5
30654,60843,4
30657,60844,5
30661,60849,5
30669,60884,5
30687,60906,5
30695,60919,4
30704,60945,6
30713,60945,4
30691,60928,5
30689,60903,5
30658,60854,6
30663,60838,3
30665,60840,5
30675,60855,5
30684,60865,5
30666,60814,4
30660,60805,5
30663,60806,5
30657,60801,5
30664,60810,5
30686,60834,4
30661,60774,5
30612,60670,5
30572,60580,5
30523,60492,4
30502,60452,5
30494,60445,5
30499,60468,5
30502,60471,5
30487,60416,4
30438,60325,5
30436,60339,6
30444,60368,4
30464,60376,5
30479,60410,4
30480,60420,5
30489,60445,5
30495,60458,5
30478,60425,5
30492,60440,4
30506,60473,5
30521,60523,5
30557,60591,5
30598,60653,5
30619,60701,4
30616,60695,5
30598,60638,5
30561,60588,5
30543,60552,4
30533,60534,5
30535,60537,5
30539,60538,5
30543,60548,5
30541,60561,4
30552,60589,5
30572,60624,5
30594,60690,6
30623,60737,4
30654,60801,4
30686,60850,5
30688,60861,5
30717,60885,5
30726,60925,5
30748,60957,4
30756,60965,5
30748,60955,5
30725,60913,5
30709,60882,5
30701,60878,4
30707,60896,5
30726,60931,5
30749,60986,5
30794,61063,4
30848,61168,4
30915,61267,5
30975,61371,5
31012,61442,5
31068,61513,5
31090,61549,4
31105,61581,5
31110,61585,5
31103,61581,6
31107,61576,3
31103,61582,5
31112,61586,5
31121,61591,5
31119,61608,5
31127,61611,4
31124,61613,5
31125,61614,5
31125,61615,5
31133,61618,5
31137,61633,4
31140,61649,5
31141,61651,5
31141,61647,5
31142,61655,4
31146,61663,4
31156,61662,5
31157,61665,5
31150,61663,5
31163,61682,4
31176,61700,6
31181,61699,4
31179,61696,5
31179,61706,5
31174,61701,4
31181,61708,5
31188,61711,5
31193,61722,5
31200,61732,5
31198,61743,4
31202,61741,5
31208,61744,5
31212,61756,5
31220,61771,5
31223,61781,4
31230,61801,5
31241,61829,5
31254,61838,5
31272,61851,4
31287,61875,4
31294,61899,5
31301,61910,5
31313,61929,5
31320,61948,4
31326,61949,5
31332,61946,6
31325,61955,4
31322,61952,5
31318,61931,4
31312,61928,5
31312,61917,5
31304,61927,5
31304,61922,5
31297,61918,4
31301,61906,5
31299,61901,5
31290,61896,5
31290,61902,5
31290,61890,4
31287,61885,5
31277,61876,5
31276,61876,5
31280,61867,4
31273,61865,4
31276,61869,5
31272,61867,5
31275,61873,5
31264,61857,4
31267,61860,5
31270,61854,5
31271,61857,6
31262,61850,4
31280,61865,4
31283,61885,5
31293,61898,5
31290,61909,5
31306,61908,5
31303,61913,4
31300,61910,5
31307,61897,5
31291,61891,5
31294,61903,5
31287,61889,4
31289,61880,5
31273,61877,5
31281,61872,5
31275,61877,4
31282,61878,4
31277,61878,5
31275,61883,5
31272,61882,5
31276,61883,5
31273,61886,4
31280,61880,5
31283,61887,5
31282,61880,5
31284,61886,7
31281,61899,2
31284,61892,5
31282,61895,5
31284,61892,5
31288,61894,4
31288,61895,5
31293,61895,5
31293,61893,5
31291,61902,5
31282,61895,4
31294,61908,5
31298,61900,5
31292,61898,5
31282,61900,4
31289,61902,4
31292,61906,5
31283,61901,5
31293,61889,5
31284,61880,4
31280,61878,6
31269,61854,4
31268,61851,5
31255,61855,5
31255,61827,4
31250,61828,5
31252,61824,5
31248,61815,5
31234,61814,5
31239,61815,4
31236,61809,5
31231,61802,5
31226,61806,5
31233,61799,5
31234,61797,4
31229,61800,5
31235,61804,5
31224,61808,5
31226,61814,4
31238,61805,4
31234,61822,5
31238,61818,5
31240,61812,5
31235,61822,4
31241,61826,5
31244,61826,6
31248,61828,4
31248,61826,5
31235,61823,4
31245,61814,5
31230,61803,5
31224,61805,5
31231,61791,5
31229,61786,4
31224,61787,5
31213,61783,5
31216,61779,5
31216,61780,5
31212,61772,4
31216,61782,5
31218,61774,5
31220,61778,5
31213,61770,4
31209,61762,4
31209,61754,5
31203,61758,5
31200,61752,5
31190,61742,4
31188,61734,5
31182,61721,5
31172,61714,5
31178,61710,5
31168,61707,4
31161,61683,5
31163,61686,5
31161,61675,5
31151,61661,5
31153,61658,4
31145,61659,5
31137,61657,5
31151,61658,5
31149,61663,5
31145,61667,4
31153,61678,5
31148,61679,5
31155,61690,5
31158,61678,4
31160,61673,4
31142,61653,5
31137,61625,5
31131,61635,5
31132,61646,5
31138,61642,4
31132,61653,5
31137,61658,5
31148,61660,5
31149,61663,4
31142,61671,5
31152,61674,5
31154,61671,5
31159,61687,5
31161,61686,4
31155,61691,5
31167,61693,5
31165,61693,5
31167,61695,5
31164,61690,4
31162,61700,5
31158,61697,5
31167,61689,5
31164,61694,4
31163,61687,4
31162,61688,5
31161,61678,5
31161,61691,5
31155,61677,4
31156,61686,6
31152,61680,4
31164,61686,5
31162,61681,5
31163,61686,4
31163,61698,5
31160,61703,5
31164,61704,5
31173,61688,5
31166,61693,4
31163,61695,5
31160,61692,5
31160,61682,5
31158,61677,5
31158,61672,4
31149,61660,5
31139,61666,5
31139,61658,5
31146,61664,5
31151,61655,4
31133,61654,5
31138,61661,6
31146,61648,4
31138,61668,4
31140,61660,5
31147,61666,5
31156,61681,5
31158,61668,5
31152,61668,4
31144,61670,5
31140,61663,5
31146,61667,5
31147,61663,5
31157,61670,4
31148,61669,5
31155,61667,5
31156,61675,5
31150,61661,5
31143,61673,4
31147,61667,5
31151,61668,5
31142,61667,5
31143,61671,5
31145,61667,4
31156,61666,5
31149,61657,5
31146,61672,6
31145,61663,3
31144,61654,5
31139,61648,5
31141,61663,5
31134,61659,5
31135,61650,4
31145,61659,5
31132,61642,5
31136,61639,5
31131,61627,5
31127,61629,4
31129,61617,5
31118,61625,5
31117,61619,5
31106,61616,5
31113,61606,4
31104,61593,5
31103,61584,5
31088,61568,5
31078,61553,5
31072,61533,5
31052,61502,4
31041,61477,5
31029,61464,5
31006,61438,6
31010,61427,3
30998,61422,5
30992,61427,5
31008,61437,5
31008,61434,4
31010,61442,5
31019,61444,5
31004,61436,5
31004,61429,5
30995,61409,4
30979,61382,5
30968,61394,5
30980,61392,5
30979,61378,5
30972,61372,4
30966,61366,5
30964,61363,5
30960,61354,5
30954,61355,5
30957,61367,4
30955,61367,6
30955,61365,4
30970,61373,5
30973,61391,4
30979,61392,4
30973,61396,5
30976,61385,5
30980,61394,5
30978,61384,4
30987,61389,5
30979,61389,5
30980,61395,5
30971,61386,5
30972,61391,4
30972,61386,5
30968,61389,5
30973,61391,5
30977,61391,5
30976,61376,4
30972,61371,5
30964,61376,5
30966,61374,5
30959,61361,5
30953,61361,4
30953,61347,5
30945,61333,6
30943,61333,4
30937,61321,4
30928,61317,4
30926,61320,5
30929,61313,5
30927,61308,5
30929,61291,4
30919,61292,5
30911,61280,5
30916,61272,5
30906,61269,5
30899,61252,4
30896,61254,5
30892,61251,5
30892,61238,5
30882,61241,5
30885,61234,4
30880,61231,5
30887,61234,5
30877,61233,5
30870,61233,5
30871,61228,4
30876,61220,5
30876,61226,5
30876,61227,6
30877,61210,3
30871,61210,4
30865,61207,5
30869,61209,5
30856,61207,5
30866,61200,4
30859,61204,5
30864,61194,5
30854,61189,5
30857,61190,5
30855,61185,4
30849,61183,5
30853,61185,5
30846,61174,5
30853,61171,5
30840,61165,4
30838,61160,5
30832,61159,5
30836,61151,5
30829,61147,5
30826,61141,5
30819,61131,4
30819,61127,5
30817,61124,5
30804,61116,5
30805,61111,4
30800,61105,5
30802,61104,5
30798,61103,5
30797,61103,4
30799,61086,5
30801,61096,5
30799,61094,5
30799,61089,5
30795,61084,4
30791,61087,5
30795,61094,5
30800,61083,5
30791,61094,5
30788,61083,4
30788,61073,5
30788,61074,5
30783,61077,5
30777,61071,5
30784,61061,4
30782,61074,6
30786,61081,4
30781,61074,5
30789,61095,5
30789,61096,4
30797,61100,5
30799,61088,5
30793,61086,5
30780,61082,4
30791,61087,5
30793,61094,5
30796,61099,5
30796,61094,5
30810,61107,4
30804,61106,5
30804,61113,5
30811,61125,5
30811,61131,5
30821,61126,4
30825,61152,5
30828,61146,5
30840,61167,5
30839,61175,5
30851,61189,4
30849,61202,5
30865,61208,6
30869,61218,4
30872,61216,5
30877,61225,4
30883,61237,5
30880,61246,5
30885,61245,5
30891,61244,4
30884,61243,5
30891,61260,5
30892,61259,5
30891,61264,5
30905,61268,4
30904,61269,5
30906,61268,5
30898,61276,5
30907,61279,5
30909,61277,4
30908,61271,5
30909,61269,5
30902,61260,5
30901,61271,5
30901,61275,4
30907,61270,5
30901,61266,5
30903,61255,6
30906,61254,4
30897,61257,4
30895,61253,5
30898,61255,5
30891,61249,5
30891,61240,4
30886,61243,5
30890,61248,5
30899,61251,5
30900,61258,5
30903,61259,4
30907,61264,5
30913,61265,5
30899,61275,5
30910,61274,5
30909,61276,4
30913,61274,5
30911,61278,5
30919,61277,5
30916,61284,5
30916,61287,5
30919,61293,4
30922,61283,5
30920,61289,5
30924,61295,5
30923,61297,4
30923,61298,5
30916,61295,5
30917,61298,5
30914,61293,4
30915,61295,5
30917,61291,5
30922,61297,5
30922,61291,5
30910,61289,4
30927,61292,5
30925,61284,5
30912,61298,5
30919,61292,5
30924,61302,4
30923,61308,5
30933,61298,5
30929,61303,5
30925,61300,5
30924,61301,4
30927,61310,6
30928,61306,4
30919,61310,5
30923,61313,5
30929,61305,4
30922,61310,5
30926,61304,5
30928,61304,5
30930,61309,4
30926,61312,5
30931,61318,5
30928,61316,5
30933,61327,5
30934,61334,4
30951,61345,5
30961,61351,5
30956,61367,5
30956,61343,5
30949,61341,5
30948,61337,4
30944,61338,5
30946,61329,5
30935,61334,5
30946,61336,4
30949,61342,5
30949,61343,6
30942,61340,4
30949,61354,5
30954,61359,4
30959,61362,5
30964,61363,5
30971,61366,5
30972,61386,4
30977,61388,4
30977,61395,5
30978,61397,5
30987,61400,5
30987,61406,4
30986,61399,5
30975,61395,5
30971,61391,5
30971,61397,5
30971,61390,4
30974,61390,5
30966,61373,5
30966,61387,5
30972,61386,5
30963,61376,4
30970,61378,5
30969,61380,5
30975,61385,5
30974,61386,5
30970,61378,4
30968,61365,5
30973,61378,5
30972,61373,5
30961,61366,4
30966,61361,4
30959,61359,5
30955,61347,5
30954,61340,5
30945,61335,4
30941,61330,5
30938,61331,5
30941,61326,5
30938,61332,5
30943,61332,4
30947,61336,5
30940,61331,5
30959,61345,5
30960,61360,5
30950,61349,5
30951,61356,4
30958,61362,5
30963,61364,5
30966,61374,5
30965,61376,4
30969,61377,5
30979,61382,5
30969,61386,5
30982,61395,4
30988,61400,4
30986,61406,5
30985,61411,5
30986,61415,5
30988,61420,4
30990,61413,5
30987,61408,5
30985,61413,5
30992,61416,5
30990,61420,4
30997,61418,5
30990,61412,6
30996,61415,4
30989,61428,5
30995,61422,4
30986,61422,7
30992,61416,3
30997,61430,5
31000,61419,5
30998,61426,4
30991,61420,5
30988,61425,5
30996,61428,5
31001,61429,4
31008,61432,4
31001,61433,5
31006,61442,5
31007,61453,5
31017,61452,4
31010,61460,5
31006,61458,5
31019,61448,5
31014,61451,5
31012,61432,4
30994,61430,5
30995,61420,5
30997,61418,6
31005,61425,4
30993,61432,4
30991,61423,5
30997,61435,5
31003,61439,5
31014,61440,5
31010,61446,4
31002,61433,5
31002,61433,5
30999,61433,5
31005,61431,4
30996,61441,4
31005,61429,5
31002,61434,5
31004,61439,5
30998,61435,4
31001,61432,5
30991,61433,5
31002,61433,5
31004,61431,5
30997,61430,5
30999,61428,4
30996,61428,5
30984,61411,5
30993,61410,6
30983,61408,3
30989,61391,5
30976,61389,5
30985,61383,5
30974,61379,5
30965,61368,4
30967,61358,5
30956,61356,5
30954,61354,5
30948,61342,5
30953,61332,4
30948,61337,5
30945,61323,5
30937,61317,5
30937,61312,4
30932,61299,5
30920,61286,5
30912,61273,5
30907,61260,5
30904,61258,4
30899,61256,6
30894,61251,4
30895,61246,5
30896,61253,5
30902,61252,6
30902,61264,3
30904,61267,5
30903,61258,5
30907,61266,5
30912,61273,4
30905,61266,5
30903,61267,5
30908,61263,5
30904,61271,5
30891,61249,4
30897,61249,5
30884,61248,5
30892,61249,5
30888,61237,4
30886,61241,5
30889,61234,5
30876,61225,5
30881,61226,5
30876,61224,4
30868,61229,5
30874,61214,6
30880,61216,4
30876,61223,5
30873,61214,4
30873,61218,5
30886,61238,5
30890,61242,5
30895,61245,5
30903,61251,4
30888,61257,5
30892,61256,5
30901,61259,5
30901,61249,5
30891,61254,4
30905,61265,5
30902,61267,5
30902,61266,5
30898,61274,4
30905,61264,5
30904,61274,5
30897,61255,5
30891,61260,5
30906,61272,4
30901,61269,5
30893,61268,5
30905,61268,6
30902,61276,4
30905,61280,4
30917,61280,5
30905,61272,5
30902,61282,5
30912,61279,5
30916,61289,4
30922,61295,5
30921,61294,5
30922,61288,5
30925,61297,5
30921,61299,4
30931,61313,5
30925,61309,5
30931,61316,5
30934,61324,4
30939,61316,5
30931,61310,5
30938,61322,5
30930,61318,5
30925,61310,5
30933,61312,4
30925,61315,5
30925,61312,5
30931,61325,6
30930,61313,3
30935,61318,5
30939,61317,5
30923,61310,5
30924,61316,5
30929,61312,4
30919,61301,5
30925,61292,5
30916,61286,5
30910,61290,5
30907,61278,4
30907,61267,5
30904,61257,5
30889,61250,5
30884,61235,4
30883,61232,5
30876,61217,5
30873,61216,5
30873,61219,5
30873,61214,4
30873,61221,6
30873,61218,4
30869,61220,5
30884,61233,5
30877,61229,4
30876,61225,5
30879,61213,5
30874,61222,5
30880,61222,5
30880,61216,4
30882,61210,5
30877,61217,5
30879,61209,5
30879,61215,5
30876,61225,4
30865,61211,5
30874,61219,5
30874,61220,5
30887,61229,4
30878,61231,4
30882,61238,5
30883,61233,5
30880,61228,5
30879,61242,4
30880,61228,5
30875,61220,6
30884,61229,4
30892,61233,5
30877,61231,4
30879,61231,5
30882,61232,5
30874,61221,5
30880,61219,5
30883,61228,4
30876,61226,5
30881,61216,5
30873,61217,5
30880,61219,5
30874,61218,4
30875,61215,5
30868,61212,5
30867,61211,5
30870,61212,4
30880,61217,4
30877,61228,5
30889,61237,5
30883,61243,5
30890,61244,4
30886,61230,5
30879,61227,5
30872,61219,6
30873,61218,4
30884,61232,4
30877,61212,5
30871,61219,5
30869,61219,5
30874,61219,5
30872,61223,4
30881,61227,5
30882,61240,5
30892,61248,5
30891,61244,5
30887,61240,4
30888,61250,5
30888,61243,5
30887,61251,5
30897,61253,4
30892,61259,4
30892,61253,5
30889,61250,5
30888,61251,5
30894,61250,5
30896,61253,4
30889,61253,5
30896,61247,5
30896,61250,5
30897,61247,4
30901,61255,5
30894,61253,5
30889,61250,5
30884,61252,5
30886,61238,4
30888,61234,5
30889,61233,5
30891,61239,5
30884,61232,5
30881,61231,4
30890,61236,5
30874,61225,5
30875,61226,5
30881,61230,4
30879,61220,4
30872,61207,5
30861,61203,5
30865,61185,5
30860,61185,4
30849,61174,6
30840,61155,4
30841,61159,5
30846,61156,5
30833,61157,4
30839,61153,5
30840,61151,5
30834,61153,5
30836,61151,5
30835,61146,4
30831,61146,5
30831,61141,5
30836,61150,5
30839,61147,5
30831,61137,4
30827,61129,5
30821,61127,5
30815,61116,5
30806,61104,4
30811,61098,4
30812,61093,5
30808,61097,5
30800,61098,5
30795,61095,4
30813,61098,5
30817,61112,6
30811,61110,4
30820,61117,5
30823,61124,4
30817,61135,5
30837,61129,5
30822,61144,5
30832,61140,5
30833,61144,4
30842,61155,5
30842,61164,5
30848,61170,5
30857,61190,5
30853,61200,4
30872,61206,5
30884,61222,5
30879,61227,5
30890,61239,4
30900,61245,4
30890,61242,5
30895,61242,5
30880,61237,5
30877,61226,4
30884,61233,5
30884,61228,5
30880,61223,5
30879,61223,5
30874,61214,4
30868,61212,5
30866,61198,5
30868,61193,5
30861,61180,5
30850,61175,4
30847,61177,5
30847,61162,5
30849,61165,5
30850,61175,5
30851,61187,4
30869,61216,5
30882,61233,5
30890,61243,5
30892,61246,4
30889,61246,5
30894,61238,4
30877,61235,5
30872,61228,5
30868,61222,6
30860,61192,3
30857,61182,5
30852,61170,5
30847,61160,5
30835,61167,4
30850,61164,5
30848,61166,5
30842,61176,5
30851,61177,8
30856,61186,1
30846,61190,5
30860,61202,5
30852,61199,5
30859,61195,5
30867,61191,4
30857,61182,5
30853,61182,5
30854,61178,5
30847,61180,4
30859,61174,4
30852,61178,6
30853,61183,4
30854,61188,5
30857,61180,4
30863,61193,7
30851,61193,3
30861,61197,5
30857,61201,5
30868,61208,4
30863,61200,5
30857,61200,5
30862,61189,5
30856,61187,5
30854,61184,4
30854,61191,5
30855,61179,5
30850,61177,5
30859,61192,5
30853,61189,4
30848,61174,5
30850,61178,5
30844,61175,5
30844,61173,5
30842,61166,4
30844,61161,5
30845,61162,6
30846,61178,4
30853,61174,4
30851,61183,5
30851,61183,5
30856,61192,5
30854,61189,5
30848,61187,4
30856,61202,5
30864,61208,5
30866,61211,5
30872,61214,5
30878,61213,4
30868,61218,5
30868,61224,5
30881,61221,5
30881,61219,5
30878,61235,4
30892,61244,5
30895,61259,5
30913,61272,5
30902,61282,5
30914,61279,4
30914,61286,5
30905,61285,5
30900,61278,6
30906,61277,3
30908,61270,5
30898,61281,5
30897,61272,5
30907,61273,5
30901,61267,4
30900,61256,5
30895,61260,5
30891,61257,5
30890,61251,5
30888,61248,4
30882,61238,5
30877,61229,5
30872,61222,5
30871,61209,5
30863,61194,4
30851,61188,5
30841,61167,5
30847,61160,5
30835,61145,5
30826,61138,5
30826,61133,4
30825,61139,5
30817,61133,5
30829,61135,6
30826,61137,3
30823,61132,5
30827,61138,5
30814,61130,5
30828,61133,4
30822,61136,5
30823,61128,5
30829,61136,5
30820,61122,5
30820,61129,4
30816,61134,5
30818,61120,5
30806,61108,5
30797,61102,5
30805,61100,4
30811,61112,5
30803,61106,5
30808,61103,5
30812,61099,5
30811,61106,4
30807,61110,6
30815,61106,4
30810,61116,5
30807,61113,4
30816,61117,4
30814,61114,5
30821,61121,5
30824,61119,5
30822,61122,4
30817,61133,5
30815,61130,5
30826,61125,5
30823,61133,5
30820,61127,4
30817,61130,5
30822,61124,5
30823,61133,5
30829,61133,5
30825,61133,4
30821,61136,5
30821,61133,5
30820,61133,5
30818,61126,5
30810,61128,4
30815,61122,5
30818,61130,6
30816,61122,4
30816,61123,4
30817,61116,4
30810,61123,5
30801,61114,5
30807,61101,5
30808,61105,4
30800,61095,5
30796,61092,5
30804,61089,5
30801,61095,5
30793,61093,4
30791,61088,5
30797,61082,5
30793,61089,5
30786,61086,5
30791,61089,4
30785,61074,5
30792,61086,5
30786,61076,5
30792,61075,5
30784,61073,4
30791,61072,5
30784,61069,5
30787,61070,6
30787,61077,3
30787,61078,4
30783,61075,5
30787,61079,5
30781,61068,5
30782,61065,4
30789,61079,5
30775,61075,5
30783,61072,5
30777,61066,5
30783,61065,4
30782,61066,5
30790,61076,5
30793,61071,5
30788,61074,5
30780,61076,4
30785,61079,5
30792,61072,5
30782,61083,5
30791,61071,5
30786,61077,5
30795,61077,4
30789,61063,5
30787,61071,5
30791,61073,4
30792,61075,4
30792,61074,5
30795,61077,5
30794,61082,5
30785,61082,4
30793,61085,5
30796,61081,5
30791,61082,5
30796,61078,5
30794,61089,4
30800,61095,5
30799,61096,5
30805,61102,5
30799,61107,5
30797,61107,4
30799,61102,5
30804,61100,5
30804,61107,5
30808,61106,5
30809,61107,4
30799,61109,6
30799,61090,4
30801,61100,5
30808,61094,5
30810,61104,4
30796,61095,5
30800,61103,5
30804,61097,5
30803,61093,4
30804,61086,5
30798,61096,5
30793,61100,5
30811,61101,5
30809,61106,4
30810,61116,5
30811,61101,5
30807,61105,5
30802,61095,5
30781,61065,4
30775,61042,5
30770,61028,5
30765,61035,5
30760,61024,5
30758,60998,4
30742,61003,5
30732,60984,6
30736,60971,4
30729,60960,5
30733,60973,4
30740,60979,5
30746,61015,5
30766,61037,5
30776,61060,4
30787,61083,5
30804,61110,5
30814,61137,5
30840,61165,5
30846,61184,4
30860,61191,10
30857,61204,5
30858,61180,5
30859,61169,5
30855,61194,8
30872,61208,5
30879,61239,5
30855,61262,8
30891,61262,5
30898,61260,5
30898,61273,5
30888,61261,8
30892,61243,5
30901,61267,5
30828,61120,8
30828,61120,5
30800,61087,5
30801,61089,5
30798,61101,8
30805,61097,5
30788,61045,5
30742,60965,8
30689,60870,5
30655,60751,5
30621,60701,8
30617,60661,5
30608,60681,5
30608,60681,5
30610,60673,8
30606,60649,5
30588,60629,5
30564,60564,8
30534,60499,5
30526,60480,5
30521,60445,5
30513,60427,8
30509,60418,5
30486,60401,5
30362,60118,8
30362,60118,5
30329,60068,5
30297,60009,8
30274,59954,5
30253,59946,5
30267,59927,5
30244,59904,8
30215,59849,5
30204,59822,5
30195,59818,8
30229,59870,5
30255,59946,5
30281,59982,5
30241,59891,8
30241,59891,5
30246,59906,5
30256,59910,8
30266,59928,5
30242,59919,5
30252,59932,8
30271,59965,5
30283,60004,5
30303,60046,5
30302,60060,8
30320,60083,5
30336,60091,5
30346,60128,8
30346,60128,5
30388,60123,5
30351,60141,5
30340,60150,8
30366,60187,5
30382,60213,5
30396,60247,8
30423,60280,5
30437,60311,5
30454,60348,8
30479,60395,5
30508,60447,5
30526,60481,5
30573,60584,8
30573,60584,5
30568,60599,5
30590,60608,8
30591,60615,5
30591,60607,5
30588,60602,5
30599,60621,8
30600,60641,5
30632,60649,5
30623,60677,8
30623,60677,5
30636,60698,5
30669,60763,8
30669,60763,5
30672,60803,5
30679,60809,5
30688,60802,8
30693,60788,5
30707,60823,5
30736,60830,8
30732,60847,5
30700,60847,5
30716,60846,5
30720,60851,8
30708,60854,5
30708,60851,5
30718,60839,8
30718,60839,5
30704,60775,5
30684,60789,8
30688,60792,5
30688,60793,5
30663,60795,5
30674,60797,8
30691,60803,5
30695,60813,5
30700,60814,8
30694,60809,5
30697,60799,5
30689,60778,5
30678,60772,8
30678,60772,5
30690,60781,5
30684,60786,8
30669,60785,2
30682,60774,3
30684,60774,5
30675,60764,5
30668,60762,5
30672,60759,5
30673,60767,4
30672,60769,5
30675,60776,5
30686,60784,5
30690,60799,4
30696,60815,4
30699,60813,5
30696,60825,5
30710,60815,5
30694,60814,4
30689,60805,5
30687,60804,5
30687,60804,5
30701,60806,5
30693,60822,4
30710,60838,5
30717,60857,5
30720,60866,6
30740,60891,5
30748,60907,3
30757,60937,5
30766,60948,5
30788,60969,5
30788,60994,5
30795,61008,4
30803,61021,5
30816,61032,5
30829,61040,5
30820,61045,5
30838,61043,4
30841,61056,5
30837,61058,5
30838,61062,5
30843,61080,4
30845,61074,5
30847,61088,5
30844,61091,5
30854,61098,5
30865,61108,5
30856,61107,4
30854,61107,5
30860,61114,5
30861,61112,6
30871,61112,3
30855,61107,5
30864,61109,5
30874,61120,5
30864,61116,5
30868,61114,4
30869,61113,5
30858,61122,5
30867,61105,5
30857,61100,5
30868,61098,4
30860,61101,5
30859,61095,5
30854,61091,5
30848,61086,4
30842,61086,5
30847,61087,5
30851,61096,5
30853,61085,5
30856,61105,4
30857,61112,6
30856,61109,4
30867,61109,5
30867,61120,5
30871,61118,4
30875,61118,5
30874,61123,5
30877,61117,5
30876,61119,5
30867,61122,4
30874,61121,5
30863,61112,5
30863,61103,5
30869,61105,5
30865,61104,4
30864,61109,5
30865,61096,5
30864,61103,5
30863,61100,4
30863,61100,5
30861,61107,5
30860,61106,5
30861,61106,5
30856,61100,4
30862,61099,5
30848,61096,6
30845,61093,4
30850,61088,5
30850,61078,4
30847,61081,5
30852,61080,5
30859,61093,5
30853,61098,5
30869,61105,4
30871,61127,5
30870,61120,5
30866,61117,5
30870,61101,5
30870,61101,4
30859,61104,5
30867,61116,5
30866,61113,5
30871,61119,4
30877,61123,5
30877,61130,5
30874,61134,5
30877,61137,5
30877,61145,4
30879,61145,5
30885,61146,5
30882,61158,6
30887,61168,4
30888,61165,4
30899,61169,5
30900,61178,5
30904,61180,5
30905,61177,5
30911,61186,4
30904,61189,5
30906,61183,5
30909,61193,5
30914,61197,5
30915,61195,4
30911,61200,5
30914,61182,5
30910,61191,5
30905,61182,4
30909,61188,4
30908,61176,5
30907,61179,5
30909,61174,5
30905,61179,5
30901,61168,4
30902,61171,5
30901,61173,5
30899,61169,5
30892,61166,4
30886,61157,5
30884,61148,5
30872,61145,5
30872,61133,5
30871,61144,4
30869,61131,5
30873,61125,5
30874,61125,5
30861,61117,5
30870,61122,4
30857,61123,5
30865,61119,5
30866,61123,5
30871,61114,4
30876,61121,4
30870,61122,5
30869,61119,5
30876,61111,5
30862,61119,4
30867,61120,6
30869,61115,4
30863,61113,5
30867,61119,5
30874,61120,4
30869,61121,5
30871,61118,5
30864,61116,5
30870,61116,5
30858,61098,4
30854,61097,5
30856,61104,5
30856,61093,5
30855,61088,5
30858,61085,4
30854,61084,5
30844,61085,5
30838,61073,5
30839,61069,5
30843,61070,4
30838,61068,5
30840,61065,5
30832,61057,5
30838,61054,4
30836,61050,5
30826,61046,6
30825,61050,4
30820,61040,5
30826,61040,4
30824,61041,5
30819,61040,5
30815,61049,5
30816,61033,5
30809,61032,4
30802,61026,5
30798,61009,5
30810,61016,5
30808,61016,5
30806,61007,4
30798,61008,5
30804,61024,5
30810,61029,5
30820,61039,5
30819,61048,4
30829,61056,5
30824,61041,5
30820,61045,5
30809,61027,4
30805,61006,4
30793,60983,5
30777,60948,5
30745,60888,5
