RED,IR,EKG,TIME
29163,57728,9
29168,57725,8
29163,57727,5
29160,57717,5
29167,57736,5
29165,57729,8
29148,57717,5
29168,57726,5
29166,57731,8
29166,57731,5
29167,57727,5
29171,57737,5
29163,57721,8
29158,57729,5
29168,57735,5
29172,57763,8
29168,57752,5
29164,57737,5
29175,57735,8
29173,57740,5
29170,57747,5
29170,57747,5
29177,57761,8
29178,57762,5
29167,57753,5
29182,57751,8
29183,57747,5
29173,57752,5
29173,57745,5
29174,57724,8
29177,57741,5
29171,57762,5
29173,57758,8
29173,57758,5
29181,57767,5
29175,57761,13
29181,57758,5
29176,57755,5
29182,57759,8
29192,57756,5
29175,57748,5
29186,57762,8
29186,57762,5
29168,57758,5
29177,57760,5
29180,57771,8
29184,57768,5
29177,57741,5
29175,57760,8
29175,57775,5
29199,57758,5
29182,57773,8
29180,57754,5
29189,57772,5
29191,57775,5
29181,57770,8
29181,57770,5
29181,57782,5
29179,57740,8
29180,57735,5
29181,57763,5
29208,57769,5
29189,57768,8
29149,57776,5
29171,57769,5
29182,57769,8
29189,57779,5
29182,57771,5
29180,57781,8
29180,57781,5
29190,57736,5
29180,57771,10
29182,57782,9
29192,57770,5
29195,57790,8
29195,57790,5
29157,57794,5
29183,57793,8
29187,57791,5
29199,57801,5
29204,57787,5
29190,57772,8
29192,57786,5
29185,57792,5
29202,57804,8
29188,57783,5
29181,57783,5
29188,57784,5
29190,57785,8
29190,57785,5
29187,57813,5
29189,57809,8
29194,57791,5
29191,57783,5
29190,57792,8
29207,57800,5
29208,57795,5
29194,57799,5
29198,57791,8
29198,57800,1
29191,57812,3
29197,57810,5
29191,57808,4
29198,57800,5
29206,57819,5
29200,57809,5
29208,57817,5
29203,57815,4
29196,57803,5
29205,57815,5
29207,57807,5
29206,57808,4
29207,57814,4
29200,57818,5
29203,57819,5
29205,57811,5
29209,57816,4
29200,57815,5
29204,57811,6
29203,57808,4
29197,57807,5
29196,57810,4
29207,57815,5
29202,57811,5
29201,57815,5
29207,57820,5
29205,57811,4
29199,57808,5
29209,57815,5
29202,57818,5
29205,57821,5
29201,57812,4
29208,57812,5
29205,57815,5
29207,57823,5
29209,57819,4
29211,57823,4
29211,57839,5
29206,57834,5
29209,57835,5
29213,57823,4
29204,57832,5
29210,57827,5
29212,57826,6
29211,57828,4
29216,57832,4
29212,57824,5
29219,57827,5
29216,57827,5
29204,57826,5
29211,57833,4
29213,57829,5
29211,57833,5
29203,57838,5
29217,57841,5
29223,57844,4
29219,57854,5
29220,57850,5
29222,57860,5
29223,57870,4
29223,57866,4
29233,57859,5
29224,57874,5
29237,57879,5
29234,57874,5
29227,57874,4
29237,57879,5
29241,57886,5
29234,57881,5
29237,57894,4
29243,57895,5
29246,57901,5
29245,57908,5
29248,57904,5
29246,57906,4
29239,57898,5
29242,57902,5
29239,57906,5
29246,57903,5
29242,57904,4
29247,57896,5
29251,57909,5
29246,57903,5
29245,57913,5
29246,57912,4
29248,57914,5
29244,57914,5
29256,57901,5
29251,57913,4
29249,57912,6
29257,57911,4
29263,57915,5
29260,57914,5
29257,57918,4
29260,57925,5
29255,57927,5
29257,57926,5
29251,57927,5
29260,57939,4
29260,57932,5
29261,57934,5
29267,57950,5
29267,57949,5
29275,57956,4
29280,57965,5
29283,57962,5
29275,57973,5
29283,57961,5
29278,57967,4
29280,57982,5
29283,57971,5
29273,57957,5
29286,57966,4
29276,57965,5
29270,57963,6
29277,57963,4
29282,57962,5
29276,57965,4
29283,57969,5
29274,57962,5
29279,57959,5
29272,57963,5
29267,57951,4
29277,57946,5
29267,57960,5
29271,57951,5
29278,57956,5
29271,57954,4
29274,57957,5
29273,57946,5
29274,57955,5
29271,57954,5
29276,57958,4
29272,57959,5
29275,57951,5
29263,57944,5
29266,57946,4
29267,57945,5
29262,57932,5
29253,57937,5
29259,57928,5
29254,57924,4
29250,57919,5
29267,57924,5
29255,57932,5
29261,57931,5
29264,57938,4
29270,57938,5
29269,57943,5
29260,57935,5
29268,57940,5
29266,57940,4
29267,57932,5
29255,57934,5
29264,57937,5
29267,57938,5
29265,57938,4
29260,57942,5
29259,57934,5
29260,57936,5
29264,57941,5
29261,57935,4
29254,57933,5
29259,57931,5
29270,57939,5
29266,57939,4
29264,57941,5
29271,57932,5
29268,57934,5
29256,57937,5
29265,57928,4
29260,57940,5
29262,57939,5
29264,57942,5
29264,57939,5
29265,57936,4
29270,57938,5
29267,57939,5
29262,57938,5
29256,57946,5
29255,57944,4
29275,57936,5
29273,57930,5
29255,57934,5
29262,57927,4
29265,57934,5
29263,57928,3
29269,57937,5
29259,57945,5
29266,57936,4
29267,57945,5
29266,57943,5
29261,57950,5
29269,57950,5
29266,57954,4
29279,57951,5
29272,57954,5
29264,57946,5
29268,57949,5
29264,57946,4
29273,57949,5
29265,57931,5
29274,57936,5
29270,57934,5
29265,57954,4
29263,57940,5
29263,57934,6
29276,57949,4
29273,57947,4
29270,57952,4
29271,57945,5
29268,57939,5
29263,57935,5
29252,57927,4
29248,57921,5
29251,57912,5
29244,57911,5
29247,57903,5
29247,57903,4
29251,57905,5
29238,57903,5
29252,57904,5
29249,57918,5
29253,57915,4
29242,57908,5
29250,57921,5
29250,57914,5
29244,57905,5
29246,57904,4
29252,57910,5
29242,57909,5
29254,57913,6
29247,57909,3
29246,57897,4
29249,57899,5
29253,57903,5
29249,57901,5
29248,57912,4
29247,57904,5
29247,57903,5
29247,57905,5
29243,57901,5
29246,57901,4
29235,57897,5
29243,57903,5
29244,57906,5
29247,57906,5
29252,57901,4
29247,57918,5
29248,57911,5
29256,57915,5
29254,57915,5
29249,57919,5
29252,57914,4
29251,57910,5
29253,57919,5
29243,57918,6
29255,57908,3
29247,57919,5
29252,57915,5
29255,57916,5
29252,57914,4
29252,57910,5
29247,57909,5
29247,57919,5
29250,57916,5
29253,57918,4
29260,57913,5
29252,57916,5
29257,57918,5
29252,57917,5
29257,57919,4
29259,57919,5
29254,57923,5
29258,57927,5
29259,57925,5
29256,57924,4
29252,57912,6
29253,57917,4
29255,57913,5
29256,57911,4
29259,57910,4
29246,57905,5
29250,57901,5
29252,57914,5
29253,57917,4
29252,57911,5
29251,57922,5
29262,57916,5
29262,57931,5
29260,57923,4
29254,57931,5
29255,57926,5
29256,57926,5
29264,57927,5
29262,57934,4
29258,57927,5
29265,57933,5
29258,57924,5
29251,57925,5
29262,57922,4
29252,57913,5
29249,57919,6
29261,57915,4
29264,57910,4
29258,57916,4
29261,57929,5
29259,57926,5
29255,57924,5
29258,57937,4
29261,57921,5
29252,57927,5
29257,57930,5
29264,57914,5
29248,57924,4
29250,57915,5
29255,57910,5
29249,57916,5
29249,57912,5
29252,57920,4
29253,57922,5
29253,57917,5
29250,57920,5
29258,57916,5
29254,57923,4
29261,57923,5
29250,57925,5
29258,57937,6
29252,57919,3
29260,57929,4
29261,57922,5
29253,57921,5
29254,57919,5
29253,57910,4
29243,57906,5
29249,57917,5
29249,57902,9
29254,57908,1
29253,57908,4
29246,57906,5
29249,57919,5
29246,57914,5
29249,57905,5
29245,57898,4
29245,57901,5
29250,57901,5
29248,57910,5
29245,57909,5
29241,57903,5
29252,57902,4
29247,57904,5
29241,57892,5
29247,57898,4
29251,57904,4
29246,57895,5
29244,57903,5
29249,57907,5
29252,57903,4
29236,57892,5
29250,57904,5
29249,57904,5
29246,57906,5
29245,57907,4
29248,57904,5
29238,57905,5
29243,57907,5
29242,57910,5
29255,57906,4
29250,57899,5
29250,57905,5
29246,57904,5
29248,57906,5
29246,57901,4
29254,57913,6
29240,57906,4
29240,57901,5
29245,57902,5
29242,57910,4
29236,57909,5
29246,57903,5
29241,57902,5
29247,57901,4
29248,57900,5
29239,57906,5
29249,57914,5
29249,57900,5
29255,57903,4
29247,57907,5
29239,57898,5
29249,57901,5
29251,57896,5
29239,57902,4
29242,57909,5
29240,57910,5
29250,57904,5
29246,57906,5
29248,57908,4
29247,57898,5
29248,57895,6
29239,57901,4
29244,57895,5
29249,57889,4
29235,57897,5
29244,57888,5
29246,57899,5
29244,57893,4
29243,57894,5
29246,57891,5
29239,57891,5
29235,57880,5
29234,57876,4
29234,57873,5
29236,57872,5
29227,57877,5
29225,57868,5
29226,57869,4
29231,57869,5
29225,57864,5
29228,57856,5
29216,57861,5
29225,57857,4
29213,57854,5
29222,57856,5
29216,57848,5
29220,57849,5
29227,57841,4
29221,57840,5
29208,57839,5
29216,57843,5
29214,57834,4
29216,57840,5
29215,57836,5
29209,57840,5
29218,57845,5
29222,57836,4
29214,57838,5
29224,57841,5
29215,57841,5
29210,57830,5
29208,57835,4
29208,57824,5
29212,57819,5
29208,57829,5
29204,57821,5
29207,57815,5
29211,57817,4
29200,57818,5
29205,57814,5
29210,57824,4
29213,57823,4
29215,57831,5
29204,57824,5
29206,57822,5
29202,57819,4
29210,57827,5
29209,57833,5
29212,57827,5
29211,57828,5
29212,57828,4
29206,57829,5
29209,57834,5
29211,57834,5
29219,57828,5
29216,57826,4
29211,57821,5
29211,57832,5
29206,57823,5
29210,57821,5
29212,57827,4
29208,57830,6
29212,57825,4
29214,57833,5
29213,57824,5
29210,57833,4
29214,57828,5
29211,57824,5
29194,57821,5
29201,57820,4
29199,57810,5
29201,57826,5
29208,57808,5
29194,57809,5
29192,57809,4
29202,57809,5
29200,57805,5
29193,57812,5
29195,57809,5
29190,57807,4
29198,57815,5
29194,57818,5
29201,57808,5
29200,57805,5
29198,57812,4
29197,57818,5
29204,57821,5
29205,57818,5
29202,57816,4
29203,57819,4
29196,57825,5
29206,57814,5
29210,57826,5
29202,57822,4
29213,57832,5
29213,57834,5
29213,57823,5
29207,57834,5
29214,57835,4
29199,57835,5
29206,57839,5
29212,57838,5
29212,57828,5
29214,57841,4
29212,57841,5
29210,57837,5
29213,57832,5
29214,57845,5
29210,57832,4
29209,57832,5
29215,57841,5
29217,57843,5
29223,57848,5
29215,57847,4
29216,57849,5
29220,57845,5
29222,57854,5
29220,57849,4
29223,57848,5
29216,57852,5
29214,57851,5
29214,57848,5
29220,57846,4
29219,57853,5
29225,57850,5
29221,57848,5
29215,57848,5
29221,57850,4
29214,57852,5
29221,57851,4
29229,57848,5
29224,57857,5
29228,57859,6
29223,57853,3
29227,57852,5
29222,57862,5
29220,57852,5
29224,57856,4
29225,57859,5
29229,57875,5
29225,57869,5
29227,57872,4
29235,57875,5
29232,57881,5
29239,57872,5
29234,57876,5
29234,57868,4
29227,57880,5
29227,57878,5
29223,57874,5
29222,57874,5
29235,57872,4
29231,57868,5
29225,57874,6
29223,57873,4
29231,57870,5
29236,57875,4
29240,57887,7
29235,57890,3
29237,57894,5
29237,57889,5
29245,57893,4
29237,57894,5
29237,57900,5
29240,57896,5
29242,57904,4
29251,57907,5
29247,57901,5
29246,57891,5
29240,57905,5
29245,57895,4
29240,57904,5
29247,57906,5
29244,57912,5
29246,57910,5
29250,57910,4
29246,57906,5
29248,57910,5
29245,57905,6
29252,57915,4
29250,57907,4
29245,57908,5
29246,57906,5
29245,57909,5
29244,57906,5
29254,57910,4
29255,57911,5
29250,57906,5
29247,57909,5
29252,57907,4
29247,57914,5
29250,57912,5
29250,57909,5
29248,57910,5
29248,57918,4
29246,57917,5
29249,57908,5
29248,57919,5
29247,57911,5
29248,57918,5
29254,57919,4
29254,57914,5
29256,57909,5
29246,57911,6
29252,57920,3
29256,57923,5
29258,57919,5
29254,57934,5
29257,57924,5
29259,57926,4
29255,57924,5
29256,57925,5
29255,57921,5
29259,57927,4
29258,57933,5
29262,57929,5
29260,57932,5
29259,57936,5
29261,57931,4
29260,57937,5
29259,57930,5
29258,57932,5
29255,57934,5
29257,57926,4
29257,57929,6
29255,57929,4
29258,57927,5
29255,57932,5
29256,57932,4
29266,57928,5
29259,57935,5
29261,57932,5
29260,57935,5
29261,57935,4
29267,57925,5
29257,57933,5
29260,57940,5
29256,57936,4
29264,57941,5
29269,57940,5
29263,57949,5
29265,57951,5
29271,57949,4
29270,57956,5
29270,57949,5
29277,57942,5
29266,57945,5
29267,57944,4
29258,57940,5
29264,57941,6
29265,57936,4
29258,57941,5
29260,57942,4
29261,57940,5
29263,57946,5
29268,57946,5
29257,57943,5
29267,57947,4
29268,57950,5
29273,57966,5
29281,57964,5
29278,57967,4
29272,57969,5
29274,57963,5
29273,57964,5
29271,57963,5
29276,57966,4
29268,57965,5
29279,57961,5
29275,57957,5
29265,57960,5
29274,57959,4
29275,57958,5
29281,57960,5
29273,57964,6
29275,57958,4
29269,57953,4
29266,57950,5
29267,57944,5
29268,57947,5
29266,57941,5
29258,57938,4
29261,57938,5
29252,57927,5
29262,57925,5
29259,57910,4
29255,57907,5
29236,57899,5
29226,57883,5
29240,57885,5
29231,57869,4
29234,57873,5
29225,57878,5
29231,57885,5
29245,57890,5
29242,57891,5
29247,57894,4
29246,57897,5
29245,57902,5
29249,57911,6
29243,57917,3
29249,57913,5
29250,57924,5
29255,57921,5
29251,57929,5
29252,57927,4
29255,57925,5
29264,57931,5
29252,57936,5
29264,57937,4
29255,57945,5
29263,57934,5
29262,57938,5
29261,57949,5
29259,57949,4
29268,57950,5
29260,57945,5
29252,57933,5
29252,57917,5
29259,57913,4
29252,57912,6
29243,57911,4
29255,57907,5
29243,57902,5
29249,57906,4
29248,57914,5
29255,57911,5
29248,57924,5
29253,57911,5
29250,57930,4
29246,57914,5
29254,57923,5
29254,57920,5
29256,57930,4
29254,57932,4
29266,57939,5
29264,57941,5
29266,57940,5
29267,57943,4
29265,57944,5
29271,57940,5
29265,57939,5
29267,57939,5
29255,57932,4
29255,57938,5
29260,57943,6
29260,57940,6
29258,57936,3
29260,57937,4
29259,57933,5
29262,57939,5
29262,57943,5
29268,57953,5
29265,57945,4
29267,57944,5
29268,57941,5
29269,57938,5
29262,57951,4
29257,57946,4
29261,57942,5
29261,57944,5
29267,57940,5
29268,57942,4
29266,57943,5
29265,57941,5
29259,57956,5
29263,57947,5
29268,57943,4
29271,57950,5
29269,57958,5
29270,57956,6
29263,57950,4
29262,57958,4
29265,57959,5
29266,57951,5
29270,57942,5
29263,57955,5
29270,57956,4
29272,57961,5
29262,57956,5
29270,57962,5
29274,57949,4
29266,57965,4
29276,57951,5
29272,57961,5
29270,57957,5
29268,57956,4
29264,57957,5
29273,57948,5
29274,57957,5
29273,57962,5
29274,57965,5
29269,57961,4
29271,57962,5
29273,57967,5
29281,57961,5
29273,57958,4
29262,57953,5
29274,57959,5
29275,57962,5
29274,57959,5
29277,57958,4
29273,57962,5
29276,57954,5
29269,57960,5
29273,57957,4
29267,57952,4
29276,57955,5
29279,57965,5
29273,57961,5
29273,57956,4
29277,57957,5
29273,57953,5
29270,57952,5
29268,57945,5
29264,57945,4
29266,57944,6
29260,57934,4
29262,57940,5
29264,57936,5
29264,57942,4
29264,57936,5
29273,57934,5
29265,57942,5
29264,57934,5
29266,57932,4
29257,57940,5
29250,57922,5
29253,57931,5
29265,57930,4
29253,57930,4
29264,57940,5
29265,57938,5
29265,57940,5
29259,57940,4
29262,57939,5
29260,57939,5
29257,57937,5
29255,57930,5
29258,57944,4
29266,57928,5
29255,57936,6
29271,57937,4
29261,57927,5
29261,57932,4
29258,57933,5
29260,57920,5
29264,57925,5
29262,57936,5
29263,57945,4
29265,57944,5
29261,57939,5
29257,57934,5
29270,57942,4
29262,57944,4
29268,57950,5
29264,57941,5
29264,57937,5
29264,57943,4
29265,57943,5
29265,57933,5
29258,57943,5
29259,57942,5
29262,57948,4
29265,57938,5
29267,57937,5
29273,57941,5
29255,57940,5
29265,57933,4
29263,57934,5
29263,57946,5
29260,57945,5
29265,57934,5
29270,57953,4
29261,57940,5
29261,57939,5
29264,57948,5
29263,57932,5
29270,57931,4
29255,57934,5
29265,57938,5
29260,57930,5
29255,57934,4
29250,57935,6
29257,57926,4
29260,57927,5
29263,57922,5
29260,57927,6
29254,57922,3
29262,57931,5
29258,57928,5
29260,57934,5
29260,57928,4
29251,57920,5
29251,57926,5
29260,57940,5
29254,57931,5
29258,57928,4
29251,57933,5
29265,57932,5
29258,57933,5
29266,57927,4
29259,57927,4
29259,57931,5
29266,57939,5
29267,57934,5
29263,57932,4
29268,57937,5
29258,57945,6
29257,57944,4
29264,57936,5
29258,57939,4
29266,57938,7
29270,57933,3
29263,57935,5
29273,57940,5
29261,57940,4
29261,57935,5
29258,57940,5
29256,57943,5
29263,57932,5
29270,57931,4
29264,57937,5
29264,57934,5
29264,57934,5
29259,57938,5
29263,57923,4
29260,57934,5
29267,57927,5
29263,57936,5
29259,57928,4
29263,57932,5
29263,57929,5
29256,57931,6
29251,57927,4
29258,57924,4
29252,57929,5
29258,57920,5
29260,57934,5
29261,57938,5
29269,57949,4
29266,57952,5
29271,57954,5
29270,57952,5
29264,57944,5
29263,57934,4
29266,57941,5
29267,57938,5
29263,57940,5
29269,57937,5
29264,57943,4
29268,57938,5
29264,57935,5
29264,57944,5
29260,57931,5
29269,57939,4
29258,57949,5
29261,57956,5
29269,57947,6
29267,57943,3
29258,57946,5
29270,57938,5
29259,57943,5
29273,57936,5
29272,57936,4
29267,57946,5
29276,57938,5
29264,57947,5
29260,57947,5
29263,57944,4
29264,57951,5
29266,57953,5
29260,57955,5
29268,57947,5
29271,57952,4
29270,57961,5
29278,57958,5
29264,57942,5
29270,57956,4
29277,57945,6
29271,57944,4
29271,57945,5
29264,57952,5
29269,57959,6
29266,57948,3
29270,57950,5
29263,57940,5
29271,57938,5
29271,57940,4
29265,57937,5
29272,57947,5
29259,57941,5
29270,57943,5
29270,57940,4
29264,57943,5
29272,57946,5
29266,57948,5
29259,57945,5
29271,57947,4
29270,57944,5
29269,57943,5
29271,57948,5
29269,57951,4
29271,57939,5
29263,57937,6
29265,57935,4
29265,57946,5
29273,57943,4
29270,57946,5
29262,57941,5
29269,57941,5
29269,57936,5
29256,57937,4
29258,57949,5
29257,57933,5
29261,57940,5
29262,57944,5
29256,57937,4
29263,57937,5
29257,57939,5
29265,57929,5
29262,57939,5
29267,57932,4
29262,57935,5
29257,57925,5
29261,57926,5
29262,57929,4
29261,57925,4
29259,57924,5
29253,57921,6
29253,57911,4
29255,57914,4
29258,57910,5
29253,57898,5
29251,57910,5
29244,57911,5
29251,57908,4
29249,57911,5
29245,57907,5
29253,57909,5
29246,57892,5
29247,57902,4
29245,57895,5
29248,57899,5
29244,57901,5
29246,57895,5
29248,57908,4
29239,57908,5
29251,57912,5
29258,57919,5
29252,57904,5
29251,57898,4
29246,57891,5
29243,57897,5
29242,57903,6
29238,57887,3
29238,57886,5
29238,57880,5
29234,57884,5
29242,57887,5
29245,57886,4
29236,57886,5
29236,57890,5
29241,57890,5
29250,57894,5
29236,57891,4
29238,57876,5
29237,57890,5
29235,57880,5
29238,57882,5
29237,57886,4
29236,57875,5
29235,57874,5
29228,57872,5
29230,57868,4
29223,57871,5
29224,57870,4
29229,57863,5
29221,57867,5
29227,57858,4
29230,57859,5
29218,57853,5
29223,57855,5
29225,57864,5
29219,57847,4
29220,57847,5
29221,57844,5
29216,57828,5
29217,57840,5
29215,57843,4
29211,57829,5
29212,57836,5
29209,57836,5
29211,57827,5
29205,57826,4
29204,57824,5
29196,57817,5
29202,57817,5
29199,57808,5
29202,57803,4
29199,57815,6
29197,57806,4
29198,57804,5
29202,57804,4
29204,57803,5
29195,57808,5
29207,57816,5
29202,57805,5
29191,57807,4
29204,57812,5
29193,57809,5
29196,57797,5
29199,57800,5
29200,57802,4
29193,57802,5
29193,57795,5
29199,57798,5
29201,57791,5
29188,57796,4
29198,57802,5
29200,57796,5
29190,57783,5
29182,57773,5
29187,57769,4
29185,57776,5
29182,57773,6
29186,57762,4
29174,57764,4
29177,57772,5
29177,57772,5
29181,57779,5
29185,57777,5
29191,57778,4
29181,57777,5
29194,57782,5
29186,57782,5
29185,57779,5
29187,57770,4
29181,57768,5
29180,57760,5
29183,57763,5
29182,57778,5
29172,57768,4
29182,57769,5
29181,57775,5
29191,57782,5
29190,57781,5
29194,57791,4
29184,57792,5
29196,57799,5
29193,57803,5
29204,57806,4
29202,57811,5
29204,57807,5
29205,57820,5
29205,57822,5
29208,57832,4
29217,57823,5
29215,57840,5
29218,57844,5
29221,57844,5
29224,57847,4
29225,57853,5
29225,57855,5
29212,57849,6
29230,57848,4
29220,57854,4
29228,57857,5
29226,57854,5
29228,57857,5
29226,57854,5
29229,57858,5
29228,57862,4
29230,57864,5
29231,57867,5
29243,57865,4
29234,57864,5
29231,57877,5
29232,57873,5
29238,57873,5
29245,57887,4
29237,57886,5
29246,57895,5
29244,57879,5
29249,57882,5
29241,57892,4
29247,57879,5
29238,57881,5
29241,57878,5
29234,57880,5
29238,57874,4
29235,57866,5
29228,57865,5
29230,57872,5
29232,57880,5
29233,57877,4
29240,57881,6
29239,57876,4
29241,57875,5
29232,57861,4
29220,57857,5
29223,57867,5
29220,57857,5
29232,57856,5
29229,57862,4
29220,57858,5
29220,57863,5
29230,57861,5
29236,57853,5
29231,57854,4
29226,57858,5
29239,57871,5
29238,57866,5
29237,57871,5
29246,57872,4
29236,57883,5
29240,57889,5
29239,57884,5
29243,57897,5
29246,57901,4
29242,57890,5
29248,57900,5
29239,57889,5
29249,57880,4
29241,57880,5
29239,57877,5
29244,57881,5
29241,57889,5
29243,57883,4
29246,57889,5
29247,57889,5
29252,57894,5
29252,57896,5
29249,57897,4
29250,57900,5
29250,57903,5
29250,57903,5
29258,57905,5
29247,57900,5
29248,57907,4
29251,57907,5
29252,57907,5
29241,57914,6
29247,57905,3
29252,57899,5
29241,57892,5
29233,57881,5
29240,57889,4
29235,57888,5
29241,57888,5
29239,57897,5
29242,57872,5
29239,57874,4
29243,57869,5
29242,57872,5
29235,57865,5
29231,57870,5
29235,57861,4
29234,57864,5
29234,57861,5
29234,57877,5
29240,57879,5
29233,57884,4
29235,57878,6
29233,57879,4
29246,57873,5
29223,57864,5
29235,57858,6
29226,57845,3
29222,57841,5
29218,57850,5
29223,57859,4
29227,57849,5
29230,57849,5
29228,57858,5
29236,57873,5
29234,57882,4
29246,57888,5
29242,57888,5
29243,57899,5
29250,57899,5
29253,57895,4
29250,57901,5
29254,57906,5
29250,57890,5
29248,57878,5
29225,57866,4
29231,57879,5
29241,57883,6
29239,57899,4
29242,57900,5
29254,57897,4
29244,57896,5
29240,57899,5
29247,57907,5
29245,57917,4
29245,57905,5
29249,57888,5
29249,57891,5
29233,57866,5
29225,57852,4
29220,57853,5
29230,57858,5
29225,57861,5
29233,57862,5
29229,57876,4
29233,57871,5
29236,57872,5
29221,57857,5
29235,57854,5
29234,57869,4
29246,57880,5
29241,57879,5
29243,57863,6
29231,57849,4
29248,57858,4
29251,57891,5
29269,57915,5
29266,57921,5
29274,57921,4
29277,57913,5
29265,57902,5
29247,57870,5
29245,57864,5
29247,57876,4
29253,57892,5
29258,57897,5
29274,57914,5
29273,57900,5
29260,57887,4
29258,57877,5
29244,57834,5
29227,57825,5
29223,57823,5
29219,57806,5
29216,57806,4
29217,57790,5
29221,57781,5
29213,57778,6
29210,57792,3
29226,57798,5
29222,57798,5
29229,57809,5
29219,57803,4
29231,57815,5
29227,57816,5
29228,57806,5
29223,57790,5
29213,57789,4
29221,57782,5
29218,57791,5
29210,57772,5
29218,57772,5
29199,57765,4
29205,57757,5
29207,57756,5
29199,57772,5
29212,57768,5
29214,57769,4
29213,57778,6
29214,57780,4
29213,57789,5
29223,57804,5
29232,57808,4
29231,57824,5
29233,57826,5
29236,57823,5
29241,57824,4
29243,57852,5
29251,57856,5
29252,57865,5
29255,57878,5
29260,57884,4
29257,57896,5
29267,57898,5
29279,57914,5
29282,57923,5
29289,57939,4
29290,57931,5
29298,57947,5
29293,57954,5
29309,57961,5
29305,57962,4
29309,57968,5
29314,57980,6
29308,57976,4
29313,57988,5
29325,57989,4
29302,57984,5
29309,57983,5
29313,57989,5
29312,57991,4
29311,57990,5
29320,58003,5
29322,57995,5
29320,58010,5
29319,58014,4
29321,58013,5
29326,58005,5
29317,58013,5
29325,58018,5
29316,58011,4
29327,58008,5
29327,58012,5
29319,58008,5
29331,58018,5
29328,58025,4
29322,58026,5
29328,58025,5
29337,58022,6
29327,58021,4
29324,58017,4
29326,58017,5
29322,58019,5
29326,58022,5
29333,58020,4
29328,58023,5
29335,58022,5
29336,58019,5
29325,58015,5
29324,58018,4
29329,58018,5
29327,58011,5
29325,58008,5
29327,58020,5
29327,58014,4
29326,58013,5
29325,58018,5
29328,58018,5
29323,58007,5
29325,58005,5
29323,58001,4
29321,58005,5
29322,58004,5
29321,58003,5
29318,57996,4
29323,58002,5
29320,58000,5
29320,57994,5
29314,58002,4
29313,58004,5
29326,58004,5
29319,58010,5
29324,58012,5
29326,57999,4
29325,58016,5
29329,58020,5
29324,58022,5
29327,58014,5
29319,58007,4
29318,58013,5
29327,58010,5
29316,58004,5
29322,58005,5
29311,58003,4
29318,58002,6
29326,58001,4
29318,58004,5
29324,58008,5
29320,58000,4
29325,58018,5
29319,58019,5
29318,58016,5
29322,58012,4
29323,58014,5
29322,58014,5
29327,58019,5
29323,58012,5
29330,58017,4
29329,58016,5
29317,58012,5
29330,58023,5
29329,58014,5
29330,58022,4
29334,58017,5
29318,58013,5
29332,58013,5
29319,58026,5
29321,58020,4
29323,58017,5
29324,58016,7
29322,58003,3
29320,58011,5
29325,58009,4
29324,58007,5
29314,57997,5
29321,57992,5
29313,57993,4
29313,57996,4
29310,57988,5
29319,57998,5
29308,57988,5
29314,57994,4
29315,57998,5
29324,57992,5
29321,57994,5
29310,58003,5
29317,58004,4
29322,58003,5
29325,58008,5
29326,57999,5
29316,58000,5
29321,58006,4
29316,58004,5
29323,58000,5
29318,58005,5
29321,58007,5
29321,58009,4
29320,58006,5
29324,58014,5
29324,58012,5
29319,58014,4
29326,58011,4
29316,58021,5
29323,58021,5
29329,58018,5
29332,58027,4
29330,58028,5
29333,58029,5
29336,58017,5
29336,58018,5
29328,58024,4
29329,58019,5
29332,58023,5
29332,58014,5
29326,58011,5
29330,58018,5
29318,58005,4
29321,58018,5
29327,58021,5
29323,58017,5
29335,58019,4
29329,58018,5
29332,58015,5
29330,58019,5
29324,58022,4
29330,58023,4
29323,58009,5
29332,58016,5
29324,58018,5
29334,58018,4
29328,58016,5
29330,58034,5
29333,58022,5
29326,58040,5
29337,58036,4
29342,58050,5
29346,58036,5
29333,58026,5
29343,58037,5
29340,58038,4
29331,58027,6
29331,58025,4
29331,58020,5
29335,58023,5
29335,58023,4
29335,58021,5
29328,58023,5
29331,58023,5
29328,58015,4
29330,58030,4
29333,58032,5
29329,58031,5
29330,58029,5
29340,58035,4
29325,58033,5
29333,58030,5
29337,58029,5
29335,58031,5
29340,58036,4
29334,58031,5
29331,58031,5
29333,58031,5
29345,58031,4
29336,58028,4
29335,58035,5
29325,58030,5
29329,58029,5
29334,58024,5
29335,58029,4
29330,58028,5
29337,58025,8
29334,58025,2
29329,58018,4
29329,58027,4
29353,58019,5
29322,58013,5
29324,58020,5
29338,58017,4
29333,58010,5
29320,58009,5
29324,58004,5
29322,58011,5
29328,58006,5
29327,58011,4
29314,58006,5
29319,58008,5
29323,58004,6
29325,58005,3
29315,58006,5
29325,58008,5
29321,58002,5
29324,58009,5
29325,58001,4
29322,57999,5
29321,58011,5
29328,58005,5
29332,58005,4
29327,58019,4
29328,58011,5
29323,58015,5
29326,58006,5
29323,58013,4
29321,58015,5
29329,58013,5
29319,58009,5
29331,58015,5
29327,58022,4
29327,58017,6
29330,58016,4
29326,58022,5
29333,58009,5
29331,58025,6
29323,58021,3
29328,58019,5
29325,58021,5
29331,58016,5
29318,58003,4
29330,58016,5
29329,58014,5
29322,58011,5
29328,58016,4
29318,58006,4
29323,58007,5
29316,58006,5
29329,58010,5
29325,57993,4
29320,58004,5
29320,57999,5
29318,57993,5
29322,58002,5
29319,57997,4
29322,58000,5
29320,57999,6
29316,57994,4
29312,57991,5
29311,57996,4
29316,57995,5
29311,57986,5
29304,57990,5
29312,57991,5
29314,57991,4
29322,57998,5
29316,57992,5
29315,58001,5
29328,58007,4
29331,58011,4
29318,58006,5
29320,58001,5
29315,58003,5
29317,57989,4
29319,57993,5
29319,57992,5
29314,57994,5
29315,57987,5
29314,57987,4
29314,57981,5
29309,57994,5
29315,57998,6
29312,57995,4
29315,57999,4
29325,58002,5
29321,58000,5
29316,57998,5
29323,58005,5
29320,58009,4
29322,57997,5
29321,58004,5
29312,58005,5
29320,57996,4
29326,58004,4
29320,58003,5
29313,58002,5
29316,57992,5
29330,58005,4
29320,58002,5
29321,57998,5
29317,58005,5
29315,58003,5
29323,58002,5
29326,58001,4
29322,58000,5
29316,58006,5
29318,58001,6
29313,57989,3
29317,57999,5
29317,57992,5
29316,57993,5
29315,57987,5
29307,57989,4
29310,57990,5
29311,57985,5
29314,57992,5
29306,57981,5
29314,57981,4
29306,57983,5
29305,57971,5
29306,57976,5
29306,57973,4
29310,57984,5
29308,57978,5
29312,57976,5
29311,57978,5
29313,57979,4
29307,57981,6
29311,57974,4
29306,57974,5
29310,57974,5
29304,57971,4
29307,57968,5
29302,57972,5
29310,57977,5
29308,57966,5
29308,57974,4
29307,57959,5
29304,57974,5
29305,57971,5
29303,57972,5
29304,57965,4
29299,57970,5
29302,57962,5
29302,57969,5
29298,57963,4
29299,57958,5
29293,57962,5
29303,57960,5
29305,57959,5
29295,57958,4
29299,57953,5
29297,57960,6
29289,57951,4
29293,57956,5
29302,57948,4
29290,57950,5
29294,57944,5
29297,57954,5
29296,57954,5
29299,57939,4
29294,57952,5
29293,57941,5
29300,57941,5
29297,57942,5
29296,57943,4
29286,57940,5
29294,57946,5
29289,57935,5
29291,57934,4
29283,57939,4
29286,57936,5
29289,57934,5
29292,57933,5
29284,57932,4
29281,57930,5
29275,57928,5
29282,57927,6
29283,57923,4
29285,57919,4
29279,57919,5
29281,57923,5
29291,57914,5
29269,57913,5
29279,57911,4
29269,57915,5
29272,57913,5
29273,57913,5
29265,57910,5
29272,57905,4
29279,57916,5
29286,57922,5
29276,57922,5
29272,57913,4
29279,57919,4
29276,57917,5
29279,57908,5
29271,57910,5
29274,57917,5
29274,57900,4
29276,57908,5
29266,57909,5
29274,57909,5
29266,57906,4
29278,57895,5
29269,57906,5
29275,57906,5
29269,57901,5
29272,57907,4
29263,57895,5
29265,57901,5
29275,57905,5
29272,57892,5
29267,57900,4
29274,57913,5
29258,57904,5
29269,57900,5
29274,57899,4
29271,57907,4
29266,57907,5
29264,57897,5
29268,57900,5
29270,57895,4
29262,57894,6
29260,57889,4
29261,57901,5
29264,57895,5
29263,57892,4
29259,57895,5
29265,57887,5
29259,57885,5
29260,57888,5
29255,57872,4
29253,57866,5
29258,57863,5
29245,57854,5
29233,57841,5
29236,57834,4
29231,57822,5
29231,57823,5
29234,57827,5
29236,57826,4
29233,57829,4
29230,57832,5
29239,57829,5
29229,57826,5
29235,57838,4
29236,57832,5
29247,57853,6
29246,57861,4
29252,57881,5
29268,57898,4
29271,57913,5
29276,57920,5
29282,57918,5
29285,57920,5
29272,57912,4
29274,57915,5
29276,57908,5
29277,57918,5
29294,57924,5
29296,57966,4
29311,57989,5
29318,58004,5
29332,58021,5
29340,58023,4
29338,58009,4
29328,58008,5
29332,58025,5
29343,58046,5
29351,58078,4
29386,58128,5
29397,58126,5
29387,58120,5
29368,58088,5
29358,58052,4
29345,58048,5
29339,58057,5
29348,58057,5
29358,58061,5
29370,58094,4
29369,58105,5
29376,58104,5
29375,58106,5
29374,58090,5
29361,58091,4
29363,58069,5
29350,58049,5
29342,58044,5
29339,58038,4
29334,58036,4
29343,58038,5
29338,58042,5
29349,58052,5
29344,58055,5
29351,58049,4
29341,58041,5
29340,58026,5
29341,58031,5
29346,58049,4
29367,58095,5
29401,58145,5
29421,58183,5
29422,58185,5
29407,58171,4
29409,58144,5
29390,58108,5
29358,58074,5
29354,58054,5
29354,58071,4
29366,58096,5
29369,58096,5
29385,58114,5
29400,58142,4
29400,58153,4
29404,58145,5
29402,58130,5
29396,58132,5
29400,58130,4
29395,58128,6
29398,58137,4
29407,58144,5
29402,58139,5
29405,58159,4
29407,58178,5
29431,58198,5
29438,58220,5
29443,58230,5
29455,58247,4
29462,58251,5
29458,58245,5
29454,58243,5
29455,58238,5
29451,58234,4
29436,58210,5
29438,58196,5
29426,58184,5
29434,58179,4
29426,58192,5
29428,58193,5
29422,58188,6
29414,58163,4
29405,58146,4
29400,58143,5
29413,58146,5
29398,58139,5
29393,58123,5
29393,58115,4
29379,58105,5
29355,58069,5
29352,58045,5
29357,58052,5
29361,58068,4
29356,58070,5
29372,58086,5
29369,58084,5
29372,58101,5
29378,58116,4
29376,58094,5
29363,58091,5
29363,58074,5
29355,58060,5
29342,58053,4
29344,58044,5
29342,58034,5
29337,58042,6
29343,58035,3
29348,58051,5
29340,58041,5
29343,58053,5
29348,58043,5
29343,58035,4
29334,58019,5
29331,58007,5
29325,57986,5
29307,57972,5
29305,57969,4
29298,57946,5
29291,57947,5
29285,57945,5
29301,57950,5
29306,57955,4
29299,57957,5
29304,57957,5
29313,57968,5
29313,57970,4
29307,57980,6
29312,57983,4
29313,57985,5
29308,57992,5
29322,58000,6
29312,57991,3
29315,57987,5
29313,57983,5
29306,57984,5
29319,57978,4
29310,57980,5
29312,57976,5
29322,57990,5
29309,57999,5
29324,57989,4
29315,58001,5
29315,57997,5
29316,57994,5
29323,57986,5
29318,57988,4
29317,57998,5
29317,57994,5
29321,58002,5
29322,58012,4
29324,58019,4
29322,58020,6
29331,58028,5
29327,58029,4
29337,58035,4
29342,58051,5
29351,58042,5
29339,58055,5
29350,58052,5
29345,58056,4
29344,58060,5
29346,58067,5
29345,58059,5
29340,58064,5
29349,58060,4
29347,58062,5
29350,58071,5
29349,58066,5
29358,58079,5
29353,58078,4
29356,58077,5
29360,58081,5
29362,58081,5
29360,58087,4
29366,58094,4
29364,58097,5
29359,58090,6
29359,58087,4
29363,58088,4
29354,58085,5
29360,58076,5
29356,58081,5
29353,58061,5
29343,58059,4
29352,58062,5
29357,58060,5
29345,58054,5
29334,58048,5
29335,58038,4
29338,58039,5
29333,58046,5
29340,58040,5
29336,58038,5
29338,58046,4
29343,58040,5
29338,58045,5
29338,58044,5
29338,58041,5
29334,58044,4
29344,58042,5
29345,58048,5
29346,58059,6
29349,58068,3
29340,58058,5
29350,58067,5
29344,58059,5
29351,58056,5
29342,58053,4
29349,58059,5
29344,58054,5
29346,58063,5
29335,58053,5
29338,58051,4
29343,58046,5
29341,58035,5
29329,58033,5
29330,58025,5
29331,58029,4
29328,58035,5
29332,58040,5
29344,58040,5
29331,58040,4
29335,58029,5
29328,58035,4
29330,58024,5
29332,58041,5
29335,58030,4
29339,58047,5
29333,58040,5
29330,58036,5
29332,58027,5
29322,58034,4
29321,58031,5
29329,58024,5
29329,58024,5
29334,58026,5
29327,58023,4
29325,58029,5
29322,58023,5
29327,58020,5
29325,58017,5
29318,58014,4
29322,58014,5
29326,58010,5
29333,58020,5
29323,58023,4
29331,58025,4
29329,58038,6
29332,58038,4
29333,58038,5
29333,58049,4
29342,58048,5
29337,58048,5
29335,58051,5
29336,58051,5
29344,58052,4
29343,58055,5
29340,58056,5
29338,58064,5
29352,58059,5
29338,58055,4
29346,58058,5
29340,58059,5
29343,58051,5
29345,58051,5
29347,58047,4
29351,58058,5
29339,58048,5
29342,58056,5
29343,58063,4
29340,58058,4
29339,58067,5
29347,58062,6
29338,58062,4
29347,58061,4
29350,58070,5
29348,58067,5
29347,58068,5
29342,58062,5
29351,58067,4
29351,58060,5
29349,58047,5
29346,58053,5
29338,58044,5
29342,58043,4
29339,58040,5
29330,58040,5
29343,58043,5
29334,58048,5
29344,58049,4
29334,58042,5
29338,58041,5
29335,58039,5
29342,58047,5
29326,58046,4
29334,58034,5
29331,58042,5
29327,58028,5
29332,58046,4
29336,58035,5
29337,58041,5
29328,58040,5
29332,58043,5
29333,58047,4
29341,58044,5
29343,58046,5
29342,58044,5
29340,58053,5
29339,58051,4
29337,58047,5
29339,58036,5
29328,58036,5
29333,58034,5
29326,58027,4
29325,58029,5
29323,58024,5
29329,58021,5
29326,58019,4
29328,58027,5
29332,58027,4
29324,58030,5
29334,58036,5
29341,58045,4
29344,58048,5
29336,58034,5
29338,58031,5
29341,58041,5
29331,58035,4
29330,58023,5
29324,58022,5
29329,58012,5
29326,58019,5
29335,58021,4
29327,58020,5
29326,58019,5
29323,58016,5
29328,58022,5
29322,58023,4
29327,58031,5
29321,58025,5
29329,58032,5
29320,58023,4
29331,58021,4
29321,58031,6
29324,58029,4
29325,58018,5
29326,58022,4
29328,58017,5
29330,58024,5
29325,58020,5
29328,58018,5
29330,58033,4
29327,58035,5
29332,58030,5
29334,58027,5
29334,58033,5
29333,58031,4
29327,58038,5
29332,58034,5
29336,58033,5
29329,58038,5
29334,58037,4
29338,58036,5
29324,58030,5
29328,58026,5
29328,58027,4
29331,58019,4
29331,58024,5
29330,58018,5
29330,58025,5
29328,58023,4
29328,58024,5
29331,58016,5
29326,58017,5
29326,58021,5
29321,58011,4
29330,58025,5
29323,58025,5
29319,58022,5
29324,58029,5
29329,58018,4
29327,58019,5
29321,58015,5
29328,58012,5
29324,58026,5
29326,58021,4
29331,58025,5
29329,58027,5
29334,58025,5
29328,58028,5
29325,58028,4
29327,58020,5
29327,58021,5
29321,58023,5
29329,58026,4
29325,58019,5
29330,58018,5
29320,58023,5
29330,58029,5
29329,58027,4
29323,58008,5
29338,58015,5
29320,58020,5
29336,58018,5
29326,58022,4
29326,58014,5
29328,58013,5
29328,58003,5
29313,57995,5
29318,58000,4
29309,58001,5
29314,57990,5
29315,57995,5
29317,57988,4
29318,57988,5
29315,57988,4
29308,57988,5
29312,57995,5
29307,57987,4
29315,57986,5
29318,57987,5
29307,57977,5
29310,57977,5
29309,57984,4
29310,57979,5
29307,57995,5
29311,58000,5
29323,57996,5
29320,58003,4
29314,57999,5
29320,58005,5
29319,58000,5
29316,57998,5
29314,57990,4
29316,58005,5
29317,57995,6
29316,57995,4
29320,58002,4
29319,57999,4
29323,57991,5
29320,58006,5
29311,58000,5
29321,57996,4
29320,58010,5
29317,58004,5
29324,58013,5
29326,58015,5
29326,58017,4
29328,58025,5
29324,58025,5
29332,58028,5
29327,58026,5
29329,58018,4
29328,58022,5
29332,58030,5
29334,58033,5
29336,58035,5
29337,58038,4
29334,58038,5
29334,58028,5
29333,58029,6
29328,58033,3
29331,58033,4
29332,58036,5
29334,58039,5
29333,58034,5
29333,58029,4
29328,58036,5
29338,58020,5
29326,58032,5
29334,58034,5
29338,58030,4
29329,58022,5
29328,58020,5
29330,58024,5
29330,58020,5
29334,58025,4
29332,58025,5
29334,58014,5
29326,58023,5
29325,58025,5
29317,58016,5
29327,58020,4
29331,58017,5
29324,58018,5
29327,58022,6
29326,58021,3
29323,58021,5
29328,58018,5
29324,58008,5
29327,58019,4
29325,58019,5
29321,58011,5
29327,58026,5
29337,58021,5
29325,58023,4
29319,58018,5
29331,58023,5
29326,58022,5
29326,58026,5
29325,58012,4
29324,58018,5
29320,58021,5
29335,58016,5
29325,58015,5
29333,58026,4
29332,58017,6
29333,58023,4
29325,58016,5
29318,58015,4
29324,58007,5
29324,58012,5
29319,58006,5
29323,58007,5
29323,58004,4
29319,58010,5
29316,58016,5
29320,58003,5
29317,58001,5
29316,58009,4
29320,58010,5
29323,58009,5
29325,58011,5
29324,58004,5
29316,58006,4
29317,58005,5
29321,58004,5
29322,57995,5
29312,58008,5
29321,58000,4
29320,57996,5
29318,57985,6
29314,57990,4
29319,57999,4
29313,57992,5
29308,57989,5
29314,57991,5
29313,57987,5
29304,57982,4
29313,57976,5
29311,57982,5
29305,57972,5
29311,57982,5
29308,57983,4
29305,57975,5
29313,57986,5
29299,57974,5
29303,57991,5
29316,57992,4
29311,57998,5
29313,57992,5
29307,57989,5
29317,57986,5
29307,57976,4
29311,57985,5
29311,57977,5
29303,57963,6
29308,57977,3
29295,57968,5
29309,57965,5
29303,57972,5
29309,57979,5
29300,57971,4
29299,57972,5
29311,57979,5
29311,57973,5
29301,57981,5
29311,57974,4
29299,57978,5
29308,57978,9
29305,57979,1
29296,57974,5
29305,57974,4
29317,57994,5
29306,57975,5
29302,57973,5
29306,57976,4
29307,57972,5
29304,57968,4
29295,57968,5
29296,57969,5
29297,57970,4
29293,57962,5
29303,57966,5
29300,57965,5
29305,57957,5
29293,57965,4
29300,57966,5
29296,57949,5
29297,57953,5
29294,57951,5
29297,57950,4
29293,57952,5
29290,57956,5
29288,57951,5
29286,57958,5
29289,57942,4
29286,57934,5
29292,57939,5
29281,57941,5
29277,57929,4
29282,57933,5
29285,57935,6
29277,57926,4
29280,57931,5
29280,57939,4
29278,57934,5
29280,57935,5
29272,57930,5
29279,57925,5
29282,57928,4
29270,57920,5
29277,57927,5
29282,57921,5
29288,57927,5
29275,57917,4
29272,57915,5
29277,57915,5
29282,57921,5
29273,57921,4
29266,57909,4
29268,57908,5
29266,57912,5
29262,57915,5
29271,57909,4
29269,57901,5
29270,57907,5
29269,57913,6
29261,57904,4
29261,57903,4
29270,57904,5
29262,57901,5
29265,57898,5
29261,57884,5
29262,57882,4
29260,57876,5
29251,57863,5
29243,57859,5
29253,57862,5
29252,57854,4
29255,57866,5
29239,57858,5
29246,57863,5
29241,57851,4
29244,57853,4
29244,57847,5
29232,57853,5
29242,57854,5
29242,57851,5
29242,57848,4
29242,57842,5
29240,57847,5
29243,57842,5
29240,57842,4
29240,57843,5
29238,57838,5
29233,57844,5
29233,57828,5
29244,57844,4
29242,57842,5
29235,57854,5
29236,57848,5
29240,57850,5
29236,57850,4
29235,57850,5
29244,57861,5
29244,57853,5
29233,57849,4
29240,57852,5
29241,57857,5
29252,57854,5
29241,57849,5
29244,57855,4
29242,57853,6
29241,57849,4
29251,57851,5
29243,57848,5
29248,57847,4
29242,57854,5
29241,57856,5
29242,57853,5
29255,57861,5
29243,57861,4
29255,57860,5
29252,57873,5
29260,57872,5
29252,57883,4
29250,57876,4
29253,57879,5
29264,57889,5
29257,57886,5
29262,57888,4
29264,57891,5
29268,57890,5
29261,57897,5
29265,57895,5
29268,57900,4
29265,57890,5
29254,57886,6
29269,57901,4
29262,57894,5
29264,57893,4
29262,57894,5
29266,57897,5
29267,57881,5
29259,57891,5
29261,57888,4
29269,57881,5
29262,57885,5
29258,57889,5
29270,57885,4
29260,57878,4
29255,57885,5
29258,57875,5
29254,57879,5
29260,57880,4
29257,57872,5
29253,57872,5
29250,57862,5
29254,57871,5
29250,57868,4
29258,57871,5
29252,57871,5
29259,57870,5
29249,57869,5
29259,57879,4
29252,57869,5
29251,57866,5
29251,57867,5
29253,57870,5
29256,57868,4
29253,57865,5
29254,57869,5
29246,57866,5
29255,57866,4
29254,57866,5
29256,57867,5
29247,57878,5
29249,57877,5
29258,57870,4
29253,57861,5
29254,57868,5
29247,57865,5
29249,57864,5
29244,57866,5
29245,57869,4
29243,57851,5
29245,57864,5
29242,57859,5
29254,57864,4
29254,57858,5
29244,57857,5
29249,57855,5
29258,57859,5
29253,57862,4
29253,57855,5
29241,57853,5
29248,57851,5
29240,57848,4
29242,57851,5
29231,57844,5
29238,57842,5
29233,57836,5
29233,57844,4
29235,57846,5
29234,57846,5
29238,57853,4
29246,57848,5
29245,57849,4
29230,57848,6
29243,57843,3
29246,57843,5
29242,57846,5
29235,57843,4
29241,57845,5
29243,57843,5
29248,57848,5
29233,57844,4
29241,57851,4
29243,57837,5
29238,57834,5
29239,57834,5
29232,57833,4
29228,57834,5
29237,57827,5
29232,57827,5
29235,57830,5
29225,57824,4
29238,57817,5
29228,57811,5
29228,57813,6
29231,57813,4
29227,57806,4
29219,57806,5
29216,57797,5
29218,57799,5
29218,57795,5
29222,57788,4
29214,57796,5
29213,57798,5
29222,57792,5
29218,57806,4
29216,57799,4
29222,57799,5
29217,57805,5
29224,57808,5
29227,57817,4
29230,57834,5
29245,57838,5
29244,57853,5
29247,57871,5
29254,57878,5
29261,57879,4
29252,57881,5
29264,57887,5
29264,57896,6
29277,57917,3
29288,57934,5
29292,57943,5
29286,57938,5
29292,57954,5
29298,57958,4
29308,57963,5
29302,57959,5
29300,57954,5
29296,57952,4
29295,57957,5
29296,57951,5
29293,57963,5
29294,57971,5
29304,57973,4
29318,57997,5
29319,57999,5
29320,57998,5
29319,57991,5
29324,58008,4
29318,58004,6
29323,58007,4
29310,57990,5
29307,57983,5
29310,57989,6
29322,57990,3
29311,57982,5
29309,57978,5
29308,57957,5
29300,57955,4
29303,57957,5
29297,57959,5
29305,57964,5
29313,57971,4
29305,57969,5
29300,57959,5
29289,57931,5
29288,57929,5
29284,57916,4
29269,57892,5
29261,57864,5
29256,57869,5
29262,57870,5
29263,57884,4
29263,57890,5
29281,57915,6
29295,57944,4
29303,57978,5
29316,57978,4
29305,57943,5
29286,57911,5
29287,57902,5
29278,57908,5
29282,57931,4
29292,57935,5
29296,57951,5
29299,57938,5
29298,57939,4
29286,57939,5
29294,57938,5
29288,57931,5
29294,57933,5
29291,57928,4
29281,57920,5
29282,57917,5
29289,57923,5
29289,57934,5
29294,57944,4
29288,57935,5
29287,57932,5
29292,57942,6
29288,57936,4
29285,57944,4
29299,57948,5
29294,57942,5
29294,57943,5
29297,57943,5
29292,57952,4
29306,57968,5
29305,57969,5
29317,57981,5
29314,57992,4
29312,57997,5
29315,58007,5
29318,58005,5
29325,58010,5
29317,58013,4
29325,58001,5
29319,58001,5
29323,58000,5
29313,57994,5
29315,57992,5
29313,57990,4
29313,57987,5
29317,57984,5
29309,57983,6
29304,57978,3
29310,57987,5
29308,57981,5
29314,57969,5
29305,57976,4
29311,57968,4
29307,57968,5
29302,57973,5
29296,57954,5
29297,57938,4
29296,57941,5
29290,57934,5
29278,57928,5
29279,57928,5
29282,57933,4
29278,57931,5
29284,57927,5
29276,57922,5
29270,57903,5
29271,57910,4
29275,57909,6
29273,57905,4
29265,57902,5
29264,57891,5
29269,57901,4
29259,57895,5
29264,57888,5
29262,57890,5
29269,57880,4
29268,57878,4
29264,57886,5
29266,57892,5
29262,57889,5
29265,57877,4
29261,57875,5
29254,57880,5
29255,57869,5
29259,57874,5
29248,57857,4
29244,57860,5
29248,57855,5
29249,57852,5
29257,57860,5
29252,57858,4
29249,57843,5
29248,57849,6
29248,57840,4
29256,57852,5
29251,57852,4
29250,57859,5
29245,57858,5
29254,57843,5
29251,57852,4
29246,57850,4
29240,57841,5
29245,57834,5
29235,57840,5
29235,57835,4
29231,57828,5
29235,57829,5
29228,57828,5
29229,57819,5
29236,57835,4
29236,57830,5
29230,57830,5
29234,57824,5
29239,57828,5
29237,57833,4
29239,57829,5
29231,57824,5
29233,57832,6
29230,57833,4
29234,57827,4
29236,57826,5
29241,57836,5
29238,57831,7
29235,57841,2
29233,57832,4
29234,57825,5
29238,57832,5
29238,57830,5
29240,57832,4
29234,57833,5
29230,57830,5
29237,57822,5
29233,57828,5
29234,57835,4
29236,57824,5
29230,57827,5
29237,57825,5
29241,57821,5
29240,57826,5
29241,57825,4
29239,57830,5
29239,57833,5
29229,57826,5
29235,57825,4
29236,57825,5
29234,57817,5
29233,57816,5
29234,57826,4
29235,57822,4
29233,57813,5
29234,57806,5
29231,57821,5
29239,57818,4
29231,57819,5
29236,57811,5
29228,57807,5
29228,57805,5
29233,57815,4
29234,57814,5
29226,57813,5
29234,57819,5
29232,57819,5
29233,57816,4
29235,57814,6
29226,57813,4
29230,57813,5
29235,57814,5
29226,57820,4
29231,57807,5
29235,57816,5
29230,57812,5
29230,57810,4
29233,57814,4
29235,57815,5
29231,57813,5
29226,57817,5
29229,57815,4
29231,57812,5
29231,57811,5
29230,57814,5
29235,57803,5
29232,57810,4
29232,57810,5
29232,57809,5
29224,57804,5
29215,57797,5
29221,57793,4
29224,57795,5
29222,57790,6
29213,57790,4
29216,57794,5
29220,57801,4
29221,57793,5
29220,57785,5
29217,57795,5
29226,57799,4
29225,57788,4
29224,57791,5
29222,57799,5
29225,57795,5
29223,57793,4
29220,57806,5
29224,57803,5
29219,57803,5
29227,57810,5
29221,57805,4
29224,57810,5
29226,57811,5
29227,57806,5
29233,57808,5
29219,57801,4
29223,57797,5
29224,57803,5
29225,57808,5
29223,57800,5
29235,57804,4
29219,57810,5
29229,57805,5
29232,57809,5
29226,57813,4
29234,57816,4
29237,57819,5
29236,57815,5
29225,57821,5
29234,57815,4
29240,57817,5
29243,57825,5
29241,57817,5
29238,57824,5
29225,57823,4
29239,57824,5
29241,57820,5
29240,57821,5
29241,57827,5
29236,57821,5
29235,57826,4
29236,57821,5
29237,57828,5
29232,57821,5
29239,57818,4
29235,57827,5
29239,57813,5
29230,57820,5
29234,57816,4
29230,57818,5
29226,57819,5
29232,57811,5
29235,57819,5
29238,57816,4
29228,57823,5
29240,57814,5
29234,57816,5
29228,57813,5
29229,57807,4
29227,57810,5
29244,57806,5
29233,57809,4
29228,57811,5
29232,57805,4
29232,57815,7
29224,57815,3
29232,57815,5
29235,57820,5
29229,57817,4
29229,57814,5
29232,57818,5
29230,57820,5
29233,57819,4
29245,57815,5
29242,57819,5
29228,57827,5
29234,57825,5
29242,57823,4
29228,57813,5
29235,57822,5
29245,57819,5
29230,57825,5
29238,57826,4
29239,57822,5
29239,57829,5
29232,57832,6
29241,57826,4
29243,57822,4
29245,57817,5
29237,57819,5
29235,57817,5
29232,57824,5
29235,57820,4
29238,57824,5
29234,57823,5
29234,57823,5
29237,57816,4
29232,57825,5
29229,57820,5
29236,57822,5
29235,57811,5
29227,57819,4
29233,57804,5
29228,57812,5
29226,57807,5
29233,57809,5
29234,57810,5
29231,57809,4
29227,57801,5
29224,57810,5
29228,57806,6
29231,57804,3
29222,57803,5
29234,57812,5
29236,57806,5
29233,57811,5
29236,57811,4
29230,57809,5
29236,57824,5
29240,57826,5
29234,57818,4
29228,57813,5
29231,57806,5
29224,57808,5
29238,57818,5
29234,57821,4
29231,57829,5
29227,57812,5
29230,57808,5
29238,57815,5
29234,57815,4
29230,57814,6
29236,57821,4
29228,57810,5
29242,57821,5
29234,57820,6
29238,57827,3
29239,57818,5
29246,57835,5
29235,57826,5
29240,57816,4
29231,57827,5
29236,57824,5
29229,57816,5
29232,57827,4
29231,57818,5
29237,57824,5
29234,57817,5
29234,57823,5
29238,57824,4
29236,57830,5
29231,57828,5
29235,57822,5
29240,57810,5
29229,57821,4
29236,57817,5
29241,57818,6
29236,57813,4
29239,57808,5
29232,57822,4
29229,57827,5
29234,57811,5
29233,57823,5
29236,57813,4
29230,57810,4
29229,57807,5
29221,57805,5
29234,57811,5
29233,57807,4
29232,57799,5
29225,57803,5
29228,57804,5
29230,57805,5
29230,57799,4
29232,57806,5
29220,57805,5
29228,57794,5
29224,57795,5
29218,57804,4
29227,57800,5
29222,57791,5
29226,57791,6
29217,57803,4
29230,57788,4
29226,57800,5
29221,57792,5
29223,57786,5
29212,57789,4
29217,57785,4
29213,57786,5
29217,57781,5
29217,57782,5
29210,57786,4
29212,57777,5
29213,57783,5
29222,57781,5
29216,57770,5
29205,57766,4
29220,57772,5
29203,57761,5
29204,57766,5
29208,57763,5
29206,57763,5
29216,57756,4
29207,57758,5
29198,57764,5
29206,57765,6
29202,57760,3
29213,57758,5
29204,57762,5
29197,57757,5
29207,57761,4
29207,57756,4
29203,57760,5
29201,57757,5
29205,57747,5
29202,57739,4
29194,57745,5
29195,57744,5
29194,57739,5
29196,57744,5
29195,57736,4
29189,57734,5
29198,57738,5
29199,57743,5
29190,57734,5
29187,57727,4
29191,57721,6
29182,57721,4
29186,57723,5
29178,57712,5
29179,57713,4
29183,57713,5
29182,57706,5
29179,57707,5
29180,57714,4
29175,57705,4
29182,57706,5
29181,57707,5
29176,57709,5
29181,57702,4
29177,57687,5
29170,57685,5
29170,57686,5
29160,57676,5
29162,57667,4
29158,57674,5
29163,57668,5
29148,57654,5
29150,57656,5
29151,57651,4
29146,57652,5
29152,57640,6
29139,57630,4
29137,57636,5
29145,57630,4
29133,57605,5
29126,57610,5
29129,57596,5
29134,57604,4
29144,57633,4
29146,57637,5
29146,57663,5
29163,57673,5
29175,57692,4
29180,57700,5
29181,57705,5
29178,57707,5
29189,57726,5
29184,57733,4
29189,57749,5
29205,57758,5
29213,57785,5
29218,57792,5
29215,57786,4
29219,57788,5
29217,57789,5
29222,57775,6
29212,57776,4
29211,57771,4
29210,57763,5
29205,57750,5
29205,57761,5
29204,57749,4
29201,57751,4
29196,57746,5
29192,57748,5
29193,57745,5
29195,57742,4
29200,57743,5
29195,57741,5
29193,57747,5
29195,57742,5
29198,57748,4
29194,57750,5
29203,57747,5
29197,57741,5
29199,57739,5
29191,57739,5
29197,57734,4
29205,57735,5
29190,57736,5
29192,57735,5
29190,57735,4
29193,57731,5
29188,57734,5
29187,57725,5
29185,57732,4
29192,57723,5
29190,57726,5
29193,57732,5
29194,57726,5
29195,57734,4
29198,57734,5
29192,57731,5
29191,57732,5
29198,57736,5
29195,57726,4
29197,57729,5
29196,57732,5
29191,57723,5
29193,57731,5
29195,57735,4
29190,57722,6
29183,57730,4
29193,57729,5
29198,57731,5
29186,57718,4
29193,57724,5
29186,57726,5
29183,57732,5
29196,57726,4
29197,57732,5
29191,57736,5
29196,57728,5
29190,57737,5
29193,57733,4
29196,57741,5
29198,57745,5
29196,57745,5
29204,57753,5
29199,57755,4
29200,57747,5
29206,57751,5
29196,57746,10
29196,57746,4
29211,57750,5
29203,57753,6
29201,57749,4
29203,57748,5
29214,57749,4
29203,57744,5
29203,57752,5
29202,57747,5
29205,57745,4
29203,57755,5
29206,57754,5
29206,57760,5
29209,57754,5
29216,57765,4
29212,57764,5
29209,57765,5
29206,57762,5
29206,57762,5
29215,57762,4
29219,57761,5
29200,57771,5
29212,57758,5
29204,57762,5
29206,57769,4
29212,57755,5
29212,57766,5
29208,57770,5
29205,57769,4
29207,57768,4
29209,57771,5
29206,57772,5
29221,57760,5
29206,57770,4
29205,57764,5
29204,57763,5
29199,57757,5
29213,57763,5
29209,57756,4
29209,57766,5
29210,57755,5
29210,57764,5
29204,57758,5
29198,57754,4
29210,57755,5
29200,57751,5
29205,57754,5
29207,57749,5
29204,57756,5
29206,57754,4
29208,57755,5
29201,57750,5
29202,57765,4
29205,57763,4
29206,57754,5
29211,57759,5
29218,57764,5
29204,57759,4
29208,57763,5
29207,57759,5
29210,57767,5
29217,57765,5
29214,57770,4
29214,57777,5
29217,57773,5
29206,57774,5
29213,57775,5
29217,57776,4
29211,57766,5
29215,57772,6
29214,57778,4
29219,57769,5
29215,57774,4
29211,57766,5
29209,57768,5
29224,57782,5
29212,57775,4
29217,57772,5
29212,57764,5
29212,57773,5
29214,57768,5
29213,57776,4
29213,57758,5
29202,57767,5
29206,57777,5
29214,57761,5
29208,57770,4
29210,57757,5
29212,57764,5
29213,57769,5
29214,57773,5
29214,57777,4
29207,57778,5
29205,57770,5
29213,57778,6
29210,57774,4
29212,57770,4
29211,57774,5
29220,57783,5
29210,57781,5
29215,57782,4
29213,57776,5
29219,57782,5
29210,57786,5
29222,57786,5
29213,57787,4
29210,57780,5
29203,57767,5
29214,57771,5
29202,57773,5
29213,57771,4
29210,57769,5
29207,57774,5
29212,57775,5
29218,57772,5
29217,57770,5
29222,57780,4
29221,57794,5
29213,57784,5
29217,57789,6
29219,57784,3
29216,57780,5
29219,57789,5
29221,57790,5
29220,57789,4
29224,57793,5
29217,57790,5
29233,57796,5
29218,57796,5
29230,57805,4
29224,57803,5
29229,57799,5
29223,57798,5
29222,57799,5
29226,57803,4
29232,57804,5
29224,57795,5
29235,57798,5
29230,57808,5
29225,57809,4
29228,57804,6
29232,57807,4
29229,57812,5
29234,57810,5
29232,57806,4
29227,57814,5
29225,57801,5
29227,57798,5
29225,57786,4
29226,57794,5
29222,57791,5
29219,57787,5
29220,57787,5
29221,57793,4
29220,57800,5
29222,57802,5
29219,57791,5
29224,57796,5
29218,57785,4
29221,57798,5
29217,57796,5
29212,57786,5
29221,57794,5
29216,57802,4
29226,57804,5
29222,57797,6
29220,57802,4
29217,57805,5
29220,57800,4
29225,57807,5
29231,57799,5
29224,57814,5
29221,57802,4
29220,57799,5
29228,57798,5
29222,57800,5
29223,57799,5
29224,57800,4
29222,57805,5
29230,57805,5
29225,57794,5
29228,57803,5
29226,57806,4
29224,57803,5
29234,57803,5
29227,57799,5
29220,57793,5
29223,57799,4
29220,57805,5
29212,57799,5
29226,57803,6
29223,57801,4
29215,57793,4
29227,57799,5
29219,57808,5
29232,57793,5
29214,57788,4
29214,57795,5
29219,57792,5
29227,57792,5
29224,57806,5
29227,57799,4
29223,57799,5
29228,57799,5
29215,57784,5
29215,57782,5
29217,57788,4
29214,57791,5
29212,57784,5
29213,57790,5
29211,57785,5
29214,57789,5
29225,57789,4
29227,57782,5
29223,57784,5
29218,57790,6
29219,57788,3
29218,57793,5
29216,57796,5
29215,57791,5
29222,57791,4
29235,57801,5
29223,57807,5
29225,57800,5
29223,57806,5
29226,57800,4
29228,57800,5
29224,57800,5
29229,57809,5
29221,57818,5
29221,57810,4
29225,57808,5
29224,57804,5
29224,57813,5
29232,57812,5
29228,57807,4
29229,57810,6
29235,57804,4
29228,57802,5
29224,57797,5
29218,57805,4
29219,57802,5
29222,57802,5
29220,57805,5
29228,57798,4
29224,57798,4
29221,57798,5
29227,57799,5
29232,57797,5
29224,57803,4
29218,57796,5
29227,57799,5
29228,57799,5
29222,57796,5
29221,57795,4
29229,57803,5
29222,57795,5
29226,57801,5
29225,57798,5
29224,57793,4
29215,57793,5
29229,57796,6
29221,57802,4
29228,57799,5
29233,57810,4
29231,57800,5
29237,57802,5
29234,57799,5
29228,57798,4
29224,57802,4
29234,57793,5
29234,57796,5
29225,57790,5
29230,57791,4
29232,57802,5
29223,57795,5
29223,57809,5
29217,57788,5
29226,57793,4
29217,57787,5
29218,57797,5
29223,57790,5
29225,57786,5
29223,57784,4
29207,57785,5
29216,57780,5
29215,57777,6
29219,57769,4
29218,57777,4
29212,57772,5
29207,57766,5
29211,57762,5
29211,57766,4
29212,57759,4
29201,57755,5
29212,57764,5
29212,57760,5
29206,57770,4
29213,57770,5
29220,57772,5
29206,57763,5
29217,57759,5
29219,57770,4
29215,57765,5
29209,57766,5
29210,57768,5
29214,57770,5
29213,57766,5
29208,57759,4
29208,57770,5
29211,57775,5
29213,57767,5
29212,57787,4
29219,57774,5
29221,57776,5
29224,57777,5
29222,57783,4
29218,57786,4
29227,57787,5
29227,57781,5
29224,57781,5
29223,57783,4
29221,57786,5
29227,57783,5
29217,57792,5
29224,57797,5
29227,57786,4
29219,57786,5
29224,57793,5
29217,57796,5
29224,57806,5
29227,57805,4
29219,57797,6
29227,57808,4
29225,57790,5
29231,57793,5
29232,57798,4
29236,57800,5
29218,57790,5
29228,57790,5
29224,57792,4
29229,57795,4
29228,57787,5
29224,57793,5
29218,57793,5
29225,57794,4
29228,57796,5
29225,57790,5
29231,57800,5
29229,57798,5
29222,57789,4
29229,57789,5
29235,57792,5
29228,57783,5
29221,57790,5
29229,57799,4
29221,57795,5
29221,57787,6
29232,57794,4
29231,57793,5
29227,57787,4
29228,57797,5
29221,57798,5
29228,57791,5
29218,57785,5
29225,57793,4
29231,57796,5
29219,57787,5
29225,57787,5
29221,57781,4
29223,57767,5
29212,57764,5
29206,57755,5
29211,57757,5
29211,57754,4
29214,57762,5
29213,57765,5
29211,57759,5
29208,57760,5
29218,57756,4
29210,57768,5
29212,57769,5
29219,57761,5
29218,57772,5
29223,57775,4
29219,57778,5
29217,57778,5
29219,57783,5
29217,57780,5
29224,57780,4
29225,57780,5
29221,57781,5
29211,57779,5
29224,57782,4
29215,57787,5
29217,57775,5
29218,57781,5
29219,57785,5
29218,57776,4
29219,57775,5
29219,57779,5
29215,57785,5
29220,57789,5
29230,57786,5
29218,57797,4
29221,57791,5
29229,57795,5
29228,57796,5
29236,57797,4
29231,57798,5
29232,57798,5
29228,57795,5
29230,57800,5
29228,57790,4
29225,57790,5
29223,57790,5
29229,57799,8
29224,57796,1
29207,57790,5
29223,57794,5
29222,57796,5
29225,57796,5
29222,57790,4
29228,57797,5
29224,57788,6
29217,57797,4
29219,57780,5
29221,57793,4
29221,57796,7
29228,57797,3
29224,57791,5
29224,57797,5
29228,57795,4
29230,57799,5
29224,57787,5
29221,57794,5
29222,57791,5
29228,57785,4
29224,57794,5
29218,57796,5
29223,57793,5
29226,57788,4
29231,57790,5
29222,57792,5
29225,57788,5
29218,57781,5
29217,57790,4
29222,57785,5
29223,57792,5
29220,57785,6
29219,57783,4
29224,57785,4
29222,57779,5
29224,57790,5
29223,57781,5
29230,57786,5
29223,57782,4
29225,57791,5
29221,57789,5
29215,57784,5
29217,57778,5
29221,57783,4
29227,57777,5
29218,57785,5
29210,57782,5
29219,57785,4
29224,57781,5
29222,57791,5
29224,57783,5
29222,57788,5
29229,57798,5
29227,57787,4
29225,57790,5
29230,57796,5
29224,57794,6
29228,57797,3
29224,57796,5
29220,57796,5
29222,57800,5
29229,57784,5
29229,57802,4
29223,57788,5
29224,57797,5
29222,57793,5
29227,57790,5
29231,57796,4
29222,57788,5
29229,57789,5
29228,57789,5
29231,57797,4
29227,57795,5
29221,57796,5
29217,57793,5
29223,57785,5
29222,57794,4
29224,57791,6
29223,57793,4
29220,57780,5
29226,57784,5
29221,57791,6
29216,57782,3
29219,57779,5
29224,57784,5
29219,57786,5
29224,57783,4
29217,57786,5
29224,57784,5
29227,57780,5
29223,57788,5
29216,57786,4
29221,57777,5
29211,57778,5
29222,57771,5
29225,57768,4
29212,57765,5
29206,57769,5
29208,57765,5
29210,57758,5
29204,57759,4
29207,57759,5
29207,57763,6
29210,57763,4
29213,57762,5
29208,57756,4
29215,57770,5
29207,57763,5
29208,57759,5
29215,57768,5
29209,57773,4
29213,57766,5
29216,57776,5
29213,57763,5
29209,57770,5
29207,57773,4
29214,57763,5
29213,57759,5
29211,57760,5
29207,57759,4
29214,57765,5
29214,57759,5
29201,57760,5
29218,57765,5
29219,57766,4
29208,57774,5
29213,57771,5
29211,57773,6
29211,57768,4
29217,57767,4
29208,57768,5
29211,57767,5
29212,57758,5
29211,57769,5
29207,57766,4
29212,57768,5
29213,57757,5
29209,57766,5
29211,57767,4
29210,57767,4
29212,57761,5
29209,57759,5
29209,57759,5
29209,57757,4
29212,57766,5
29209,57763,5
29211,57759,5
29204,57750,5
29208,57750,5
29200,57744,4
29202,57740,5
29193,57741,5
29202,57745,6
29198,57738,3
29199,57741,5
29192,57730,5
29203,57730,5
29194,57726,5
29184,57714,4
29186,57707,5
29185,57705,5
29183,57700,5
29177,57695,4
29173,57693,4
29172,57696,5
29177,57700,5
29170,57687,5
29171,57697,4
29174,57679,5
29172,57688,5
29174,57693,5
29182,57705,5
29178,57693,4
29175,57687,6
29175,57681,4
29171,57680,5
29172,57670,5
29167,57670,4
29165,57676,5
29159,57676,5
29164,57669,5
29167,57662,5
29156,57657,4
29144,57635,5
29143,57638,5
29154,57634,5
29154,57636,4
29151,57632,4
29147,57639,5
29145,57644,5
29140,57641,5
29148,57632,4
29150,57638,5
29151,57627,5
29149,57630,5
29136,57622,5
29146,57618,4
29134,57609,5
29125,57593,6
29131,57594,4
29126,57584,5
29121,57594,4
29126,57587,5
29132,57592,5
29130,57602,5
29132,57602,5
29140,57602,4
29129,57607,5
29140,57608,5
29137,57610,5
29136,57620,4
29143,57621,5
29143,57633,5
29147,57636,5
29150,57641,5
29148,57643,4
29152,57654,5
29173,57658,5
29170,57679,5
29179,57683,5
29178,57682,4
29176,57688,5
29183,57695,5
29180,57701,6
29186,57703,4
29188,57713,4
29192,57721,5
29192,57714,5
29183,57712,5
29194,57708,5
29188,57713,4
29188,57706,5
29182,57700,5
29189,57704,5
29187,57702,4
29185,57707,5
29189,57713,5
29185,57709,5
29197,57716,5
29191,57718,4
29193,57728,5
29196,57728,5
29193,57727,5
29189,57731,5
29195,57730,5
29197,57728,4
29192,57726,5
29194,57728,5
29194,57727,5
29193,57724,4
29197,57730,5
29189,57726,5
29195,57730,5
29204,57728,5
29196,57722,4
29198,57722,5
29200,57719,5
29201,57726,5
29189,57713,4
29194,57716,5
29192,57718,5
29189,57718,5
29195,57713,5
29189,57716,4
29190,57711,5
29195,57722,5
29188,57713,5
29192,57711,5
29193,57711,4
29191,57707,6
29193,57712,4
29186,57715,5
29196,57713,5
29195,57704,4
29190,57716,5
29195,57715,5
29198,57719,5
29196,57721,4
29200,57720,4
29197,57727,5
29203,57735,5
29203,57736,5
29206,57738,4
29206,57730,5
29203,57741,5
29209,57753,5
29206,57743,5
29203,57738,4
29206,57732,5
29204,57740,5
29203,57735,5
29200,57739,5
29216,57738,4
29206,57743,5
29208,57740,6
29204,57736,4
29207,57742,5
29209,57748,4
29202,57744,5
29212,57752,5
29209,57750,5
29211,57747,4
29202,57751,4
29215,57755,5
29213,57758,5
29212,57751,5
29213,57749,4
29205,57744,5
29201,57735,5
29209,57749,5
29201,57749,5
29212,57749,4
29202,57740,5
29204,57743,5
29210,57748,5
29208,57746,5
29208,57744,4
29206,57736,5
29201,57748,5
29204,57752,5
29213,57746,5
29213,57757,4
29199,57737,5
29213,57757,5
29209,57756,5
29206,57763,4
29207,57760,5
29213,57758,5
29213,57762,5
29217,57760,5
29207,57758,4
29214,57756,5
29211,57753,5
29210,57759,5
29206,57748,5
29208,57750,4
29207,57741,5
29207,57757,4
29200,57740,5
29208,57753,5
29214,57746,5
29212,57756,3
29211,57764,5
29218,57763,5
29212,57754,5
29217,57757,4
29217,57760,5
29218,57766,5
29217,57757,5
29216,57774,4
29216,57772,5
29215,57766,5
29218,57773,5
29220,57774,5
29222,57773,4
29223,57773,5
29213,57775,5
29221,57779,5
29219,57779,5
29217,57776,4
29223,57770,5
29226,57780,6
29223,57776,4
29222,57779,5
29221,57781,4
29225,57768,5
29214,57769,5
29212,57781,5
29216,57773,4
29221,57767,4
29223,57771,5
29223,57774,5
29217,57774,5
29219,57774,4
29213,57768,5
29217,57770,5
29207,57763,5
29209,57765,5
29218,57767,4
29212,57764,5
29217,57764,5
29219,57771,5
29207,57770,5
29218,57767,4
29217,57775,5
29217,57777,5
29231,57772,6
29218,57776,4
29215,57774,4
29221,57767,5
29211,57767,5
29213,57758,5
29209,57750,4
29212,57757,4
29205,57754,5
29209,57761,5
29209,57767,5
29220,57765,4
29216,57770,5
29223,57770,5
29216,57777,5
29218,57780,5
29225,57776,4
29220,57783,5
29226,57785,5
29228,57783,5
29218,57769,5
29219,57779,5
29224,57786,4
29221,57782,5
29227,57774,5
29221,57774,6
29217,57780,3
29224,57782,5
29216,57772,5
29220,57771,5
29217,57772,7
29220,57771,2
29223,57775,5
29233,57773,5
29219,57790,5
29225,57790,4
29228,57806,5
29237,57797,5
29232,57790,5
29229,57800,5
29236,57798,4
29222,57796,5
29232,57781,5
29236,57786,5
29227,57790,5
29229,57779,4
29231,57793,6
29232,57787,4
29234,57799,5
29237,57800,5
29235,57810,4
29236,57812,5
29232,57807,5
29235,57803,5
29237,57810,4
29237,57813,5
29232,57803,5
29235,57808,5
29234,57800,5
29231,57809,4
29231,57801,5
29232,57804,5
29238,57806,5
29230,57809,5
29236,57803,4
29237,57820,5
29238,57805,5
29237,57814,5
29238,57815,5
29245,57818,4
29233,57814,5
29235,57814,6
29237,57808,4
29233,57808,5
29233,57810,4
29233,57795,5
29234,57813,5
29232,57805,5
29232,57810,4
29246,57811,5
29242,57814,5
29240,57804,5
29234,57800,5
29229,57795,4
29230,57792,5
29225,57787,5
29222,57786,5
29229,57785,5
29227,57791,4
29227,57793,5
29226,57788,5
29232,57801,5
29234,57808,5
29239,57824,4
29245,57835,5
29252,57838,5
29244,57840,6
29250,57835,4
29248,57819,4
29246,57827,5
29246,57815,5
29244,57821,5
29235,57824,4
29245,57818,5
29238,57830,5
29243,57833,5
29244,57838,5
29252,57836,4
29250,57827,5
29250,57826,5
29248,57831,5
29242,57821,5
29246,57831,4
29241,57812,5
29231,57806,5
29232,57803,5
29229,57801,5
29232,57802,5
29231,57797,4
29236,57804,5
29237,57816,5
29238,57812,4
29239,57798,4
29234,57816,5
29242,57823,5
29238,57823,5
29244,57821,4
29249,57821,5
29249,57840,5
29237,57828,5
29246,57821,5
29244,57830,4
29248,57834,5
29245,57825,5
29238,57832,5
29243,57819,5
29236,57820,4
29235,57825,5
29243,57828,5
29239,57822,5
29242,57835,5
29247,57838,4
29236,57827,6
29238,57836,4
29245,57830,5
29253,57833,4
29247,57834,4
29240,57832,5
29245,57834,5
29258,57836,5
29246,57835,4
29249,57842,5
29250,57840,5
29244,57833,5
29248,57845,5
29247,57844,4
29246,57834,5
29253,57830,5
29252,57839,5
29251,57834,5
29248,57834,4
29246,57835,5
29248,57834,5
29250,57834,5
29242,57824,5
29249,57826,4
29233,57825,5
29242,57820,6
29232,57824,4
29239,57817,4
29236,57805,4
29231,57806,5
29238,57806,5
29229,57801,5
29230,57801,4
29231,57795,5
29228,57795,5
29227,57793,5
29231,57788,5
29221,57780,4
29222,57777,5
29208,57762,5
29209,57770,5
29213,57770,5
29209,57758,4
29214,57760,5
29215,57765,5
29222,57771,5
29222,57780,5
29215,57777,4
29218,57779,5
29225,57778,5
29226,57781,5
29226,57772,4
29227,57784,4
29225,57775,5
29221,57774,5
29215,57772,5
29215,57772,4
29214,57778,5
29216,57770,5
29212,57765,5
29213,57772,5
29214,57769,4
29227,57772,5
29222,57774,5
29217,57771,5
29220,57784,5
29223,57778,4
29223,57776,5
29228,57772,5
29216,57784,5
29223,57777,5
29220,57774,5
29222,57784,4
29226,57786,5
29226,57779,5
29219,57775,4
29222,57780,4
29221,57777,5
29231,57785,5
29231,57784,5
29224,57793,4
29231,57813,5
29234,57793,5
29233,57800,5
29235,57796,5
29238,57807,4
29232,57792,5
29231,57786,5
29231,57792,5
29229,57788,5
29218,57777,4
29218,57760,5
29218,57759,5
29205,57750,5
29212,57752,5
29205,57742,4
29211,57748,6
29217,57746,4
29207,57738,5
29206,57736,4
29205,57732,4
29197,57740,5
29199,57728,5
29192,57727,5
29205,57732,4
29209,57737,5
29208,57732,5
29204,57736,5
29205,57731,5
29199,57740,4
29203,57746,5
29194,57729,5
29204,57721,5
29196,57728,5
29197,57720,4
29192,57716,5
29190,57720,5
29194,57728,5
29197,57725,5
29195,57727,4
29199,57715,5
29182,57707,5
29185,57699,5
29191,57688,4
29192,57697,5
29178,57688,5
29178,57686,5
29184,57687,5
29180,57694,4
29181,57695,5
29187,57698,5
29184,57690,5
29180,57682,5
29181,57681,4
29176,57678,5
29172,57682,5
29176,57675,5
29170,57687,5
29180,57690,4
29174,57681,5
29175,57683,5
29172,57688,5
29173,57693,5
29178,57692,4
29192,57705,5
29181,57697,5
29190,57702,5
29192,57716,4
29185,57710,5
29187,57708,5
29187,57712,5
29184,57703,5
29185,57699,4
29193,57699,5
29182,57699,5
29188,57701,5
29187,57697,5
29188,57701,4
29189,57706,5
29189,57699,5
29176,57694,5
29186,57696,5
29173,57699,4
29184,57693,5
29183,57698,4
29179,57693,5
29174,57696,5
29183,57697,6
29185,57698,3
29180,57690,5
29174,57693,5
29183,57703,4
29181,57694,5
29187,57690,5
29180,57672,5
29175,57676,5
29169,57675,4
29174,57667,5
29165,57664,5
29171,57672,5
29160,57672,5
29169,57672,4
29179,57672,5
29178,57682,5
29177,57687,5
29175,57687,5
29191,57709,4
29179,57704,5
29189,57712,6
29193,57706,4
29186,57701,5
29185,57715,4
29187,57718,5
29196,57720,5
29193,57716,5
29193,57716,4
29188,57720,4
29199,57721,5
29193,57736,5
29195,57739,5
29201,57743,4
29205,57759,5
29202,57745,5
29209,57759,5
29209,57750,5
29206,57756,4
29204,57761,5
29209,57758,5
29210,57744,5
29202,57753,5
29211,57762,4
29213,57754,5
29211,57760,5
29221,57761,6
29217,57770,4
29216,57778,4
29220,57768,5
29209,57771,5
29221,57778,5
29223,57777,4
29213,57764,4
29214,57764,5
29209,57760,5
29217,57764,5
29217,57767,4
29224,57771,5
29219,57763,5
29222,57771,5
29216,57765,5
29214,57768,4
29215,57760,5
29214,57764,5
29221,57769,5
29214,57771,5
29217,57759,5
29218,57755,4
29216,57758,5
29211,57757,5
29211,57752,6
29214,57754,3
29211,57758,5
29216,57757,5
29220,57760,5
29208,57769,4
29213,57760,4
29211,57764,5
29208,57761,5
29208,57759,5
29216,57767,4
29221,57766,5
29211,57753,5
29215,57752,5
29213,57762,5
29220,57757,4
29205,57757,5
29206,57760,5
29210,57752,5
29215,57763,5
29215,57759,4
29214,57760,6
29215,57756,4
29208,57756,5
29215,57769,5
29220,57764,4
29215,57761,5
29213,57758,5
29219,57760,5
29216,57762,5
29217,57753,4
29210,57753,5
29207,57756,5
29215,57757,5
29208,57747,4
29215,57757,5
29213,57754,5
29210,57749,5
29211,57758,5
29214,57757,4
29205,57748,5
29202,57745,5
29199,57742,5
29209,57745,5
29200,57751,4
29206,57740,5
29206,57739,6
29215,57734,4
29197,57735,5
29200,57743,4
29198,57729,5
29201,57738,5
29201,57734,5
29207,57729,5
29200,57739,4
29190,57724,5
29192,57728,5
29199,57723,5
29202,57725,4
29196,57719,5
29200,57713,5
29197,57714,5
29185,57707,5
29193,57701,4
29182,57703,5
29194,57711,5
29191,57696,5
29179,57692,10
29180,57698,4
29186,57699,5
29187,57704,6
29185,57708,4
29192,57709,4
29190,57707,5
29186,57701,5
29189,57712,5
29186,57711,5
29186,57697,4
29178,57692,5
29182,57698,5
29181,57695,5
29184,57698,4
29179,57697,4
29174,57692,5
29172,57684,5
29174,57687,5
29170,57691,4
29181,57686,5
29183,57688,5
29182,57694,5
29178,57692,5
29184,57697,5
29168,57689,4
29175,57689,5
29181,57687,5
29173,57687,6
29172,57691,3
29180,57680,5
29176,57682,5
29177,57684,5
29179,57690,5
29166,57679,4
29181,57678,5
29167,57669,5
29161,57666,5
29173,57661,4
29164,57667,4
29167,57670,5
29162,57654,5
29166,57648,5
29158,57650,4
29158,57651,5
29160,57661,5
29160,57647,5
29155,57646,5
29154,57636,4
29147,57636,6
29143,57621,4
29134,57607,5
29142,57594,5
29134,57582,4
29122,57559,5
29111,57549,5
29112,57541,5
29114,57538,5
29103,57539,4
29100,57537,5
29105,57532,5
29107,57543,5
29112,57550,5
29110,57542,4
29115,57541,5
29114,57554,5
29119,57561,5
29117,57575,4
29122,57587,5
29137,57584,5
29127,57585,5
29130,57589,5
29132,57588,4
29131,57590,5
29140,57593,6
29139,57595,4
29145,57602,5
29143,57611,4
29142,57612,5
29146,57607,5
29143,57619,5
29155,57620,5
29156,57634,4
29154,57637,5
29167,57642,5
29167,57652,5
29165,57661,5
29166,57652,4
29171,57670,5
29164,57666,5
29175,57674,5
29187,57677,4
29191,57684,5
29174,57676,5
29178,57693,5
29188,57693,5
29189,57698,4
29194,57702,5
29187,57692,5
29192,57694,6
29185,57696,4
29183,57699,4
29190,57705,5
29187,57696,5
29186,57700,5
29192,57696,5
29186,57696,4
29190,57693,5
29192,57695,5
29193,57701,5
29191,57702,5
29191,57705,4
29190,57704,5
29197,57709,5
29194,57713,5
29197,57709,4
29194,57717,4
29203,57727,5
29197,57720,5
29204,57730,5
29208,57739,5
29205,57721,4
29202,57721,5
29198,57718,5
29196,57704,5
29193,57704,4
29198,57706,5
29194,57708,5
29196,57709,5
29191,57707,5
29196,57719,4
29200,57711,5
29196,57718,5
29195,57721,5
29200,57725,5
29211,57736,4
29213,57737,5
29204,57734,5
29211,57736,5
29214,57743,4
29208,57742,4
29211,57750,5
29215,57757,5
29218,57755,5
29219,57757,4
29218,57760,6
29232,57769,4
29228,57774,5
29232,57769,5
29229,57768,4
29224,57778,5
29225,57772,5
29230,57775,5
29217,57768,5
29224,57766,4
29232,57767,5
29225,57772,5
29224,57760,5
29223,57776,5
29220,57769,4
29224,57767,5
29227,57765,5
29227,57774,5
29226,57770,5
29228,57768,4
29230,57768,5
29216,57759,5
29227,57769,5
29219,57766,4
29216,57762,5
29209,57769,6
29228,57761,4
29211,57772,5
29220,57764,4
29221,57770,5
29225,57777,5
29223,57774,5
29220,57767,5
29224,57769,4
29223,57774,5
29228,57775,5
29222,57777,5
29224,57772,5
29231,57785,4
29232,57773,5
29230,57770,5
29225,57779,5
29238,57785,5
29227,57787,4
29233,57779,5
29235,57783,5
29233,57782,5
29228,57796,4
29233,57790,5
29234,57787,5
29226,57777,5
29235,57772,5
29226,57775,4
29225,57781,5
29235,57781,5
29238,57788,5
29229,57779,5
29224,57768,4
29230,57774,5
29221,57779,5
29223,57785,5
29228,57783,5
29230,57793,4
29236,57789,5
29235,57799,5
29232,57796,5
29237,57792,5
29238,57804,5
29243,57795,4
29240,57806,5
29239,57807,5
29237,57809,6
29239,57801,3
29243,57808,5
29234,57805,5
29246,57815,5
29237,57809,4
29234,57795,5
29233,57807,5
29241,57806,5
29238,57807,5
29237,57803,4
29236,57809,5
29240,57804,5
29244,57811,5
29237,57805,5
29243,57801,4
29238,57798,5
29234,57799,5
29238,57802,5
29240,57814,5
29240,57811,4
29239,57808,6
29242,57813,4
29239,57805,5
29243,57810,4
29248,57819,7
29244,57816,3
29241,57813,5
29255,57820,5
29238,57821,4
29248,57814,5
29250,57821,5
29247,57823,5
29250,57818,5
29242,57821,4
29246,57823,5
29249,57828,5
29253,57815,5
29242,57815,5
29247,57812,4
29244,57803,5
29238,57812,5
29244,57821,5
29245,57816,5
29244,57814,4
29243,57820,5
29251,57813,6
29243,57819,4
29246,57807,4
29250,57818,4
29247,57818,5
29248,57815,5
29248,57812,5
29246,57815,4
29246,57813,5
29247,57818,5
29243,57815,5
29249,57818,5
29245,57811,4
29250,57816,5
29246,57825,5
29247,57830,5
29245,57828,5
29253,57829,4
29253,57827,5
29259,57827,5
29245,57841,5
29248,57830,5
29253,57828,4
29249,57831,5
29245,57838,5
29256,57836,6
29258,57830,3
29254,57833,4
29247,57838,5
29256,57840,5
29250,57839,5
29260,57838,4
29252,57842,5
29258,57846,5
29256,57837,5
29259,57832,5
29256,57833,4
29250,57831,5
29259,57824,5
29245,57826,5
29250,57828,5
29250,57824,4
29254,57817,5
29244,57819,5
29247,57834,5
29246,57820,5
29249,57815,5
29251,57816,4
29245,57825,5
29250,57818,5
29248,57820,6
29252,57830,3
29250,57832,5
29256,57838,5
29258,57825,5
29260,57838,4
29257,57837,5
29258,57837,5
29256,57829,5
29251,57830,5
29242,57827,4
29248,57819,5
29244,57818,5
29253,57818,5
29245,57826,5
29247,57822,4
29254,57834,5
29257,57834,5
29251,57827,5
29255,57837,5
29252,57830,4
29260,57841,6
29258,57823,4
29260,57833,5
29253,57841,5
29258,57829,4
29247,57832,5
29248,57836,5
29258,57831,5
29258,57838,4
29261,57830,5
29260,57828,5
29259,57823,5
29256,57826,5
29256,57829,4
29251,57827,5
29249,57821,5
29253,57821,5
29251,57816,5
29243,57822,4
29248,57811,5
29246,57806,5
29237,57804,5
29234,57797,5
29240,57788,4
29237,57792,5
29239,57794,6
29232,57785,4
29235,57786,5
29231,57788,4
29235,57789,5
29233,57793,5
29237,57786,5
29229,57792,4
29229,57789,4
29226,57779,5
29235,57794,5
29224,57780,5
29226,57774,4
29233,57778,5
29235,57782,5
29232,57781,5
29238,57780,5
29236,57775,4
29226,57797,5
29236,57792,5
29239,57806,5
29242,57829,5
29248,57838,4
29258,57845,5
29260,57848,5
29264,57857,6
29273,57850,4
29264,57852,4
29266,57857,5
29269,57856,5
29261,57844,5
29260,57847,4
29256,57840,4
29256,57835,5
29258,57835,5
29260,57833,5
29250,57836,4
29253,57833,5
29243,57822,5
29253,57824,5
29245,57823,5
29245,57821,4
29255,57826,5
29246,57824,5
29250,57816,5
29249,57820,5
29258,57821,5
29257,57824,4
29254,57823,5
29256,57824,5
29254,57817,5
29250,57817,4
29244,57819,5
29247,57817,5
29242,57816,5
29251,57827,5
29252,57813,4
29251,57822,5
29254,57817,5
29250,57809,8
29243,57818,1
29242,57822,5
29227,57815,5
29253,57815,5
29245,57804,5
29248,57818,4
29243,57803,5
29244,57809,5
29241,57807,5
29239,57802,5
29241,57815,4
29246,57809,6
29248,57817,4
29244,57818,5
29252,57822,5
29250,57821,4
29247,57818,5
29252,57825,5
29246,57822,5
29247,57819,5
29252,57825,4
29248,57816,5
29244,57813,5
29248,57811,5
29247,57808,4
29244,57808,5
29248,57806,5
29244,57816,5
29251,57813,5
29247,57812,4
29250,57811,5
29246,57811,5
29236,57807,5
29248,57799,5
29238,57808,4
29237,57802,5
29240,57798,6
29246,57807,4
29235,57790,5
29248,57786,4
29229,57794,5
29239,57787,5
29228,57782,5
29234,57787,5
29227,57787,4
29230,57790,5
29231,57783,5
29229,57783,5
29230,57778,4
29229,57791,5
29226,57786,5
29229,57776,5
29232,57779,5
29237,57780,4
29234,57785,5
29230,57786,5
29228,57780,5
29229,57776,5
29232,57786,4
29228,57783,5
29233,57780,5
29232,57785,5
29231,57783,5
29226,57781,4
29238,57791,5
29238,57794,5
29234,57794,5
29239,57795,5
29234,57792,4
29226,57790,5
29239,57791,5
29237,57792,5
29235,57790,4
29241,57784,4
29234,57782,5
29244,57778,5
29237,57779,5
29225,57781,4
29230,57783,5
29238,57779,5
29233,57781,5
29233,57781,5
29232,57782,5
29231,57784,4
29229,57783,5
29235,57779,5
29234,57783,5
29230,57780,4
29230,57788,5
29232,57778,5
29232,57781,5
29228,57787,5
29232,57776,4
29232,57776,5
29219,57775,5
29228,57765,5
29223,57768,4
29226,57763,4
29227,57766,5
29226,57774,5
29219,57770,5
29219,57766,4
29224,57759,5
29225,57762,5
29225,57771,5
29219,57760,5
29225,57765,4
29230,57773,6
29235,57776,4
29228,57770,5
29219,57775,5
29237,57769,4
29222,57774,5
29227,57767,5
29226,57775,5
29226,57774,5
29223,57771,4
29219,57774,5
29221,57768,5
29223,57771,5
29227,57770,4
29223,57774,4
29228,57756,5
29226,57763,5
29229,57769,5
29228,57774,4
29229,57769,5
29223,57773,5
29233,57776,5
29224,57774,4
29228,57779,4
29231,57770,5
29221,57765,5
29228,57771,5
29223,57768,5
29228,57770,4
29230,57770,5
29222,57775,5
29230,57766,5
29224,57772,5
29230,57765,4
29231,57776,5
29228,57770,5
29228,57771,5
29224,57780,4
29232,57771,4
29231,57776,5
29226,57772,5
29233,57777,5
29225,57773,5
29226,57769,4
29232,57769,5
29227,57769,5
29226,57769,6
29227,57771,3
29228,57764,5
29213,57758,5
29226,57767,5
29222,57772,5
29222,57753,4
29217,57756,5
29221,57756,5
29228,57760,5
29224,57757,5
29227,57761,4
29218,57758,5
29220,57755,5
29223,57757,5
29225,57760,4
29218,57759,4
29222,57767,5
29222,57763,5
29219,57769,5
29220,57768,4
29226,57767,6
29232,57764,4
29225,57764,5
29224,57770,5
29226,57762,6
29221,57769,3
29230,57759,5
29223,57773,5
29222,57768,5
29226,57776,4
29226,57765,5
29223,57765,5
29227,57768,5
29214,57770,5
29216,57765,4
29229,57759,5
29223,57762,5
29220,57762,5
29227,57760,5
29224,57761,4
29218,57753,5
29218,57765,5
29229,57764,5
29226,57761,4
29221,57762,5
29220,57758,6
29215,57755,4
29222,57755,5
29219,57755,4
29226,57756,5
29221,57747,5
29217,57752,5
29220,57760,5
29221,57744,4
29219,57746,5
29223,57750,5
29212,57756,5
29213,57748,5
29215,57744,4
29211,57744,5
29209,57739,5
29218,57744,5
29211,57743,5
29212,57741,4
29203,57742,5
29205,57732,5
29211,57735,5
29207,57733,4
29216,57748,5
29220,57745,5
29221,57744,6
29215,57756,4
29221,57748,4
29216,57753,5
29211,57747,5
29209,57738,5
29212,57737,5
29205,57737,4
29211,57744,5
29205,57736,5
29202,57728,5
29219,57732,5
29207,57725,4
29210,57730,5
29212,57727,5
29208,57735,5
29210,57738,5
29210,57732,4
29211,57745,5
29207,57741,5
29205,57732,5
29212,57738,9
29211,57743,5
29203,57742,5
29206,57750,5
29209,57743,8
29203,57714,5
29205,57741,5
29206,57737,5
29213,57747,8
29213,57747,5
29198,57743,5
29206,57725,8
29211,57743,5
29203,57743,5
29216,57750,8
29210,57729,5
29202,57726,5
29198,57708,5
29199,57724,8
29209,57716,5
29201,57719,5
29206,57714,8
29206,57714,5
29200,57705,5
29203,57706,5
29212,57700,8
29202,57700,5
29187,57707,5
29190,57692,8
29196,57699,5
29196,57704,5
29199,57694,8
29190,57714,5
29197,57700,5
29195,57705,5
29194,57709,8
29194,57709,5
29224,57708,5
29190,57702,8
29164,57698,5
29190,57694,5
29194,57704,5
29183,57708,8
29194,57693,5
29182,57702,5
29192,57707,8
29200,57698,5
29189,57698,5
29178,57691,8
29178,57691,5
29147,57684,5
29170,57683,5
29181,57683,8
29175,57700,5
29175,57681,5
29187,57670,8
29183,57676,5
29175,57682,5
29186,57687,5
29180,57680,8
29161,57666,5
29176,57667,5
29175,57657,8
29175,57657,5
29171,57681,5
29177,57670,5
29172,57623,8
29168,57625,5
29172,57648,5
29203,57647,8
29176,57647,5
29140,57638,5
29156,57636,8
29154,57632,5
29155,57643,5
29155,57626,5
29152,57621,8
29152,57621,5
29147,57570,5
29175,57700,8
29152,57626,5
29159,57622,5
29121,57635,5
29150,57629,8
29160,57638,5
29158,57646,5
29166,57631,8
29160,57618,5
29158,57615,5
29152,57636,8
29152,57636,5
29163,57633,5
29173,57638,5
29161,57643,8
29163,57638,5
29176,57648,5
29161,57667,8
29169,57679,5
29167,57650,5
29171,57644,5
29173,57648,8
29177,57641,5
29173,57667,5
29173,57667,8
29178,57659,5
29180,57674,5
29178,57668,8
29171,57672,5
29175,57674,5
29181,57679,5
29185,57657,8
29191,57655,5
29177,57670,5
29187,57678,8
29187,57678,5
29182,57684,5
29185,57691,5
29184,57664,8
29187,57683,5
29180,57670,5
29187,57687,8
29171,57672,5
29188,57676,4
29188,57676,2
29189,57681,3
29187,57680,5
29180,57669,5
29184,57680,4
29179,57678,5
29183,57686,5
29184,57683,5
29191,57678,5
29190,57690,4
29187,57683,5
29186,57679,5
29178,57676,5
29186,57677,5
29186,57672,4
29178,57687,5
29179,57679,5
29192,57676,5
29187,57680,4
29182,57678,4
29183,57682,5
29184,57673,5
29184,57674,7
29188,57674,2
29186,57672,5
29175,57655,5
29173,57654,5
29168,57655,5
29170,57635,4
29168,57642,5
29164,57643,5
29158,57643,5
29168,57651,5
29160,57649,4
29174,57651,5
29169,57654,5
29169,57641,5
29162,57637,5
29167,57639,4
29163,57625,5
29154,57625,5
29155,57621,5
29159,57617,5
29161,57622,4
29158,57629,5
29153,57631,5
29159,57630,5
29169,57632,4
29164,57642,5
29169,57643,5
29167,57649,5
29165,57652,5
29170,57641,4
29161,57632,5
29160,57645,5
29161,57641,5
29165,57647,5
29175,57652,4
29172,57653,5
29171,57663,5
29167,57660,5
29169,57655,5
29178,57661,4
29168,57657,5
29171,57663,5
29166,57646,5
29171,57639,5
29159,57650,5
29165,57646,4
29170,57646,5
29170,57651,5
29177,57656,4
29174,57665,5
29176,57675,5
29179,57675,5
29192,57680,5
29195,57699,4
29196,57705,5
29198,57725,5
29199,57724,5
29206,57717,5
29206,57729,4
29203,57726,5
29208,57723,5
29207,57735,5
29212,57736,5
29216,57748,4
29222,57765,5
29232,57780,6
29246,57800,4
29251,57822,5
29256,57829,4
29261,57843,7
29260,57840,3
29260,57835,5
29260,57829,4
29263,57834,5
29258,57838,5
29254,57834,5
29261,57816,5
29256,57822,4
29251,57826,5
29258,57821,5
29253,57832,5
29267,57844,5
29261,57845,4
29264,57864,5
29270,57862,5
29266,57862,5
29266,57864,5
29273,57866,4
29270,57861,5
29272,57865,5
29278,57867,6
29281,57870,4
29284,57878,4
29283,57890,5
29281,57899,5
29291,57909,5
29301,57913,4
29301,57909,5
29302,57905,5
29297,57907,5
29291,57908,5
29293,57911,4
29294,57911,5
29299,57912,5
29304,57929,5
29304,57934,5
29307,57935,4
29312,57948,5
29309,57946,5
29309,57939,5
29303,57930,5
29297,57917,5
29289,57900,4
29286,57887,5
29283,57876,5
29280,57885,6
29289,57904,3
29291,57920,5
29308,57940,5
29309,57941,5
29300,57919,4
29301,57908,5
29284,57910,5
29305,57903,5
29292,57911,5
29295,57908,4
29293,57902,5
29304,57898,5
29284,57870,5
29278,57871,5
29271,57857,4
29264,57844,5
29264,57843,5
29266,57858,5
29282,57864,5
29273,57868,4
29274,57866,6
29272,57858,4
29276,57863,5
29277,57852,5
29273,57864,6
29279,57867,3
29268,57863,5
29280,57862,5
29279,57862,4
29262,57863,4
29273,57861,5
29273,57871,5
29275,57857,5
29270,57860,4
29272,57852,5
29263,57844,5
29265,57841,5
29267,57837,5
29257,57838,4
29256,57836,5
29247,57822,5
29247,57810,5
29246,57812,5
29242,57804,4
29244,57815,5
29255,57813,6
29252,57819,4
29259,57817,5
29253,57825,4
29247,57820,5
29249,57815,5
29241,57810,5
29246,57800,4
29236,57788,4
29241,57785,5
29242,57790,5
29226,57783,5
29231,57769,4
29229,57767,5
29225,57770,5
29226,57772,5
29224,57771,5
29235,57781,4
29225,57772,5
29225,57768,5
29231,57763,5
29226,57775,5
29234,57776,4
29236,57787,5
29232,57786,5
29240,57790,6
29236,57798,4
29254,57807,4
29245,57814,5
29258,57824,5
29261,57831,5
29257,57840,4
29259,57835,4
29261,57838,5
29265,57830,5
29259,57831,5
29261,57825,4
29257,57822,5
29261,57822,5
29261,57823,5
29254,57826,5
29260,57822,4
29267,57829,5
29258,57829,5
29258,57832,5
29261,57833,5
29260,57847,5
29264,57845,4
29264,57853,5
29274,57858,5
29279,57857,6
29272,57862,3
29276,57867,5
29267,57855,5
29273,57877,5
29286,57871,5
29278,57875,4
29295,57882,5
29278,57881,5
29280,57886,5
29283,57886,4
29280,57877,5
29280,57877,5
29278,57881,5
29277,57874,5
29282,57883,4
29280,57871,5
29273,57863,5
29267,57870,5
29273,57859,5
29268,57851,4
29272,57852,6
29266,57851,4
29262,57851,5
29263,57841,5
29268,57847,4
29269,57831,5
29256,57838,5
29256,57836,5
29262,57834,5
29258,57828,4
29259,57832,5
29256,57829,5
29254,57835,5
29255,57840,4
29267,57840,5
29260,57839,5
29261,57846,5
29270,57847,5
29261,57837,4
29258,57833,5
29265,57832,5
29260,57836,5
29259,57828,5
29264,57830,4
29247,57829,5
29256,57823,6
29260,57832,4
29256,57826,5
29259,57838,4
29255,57834,5
29257,57831,5
29254,57824,5
29257,57828,5
29256,57830,4
29262,57832,5
29258,57828,5
29262,57830,5
29253,57827,4
29264,57840,4
29255,57829,5
29251,57822,5
29259,57827,5
29260,57828,4
29249,57823,5
29254,57824,5
29249,57820,5
29250,57824,5
29246,57816,4
29250,57826,5
29252,57821,5
29249,57822,6
29253,57828,4
29260,57830,4
29252,57830,5
29260,57822,5
29259,57827,5
29252,57829,5
29257,57829,4
29257,57829,5
29254,57834,5
29256,57828,5
29251,57837,4
29255,57827,4
29258,57825,5
29250,57824,5
29252,57822,5
29250,57817,4
29257,57811,5
29260,57822,5
29255,57818,5
29253,57813,5
29250,57813,5
29256,57809,4
29247,57817,5
29245,57814,5
29249,57803,5
29248,57803,4
29242,57795,5
29248,57803,5
29247,57805,5
29243,57806,5
29242,57809,4
29246,57818,5
29244,57803,5
29256,57815,5
29241,57813,4
29247,57815,4
29253,57808,5
29253,57811,5
29250,57803,5
29252,57822,4
29248,57802,5
29241,57806,5
29239,57807,5
29248,57808,5
29246,57800,4
29244,57811,6
29242,57806,4
29251,57807,5
29246,57809,5
29239,57809,4
29246,57806,5
29252,57813,5
29248,57809,5
29244,57806,5
29249,57822,4
29250,57813,5
29254,57816,5
29253,57808,5
29251,57816,4
29249,57810,4
29252,57818,5
29255,57812,5
29243,57815,5
29249,57814,4
29250,57817,5
29248,57817,5
29252,57819,5
29257,57810,5
29251,57819,4
29253,57805,5
29247,57815,6
29255,57821,4
29248,57813,5
29245,57811,4
29255,57819,5
29250,57809,5
29250,57816,5
29250,57805,5
29244,57801,4
29248,57805,5
29243,57804,5
29254,57795,5
29245,57804,4
29246,57803,4
29241,57796,5
29235,57796,5
29238,57801,5
29240,57797,4
29243,57790,5
29231,57798,5
29240,57792,5
29239,57793,5
29239,57795,4
29246,57789,5
29243,57798,5
29248,57792,5
29239,57809,5
29242,57802,4
29244,57803,5
29241,57793,5
29251,57805,5
29239,57807,5
29247,57811,4
29239,57811,5
29244,57807,5
29245,57811,5
29240,57806,4
29246,57807,5
29247,57810,5
29253,57804,5
29240,57809,5
29247,57800,4
29251,57814,5
29251,57816,5
29249,57816,5
29246,57817,5
29244,57813,5
29247,57811,4
29254,57809,5
29248,57816,5
29249,57807,5
29245,57811,4
29248,57809,5
29245,57822,5
29247,57811,5
29247,57814,5
29254,57825,4
29258,57808,5
29252,57808,5
29244,57807,5
29248,57800,4
29250,57809,5
29249,57798,5
29250,57815,9
29249,57802,1
29239,57810,4
29249,57822,5
29243,57805,6
29245,57803,4
29239,57807,5
29249,57808,4
29244,57810,6
29246,57805,4
29253,57804,5
29249,57816,5
29242,57809,4
29251,57810,5
29254,57827,5
29255,57830,5
29252,57819,5
29246,57822,4
29246,57807,5
29246,57818,5
29242,57816,5
29246,57816,4
29245,57805,5
29247,57811,5
29244,57814,5
29244,57811,5
29250,57807,4
29246,57803,5
29248,57812,5
29243,57808,6
29246,57808,4
29252,57813,4
29254,57817,5
29242,57823,5
29253,57814,5
29255,57817,5
29259,57823,4
29254,57824,5
29244,57820,5
29253,57822,5
29248,57822,5
29254,57829,4
29253,57822,5
29260,57825,5
29251,57825,5
29257,57826,4
29258,57826,5
29251,57829,5
29251,57821,5
29255,57826,5
29262,57821,5
29242,57825,4
29256,57821,5
29252,57823,5
29252,57814,6
29251,57821,3
29253,57824,5
29255,57812,5
29252,57821,5
29249,57819,5
29248,57819,4
29250,57823,5
29250,57814,5
29247,57819,5
29247,57811,4
29246,57808,4
29255,57818,5
29243,57815,5
29252,57811,5
29243,57808,4
29249,57819,5
29250,57815,5
29252,57815,5
29250,57819,5
29251,57807,4
29251,57815,6
29247,57814,4
29250,57823,5
29255,57809,5
29246,57802,6
29244,57816,3
29246,57801,5
29250,57809,5
29248,57808,5
29244,57810,4
29243,57814,5
29251,57815,5
29252,57813,5
29239,57815,4
29254,57813,4
29244,57812,5
29255,57814,5
29248,57806,5
29249,57808,4
29242,57814,5
29243,57809,5
29244,57799,5
29251,57800,5
29245,57807,4
29248,57799,5
29242,57803,6
29241,57800,4
29244,57809,5
29239,57803,4
29240,57813,5
29247,57813,5
29242,57811,5
29240,57819,5
29246,57815,4
29246,57800,5
29239,57811,5
29247,57806,5
29240,57803,4
29250,57812,4
29243,57801,5
29245,57800,5
29240,57813,5
29244,57810,4
29247,57815,5
29247,57812,5
29249,57801,5
29238,57808,5
29245,57795,4
29247,57802,5
29240,57801,5
29237,57805,6
29242,57799,4
29235,57790,4
29240,57795,5
29230,57782,5
29232,57784,5
29236,57774,5
29231,57770,4
29225,57782,5
29223,57773,5
29219,57774,5
29230,57775,4
29230,57781,5
29230,57786,5
29230,57786,5
29231,57785,5
29232,57790,4
29233,57787,5
29239,57785,5
29231,57774,5
29228,57771,5
29223,57761,5
29226,57768,4
29225,57766,5
29224,57760,5
29227,57766,6
29224,57762,3
29218,57752,5
29222,57749,5
29217,57766,5
29217,57753,5
29224,57765,4
29228,57764,5
29223,57769,5
29224,57763,5
29225,57754,4
29225,57771,5
29235,57770,5
29222,57762,5
