RED,IR,EKG,TIME
35047,65059,184072
35043,65057,2
46051,86437,5
46058,86429,4
46055,86429,5
46067,86436,7
46052,86435,3
46044,86425,4
46060,86431,5
46053,86428,6
46055,86421,4
46023,86444,5
46051,86445,4
46057,86446,5
46062,86443,5
46009,86446,5
46063,86450,5
46060,86449,4
46064,86460,5
46043,86457,5
46061,86448,5
46069,86460,5
46057,86463,4
46098,86464,5
46060,86464,5
46065,86459,5
46067,86462,4
46114,86467,5
46061,86464,5
46053,86457,5
46055,86455,5
46080,86459,4
46057,86440,5
46055,86435,5
46042,86438,6
46055,86442,4
46036,86437,4
46045,86421,5
46035,86416,5
46029,86394,5
46036,86420,5
46036,86412,4
46028,86414,5
46026,86376,5
46027,86405,5
46026,86407,4
46037,86418,4
46025,86360,5
46020,86406,5
46012,86391,5
46019,86381,4
46017,86392,5
46008,86384,5
46002,86368,5
45987,86336,5
45965,86339,5
45940,86255,4
45918,86215,5
45911,86185,5
45903,86224,5
45894,86158,4
45893,86160,5
45896,86163,5
45895,86185,5
45892,86172,5
45900,86176,4
45903,86182,5
45903,86186,5
45906,86185,5
45908,86202,4
45916,86205,5
45917,86210,5
45913,86214,5
45927,86224,5
45931,86227,4
45929,86240,5
45935,86248,5
45945,86260,5
45941,86259,5
45954,86269,4
45957,86275,6
45948,86278,4
45948,86274,5
45949,86272,5
45958,86291,4
45956,86298,5
45962,86307,5
45981,86315,5
45975,86314,4
45973,86318,5
45980,86319,5
45978,86322,5
45980,86326,5
45969,86319,4
45971,86317,5
45974,86324,5
45973,86326,5
45969,86316,5
45989,86324,4
45974,86327,5
45974,86318,5
45978,86323,5
45972,86328,5
45973,86328,4
45976,86319,5
45973,86312,6
45980,86320,4
45961,86316,5
45970,86300,4
45962,86314,5
45968,86312,5
45965,86320,5
45964,86322,4
45979,86320,5
45982,86337,5
45975,86340,5
45974,86334,5
45972,86333,4
45983,86349,5
45994,86350,5
45993,86349,5
45994,86355,5
45989,86357,4
45992,86365,5
45993,86366,5
46004,86371,5
46001,86372,5
45994,86375,4
46009,86384,5
46010,86393,5
46005,86388,5
46005,86389,4
46013,86399,5
46011,86405,5
46014,86398,5
46007,86396,5
46014,86405,4
46018,86406,5
46016,86401,5
46014,86406,5
46004,86394,5
46011,86382,4
46000,86378,5
45998,86372,5
45987,86376,5
45997,86364,5
45993,86365,4
45996,86366,5
45971,86364,5
45984,86358,5
45991,86351,5
45989,86350,5
45957,86352,4
45976,86349,5
45978,86349,5
45975,86344,4
45935,86337,5
45982,86340,5
45968,86337,5
45976,86335,5
45964,86344,4
45979,86336,5
45966,86320,5
45956,86278,5
45956,86237,5
45909,86200,4
45890,86173,5
45879,86146,5
45914,86126,5
45857,86118,5
45858,86116,4
45860,86108,5
45883,86115,5
45853,86108,4
45857,86111,4
45855,86115,4
45869,86117,5
45868,86127,5
45867,86120,5
45865,86112,4
45861,86110,5
45858,86133,5
45870,86130,5
45871,86129,5
45868,86101,4
45866,86132,5
45873,86134,5
45872,86142,5
45878,86101,5
45878,86158,4
45881,86156,5
45888,86181,5
45895,86183,5
45892,86191,5
45908,86203,4
45917,86224,5
45923,86278,5
45925,86254,6
45937,86255,3
45938,86252,5
45937,86313,5
45933,86262,5
45939,86257,5
45941,86257,4
45945,86288,5
45928,86253,5
45927,86239,5
45939,86246,5
45926,86238,4
45921,86232,5
45921,86238,5
45919,86226,5
45918,86222,5
45917,86232,4
45916,86224,5
45917,86230,5
45918,86232,5
45927,86227,4
45928,86231,5
45929,86238,4
45925,86233,5
45927,86253,5
45926,86262,6
45941,86277,3
45949,86282,5
45961,86298,5
45970,86320,5
45977,86336,4
45973,86349,5
45983,86373,5
45993,86375,5
46006,86390,5
46014,86413,4
46017,86414,5
46025,86431,5
46030,86437,5
46024,86447,5
46031,86453,4
46033,86452,5
46039,86471,5
46043,86474,5
46043,86469,4
46046,86474,4
46045,86483,6
46051,86482,4
46048,86480,5
46053,86475,4
46049,86484,5
46048,86479,5
46043,86459,5
46035,86466,5
46042,86453,4
46042,86457,5
46035,86453,5
46029,86452,5
46044,86459,5
46035,86467,4
46042,86482,5
46047,86485,5
46050,86488,5
46058,86486,5
46053,86492,4
46049,86480,5
46056,86499,5
46056,86492,5
46060,86484,4
46058,86493,5
46060,86503,5
46063,86498,6
46056,86488,4
46042,86457,4
46026,86429,5
46010,86392,5
45989,86363,5
45981,86353,5
45974,86336,4
45963,86341,5
45972,86333,5
45973,86341,5
45982,86334,5
45979,86345,4
45987,86354,5
45987,86362,5
45993,86379,5
46008,86392,5
46009,86395,4
46009,86408,5
46019,86411,5
46021,86428,5
46028,86444,5
46026,86448,4
46032,86457,5
46042,86467,5
46009,86475,6
46052,86484,3
46047,86479,5
46054,86480,5
46016,86499,5
46064,86515,5
46075,86523,4
46078,86543,5
46057,86543,5
46093,86561,5
46110,86565,5
46109,86571,4
46129,86580,5
46099,86582,5
46113,86589,5
46113,86584,4
46153,86602,4
46122,86609,5
46115,86604,5
46111,86615,5
46167,86618,4
46124,86616,6
46123,86617,4
46120,86621,5
46144,86619,5
46119,86618,4
46126,86618,5
46127,86631,5
46134,86620,5
46129,86638,5
46136,86630,4
46141,86639,5
46140,86611,5
46149,86663,5
46160,86676,5
46166,86688,4
46160,86660,5
46177,86720,5
46183,86731,5
46181,86736,4
46193,86726,5
46198,86761,5
46205,86770,5
46209,86781,5
46206,86805,4
46213,86779,5
46213,86786,6
46214,86795,4
46217,86846,5
46221,86796,4
46219,86807,5
46221,86806,5
46219,86841,5
46222,86805,5
46218,86807,4
46216,86798,5
46223,86818,5
46229,86804,5
46216,86802,5
46219,86796,4
46214,86795,5
46219,86804,5
46215,86805,5
46213,86807,4
46215,86802,5
46223,86799,5
46224,86814,5
46239,86805,5
46217,86809,4
46217,86810,5
46218,86804,5
46215,86794,6
46198,86773,4
46194,86740,4
46180,86709,5
46154,86674,5
46145,86655,5
46136,86645,5
46130,86625,4
46133,86622,5
46129,86634,5
46125,86627,5
46125,86628,5
46136,86634,4
46130,86645,5
46132,86647,6
46127,86653,4
46140,86661,4
46151,86671,5
46148,86675,5
46158,86690,5
46166,86690,5
46166,86707,5
46170,86719,4
46179,86732,5
46190,86743,5
46190,86754,5
46201,86771,4
46197,86781,5
46208,86785,5
46207,86806,5
46209,86789,5
46220,86797,4
46227,86805,5
46230,86812,5
46214,86815,5
46218,86819,4
46223,86814,4
46224,86804,5
46216,86813,5
46226,86810,5
46220,86800,4
46215,86788,5
46217,86784,5
46216,86780,5
46213,86774,5
46208,86777,4
46207,86771,6
46208,86777,4
46211,86767,5
46196,86765,5
46197,86760,4
46195,86766,5
46200,86776,5
46206,86770,5
46212,86781,5
46210,86792,4
46219,86810,5
46220,86809,5
46220,86822,5
46230,86828,4
46236,86842,5
46249,86845,5
46250,86852,5
46258,86866,5
46249,86867,4
46258,86871,5
46249,86872,5
46253,86884,5
46250,86878,5
46259,86874,4
46243,86878,5
46251,86876,6
46257,86879,4
46259,86874,5
46222,86876,4
46247,86882,5
46247,86863,5
46246,86853,5
46192,86845,4
46240,86841,4
46222,86829,5
46220,86824,5
46216,86808,5
46205,86785,4
46200,86776,5
46192,86779,5
46237,86779,5
46203,86774,5
46198,86775,4
46193,86765,5
46229,86751,5
46175,86719,5
46161,86688,5
46126,86650,4
46140,86615,5
46091,86580,5
46080,86562,5
46073,86549,5
46075,86529,4
46074,86529,5
46068,86528,5
46065,86514,5
46056,86498,4
46061,86509,4
46063,86511,5
46045,86510,5
46060,86452,5
46053,86506,4
46046,86508,5
46050,86505,5
46051,86467,5
46062,86521,5
46060,86508,4
46055,86508,5
46063,86526,5
46062,86517,5
46063,86510,5
46062,86505,5
46053,86545,4
46049,86500,5
46052,86498,5
46061,86516,5
46051,86569,4
46063,86528,5
46064,86523,5
46072,86527,5
46062,86547,4
46062,86526,5
46068,86534,5
46060,86525,5
46065,86528,5
46062,86525,4
46067,86521,5
46053,86506,5
46061,86514,5
46055,86499,5
46045,86497,4
46042,86479,5
46040,86468,5
46040,86469,5
46031,86463,5
46019,86452,4
46021,86453,6
46022,86448,4
46011,86431,5
46018,86442,5
46028,86441,4
46018,86446,5
46032,86452,5
46024,86458,5
46033,86455,4
46033,86469,5
46033,86463,5
46032,86458,5
46031,86467,5
46030,86464,4
46036,86459,5
46024,86465,5
46035,86477,5
46036,86458,5
46027,86461,4
46027,86462,5
46037,86455,5
46026,86455,5
46031,86454,5
46024,86442,4
46022,86442,5
46012,86441,5
46012,86429,5
46013,86441,4
46014,86422,4
46002,86427,5
46008,86406,5
46004,86400,5
45998,86416,4
46002,86398,5
45998,86410,5
45992,86396,5
45996,86399,5
45981,86377,4
45982,86354,5
45949,86323,5
45938,86287,5
45919,86250,5
45906,86217,5
45890,86201,4
45882,86186,5
45879,86176,5
45884,86178,6
45876,86185,3
45879,86171,5
45888,86174,5
45887,86190,5
45884,86183,4
45889,86189,5
45894,86183,5
45891,86199,5
45892,86198,5
45891,86212,4
45899,86210,5
45898,86209,5
45904,86209,5
45910,86216,5
45903,86222,4
45914,86237,5
45912,86222,5
45914,86231,5
45907,86225,5
45911,86230,4
45907,86226,6
45918,86228,4
45912,86233,5
45921,86242,5
45931,86251,6
45918,86246,3
45901,86256,5
45928,86261,5
45924,86248,4
45919,86256,5
45894,86249,5
45920,86242,5
45926,86262,5
45925,86250,4
45895,86245,5
45931,86243,5
45917,86251,5
45919,86246,5
45939,86251,4
45926,86247,5
45931,86262,5
45929,86266,5
45978,86263,5
45933,86267,4
45939,86268,5
45933,86277,6
45983,86266,4
45940,86279,4
45940,86290,4
45949,86292,5
45962,86287,5
45942,86286,5
45944,86283,4
45938,86280,5
45933,86278,5
45940,86283,5
45939,86278,5
45934,86278,4
45937,86235,5
45940,86274,5
45930,86257,5
45927,86257,5
45929,86227,4
45924,86262,5
45929,86253,5
45918,86244,5
45916,86229,5
45927,86242,4
45920,86241,5
45920,86242,5
45913,86263,6
45917,86237,3
45909,86224,4
45915,86224,5
45906,86276,5
45918,86233,5
45920,86233,4
45918,86237,5
45915,86264,5
45915,86219,5
45907,86227,5
45909,86219,4
45902,86234,5
45903,86206,5
45900,86212,5
45894,86184,5
45877,86154,4
45853,86113,5
45827,86070,5
45798,86023,5
45789,86003,5
45782,85991,5
45779,85966,4
45770,85957,5
45759,85943,5
45759,85948,6
45764,85940,3
45760,85939,5
45755,85923,5
45758,85937,5
45764,85918,4
45756,85930,5
45753,85929,5
45753,85925,5
45761,85923,5
45759,85925,4
45756,85923,5
45758,85930,5
45748,85930,5
45751,85940,5
45758,85939,4
45762,85943,5
45760,85938,5
45765,85941,5
45770,85956,5
45770,85956,4
45767,85952,6
45776,85965,4
45786,85968,5
45781,85983,4
45782,85983,5
45791,85985,5
45779,85971,5
45791,85983,5
45795,85987,4
45787,85993,5
45787,85997,5
45793,85990,5
45801,85983,5
45792,86003,4
45789,86005,5
45786,86000,5
45796,86000,5
45789,85993,5
45796,85994,4
45794,85999,5
45796,86003,5
45789,85990,5
45800,85992,4
45784,85990,4
45788,85984,5
45783,85984,6
45785,85974,4
45779,85984,4
45783,85991,5
45786,85980,5
45789,85983,5
45789,85990,5
45794,85997,4
45794,86008,5
45784,86000,5
45796,86005,5
45794,86015,5
45799,86021,4
45802,86025,5
45804,86020,5
45804,86030,5
45808,86026,5
45810,86032,4
45808,86031,5
45808,86031,5
45812,86032,5
45809,86033,5
45808,86028,4
45809,86023,5
45805,86012,5
45805,86018,6
45783,86010,3
45793,86006,5
45794,85997,5
45779,85980,5
45745,85981,5
45773,85966,4
45773,85963,5
45775,85959,5
45736,85963,5
45778,85957,5
45766,85955,4
45776,85956,5
45760,85957,5
45773,85944,5
45758,85943,5
45770,85938,4
45790,85940,5
45761,85951,5
45755,85940,5
45758,85923,4
45775,85880,6
45719,85841,4
45686,85790,5
45667,85758,5
45678,85732,4
45650,85712,5
45641,85712,5
45647,85706,5
45646,85714,5
45644,85709,4
45649,85709,5
45645,85706,5
45640,85680,5
45642,85717,5
45636,85712,4
45651,85710,5
45658,85684,5
45653,85722,5
45647,85720,5
45651,85723,4
45638,85675,5
45655,85722,5
45650,85728,5
45657,85742,4
45670,85752,5
45669,85748,6
45657,85752,4
45667,85744,5
45677,85788,4
45665,85747,5
45671,85758,5
45670,85765,5
45676,85827,5
45681,85785,4
45681,85796,5
45684,85802,5
45698,85816,5
45704,85802,5
45699,85802,4
45691,85808,5
45709,85814,5
45702,85816,5
45695,85808,5
45697,85806,4
45699,85820,5
45697,85822,5
45699,85827,5
45702,85817,4
45694,85829,5
45697,85821,5
45703,85821,6
45705,85817,4
45701,85817,4
45701,85810,5
45697,85820,5
45702,85818,8
45704,85822,2
45709,85824,4
45710,85825,5
45700,85824,5
45704,85819,5
45711,85838,5
45711,85836,4
45702,85832,5
45717,85839,5
45715,85836,5
45714,85840,4
45713,85837,4
45712,85842,5
45722,85845,5
45722,85855,5
45725,85864,5
45739,85873,4
45724,85885,5
45741,85888,5
45753,85896,5
45761,85914,4
45753,85927,5
45759,85932,5
45759,85934,5
45771,85938,5
45756,85930,4
45759,85920,5
45753,85924,5
45761,85914,5
45761,85901,5
45753,85897,4
45747,85899,5
45740,85896,5
45735,85879,5
45743,85880,4
45729,85881,4
45729,85873,5
45736,85870,5
45721,85862,5
45723,85868,4
45728,85864,6
45717,85852,4
45714,85865,5
45726,85848,5
45724,85856,4
45726,85861,5
45727,85858,5
45723,85846,5
45711,85822,5
45689,85789,4
45661,85747,5
45658,85728,5
45638,85705,5
45640,85692,5
45623,85683,4
45634,85694,5
45635,85694,5
45636,85704,5
45643,85709,4
45651,85724,4
45658,85735,5
45661,85740,5
45677,85747,5
45676,85767,4
45677,85764,5
45681,85784,6
45694,85804,4
45695,85802,5
45700,85825,4
45682,85827,5
45708,85830,5
45724,85852,5
45723,85851,5
45694,85854,4
45717,85867,5
45728,85857,5
45724,85862,5
45690,85864,5
45733,85875,4
45735,85885,5
45750,85896,5
45769,85916,5
45760,85922,4
45760,85923,5
45761,85917,5
45808,85931,5
45766,85929,5
45763,85933,4
45769,85941,5
45818,85945,5
45768,85951,5
45781,85956,5
45771,85963,4
45807,85954,5
45796,85973,5
45796,85973,5
45795,85980,5
45802,85998,4
45807,86000,5
45808,86005,5
45812,86017,5
45809,85995,5
45815,86028,4
45824,86044,5
45823,86056,5
45835,86025,5
45844,86078,4
45852,86087,5
45847,86095,4
45856,86055,5
45856,86109,5
45869,86126,5
45883,86139,3
45880,86156,5
45882,86162,5
45884,86162,5
45895,86172,4
45903,86223,5
45900,86185,5
45903,86190,5
45916,86199,5
45907,86250,4
45915,86202,5
45922,86215,5
45915,86213,5
45918,86242,4
45921,86230,4
45926,86229,5
45925,86233,5
45929,86226,5
45933,86217,4
45918,86222,5
45925,86227,6
45927,86220,4
45911,86226,5
45916,86213,4
45917,86220,7
45915,86225,3
45914,86220,5
45922,86228,5
45920,86224,4
45915,86217,5
45917,86214,5
45928,86223,5
45927,86212,5
45916,86222,4
45918,86218,5
45921,86214,5
45922,86211,5
45914,86209,4
45906,86183,4
45883,86151,5
45873,86111,5
45858,86099,5
45851,86085,4
45851,86085,5
45843,86076,5
45849,86081,6
45855,86092,4
45853,86091,4
45859,86103,5
45862,86112,5
45853,86111,5
45878,86114,5
45872,86118,4
45873,86125,5
45874,86132,5
45874,86137,5
45885,86150,5
45884,86163,4
45895,86171,5
45907,86176,5
45907,86202,5
45919,86212,4
45916,86212,4
45932,86229,5
45924,86232,5
45927,86232,5
45933,86233,5
45947,86258,4
45945,86257,5
45951,86276,5
45963,86293,6
45972,86299,3
45970,86304,5
45967,86313,5
45976,86311,5
45984,86327,5
45975,86315,4
45974,86314,5
45985,86319,5
45979,86321,5
45974,86321,5
45972,86318,4
45970,86312,5
45967,86314,5
45973,86313,5
45975,86312,4
45976,86313,5
45971,86319,5
45986,86324,5
45981,86322,5
45987,86325,4
45981,86340,6
45989,86343,4
45998,86356,5
46000,86356,5
46000,86368,6
46008,86378,3
46010,86382,5
46012,86393,5
46025,86402,5
46023,86407,4
46030,86415,5
46002,86408,5
46029,86409,5
46031,86411,5
46029,86425,4
45981,86421,5
46032,86417,5
46028,86416,5
46037,86423,4
45997,86412,5
46024,86416,5
46027,86414,5
46028,86407,5
46036,86395,4
46016,86395,5
46016,86397,6
46025,86401,4
46070,86411,5
46029,86418,4
46031,86416,5
46035,86416,5
46084,86427,5
46037,86432,5
46042,86448,4
46044,86446,5
46057,86444,5
46035,86442,5
46046,86426,5
46022,86422,4
46035,86413,5
46030,86409,5
46023,86395,5
46000,86367,4
45987,86287,5
45952,86294,5
45944,86253,5
45932,86229,5
45918,86173,4
45915,86196,5
45900,86196,5
45914,86204,6
45914,86177,4
45910,86202,4
45914,86202,5
45915,86207,5
45916,86222,5
45916,86201,5
45928,86212,4
45926,86226,5
45930,86265,5
45936,86230,5
45931,86246,4
45932,86244,4
45937,86292,5
45943,86260,5
45949,86265,5
45965,86266,4
45956,86287,5
45962,86290,5
45961,86286,5
45958,86294,5
45965,86297,5
45971,86310,4
45984,86323,5
45986,86324,5
45994,86346,6
45991,86334,3
45980,86329,5
45989,86324,5
45986,86327,5
45983,86322,5
45974,86313,4
45973,86303,5
45964,86301,5
45962,86293,5
45959,86281,4
45963,86278,4
45958,86276,5
45947,86264,5
45956,86267,5
45950,86259,4
45947,86258,5
45941,86249,5
45933,86244,5
45950,86249,5
45939,86241,4
45937,86246,6
45935,86238,4
45931,86243,5
45938,86250,5
45952,86254,4
45954,86262,5
45952,86259,5
45945,86268,5
45942,86255,5
45944,86264,4
45948,86259,5
45943,86264,5
45957,86263,5
45957,86262,4
45955,86264,4
45952,86264,5
45951,86264,5
45953,86251,5
45948,86248,4
45948,86259,5
45942,86250,5
45940,86243,5
45933,86239,5
45939,86229,4
45945,86227,5
45929,86212,6
45930,86209,4
45924,86218,5
45922,86211,4
45913,86198,5
45915,86194,5
45918,86188,5
45908,86182,5
45891,86184,4
45902,86172,5
45895,86170,5
45891,86169,5
45880,86139,4
45862,86091,5
45842,86053,5
45824,86014,5
45803,85982,5
45793,85963,4
45781,85952,5
45782,85942,5
45778,85943,5
45768,85934,5
45775,85936,4
45777,85942,5
45771,85943,5
45780,85938,6
45780,85949,4
45780,85945,4
45775,85939,5
45780,85943,5
45771,85941,5
45760,85941,5
45772,85942,4
45784,85932,5
45767,85938,5
45736,85935,5
45774,85932,4
45775,85928,5
45773,85938,5
45732,85933,5
45778,85935,5
45772,85931,4
45777,85948,5
45775,85944,5
45782,85958,5
45787,85952,5
45781,85965,5
45822,85949,4
45789,85954,5
45784,85946,5
45784,85947,5
45832,85948,4
45777,85948,5
45775,85945,5
45774,85941,5
45799,85943,4
45773,85947,4
45784,85941,5
45770,85943,5
45785,85944,5
45772,85946,4
45782,85944,5
45774,85931,5
45772,85930,5
45777,85936,5
45783,85952,4
45764,85936,5
45782,85913,5
45777,85954,5
45778,85952,5
45786,85956,4
45780,85913,6
45785,85968,4
45784,85957,5
45793,85963,5
45790,85962,4
45781,85971,5
45795,85973,5
45796,85975,5
45786,86011,4
45807,85979,4
45797,85973,5
45800,85980,5
45798,86038,5
45805,85991,4
45802,85993,5
45808,85992,5
45803,86019,5
45804,85995,5
45807,86000,4
45813,86001,5
45817,86011,5
45813,86016,5
45810,86020,6
45811,86019,3
45811,86007,5
45805,85998,6
45805,85991,4
45809,85994,5
45791,85985,4
45794,85980,5
45784,85967,5
45782,85968,5
45782,85959,4
45768,85947,4
45768,85924,5
45753,85917,5
45752,85895,5
45747,85886,4
45735,85871,5
45730,85858,5
45728,85865,5
45728,85864,5
45720,85849,4
45716,85828,5
45694,85787,5
45667,85743,5
45643,85698,5
45627,85676,4
45615,85653,5
45600,85631,5
45601,85622,5
45608,85616,5
45602,85630,4
45611,85621,5
45609,85629,5
45609,85635,5
45621,85651,4
45615,85652,4
45617,85655,5
45624,85658,5
45631,85669,5
45636,85680,4
45633,85673,5
45630,85680,5
45637,85685,5
45636,85686,5
45627,85681,4
45641,85693,5
45650,85686,5
45646,85699,5
45641,85704,5
45656,85704,5
45650,85692,4
45651,85705,5
45648,85711,5
45654,85706,5
45656,85713,4
45659,85727,5
45667,85721,5
45665,85716,5
45664,85721,4
45667,85728,5
45666,85717,5
45661,85718,5
45665,85722,5
45662,85734,4
45667,85738,5
45667,85737,5
45674,85747,5
45679,85742,5
45674,85738,4
45674,85730,5
45674,85733,6
45670,85737,4
45668,85739,5
45673,85729,4
45670,85738,7
45668,85739,3
45671,85741,5
45670,85734,5
45669,85733,4
45671,85742,5
45667,85747,5
45673,85744,5
45682,85749,4
45658,85751,5
45677,85756,5
45687,85771,5
45694,85773,5
45662,85798,4
45704,85801,5
45696,85805,5
45701,85806,5
45669,85810,5
45698,85805,4
45710,85813,5
45702,85812,5
45716,85814,6
45709,85808,4
45715,85806,4
45707,85811,5
45746,85811,5
45706,85814,5
45700,85806,4
45704,85804,4
45741,85795,5
45692,85790,5
45685,85785,5
45681,85787,4
45695,85766,5
45688,85761,5
45676,85764,5
45678,85764,5
45681,85757,4
45684,85758,5
45678,85773,5
45687,85769,5
45676,85731,5
45683,85765,5
45677,85766,4
45677,85763,5
45677,85715,5
45676,85759,6
45683,85761,3
45685,85756,5
45675,85714,5
45677,85739,5
45651,85704,4
45634,85679,4
45611,85646,5
45595,85621,5
45595,85589,5
45577,85570,4
45578,85611,5
45579,85558,5
45574,85564,5
45576,85574,5
45576,85611,4
45581,85564,5
45582,85573,5
45581,85591,5
45579,85599,5
45587,85583,4
45587,85588,6
45594,85597,4
45599,85595,5
45594,85609,5
45598,85612,6
45607,85615,3
45603,85613,5
45610,85611,5
45602,85618,4
45607,85615,4
45609,85621,5
45615,85630,5
45614,85625,5
45613,85643,4
45613,85639,5
45619,85653,5
45630,85661,5
45624,85678,5
45639,85681,4
45638,85683,5
45638,85683,5
45640,85686,5
45642,85686,5
45636,85689,4
45635,85685,5
45643,85682,6
45632,85690,4
45646,85681,5
45638,85690,4
45630,85677,5
45638,85682,5
45636,85677,5
45632,85672,4
45631,85675,4
45628,85684,5
45641,85674,5
45635,85682,5
45631,85672,4
45636,85678,5
45639,85677,5
45644,85678,5
45636,85685,5
45637,85686,4
45633,85695,5
45642,85682,5
45640,85692,5
45641,85694,5
45651,85702,4
45658,85710,5
45656,85711,5
45664,85716,6
45666,85733,4
45673,85739,4
45671,85744,5
45672,85752,5
45680,85766,5
45688,85781,4
45691,85791,5
45700,85795,5
45692,85799,5
45700,85801,5
45700,85804,4
45705,85805,5
45708,85804,5
45705,85807,5
45709,85809,5
45701,85810,4
45704,85802,5
45707,85805,5
45695,85791,5
45693,85782,5
45682,85768,5
45684,85773,4
45679,85752,5
45675,85753,5
45665,85745,6
45659,85729,3
45665,85723,5
45660,85724,5
45647,85724,5
45657,85715,4
45657,85716,5
45651,85720,5
45657,85719,5
45650,85707,5
45653,85698,4
45649,85704,5
45626,85706,5
45647,85712,5
45647,85710,5
45649,85720,4
45618,85725,5
45649,85714,5
45654,85701,5
45640,85689,5
45587,85645,4
45596,85597,6
45577,85569,4
45565,85551,5
45576,85530,4
45554,85529,4
45558,85535,5
45559,85528,5
45590,85536,5
45553,85526,4
45553,85535,5
45552,85530,5
45607,85541,5
45561,85545,5
45558,85547,4
45564,85548,5
45580,85554,5
45562,85553,5
45573,85551,5
45573,85561,4
45572,85552,5
45577,85574,5
45577,85581,5
45591,85589,5
45590,85569,4
45595,85606,5
45603,85603,6
45604,85615,4
45607,85582,4
45614,85629,4
45618,85641,5
45622,85666,5
45641,85662,5
45637,85686,4
45644,85690,5
45641,85695,5
45650,85725,5
45663,85714,5
45656,85712,4
45662,85717,5
45664,85761,5
45672,85736,5
45666,85733,5
45676,85740,4
45674,85791,5
45683,85749,5
45680,85749,5
45682,85773,5
45687,85777,4
45690,85766,5
45695,85785,5
45687,85770,6
45694,85776,3
45689,85780,4
45696,85798,5
45703,85803,5
45718,85811,5
45715,85817,4
45719,85828,5
45722,85829,5
45730,85848,5
45734,85857,5
45738,85871,4
45746,85886,5
45766,85896,5
45766,85906,5
45776,85921,5
45772,85928,4
45784,85948,5
45788,85953,5
45793,85963,5
45800,85982,5
45798,85988,5
45816,86001,4
45816,86006,5
45812,86014,5
45834,86028,4
45820,86033,4
45830,86027,5
45829,86038,5
45830,86035,5
45827,86039,4
45828,86037,5
45821,86025,5
45820,86027,5
45823,86018,5
45814,86022,4
45813,86016,5
45810,86015,5
45821,86019,5
45818,86026,5
45813,86018,4
45825,86025,5
45824,86032,5
45825,86034,5
45824,86041,5
45822,86031,4
45821,86029,6
45819,86021,4
45819,86029,5
45825,86017,4
45830,86032,5
45831,86031,5
45828,86027,5
45811,86016,5
45814,85984,4
45789,85952,5
45771,85923,5
45758,85902,5
45757,85895,5
45753,85878,4
45748,85890,5
45758,85890,5
45754,85894,5
45758,85905,5
45761,85911,4
45766,85922,5
45775,85921,5
45787,85944,5
45782,85957,5
45795,85957,4
45791,85976,5
45795,85980,6
45801,85988,4
45814,86006,4
45823,86014,5
45824,86032,5
45824,86037,5
45832,86058,5
45846,86072,4
45855,86082,5
45849,86078,5
45856,86090,5
45848,86103,5
45859,86107,4
45859,86107,5
45883,86130,5
45852,86140,5
45883,86150,5
45889,86156,4
45889,86147,5
45847,86160,5
45899,86153,5
45905,86152,5
45886,86162,4
45872,86156,5
45895,86158,5
45897,86168,5
45894,86161,4
45921,86171,5
45910,86175,5
45894,86180,5
45909,86186,5
45954,86183,4
45908,86177,5
45901,86178,5
45900,86181,5
45937,86182,5
45903,86196,4
45914,86185,5
45913,86189,5
45932,86197,5
45930,86211,5
45928,86223,4
45933,86224,5
45942,86218,5
45941,86250,5
45943,86246,4
45949,86261,5
45956,86244,4
45971,86290,5
45971,86308,5
45969,86305,4
45983,86286,5
45991,86335,5
45996,86355,5
46005,86367,5
46012,86365,4
46023,86390,5
46020,86391,5
46007,86392,5
46024,86433,9
46021,86389,0
46018,86364,5
46013,86388,5
46012,86435,5
46020,86382,5
46017,86386,4
46004,86376,5
46013,86402,5
46004,86372,5
46005,86357,4
46008,86360,4
45993,86362,5
45998,86356,5
45993,86343,5
45998,86339,4
45983,86340,5
45989,86325,5
45974,86297,5
45960,86268,5
45942,86236,4
45915,86198,5
45910,86179,5
45905,86165,5
45888,86141,5
45887,86150,4
45889,86160,5
45890,86158,5
45894,86156,5
45895,86159,5
45900,86177,4
45906,86177,5
45901,86178,5
45902,86187,6
45903,86178,3
45909,86179,5
45906,86193,5
45904,86195,5
45913,86199,5
45921,86209,4
45922,86207,5
45928,86212,5
45923,86229,5
45930,86219,5
45924,86224,4
45930,86222,5
45922,86222,5
45924,86207,5
45925,86213,5
45930,86223,4
45933,86233,5
45921,86224,5
45935,86229,5
45934,86225,5
45930,86214,5
45923,86207,4
45918,86198,5
45915,86199,5
45908,86190,6
45907,86185,3
45917,86193,5
45916,86192,5
45911,86191,5
45914,86186,4
45911,86187,5
45905,86184,5
45904,86179,5
45899,86172,5
45903,86165,4
45906,86165,5
45901,86159,5
45902,86157,5
45888,86154,5
45893,86152,4
45890,86154,5
45891,86168,5
45895,86160,5
45900,86163,5
45905,86172,4
45898,86175,6
45902,86178,4
45917,86192,5
45909,86197,4
45916,86186,7
45910,86185,3
45910,86185,5
45911,86188,5
45911,86179,4
45909,86173,5
45908,86168,5
45904,86159,5
45892,86168,5
45898,86157,4
45889,86157,5
45893,86152,5
45894,86151,5
45889,86149,5
45887,86154,4
45896,86156,5
45890,86150,5
45894,86145,5
45846,86133,5
45875,86136,4
45877,86127,5
45875,86126,6
45829,86125,4
45878,86121,4
45872,86112,5
45858,86102,5
45833,86063,5
45816,86007,5
45796,85974,4
45775,85938,5
45786,85905,5
45759,85885,5
45745,85870,5
45735,85859,4
45786,85864,5
45734,85862,5
45739,85857,5
45733,85863,5
45769,85865,4
45732,85870,5
45734,85859,5
45745,85867,5
45758,85867,5
45748,85866,4
45743,85885,5
45748,85872,5
45742,85859,6
45743,85881,3
45752,85877,5
45743,85889,5
45747,85846,5
45752,85877,5
45744,85890,4
45754,85875,5
45754,85837,5
45753,85891,5
45755,85891,5
45754,85897,4
45753,85907,5
45770,85912,5
45754,85900,5
45765,85914,5
45763,85944,4
45767,85914,5
45767,85931,5
45769,85923,5
45775,85981,5
45773,85920,5
45766,85921,4
45771,85928,5
45769,85954,5
45773,85925,6
45763,85906,3
45758,85906,5
45760,85904,5
45750,85898,5
45753,85898,4
45755,85899,5
45758,85893,5
45756,85899,5
45754,85894,5
45755,85905,4
45759,85911,5
45756,85899,5
45757,85916,5
45764,85910,5
45766,85921,4
45769,85928,5
45766,85925,5
45774,85923,5
45774,85927,4
45774,85939,4
45774,85934,6
45770,85943,4
45785,85944,5
45786,85949,4
45779,85949,5
45780,85954,5
45791,85956,5
45782,85960,5
45781,85962,4
45784,85954,5
45785,85971,5
45792,85970,5
45779,85958,5
45787,85957,4
45776,85937,5
45774,85934,5
45770,85921,5
45767,85908,5
45753,85893,4
45749,85886,5
45746,85880,5
45750,85898,5
45737,85880,4
45742,85878,4
45733,85866,5
45743,85873,6
45741,85859,4
45732,85861,4
45724,85855,5
45728,85863,5
45733,85855,5
45724,85855,5
45718,85842,4
45714,85818,5
45681,85755,5
45673,85725,5
45647,85683,5
45636,85681,4
45631,85653,5
45622,85638,5
45620,85630,5
45608,85629,5
45611,85628,4
45609,85626,5
45613,85629,5
45606,85619,5
45605,85627,5
45612,85622,4
45613,85626,5
45604,85625,5
45613,85631,6
45619,85645,3
45622,85651,5
45624,85657,5
45633,85668,5
45626,85671,5
45639,85678,4
45644,85689,5
45646,85691,5
45657,85696,5
45658,85704,5
45651,85715,4
45661,85709,5
45657,85700,5
45655,85698,5
45646,85708,5
45660,85705,4
45645,85720,5
45659,85717,5
45664,85714,5
45666,85710,4
45630,85712,6
45661,85701,4
45658,85702,5
45654,85695,5
45610,85699,4
45647,85704,5
45655,85696,5
45653,85698,5
45646,85696,5
45644,85696,4
45653,85690,5
45643,85688,5
45687,85689,5
45647,85691,5
45647,85684,4
45655,85689,5
45696,85701,5
45659,85695,5
45652,85700,5
45647,85696,4
45679,85698,5
45654,85704,5
45654,85710,5
45657,85704,4
45666,85709,5
45657,85708,6
45654,85712,4
45654,85707,5
45657,85703,4
45666,85713,5
45669,85729,5
45665,85728,5
45662,85689,5
45671,85726,4
45672,85732,5
45671,85728,5
45663,85688,5
45675,85719,5
45667,85722,4
45667,85716,5
45657,85708,5
45650,85704,5
45650,85689,5
45640,85680,4
45635,85709,5
45631,85673,5
45631,85662,5
45644,85660,4
45627,85715,5
45621,85660,5
45631,85656,5
45629,85660,5
45622,85677,4
45626,85663,5
45622,85660,5
45621,85651,5
45624,85669,5
45631,85665,4
45636,85661,5
45621,85657,5
45630,85664,5
45633,85658,5
45626,85648,4
45621,85622,5
45595,85582,5
45573,85541,5
45546,85509,4
45545,85489,4
45530,85468,5
45531,85470,5
45525,85472,5
45530,85454,5
45536,85465,4
45534,85453,5
45527,85443,5
45526,85453,5
45519,85441,4
45536,85459,5
45535,85471,5
45539,85462,5
45538,85477,5
45541,85467,4
45536,85475,5
45543,85469,5
45536,85473,5
45547,85480,5
45544,85484,4
45544,85497,5
45545,85500,5
45555,85497,5
45563,85499,4
45559,85504,4
45562,85509,5
45564,85508,5
45565,85522,5
45561,85525,4
45569,85531,6
45574,85546,4
45576,85543,5
45569,85548,5
45579,85555,4
45583,85553,5
45568,85548,5
45583,85555,5
45575,85545,5
45577,85537,4
45574,85535,5
45573,85540,5
45568,85531,5
45575,85545,5
45582,85536,4
45574,85554,5
45577,85546,5
45575,85541,5
45571,85530,4
45572,85536,5
45566,85535,5
45574,85531,5
45580,85534,5
45568,85537,4
45572,85536,5
45573,85546,5
45579,85545,5
45581,85555,5
45578,85546,4
45584,85553,5
45587,85554,5
45586,85562,5
45587,85569,5
45582,85564,4
45590,85561,5
45596,85563,5
45587,85569,5
45599,85577,5
45588,85589,4
45599,85589,5
45597,85594,5
45594,85583,5
45605,85585,5
45592,85588,4
45602,85583,5
45581,85586,5
45603,85585,6
45596,85571,3
45586,85568,5
45551,85561,5
45580,85563,5
45587,85557,5
45573,85547,4
45536,85549,5
45573,85540,5
45567,85541,5
45576,85541,5
45576,85541,4
45575,85541,5
45579,85538,5
45569,85540,5
45611,85543,5
45571,85554,4
45581,85556,5
45581,85555,5
45631,85559,5
45580,85564,4
45580,85569,6
45584,85552,4
45598,85548,5
45573,85515,5
45548,85477,6
45525,85436,3
45503,85396,5
45491,85381,5
45482,85360,5
45478,85362,7
45485,85332,2
45483,85357,5
45478,85350,5
45474,85354,5
45470,85325,4
45488,85371,5
45493,85376,5
45493,85385,5
45497,85345,4
45499,85393,4
45501,85402,5
45503,85399,5
45500,85409,5
45511,85409,4
45510,85413,5
45516,85412,6
45511,85463,4
45523,85426,5
45517,85430,4
45520,85424,5
45520,85480,5
45524,85436,5
45521,85444,5
45522,85445,4
45528,85470,5
45529,85457,5
45539,85454,5
45543,85463,5
45528,85464,4
45531,85456,5
45536,85475,5
45539,85481,5
45554,85494,4
45552,85491,4
45557,85507,5
45565,85514,5
45567,85512,5
45566,85525,4
45571,85527,5
45573,85529,5
45565,85534,6
45571,85540,4
45569,85525,4
45569,85523,5
45567,85533,5
45581,85545,5
45579,85548,5
45575,85546,4
45581,85545,5
45591,85558,5
45592,85568,5
45594,85568,5
45597,85579,4
45600,85583,5
45604,85590,5
45600,85594,5
45612,85603,4
45607,85610,4
45615,85610,5
45629,85628,5
45621,85631,5
45624,85638,5
45627,85640,4
45631,85652,5
45636,85659,5
45652,85683,6
45649,85695,3
45650,85693,5
45666,85703,5
45666,85710,5
45675,85726,5
45683,85727,4
45682,85738,5
45676,85747,5
45680,85750,5
45679,85748,5
45689,85748,4
45690,85745,5
45677,85747,5
45681,85747,5
45677,85745,4
45675,85737,5
45683,85745,5
45682,85736,5
45682,85735,5
45690,85751,4
45687,85744,6
45688,85743,4
45690,85746,5
45687,85747,5
45689,85754,4
45682,85743,5
45687,85760,5
45687,85747,5
45693,85754,5
45688,85767,4
45695,85770,5
45703,85776,5
45703,85771,5
45694,85735,5
45666,85714,4
45648,85679,5
45643,85654,5
45625,85643,5
45612,85636,4
45617,85615,5
45624,85621,5
45623,85612,5
45619,85628,5
45622,85639,4
45628,85646,5
45639,85656,6
45640,85668,4
45616,85675,5
45647,85681,4
45662,85692,5
45658,85705,5
45628,85714,5
45681,85723,5
45684,85736,4
45680,85737,5
45664,85752,5
45683,85754,5
45690,85762,4
45698,85764,4
45714,85775,5
45707,85782,5
45712,85784,5
45711,85795,4
45768,85813,5
45732,85817,5
45737,85834,5
45744,85846,5
45779,85861,4
45747,85863,5
45753,85852,5
45751,85865,6
45764,85859,4
45757,85866,4
45747,85866,5
45758,85872,5
45766,85873,5
45767,85893,5
45772,85898,4
45772,85904,5
45763,85875,5
45777,85905,5
45778,85917,4
45772,85922,5
45781,85887,5
45783,85923,5
45785,85924,5
45784,85931,4
45789,85924,5
45788,85947,5
45788,85942,5
45802,85953,5
45808,85990,5
45815,85975,4
45812,85991,5
45822,86004,5
45816,86062,5
45828,86018,4
45835,86021,5
45845,86038,5
45845,86066,5
45844,86052,4
45856,86065,4
45857,86056,5
45854,86071,5
45853,86064,5
45856,86068,4
45862,86067,5
45857,86067,5
45854,86073,5
45861,86065,5
45854,86070,4
45856,86067,5
45843,86063,5
45849,86062,5
45849,86050,5
45839,86051,4
45849,86047,6
45846,86056,4
45842,86050,5
45848,86053,5
45849,86058,4
45851,86050,5
45845,86059,5
45848,86057,5
45850,86061,4
45846,86059,5
45846,86057,5
45844,86054,5
45841,86052,5
45845,86051,4
45840,86040,5
45835,86017,5
45822,85990,5
45800,85956,5
45777,85919,4
45756,85888,5
45744,85870,5
45731,85849,5
45731,85849,5
45729,85851,4
45732,85855,5
45742,85849,6
45739,85867,4
45742,85863,4
45751,85886,4
45753,85891,5
45755,85899,5
45758,85901,5
45773,85912,4
45778,85934,5
45784,85929,5
45782,85944,5
45785,85950,5
45796,85962,4
45804,85973,5
45800,85985,5
45815,85991,5
45820,85993,5
45821,86012,4
45835,86017,5
45830,86025,5
45837,86029,5
45840,86040,5
45850,86051,4
45857,86065,5
45860,86070,5
45853,86079,5
45863,86079,4
45867,86080,4
45858,86075,5
45868,86081,5
45868,86085,5
45867,86084,4
45859,86076,5
45857,86083,5
45870,86074,5
45866,86076,5
45861,86071,4
45866,86066,5
45861,86071,5
45857,86081,5
45862,86081,5
45868,86084,4
45864,86087,5
45865,86084,5
45870,86090,5
45876,86098,5
45876,86098,5
45858,86114,4
45886,86116,5
45884,86122,5
45884,86120,4
45852,86131,5
45895,86129,5
45893,86127,5
45890,86112,5
45845,86117,4
45889,86107,5
45885,86111,5
45881,86108,5
45890,86103,5
45881,86102,4
45869,86092,5
45867,86094,5
45906,86081,5
45860,86074,5
45858,86073,4
45849,86063,5
45900,86055,5
45843,86057,5
45856,86051,4
45851,86057,4
45877,86057,6
45842,86055,4
45842,86044,5
45848,86046,4
45846,86024,5
45839,86035,5
45831,86018,5
45830,86009,5
45828,85983,4
45813,86007,5
45809,86001,5
45802,85976,5
45792,85897,5
45763,85899,4
45752,85867,5
45728,85825,5
45708,85763,5
45690,85764,5
45684,85760,4
45674,85747,5
45673,85766,5
45682,85738,5
45675,85737,4
45680,85729,5
45686,85781,5
45676,85732,5
45680,85734,5
45675,85741,4
45677,85780,5
45679,85730,5
45676,85736,5
45681,85736,5
45676,85744,4
45682,85741,5
45684,85747,5
45688,85743,5
45684,85744,5
45691,85747,4
45690,85741,5
45686,85742,5
45684,85749,5
45679,85755,4
45689,85755,4
45686,85764,5
45686,85775,5
45698,85771,5
45705,85772,5
45701,85777,4
45697,85776,5
45690,85770,5
45698,85775,5
45688,85780,4
45695,85770,5
45701,85772,5
45697,85779,5
45703,85780,5
45696,85778,4
45699,85783,5
45695,85768,5
45691,85762,5
45698,85761,5
45699,85761,4
45682,85755,5
45680,85750,5
45668,85742,5
45669,85727,4
45674,85728,4
45675,85729,6
45675,85730,4
45673,85729,5
45672,85733,4
45675,85740,7
45678,85748,3
45680,85754,5
45676,85753,5
45681,85753,4
45682,85761,5
45690,85762,5
45697,85764,5
45696,85776,5
45705,85781,4
45709,85793,5
45709,85791,5
45714,85810,5
45707,85814,5
45716,85807,4
45716,85818,5
45719,85820,5
45717,85827,5
45720,85821,4
45722,85810,5
45717,85818,5
45712,85804,6
45714,85805,4
45703,85793,4
45700,85776,5
45704,85774,5
45687,85767,5
45683,85758,5
45692,85768,4
45678,85754,5
45690,85763,5
45686,85752,5
45680,85748,5
45673,85741,4
45667,85728,5
45673,85732,5
45667,85724,5
45669,85715,4
45667,85724,4
45671,85724,5
45676,85729,5
45665,85721,5
45653,85719,5
45652,85676,4
45623,85632,5
45613,85596,5
45572,85575,6
45585,85549,3
45571,85535,5
45564,85529,5
45533,85529,5
45569,85526,5
45560,85530,4
45563,85524,5
45533,85532,5
45570,85528,5
45571,85541,5
45578,85550,4
45580,85561,5
45581,85565,5
45589,85572,5
45592,85572,4
45617,85567,5
45588,85566,5
45589,85576,5
45592,85588,5
45646,85587,4
45608,85589,6
45600,85597,5
45601,85591,4
45626,85610,5
45613,85601,6
45614,85611,3
45611,85622,5
45623,85624,5
45624,85633,5
45630,85637,4
45624,85647,5
45634,85621,5
45635,85633,5
45629,85650,4
45622,85642,4
45629,85596,5
45625,85636,5
45627,85637,5
45620,85633,4
45625,85598,5
45623,85636,5
45631,85625,5
45623,85629,5
45625,85636,4
45616,85628,5
45616,85622,6
45619,85625,4
45613,85658,5
45615,85621,4
45614,85607,5
45609,85609,5
45615,85656,5
45613,85612,5
45611,85609,4
45603,85617,5
45620,85638,5
45615,85621,5
45609,85619,4
45614,85624,5
45617,85622,5
45623,85631,5
45628,85625,5
45618,85629,4
45618,85637,5
45616,85632,5
45623,85632,5
45611,85622,5
45621,85634,4
45620,85632,5
45617,85634,5
45617,85643,6
45615,85645,4
45623,85647,4
45633,85653,5
45627,85665,5
45638,85668,5
45638,85655,5
45639,85660,4
45644,85659,5
45629,85652,5
45631,85649,5
45627,85648,4
45634,85635,5
45628,85635,5
45614,85610,5
45606,85601,5
45603,85595,4
45598,85596,5
45601,85588,5
45591,85579,5
45598,85572,5
45586,85560,5
45576,85547,4
45568,85548,5
45575,85536,5
45566,85536,6
45572,85539,3
45573,85541,5
45561,85546,5
45574,85534,5
45557,85507,4
45532,85477,4
45516,85432,5
45492,85391,5
45489,85371,5
45480,85347,4
45467,85337,5
45457,85332,5
45462,85331,5
45457,85333,5
45454,85325,4
45461,85321,5
45459,85327,5
45459,85331,5
45469,85338,5
45474,85353,4
45477,85348,6
45471,85373,4
45482,85371,5
45477,85381,5
45493,85384,4
45502,85393,5
45500,85398,5
45496,85410,5
45500,85405,4
45503,85404,5
45506,85405,5
45495,85411,5
45504,85409,5
45504,85403,4
45507,85409,5
45497,85395,5
45512,85402,5
45500,85411,5
45513,85417,4
45514,85415,5
45515,85423,5
45508,85426,5
45514,85421,5
45514,85421,4
45505,85423,5
45516,85419,6
45509,85419,4
45519,85424,4
45490,85432,4
45511,85435,5
45514,85426,5
45521,85437,5
45478,85446,4
45519,85442,5
45519,85437,5
45522,85440,5
45517,85446,5
45521,85453,4
45532,85452,5
45526,85458,5
45554,85456,5
45534,85468,5
45533,85467,4
45537,85472,5
45588,85477,5
45544,85488,5
45547,85485,5
45544,85485,4
45577,85493,5
45557,85494,5
45553,85504,5
45558,85509,4
45568,85506,5
45562,85513,5
45563,85513,5
45557,85501,5
45559,85487,4
45563,85503,5
45555,85515,5
45554,85515,5
45564,85485,5
45561,85518,4
45573,85527,5
45565,85521,5
45574,85486,5
45575,85541,5
45569,85533,4
45568,85536,5
45571,85530,5
45583,85537,5
45576,85536,5
45577,85549,5
45584,85578,4
45580,85541,5
45576,85542,5
45573,85539,4
45565,85573,5
45563,85520,5
45550,85510,5
45553,85506,5
45555,85512,4
45541,85471,5
45541,85480,5
45538,85465,5
45536,85467,5
45533,85450,4
45530,85451,5
45526,85448,5
45524,85440,5
45528,85444,5
45524,85445,4
45519,85459,5
45521,85454,5
45529,85462,5
45533,85459,4
45529,85472,4
45539,85465,6
45542,85467,4
45524,85451,5
45512,85419,4
45498,85392,5
45482,85353,5
45464,85327,5
45462,85308,5
45442,85288,4
45437,85277,5
45430,85280,5
45433,85270,5
45436,85279,5
45432,85277,4
45441,85278,5
45439,85282,5
45433,85298,5
45445,85296,5
45452,85301,4
45454,85316,5
45458,85307,5
45453,85320,5
45447,85318,4
45463,85329,4
45469,85337,5
45468,85330,5
45468,85345,5
45477,85355,4
45482,85358,5
45484,85354,5
45471,85360,5
45488,85353,5
45472,85354,4
45480,85354,5
45469,85360,5
45483,85364,5
45487,85373,5
45492,85396,4
45498,85398,5
45507,85394,5
45505,85407,5
45499,85407,5
45500,85410,4
45505,85408,5
45508,85397,5
45508,85402,5
45506,85413,5
45501,85406,4
45498,85406,5
45504,85412,5
45507,85420,5
45510,85412,4
45517,85410,5
45515,85425,5
45522,85429,5
45528,85443,5
45529,85447,4
45523,85461,5
45536,85463,5
45536,85478,5
45546,85474,5
45537,85477,4
45544,85486,5
45553,85489,5
45555,85508,5
45561,85524,5
45563,85518,4
45565,85530,5
45572,85522,5
45570,85539,5
45574,85548,4
45585,85538,6
45588,85548,4
45559,85556,5
45590,85563,5
45594,85564,4
45605,85570,5
45559,85581,5
45603,85582,5
45607,85593,5
45610,85605,4
45584,85618,5
45624,85624,5
45618,85617,5
45630,85623,5
45617,85634,4
45633,85629,5
45624,85633,5
45628,85618,5
45657,85635,5
45625,85623,4
45611,85619,5
45617,85607,5
45655,85602,4
45616,85611,4
45615,85615,5
45616,85609,5
45640,85608,5
45608,85612,5
45606,85601,4
45605,85601,5
45618,85604,5
45609,85610,5
45615,85602,5
45615,85607,4
45613,85580,5
45610,85595,5
45608,85589,5
45584,85543,5
45573,85485,4
45558,85495,5
45546,85469,5
45537,85467,5
45532,85418,5
45527,85450,4
45537,85458,5
45537,85469,5
45543,85478,6
45544,85484,3
45553,85494,5
45558,85513,5
45564,85562,5
45570,85540,5
45586,85550,4
45600,85573,5
45601,85624,5
45608,85598,5
45617,85608,5
45617,85612,4
45621,85641,5
45628,85627,5
45633,85628,5
45620,85625,5
45641,85646,4
45628,85635,5
45632,85639,5
45628,85645,5
45632,85633,4
45630,85634,5
45629,85659,4
45648,85663,5
45649,85680,5
45652,85681,6
45665,85685,3
45660,85678,5
45646,85684,5
45661,85688,5
45657,85690,4
45656,85684,5
45657,85683,5
45659,85689,5
45657,85681,5
45662,85698,4
45662,85698,5
45669,85712,5
45665,85709,5
45669,85706,5
45678,85714,4
45676,85727,5
45674,85729,5
45684,85726,5
45684,85741,4
45691,85745,5
45707,85759,6
45706,85777,4
45704,85779,5
45705,85801,4
45714,85805,5
45729,85823,5
45725,85829,5
45730,85842,5
45738,85850,4
45754,85857,5
45757,85865,5
45766,85880,5
45757,85871,5
45771,85888,4
45772,85890,5
45767,85903,5
45770,85903,5
45776,85911,5
45776,85917,4
45781,85921,5
45784,85925,5
45780,85933,5
45783,85923,4
45783,85931,5
45782,85925,5
45792,85935,6
45795,85928,4
45784,85942,4
45786,85934,5
45791,85941,5
45795,85942,5
45801,85951,5
45802,85954,4
45794,85952,5
45816,85961,5
45809,85968,5
45806,85963,5
45811,85970,4
45822,85988,5
45818,85981,5
45812,85976,5
45793,85955,5
45782,85928,4
45764,85893,5
45753,85868,5
45747,85848,5
45735,85838,5
45720,85827,4
45734,85836,5
45738,85841,5
45744,85842,6
45734,85846,3
45745,85850,5
45751,85856,5
45755,85870,5
45734,85878,5
45753,85880,4
45763,85893,5
45764,85900,5
45729,85903,5
45776,85923,5
45773,85919,4
45783,85920,5
45766,85931,9
45792,85951,1
45798,85973,4
45798,85960,4
45805,85960,5
45798,85973,5
45813,85970,5
45826,85991,4
45843,85999,6
45834,86016,4
45842,86033,5
45846,86037,5
45896,86040,4
45838,86049,5
45853,86043,5
45847,86057,5
45864,86053,5
45851,86045,4
45859,86047,5
45848,86051,5
45855,86049,5
45849,86058,5
45853,86046,4
45839,86045,5
45839,86015,5
45841,86045,5
45850,86044,4
45842,86044,4
45846,86012,5
45842,86043,5
45846,86047,5
45842,86050,4
45839,86009,5
45847,86047,6
45844,86052,4
45858,86053,5
45856,86078,4
45851,86065,5
45861,86069,5
45862,86072,5
45870,86116,5
45866,86080,4
45862,86075,5
45861,86072,5
45865,86123,5
45859,86078,5
45862,86070,4
45859,86079,5
45858,86089,5
45856,86059,5
45846,86062,4
45852,86056,4
45855,86065,5
45854,86062,5
45854,86068,5
45850,86066,4
45854,86054,5
45853,86057,5
45846,86041,6
45847,86047,4
45846,86037,4
45840,86024,5
45824,86012,5
45826,86009,5
45820,85999,5
45816,85983,4
45803,85978,5
45798,85970,5
45796,85943,5
45774,85912,5
45752,85871,4
45730,85836,5
45720,85805,5
45698,85773,5
45688,85752,4
45680,85747,5
45683,85745,5
45675,85746,5
45674,85738,5
45677,85736,5
45676,85727,4
45676,85732,5
45676,85738,5
45680,85725,5
45678,85731,4
45682,85753,5
45682,85745,5
45683,85741,5
45689,85742,5
45688,85758,4
45692,85759,5
45695,85761,5
45695,85757,5
45690,85757,5
45687,85766,4
45696,85757,5
45686,85765,5
45698,85766,5
45690,85768,4
45694,85776,5
45702,85795,5
45711,85797,5
45719,85803,5
45717,85809,4
45718,85813,6
45723,85813,4
45714,85803,5
45716,85806,5
45719,85806,4
45714,85795,5
45711,85797,5
45709,85798,5
45714,85795,5
45707,85782,4
45709,85790,5
45703,85784,5
45704,85774,5
45694,85772,5
45698,85775,4
45686,85780,5
45683,85756,5
45686,85762,5
45687,85755,4
45694,85769,5
45689,85764,5
45684,85762,5
45695,85772,5
45700,85768,4
45696,85769,5
45696,85770,6
45714,85791,4
45714,85777,5
45711,85784,4
45701,85795,5
45703,85799,5
45710,85793,5
45718,85803,5
45690,85804,4
45713,85812,5
45718,85822,5
45724,85819,5
45678,85805,4
45709,85806,4
45716,85801,5
45706,85800,5
45671,85792,5
45705,85780,4
45694,85774,5
45690,85759,5
45696,85754,5
45685,85747,5
45675,85734,4
45676,85730,5
45716,85729,5
45672,85724,5
45665,85722,5
45665,85713,4
45702,85712,5
45658,85702,5
45650,85697,5
45648,85709,5
45677,85701,4
45662,85711,5
45653,85697,5
45654,85679,5
45627,85630,4
45603,85584,4
45579,85565,5
45576,85536,5
45559,85482,5
45553,85499,4
45550,85492,5
45545,85489,5
45542,85458,5
45538,85482,5
45537,85482,5
45543,85486,4
45543,85457,5
45547,85487,5
45538,85488,5
45539,85484,4
45544,85508,5
45544,85491,5
45542,85485,5
45548,85486,5
45547,85532,4
45551,85490,5
45550,85496,5
45552,85501,5
45555,85540,4
45559,85506,4
45555,85508,5
45561,85510,5
45559,85531,5
45556,85515,4
45572,85539,5
45576,85540,5
45577,85541,5
45581,85544,5
45572,85541,4
45578,85553,6
45580,85552,4
45574,85550,5
45574,85559,5
45578,85549,4
45578,85566,5
45581,85563,5
45579,85557,5
45580,85559,5
45580,85560,4
45580,85553,5
45572,85551,5
45568,85548,5
45572,85537,4
45571,85540,4
45570,85542,5
45561,85526,5
45567,85537,5
45566,85520,4
45564,85526,5
45567,85517,5
45563,85510,5
45555,85516,5
45556,85508,4
45551,85513,5
45551,85504,5
45551,85501,5
45547,85499,5
45549,85498,4
45546,85493,5
45545,85496,5
45543,85484,5
45546,85487,5
45537,85486,4
45531,85486,5
45542,85488,5
45536,85480,5
45529,85465,4
45530,85464,5
45529,85472,5
45526,85471,5
45528,85452,5
45518,85454,5
45520,85451,4
45513,85440,5
45513,85421,5
45500,85421,6
45504,85417,3
45501,85412,5
45503,85413,5
45497,85406,5
45501,85417,5
45494,85410,4
45496,85394,5
45492,85392,5
45485,85381,5
45484,85384,5
45486,85385,4
45485,85371,5
45478,85374,5
45480,85371,5
45474,85352,4
45469,85335,5
45441,85290,5
45418,85230,5
45386,85188,5
45368,85137,4
45354,85118,6
45339,85095,4
45327,85077,5
45336,85078,5
45323,85071,6
45327,85081,3
45331,85086,5
45324,85081,5
45336,85081,5
45342,85084,4
45331,85092,5
45334,85112,5
45351,85103,5
45349,85123,5
45355,85122,4
45332,85122,5
45360,85125,5
45350,85128,5
45361,85126,4
45323,85131,5
45362,85125,5
45352,85134,5
45366,85133,5
45347,85136,4
45363,85135,5
45378,85156,6
45369,85149,4
45403,85157,5
45380,85173,4
45381,85184,5
45387,85182,5
45434,85190,5
45392,85181,5
45392,85186,4
45397,85183,5
45419,85181,5
45382,85181,5
45385,85169,4
45394,85183,4
45384,85175,5
45391,85169,5
45388,85176,5
45377,85179,4
45385,85160,5
45400,85192,5
45390,85206,5
45394,85196,5
45397,85168,4
45409,85195,5
45396,85195,5
45393,85192,6
45396,85152,4
45400,85196,4
45398,85195,5
45396,85201,5
45396,85189,5
45393,85208,5
45394,85200,4
45406,85207,5
45404,85241,5
45414,85219,5
45405,85226,4
45412,85232,4
45416,85271,5
45417,85236,5
45414,85229,5
45419,85228,4
45413,85251,5
45416,85229,5
45411,85240,5
45414,85228,5
45416,85225,5
45412,85221,4
45413,85213,5
45404,85204,5
45399,85196,6
45391,85192,3
45395,85194,5
45396,85198,5
45400,85200,5
45403,85206,5
45399,85200,4
45394,85207,5
45392,85207,5
45403,85200,5
45402,85211,4
45405,85209,4
45410,85215,5
45410,85212,5
45411,85225,5
45418,85220,4
45417,85229,5
45399,85223,5
45396,85180,5
45380,85156,5
45356,85111,4
45329,85080,6
45327,85067,4
45313,85054,5
45307,85035,5
45306,85033,4
45299,85019,5
45313,85028,5
45306,85039,5
45303,85034,5
45315,85027,4
45315,85040,5
45320,85037,5
45320,85039,5
45321,85042,4
45323,85042,5
45324,85051,5
45320,85051,5
45323,85052,5
45328,85062,4
45329,85060,5
45319,85056,5
45330,85063,5
45330,85064,5
45333,85075,4
45339,85066,5
45334,85075,6
45329,85068,4
45339,85074,5
45334,85085,4
45342,85088,5
45338,85097,5
45352,85102,5
45349,85102,5
45347,85098,4
45343,85098,5
45346,85096,5
45343,85097,5
45338,85095,4
45338,85090,5
45341,85090,5
45333,85078,5
45336,85075,5
45333,85100,4
45337,85083,5
45331,85081,5
45326,85080,5
45330,85076,5
45329,85072,4
45328,85076,5
45332,85073,5
45329,85071,6
45326,85069,4
45322,85073,4
45327,85070,5
45331,85081,5
45334,85084,7
45326,85086,2
45341,85091,4
45338,85102,5
45349,85109,5
45328,85116,5
45357,85124,4
45353,85118,5
45360,85127,5
45321,85138,5
45361,85141,5
45363,85159,4
45380,85161,5
45344,85169,5
45384,85172,5
45387,85187,5
45391,85203,5
45407,85194,4
45411,85213,5
45414,85209,5
45414,85209,5
45457,85222,4
45410,85223,5
45415,85217,5
45411,85220,5
45457,85224,4
45422,85224,4
45410,85224,5
45402,85221,5
45430,85217,5
45414,85221,4
45416,85226,5
45419,85232,5
45423,85238,5
45426,85242,5
45428,85241,4
45418,85242,5
45439,85224,5
45440,85264,5
45442,85272,5
45439,85268,4
45440,85224,6
45452,85279,4
45443,85273,5
45438,85273,5
45434,85226,4
45418,85232,5
45406,85192,5
45392,85177,5
45391,85190,4
45383,85159,5
45385,85158,5
45379,85158,5
45381,85209,5
45386,85175,4
45392,85187,5
45408,85193,5
45414,85249,5
45413,85222,5
45425,85222,4
45414,85227,5
45423,85245,5
45430,85239,5
45429,85238,5
45433,85242,4
45429,85250,5
45432,85255,6
45439,85259,4
45442,85269,5
45437,85279,4
45443,85285,5
45453,85299,5
45462,85292,5
45463,85296,4
45471,85309,5
45463,85310,5
45466,85323,5
45473,85336,5
45480,85350,4
45495,85353,5
45489,85372,5
45498,85373,5
45504,85388,5
45513,85391,4
45510,85405,5
45514,85403,5
45519,85398,5
45521,85404,5
45517,85425,4
45529,85430,5
45535,85433,5
45527,85436,5
45531,85441,4
45531,85450,4
45544,85444,5
45536,85450,5
45539,85442,5
45543,85452,4
45541,85450,5
45533,85451,5
45542,85448,5
45548,85450,5
45541,85461,4
45547,85466,5
45547,85472,5
45562,85489,5
45556,85480,5
45557,85484,4
45555,85483,5
45573,85494,5
45571,85502,5
45577,85522,5
45578,85514,5
45586,85528,4
45580,85533,5
45587,85546,5
45595,85545,4
45579,85541,4
45593,85548,5
45592,85554,5
45590,85549,5
45590,85546,4
45593,85551,5
45596,85554,5
45591,85559,5
45585,85551,5
45604,85562,4
45593,85570,5
45603,85570,5
45601,85581,5
45610,85586,5
45610,85596,4
45608,85595,5
45615,85592,5
45618,85590,5
45609,85594,5
45619,85594,4
45608,85596,6
45603,85576,4
45586,85552,5
45576,85520,4
45556,85496,5
45531,85446,5
45529,85432,5
45519,85419,5
45516,85405,4
45499,85399,5
45517,85409,5
45522,85408,5
45514,85414,5
45486,85425,4
45526,85436,5
45524,85429,5
45530,85441,5
45501,85450,5
45535,85456,4
45553,85468,5
45555,85481,5
45548,85485,5
45565,85495,5
45566,85490,4
45561,85507,5
45589,85516,5
45565,85511,5
45577,85510,4
45576,85520,5
45622,85520,5
45585,85530,5
45586,85545,5
45597,85550,4
45623,85574,5
45609,85585,5
45612,85589,5
45626,85603,5
45630,85615,4
45627,85614,5
45635,85629,5
45635,85623,5
45632,85611,5
45635,85632,4
45624,85624,4
45630,85623,5
45638,85596,5
45633,85633,5
45633,85629,3
45635,85623,5
45636,85589,5
45640,85627,5
45639,85636,4
45634,85629,5
45637,85637,5
45634,85644,5
45646,85633,5
45639,85634,4
45644,85682,5
45653,85661,5
45654,85664,5
45659,85668,5
45652,85724,4
45667,85697,5
45662,85699,5
45675,85709,5
45677,85741,5
45685,85722,4
45687,85743,6
45696,85732,4
45693,85752,5
45701,85750,4
45703,85752,6
45711,85761,3
45705,85767,5
45702,85760,5
45712,85765,4
45702,85771,5
45712,85762,5
45704,85761,5
45709,85765,5
45702,85759,4
45690,85746,5
45700,85743,5
45696,85745,5
45696,85746,5
45697,85742,4
45695,85742,5
45688,85746,5
45687,85736,5
45687,85732,5
45680,85729,4
45686,85731,5
45687,85732,6
45695,85722,4
45679,85719,4
45673,85683,5
45647,85653,5
45632,85615,5
45610,85583,5
45600,85560,4
45591,85547,5
45582,85534,5
45588,85547,5
45587,85534,5
45582,85547,4
45588,85532,5
45587,85541,5
45582,85537,5
45583,85548,5
45590,85544,4
45583,85547,5
45591,85555,5
45591,85545,5
45582,85555,5
45589,85542,4
45592,85548,5
45600,85554,5
45601,85556,6
45589,85561,3
45594,85564,5
45593,85549,5
45585,85543,5
45584,85543,5
45590,85552,4
45581,85535,5
45591,85542,5
45587,85554,5
45595,85559,5
45606,85557,4
45606,85561,5
45597,85563,5
45596,85565,5
45595,85572,5
45605,85573,4
45604,85583,5
45612,85591,5
45610,85591,5
45611,85585,4
45612,85592,5
45619,85592,4
45613,85591,5
45614,85588,5
45604,85590,6
45614,85575,3
45603,85564,5
45589,85553,5
45584,85544,5
45578,85531,4
45571,85534,5
45578,85522,5
45574,85511,5
45577,85515,5
45575,85514,4
45572,85515,5
45541,85510,5
45571,85506,5
45574,85517,5
45569,85505,4
45532,85507,5
45565,85504,5
45568,85496,5
45566,85509,4
45524,85514,4
45563,85508,6
45561,85511,4
45566,85519,5
45586,85523,4
45575,85524,5
45588,85534,5
45582,85543,5
45624,85537,5
45589,85540,4
45584,85539,5
45572,85537,5
45623,85539,5
45572,85530,5
45579,85519,4
45569,85520,5
45590,85493,5
45570,85502,5
45564,85491,5
45556,85486,4
45558,85489,5
45559,85488,5
45550,85482,5
45544,85468,4
45544,85435,4
45531,85450,5
45536,85442,6
45530,85428,4
45529,85392,4
45521,85428,5
45528,85426,5
45518,85418,5
45509,85373,5
45499,85385,4
45478,85336,5
45468,85301,5
45448,85291,5
45438,85264,5
45431,85237,4
45422,85231,5
45414,85278,5
45419,85233,5
45420,85232,5
45419,85229,4
45416,85272,5
45427,85234,5
45428,85238,5
45423,85248,5
45434,85260,4
45444,85252,5
45436,85261,5
45441,85264,6
45438,85268,3
45442,85274,5
45441,85265,5
45450,85270,5
45451,85276,5
45451,85290,4
45450,85296,5
45465,85296,5
45448,85297,5
45462,85303,5
45454,85291,4
45458,85298,5
45453,85304,5
45465,85315,5
45461,85326,5
45475,85329,4
45477,85334,5
45480,85328,5
45476,85342,5
45476,85336,4
45474,85334,5
45476,85330,4
45488,85337,5
45479,85345,5
45482,85338,4
45474,85340,5
45476,85332,5
45472,85335,5
45470,85331,5
45469,85337,4
45476,85335,5
45476,85331,5
45475,85343,5
45476,85343,5
45479,85334,4
45476,85336,5
45477,85334,5
45474,85339,5
45477,85335,5
45481,85337,4
45478,85342,5
45480,85344,5
45483,85338,5
45485,85350,4
45483,85350,5
45476,85339,6
45483,85355,4
45497,85360,5
45482,85354,4
45496,85361,5
45482,85365,5
45480,85359,5
45494,85366,5
45491,85368,4
45487,85366,5
45497,85373,5
45493,85383,5
45498,85381,5
45494,85375,4
45502,85386,5
45503,85388,5
45496,85375,5
45494,85382,5
45498,85379,4
45497,85369,5
45496,85359,5
45486,85358,5
45484,85349,6
45481,85347,3
45469,85337,5
45472,85326,6
45469,85322,4
45458,85305,4
45454,85292,5
45449,85303,5
45456,85301,5
45465,85298,5
45446,85284,4
45445,85270,5
45438,85262,5
45429,85264,5
45436,85262,5
45432,85258,4
45434,85263,5
45429,85268,5
45414,85271,5
45446,85270,5
45435,85265,4
45437,85264,5
45386,85222,5
45401,85176,5
45370,85142,5
45356,85109,4
45314,85095,5
45338,85085,5
45339,85080,5
45326,85056,4
45330,85051,5
45330,85047,5
45325,85053,5
45326,85058,5
45360,85068,4
45329,85071,5
45328,85067,5
45344,85085,5
45379,85074,5
45349,85079,4
45344,85078,5
45340,85093,5
45358,85093,5
45355,85106,4
45359,85114,4
45366,85126,5
45372,85130,5
45367,85150,5
45376,85148,4
45375,85160,6
45391,85138,4
45389,85168,5
45386,85172,5
45394,85182,4
45392,85147,5
45397,85184,5
45404,85190,5
45389,85195,5
45402,85158,4
45407,85195,5
45398,85202,5
45400,85182,5
45399,85201,5
45396,85186,4
45398,85187,5
45392,85187,5
45401,85227,5
45389,85184,4
45398,85184,4
45397,85186,5
45398,85234,5
45391,85188,5
45396,85183,4
45399,85181,5
45396,85204,6
45400,85179,4
45401,85185,5
45402,85194,4
45400,85206,5
45406,85212,5
45412,85210,5
45415,85214,5
45427,85226,4
45422,85226,5
45426,85240,5
45431,85257,5
45438,85268,5
45437,85272,4
45450,85280,5
45449,85286,5
45452,85286,5
45452,85289,4
45462,85301,4
45457,85312,5
45470,85317,5
45469,85315,5
45464,85317,4
45473,85323,5
45473,85323,5
45465,85322,5
45460,85318,5
45464,85299,4
45467,85315,5
45465,85307,5
45457,85295,5
45454,85287,5
45444,85278,4
45434,85271,5
45431,85257,5
45431,85264,5
45436,85253,5
45420,85255,4
45435,85250,5
45428,85250,5
45423,85246,5
45431,85249,4
45440,85256,5
45429,85245,5
45431,85246,5
45430,85256,5
45436,85256,5
45428,85251,4
45439,85257,5
45434,85249,5
45436,85246,5
45434,85260,4
45435,85239,5
45422,85226,5
45413,85195,5
45387,85154,5
45362,85111,4
45350,85096,5
45332,85069,5
45332,85051,5
45328,85037,5
45312,85036,4
45319,85031,5
45315,85047,5
45318,85044,5
45326,85046,4
45322,85035,5
45319,85039,6
45322,85059,4
45330,85052,5
45342,85055,4
45328,85059,7
45329,85054,3
45336,85055,5
45331,85062,5
45334,85064,4
45347,85062,5
45335,85082,5
45335,85075,5
45341,85066,5
45347,85084,4
45340,85084,5
45346,85094,5
45356,85094,5
45353,85097,5
45349,85105,4
45349,85112,5
45364,85105,5
45349,85104,5
45337,85110,4
45349,85086,5
45350,85091,5
45354,85093,6
45310,85091,4
45353,85083,4
45355,85084,5
45352,85076,5
45314,85080,5
45355,85084,5
45339,85079,4
45338,85078,5
45347,85078,5
45350,85090,5
45347,85086,5
45353,85081,4
45385,85084,5
45347,85088,5
45357,85098,5
45350,85099,5
45404,85103,4
45368,85110,5
45369,85123,5
45369,85125,5
45394,85135,5
45372,85144,4
45385,85146,5
45381,85148,5
45386,85158,6
45393,85173,3
45393,85181,5
45400,85192,5
45412,85175,5
45405,85198,5
45414,85223,4
45424,85234,5
45429,85197,5
45427,85237,5
45434,85251,5
45436,85268,4
45445,85233,5
45452,85278,5
45454,85279,5
45453,85294,4
45455,85297,4
45446,85292,5
45445,85271,5
45449,85274,5
45442,85307,4
45443,85273,6
45450,85271,4
45442,85280,5
45443,85323,5
45452,85283,6
45456,85293,3
45450,85295,5
45453,85303,5
45456,85289,5
45452,85288,4
45448,85297,5
45461,85295,5
45459,85300,5
45461,85308,5
45462,85310,4
45457,85305,5
45460,85299,5
45440,85270,5
45434,85251,4
45413,85210,4
45403,85193,5
45387,85173,5
45383,85167,5
45372,85164,4
45384,85157,5
45386,85160,6
45379,85160,4
45394,85172,5
45394,85175,4
45395,85193,5
45395,85205,5
45410,85208,5
45416,85231,5
45431,85257,4
45434,85252,5
45446,85274,5
45450,85285,5
45460,85291,5
45457,85309,4
45464,85312,5
45466,85319,5
45465,85322,5
45472,85322,4
45470,85318,5
45469,85317,5
45471,85309,5
45479,85320,5
45469,85323,4
45477,85318,5
45478,85336,5
45481,85355,6
45488,85361,4
45491,85364,4
45500,85358,5
45501,85377,5
45509,85387,5
45510,85381,5
45510,85379,4
45503,85383,5
45510,85390,5
45508,85392,5
45507,85399,5
45517,85405,4
45516,85409,5
45517,85420,5
45530,85423,5
45536,85445,4
45536,85447,5
45543,85462,5
45540,85459,5
45540,85459,5
45537,85477,5
45545,85468,4
45555,85489,5
45556,85489,5
45571,85502,6
45564,85510,3
45586,85527,5
45581,85540,5
45592,85553,5
45606,85563,5
45605,85581,4
45598,85584,5
45605,85594,5
45612,85599,5
45607,85593,5
45611,85598,4
45617,85602,5
45612,85593,5
45608,85596,5
45615,85592,4
45606,85589,5
45608,85582,5
45608,85590,5
45606,85589,5
45610,85586,4
45592,85597,6
45611,85589,4
45610,85584,5
45611,85602,5
45588,85615,4
45624,85608,5
45625,85612,5
45623,85614,5
45586,85610,5
45616,85612,4
45619,85614,5
45621,85613,5
45628,85601,5
45611,85570,4
45595,85555,4
45572,85511,5
45595,85484,5
45551,85481,5
45537,85464,4
45531,85452,5
45579,85445,5
45537,85443,5
45536,85446,5
45529,85446,4
45551,85444,5
45527,85445,6
45534,85441,4
45534,85454,5
45545,85450,4
45539,85459,5
45543,85453,5
45549,85463,5
45538,85439,5
45553,85470,4
45551,85471,5
45551,85482,5
45560,85444,5
45554,85484,4
45555,85505,4
45562,85497,5
45564,85468,5
45558,85506,5
45564,85501,4
45574,85517,5
45574,85538,5
45576,85530,5
45590,85545,5
45591,85547,4
45594,85601,5
45593,85555,5
45602,85556,6
45602,85554,4
45586,85590,4
45591,85554,5
45589,85548,5
45591,85544,5
45588,85550,5
45582,85534,4
45586,85537,5
45580,85525,5
45573,85534,5
45575,85517,4
45577,85527,5
45579,85529,5
45574,85529,5
45578,85518,5
45575,85530,4
45573,85532,5
45584,85538,5
45592,85549,5
45590,85549,5
45588,85558,5
45601,85570,4
45606,85571,5
45608,85587,5
45610,85582,5
45619,85594,4
45616,85598,5
45626,85607,5
45627,85615,5
45614,85607,5
45623,85604,4
45613,85609,5
45619,85601,5
45615,85602,5
45615,85600,4
45613,85585,5
45615,85582,5
45613,85595,5
45610,85586,5
45603,85582,4
45602,85586,5
45603,85575,5
45611,85565,5
45590,85563,5
45591,85566,4
45599,85564,6
45589,85567,4
45593,85562,5
45589,85547,5
45583,85530,4
45561,85493,5
45544,85460,5
45534,85440,5
45515,85404,4
45495,85380,4
45491,85361,5
45485,85350,5
45477,85337,5
45466,85325,8
45462,85323,1
45437,85317,5
45474,85315,5
45466,85331,5
45466,85327,4
45461,85322,5
45473,85322,5
45473,85325,5
45467,85325,5
45471,85321,4
45467,85325,5
45469,85316,6
45470,85323,4
45459,85316,5
45466,85320,4
45469,85315,5
45465,85306,5
45465,85313,5
45466,85315,4
45468,85318,4
45461,85311,5
45468,85313,5
45461,85332,5
45471,85338,4
45472,85342,5
45470,85341,5
45475,85333,5
45478,85333,5
45479,85334,4
45479,85339,5
45473,85326,5
45468,85328,5
45470,85322,5
45469,85317,4
45466,85317,5
45435,85303,5
45454,85292,5
45442,85286,5
45445,85284,4
45403,85270,5
45435,85271,5
45432,85251,5
45423,85235,4
45386,85223,4
45414,85220,5
45412,85214,5
45410,85214,5
45430,85214,4
45402,85205,5
45414,85216,5
45417,85222,5
45447,85224,5
45412,85231,4
45416,85240,5
45424,85238,5
45457,85250,5
45431,85261,5
45426,85260,5
45437,85262,4
45452,85254,5
45431,85258,5
45435,85241,5
45429,85251,4
45421,85230,5
45419,85242,5
45415,85216,5
45408,85204,4
45396,85162,5
45387,85180,5
45386,85166,5
45376,85164,5
45372,85114,4
45375,85157,5
45378,85146,5
45369,85146,5
45364,85124,5
45358,85119,4
45346,85085,5
45330,85050,5
45316,85049,4
45298,84996,5
45283,84981,4
45277,84971,6
45280,85012,3
45276,84967,5
45283,84969,5
45283,84986,4
45292,85029,5
45295,85017,5
45311,85016,5
45313,85031,4
45308,85042,5
45316,85035,5
45326,85053,5
45322,85041,5
45329,85047,4
45330,85060,5
45321,85051,5
45322,85054,5
45333,85064,5
45332,85077,4
45329,85081,5
45337,85086,5
45338,85075,6
45340,85090,4
45349,85080,4
45344,85090,5
45354,85097,5
45350,85102,5
45364,85113,4
45361,85113,4
45368,85125,5
45357,85124,5
45362,85124,5
45366,85129,4
45362,85131,5
45363,85137,5
45369,85122,5
45366,85140,5
45365,85137,4
45376,85143,5
45375,85144,5
45378,85154,5
45381,85167,5
45379,85162,5
45383,85165,4
45384,85170,5
45388,85175,5
45380,85166,6
45387,85166,3
45385,85166,5
45387,85177,5
45394,85176,5
45390,85167,4
45385,85173,4
45394,85190,5
45394,85179,5
45397,85181,5
45400,85193,4
45395,85192,5
45397,85201,5
45407,85205,5
45412,85202,5
45403,85204,4
45401,85205,5
45404,85196,5
45394,85202,5
45392,85213,5
45411,85193,4
45402,85201,6
45400,85199,4
45404,85200,5
45404,85198,5
45392,85177,6
45395,85184,3
45380,85176,5
45382,85152,5
45382,85161,4
45377,85164,4
45375,85158,5
45390,85160,5
45385,85157,5
45383,85174,4
45382,85156,5
45382,85172,5
45383,85155,5
45376,85162,5
45377,85170,4
45386,85166,5
45380,85146,5
45374,85134,5
45348,85087,5
45323,85052,4
45295,85005,5
45282,84967,6
45263,84947,4
45243,84928,5
45251,84916,4
45249,84901,5
45236,84892,5
45204,84887,5
45237,84886,4
45229,84883,5
45238,84898,5
45207,84903,5
45242,84897,5
45245,84911,4
45245,84905,5
45231,84908,5
45251,84908,5
45260,84921,5
45257,84924,4
45279,84917,5
45254,84925,5
45248,84925,5
45264,84929,5
45307,84935,4
45265,84930,5
45262,84926,5
45259,84937,6
45280,84936,4
45260,84933,4
45260,84937,5
45266,84954,5
45281,84955,5
45276,84961,4
45266,84951,5
45262,84957,5
45269,84946,5
45267,84965,5
45273,84964,4
45278,84969,5
45278,84935,5
45284,84980,5
45281,84973,5
45285,84974,4
45279,84939,5
45274,84973,5
45282,84966,5
45284,84970,5
45279,84981,5
45288,84980,4
45270,84971,5
45277,84976,5
45281,85006,6
45285,84975,3
45288,84968,5
45284,84974,5
45289,85023,5
45288,84990,4
45295,84986,5
45291,84991,5
45292,85021,5
45295,85018,5
45309,85012,4
45305,85014,5
45303,85029,5
45301,85029,5
45311,85027,5
45309,85033,4
45320,85032,5
45311,85038,5
45306,85038,5
45317,85043,5
45320,85031,4
45311,85026,6
45309,85029,4
45300,85024,5
45307,85016,4
45300,85008,4
45300,85004,5
45299,84994,5
45290,84993,5
45296,84992,4
45301,84984,5
45285,84997,5
45282,84989,5
45283,84991,5
45293,84998,4
45301,84997,5
45295,84991,5
45291,85001,5
45293,85011,5
45309,85021,4
45295,85005,5
45287,84991,5
45269,84950,5
45256,84910,5
45231,84867,4
45211,84849,5
45197,84828,6
45194,84811,4
45194,84797,4
45187,84801,4
45182,84795,5
45182,84798,5
45187,84797,5
45190,84807,4
45182,84808,5
45196,84813,5
45202,84803,5
45207,84815,5
45189,84815,4
45205,84816,5
45197,84816,5
45200,84821,5
45208,84832,5
45212,84826,4
45199,84827,5
45205,84849,5
45215,84843,5
45220,84870,5
45222,84870,4
45222,84879,5
45235,84891,5
45246,84888,6
45245,84891,3
45247,84909,5
45246,84918,5
45262,84924,5
45262,84924,5
45260,84923,4
45253,84918,5
45256,84917,5
45255,84907,5
45242,84902,5
45244,84892,4
45248,84889,5
45239,84890,5
45236,84884,5
45231,84887,5
45241,84880,4
45238,84884,5
45241,84883,5
45232,84880,5
45233,84872,5
45229,84884,5
45231,84876,4
45227,84879,5
45233,84886,5
45236,84888,4
45218,84891,5
45240,84894,5
45249,84918,5
45255,84916,5
45228,84924,4
45258,84941,5
45270,84946,5
45271,84952,5
45236,84970,5
45286,84960,4
45274,84962,5
45287,84978,5
45296,84980,5
45280,84987,5
45297,84991,4
45293,84997,5
45328,85001,5
45302,85013,5
45302,85011,5
45302,85012,4
45344,85024,6
45307,85021,4
45307,85004,5
45294,85006,4
45313,84986,5
45296,84985,5
45285,84975,5
45285,84965,5
45285,84965,4
45275,84964,5
45283,84963,5
45270,84961,5
45270,84935,5
45271,84963,4
45271,84960,5
45275,84952,5
45275,84923,5
45272,84955,5
45280,84961,4
45279,84962,5
45275,84917,5
45277,84957,5
45277,84962,4
45274,84950,4
45257,84954,5
45240,84900,6
45230,84860,4
45202,84821,4
45196,84834,5
45175,84785,5
45181,84775,5
45176,84769,5
45172,84814,4
45184,84767,5
45170,84769,5
45177,84774,5
45189,84795,5
45182,84776,4
45182,84783,5
45177,84798,5
45194,84794,5
45197,84809,5
45205,84816,4
45200,84821,5
45208,84818,5
45211,84822,5
45208,84831,5
45208,84839,4
45217,84845,5
45224,84864,5
45224,84858,5
45233,84860,4
45230,84881,5
45248,84880,5
45243,84901,5
45257,84914,5
45268,84934,4
45273,84964,5
45283,84975,5
45292,84980,5
45297,84983,5
45303,84998,4
45305,85011,5
45310,85006,5
45313,85024,5
45324,85026,5
45325,85046,4
45325,85051,5
45329,85049,5
45326,85061,5
45326,85060,4
45340,85061,5
45333,85067,4
45338,85060,5
45344,85075,5
45339,85079,4
45351,85086,8
45347,85089,2
45353,85090,5
45361,85107,5
45360,85113,4
45369,85117,5
45362,85120,5
45369,85142,5
45381,85153,5
45377,85146,4
45392,85162,5
45394,85173,5
45395,85181,5
45411,85192,5
45407,85201,4
45412,85212,5
45424,85222,5
45425,85230,5
45437,85233,4
45431,85238,5
45431,85248,6
45432,85239,4
45434,85254,5
45430,85259,4
45433,85260,5
45440,85259,5
45430,85258,5
45437,85259,5
45441,85245,4
45436,85252,5
45431,85250,5
45432,85246,5
45425,85256,5
45433,85251,4
45434,85251,5
45437,85259,5
45446,85267,5
45447,85258,5
45437,85257,4
45451,85269,5
45447,85273,5
45445,85263,6
45446,85275,3
45450,85281,5
45449,85271,5
45431,85259,5
45431,85233,5
45407,85200,4
45393,85168,5
45356,85151,5
45368,85135,5
45367,85125,5
45364,85118,4
45321,85121,5
45367,85126,5
45370,85127,5
45369,85135,5
45342,85146,4
45383,85142,5
45379,85140,5
45384,85153,5
45411,85165,5
45388,85173,5
45394,85177,4
45407,85187,5
45448,85200,5
45406,85207,6
45420,85216,3
45421,85220,5
45450,85230,5
45421,85228,5
45433,85239,4
45427,85232,5
45443,85239,5
45429,85248,5
45428,85251,5
45435,85258,4
45431,85241,5
45444,85268,5
45446,85263,5
45437,85272,5
45439,85231,4
45440,85259,5
45439,85255,5
45434,85261,5
45433,85210,4
45431,85251,4
45432,85242,6
45433,85256,4
45431,85243,5
45428,85244,4
45432,85248,7
45438,85263,3
45441,85296,5
45448,85279,5
45450,85294,4
45457,85304,5
45467,85358,5
45456,85318,5
45462,85333,5
45474,85344,4
45486,85388,5
45485,85369,5
45496,85384,5
45505,85392,5
45504,85400,4
45513,85420,5
45513,85413,5
45512,85413,5
45518,85407,4
45513,85412,4
45519,85418,5
45515,85423,6
45521,85428,4
45531,85443,4
45542,85459,5
45552,85467,5
45551,85490,5
45566,85502,5
45573,85516,4
45579,85538,5
45585,85529,5
45583,85543,5
45590,85547,5
45592,85556,4
45600,85572,5
45599,85576,5
45615,85586,5
45614,85595,5
45618,85606,4
45631,85621,5
45618,85619,5
45631,85615,5
45624,85617,5
45629,85627,4
45628,85624,5
45618,85623,5
45631,85626,6
45631,85611,3
45623,85623,5
45624,85606,5
45615,85594,5
45602,85561,5
45581,85544,4
45569,85512,5
45555,85489,5
45547,85463,5
45540,85452,5
45542,85455,4
45543,85449,5
45542,85462,5
45544,85469,5
45549,85473,5
45549,85470,4
45552,85465,5
45557,85487,5
45561,85499,5
45575,85519,4
45578,85548,6
45591,85560,4
45603,85579,5
45616,85601,5
45620,85615,6
45622,85626,3
45621,85628,5
45633,85627,5
45634,85642,5
45641,85656,4
45644,85672,5
45648,85681,5
45662,85697,5
45660,85704,5
45679,85713,4
45674,85723,5
45682,85732,5
45689,85746,5
45691,85744,5
45690,85746,4
45682,85749,5
45688,85754,5
45679,85747,5
45684,85750,4
45685,85742,5
45677,85740,6
45669,85723,4
45670,85718,5
45672,85712,4
45665,85710,5
45659,85700,5
45662,85685,5
45630,85676,5
45649,85666,4
45638,85663,5
45636,85634,5
45594,85632,5
45629,85633,5
45621,85623,4
45616,85617,5
45581,85612,5
45618,85617,5
45611,85615,4
45619,85604,4
45616,85616,5
45620,85610,5
45624,85611,5
45615,85607,4
45652,85601,5
45610,85598,5
45608,85601,6
45605,85601,4
45652,85595,4
45619,85606,5
45605,85592,5
45608,85594,5
45635,85594,5
45615,85606,4
45605,85598,5
45609,85593,5
45614,85587,5
45607,85583,5
45592,85571,4
45601,85557,5
45596,85544,5
45579,85544,5
45579,85529,4
45571,85518,4
45559,85483,5
45566,85509,5
45556,85504,5
45563,85505,5
45561,85468,4
45556,85492,5
45542,85478,5
45531,85444,5
45510,85417,4
45488,85385,5
45472,85344,5
45463,85319,5
45446,85349,5
45449,85301,4
45451,85296,5
45450,85294,5
45454,85343,5
45457,85288,5
45447,85298,4
45448,85309,5
45457,85331,5
45460,85311,5
45455,85305,4
45452,85323,5
45463,85321,5
45463,85313,5
45464,85317,5
45459,85313,4
45459,85323,6
45453,85315,4
45464,85320,5
45459,85315,5
45461,85315,4
45467,85323,5
45464,85322,5
45470,85335,5
45463,85335,5
45473,85346,4
45481,85354,5
45479,85367,5
45476,85371,5
45485,85363,5
45489,85359,4
45480,85360,5
45487,85367,5
45480,85360,5
45491,85368,4
45484,85368,5
45479,85365,5
45500,85364,5
45490,85374,5
45487,85369,4
45492,85362,5
45488,85374,6
45491,85369,4
45484,85375,5
45496,85362,4
45489,85363,5
45481,85353,5
45485,85343,5
45473,85355,5
45483,85355,4
45489,85368,5
45492,85376,5
45502,85388,5
45494,85395,4
45509,85411,4
45515,85409,5
45519,85424,5
45513,85434,5
45526,85437,4
45532,85435,5
45535,85441,5
45534,85451,5
45542,85455,5
45528,85460,4
45541,85462,5
45536,85459,5
45543,85470,5
45545,85473,5
45541,85468,4
45547,85475,5
45547,85479,5
45540,85470,5
45549,85456,5
45532,85453,4
45538,85453,5
45533,85451,5
45534,85439,5
45532,85439,4
45524,85425,4
45517,85414,5
45508,85410,5
45508,85394,5
45497,85394,4
45493,85380,5
45502,85379,5
45503,85379,5
45501,85384,5
45502,85380,5
45490,85381,4
45496,85384,5
45488,85387,5
45486,85379,5
45490,85365,4
45488,85372,5
45488,85379,5
45488,85378,5
45493,85363,5
45443,85334,4
45455,85295,5
45431,85276,5
45431,85247,5
45380,85233,4
45407,85212,5
45401,85207,5
45391,85203,5
45356,85197,5
45394,85190,4
45395,85187,5
45384,85185,5
45401,85190,5
45396,85192,5
45398,85198,4
45394,85200,6
45437,85209,4
45400,85205,5
45401,85218,5
45411,85223,4
45452,85221,5
45413,85233,5
45417,85234,5
45411,85242,5
45428,85248,4
45419,85255,5
45428,85266,5
45441,85262,5
45433,85263,4
45441,85284,5
45446,85285,5
45445,85294,5
45448,85269,5
45449,85307,4
45449,85305,5
45457,85307,5
45453,85262,5
45457,85302,5
45453,85306,4
45457,85310,5
45450,85276,5
45455,85302,5
45463,85297,5
45454,85307,4
45449,85324,5
45457,85308,5
45451,85317,5
45449,85311,4
45461,85354,4
45459,85318,5
45459,85308,5
45448,85307,5
45453,85346,4
45449,85294,5
45445,85291,5
45448,85298,5
45435,85306,5
45442,85294,4
45439,85285,4
45442,85295,5
45443,85300,5
45447,85298,5
45461,85305,3
45449,85308,5
45453,85316,5
45453,85313,5
45455,85316,5
45456,85316,4
45467,85323,5
45454,85332,5
45463,85322,5
45458,85326,4
45457,85333,4
45461,85330,5
45457,85330,5
45460,85331,5
45463,85328,4
45458,85331,5
45461,85320,5
45449,85322,5
45449,85316,5
45454,85312,4
45442,85302,11
45443,85301,4
45444,85288,5
45432,85283,6
45436,85271,3
45433,85272,5
45440,85275,5
45433,85270,5
45431,85270,4
45421,85260,5
45418,85262,5
45425,85253,5
45418,85242,4
45412,85237,4
45405,85233,5
45414,85219,5
45406,85217,5
45400,85214,4
45391,85184,5
45365,85135,5
45331,85093,5
45317,85057,5
45304,85018,4
45292,84997,5
45275,84983,6
45277,84970,4
45270,84967,5
45260,84957,4
45259,84948,5
45255,84950,5
45263,84944,5
45257,84966,5
45273,84972,4
45271,84969,5
45279,84975,5
45287,84993,5
45282,84998,4
45282,85000,4
45288,85011,5
45289,85007,5
45299,85009,5
45299,85024,4
45298,85026,5
45301,85020,5
45304,85020,5
45307,85021,5
45308,85034,4
45311,85031,5
45301,85038,5
45307,85049,6
45312,85063,4
45324,85075,4
45333,85087,5
45342,85093,5
45347,85099,5
45347,85100,5
45340,85100,4
45347,85108,5
45341,85100,5
45334,85101,5
45342,85105,4
45351,85106,5
45351,85098,5
45327,85109,5
45343,85117,5
45353,85107,4
45345,85109,5
45314,85104,5
45348,85104,5
45344,85108,5
45353,85106,5
45341,85116,4
45348,85118,5
45358,85122,5
45355,85131,6
45386,85134,3
45357,85139,5
45360,85149,5
45377,85163,5
45420,85158,5
45382,85168,4
45385,85174,5
45388,85189,5
45418,85190,5
45400,85194,4
45398,85178,5
45394,85181,5
45399,85185,5
45399,85183,5
45392,85189,4
45391,85195,5
45397,85171,5
45391,85194,5
45387,85180,5
45387,85185,4
45387,85149,6
45386,85181,4
45387,85179,5
45389,85179,5
45380,85139,4
45371,85157,5
45373,85148,5
45369,85137,5
45362,85136,4
45370,85149,4
45371,85147,5
45371,85144,5
45377,85182,5
45373,85149,4
45375,85145,5
45360,85155,5
45371,85191,5
45378,85157,5
45387,85158,4
45371,85167,5
45380,85191,5
45378,85166,5
45374,85160,5
45381,85167,4
45379,85164,5
45376,85150,6
45358,85118,4
45340,85086,5
45322,85051,4
45316,85035,5
45306,85016,5
45289,85011,5
45295,85005,4
45297,85000,4
45283,85007,5
45286,85004,5
45283,85004,5
45299,85002,4
45296,85000,5
45295,84999,5
45296,85009,5
45305,85011,5
45302,85032,4
45312,85039,5
45314,85040,5
45318,85036,5
45316,85053,5
45318,85049,4
45312,85059,5
45330,85063,5
45323,85065,6
45331,85069,4
45339,85079,4
45334,85081,5
45338,85077,5
45340,85090,5
45339,85099,4
45343,85095,4
45355,85103,5
45351,85114,5
45356,85111,5
45354,85124,4
45369,85119,5
45356,85120,5
45350,85115,5
45357,85120,5
45358,85125,4
45365,85120,5
45361,85123,5
45355,85139,5
45363,85133,5
45362,85130,5
45357,85121,4
45347,85126,5
45351,85115,5
45353,85116,5
45347,85122,4
45358,85118,5
45339,85113,5
45350,85114,5
45355,85113,4
45352,85109,5
45359,85122,5
45359,85128,5
45369,85137,5
45365,85144,4
45373,85155,5
45372,85157,5
45379,85166,5
45385,85174,5
45389,85168,4
45392,85187,5
45388,85196,5
45389,85202,5
45397,85207,5
45404,85203,4
45402,85203,6
45398,85214,4
45403,85204,5
45398,85192,5
45385,85188,4
45381,85186,5
45387,85188,5
45381,85179,5
45383,85174,4
45379,85158,5
45375,85155,5
45376,85153,5
45385,85160,5
45359,85158,4
45375,85160,5
45378,85152,5
45374,85163,5
45341,85163,5
45374,85170,4
45381,85166,5
45385,85176,5
45343,85180,5
45389,85177,5
45381,85182,4
45390,85182,5
45390,85187,6
45395,85189,4
45386,85191,5
45383,85176,4
45412,85162,5
45353,85129,5
45347,85090,5
45335,85088,4
45365,85063,5
45327,85057,5
45314,85052,5
45316,85042,5
45336,85051,4
45317,85048,5
45321,85063,5
45334,85065,5
45337,85069,5
45347,85086,4
45341,85094,5
45352,85099,5
45358,85091,5
45358,85130,5
45358,85140,4
45367,85139,5
45372,85115,5
45385,85163,5
45388,85187,4
45389,85181,4
45392,85152,5
45403,85204,5
45398,85216,5
45413,85217,4
45410,85237,5
45417,85243,5
45425,85243,5
45438,85269,5
45441,85314,4
45456,85295,5
45454,85300,5
45442,85291,5
45446,85336,5
45445,85291,4
45453,85290,9
45453,85303,5
45467,85328,5
45428,85316,5
45456,85316,8
45465,85321,5
45466,85345,5
45462,85316,5
45463,85306,8
45465,85329,5
45476,85326,5
45474,85340,8
45474,85340,5
45479,85346,5
45475,85352,5
45487,85371,8
45498,85385,5
45503,85396,5
45517,85416,8
45513,85408,5
45528,85433,5
45539,85465,8
45545,85494,5
45545,85494,5
45559,85508,5
45560,85511,8
45556,85501,5
45556,85505,5
45564,85501,8
45571,85511,5
45573,85516,5
45465,85321,5
45572,85507,8
45567,85504,5
45556,85507,5
45547,85498,8
45547,85498,5
45554,85490,5
45551,85494,8
45555,85496,5
45560,85512,5
45559,85513,5
45564,85498,8
45556,85521,5
45574,85515,5
45571,85530,8
45573,85523,5
45569,85527,5
45563,85534,5
45520,85426,8
45520,85426,5
45536,85412,5
45516,85402,8
45467,85381,5
45499,85395,5
45494,85407,8
45508,85409,5
45512,85412,5
45502,85414,5
45507,85423,8
45512,85430,5
45533,85453,5
45542,85471,8
45542,85471,5
45516,85482,5
45536,85487,5
45551,85491,8
45556,85505,5
45566,85513,5
45554,85509,8
45570,85516,5
45569,85536,5
45588,85538,8
45583,85555,5
45570,85548,5
45594,85565,5
45577,85611,8
45577,85611,5
45623,85617,5
45616,85641,8
45623,85633,5
45595,85627,5
45638,85636,5
45637,85640,8
45654,85662,5
45643,85657,5
45631,85642,8
45637,85647,5
45637,85645,5
45674,85648,8
45674,85648,5
45627,85653,5
45638,85616,5
45626,85623,8
45644,85651,5
45642,85650,5
45619,85655,8
45618,85657,5
45647,85667,5
45656,85685,5
45666,85709,8
45663,85704,5
45674,85678,5
45690,85764,8
45690,85764,5
45701,85767,5
45712,85780,8
45708,85762,5
45707,85790,5
45696,85796,5
45711,85799,8
45715,85837,5
45717,85822,5
45708,85796,8
45712,85802,5
45716,85850,5
45700,85786,5
45700,85786,8
45706,85790,5
45696,85777,5
45702,85792,8
45700,85786,5
45699,85782,5
45701,85803,8
45686,85743,5
45668,85708,5
45663,85692,5
45616,85610,8
45616,85610,1
45616,85610,1
45613,85630,5
45618,85620,9
45619,85624,1
45623,85646,5
45619,85623,4
45623,85636,5
45632,85647,5
45624,85636,5
45626,85643,5
45634,85649,5
45630,85665,4
45637,85659,5
45642,85654,5
45639,85668,6
45640,85674,3
45639,85671,5
45637,85671,5
45640,85672,5
45637,85676,4
45646,85678,5
45642,85672,5
45648,85688,5
45661,85699,5
45671,85714,4
45676,85722,5
45673,85729,5
45677,85733,5
45685,85740,5
45678,85740,4
45678,85747,5
45676,85743,5
45682,85736,5
45674,85728,4
45668,85724,4
45669,85722,6
45667,85718,4
45666,85721,5
45660,85718,4
45667,85707,5
45664,85700,5
45666,85693,5
45653,85692,5
45653,85681,4
45644,85672,5
45644,85675,5
45646,85672,5
45642,85671,5
45638,85674,4
45648,85676,5
45636,85685,5
45654,85677,5
45652,85679,5
45655,85679,4
45656,85683,5
45649,85693,5
45656,85695,5
45660,85686,4
45654,85685,4
45648,85693,5
45654,85686,6
45657,85689,4
45656,85682,4
45660,85682,5
45653,85685,5
45653,85698,5
45652,85687,5
45658,85686,4
45648,85694,5
45655,85690,5
45648,85693,5
45652,85680,5
45644,85674,4
45641,85670,5
45626,85661,5
45630,85659,5
45640,85655,5
45632,85650,4
45603,85648,5
45632,85655,5
45621,85635,5
45614,85618,5
45566,85589,4
45584,85552,5
45566,85526,5
45552,85499,6
45519,85477,3
45526,85449,5
45521,85445,5
45518,85443,5
45548,85443,5
45528,85459,4
45528,85472,5
45534,85478,5
45574,85473,5
45534,85481,5
45540,85493,4
45547,85499,5
45577,85495,5
45547,85496,5
45545,85498,5
45546,85500,4
45550,85492,5
45543,85476,5
45532,85485,5
45537,85467,4
45538,85455,6
45532,85458,4
45524,85450,5
45531,85452,5
45527,85423,4
45525,85453,5
45526,85454,5
45531,85466,5
45541,85430,5
45545,85485,4
45544,85486,5
45543,85481,5
45538,85490,5
45546,85496,5
45541,85504,4
45560,85504,5
45555,85538,5
45554,85503,5
45560,85513,5
45552,85514,4
45554,85568,5
45557,85531,5
45566,85531,5
45566,85529,4
45566,85551,5
45558,85525,6
45563,85526,4
45563,85524,5
45565,85519,4
45563,85526,5
45559,85515,5
45558,85516,5
45557,85512,5
45560,85517,4
45565,85531,5
45562,85515,5
45565,85529,5
45562,85536,5
45567,85530,4
45562,85519,5
45561,85521,5
45562,85520,5
45564,85521,4
45556,85517,4
45556,85515,5
45559,85502,5
45555,85521,5
45554,85508,4
45561,85513,5
45558,85517,5
45559,85516,6
45561,85516,4
45549,85502,4
45552,85502,5
45558,85497,5
45549,85496,5
45544,85490,5
45538,85481,4
45538,85480,5
45525,85457,5
45534,85454,5
45518,85455,5
45523,85451,4
45519,85434,5
45516,85436,5
45514,85429,5
45516,85420,4
45514,85418,4
45501,85403,5
45497,85399,5
45492,85393,5
45494,85389,5
45484,85379,4
45481,85375,5
45481,85352,5
45447,85301,5
45433,85277,4
45417,85236,5
45387,85210,5
45388,85181,5
45372,85176,5
45376,85171,4
45376,85164,5
45367,85158,5
45365,85159,5
45370,85153,5
45360,85162,4
45376,85160,5
45373,85166,5
45367,85171,5
45378,85169,4
45375,85182,5
45381,85172,5
45391,85187,5
45388,85185,5
45385,85197,4
45389,85191,6
45390,85200,4
45397,85199,5
45394,85202,5
45393,85222,4
45399,85211,5
45397,85224,5
45405,85221,5
45403,85224,5
45415,85226,4
45408,85231,5
45401,85240,5
45415,85254,5
45422,85259,5
45417,85263,4
45425,85262,5
45430,85279,5
45415,85273,5
45438,85281,4
45442,85276,5
45437,85285,5
45415,85295,5
45443,85295,5
45447,85300,4
45447,85313,5
45412,85296,6
45448,85288,4
45444,85295,5
45441,85285,4
45443,85286,5
45434,85291,5
45438,85285,5
45425,85286,5
45469,85280,4
45434,85281,5
45437,85290,5
45445,85298,5
45489,85293,4
45435,85297,4
45445,85304,5
45446,85303,5
45466,85299,5
45439,85305,4
45446,85312,5
45445,85310,5
45454,85317,5
45456,85317,5
45455,85318,4
45461,85331,5
45460,85301,5
45452,85322,5
45456,85311,5
45449,85316,4
45459,85289,5
45459,85320,5
45459,85320,5
45451,85311,5
45449,85269,4
45444,85291,5
45443,85293,5
45432,85290,5
45438,85287,4
45433,85281,4
45440,85287,5
45445,85281,5
45429,85323,5
45438,85283,4
45439,85293,5
45434,85288,5
45434,85324,5
45431,85282,5
45432,85274,5
45434,85281,4
45432,85293,5
45435,85272,5
45436,85271,5
45412,85233,4
45391,85195,5
45372,85149,5
45346,85123,5
45339,85098,5
45326,85075,4
45311,85058,5
45312,85042,5
45310,85041,5
45303,85040,4
45309,85042,5
45298,85043,5
45301,85042,5
45292,85041,5
45303,85041,4
45308,85048,5
45318,85055,5
45319,85066,4
45323,85071,5
45333,85088,4
45329,85107,6
45335,85102,3
45337,85119,5
45350,85116,5
45355,85119,4
45360,85132,5
45360,85140,5
45359,85135,5
45354,85138,5
45355,85138,4
45358,85136,5
45353,85133,5
45362,85149,5
45366,85157,4
45374,85160,5
45381,85160,5
45372,85172,5
45383,85172,5
45369,85168,4
45376,85170,5
45370,85173,5
45374,85168,6
45376,85169,4
45373,85172,4
45375,85169,5
45372,85174,5
45371,85168,5
45376,85169,5
45377,85172,4
45381,85177,5
45379,85178,5
45378,85171,5
45384,85183,4
45390,85185,4
45380,85186,5
45391,85193,5
45386,85200,5
45393,85201,4
45403,85226,5
45409,85226,5
45407,85231,5
45412,85230,5
45404,85230,5
45417,85240,4
45416,85248,5
45418,85251,5
45413,85245,6
45416,85254,3
45418,85257,5
45422,85254,5
45424,85263,5
45429,85274,5
45425,85275,4
45433,85265,5
45422,85279,5
45432,85285,5
45433,85273,4
45429,85282,4
45432,85277,5
45424,85274,5
45427,85269,5
45424,85258,4
45411,85255,5
45409,85241,5
45404,85241,5
45400,85226,5
45370,85218,4
45397,85214,6
45394,85225,4
45402,85224,5
45364,85215,5
45402,85224,6
45405,85230,3
45398,85223,5
45366,85216,5
45397,85225,5
45391,85223,4
45396,85211,5
45408,85203,5
45395,85210,5
45386,85208,4
45389,85223,5
45427,85212,5
45390,85195,5
45377,85163,5
45352,85124,4
45358,85077,5
45311,85052,5
45292,85041,5
45292,85025,5
45304,85016,4
45279,85008,5
45281,85010,6
45285,85012,4
45291,85009,5
45285,85012,4
45288,85014,5
45292,85031,5
45296,85002,5
45292,85021,5
45305,85046,4
45301,85046,5
45307,85015,5
45311,85041,5
45307,85047,4
45312,85055,5
45313,85039,5
45307,85064,5
45311,85079,5
45313,85084,4
45331,85108,5
45332,85099,5
45344,85106,5
45341,85119,5
45341,85165,4
45347,85134,5
45358,85136,5
45352,85153,6
45366,85183,4
45354,85150,4
45357,85150,5
45368,85150,5
45364,85179,7
45359,85158,2
45368,85158,4
45371,85161,5
45357,85164,5
45372,85169,5
45379,85164,4
45377,85170,5
45363,85169,5
45360,85159,5
45362,85160,5
45376,85162,4
45360,85160,5
45366,85163,5
45361,85162,5
45363,85166,5
45364,85166,5
45367,85167,4
45371,85181,5
45374,85184,5
45381,85187,6
45381,85195,3
45391,85204,5
45391,85205,5
45393,85228,5
45397,85230,4
45410,85246,5
45413,85250,5
45415,85247,5
45412,85254,5
45421,85268,4
45425,85269,5
45433,85277,5
45427,85287,5
45436,85299,5
45438,85300,4
45442,85303,5
45446,85317,5
45448,85312,5
45454,85313,5
45439,85311,4
45448,85314,6
45441,85317,4
45436,85311,5
45439,85305,5
45441,85306,4
45441,85313,5
45442,85302,5
45440,85311,5
45447,85318,4
45442,85313,5
45447,85314,5
45452,85322,5
45457,85332,5
45464,85328,4
45453,85342,5
45466,85347,5
45469,85357,5
45471,85357,5
45466,85355,4
45468,85358,5
45477,85356,5
45471,85354,5
45461,85346,5
45455,85318,4
45431,85273,5
45408,85253,6
45404,85223,4
45395,85209,4
45377,85197,4
45376,85195,5
45374,85190,5
45377,85195,5
45377,85194,4
45379,85196,5
45379,85200,5
45382,85207,5
45392,85209,5
45391,85214,4
45395,85220,5
45403,85228,5
45404,85237,5
45402,85236,5
45404,85250,4
45409,85258,5
45413,85255,5
45423,85257,5
45423,85264,5
45423,85277,4
45402,85276,5
45439,85289,5
45443,85297,6
45448,85317,3
45421,85341,4
45463,85352,5
45476,85367,5
45489,85374,5
45472,85394,4
45499,85397,5
45486,85395,5
45483,85398,5
45518,85397,5
45488,85393,4
45492,85386,5
45491,85399,5
45529,85404,5
45500,85402,5
45491,85398,4
45493,85404,5
45522,85400,5
45493,85400,5
45490,85401,5
45490,85406,5
45505,85397,4
45501,85398,5
45487,85404,5
45488,85402,4
45492,85396,5
45495,85401,5
45505,85420,5
45509,85430,5
45503,85415,4
45517,85448,5
45534,85448,5
45523,85455,5
45518,85417,5
45523,85474,4
45519,85491,5
45537,85497,5
45546,85496,5
45558,85519,5
45550,85529,4
45562,85532,5
45564,85581,5
45578,85561,5
45572,85566,5
45578,85570,4
45584,85620,6
45588,85581,4
45591,85582,5
45581,85586,4
45596,85623,5
45583,85598,5
45602,85600,5
45599,85611,5
45604,85617,4
45603,85620,5
45600,85616,5
45606,85606,5
45604,85608,5
45597,85601,4
45585,85596,5
45582,85584,5
45585,85565,5
45574,85558,5
45566,85555,4
45571,85550,5
45578,85560,5
45574,85564,5
45572,85562,4
45575,85564,4
45579,85578,5
45585,85573,6
45582,85579,4
45587,85564,4
45580,85565,5
45578,85575,5
45587,85577,5
45591,85590,5
45587,85591,4
45601,85598,5
45593,85580,5
45579,85566,5
45566,85543,5
45553,85513,4
45540,85482,5
45527,85466,5
45520,85459,5
45514,85449,5
45516,85444,4
45522,85457,5
45520,85461,5
45529,85469,5
45534,85475,5
45536,85472,4
45537,85476,5
45540,85500,5
45546,85504,5
45551,85500,4
45555,85516,5
45559,85518,5
45562,85527,5
45569,85530,5
45570,85539,4
45563,85547,5
45583,85564,5
45573,85565,5
45581,85576,5
45582,85579,4
45602,85597,5
45599,85599,5
45603,85606,5
45601,85615,5
45606,85626,4
45618,85631,5
45625,85655,5
45628,85663,5
45641,85671,4
45636,85668,6
45634,85673,4
45637,85681,5
45632,85670,5
45624,85677,4
45632,85670,5
45635,85663,5
45640,85665,5
45633,85671,5
45639,85660,4
45625,85664,5
45629,85670,5
45632,85661,5
45631,85658,5
