RED,IR,EKG,TIME
33308,64117,10
33306,64108,5
33301,64113,5
33296,64088,5
33298,64110,8
33314,64120,5
33311,64124,5
33316,64126,8
33316,64126,5
33309,64113,5
33305,64121,8
33311,64122,5
33306,64125,5
33309,64115,5
33292,64107,8
33307,64115,5
33304,64115,5
33305,64114,8
33295,64108,5
33291,64117,5
33303,64116,5
33306,64116,8
33306,64116,5
33347,64123,5
33323,64114,8
33276,64113,5
33296,64106,5
33300,64111,8
33304,64119,5
33293,64105,5
33288,64105,5
33297,64096,8
33292,64103,5
33292,64096,5
33298,64089,8
33298,64089,5
33252,64089,5
33278,64093,5
33293,64090,8
33296,64097,5
33296,64099,5
33297,64106,8
33296,64099,5
33299,64110,5
33306,64116,8
33309,64128,5
33302,64121,5
33320,64130,5
33317,64140,8
33317,64140,5
33311,64145,5
33324,64161,8
33312,64142,5
33323,64124,5
33314,64141,5
33319,64142,8
33337,64141,5
33327,64145,5
33313,64127,8
33324,64143,5
33323,64137,5
33307,64132,8
33307,64132,5
33314,64152,5
33304,64116,5
33302,64083,8
33289,64098,5
33297,64092,5
33282,64068,8
33237,64064,5
33252,64050,5
33257,64035,5
33249,64042,8
33248,64021,5
33251,64009,5
33265,64064,8
33265,64064,5
33274,64057,5
33277,64088,8
33296,64088,5
33292,64102,5
33269,64120,5
33301,64123,8
33305,64134,5
33307,64150,5
33304,64105,8
33293,64077,5
33278,64083,5
33264,64048,5
33264,64048,8
33265,64039,5
33270,64054,5
33257,64045,8
33262,64038,5
33269,64041,5
33262,64071,8
33261,64052,5
33263,64019,5
33273,64044,5
33283,64043,8
33267,64050,5
33267,64050,5
33267,64059,8
33265,64045,5
33257,64049,5
33271,64056,5
33273,64047,5
33266,64055,0
33264,64046,3
33264,64041,5
33270,64052,5
33269,64055,4
33269,64052,5
33262,64054,5
33265,64051,6
33266,64034,3
33269,64050,5
33257,64038,5
33263,64040,5
33256,64034,5
33262,64029,4
33263,64036,5
33261,64030,5
33260,64035,5
33268,64030,5
33261,64024,4
33255,64035,5
33249,64020,5
33251,64023,5
33257,64025,5
33263,64026,4
33256,64032,5
33251,64030,5
33262,64035,5
33261,64033,4
33259,64044,6
33255,64046,4
33269,64043,5
33267,64059,5
33263,64058,6
33271,64068,3
33276,64068,5
33280,64074,5
33282,64069,5
33289,64076,4
33281,64068,5
33289,64089,5
33289,64083,5
33291,64079,9
33283,64074,0
33284,64059,5
33302,64084,5
33289,64086,5
33287,64082,5
33294,64090,4
33287,64088,5
33289,64083,5
33270,64073,5
33296,64076,4
33283,64083,4
33284,64076,6
33287,64077,4
33278,64085,5
33275,64076,4
33283,64065,7
33282,64071,3
33275,64065,5
33273,64070,5
33269,64061,4
33279,64056,5
33267,64050,5
33254,64043,5
33246,64022,5
33244,64008,4
33239,63991,5
33233,63979,5
33221,63966,5
33217,63963,5
33215,63971,4
33218,63959,5
33218,63958,5
33223,63967,5
33220,63982,5
33235,63987,4
33240,64007,5
33245,64010,6
33246,64025,4
33254,64030,4
33258,64047,5
33268,64058,5
33279,64064,5
33270,64067,5
33259,64054,4
33249,64033,5
33249,64015,5
33240,64019,5
33241,64008,5
33235,63999,4
33231,63982,5
33234,63992,5
33227,63979,5
33230,63991,5
33236,63976,4
33233,63980,5
33232,63989,5
33230,63993,5
33232,63995,5
33244,63994,4
33246,64002,5
33241,64003,5
33249,64011,6
33243,64009,3
33247,64006,4
33246,64010,5
33247,64008,5
33251,64007,5
33247,64005,4
33235,64005,5
33239,63997,5
33238,63999,5
33244,64001,5
33240,64004,4
33241,64002,5
33245,63996,5
33241,64001,5
33250,64011,5
33239,64010,4
33235,64001,5
33231,63993,5
33235,63993,5
33230,63989,5
33240,63995,5
33228,63982,4
33233,63990,5
33238,63987,5
33232,63984,6
33229,63989,3
33226,63980,5
33227,63979,5
33229,63975,5
33232,63975,4
33222,63971,4
33226,63985,5
33226,63981,5
33237,63986,5
33227,63984,4
33233,63990,5
33236,63995,5
33236,63998,5
33240,64013,5
33250,64012,4
33249,64023,5
33252,64021,5
33255,64037,5
33253,64042,5
33262,64041,4
33261,64038,6
33269,64035,4
33265,64056,5
33274,64063,5
33278,64058,4
33280,64062,5
33271,64065,5
33279,64065,5
33276,64058,5
33271,64073,4
33278,64064,5
33282,64067,5
33275,64074,5
33286,64074,4
33296,64075,5
33278,64074,5
33277,64067,5
33270,64075,5
33283,64069,4
33278,64072,5
33280,64065,5
33270,64060,5
33265,64061,5
33267,64047,4
33260,64044,5
33252,64034,6
33247,64022,4
33241,64005,5
33246,63999,4
33238,63999,5
33233,63982,5
33233,63982,5
33224,63981,5
33229,63987,4
33239,63990,5
33237,64005,5
33245,64005,5
33247,64027,4
33250,64041,4
33266,64046,5
33273,64057,5
33280,64084,5
33288,64094,4
33293,64102,5
33287,64098,5
33287,64072,5
33268,64057,5
33269,64052,4
33260,64041,5
33261,64038,5
33260,64028,6
33261,64022,4
33258,64031,4
33255,64036,5
33266,64033,5
33256,64035,5
33255,64034,5
33263,64036,4
33274,64037,5
33265,64039,5
33262,64040,5
33272,64049,5
33273,64046,4
33282,64056,5
33272,64060,5
33283,64074,5
33284,64069,4
33291,64072,5
33275,64069,5
33278,64075,5
33277,64064,5
33277,64059,5
33278,64067,4
33278,64074,5
33289,64069,5
33283,64072,5
33290,64073,4
33290,64077,5
33291,64079,5
33282,64085,5
33288,64075,5
33283,64088,4
33290,64086,5
33283,64090,5
33292,64089,5
33282,64091,5
33285,64093,4
33286,64091,5
33288,64086,5
33296,64087,5
33291,64093,5
33286,64088,4
33291,64084,5
33288,64078,5
33291,64090,5
33289,64092,4
33301,64084,6
33285,64095,4
33297,64098,5
33295,64113,5
33302,64106,4
33305,64115,5
33312,64127,5
33318,64136,5
33323,64145,5
33331,64150,4
33323,64158,5
33337,64164,5
33343,64165,5
33345,64180,5
33343,64190,4
33341,64191,5
33349,64194,5
33350,64193,5
33348,64192,5
33355,64199,4
33353,64193,5
33349,64195,5
33357,64203,5
33352,64208,4
33346,64195,4
33353,64187,6
33354,64193,4
33347,64185,5
33335,64174,4
33343,64170,5
33331,64164,5
33334,64155,5
33324,64154,5
33320,64154,4
33331,64154,5
33325,64159,5
33336,64167,5
33335,64176,5
33334,64185,4
33342,64189,5
33344,64194,5
33353,64207,5
33352,64214,5
33361,64230,4
33359,64224,5
33368,64227,5
33350,64204,5
33351,64190,5
33343,64186,4
33348,64173,5
33333,64171,5
33325,64166,5
33334,64156,4
33335,64158,5
33331,64155,5
33332,64155,5
33329,64160,5
33337,64158,4
33339,64171,5
33332,64181,5
33339,64181,5
33347,64183,5
33346,64188,4
33342,64188,5
33357,64198,5
33356,64201,5
33351,64196,5
33358,64210,4
33360,64200,5
33362,64201,5
33356,64217,5
33363,64215,5
33363,64214,4
33367,64213,5
33365,64214,5
33365,64227,5
33367,64230,4
33371,64233,4
33366,64230,5
33369,64231,5
33374,64231,5
33374,64232,4
33372,64231,5
33376,64229,5
33366,64225,5
33368,64231,5
33368,64223,4
33364,64223,5
33369,64234,5
33358,64234,5
33366,64223,5
33363,64223,4
33362,64211,5
33365,64226,5
33366,64216,5
33350,64225,5
33365,64218,5
33376,64231,4
33380,64238,5
33368,64234,5
33367,64243,5
33374,64248,4
33383,64246,5
33385,64260,5
33392,64268,5
33393,64270,4
33391,64286,5
33414,64291,5
33408,64292,5
33408,64295,5
33411,64307,4
33423,64308,5
33416,64314,5
33418,64319,5
33419,64319,5
33425,64316,4
33415,64309,5
33417,64304,6
33415,64304,4
33412,64308,5
33420,64305,4
33416,64308,8
33405,64309,2
33423,64307,5
33412,64302,5
33409,64304,4
33417,64318,5
33417,64317,5
33423,64327,5
33421,64324,4
33432,64340,4
33425,64346,5
33437,64365,5
33440,64372,5
33452,64373,4
33443,64377,5
33432,64355,5
33444,64352,5
33433,64340,5
33433,64342,4
33425,64337,5
33431,64336,5
33430,64325,6
33427,64346,4
33426,64334,4
33437,64334,5
33427,64341,5
33422,64347,5
33433,64343,5
33437,64353,4
33441,64356,5
33442,64360,5
33461,64370,5
33453,64379,5
33453,64386,4
33460,64401,5
33466,64402,5
33468,64412,5
33474,64421,4
33483,64430,4
33488,64431,5
33488,64435,5
33489,64435,5
33497,64443,5
33494,64454,4
33502,64465,5
33510,64477,5
33518,64486,6
33517,64485,3
33518,64487,5
33519,64504,5
33518,64505,5
33521,64517,5
33540,64521,4
33535,64534,5
33554,64551,5
33563,64564,5
33560,64564,5
33557,64579,4
33559,64582,5
33563,64585,5
33562,64584,5
33575,64586,5
33567,64580,4
33557,64586,5
33557,64586,5
33570,64584,5
33561,64589,4
33563,64585,6
33568,64598,4
33569,64601,5
33571,64600,5
33579,64608,6
33569,64604,3
33573,64607,5
33578,64599,5
33574,64607,5
33578,64604,4
33570,64607,5
33579,64605,5
33578,64606,5
33578,64598,5
33583,64591,4
33569,64587,5
33568,64583,5
33564,64583,5
33558,64579,5
33559,64584,4
33560,64565,5
33559,64571,5
33550,64565,5
33560,64566,4
33552,64564,4
33549,64563,6
33542,64565,6
33546,64559,3
33549,64579,4
33548,64564,5
33549,64575,5
33548,64571,5
33542,64547,5
33534,64533,4
33527,64523,5
33524,64524,5
33512,64506,5
33507,64491,5
33505,64484,4
33499,64475,5
33498,64470,5
33489,64457,5
33490,64455,5
33483,64451,4
33487,64454,5
33481,64440,5
33476,64444,5
33482,64435,5
33479,64448,4
33476,64443,5
33475,64437,6
33482,64446,4
33477,64429,4
33476,64438,5
33480,64436,5
33478,64434,5
33462,64424,5
33477,64424,4
33476,64429,5
33466,64424,5
33477,64423,5
33470,64427,5
33466,64421,4
33468,64428,5
33479,64430,5
33472,64427,5
33471,64418,5
33472,64415,4
33473,64422,5
33461,64421,5
33469,64416,5
33467,64426,5
33464,64416,4
33464,64410,5
33467,64409,5
33456,64409,6
33453,64404,3
33451,64402,4
33446,64403,5
33452,64386,5
33460,64390,5
33447,64389,4
33451,64384,5
33449,64379,5
33436,64373,5
33437,64371,5
33434,64373,4
33434,64367,5
33434,64357,5
33428,64360,5
33432,64367,5
33426,64358,4
33425,64363,5
33429,64357,5
33429,64357,5
33434,64354,5
33426,64372,5
33434,64354,4
33433,64368,5
33429,64362,5
33423,64362,5
33430,64359,4
33427,64352,5
33424,64345,5
33424,64337,5
33426,64329,4
33411,64333,4
33398,64314,5
33394,64313,5
33395,64308,5
33395,64301,4
33396,64307,5
33399,64302,5
33406,64298,5
33394,64314,5
33401,64313,4
33401,64316,5
33410,64325,5
33415,64330,5
33422,64330,5
33408,64334,4
33407,64307,6
33395,64304,4
33398,64296,5
33386,64276,5
33384,64278,4
33379,64262,5
33375,64256,5
33375,64252,5
33365,64245,5
33369,64243,4
33364,64244,5
33371,64238,5
33364,64241,5
33361,64235,4
33362,64238,5
33363,64239,5
33365,64234,5
33360,64237,5
33361,64236,4
33367,64237,5
33358,64232,5
33354,64227,5
33365,64233,5
33357,64232,4
33357,64237,5
33358,64229,6
33358,64233,4
33360,64234,5
33352,64232,4
33360,64225,5
33364,64225,5
33361,64238,5
33361,64242,5
33364,64230,4
33358,64235,5
33359,64242,5
33360,64243,5
33359,64230,4
33357,64229,4
33359,64235,5
33363,64232,5
33363,64227,5
33353,64224,4
33363,64228,5
33347,64221,5
33342,64225,5
33357,64214,5
33348,64219,4
33348,64216,5
33342,64212,5
33348,64212,5
33343,64208,5
33349,64207,4
33341,64195,5
33338,64196,5
33341,64200,5
33344,64201,5
33342,64200,4
33345,64196,5
33340,64205,5
33343,64204,5
33343,64198,5
33347,64210,4
33352,64205,5
33350,64202,5
33359,64208,5
33351,64206,4
33353,64210,4
33340,64211,5
33350,64207,5
33350,64203,5
33346,64210,5
33352,64216,4
33350,64210,5
33351,64212,5
33352,64214,5
33348,64215,4
33346,64213,5
33350,64210,5
33343,64218,5
33348,64216,5
33353,64212,4
33357,64214,5
33343,64215,5
33348,64213,5
33344,64206,5
33342,64196,4
33341,64188,5
33340,64181,5
33321,64166,5
33307,64150,5
33307,64134,4
33298,64111,5
33281,64106,5
33278,64092,5
33278,64088,4
33283,64088,6
33272,64085,4
33271,64098,5
33292,64108,5
33298,64119,4
33300,64137,5
33306,64147,5
33315,64144,5
33321,64156,5
33323,64172,4
33333,64187,5
33329,64191,5
33323,64163,5
33310,64157,5
33311,64140,4
33306,64127,5
33299,64116,5
33294,64106,5
33297,64107,5
33292,64101,4
33289,64102,5
33288,64083,5
33289,64088,5
33280,64075,5
33281,64090,4
33279,64086,6
33280,64083,4
33274,64082,5
33278,64088,4
33274,64076,5
33279,64081,5
33276,64089,5
33279,64090,5
33282,64089,4
33277,64089,5
33285,64087,5
33284,64078,5
33275,64081,5
33268,64077,4
33278,64089,5
33275,64081,5
33274,64082,5
33278,64081,5
33274,64079,4
33270,64081,5
33286,64081,5
33284,64086,5
33284,64086,4
33274,64087,4
33281,64084,5
33279,64085,5
33280,64089,5
33274,64088,4
33272,64085,4
33281,64083,5
33274,64074,5
33274,64082,5
33280,64091,4
33272,64084,5
33269,64071,5
33278,64077,5
33279,64083,5
33272,64081,4
33261,64066,5
33261,64067,5
33263,64061,5
33274,64067,5
33268,64073,5
33268,64072,4
33270,64069,5
33270,64086,5
33272,64083,6
33268,64083,3
33280,64086,5
33276,64081,5
33282,64087,5
33278,64092,5
33279,64092,4
33284,64099,5
33287,64097,5
33286,64094,5
33283,64107,4
33297,64103,5
33282,64112,5
33291,64112,5
33299,64113,5
33294,64109,4
33291,64114,5
33292,64118,5
33296,64117,5
33291,64120,5
33295,64116,4
33297,64113,6
33288,64113,4
33287,64107,5
33285,64104,5
33285,64099,6
33287,64092,3
33276,64089,5
33270,64084,5
33266,64064,5
33255,64054,4
33251,64039,5
33243,64034,5
33236,64017,5
33237,64013,4
33226,64003,4
33228,64007,5
33236,64010,5
33237,64017,5
33245,64025,4
33245,64046,5
33255,64051,5
33264,64056,5
33272,64075,5
33269,64087,4
33282,64093,5
33292,64101,6
33276,64094,4
33279,64074,5
33266,64058,4
33262,64054,5
33251,64044,5
33244,64038,5
33250,64036,5
33241,64033,4
33248,64025,5
33242,64021,5
33240,64024,5
33231,64019,5
33247,64023,4
33243,64018,5
33248,64028,5
33244,64012,5
33241,64015,4
33243,64026,5
33248,64028,5
33255,64025,5
33242,64026,5
33245,64024,4
33251,64021,5
33257,64032,5
33247,64025,6
33244,64021,4
33238,64021,4
33251,64019,5
33236,64010,5
33246,64011,5
33246,64014,5
33249,64016,4
33240,64011,5
33254,64027,5
33243,64014,5
33243,64004,5
33238,64011,4
33239,64001,5
33232,64004,5
33230,63990,5
33234,63990,4
33234,63995,4
33232,63997,5
33232,63982,5
33234,63992,5
33224,63987,5
33231,63991,4
33222,63988,5
33219,63985,5
33223,63979,6
33220,63973,3
33214,63980,5
33222,63963,5
33221,63965,5
33221,63972,5
33214,63983,4
33210,63969,5
33215,63976,5
33224,63975,5
33217,63984,5
33217,63973,4
33234,63985,5
33226,63989,5
33232,63998,5
33231,63994,5
33242,64003,4
33235,64004,5
33238,64006,5
33235,64013,5
33240,64020,4
33245,64018,5
33235,64014,4
33244,64008,5
33241,64024,5
33240,64013,4
33246,64021,5
33244,64016,5
33244,64025,5
33246,64015,5
33253,64014,4
33248,64019,5
33256,64024,5
33234,64023,5
33241,64016,5
33246,64019,4
33243,64015,5
33243,64018,5
33245,64013,5
33242,64016,5
33244,64015,4
33240,64017,5
33233,64004,5
33226,64003,5
33222,63988,5
33220,63977,4
33215,63973,6
33209,63944,4
33211,63952,5
33190,63929,4
33193,63921,5
33192,63925,5
33188,63914,5
33186,63929,5
33192,63928,4
33202,63942,5
33198,63952,5
33205,63968,5
33210,63964,5
33219,63980,9
33222,63996,0
33230,63990,5
33232,64009,5
33239,64002,5
33222,63993,4
33217,63979,5
33216,63976,5
33205,63957,5
33211,63959,5
33208,63947,4
33202,63953,5
33197,63937,6
33199,63938,4
33200,63946,4
33201,63941,4
33209,63940,5
33196,63944,5
33205,63934,5
33196,63938,4
33197,63950,5
33206,63951,5
33204,63942,5
33203,63950,5
33200,63947,4
33199,63946,5
33205,63951,5
33199,63957,5
33204,63943,5
33205,63947,4
33208,63948,5
33211,63940,5
33203,63941,5
33202,63951,5
33200,63945,4
33205,63947,5
33212,63938,5
33203,63944,6
33207,63949,4
33201,63944,4
33200,63941,5
33205,63940,5
33202,63943,5
33197,63943,4
33197,63943,5
33201,63930,5
33190,63930,5
33189,63934,5
33190,63938,4
33195,63940,5
33189,63938,5
33196,63931,5
33188,63935,5
33188,63933,4
33187,63929,5
33189,63923,5
33197,63935,5
33201,63928,5
33203,63940,5
33199,63943,4
33207,63953,5
33197,63960,5
33204,63952,5
33206,63973,4
33220,63971,5
33218,63976,5
33225,63986,5
33233,64000,4
33231,63997,4
33237,63998,5
33236,64005,5
33237,64006,5
33235,64008,4
33238,64020,5
33244,64011,5
33245,64022,5
33242,64015,5
33244,64028,4
33250,64019,5
33250,64023,5
33249,64025,5
33242,64032,5
33246,64026,4
33239,64019,6
33248,64021,4
33245,64024,5
33244,64023,5
33244,64033,4
33243,64025,5
33240,64020,5
33240,64024,5
33235,64010,5
33234,64022,4
33234,64004,5
33222,63996,5
33215,63991,5
33221,63987,4
33205,63973,4
33210,63971,5
33209,63960,5
33208,63962,5
33211,63963,4
33210,63969,5
33214,63974,5
33224,63985,5
33229,63997,5
33232,64014,4
33234,64019,5
33237,64029,6
33245,64041,4
33266,64048,5
33261,64063,4
33263,64060,5
33265,64052,5
33255,64033,5
33248,64023,5
33252,64031,4
33242,64010,5
33236,64009,5
33237,64018,5
33244,64023,5
33232,64002,4
33226,64005,5
33231,64008,5
33242,64015,5
33241,64007,4
33231,64012,5
33242,64027,5
33243,64028,5
33239,64019,5
33245,64019,4
33248,64029,5
33252,64038,5
33252,64044,5
33257,64030,5
33255,64039,4
33256,64040,5
33249,64041,5
33252,64045,5
33255,64037,5
33254,64050,4
33267,64044,5
33254,64044,5
33257,64038,5
33259,64052,5
33260,64043,4
33257,64041,5
33262,64038,5
33263,64044,5
33253,64046,4
33263,64044,4
33261,64047,5
33257,64053,5
33255,64051,5
33251,64037,5
33259,64040,4
33264,64040,5
33254,64043,5
33249,64042,5
33253,64039,4
33252,64030,5
33251,64037,5
33249,64033,5
33258,64031,5
33251,64049,4
33257,64053,5
33254,64048,5
33259,64050,5
33257,64056,5
33266,64063,4
33277,64069,5
33275,64080,5
33273,64076,5
33281,64092,5
33284,64096,4
33282,64111,6
33293,64101,4
33294,64119,5
33291,64114,4
33302,64117,6
33301,64124,3
33307,64131,5
33298,64122,5
33304,64129,4
33311,64133,5
33308,64136,5
33302,64140,5
33304,64138,5
33308,64136,4
33306,64133,5
33316,64149,5
33302,64141,5
33308,64141,5
33302,64140,4
33308,64139,5
33315,64138,5
33295,64127,5
33299,64126,5
33296,64109,4
33293,64105,5
33289,64105,6
33295,64092,4
33282,64093,5
33273,64090,4
33279,64087,5
33288,64085,5
33280,64094,5
33288,64101,4
33288,64102,5
33303,64116,5
33303,64132,5
33309,64146,5
33318,64152,4
33319,64172,5
33333,64175,5
33328,64184,5
33324,64171,5
33314,64156,4
33311,64155,5
33321,64140,5
33308,64132,5
33303,64131,5
33301,64121,4
33303,64123,5
33302,64126,5
33310,64121,6
33301,64131,4
33307,64127,4
33312,64139,5
33311,64123,5
33308,64147,5
33308,64144,4
33320,64138,4
33321,64147,5
33322,64142,5
33320,64143,5
33328,64148,4
33323,64163,5
33327,64161,5
33329,64166,5
33320,64165,5
33327,64181,4
33321,64167,5
33319,64161,5
33336,64171,5
33325,64179,5
33330,64163,5
33329,64179,4
33334,64190,5
33335,64177,5
33336,64185,6
33338,64184,3
33344,64176,5
33328,64174,5
33334,64180,5
33337,64188,5
33327,64186,4
33332,64188,5
33332,64188,5
33334,64184,5
33335,64181,4
33328,64177,4
33330,64164,5
33319,64176,5
33321,64176,5
33322,64170,4
33329,64177,5
33329,64166,5
33330,64185,5
33334,64179,5
33334,64188,4
33340,64197,6
33344,64199,4
33355,64198,5
33352,64216,5
33342,64210,4
33352,64217,5
33363,64231,5
33363,64233,5
33370,64238,5
33371,64251,4
33373,64258,5
33370,64262,5
33374,64266,5
33384,64253,5
33388,64273,4
33383,64278,5
33383,64278,5
33389,64280,5
33391,64280,4
33395,64280,5
33396,64282,5
33391,64287,5
33391,64283,5
33397,64280,4
33389,64279,5
33391,64278,6
33390,64282,4
33378,64270,5
33382,64256,4
33371,64264,5
33372,64251,5
33367,64250,5
33368,64247,5
33366,64244,4
33362,64248,5
33367,64255,5
33373,64251,5
33371,64258,5
33384,64272,4
33380,64274,5
33387,64286,5
33392,64298,5
33403,64310,4
33408,64318,4
33407,64314,5
33397,64298,5
33384,64281,5
33388,64283,4
33383,64274,5
33379,64267,5
33373,64257,6
33381,64259,4
33370,64257,4
33376,64255,5
33371,64256,5
33375,64257,5
33369,64258,5
33378,64257,4
33369,64258,5
33372,64258,5
33376,64265,5
33381,64265,5
33379,64261,4
33371,64264,5
33381,64273,5
33380,64272,5
33390,64282,5
33384,64268,4
33381,64279,5
33383,64266,5
33386,64272,5
33376,64279,5
33384,64279,4
33391,64272,5
33396,64271,5
33384,64274,6
33392,64274,3
33391,64289,5
33384,64277,5
33400,64284,5
33394,64292,5
33393,64290,4
33396,64290,5
33409,64281,5
33395,64286,5
33391,64278,5
33380,64284,4
33396,64284,5
33388,64273,5
33387,64284,5
33378,64276,5
33384,64261,4
33376,64263,5
33387,64257,5
33380,64261,5
33365,64254,5
33367,64253,5
33362,64249,4
33374,64251,5
33374,64238,5
33372,64252,4
33370,64259,5
33369,64264,5
33384,64253,5
33377,64272,5
33379,64267,4
33385,64259,5
33380,64266,5
33385,64277,5
33395,64269,5
33389,64286,4
33388,64291,5
33389,64289,5
33384,64283,5
33385,64289,5
33386,64287,4
33387,64283,5
33384,64279,5
33388,64268,5
33379,64274,5
33373,64270,4
33375,64253,6
33364,64254,4
33361,64248,5
33363,64227,4
33351,64223,4
33358,64222,5
33345,64212,5
33346,64208,5
33353,64219,4
33343,64217,5
33347,64210,5
33348,64226,5
33352,64224,5
33362,64235,4
33367,64241,5
33367,64240,5
33363,64246,5
33352,64226,5
33346,64207,4
33346,64203,5
33332,64194,5
33333,64184,5
33328,64173,5
33328,64167,4
33315,64157,5
33322,64161,12
33310,64156,3
33312,64164,4
33310,64156,5
33309,64145,5
33319,64148,5
33314,64144,4
33311,64146,5
33302,64142,5
33312,64143,5
33309,64152,5
33317,64150,4
33311,64149,5
33318,64146,5
33311,64152,5
33317,64151,5
33313,64159,4
33307,64149,5
33310,64158,5
33318,64145,5
33320,64149,5
33319,64152,4
33319,64158,5
33319,64149,5
33323,64158,5
33322,64158,5
33318,64153,4
33324,64153,5
33318,64155,5
33317,64154,5
33320,64147,4
33312,64165,4
33309,64153,5
33309,64151,5
33314,64149,5
33312,64149,4
33306,64151,5
33310,64140,5
33312,64143,5
33307,64137,5
33301,64126,4
33308,64121,5
33304,64119,5
33288,64121,5
33302,64116,5
33300,64120,5
33296,64120,4
33296,64113,5
33305,64130,5
33299,64125,5
33301,64122,4
33301,64131,5
33301,64130,5
33304,64128,5
33301,64133,5
33312,64143,4
33316,64150,5
33312,64149,5
33306,64153,5
33306,64147,4
33318,64162,5
33315,64158,5
33316,64159,5
33316,64158,5
33316,64154,4
33314,64157,5
33302,64152,5
33312,64147,5
33313,64143,5
33309,64147,4
33299,64151,6
33309,64138,4
33300,64125,5
33293,64108,5
33285,64106,4
33277,64088,5
33275,64084,5
33276,64074,5
33265,64063,5
33267,64067,4
33256,64055,5
33263,64070,5
33270,64067,5
33273,64081,4
33267,64091,4
33279,64096,5
33294,64105,5
33298,64117,5
33300,64121,4
33298,64131,5
33293,64111,5
33286,64091,5
33276,64085,4
33271,64075,4
33263,64065,5
33264,64064,5
33263,64056,5
33262,64047,5
33248,64043,4
33250,64046,5
33258,64046,5
33256,64054,5
33253,64043,5
33249,64037,4
33248,64040,5
33258,64046,5
33254,64051,5
33252,64048,4
33263,64047,4
33262,64056,5
33260,64056,5
33253,64048,5
33265,64051,5
33254,64057,4
33258,64062,5
33256,64046,5
33260,64043,6
33259,64052,3
33250,64049,5
33256,64051,5
33255,64052,5
33269,64053,5
33256,64051,4
33261,64045,5
33264,64057,5
33259,64056,5
33262,64053,5
33255,64049,4
33258,64042,5
33258,64045,5
33256,64052,5
33265,64051,5
33257,64050,4
33257,64048,5
33257,64047,5
33253,64041,5
33251,64037,4
33255,64045,6
33259,64038,4
33253,64038,5
33243,64023,5
33244,64046,6
33246,64036,3
33239,64033,5
33245,64022,5
33237,64035,5
33248,64023,4
33250,64029,5
33253,64032,5
33255,64037,5
33257,64036,5
33243,64048,4
33257,64040,5
33256,64047,5
33251,64058,5
33261,64059,5
33255,64064,4
33264,64067,5
33267,64066,5
33265,64066,5
33262,64068,4
33274,64073,4
33270,64073,6
33264,64065,4
33264,64072,5
33267,64070,4
33274,64073,5
33259,64066,5
33265,64077,5
33267,64068,5
33265,64062,4
33269,64065,5
33268,64070,5
33259,64062,5
33259,64062,5
33260,64062,4
33265,64061,5
33264,64050,5
33265,64051,5
33255,64046,5
33255,64035,4
33244,64028,5
33234,64025,5
33227,64005,5
33226,63980,5
33207,63968,4
33191,63953,5
33185,63939,6
33185,63923,4
33171,63916,4
33185,63923,4
33188,63920,5
33189,63929,5
33193,63941,5
33200,63955,4
33207,63979,5
33219,63981,5
33220,64001,5
33233,64022,5
33245,64037,4
33244,64049,5
33256,64050,5
33255,64042,5
33241,64019,5
33235,64015,4
33226,64006,5
33227,64002,5
33217,63977,5
33212,63972,5
33209,63967,4
33212,63960,5
33205,63971,5
33206,63966,6
33202,63955,4
33208,63957,4
33198,63967,5
33198,63960,5
33198,63959,5
33204,63964,4
33214,63952,5
33207,63962,5
33201,63964,5
33203,63963,5
33208,63962,4
33201,63955,5
33207,63960,5
33202,63958,5
33213,63953,5
33195,63948,4
33210,63953,5
33191,63947,5
33209,63951,5
33204,63937,5
33204,63944,5
33201,63944,4
33200,63951,5
33200,63942,5
33196,63952,6
33195,63935,3
33196,63936,5
33202,63939,5
33197,63940,5
33195,63936,4
33189,63926,4
33188,63922,5
33190,63930,5
33190,63924,5
33188,63919,4
33190,63920,5
33188,63915,5
33183,63909,5
33177,63909,5
33186,63903,4
33177,63908,5
33182,63907,5
33174,63910,5
33185,63907,5
33181,63914,4
33187,63916,6
33181,63921,4
33186,63917,5
33190,63922,5
33188,63931,4
33188,63943,5
33189,63938,5
33194,63938,5
33193,63940,5
33199,63947,4
33196,63937,5
33201,63950,5
33201,63946,5
33206,63953,4
33202,63956,4
33207,63949,5
33208,63954,5
33200,63957,5
33209,63963,4
33202,63965,5
33208,63958,5
33212,63965,5
33213,63957,5
33212,63964,4
33205,63958,5
33211,63951,6
33209,63960,4
33201,63946,5
33207,63948,4
33206,63948,5
33199,63948,5
33197,63945,5
33202,63929,5
33190,63927,4
33173,63924,5
33184,63904,5
33159,63889,5
33157,63880,5
33155,63862,4
33147,63854,5
33140,63852,5
33144,63857,5
33148,63860,4
33146,63866,5
33146,63875,5
33165,63891,5
33166,63891,5
33166,63908,4
33178,63914,5
33183,63913,5
33195,63935,6
33196,63947,4
33196,63951,4
33203,63955,5
33188,63932,5
33175,63908,5
33170,63904,5
33168,63900,4
33172,63881,5
33160,63885,5
33159,63876,5
33154,63874,5
33160,63875,4
33159,63871,5
33158,63871,5
33159,63876,5
33160,63870,4
33160,63875,4
33158,63869,5
33161,63875,5
33167,63883,5
33159,63877,5
33162,63879,4
33168,63883,5
33165,63878,5
33165,63881,5
33162,63875,4
33163,63878,5
33157,63880,5
33158,63876,5
33166,63876,5
33161,63880,4
33169,63882,5
33159,63884,5
33157,63886,5
33171,63893,5
33166,63877,4
33173,63878,5
33160,63882,5
33166,63874,5
33164,63868,5
33157,63868,4
33163,63878,5
33149,63872,5
33160,63870,5
33158,63871,4
33155,63865,6
33167,63867,4
33148,63864,5
33160,63865,5
33147,63850,4
33147,63858,5
33145,63854,5
33151,63855,5
33152,63857,5
33158,63857,4
33145,63866,5
33148,63862,5
33156,63863,5
33160,63866,5
33167,63881,4
33158,63881,5
33160,63882,5
33165,63892,5
33176,63889,5
33175,63895,4
33179,63902,5
33177,63899,5
33186,63909,5
33180,63912,4
33187,63909,4
33184,63922,6
33198,63924,4
33180,63915,5
33188,63926,4
33196,63923,5
33178,63916,5
33187,63916,5
33183,63918,5
33183,63925,4
33180,63915,5
33187,63923,5
33176,63919,5
33177,63921,5
33183,63904,4
33178,63916,5
33181,63899,5
33176,63904,5
33179,63901,5
33179,63903,4
33180,63896,5
33171,63898,5
33168,63891,5
33156,63881,5
33159,63870,4
33156,63851,5
33140,63845,5
33133,63826,5
33120,63824,4
33120,63814,4
33114,63819,5
33122,63809,5
33131,63813,5
33123,63822,4
33123,63839,5
33129,63837,5
33140,63855,5
33153,63871,5
33151,63878,4
33166,63886,10
33182,63909,5
33185,63920,5
33181,63913,4
33191,63931,5
33189,63914,5
33178,63897,5
33172,63891,5
33159,63879,4
33152,63875,5
33152,63860,5
33153,63853,5
33150,63855,5
33150,63860,4
33149,63853,5
33159,63851,5
33153,63860,5
33163,63867,4
33164,63862,5
33163,63866,5
33164,63878,5
33162,63877,5
33170,63877,4
33168,63878,5
33175,63899,5
33170,63892,5
33172,63897,5
33169,63902,4
33170,63886,6
33168,63900,4
33172,63884,5
33176,63891,5
33178,63898,6
33172,63898,3
33176,63902,5
33175,63895,5
33187,63894,5
33184,63908,4
33193,63909,5
33171,63912,5
33178,63915,5
33180,63901,4
33174,63898,4
33180,63908,5
33181,63916,5
33180,63902,5
33178,63904,4
33175,63895,5
33180,63900,5
33174,63902,5
33171,63905,5
33173,63899,4
33179,63897,5
33176,63897,6
33170,63893,4
33179,63906,5
33180,63905,4
33179,63915,5
33186,63912,5
33183,63924,5
33188,63928,5
33193,63934,4
33189,63938,5
33203,63946,5
33207,63953,5
33214,63962,4
33223,63977,4
33221,63974,5
33217,63980,5
33228,63993,5
33226,63993,4
33233,64002,5
33230,63996,5
33233,64008,5
33243,64013,5
33238,64020,4
33237,64016,5
33245,64017,5
33232,64029,6
33245,64025,4
33248,64032,4
33242,64024,5
33240,64012,5
33234,64009,5
33234,64011,5
33230,64000,4
33231,63993,5
33220,63995,5
33213,63989,5
33221,63985,5
33215,63978,4
33212,63982,5
33205,63983,5
33223,63986,5
33226,63987,4
33228,64004,5
33228,63998,5
33237,64008,5
33235,64022,5
33249,64030,5
33256,64040,4
33261,64060,5
33251,64046,5
33253,64044,6
33249,64024,3
33230,64010,5
33233,64008,5
33231,63997,5
33238,63985,5
33229,63982,4
33222,63991,5
33223,63983,5
33222,63985,5
33233,63988,5
33223,63988,4
33220,63992,5
33221,63993,5
33228,63991,5
33235,64003,4
33231,64001,5
33234,63999,5
33234,64004,5
33241,64012,5
33235,64018,4
33242,64010,6
33236,64024,4
33245,64026,5
33254,64025,5
33244,64027,6
33245,64022,3
33257,64031,5
33246,64027,5
33254,64035,5
33254,64031,4
33257,64040,5
33250,64042,5
33252,64049,5
33255,64046,5
33251,64045,4
33258,64041,5
33256,64043,5
33257,64045,5
33259,64043,4
33255,64043,4
33258,64047,5
33262,64044,5
33250,64039,5
33254,64040,4
33253,64040,5
33252,64036,6
33250,64037,4
33251,64038,5
33253,64027,4
33247,64040,5
33250,64044,5
33248,64051,5
33264,64049,5
33264,64055,4
33264,64058,5
33263,64064,5
33270,64077,5
33269,64075,5
33281,64092,4
33288,64095,5
33285,64105,5
33287,64110,5
33299,64116,5
33300,64129,4
33304,64132,5
33306,64137,5
33296,64128,5
33312,64139,4
33313,64143,5
33316,64151,5
33318,64145,6
33315,64153,4
33319,64139,4
33315,64148,5
33308,64149,5
33307,64138,5
33306,64138,5
33304,64136,4
33301,64134,5
33302,64128,5
33300,64124,5
33301,64116,5
33291,64130,4
33294,64130,5
33290,64132,5
33302,64136,5
33307,64143,5
33306,64145,4
33316,64155,5
33324,64172,5
33323,64177,5
33335,64190,5
33334,64184,4
33327,64177,5
33322,64169,5
33319,64158,6
33309,64142,3
33316,64139,5
33307,64133,5
33303,64129,5
33299,64125,5
33299,64132,4
33306,64127,5
33300,64129,5
33303,64129,5
33310,64132,5
33302,64133,4
33319,64133,5
33308,64138,5
33311,64140,5
33318,64151,5
33315,64144,4
33315,64158,5
33316,64155,5
33323,64154,5
33316,64160,5
33327,64162,5
33317,64166,4
33329,64159,5
33325,64161,5
33325,64164,4
33321,64155,5
33319,64158,5
33329,64163,5
33327,64168,5
33331,64178,4
33336,64178,5
33329,64173,5
33342,64186,5
33329,64171,5
33334,64181,4
33333,64184,5
33331,64192,5
33327,64184,5
33338,64187,5
33335,64185,4
33346,64186,5
33330,64187,5
33328,64184,5
33326,64181,5
33325,64176,4
33334,64165,6
33324,64169,4
33322,64167,5
33321,64170,4
33329,64166,4
33326,64173,5
33329,64177,5
33337,64185,5
33342,64182,4
33340,64191,5
33342,64195,5
33340,64196,5
33341,64195,5
33338,64194,4
33342,64201,5
33340,64207,5
33340,64206,5
33350,64214,5
33344,64215,4
33353,64216,5
33354,64201,5
33339,64201,5
33344,64212,5
33347,64211,4
33347,64192,5
33347,64208,6
33341,64202,4
33338,64186,4
33337,64178,4
33333,64176,5
33328,64178,5
33331,64181,5
33320,64179,4
33327,64179,5
33325,64178,5
33335,64178,5
33330,64196,5
33333,64188,4
33331,64190,5
33341,64197,5
33338,64216,5
33347,64206,5
33339,64195,4
33330,64184,5
33322,64175,5
33324,64165,5
33315,64158,5
33312,64146,4
33307,64139,5
33304,64128,5
33317,64137,5
33302,64141,5
33299,64134,4
33307,64127,5
33302,64129,5
33296,64131,5
33301,64127,4
33304,64129,5
33305,64125,5
33302,64128,5
33306,64135,5
33302,64134,4
33304,64139,5
33307,64136,5
33308,64134,5
33312,64135,5
33303,64140,4
33304,64130,5
33302,64133,5
33304,64134,5
33309,64129,5
33305,64132,5
33307,64140,4
33303,64139,5
33315,64155,5
33311,64142,5
33314,64150,4
33313,64145,5
33309,64141,5
33310,64137,5
33307,64146,5
33296,64134,4
33299,64138,5
33293,64132,5
33301,64126,5
33302,64120,4
33300,64121,5
33297,64124,5
33295,64125,5
33294,64123,5
33287,64113,4
33290,64113,5
33290,64110,5
33283,64103,5
33281,64111,5
33281,64107,4
33278,64100,7
33288,64107,3
33280,64107,5
33289,64096,5
33281,64103,4
33284,64111,5
33291,64107,5
33282,64111,5
33289,64113,5
33291,64116,4
33290,64120,5
33298,64123,5
33294,64122,5
33295,64117,4
33289,64129,4
33293,64130,5
33297,64130,5
33296,64136,5
33292,64134,4
33304,64134,5
33300,64139,5
33297,64136,5
33300,64132,4
33299,64134,4
33304,64131,5
33301,64130,5
33296,64125,5
33294,64116,5
33290,64121,4
33284,64099,5
33269,64080,5
33270,64068,5
33252,64059,5
33241,64035,4
33238,64023,5
33234,64017,5
33231,64012,5
33227,64017,5
33231,64020,4
33234,64031,5
33233,64039,5
33246,64050,5
33258,64054,5
33262,64069,4
33266,64088,5
33267,64093,5
33274,64091,6
33267,64082,3
33270,64068,5
33263,64061,5
33251,64054,5
33258,64044,5
33250,64034,4
33253,64028,5
33244,64032,5
33246,64023,5
33240,64023,5
33247,64015,4
33239,64019,5
33230,64015,5
33240,64016,5
33246,64014,5
33237,64019,4
33241,64016,5
33243,64032,5
33243,64032,5
33244,64014,5
33240,64015,5
33242,64025,4
33246,64026,5
33239,64020,5
33244,64020,6
33246,64025,3
33245,64015,5
33240,64025,5
33243,64019,5
33239,64012,7
33244,64012,2
33240,64014,5
33244,64022,5
33239,64024,5
33248,64027,4
33250,64023,5
33247,64025,5
33237,64026,5
33242,64017,5
33233,64015,4
33239,64017,5
33242,64021,5
33239,64019,5
33235,64017,5
33227,64026,4
33228,64016,6
33247,64017,4
33236,64014,5
33229,64009,5
33229,64009,6
33229,63993,3
33228,63997,5
33226,63994,5
33232,63991,4
33227,63993,5
33220,63993,5
33232,64006,5
33226,63996,5
33229,63993,4
33224,64004,5
33233,64006,5
33232,64001,5
33231,64019,5
33232,64022,4
33239,64022,5
33238,64024,5
33243,64025,5
33237,64027,5
33243,64019,4
33248,64026,5
33243,64027,6
33245,64032,4
33247,64035,5
33247,64034,4
33245,64038,5
33256,64037,5
33256,64040,5
33246,64041,4
33243,64029,4
33246,64036,5
33246,64044,5
33247,64043,5
33254,64027,4
33246,64028,5
33243,64034,5
33245,64035,5
33244,64039,5
33241,64031,4
33246,64015,5
33238,64016,5
33227,64016,5
33232,63995,5
33219,63988,4
33205,63958,5
33195,63951,5
33186,63937,6
33178,63920,4
33176,63915,4
33181,63900,5
33171,63907,5
33182,63917,5
33182,63921,5
33187,63935,4
33189,63940,5
33196,63952,5
33206,63972,5
33214,63986,4
33224,63996,4
33227,64011,5
33234,64022,5
33243,64029,5
33237,64023,4
33239,64021,5
33230,63984,5
33217,63982,5
33214,63973,5
33206,63950,5
33203,63949,4
33203,63945,5
33202,63939,5
33201,63937,6
33178,63934,3
33189,63938,5
33178,63923,5
33178,63923,5
33190,63920,5
33192,63920,4
33191,63923,5
33193,63924,5
33187,63925,5
33189,63922,5
33192,63924,4
33185,63930,5
33184,63923,5
33187,63930,5
33190,63929,4
33187,63921,4
33184,63921,5
33182,63920,5
33182,63923,5
33179,63922,4
33185,63917,6
33182,63921,4
33176,63912,5
33184,63913,5
33189,63922,4
33188,63918,5
33179,63915,5
33191,63922,5
33181,63924,5
33187,63914,4
33190,63929,5
33184,63923,5
33181,63926,5
33181,63919,5
33187,63915,4
33180,63908,5
33178,63909,5
33177,63910,5
33190,63906,5
33174,63901,4
33171,63902,5
33175,63907,5
33168,63901,5
33169,63895,4
33172,63901,4
33171,63901,6
33163,63904,4
33172,63898,5
33174,63889,4
33165,63899,5
33179,63896,5
33175,63905,5
33174,63916,5
33174,63913,4
33173,63910,5
33176,63915,5
33179,63922,5
33178,63930,5
33185,63924,4
33191,63938,5
33184,63924,5
33191,63922,5
33187,63937,5
33192,63936,4
33194,63939,5
33188,63945,5
33190,63953,5
33189,63929,5
33189,63939,4
33192,63927,5
33189,63937,6
33196,63935,4
33192,63934,4
33192,63926,5
33193,63939,5
33188,63937,5
33183,63921,5
33183,63917,4
33171,63910,5
33168,63905,5
33169,63880,5
33160,63875,5
33142,63853,4
33137,63842,5
33133,63837,5
33132,63828,5
33123,63824,5
33121,63824,4
33129,63830,5
33135,63829,5
33137,63845,5
33136,63853,5
33150,63865,4
33154,63877,5
33162,63888,5
33169,63900,5
33173,63902,5
33184,63918,4
33180,63928,5
33174,63899,5
33167,63890,5
33154,63879,4
33165,63866,5
33151,63868,5
33139,63856,5
33142,63849,5
33140,63834,4
33138,63839,5
33133,63837,5
33143,63841,5
33138,63841,5
33139,63836,4
33131,63829,5
33131,63843,5
33134,63845,5
33143,63835,5
33143,63839,5
33134,63846,4
33137,63838,5
33153,63846,5
33132,63841,5
33140,63839,4
33135,63853,5
33141,63832,5
33134,63837,5
33142,63836,4
33133,63842,4
33143,63827,5
33142,63839,5
33136,63836,5
33136,63834,4
33136,63836,5
33140,63839,5
33134,63836,5
33137,63831,5
33127,63835,4
33127,63831,5
33130,63825,5
33136,63833,5
33138,63832,5
33127,63822,4
33135,63818,6
33125,63826,4
33130,63827,5
33120,63818,5
33124,63814,4
33125,63811,5
33121,63815,5
33128,63813,5
33124,63811,5
33127,63812,4
33121,63806,5
33124,63812,5
33121,63811,5
33127,63825,4
33126,63821,4
33128,63837,5
33138,63832,5
33138,63848,5
33142,63849,4
33145,63851,5
33146,63852,5
33155,63875,5
33156,63872,5
33163,63868,4
33161,63874,5
33164,63886,6
33159,63883,4
33162,63885,5
33169,63901,4
33169,63890,5
33169,63895,5
33178,63904,5
33170,63909,5
33175,63902,4
33173,63904,5
33179,63911,5
33168,63898,5
33162,63896,5
33174,63885,4
33169,63888,5
33163,63884,5
33151,63879,5
33167,63881,4
33155,63878,5
33150,63868,5
33139,63854,5
33146,63838,5
33123,63820,4
33126,63816,5
33112,63809,5
33118,63807,5
33121,63813,5
33134,63830,4
33125,63839,5
33136,63860,5
33159,63875,5
33160,63883,5
33164,63894,4
33169,63898,5
33176,63904,5
33181,63909,5
33176,63908,5
33181,63920,4
33180,63915,5
33168,63896,5
33163,63886,5
33158,63866,4
33161,63867,5
33150,63855,4
33156,63854,5
33148,63850,5
33155,63849,6
33152,63867,3
33165,63868,5
33154,63875,5
33153,63862,5
33159,63865,4
33147,63861,5
33149,63868,5
33163,63871,5
33161,63870,5
33157,63870,4
33160,63875,5
33155,63868,5
33166,63876,5
33170,63880,5
33169,63881,4
33171,63888,5
33175,63882,5
33174,63890,5
33166,63892,5
33165,63890,4
33162,63884,6
33173,63891,4
33162,63893,5
33176,63894,4
33168,63905,6
33169,63907,3
33167,63908,5
33182,63907,5
33177,63909,4
33176,63901,5
33182,63897,5
33164,63901,5
33175,63892,5
33166,63880,4
33163,63886,5
33169,63889,5
33162,63883,5
33161,63892,5
33170,63898,4
33162,63897,5
33182,63921,5
33190,63934,5
33198,63942,5
33198,63936,4
33197,63940,5
33195,63944,6
33201,63956,4
33207,63963,5
33211,63969,4
33211,63979,5
33221,63991,5
33230,64003,5
33245,64022,4
33251,64033,5
33266,64065,5
33271,64065,5
33272,64073,5
33263,64074,4
33276,64080,5
33272,64084,5
33276,64075,5
33278,64092,5
33289,64090,4
33273,64079,5
33281,64080,5
33274,64079,5
33270,64068,5
33263,64063,4
33260,64053,5
33262,64056,5
33255,64051,6
33253,64041,4
33256,64049,4
33254,64058,5
33265,64064,5
33265,64070,5
33281,64092,4
33290,64099,4
33290,64109,5
33293,64116,5
33300,64121,5
33312,64140,4
33307,64142,5
33320,64161,5
33323,64176,5
33324,64170,5
33312,64154,4
33311,64135,5
33313,64139,5
33306,64135,5
33306,64129,5
33302,64127,5
33302,64132,4
33307,64127,5
33307,64134,5
33309,64130,6
33304,64128,3
33305,64120,5
33297,64119,5
33295,64140,5
33316,64156,5
33322,64152,4
33324,64174,5
33330,64183,5
33341,64184,5
33338,64183,4
33334,64192,5
33339,64194,5
33347,64199,5
33349,64214,5
33359,64231,4
33366,64231,5
33360,64233,5
33363,64230,6
33359,64238,4
33374,64247,4
33377,64250,6
33379,64252,4
33375,64259,5
33392,64267,5
33387,64272,4
33377,64276,5
33389,64279,5
33389,64288,5
33388,64289,5
33403,64305,4
33400,64309,5
33410,64310,5
33411,64326,5
33406,64317,4
33406,64328,4
33421,64329,5
33415,64340,5
33421,64345,5
33424,64349,4
33431,64352,5
33443,64378,5
33450,64387,5
33445,64397,5
33464,64406,4
33468,64433,5
33472,64439,6
33483,64457,4
33482,64465,5
33490,64475,4
33487,64472,5
33494,64478,5
33500,64491,5
33502,64496,5
33495,64495,4
33509,64498,5
33514,64515,5
33513,64500,5
33518,64508,5
33511,64507,4
33512,64498,5
33501,64480,5
33487,64465,5
33481,64455,4
33485,64445,5
33478,64452,5
33485,64450,5
33483,64458,5
33482,64477,4
33485,64453,5
33473,64448,5
33478,64454,6
33472,64451,4
33478,64450,4
33476,64450,5
33489,64464,5
33487,64475,5
33490,64473,5
33488,64468,4
33465,64443,5
33464,64431,5
33455,64422,5
33466,64425,5
33456,64420,4
33457,64420,5
33455,64420,5
33460,64411,5
33455,64398,5
33447,64387,4
33447,64367,5
33433,64368,5
33432,64349,5
33429,64355,5
33431,64357,4
33436,64365,5
33442,64372,5
33442,64377,5
33437,64372,4
33448,64393,5
33453,64387,5
33446,64392,5
33454,64388,5
33454,64386,4
33450,64402,5
33456,64403,5
33456,64392,5
33463,64402,5
33468,64403,4
33464,64409,5
33464,64408,5
33467,64412,5
33470,64424,5
33467,64425,4
33480,64414,5
33474,64417,5
33471,64417,5
33465,64408,4
33465,64407,5
33460,64411,4
33464,64409,5
33461,64407,5
33464,64402,4
33469,64402,5
33453,64402,5
33451,64401,5
33456,64393,5
33450,64394,4
33454,64407,5
33449,64395,5
33452,64390,5
33452,64397,5
33459,64401,4
33449,64399,5
33458,64398,5
33456,64407,5
33468,64409,5
33468,64412,4
33458,64416,5
33463,64417,5
33461,64421,5
33467,64425,5
33473,64422,4
33480,64428,6
33474,64427,4
33466,64431,5
33470,64427,4
33473,64424,5
33466,64426,5
33467,64422,5
33457,64408,5
33466,64404,4
33464,64405,5
33457,64407,5
33452,64402,5
33449,64409,5
33461,64402,4
33455,64410,5
33455,64412,5
33456,64419,5
33456,64414,5
33471,64417,4
33468,64428,5
33463,64431,5
33465,64418,5
33463,64402,5
33466,64407,4
33457,64399,5
33456,64383,6
33441,64385,4
33456,64370,4
33439,64378,4
33439,64366,5
33436,64369,5
33442,64368,5
33435,64357,4
33434,64370,5
33441,64366,5
33442,64369,5
33432,64362,5
33446,64373,4
33453,64368,5
33453,64385,5
33453,64391,5
33447,64386,5
33463,64399,4
33460,64393,5
33460,64408,5
33458,64423,5
33464,64419,5
33473,64416,4
33474,64419,5
33467,64428,5
33486,64423,5
33474,64426,5
33479,64447,4
33494,64460,5
33497,64468,5
33503,64474,5
33494,64473,4
33506,64485,4
33505,64496,5
33506,64507,5
33523,64513,5
33531,64526,4
33532,64535,5
33538,64544,5
33537,64550,5
33541,64551,5
33539,64561,4
33540,64573,5
33533,64564,5
33547,64572,5
33547,64576,5
33542,64586,5
33547,64582,4
33541,64584,5
33547,64577,5
33540,64566,5
33532,64551,4
33536,64548,5
33530,64565,5
33534,64552,5
33528,64558,5
33543,64576,4
33536,64569,5
33534,64575,5
33542,64590,5
33550,64586,4
33535,64578,5
33530,64574,5
33543,64580,5
33547,64591,5
33553,64608,4
33554,64606,5
33552,64607,5
33555,64594,5
33551,64601,5
33558,64608,4
33561,64611,6
33551,64613,3
33557,64633,5
33570,64635,5
33566,64624,4
33561,64624,5
33560,64625,5
33564,64627,5
33570,64624,5
33576,64634,4
33569,64627,5
33560,64617,5
33556,64621,5
33571,64629,4
33570,64619,4
33550,64595,5
33537,64573,5
33532,64557,5
33528,64555,4
33520,64555,5
33519,64539,5
33527,64557,6
33530,64576,4
33536,64575,4
33544,64580,5
33549,64578,5
33546,64587,5
33548,64577,5
33538,64555,4
33539,64560,5
33525,64551,5
33533,64564,5
33547,64559,5
33547,64566,4
33530,64568,5
33539,64564,5
33528,64555,5
33528,64549,5
33523,64543,4
33531,64548,5
33530,64548,5
33537,64558,5
33537,64548,5
33542,64555,4
33533,64547,5
33535,64545,5
33516,64532,6
33518,64540,3
33527,64537,5
33518,64535,5
33521,64523,5
33514,64519,5
33510,64510,4
33508,64500,5
33509,64511,5
33504,64506,5
33509,64509,5
33509,64499,4
33505,64498,5
33502,64491,5
33491,64479,5
33496,64477,5
33486,64471,4
33483,64467,5
33482,64451,5
33481,64459,5
33474,64458,5
33476,64446,5
33472,64439,4
33470,64435,5
33469,64433,5
33463,64423,6
33463,64425,3
33452,64419,5
33451,64410,5
33453,64401,5
33456,64405,4
33448,64391,5
33437,64381,5
33433,64379,5
33440,64371,5
33431,64361,4
33419,64357,5
33414,64348,5
33404,64329,5
33404,64320,5
33401,64318,4
33393,64304,5
33393,64305,5
33393,64304,5
33391,64306,5
33399,64312,4
33396,64305,6
33394,64313,4
33398,64320,5
33402,64327,4
33422,64328,4
33411,64339,5
33403,64326,5
33393,64299,5
33387,64287,4
33383,64281,5
33380,64270,5
33372,64249,5
33362,64254,5
33357,64236,4
33353,64237,5
33343,64215,5
33346,64223,5
33345,64216,5
33340,64214,4
33346,64216,5
33339,64214,5
33344,64219,5
33344,64215,5
33348,64216,4
33347,64217,5
33353,64216,6
33344,64204,4
33342,64213,5
33339,64206,4
33345,64211,5
33351,64209,5
33340,64209,5
33344,64204,4
33336,64206,5
33342,64210,5
33340,64208,5
33350,64214,5
33338,64206,4
33349,64220,5
33346,64225,5
33343,64218,5
33342,64222,5
33350,64213,4
33347,64210,5
33341,64216,5
33347,64218,5
33336,64214,5
33344,64212,4
33336,64209,5
33338,64212,5
33340,64199,6
33340,64204,4
33339,64213,4
33334,64197,5
33338,64204,5
33332,64203,5
33335,64198,4
33336,64194,4
33323,64190,5
33334,64187,5
33332,64191,5
33328,64181,4
33330,64183,5
33337,64194,5
33319,64188,5
33338,64194,5
33330,64197,4
33335,64191,5
33330,64199,5
33336,64201,5
33334,64207,5
33336,64199,5
33329,64201,4
33338,64198,5
33337,64209,5
33333,64212,6
33339,64213,3
33336,64214,5
33346,64215,5
33335,64216,5
33349,64207,5
33342,64219,4
33348,64212,5
33332,64217,5
33338,64210,5
33346,64218,4
33346,64214,4
33343,64213,5
33334,64205,5
33337,64204,5
33333,64201,4
33327,64191,5
33328,64178,5
33317,64176,5
33312,64161,5
33308,64142,4
33287,64124,6
33280,64102,4
33264,64084,5
33258,64082,5
33259,64076,4
33262,64079,5
33262,64083,5
33262,64084,5
33273,64099,5
33276,64115,7
33284,64130,2
33297,64136,5
33292,64139,5
33311,64155,5
33317,64183,4
33328,64178,5
33323,64184,5
33305,64154,5
33302,64142,4
33300,64144,5
33293,64136,5
33277,64113,5
33278,64108,5
33280,64102,4
33279,64096,5
33273,64096,6
33269,64097,4
33274,64086,5
33275,64094,4
33265,64094,5
33277,64090,5
33282,64087,5
33275,64096,5
33287,64090,4
33277,64091,5
33271,64081,5
33272,64077,5
33275,64079,5
33268,64092,4
33274,64091,5
33267,64084,5
33274,64080,5
33274,64085,4
33271,64076,4
33276,64087,5
33269,64084,5
33272,64081,5
33273,64089,4
33271,64080,5
33277,64080,5
33276,64085,6
33269,64085,4
33272,64085,4
33267,64080,5
33267,64078,5
33262,64080,5
33266,64085,5
33261,64073,4
33273,64081,5
33271,64079,5
33262,64079,5
33259,64072,5
33264,64078,4
33266,64067,5
33263,64069,5
33262,64072,5
33257,64068,5
33260,64063,4
33260,64052,5
33253,64067,5
33252,64057,5
33251,64062,5
33252,64055,4
33268,64075,5
33260,64063,5
33257,64061,5
33263,64068,4
33260,64071,5
33258,64082,5
33272,64075,5
33271,64088,5
33276,64081,4
33268,64097,5
33273,64094,5
33280,64092,5
33275,64098,5
33276,64102,4
33274,64096,5
33273,64101,5
33276,64101,5
33281,64097,5
33289,64107,4
33280,64103,5
33280,64106,5
33277,64106,5
33280,64104,5
33277,64092,5
33283,64106,4
33276,64098,5
33282,64102,5
33275,64104,4
33275,64104,5
33279,64095,5
33284,64103,5
33272,64101,5
33276,64099,4
33285,64101,5
33268,64094,5
33280,64092,5
33270,64090,5
33270,64080,4
33253,64067,5
33250,64051,5
33236,64033,5
33231,64021,5
33221,63999,4
33204,63983,5
33201,63966,5
33195,63952,5
33194,63952,5
33191,63952,4
33193,63960,6
33204,63965,4
33198,63979,5
33212,63987,4
33223,64001,4
33232,64023,5
33243,64041,5
33241,64048,5
33252,64063,4
33266,64075,5
33269,64085,5
33261,64077,5
33255,64066,5
33250,64049,4
33238,64043,5
33243,64034,5
33234,64012,5
33223,64011,5
33223,63994,4
33215,63994,5
33211,63987,5
33216,63986,5
33214,63991,5
33211,63990,4
33210,63981,5
33217,63983,5
33215,63989,5
33216,63989,5
33214,63990,4
33217,63983,5
33226,63992,5
33216,63986,5
33219,63996,4
33218,64001,4
33222,64002,5
33223,63990,5
33222,63994,5
33223,63989,4
33213,63991,5
33221,63990,5
33222,63991,5
33221,63987,5
33220,63983,4
33216,63986,4
33218,63985,5
33219,63994,5
33222,63994,6
33222,63987,3
33208,63997,5
33213,63988,5
33209,63986,5
33219,63988,5
33212,63983,4
33200,63989,5
33216,63980,5
33212,63988,5
33215,63984,5
33219,63969,4
33211,63972,5
33206,63979,5
33205,63973,5
33214,63973,4
33211,63974,5
33207,63966,5
33209,63959,5
33208,63969,5
33211,63972,4
33206,63974,6
33204,63980,4
33210,63977,5
33208,63980,5
33209,63996,6
33215,63991,3
33228,64008,5
33219,64001,5
33220,64002,5
33225,64001,4
33225,64010,5
33227,64004,5
33229,64012,5
33225,64020,5
33226,64016,4
33225,64022,5
33232,64022,5
33230,64019,5
33232,64016,4
33235,64024,4
33236,64036,5
33227,64023,5
33227,64024,5
33235,64021,4
33236,64018,5
33232,64020,6
33233,64030,4
33239,64019,5
33229,64015,4
33238,64014,5
33229,64021,5
33228,64020,5
33236,64017,5
33227,64019,4
33229,64015,5
33230,64012,5
33233,64021,5
33229,64016,5
33230,64006,4
33236,64006,5
33223,64012,5
33222,64012,5
33231,64018,5
33223,64007,4
33224,64013,5
33224,64011,5
33228,64008,5
33230,64014,4
33214,64004,5
33214,63993,5
33203,63981,6
33213,63971,4
33192,63957,4
33182,63944,5
33177,63924,5
33172,63925,5
33177,63916,5
33164,63911,4
33165,63902,5
33168,63920,5
33172,63925,5
33180,63937,5
33186,63954,4
33196,63959,5
33196,63971,5
33209,63990,5
33223,64007,5
33229,64016,4
33236,64030,5
33238,64035,5
33241,64040,5
33238,64031,5
33229,64016,4
33216,63990,5
33222,63982,5
33198,63962,6
33200,63960,3
33191,63946,5
33196,63945,5
33188,63949,5
33191,63944,5
33190,63956,4
33197,63954,5
33194,63949,5
33192,63951,5
33201,63951,5
33197,63962,4
33209,63964,5
33208,63975,5
33202,63977,5
33209,63969,5
33207,63975,4
33221,63979,5
33209,63969,5
33206,63975,5
33216,63985,5
33209,63978,5
33212,63986,4
33204,63978,5
33217,63985,5
33215,63982,6
33215,63988,3
33211,63976,5
33219,63998,5
33218,63995,5
33220,63994,4
33215,63984,5
33219,63998,5
33221,63994,5
33217,63984,5
33219,63984,4
33217,63977,5
33216,63983,5
33214,63985,5
33215,63984,5
33217,63992,4
33218,63995,5
33214,63985,5
33221,63986,5
33214,63979,5
33202,63982,4
33206,63980,6
33217,63989,4
33204,63986,5
33219,63992,5
33224,64006,4
33228,64013,5
33234,64020,5
33244,64026,5
33241,64036,4
33246,64043,5
33236,64046,5
33254,64057,5
33252,64060,5
33260,64062,4
33265,64077,5
33272,64078,5
33273,64096,5
33281,64099,5
33297,64099,4
33280,64111,5
33283,64111,5
33278,64119,5
33299,64118,5
33293,64115,4
33291,64122,5
33303,64130,6
33298,64118,4
33294,64133,5
33292,64125,4
33300,64122,5
33282,64116,5
33285,64121,5
33277,64112,4
33286,64108,4
33277,64096,5
33279,64087,5
33264,64077,5
33268,64077,4
33261,64075,5
33261,64082,5
33267,64084,5
33278,64090,5
33275,64100,4
33278,64109,5
33282,64120,5
33291,64127,5
33298,64140,5
33302,64155,4
33301,64156,5
33311,64167,5
33312,64171,6
33306,64132,4
33292,64129,4
33289,64127,5
33281,64122,5
33284,64106,5
33272,64095,5
33280,64103,4
33277,64101,5
33274,64102,5
33275,64109,5
33274,64102,4
33279,64106,5
33281,64104,5
33284,64110,5
33283,64121,5
33285,64110,4
33293,64126,5
33299,64136,5
33302,64135,5
33301,64135,5
33297,64138,5
33304,64139,4
33305,64141,5
33306,64145,5
33309,64147,5
33316,64139,4
33297,64149,5
33299,64155,5
33309,64154,5
33312,64156,5
33311,64155,4
33315,64155,5
33324,64151,5
33307,64158,5
33309,64151,4
33312,64164,5
33311,64157,5
33314,64157,5
33309,64159,5
33312,64163,4
33310,64159,5
33312,64149,5
33306,64151,5
33301,64151,5
33302,64143,4
33310,64146,6
33294,64140,4
33298,64144,5
33298,64144,5
33309,64142,4
33310,64161,5
33310,64154,5
33313,64163,5
33316,64171,5
33319,64166,4
33330,64188,5
33323,64195,5
33331,64198,5
33331,64206,4
33341,64215,4
33348,64229,5
33352,64228,5
33360,64236,5
33356,64237,4
33355,64245,5
33358,64250,5
33367,64264,10
33367,64264,4
33369,64267,5
33365,64261,6
33364,64264,4
33360,64265,5
33370,64261,4
33363,64258,5
33354,64247,5
33355,64243,5
33350,64239,5
33355,64238,4
33347,64237,5
33349,64234,5
33352,64229,5
33351,64235,5
33356,64240,4
33353,64248,5
33360,64256,5
33364,64266,5
33368,64260,4
33378,64287,5
33379,64286,5
33387,64297,5
33393,64310,5
33392,64294,4
33377,64277,5
33360,64270,5
33371,64264,5
33364,64248,5
33359,64252,4
33352,64241,5
33362,64249,5
33359,64245,5
33366,64242,5
33347,64251,4
33353,64238,5
33358,64239,5
33361,64244,5
33372,64257,5
33370,64262,4
33370,64260,5
33378,64277,5
33379,64281,5
33374,64280,4
33384,64284,4
33374,64278,5
33394,64279,5
33388,64284,5
33385,64280,5
33381,64299,4
33392,64297,5
33391,64294,5
33388,64289,5
33386,64286,4
33390,64303,5
33399,64311,5
33391,64318,5
33393,64306,5
33402,64307,4
33390,64310,5
33395,64300,5
33392,64314,5
33393,64311,5
33403,64306,4
33396,64316,5
33400,64319,5
33395,64309,5
33398,64314,5
33393,64315,4
33389,64304,5
33397,64311,5
33402,64303,5
33388,64301,4
33393,64320,5
33391,64311,4
33387,64316,5
33390,64313,5
33416,64319,4
33402,64343,5
33403,64338,5
33415,64343,5
33418,64350,5
33423,64357,4
33417,64357,5
33429,64366,5
33432,64383,5
33439,64388,5
33433,64400,4
33441,64394,5
33453,64397,5
33450,64401,5
33446,64413,5
33448,64419,4
33450,64417,5
33457,64420,6
33455,64430,4
33462,64438,5
33465,64440,4
33465,64440,5
33463,64446,5
33469,64443,5
33478,64448,4
33468,64453,5
33470,64457,5
33474,64467,5
33484,64475,5
33484,64477,4
33490,64488,5
33497,64494,5
33502,64499,5
33513,64520,5
33520,64547,4
33521,64568,5
33530,64555,5
33524,64542,5
33528,64541,5
33526,64537,4
33520,64540,5
33515,64528,5
33521,64531,6
33513,64535,4
33513,64540,4
33522,64532,5
33518,64535,5
33527,64543,5
33534,64548,5
33525,64552,4
33533,64550,5
33531,64555,5
33535,64573,5
33547,64585,4
33545,64594,5
33561,64618,5
33564,64626,5
33575,64640,5
33578,64637,4
33575,64647,5
33583,64646,5
33582,64650,5
33589,64660,5
33584,64657,5
33589,64654,4
33590,64653,5
33586,64671,5
33598,64675,6
33596,64688,3
33606,64688,5
33603,64696,5
33609,64700,5
33607,64700,5
33610,64690,4
33602,64695,5
33604,64684,5
33607,64698,5
33601,64691,4
33602,64681,4
33602,64675,5
33594,64677,5
33598,64672,5
33584,64665,4
33584,64659,5
33575,64645,5
33564,64637,5
33569,64622,5
33559,64623,4
33563,64608,6
33549,64602,4
33551,64599,5
33550,64582,5
33554,64593,6
33542,64583,3
33545,64589,5
33544,64584,5
33541,64585,5
33541,64583,4
33530,64584,5
33529,64568,5
33532,64567,5
33529,64557,5
33511,64553,4
33514,64541,5
33519,64535,5
33510,64513,5
33493,64510,4
33496,64502,4
33485,64485,5
33478,64476,5
33470,64458,5
33469,64453,4
33469,64453,5
33467,64449,6
33472,64442,4
33458,64435,5
33463,64441,4
33457,64453,5
33476,64450,5
33474,64455,5
33474,64462,5
33459,64442,4
33457,64421,5
33450,64425,5
33446,64410,5
33431,64396,5
33434,64383,4
33426,64374,5
33424,64378,5
33426,64368,5
33420,64365,5
33414,64363,4
33420,64359,5
33418,64364,5
33418,64355,5
33408,64361,4
33408,64363,4
33419,64361,5
33414,64352,6
33420,64364,4
33413,64360,4
33412,64361,5
33414,64367,5
33415,64362,5
33419,64360,5
33414,64358,4
33415,64367,5
33417,64355,5
33407,64354,5
33405,64363,5
33409,64359,4
33417,64360,5
33413,64362,5
33423,64351,5
33418,64362,5
33415,64346,4
33415,64355,5
33412,64351,5
33409,64355,5
33417,64351,5
33418,64345,4
33405,64355,5
33411,64344,5
33409,64340,6
33408,64349,3
33406,64343,5
33412,64333,5
33404,64340,5
33397,64328,5
33397,64330,4
33395,64324,5
33393,64312,5
33387,64318,5
33391,64313,5
33384,64313,4
33390,64311,5
33382,64320,5
33388,64315,5
33397,64320,5
33383,64322,4
33387,64312,5
33390,64315,5
33396,64315,5
33388,64317,5
33384,64314,5
33394,64310,4
33387,64315,5
33379,64301,5
33386,64298,5
33375,64301,4
33382,64299,5
33363,64279,5
33364,64270,5
33355,64259,4
33353,64252,5
33351,64249,5
33347,64250,5
33352,64255,5
33353,64243,4
33350,64257,5
33353,64263,5
33358,64270,5
33369,64283,5
33368,64278,4
33368,64293,5
33372,64282,5
33363,64268,5
33359,64255,5
33357,64260,4
33355,64243,6
33350,64224,4
33343,64214,5
33334,64209,5
33335,64212,4
33326,64210,5
33328,64209,5
33328,64200,5
33335,64208,4
33318,64198,4
33318,64202,5
33320,64201,5
33326,64203,5
33328,64199,4
33326,64198,5
33328,64193,5
33324,64203,5
33329,64196,5
33330,64197,4
33323,64203,5
33316,64193,5
33322,64205,5
33331,64197,5
33326,64200,4
33330,64196,5
33323,64195,6
33325,64210,4
33320,64195,5
33336,64207,4
33327,64214,5
33330,64208,5
33334,64204,5
33334,64210,5
33333,64210,4
33334,64208,5
33331,64214,5
33335,64223,5
33333,64215,4
33333,64218,4
33340,64215,5
33336,64222,5
33336,64216,5
33320,64219,4
33332,64214,5
33323,64213,5
33333,64205,5
33324,64195,5
33318,64210,4
33328,64195,5
33323,64204,5
33322,64203,5
33323,64197,5
33323,64198,4
33321,64212,5
33347,64201,5
33325,64204,5
33336,64207,5
33332,64217,4
33352,64220,5
33344,64229,5
33337,64235,5
33336,64227,5
33349,64236,4
33344,64236,5
33350,64229,5
33347,64237,5
33354,64241,4
33351,64249,5
33349,64252,5
33358,64250,5
33352,64247,5
33362,64258,5
33350,64245,4
33357,64247,5
33352,64240,5
33340,64241,5
33333,64231,4
33333,64207,5
33318,64189,5
33312,64171,5
33293,64156,5
33289,64146,4
33278,64128,5
33278,64123,5
33280,64128,5
33277,64137,5
33293,64142,4
33294,64148,5
33292,64155,5
33302,64169,5
33302,64181,5
33315,64188,4
33318,64202,5
33327,64213,5
33341,64233,5
33335,64222,4
33318,64205,6
33312,64180,4
33311,64182,5
33311,64172,5
33304,64159,4
33295,64150,5
33289,64140,5
33303,64139,5
33287,64135,5
33292,64130,4
33287,64135,5
33277,64125,5
33281,64135,5
33281,64121,5
33278,64121,4
33285,64124,5
33288,64125,5
33284,64119,5
33286,64116,5
33284,64114,4
33271,64112,5
33284,64114,5
33274,64114,5
33282,64113,4
33273,64111,4
33279,64110,6
33265,64101,4
33276,64104,5
33266,64099,4
33276,64102,5
33269,64092,5
33260,64104,5
33269,64106,5
33271,64114,4
33270,64107,8
33277,64105,2
33272,64097,5
33267,64105,5
33268,64106,4
33275,64106,5
33274,64102,5
33275,64094,5
33268,64101,5
33268,64094,4
33269,64096,5
33269,64105,5
33259,64088,6
33260,64093,4
33265,64081,4
33261,64088,5
33261,64083,5
33258,64083,5
33257,64084,4
33258,64085,4
33259,64085,5
33262,64076,5
33263,64084,5
33259,64084,4
33265,64095,5
33264,64095,5
33263,64091,5
33276,64098,5
33268,64103,4
33266,64106,5
33269,64100,5
33266,64100,5
33277,64117,5
33277,64112,5
33275,64121,4
33283,64117,5
33285,64124,5
33282,64130,6
33292,64121,3
33284,64130,5
33288,64126,5
33282,64123,5
33293,64129,5
33283,64132,4
33286,64127,5
33282,64123,5
33279,64114,5
33276,64102,4
33278,64100,5
33254,64091,5
33246,64080,5
33239,64057,5
33241,64045,4
33219,64031,5
33214,64005,5
33207,63997,5
33202,63994,5
33208,63985,4
33205,63997,6
33216,64010,4
33213,64012,5
33223,64032,5
33225,64041,6
33241,64065,3
33246,64069,5
33262,64086,5
33268,64093,5
33271,64108,4
33268,64114,5
33285,64108,5
33270,64099,5
33262,64089,4
33256,64064,4
33257,64058,5
33234,64042,5
33232,64038,5
33232,64034,4
33232,64027,5
33223,64017,5
33225,64018,5
33223,64016,5
33217,64011,4
33226,64016,5
33220,64022,6
33223,64011,4
33227,64002,5
33218,64014,4
33216,64012,5
33226,64016,5
33223,64005,5
33215,64015,5
33224,64008,4
33213,64006,5
33222,64006,5
33225,64014,5
33221,64012,5
33211,64005,4
33224,64012,5
33222,64009,5
33216,64011,5
33213,63998,4
33223,64019,4
33223,64011,5
33224,64010,5
33222,64004,5
33214,64010,4
33214,64009,5
33218,64002,5
33221,64001,6
33220,64017,4
33223,64013,4
33216,64014,5
33221,64006,5
33217,64004,5
33214,63999,5
33212,63998,4
33215,63998,5
33205,63991,5
33205,63991,5
33207,63985,5
33203,63985,4
33208,63993,5
33207,63985,5
33207,63988,5
33210,63987,5
33208,63994,4
33203,63999,5
33212,63993,5
33211,64002,5
33206,64002,5
33217,64008,4
33214,64012,5
33224,64019,5
33215,64011,6
33221,64021,3
33224,64017,5
33221,64026,5
33233,64028,5
33229,64035,5
33236,64035,4
33227,64036,5
33234,64040,5
33225,64044,5
33238,64035,5
33238,64040,4
33238,64037,5
33235,64037,5
33240,64038,5
33236,64041,5
33236,64034,4
33235,64034,5
33229,64041,5
33224,64037,5
33234,64036,4
33223,64031,5
33230,64029,4
33225,64030,5
33222,64033,5
33225,64024,4
33228,64025,5
33219,64015,5
33219,64016,5
33219,64001,5
33212,63997,4
33198,63978,5
33191,63968,5
33175,63936,5
33174,63921,5
33162,63906,4
33152,63893,5
33148,63896,5
33148,63890,5
33143,63893,5
33146,63896,4
33153,63904,5
33164,63917,5
33166,63925,5
33169,63948,5
33182,63962,4
33189,63979,6
33204,63986,4
33209,64006,5
33220,64009,4
33218,64022,4
33220,64014,5
33214,63995,5
33205,63980,5
33195,63970,4
33190,63945,5
33184,63949,5
33175,63936,5
33182,63939,5
33171,63935,4
33177,63935,5
33174,63928,5
33175,63929,5
33166,63930,5
33172,63940,4
33187,63937,5
33172,63936,5
33181,63940,5
33178,63944,5
33184,63943,4
33188,63948,5
33186,63952,6
33182,63949,4
33177,63942,5
33178,63959,4
33182,63952,5
33182,63954,5
33178,63944,5
33188,63952,4
33188,63948,4
33184,63955,5
33187,63952,5
33191,63958,5
33189,63951,4
33191,63953,5
33204,63954,5
33190,63965,5
33191,63959,5
33186,63951,4
33198,63952,5
33184,63956,5
33192,63958,5
33191,63964,5
33198,63957,4
33193,63963,5
33188,63954,5
33188,63962,6
33191,63961,4
33189,63959,4
33190,63967,5
33184,63954,5
33192,63946,5
33196,63961,5
33191,63973,4
33189,63965,5
33195,63961,5
33197,63981,5
33196,63990,4
33212,64001,5
33213,63993,5
33213,63996,5
33211,64000,5
33214,64013,4
33222,64020,5
33229,64025,5
33229,64022,5
33235,64034,5
33234,64048,5
33232,64044,4
33229,64039,5
33234,64051,5
33240,64058,5
33235,64057,4
33246,64054,5
33244,64050,5
33246,64070,5
33249,64062,5
33245,64061,4
33246,64063,5
33244,64059,5
33242,64066,5
33243,64063,4
33253,64059,4
33252,64067,5
33250,64056,5
33245,64049,5
33231,64039,4
33229,64031,5
33239,64021,5
33216,64017,5
33218,64011,5
33213,64015,4
33216,64009,6
33208,64013,4
33217,64009,5
33227,64018,5
33226,64032,4
33235,64051,5
33250,64056,5
33253,64075,5
33248,64076,5
33259,64091,4
33264,64110,5
33279,64112,5
33282,64130,5
33281,64128,5
33278,64110,4
33273,64097,5
33265,64091,5
33255,64070,5
33252,64063,4
33260,64068,4
33255,64066,5
33252,64065,5
33247,64061,5
33252,64064,4
33245,64072,5
33251,64063,6
33252,64060,4
33252,64066,5
33253,64067,4
33254,64069,5
33253,64084,5
33262,64077,5
33257,64089,5
33265,64093,4
33268,64092,5
33271,64086,5
33266,64093,5
33265,64094,5
33279,64090,4
33267,64099,5
33272,64108,5
33270,64102,5
33275,64098,5
33267,64110,4
33276,64105,5
33279,64113,5
33277,64111,5
33278,64111,4
33281,64120,5
33288,64116,5
33277,64124,5
33288,64119,5
33281,64120,4
33284,64122,5
33289,64127,5
33289,64124,5
33284,64128,5
33290,64127,4
33284,64123,5
33284,64123,5
33291,64136,5
33286,64131,5
33288,64145,4
33289,64144,5
33293,64151,5
33302,64154,5
33316,64167,5
33306,64179,4
33313,64184,5
33325,64194,5
33326,64203,5
33325,64200,5
33331,64209,4
33344,64229,5
33349,64236,5
33353,64246,5
33352,64258,4
33367,64267,5
33366,64278,5
33387,64295,5
33373,64299,5
33378,64312,4
33387,64321,5
33400,64322,5
33395,64329,5
33401,64337,5
33409,64335,4
33408,64348,5
33421,64349,5
33420,64359,5
33420,64360,5
33424,64369,4
33432,64362,6
33417,64365,4
33428,64367,5
33418,64355,5
33418,64370,6
33422,64373,3
33426,64388,5
33427,64385,5
33438,64403,4
33451,64428,4
33461,64455,5
33477,64471,5
33474,64468,5
33472,64463,4
33480,64480,5
33474,64480,5
33494,64504,5
33511,64524,5
33503,64528,4
33510,64523,5
33502,64514,5
33499,64523,5
33488,64508,5
33494,64510,4
33490,64494,5
33487,64493,6
33482,64470,4
33461,64457,5
33460,64454,4
33465,64463,5
33465,64459,5
33472,64477,5
33487,64510,5
33496,64524,4
33518,64553,5
33518,64560,5
33526,64559,5
33517,64545,4
33519,64537,4
33504,64520,5
33502,64523,5
33505,64525,5
33504,64529,4
33505,64535,5
33503,64552,5
33515,64554,5
33522,64562,5
33515,64562,4
33524,64563,5
33540,64586,5
33533,64590,11
33539,64603,3
33551,64604,5
33545,64613,5
33541,64598,5
33545,64599,5
33538,64599,4
33547,64613,5
33546,64617,5
33560,64641,5
33560,64635,5
33556,64636,4
33556,64638,5
33559,64633,5
33560,64633,5
33556,64637,4
33555,64640,5
33559,64641,5
33564,64642,5
33566,64634,5
33567,64639,5
33569,64655,4
33578,64670,5
33569,64670,5
33577,64673,6
33595,64686,3
33596,64693,5
33597,64700,5
33594,64693,5
33593,64698,5
33600,64705,4
33596,64701,5
33596,64720,5
33609,64736,5
33620,64733,5
33622,64756,4
33620,64745,5
33614,64740,5
33619,64745,5
33634,64753,4
33630,64763,4
33635,64765,5
33630,64762,5
33628,64751,5
33625,64749,4
33621,64757,6
33624,64754,4
33633,64769,5
33635,64775,5
33641,64778,6
33640,64794,3
33643,64797,5
33650,64823,5
33664,64824,5
33672,64840,4
33669,64847,5
33675,64858,5
33687,64857,5
33686,64862,5
33668,64840,4
33659,64830,5
33662,64817,5
33665,64818,5
33663,64810,5
33655,64821,4
33665,64818,5
33658,64815,5
33659,64822,5
33657,64811,4
33650,64810,4
33652,64802,6
33644,64782,4
33641,64782,5
33639,64779,4
33641,64791,5
33635,64797,5
33654,64794,5
33650,64809,5
33659,64814,4
33660,64816,5
33664,64826,5
33664,64828,5
33653,64824,5
33650,64812,4
33647,64810,5
33646,64801,5
33648,64797,5
33647,64799,5
33649,64800,4
33650,64806,5
33651,64798,5
33645,64796,5
33655,64801,5
33636,64786,4
33637,64761,5
33632,64746,6
33620,64746,4
33617,64739,4
33619,64748,4
33619,64740,5
33608,64721,5
33596,64727,5
33608,64726,4
33596,64707,5
33599,64708,5
33595,64701,5
33591,64699,5
33589,64692,4
33591,64680,5
33575,64684,5
33577,64684,5
33582,64669,5
33579,64685,4
33586,64677,5
33582,64676,5
33587,64673,5
33582,64683,5
33583,64677,4
33581,64682,5
33586,64687,5
33590,64689,6
33601,64701,4
33594,64695,4
33587,64691,5
33593,64683,5
33595,64693,5
33583,64681,4
33584,64678,4
33579,64662,5
33571,64655,5
33557,64644,5
33557,64636,4
33540,64627,5
33547,64600,5
33544,64603,5
33539,64591,5
33533,64580,4
33530,64585,5
33526,64574,5
33516,64577,5
33521,64582,5
33531,64579,5
33532,64590,4
33536,64591,5
33537,64590,5
33530,64573,5
33516,64553,4
33509,64538,5
33504,64539,5
33490,64517,5
33483,64504,5
33482,64492,4
33478,64480,5
33472,64471,5
33463,64472,5
33472,64469,4
33468,64465,5
33459,64461,5
33467,64465,5
33468,64462,5
33462,64458,4
33462,64469,5
33467,64464,5
33466,64459,5
33457,64457,5
33467,64458,4
33469,64456,6
33463,64452,4
33457,64444,5
33458,64453,5
33459,64454,4
33457,64447,5
33459,64452,5
33457,64452,5
33458,64454,5
33456,64460,4
33458,64450,5
33463,64460,5
33459,64456,5
33464,64453,4
33457,64441,4
33452,64448,5
33454,64440,5
33448,64437,5
33455,64446,4
33457,64443,5
33450,64444,5
33455,64443,5
33444,64442,5
33453,64447,4
33445,64438,5
33448,64435,6
33437,64434,4
33446,64422,5
33429,64423,4
33429,64417,5
33436,64421,5
33434,64423,5
33437,64418,5
33437,64433,4
33447,64425,5
33447,64444,5
33448,64446,5
33459,64450,5
33463,64463,4
33459,64469,5
33466,64466,5
33468,64471,5
33472,64473,4
33477,64488,4
33486,64499,5
33493,64516,5
33497,64524,5
33498,64525,4
33501,64529,5
33492,64519,5
33485,64507,5
33480,64516,5
33481,64512,4
33483,64496,5
33464,64495,5
33453,64463,5
33446,64438,5
33438,64432,4
33433,64427,5
33423,64409,5
33415,64391,5
33394,64355,5
33355,64318,4
33343,64281,5
33323,64263,5
33329,64250,5
33322,64255,5
33322,64239,4
33315,64238,5
33320,64242,5
33321,64245,5
33319,64242,5
33330,64276,4
33353,64295,5
33355,64323,5
33376,64356,5
33392,64359,4
33392,64376,5
33411,64385,5
33390,64378,5
33388,64369,5
33381,64341,4
33367,64309,5
33360,64294,5
33364,64312,5
33357,64309,5
33353,64299,4
33347,64274,5
33328,64260,5
33326,64249,5
33328,64249,5
33336,64264,4
33339,64278,5
33348,64266,5
33339,64247,5
33322,64231,5
33307,64208,5
33311,64214,4
33328,64222,5
33336,64254,5
33337,64254,4
33331,64251,4
33343,64254,5
33331,64247,5
33331,64232,5
33326,64231,4
33321,64236,5
33325,64219,5
33307,64198,5
33301,64185,5
33297,64193,4
33303,64199,5
33314,64215,5
33326,64220,5
33324,64215,5
33316,64199,4
33289,64172,5
33274,64139,5
33276,64128,4
33280,64147,5
33296,64169,4
33288,64146,7
33270,64133,3
33262,64115,5
33257,64115,5
33268,64121,4
33268,64130,5
33275,64122,5
33267,64109,5
33257,64114,4
33252,64108,4
33263,64111,5
33273,64127,5
33294,64145,5
33292,64158,4
33297,64163,5
33295,64174,5
33286,64159,5
33294,64155,5
33287,64157,4
33279,64153,5
33284,64168,5
33294,64177,6
33304,64181,4
33309,64190,4
33302,64188,5
33310,64197,5
33311,64194,5
33304,64191,5
33302,64193,4
33310,64191,5
33312,64197,5
33317,64206,5
33316,64206,5
33317,64196,4
33308,64199,5
33299,64193,5
33307,64184,5
33296,64184,4
33288,64172,5
33289,64170,5
33293,64186,5
33295,64185,5
33300,64200,5
33317,64219,4
33327,64222,5
33327,64240,5
33326,64251,6
33339,64257,3
33341,64279,5
33361,64287,5
33358,64290,5
33361,64283,5
33358,64273,4
33333,64245,5
33334,64236,5
33319,64214,5
33313,64199,5
33298,64197,4
33302,64183,5
33305,64179,5
33296,64177,5
33285,64178,4
33297,64171,4
33279,64165,5
33280,64161,5
33288,64155,5
33288,64148,4
33283,64148,6
33280,64155,4
33282,64156,5
33276,64159,5
33283,64159,6
33277,64151,3
33281,64152,5
33286,64160,5
33280,64159,5
33279,64153,4
33276,64141,5
33276,64150,5
33277,64155,5
33276,64152,5
33275,64145,4
33282,64155,5
33287,64145,5
33277,64161,5
33273,64154,5
33279,64148,4
33281,64147,5
33282,64150,5
33279,64143,5
33273,64149,4
33280,64142,4
33274,64140,6
33269,64139,4
33267,64143,5
33267,64141,4
33275,64138,5
33264,64140,5
33274,64131,5
33270,64131,5
33267,64130,4
33269,64121,5
33272,64121,5
33266,64118,5
33259,64115,5
33258,64121,4
33268,64118,5
33255,64121,5
33265,64127,5
33271,64131,5
33272,64124,4
33262,64139,5
33271,64144,5
33282,64140,5
33285,64147,5
33278,64155,4
33278,64148,5
33279,64153,6
33291,64148,4
33274,64151,4
33278,64153,4
33282,64159,5
33287,64155,5
33285,64159,5
33291,64168,4
33285,64162,5
33295,64160,5
33293,64166,5
33285,64166,5
33289,64164,4
33281,64160,9
33291,64165,1
33285,64164,5
33273,64157,5
33272,64146,4
33273,64140,5
33270,64121,5
33250,64112,5
33246,64102,5
33226,64072,4
33221,64044,5
33210,64030,5
33203,64021,5
33192,63999,5
33190,63994,4
33192,64004,5
33196,64005,5
33197,64012,5
33198,64025,4
33213,64036,5
33217,64053,5
33228,64061,5
33230,64076,5
33242,64096,4
33247,64097,5
33255,64115,5
33261,64120,5
33254,64111,5
33248,64087,4
33242,64081,5
33228,64056,5
33222,64059,5
33219,64040,5
33210,64028,5
33210,64031,4
33212,64021,5
33220,64026,5
33206,64021,5
33199,64007,4
33206,64011,5
33195,64006,5
33203,64003,5
33198,64003,4
33199,64005,4
33202,64012,5
33205,64010,5
33206,64008,5
33200,64015,4
33197,64019,5
33206,64012,5
33197,64011,5
33205,64014,5
33204,64010,4
33206,64009,5
33203,64005,5
33203,64001,5
33202,64008,5
33195,64007,4
33190,64002,6
33193,64003,4
33201,64016,5
33206,63998,5
33196,64006,4
33202,64001,5
33193,64003,5
33195,64003,5
33203,63997,5
33188,63997,4
33195,64005,5
33194,63998,5
33192,64003,5
33199,63998,4
33197,64001,4
33195,63992,5
33187,63996,5
33192,63991,5
33180,63989,4
33185,63979,5
33189,63982,5
33179,63985,5
33184,63985,5
33184,63988,4
33187,63986,5
33182,63999,6
33186,63994,4
33195,64001,5
33186,64007,4
33193,64002,5
33196,64006,5
33201,64015,5
33193,64016,5
33200,64022,4
33208,64017,5
33211,64024,5
33213,64020,5
33212,64028,5
33210,64028,4
33213,64024,5
33209,64021,5
33213,64026,5
33213,64019,4
33199,64033,4
33204,64029,5
33201,64030,5
33203,64036,5
33207,64029,4
33203,64030,5
33212,64023,5
33199,64013,6
33196,64013,4
33208,64018,4
33205,64018,5
33201,64007,5
33200,64023,5
33202,64015,5
33198,64020,4
33198,64009,5
33201,64010,5
33194,64015,5
33190,64009,5
33197,63995,4
33200,63994,5
33192,63982,5
33176,63970,5
33172,63946,5
33173,63934,4
33136,63931,5
33137,63901,5
33132,63887,5
33126,63891,5
33122,63885,4
33130,63884,5
33134,63893,5
33125,63904,5
33139,63912,4
33139,63924,5
33150,63942,5
33167,63954,5
33180,63968,5
33189,63991,4
33193,64007,5
33198,64009,5
33203,64029,5
33215,64036,5
33208,64023,4
33193,64000,5
33192,63993,5
33186,63981,5
33179,63964,5
33173,63963,4
33164,63954,5
33162,63949,5
33167,63945,5
33168,63947,5
33166,63935,5
33165,63944,4
33166,63950,5
33165,63958,5
33173,63954,4
33168,63953,5
33166,63954,5
33174,63963,5
33172,63955,5
33172,63962,4
33177,63958,5
33172,63964,5
33174,63960,5
33166,63961,5
33179,63969,4
33176,63964,5
33167,63969,5
33178,63963,5
33184,63966,5
33180,63970,4
33169,63968,5
33178,63970,5
33177,63971,5
33181,63968,5
33183,63987,4
33187,63978,6
33185,63981,4
33176,63981,5
33184,63967,4
33182,63975,4
33186,63980,5
33182,63971,5
33185,63975,5
33179,63970,4
33181,63976,5
33175,63971,5
33176,63971,5
33183,63970,5
33184,63964,4
33180,63968,5
33174,63967,5
33178,63964,5
33186,63974,5
33187,63975,4
33172,63979,5
33183,63979,5
33192,63989,5
33193,64003,5
33198,64002,4
33190,64016,5
33200,64028,5
33215,64036,5
33215,64037,5
33220,64041,4
33216,64044,5
33232,64045,5
33229,64054,5
33233,64060,4
33238,64072,4
33242,64082,5
33235,64084,5
33249,64098,5
33252,64093,4
33243,64086,5
33252,64095,5
33249,64106,5
33248,64101,5
33254,64109,5
33258,64105,4
33264,64124,5
33263,64120,5
33267,64133,6
33264,64132,3
33261,64137,5
33255,64120,5
33259,64122,5
33257,64128,5
33267,64123,4
33263,64126,5
33253,64122,5
33257,64120,5
33255,64122,5
33260,64141,4
33274,64142,5
33281,64161,5
33288,64183,5
33296,64189,4
33308,64204,5
33320,64229,5
33334,64253,5
33333,64263,5
33353,64274,4
33354,64298,6
33367,64295,4
33354,64278,5
33351,64277,5
33350,64279,6
33355,64279,3
33356,64287,5
33354,64291,5
33356,64295,5
33358,64309,4
33375,64318,5
33375,64317,5
33372,64329,5
33386,64342,5
33396,64343,4
33396,64363,5
33409,64380,5
33413,64387,5
33423,64405,5
33428,64412,4
33444,64433,5
33440,64441,5
33448,64431,5
33438,64435,4
33450,64440,5
33441,64441,6
33440,64446,4
33445,64451,5
33459,64474,4
33475,64490,5
33487,64495,5
33488,64520,5
33490,64537,5
33502,64548,4
33506,64570,5
33511,64571,5
33514,64577,5
33526,64592,5
33533,64601,4
33535,64606,5
33537,64611,5
33547,64618,5
33539,64618,5
33542,64626,4
33556,64630,5
33549,64630,5
33549,64651,5
33559,64652,4
33559,64660,4
33562,64668,5
33555,64664,6
33566,64674,4
33569,64700,4
33578,64707,5
33584,64729,5
33607,64749,5
33635,64793,5
33633,64807,4
33649,64821,5
33643,64830,5
33649,64834,5
33646,64828,5
33646,64826,4
33646,64819,5
33649,64823,5
33639,64822,5
33635,64817,5
33641,64815,4
33637,64814,5
33657,64827,5
33641,64826,5
33643,64813,5
33638,64816,4
33624,64803,5
33630,64791,5
33620,64781,6
33615,64772,3
33615,64769,4
33612,64747,5
33599,64742,5
33590,64730,5
33583,64709,4
33581,64707,5
33562,64698,5
33555,64670,5
33548,64674,5
33543,64665,4
33541,64672,5
33555,64680,5
33571,64695,5
33574,64709,5
33566,64695,4
33573,64699,5
33571,64718,5
33580,64723,5
33584,64728,5
33597,64735,5
33585,64727,4
33575,64700,5
33568,64696,5
33567,64687,6
33553,64665,3
33555,64661,5
33542,64660,5
33544,64663,5
33545,64655,4
33546,64655,5
33551,64668,5
33554,64665,5
33553,64666,5
33544,64659,4
33540,64651,5
33538,64642,5
33549,64641,5
33550,64641,5
33548,64654,4
33552,64648,5
33555,64661,5
33556,64661,5
33559,64659,5
33562,64667,4
33576,64676,6
33565,64688,4
33561,64682,5
33572,64693,5
33578,64701,4
33580,64700,5
33577,64706,5
33590,64714,5
33594,64726,5
33595,64729,4
33599,64730,5
33612,64750,5
33617,64757,5
33604,64750,4
33610,64751,5
33615,64741,5
33612,64754,5
33606,64748,5
33617,64747,4
33599,64738,5
33598,64741,5
33601,64734,5
33592,64736,5
33600,64725,4
33592,64729,5
33595,64726,6
33589,64728,4
33606,64732,5
33605,64740,4
33597,64735,5
33602,64751,5
33610,64750,5
33611,64756,5
33618,64760,4
33629,64775,5
33636,64778,5
33624,64791,5
33632,64799,4
33636,64795,4
33636,64796,5
33627,64800,5
33633,64793,5
33631,64792,4
33624,64801,5
33628,64785,5
33627,64779,5
33627,64786,5
33636,64786,4
33620,64767,5
33617,64770,5
33611,64752,11
33613,64752,3
33614,64751,5
33608,64742,5
33595,64738,5
33593,64730,5
33601,64734,4
33595,64712,5
33589,64711,5
33591,64723,5
33584,64719,5
33580,64712,4
33580,64706,5
33584,64713,5
33578,64706,5
33586,64709,4
33582,64724,4
33571,64697,5
33560,64663,5
33554,64660,5
33542,64638,5
33539,64633,4
33537,64622,5
33529,64624,5
33529,64608,5
33519,64604,4
33521,64602,5
33517,64592,5
33518,64594,5
33519,64596,5
33520,64596,4
33511,64582,5
33516,64585,5
33509,64589,5
33519,64584,5
33510,64581,4
33509,64579,5
33516,64584,5
33508,64575,5
33513,64578,5
33512,64578,4
33507,64573,5
33506,64562,5
33504,64566,5
33509,64564,4
33505,64558,5
33496,64563,4
33513,64568,5
33509,64573,5
33508,64566,4
33503,64570,5
33501,64566,5
33497,64564,5
33499,64569,5
33493,64559,4
33500,64562,5
33500,64558,5
33497,64554,5
33498,64553,5
33496,64553,4
33486,64547,5
33481,64542,5
33478,64527,5
33480,64534,5
33473,64520,4
33472,64520,5
33473,64517,5
33462,64506,5
33458,64505,5
33462,64500,4
33464,64504,6
33454,64499,4
33462,64499,5
33455,64490,4
33448,64496,4
33463,64497,5
33468,64497,5
33472,64510,5
33466,64503,4
33469,64507,5
33475,64512,5
33468,64506,5
33468,64522,5
33468,64522,4
33466,64524,5
33476,64521,5
33476,64525,5
33467,64517,5
33477,64518,4
33460,64513,5
33465,64512,5
33460,64498,5
33456,64498,5
33446,64483,4
33454,64473,5
33453,64470,5
33436,64459,5
33430,64442,5
33420,64434,4
33422,64430,5
33419,64426,5
33410,64429,5
33418,64424,4
33413,64433,5
33422,64444,5
33430,64445,5
33426,64443,5
33439,64451,4
33441,64469,5
33432,64466,5
33435,64444,5
33429,64437,5
33417,64430,4
33415,64420,5
33407,64397,5
33399,64405,5
33405,64400,5
33401,64386,4
33398,64384,5
33391,64380,5
33383,64372,5
33392,64377,5
33394,64369,4
33388,64359,5
33384,64362,5
33380,64371,5
33384,64364,4
33381,64368,4
33384,64366,5
33382,64371,5
33386,64373,5
33383,64367,4
33385,64360,5
33392,64358,5
33388,64361,5
33376,64351,5
33381,64362,4
33382,64353,5
33385,64348,4
33386,64348,5
33390,64356,5
33383,64358,5
33391,64369,3
33390,64360,5
33382,64361,5
33386,64354,5
33386,64363,4
33385,64358,5
33388,64361,5
33373,64361,5
33385,64358,5
33390,64351,4
33381,64356,5
33381,64355,5
33382,64352,5
33377,64346,4
33373,64346,4
33373,64339,5
33362,64341,5
33365,64332,5
33360,64329,4
33363,64328,5
33364,64323,6
33368,64317,4
33357,64319,5
33360,64319,4
33365,64318,7
33356,64310,3
33360,64314,5
33366,64317,5
33363,64317,4
33368,64317,5
33363,64326,5
33362,64334,5
33378,64331,5
33364,64334,4
33367,64325,5
33366,64334,5
33363,64345,5
33378,64355,5
33369,64348,4
33370,64343,5
33367,64341,5
33380,64346,5
33377,64335,4
33373,64339,4
33373,64350,5
33377,64345,6
33366,64347,4
33382,64333,4
33364,64333,5
33373,64323,5
33368,64317,5
33356,64322,5
33359,64310,4
33349,64296,5
33335,64275,5
33323,64254,5
33310,64240,5
33296,64221,4
33299,64202,5
33294,64203,5
33286,64195,5
33281,64197,5
33288,64202,4
33292,64202,5
33297,64216,5
33299,64223,5
33316,64229,5
33320,64252,4
33318,64262,5
33345,64282,5
33343,64286,6
33340,64284,3
33331,64267,5
33322,64249,5
33324,64240,5
33314,64235,5
33306,64217,4
33299,64207,5
33306,64210,5
33301,64205,5
33300,64203,5
33291,64197,4
33292,64188,5
33293,64192,5
33288,64192,5
33291,64192,5
33295,64194,4
33283,64191,5
33293,64190,5
33301,64193,5
33293,64193,5
33286,64191,5
33291,64194,4
33289,64189,5
33290,64194,5
33293,64192,6
33301,64189,3
33290,64187,5
33285,64188,5
33300,64186,5
33289,64195,4
33296,64189,5
33296,64188,5
33294,64186,5
33285,64188,5
33301,64191,4
33292,64195,5
33290,64182,5
33297,64192,5
33283,64181,5
33281,64190,4
33284,64182,5
33285,64180,5
33284,64183,5
33291,64175,5
33286,64182,4
33277,64179,6
33281,64183,4
33286,64170,5
33281,64164,5
33284,64170,4
33281,64172,5
33273,64167,5
33276,64162,5
33266,64161,4
33268,64169,4
33273,64161,5
33275,64162,5
33270,64170,5
33284,64165,4
33275,64177,5
33282,64174,5
33289,64167,5
33287,64178,5
33279,64178,4
33289,64190,5
33293,64193,5
33290,64202,5
33286,64189,5
33295,64199,4
33292,64203,5
33287,64195,6
33289,64199,4
33296,64204,5
33298,64209,4
33292,64208,5
33298,64199,5
33302,64207,5
33300,64212,5
33298,64205,4
33304,64203,5
33295,64211,5
33301,64211,5
33299,64199,4
33300,64199,4
33284,64190,5
33284,64179,5
33282,64162,5
33274,64149,4
33258,64121,5
33253,64118,5
33236,64102,5
33233,64089,5
33228,64082,4
33213,64075,5
33226,64073,5
33222,64079,6
33233,64097,4
33246,64102,4
33249,64112,5
33253,64110,5
33260,64127,5
33258,64143,5
33272,64161,4
33274,64164,5
33287,64184,5
33291,64179,5
33278,64163,5
33275,64162,4
33268,64154,5
33263,64138,5
33251,64126,5
33245,64122,4
33248,64105,5
33244,64105,5
33228,64101,5
33246,64107,5
33255,64094,5
33243,64098,4
33237,64096,5
33244,64104,5
33233,64093,5
33241,64091,4
33243,64106,5
33244,64101,5
33244,64105,5
33244,64109,5
33244,64100,4
33239,64104,5
33247,64109,5
33240,64105,5
33249,64105,5
33236,64107,4
33242,64100,5
33245,64103,5
33243,64097,5
33248,64098,4
33240,64100,4
33240,64102,5
33246,64108,5
33252,64109,5
33249,64106,4
33249,64098,6
33247,64097,4
33242,64102,5
33240,64101,5
33242,64098,4
33234,64091,5
33242,64102,5
33236,64082,5
33232,64091,5
33238,64091,4
33234,64085,5
33238,64081,5
33231,64087,5
33229,64080,5
33235,64077,4
33232,64080,5
33223,64071,5
33228,64079,5
33223,64076,5
33232,64078,4
33234,64086,5
33232,64085,5
33238,64087,5
33242,64086,4
33243,64099,4
33235,64100,6
33244,64097,4
33246,64109,5
33248,64109,4
33243,64109,5
33255,64120,5
33263,64120,5
33245,64113,5
33253,64123,4
33257,64128,5
33263,64132,5
33260,64137,5
33255,64125,5
33258,64127,4
33257,64140,5
33264,64135,5
33257,64124,5
33260,64116,5
33255,64124,4
33252,64123,5
33254,64114,5
33260,64124,5
33264,64117,5
33252,64119,4
33255,64123,5
33249,64115,6
33255,64116,4
33249,64108,4
33255,64104,4
33251,64116,5
33252,64109,5
33250,64111,5
33251,64111,4
33241,64111,5
33246,64106,5
33236,64094,5
33238,64080,5
33228,64078,4
33222,64060,9
33212,64043,1
33199,64017,5
33189,64001,5
33169,63981,4
33171,63975,5
33171,63978,5
33168,63968,5
33166,63969,5
33166,63980,4
33172,63988,5
33181,63994,5
33181,64010,5
33196,64017,5
33206,64039,4
33212,64053,5
33209,64060,5
33227,64081,5
33238,64097,4
33246,64104,5
33243,64099,5
33231,64079,5
33219,64061,5
33213,64035,4
33216,64032,5
33189,64022,5
33203,64011,5
33187,64002,5
33195,63998,4
33185,63998,5
33185,63995,5
33180,63987,5
33184,64001,5
33177,63992,5
33176,63993,4
33188,63988,5
33184,63985,5
33183,63994,5
33188,63999,4
33194,64008,5
33192,63998,5
33194,64003,5
33195,64004,5
33186,63998,4
33194,63989,5
33182,64000,5
33191,63995,5
33185,64000,4
33191,63993,5
33196,64003,5
33192,63991,5
33179,63993,5
33189,64000,4
33188,64002,5
33189,63997,5
33192,63996,5
33186,64002,5
33189,63993,4
33180,63986,8
33181,63983,2
33180,63987,5
33179,63985,5
33190,63978,4
33177,63973,5
33176,63983,5
33173,63987,5
33181,63962,5
33167,63978,4
33171,63964,5
33171,63959,5
33163,63962,5
33169,63963,4
33169,63961,4
33173,63962,5
33175,63968,5
33172,63972,5
33174,63969,4
33178,63974,5
33180,63987,5
33182,63994,6
33195,63992,4
33196,63999,4
33190,64023,5
33200,64022,5
33207,64018,5
33210,64022,5
33208,64034,4
33211,64034,5
33220,64037,5
33213,64047,5
33216,64053,5
33214,64054,4
33212,64048,5
33219,64058,5
33229,64059,5
33222,64052,5
33224,64061,4
33215,64058,5
33227,64054,5
33220,64059,5
33218,64056,5
33212,64053,4
33205,64046,5
33206,64033,5
33200,64022,6
33189,64008,3
33192,63996,5
33185,63993,5
33171,63987,5
33172,63985,5
33184,63985,4
33172,63992,5
33178,63993,5
33191,63998,5
33190,64001,5
33194,64015,4
33202,64020,5
33203,64036,5
33208,64046,5
33208,64050,5
33231,64068,4
33225,64067,5
33224,64075,5
33231,64075,5
33213,64053,4
33210,64040,5
33208,64040,4
33198,64032,5
33196,64015,5
33195,64010,6
33202,64006,3
33195,64009,5
33200,64010,5
33200,64015,5
33199,64010,4
33194,64014,5
33187,64012,5
33202,64024,5
33204,64031,5
33201,64029,4
33205,64033,5
33211,64034,5
33214,64037,5
33214,64042,5
33218,64049,4
33212,64036,5
33224,64051,5
33225,64041,5
33223,64052,5
33220,64048,4
33223,64043,6
33221,64038,4
33215,64043,5
33210,64049,4
33224,64051,4
33221,64053,5
33223,64055,5
33217,64056,5
33222,64048,4
33220,64048,5
33225,64058,5
33210,64049,5
33222,64058,5
33214,64054,4
33219,64051,5
33219,64047,5
33222,64053,5
33224,64049,5
33220,64048,4
33214,64052,5
33211,64040,5
33215,64047,5
33212,64045,5
33215,64056,4
33219,64059,5
33222,64055,6
33216,64056,4
33229,64061,5
33224,64073,4
33221,64072,5
33238,64076,5
33238,64095,5
33244,64088,4
33249,64105,5
33254,64119,5
33256,64120,5
33260,64125,5
33264,64127,4
33267,64138,5
33270,64139,5
33271,64146,5
33279,64152,5
33279,64155,4
33274,64150,5
33280,64162,5
33281,64171,5
33282,64168,5
33290,64178,4
33290,64175,5
33281,64168,5
33281,64181,6
33286,64185,4
33282,64175,4
33283,64175,5
33285,64166,5
33276,64174,5
33281,64157,4
33274,64154,4
33270,64137,5
33268,64143,5
33251,64117,5
33241,64119,4
33245,64111,5
33238,64103,5
33250,64112,5
33236,64107,5
33244,64102,4
33249,64110,5
33250,64139,5
33260,64142,5
33272,64151,5
33273,64168,5
33283,64187,4
33299,64200,5
33294,64214,5
33308,64215,6
33308,64207,3
33287,64178,5
33287,64182,5
33280,64175,5
33273,64158,5
33286,64158,4
33274,64161,5
33292,64160,5
33273,64160,5
33280,64163,4
33275,64166,5
33276,64166,5
33278,64174,5
33284,64169,5
33282,64175,4
33286,64174,5
33301,64191,5
33297,64191,5
33295,64194,5
33301,64209,4
33309,64217,6
33317,64225,4
33326,64248,5
33329,64255,5
33335,64273,4
33342,64283,5
33341,64285,5
33344,64290,5
33347,64288,5
33356,64293,4
33356,64302,5
33370,64320,5
33383,64333,5
33388,64342,5
33378,64345,4
33382,64346,5
33387,64365,5
33403,64384,5
33403,64397,4
33414,64417,5
33434,64436,5
33435,64458,5
33443,64455,5
33439,64460,4
33443,64461,5
33443,64463,6
33447,64465,4
33450,64468,5
33450,64469,4
33449,64481,5
33458,64479,10
33458,64501,5
33504,64573,9
33504,64573,8
33512,64573,5
33527,64601,5
33531,64628,8
33538,64636,5
33575,64651,5
33553,64655,5
33544,64654,8
33542,64663,5
33555,64669,5
33557,64683,8
33557,64683,5
33563,64701,5
33551,64668,8
33547,64634,5
33542,64652,5
33582,64650,5
33541,64639,8
33483,64626,5
33519,64612,5
33522,64610,8
33508,64596,5
33512,64593,5
33510,64581,5
33507,64587,8
33507,64587,5
33513,64589,5
33515,64596,8
33515,64595,5
33508,64587,5
33486,64554,8
33478,64537,5
33482,64528,5
33473,64517,5
33460,64501,8
33459,64487,5
33463,64486,5
33443,64473,8
33443,64473,5
33451,64468,5
33447,64473,5
33439,64467,8
33440,64468,5
33441,64474,5
33455,64517,8
33450,64490,5
33443,64451,5
33450,64474,8
33470,64489,5
33454,64488,5
33454,64488,5
33449,64492,8
33463,64492,5
33451,64491,5
33460,64497,8
33468,64502,5
33464,64508,5
33462,64469,5
33460,64469,8
33464,64491,5
33467,64506,5
33470,64518,8
33470,64518,5
33464,64508,5
33461,64498,8
33468,64510,5
33462,64507,5
33478,64513,5
33463,64510,8
33455,64495,5
33462,64496,5
33467,64510,8
33473,64499,5
33467,64511,5
33462,64503,5
33464,64506,8
33464,64506,5
33473,64523,5
33487,64526,8
33497,64543,5
33464,64525,5
33468,64528,8
33473,64541,5
33482,64537,5
33481,64538,5
33475,64532,8
33474,64527,5
33482,64531,5
33473,64524,8
33473,64524,5
33501,64523,5
33475,64516,5
33442,64512,8
33467,64514,5
33471,64517,5
33472,64526,8
33461,64518,5
33453,64513,5
33465,64518,8
33480,64530,5
33481,64539,5
33478,64532,5
33447,64482,8
33447,64482,5
33426,64474,5
33436,64468,8
33433,64474,5
33428,64454,5
33427,64441,5
33431,64444,8
33434,64445,5
33453,64451,5
33427,64443,13
33427,64443,5
33425,64439,8
33426,64436,5
33421,64432,5
33422,64458,5
33425,64458,8
33418,64438,5
33424,64400,5
33418,64433,8
33452,64434,5
33415,64425,5
33415,64425,5
33422,64439,8
33416,64433,3
33418,64423,1
33412,64429,6
33422,64433,3
33430,64429,5
33417,64437,5
33417,64440,5
33420,64429,4
33421,64431,5
33417,64429,5
33418,64435,5
33408,64421,5
33409,64411,4
33399,64417,5
33406,64413,5
33405,64405,5
33400,64399,5
33395,64400,4
33400,64393,5
33393,64395,5
33401,64392,5
33396,64394,4
33397,64389,5
33388,64394,6
