RED,IR,EKG,TIME
30969,62608,9
30961,62619,5
30965,62615,5
30958,62603,8
30949,62626,5
30966,62626,5
30962,62606,5
30953,62608,8
30954,62613,5
30967,62605,5
30967,62605,8
30964,62612,5
30958,62622,5
30956,62607,8
30962,62614,5
30956,62617,5
30961,62635,5
30964,62590,8
30952,62594,5
30955,62612,5
30957,62616,8
30957,62616,5
30951,62614,5
30954,62616,5
30963,62587,8
30955,62616,5
30963,62617,5
30966,62611,8
30958,62612,5
30962,62612,5
30961,62610,8
30950,62614,5
30970,62610,5
30955,62614,5
30955,62605,8
30955,62605,5
30959,62618,5
30967,62622,8
30976,62614,5
30977,62620,5
30956,62615,5
30961,62613,8
30969,62625,5
30969,62623,5
30963,62623,8
30952,62614,5
30968,62618,5
30959,62617,8
30959,62617,5
30989,62624,5
30996,62618,5
30963,62617,8
30947,62623,5
30961,62616,5
30967,62620,8
30970,62622,5
30965,62632,5
30963,62624,5
30969,62624,8
30968,62626,5
30972,62620,5
30971,62622,8
30971,62622,5
30924,62623,5
30957,62617,8
30970,62619,5
30961,62635,5
30960,62627,5
30961,62610,8
30968,62618,5
30960,62624,5
30974,62630,8
30963,62620,5
30951,62610,5
30960,62618,5
30965,62623,8
30965,62623,5
30962,62641,5
30958,62627,8
30953,62598,5
30960,62596,5
30969,62607,8
30976,62607,5
30969,62611,5
30950,62591,5
30950,62595,8
30959,62599,5
30953,62615,5
30957,62605,8
30957,62605,5
30953,62588,5
30953,62573,5
30961,62635,8
30956,62603,5
30949,62590,5
30926,62604,8
30928,62597,5
30950,62594,5
30948,62591,8
30950,62602,4
30947,62600,1
30955,62602,3
30942,62597,6
30957,62592,4
30954,62603,5
30943,62590,4
30952,62590,5
30948,62594,7
30948,62595,3
30945,62606,5
30958,62593,4
30949,62592,5
30944,62596,5
30965,62603,5
30947,62600,5
30945,62605,4
30955,62610,5
30953,62617,5
30958,62606,5
30952,62614,4
30962,62606,5
30960,62619,5
30958,62616,5
30959,62614,5
30960,62623,4
30961,62628,5
30957,62625,5
30963,62607,6
30956,62624,4
30967,62624,4
30961,62622,5
30956,62618,5
30966,62616,5
30969,62622,5
30966,62614,4
30971,62619,5
30955,62623,5
30974,62629,5
30957,62628,5
30956,62617,4
30970,62632,5
30958,62630,5
30963,62627,5
30959,62633,4
30960,62629,4
30970,62619,5
30967,62624,5
30960,62628,5
30968,62628,5
30969,62624,4
30959,62628,5
30956,62621,5
30967,62631,5
30967,62625,4
30956,62633,5
30961,62633,5
30961,62634,5
30970,62631,5
30969,62628,4
30963,62634,5
30959,62633,5
30969,62639,5
30963,62645,5
30961,62643,4
30963,62632,5
30967,62643,5
30973,62638,5
30971,62636,4
30965,62635,4
30966,62636,5
30972,62633,5
30966,62640,5
30968,62631,4
30969,62633,6
30971,62636,4
30969,62648,5
30967,62633,5
30971,62643,4
30967,62631,5
30965,62632,5
30969,62632,5
30969,62639,5
30961,62633,4
30972,62640,5
30969,62638,5
30966,62633,5
30969,62629,5
30967,62633,4
30971,62632,5
30974,62649,5
30967,62633,5
30966,62634,5
30965,62630,4
30963,62624,5
30973,62631,5
30965,62632,5
30969,62633,4
30961,62629,5
30965,62629,6
30969,62633,4
30965,62625,5
30968,62640,4
30971,62641,5
30967,62626,5
30980,62644,5
30963,62642,5
30971,62631,4
30973,62641,5
30974,62645,5
30964,62642,5
30972,62641,5
30974,62640,4
30970,62652,5
30964,62642,5
30973,62636,5
30974,62643,5
30976,62644,4
30971,62636,5
30978,62639,5
30974,62645,5
30974,62639,4
30974,62647,4
30976,62637,5
30972,62647,6
30974,62636,4
30973,62643,4
30974,62645,5
30963,62640,5
30972,62642,5
30980,62638,5
30963,62643,4
30980,62634,5
30978,62638,5
30970,62639,5
30970,62644,5
30969,62648,4
30976,62648,5
30975,62638,5
30973,62641,5
30965,62635,5
30970,62638,4
30977,62644,5
30969,62640,5
30967,62633,5
30975,62641,5
30967,62637,4
30973,62647,5
30975,62646,5
30976,62642,5
30977,62644,4
30975,62629,5
30975,62643,5
30963,62645,5
30981,62645,5
30978,62643,4
30978,62646,5
30972,62648,5
30976,62646,5
30975,62653,5
30976,62636,4
30980,62640,5
30971,62644,5
30972,62638,5
30963,62640,5
30974,62643,4
30968,62637,5
30974,62638,5
30968,62630,5
30978,62644,5
30969,62641,5
30973,62646,4
30978,62643,5
30965,62643,5
30970,62635,4
30977,62649,5
30971,62645,5
30971,62639,5
30972,62642,5
30977,62643,4
30978,62650,5
30970,62639,5
30972,62646,5
30963,62634,5
30970,62637,4
30961,62634,5
30969,62638,5
30973,62629,5
30968,62630,5
30970,62633,4
30970,62632,5
30971,62630,5
30968,62644,5
30977,62632,5
30982,62635,4
30972,62645,6
30973,62636,4
30975,62641,5
30979,62646,4
30974,62638,4
30979,62644,5
30980,62649,5
30974,62653,5
30979,62651,4
30978,62650,5
30976,62653,5
30975,62641,5
30981,62653,5
30979,62654,4
30982,62657,5
30970,62657,5
30977,62654,5
30985,62650,5
30980,62657,4
30965,62658,5
30973,62652,5
30979,62645,6
30980,62653,4
30979,62648,4
30978,62642,5
30982,62640,5
30971,62652,5
30980,62651,5
30971,62645,4
30970,62651,5
30975,62647,5
30972,62646,5
30978,62656,4
30979,62662,5
30981,62644,5
30971,62645,5
30973,62651,5
30983,62650,4
30975,62642,5
30964,62645,5
30977,62643,5
30976,62643,5
30983,62654,5
30963,62651,4
30982,62649,5
30975,62651,5
30976,62649,6
30975,62643,3
30985,62639,5
30981,62646,5
30980,62641,5
30981,62648,5
30980,62656,4
30980,62650,5
30976,62647,5
30972,62658,5
30972,62651,4
30973,62648,4
30984,62656,5
30972,62651,5
30979,62650,5
30981,62644,4
30972,62645,5
30975,62653,5
30982,62648,5
30971,62649,5
30970,62642,4
30980,62650,6
30979,62643,4
30974,62651,5
30970,62653,5
30982,62640,6
30965,62653,3
30981,62649,5
30979,62641,5
30969,62643,5
30973,62644,4
30970,62646,5
30973,62642,5
30971,62645,5
30984,62656,4
30980,62647,4
30978,62645,5
30973,62645,5
30975,62634,5
30977,62640,4
30982,62641,5
30973,62645,5
30969,62651,5
30965,62648,5
30971,62645,4
30975,62652,5
30978,62658,6
30972,62646,4
30979,62651,5
30980,62655,4
30986,62641,5
30990,62646,5
30981,62642,5
30985,62663,5
30977,62662,4
30972,62657,5
30979,62653,5
30978,62651,5
30982,62656,5
30972,62649,4
30979,62650,5
30986,62652,5
30979,62656,5
30986,62662,4
30973,62663,5
30978,62654,5
30974,62651,5
30979,62654,5
30973,62651,4
30983,62659,5
30980,62658,5
30976,62647,6
30975,62651,4
30983,62662,4
30978,62660,5
30977,62661,5
30983,62661,5
30971,62643,5
30981,62661,4
30975,62653,5
30975,62658,5
30979,62654,5
30976,62652,5
30978,62653,4
30978,62643,5
30974,62652,5
30972,62660,5
30977,62662,4
30981,62646,4
30987,62646,5
30980,62640,5
30977,62645,5
30979,62643,5
30975,62645,4
30967,62644,5
30972,62653,5
30979,62651,6
30981,62644,3
30973,62647,5
30963,62641,5
30975,62644,5
30969,62646,5
30978,62646,4
30970,62648,5
30973,62651,5
30974,62643,5
30972,62647,5
30974,62645,4
30972,62653,5
30978,62644,5
30975,62655,5
30975,62645,5
30979,62655,4
30979,62651,5
30976,62658,5
30971,62648,5
30971,62644,4
30969,62649,6
30967,62645,4
30972,62653,5
30979,62654,5
30979,62655,4
30976,62653,5
30979,62654,5
30972,62648,5
30973,62655,5
30970,62658,4
30983,62659,5
30976,62651,5
30971,62648,5
30978,62654,5
30974,62648,4
30977,62651,5
30976,62639,5
30974,62634,5
30967,62639,5
30970,62641,4
30975,62645,5
30966,62638,5
30968,62648,5
30976,62641,4
30976,62646,5
30968,62661,6
30975,62646,4
30976,62644,5
30977,62651,4
30969,62641,5
30977,62652,5
30970,62650,5
30987,62648,5
30974,62654,4
30980,62650,5
30978,62649,5
30979,62652,5
30979,62653,5
30973,62653,4
30974,62657,5
30977,62663,5
30982,62650,5
30977,62655,5
30985,62657,4
30980,62658,5
30979,62663,5
30972,62654,5
30975,62665,4
30979,62661,4
30979,62660,5
30980,62659,6
30985,62645,4
30981,62660,4
30968,62648,5
30978,62656,5
30970,62652,5
30969,62650,5
30973,62645,4
30981,62651,5
30971,62654,5
30977,62642,5
30969,62651,5
30970,62654,4
30970,62656,5
30969,62647,5
30968,62658,5
30971,62648,5
30963,62649,9
30975,62651,0
30968,62650,5
30973,62649,5
30969,62635,5
30971,62645,4
30974,62641,5
30977,62647,5
30971,62644,6
30972,62642,3
30978,62645,5
30973,62635,5
30968,62646,5
30963,62644,5
30966,62634,4
30965,62642,5
30966,62647,5
30963,62638,5
30966,62645,5
30967,62641,4
30968,62639,5
30974,62636,5
30967,62642,5
30961,62632,5
30962,62629,4
30967,62629,5
30961,62632,5
30968,62638,5
30965,62625,5
30966,62624,5
30967,62618,4
30964,62624,5
30958,62611,5
30966,62625,4
30958,62615,4
30956,62619,5
30948,62610,5
30943,62586,5
30938,62577,4
30931,62564,5
30932,62545,5
30927,62519,5
30913,62505,5
30895,62461,4
30886,62445,5
30872,62421,5
30864,62399,5
30853,62377,5
30843,62363,4
30848,62358,5
30841,62357,5
30845,62359,5
30845,62367,5
30846,62351,4
30843,62340,6
30825,62293,4
30810,62252,5
30799,62240,4
30793,62247,4
30804,62263,5
30801,62260,5
30814,62269,5
30819,62295,4
30827,62308,5
30832,62315,5
30843,62329,5
30835,62328,5
30846,62321,4
30835,62313,5
30825,62316,5
30823,62299,5
30837,62312,5
30829,62316,4
30838,62327,5
30836,62340,5
30836,62337,5
30843,62344,5
30855,62361,4
30858,62362,5
30862,62361,6
30860,62376,4
30863,62388,5
30862,62395,4
30861,62399,5
30876,62399,5
30869,62410,5
30874,62422,4
30880,62424,5
30889,62434,5
30892,62435,5
30894,62451,5
30895,62459,4
30897,62466,5
30901,62464,5
30901,62470,5
30900,62468,5
30898,62473,4
30905,62475,5
30896,62475,5
30893,62464,5
30894,62469,5
30900,62476,4
30893,62467,5
30903,62472,5
30907,62479,5
30901,62485,5
30907,62498,4
30909,62488,5
30913,62493,5
30909,62497,5
30913,62489,4
30903,62489,4
30905,62489,5
30902,62492,5
30911,62483,5
30905,62491,4
30914,62497,5
30911,62498,5
30911,62505,5
30922,62515,5
30918,62514,4
30919,62505,5
30913,62507,5
30914,62508,5
30910,62507,5
30917,62513,5
30915,62514,4
30918,62526,5
30922,62514,5
30915,62508,5
30914,62512,4
30918,62520,5
30927,62517,5
30920,62521,5
30922,62520,4
30926,62526,4
30924,62534,5
30922,62528,5
30927,62525,5
30922,62522,4
30919,62531,5
30920,62534,5
30916,62540,5
30922,62540,5
30929,62535,4
30917,62534,5
30926,62534,5
30924,62551,5
30931,62550,5
30935,62549,4
30933,62555,6
30926,62553,4
30936,62562,5
30934,62554,5
30935,62553,4
30939,62553,5
30942,62559,5
30931,62564,5
30938,62562,5
30937,62559,4
30938,62572,5
30946,62573,5
30944,62571,5
30940,62570,4
30948,62587,5
30938,62581,5
30953,62590,5
30951,62581,5
30950,62588,4
30948,62585,5
30949,62586,5
30951,62587,6
30941,62585,4
30944,62590,4
30952,62586,5
30956,62593,5
30950,62587,5
30949,62597,5
30951,62583,4
30942,62579,5
30950,62584,5
30943,62585,5
30945,62579,5
30948,62587,4
30944,62583,5
30942,62581,5
30942,62591,5
30940,62582,4
30944,62576,4
30943,62575,5
30939,62576,5
30948,62585,5
30945,62584,5
30952,62595,4
30949,62584,5
30947,62587,5
30944,62581,6
30945,62595,3
30949,62584,5
30941,62575,5
30948,62583,5
30945,62582,5
30947,62574,4
30953,62586,5
30951,62587,5
30944,62580,5
30946,62586,5
30947,62583,4
30946,62587,5
30939,62586,5
30950,62582,5
30946,62586,4
30953,62578,4
30937,62578,5
30946,62581,5
30942,62566,5
30942,62576,4
30942,62575,6
30933,62572,4
30946,62564,5
30938,62576,5
30933,62562,6
30941,62572,3
30932,62569,5
30945,62565,5
30936,62566,5
30940,62573,4
30937,62570,5
30934,62566,5
30938,62560,5
30935,62561,5
30931,62566,4
30939,62569,5
30929,62564,5
30931,62562,5
30937,62548,5
30938,62552,4
30926,62552,5
30935,62562,5
30934,62553,5
30935,62558,4
30934,62546,5
30926,62553,6
30929,62555,4
30929,62550,5
30930,62541,4
30927,62549,5
30932,62543,5
30929,62550,5
30924,62543,5
30927,62556,4
30923,62546,5
30927,62541,5
30928,62539,5
30932,62546,5
30932,62551,4
30928,62542,5
30930,62542,5
30929,62554,5
30931,62547,5
30933,62551,4
30938,62554,5
30937,62548,5
30930,62541,5
30938,62560,4
30931,62540,4
30924,62552,5
30922,62541,6
30926,62538,4
30919,62531,4
30919,62541,5
30923,62535,5
30921,62528,5
30930,62542,5
30928,62530,4
30929,62534,5
30914,62533,5
30922,62534,5
30925,62528,5
30921,62530,4
30924,62521,5
30924,62526,5
30923,62524,5
30909,62527,5
30925,62529,4
30923,62523,5
30921,62530,5
30918,62532,5
30920,62530,5
30923,62530,4
30916,62530,5
30929,62542,5
30923,62537,6
30922,62534,3
30920,62542,5
30920,62530,5
30919,62545,5
30927,62537,5
30930,62532,4
30930,62543,5
30927,62543,5
30927,62535,5
30920,62545,5
30924,62549,4
30919,62546,5
30929,62543,5
30926,62546,5
30930,62546,5
30935,62544,4
30927,62554,5
30925,62564,5
30935,62561,5
30927,62547,5
30934,62555,5
30930,62560,4
30929,62555,5
30940,62564,5
30934,62551,4
30929,62552,5
30932,62556,5
30926,62549,5
30931,62559,5
30932,62568,4
30930,62556,5
30938,62561,5
30932,62571,5
30944,62563,5
30935,62564,4
30940,62569,5
30938,62573,5
30944,62573,5
30939,62576,5
30944,62569,4
30948,62580,5
30948,62580,5
30946,62596,5
30943,62579,5
30954,62592,4
30940,62588,6
30943,62584,4
30944,62586,5
30945,62583,4
30950,62597,4
30941,62593,5
30951,62596,5
30944,62585,5
30944,62592,4
30947,62593,5
30951,62592,5
30945,62594,5
30946,62600,5
30954,62591,4
30951,62592,5
30951,62599,5
30949,62596,5
30954,62590,5
30949,62584,4
30944,62593,5
30948,62598,5
30951,62598,5
30947,62593,5
30955,62600,4
30952,62603,5
30955,62599,6
30949,62605,4
30947,62596,4
30958,62601,4
30954,62607,5
30955,62600,5
30961,62598,5
30955,62591,4
30950,62597,5
30952,62599,5
30957,62602,5
30945,62589,5
30955,62596,4
30949,62598,5
30954,62602,5
30951,62598,5
30954,62596,5
30954,62600,4
30945,62602,5
30956,62604,5
30958,62609,5
30953,62599,5
30960,62604,4
30946,62601,5
30951,62601,5
30956,62604,6
30953,62600,3
30946,62600,4
30962,62599,5
30954,62598,5
30954,62595,5
30952,62603,4
30951,62592,5
30952,62603,5
30951,62598,5
30952,62608,5
30960,62595,4
30949,62599,5
30953,62594,5
30949,62594,5
30953,62600,5
30953,62592,4
30970,62595,5
30957,62604,5
30958,62598,5
30959,62598,5
30959,62604,5
30951,62603,4
30958,62600,5
30955,62594,5
30953,62602,5
30958,62599,4
30955,62589,5
30954,62600,5
30953,62587,5
30950,62594,7
30951,62595,2
30956,62604,5
30946,62605,5
30953,62607,5
30958,62589,4
30954,62603,5
30949,62591,5
30963,62607,5
30958,62605,5
30955,62607,4
30964,62608,5
30954,62605,5
30959,62603,5
30955,62602,5
30964,62609,4
30962,62612,6
30963,62611,4
30959,62629,5
30966,62617,5
30970,62611,4
30954,62629,5
30967,62617,5
30965,62616,5
30967,62625,4
30968,62622,5
30959,62627,5
30960,62621,5
30962,62622,5
30962,62624,4
30962,62621,5
30965,62625,5
30964,62627,5
30961,62620,5
30961,62611,4
30956,62620,5
30962,62613,5
30963,62616,5
30962,62615,5
30960,62625,4
30963,62621,5
30966,62617,6
30961,62618,4
30963,62618,5
30961,62625,4
30960,62627,5
30961,62621,5
30965,62616,5
30960,62617,4
30968,62620,5
30966,62623,5
30965,62618,5
30965,62617,5
30965,62610,4
30968,62620,5
30961,62618,5
30972,62615,5
30958,62630,5
30960,62609,4
30968,62628,5
30977,62615,5
30963,62628,5
30966,62619,5
30957,62620,4
30969,62620,5
30963,62622,5
30957,62620,5
30965,62621,5
30969,62626,4
30967,62622,5
30961,62623,5
30969,62618,5
30963,62623,4
30967,62628,4
30964,62629,5
30966,62625,5
30972,62625,5
30966,62639,4
30977,62624,5
30963,62627,5
30965,62622,5
30966,62627,5
30969,62628,4
30967,62628,5
30964,62621,5
30960,62620,5
30966,62621,5
30965,62622,5
30965,62630,4
30964,62625,5
30975,62637,5
30970,62622,5
30964,62638,4
30968,62626,5
30972,62631,5
30973,62625,5
30967,62637,4
30973,62627,4
30972,62636,5
30965,62631,5
30976,62622,5
30963,62635,4
30966,62631,5
30971,62640,5
30969,62626,5
30963,62626,5
30969,62636,4
30962,62633,5
30973,62630,5
30966,62620,5
30965,62623,5
30974,62630,4
30967,62629,6
30960,62620,3
30966,62626,5
30964,62633,5
30970,62624,4
30964,62638,5
30971,62626,5
30971,62645,5
30962,62641,4
30969,62635,4
30968,62638,5
30972,62635,5
30963,62644,5
30966,62641,4
30964,62645,5
30970,62647,5
30976,62642,5
30975,62644,5
30974,62645,4
30972,62649,5
30984,62646,5
30971,62642,6
30976,62645,4
30971,62650,4
30976,62640,5
30971,62654,5
30970,62645,5
30967,62646,5
30979,62640,4
30969,62639,5
30978,62636,5
30979,62638,5
30976,62629,5
30974,62649,4
30977,62643,5
30976,62652,5
30970,62636,5
30979,62651,4
30970,62641,5
30976,62652,5
30974,62637,5
30982,62655,5
30979,62654,5
30981,62647,4
30978,62646,5
30970,62645,5
30981,62650,6
30975,62644,3
30976,62650,5
30972,62646,5
30980,62649,5
30974,62642,5
30982,62650,4
30979,62652,5
30971,62650,5
30976,62659,5
30976,62657,5
30983,62652,4
30976,62649,5
30975,62651,5
30981,62654,5
30977,62651,4
30977,62659,5
30974,62653,5
30973,62652,5
30974,62662,5
30977,62647,4
30976,62651,6
30977,62654,4
30980,62656,5
30982,62646,5
30968,62651,6
30967,62646,3
30979,62642,5
30970,62652,5
30975,62658,5
30972,62648,4
30975,62644,5
30974,62649,5
30970,62653,5
30973,62655,5
30970,62654,4
30971,62653,5
30981,62657,5
30974,62646,5
30974,62649,4
30972,62645,4
30971,62652,5
30975,62648,5
30975,62651,5
30972,62639,4
30976,62646,5
30974,62646,6
30969,62650,4
30970,62648,5
30968,62652,4
30975,62644,5
30978,62640,5
30972,62637,5
30975,62645,5
30973,62643,4
30977,62638,5
30977,62648,5
30977,62644,5
30973,62646,5
30966,62652,4
30970,62653,5
30972,62653,5
30968,62648,5
30967,62647,4
30974,62641,4
30980,62647,5
30980,62646,5
30971,62655,5
30976,62649,4
30969,62649,5
30970,62646,5
30973,62647,6
30970,62641,4
30974,62653,4
30971,62650,5
30972,62641,5
30962,62641,5
30967,62641,5
30963,62642,4
30961,62644,5
30967,62633,5
30970,62633,5
30963,62639,5
30960,62631,4
30956,62628,5
30965,62622,5
30961,62620,5
30959,62622,5
30959,62619,4
30959,62612,5
30966,62610,5
30957,62613,5
30958,62617,5
30947,62607,4
30959,62607,5
30950,62609,5
30953,62608,6
30949,62602,3
30956,62607,5
30943,62596,5
30953,62604,5
30942,62597,5
30939,62594,4
30940,62596,5
30948,62599,5
30949,62589,5
30952,62581,5
30931,62582,4
30945,62580,5
30943,62585,5
30944,62585,5
30950,62586,5
30938,62582,4
30941,62582,5
30934,62585,5
30939,62569,5
30938,62578,4
30929,62567,6
30937,62563,4
30937,62574,5
30939,62568,5
30933,62576,4
30931,62561,5
30932,62556,5
30934,62558,5
30930,62547,5
30921,62542,4
30917,62528,5
30909,62514,5
30918,62513,5
30912,62510,5
30915,62503,4
30909,62511,5
30909,62518,5
30904,62501,5
30917,62501,5
30910,62495,4
30911,62500,5
30901,62481,5
30894,62456,5
30879,62427,4
30868,62393,4
30857,62387,6
30850,62392,4
30856,62390,5
30864,62388,4
30867,62391,5
30868,62406,5
30864,62413,5
30877,62419,5
30865,62404,4
30870,62402,5
30863,62392,5
30866,62399,5
30866,62389,5
30877,62412,4
30877,62408,5
30868,62408,5
30869,62417,5
30868,62416,5
30857,62411,4
30873,62411,5
30866,62403,5
30865,62402,5
30858,62392,4
30863,62389,4
30856,62385,5
30842,62363,6
30830,62349,4
30845,62344,4
30847,62354,5
30851,62360,5
30844,62376,5
30848,62375,5
30850,62376,4
30847,62381,5
30848,62381,5
30864,62387,5
30862,62380,5
30864,62393,4
30860,62389,5
30854,62375,5
30857,62377,5
30850,62365,5
30853,62366,4
30850,62368,5
30864,62373,5
30858,62383,5
30857,62388,5
30864,62401,4
30873,62405,5
30876,62418,5
30879,62435,5
30876,62429,4
30878,62427,5
30884,62428,5
30878,62424,5
30879,62436,5
30883,62436,4
30884,62443,5
30884,62435,5
30881,62453,5
30891,62452,5
30888,62452,4
30890,62451,5
30883,62450,5
30896,62463,5
30891,62458,5
30903,62462,4
30896,62469,5
30900,62462,5
30892,62466,5
30897,62456,5
30894,62463,5
30893,62471,4
30891,62471,5
30898,62477,5
30896,62474,4
30903,62463,5
30905,62472,5
30892,62478,5
30908,62472,5
30905,62491,4
30903,62484,5
30896,62483,5
30905,62484,5
30904,62479,5
30906,62484,4
30898,62485,5
30898,62478,5
30894,62488,5
30897,62483,5
30897,62476,4
30904,62481,5
30906,62480,5
30900,62486,5
30898,62470,5
30908,62485,4
30902,62475,6
30893,62483,4
30900,62480,5
30904,62475,4
30900,62480,5
30895,62467,5
30892,62467,5
30892,62476,5
30895,62478,4
30891,62481,5
30906,62488,5
30903,62480,5
30894,62484,5
30902,62494,4
30902,62484,5
30906,62491,5
30908,62490,5
30903,62498,5
30902,62504,4
30902,62499,5
30904,62500,5
30904,62517,10
30904,62517,4
30927,62523,5
30918,62517,6
30918,62522,4
30910,62525,4
30924,62521,4
30922,62537,5
30915,62531,5
30919,62524,5
30916,62528,4
30913,62524,5
30923,62529,5
30916,62532,5
30921,62526,5
30928,62533,4
30925,62530,5
30920,62539,5
30928,62523,5
30922,62535,5
30926,62539,4
30920,62534,5
30924,62537,5
30930,62550,5
30930,62551,5
30923,62552,4
30926,62552,5
30928,62558,5
30925,62553,5
30935,62552,4
30928,62553,4
30938,62555,5
30931,62560,5
30930,62559,5
30933,62558,4
30926,62548,5
30930,62561,5
30932,62564,5
30937,62556,5
30924,62557,4
30930,62561,5
30929,62565,5
30927,62560,5
30931,62561,5
30931,62565,4
30932,62569,5
30927,62570,5
30935,62551,5
30928,62561,5
30927,62569,5
30940,62555,4
30928,62552,5
30935,62551,5
30934,62553,5
30931,62556,4
30921,62549,5
30930,62546,5
30932,62548,5
30926,62542,4
30920,62544,5
30923,62532,5
30922,62532,5
30919,62539,5
30917,62534,4
30919,62535,5
30914,62524,5
30919,62526,5
30919,62523,5
30913,62518,4
30916,62519,5
30914,62511,5
30909,62508,4
30909,62504,5
30914,62501,4
30915,62504,7
30904,62502,3
30908,62502,5
30914,62501,5
30903,62495,4
30899,62502,5
30902,62491,5
30902,62484,5
30898,62485,4
30910,62486,4
30901,62474,5
30891,62477,5
30891,62463,5
30894,62455,4
30878,62439,5
30872,62415,5
30860,62398,5
30850,62385,5
30843,62363,4
30843,62355,5
30851,62348,5
30835,62335,6
30820,62326,4
30825,62310,4
30819,62311,5
30822,62318,5
30828,62319,5
30821,62305,5
30809,62279,4
30793,62225,5
30770,62184,5
30756,62154,5
30757,62164,4
30756,62166,4
30756,62167,5
30768,62183,5
30766,62194,5
30772,62195,4
30766,62192,5
30780,62199,5
30774,62193,5
30771,62195,5
30774,62183,5
30778,62195,4
30781,62196,5
30775,62205,5
30773,62184,6
30764,62160,3
30749,62141,5
30743,62117,5
30735,62090,5
30731,62081,5
30734,62095,4
30732,62094,5
30720,62073,5
30718,62042,5
30698,62022,4
30697,62005,4
30697,62018,5
30687,61987,5
30676,61952,5
30657,61946,4
30667,61949,5
30668,61953,5
30672,61964,5
30681,61980,5
30677,61979,4
30670,61953,6
30664,61939,4
30661,61917,5
30653,61905,5
30650,61918,6
30664,61941,3
30679,61944,5
30669,61944,5
30670,61955,5
30674,61941,4
30675,61952,5
30685,61987,5
30691,62011,5
30709,62033,5
30732,62074,4
30739,62099,5
30748,62108,5
30748,62123,5
30752,62124,4
30749,62127,5
30758,62138,5
30768,62166,5
30773,62186,5
30790,62205,4
30803,62237,5
30806,62251,6
30814,62263,4
30810,62263,5
30812,62280,4
30828,62279,5
30828,62294,5
30826,62311,5
30838,62326,5
30845,62338,4
30851,62359,5
30854,62379,5
30869,62381,5
30859,62390,5
30867,62392,4
30868,62402,5
30873,62398,5
30873,62406,5
30870,62422,4
30879,62416,4
30887,62428,5
30877,62426,5
30885,62446,5
30882,62424,4
30896,62436,5
30894,62435,5
30881,62448,6
30894,62453,4
30894,62458,4
30897,62455,5
30905,62465,5
30897,62460,5
30902,62456,5
30907,62462,4
30901,62464,5
30902,62463,5
30903,62465,5
30919,62466,5
30907,62472,4
30903,62473,5
30899,62470,5
30911,62475,5
30912,62479,5
30905,62476,4
30903,62471,5
30909,62480,5
30905,62472,5
30919,62480,5
30912,62489,4
30916,62492,5
30916,62498,5
30919,62497,6
30926,62501,3
30921,62492,5
30918,62496,5
30923,62511,5
30918,62514,5
30922,62515,4
30923,62525,5
30928,62511,5
30918,62520,5
30929,62515,5
30925,62516,4
30929,62521,5
30932,62530,5
30921,62527,5
30934,62523,5
30921,62518,4
30931,62524,5
30934,62532,5
30929,62528,5
30932,62533,4
30927,62523,6
30932,62530,4
30934,62532,5
30924,62539,5
30938,62531,4
30929,62532,5
30936,62538,5
30937,62546,5
30931,62549,5
30933,62553,4
30944,62544,5
30936,62547,5
30936,62546,5
30938,62549,5
30944,62558,4
30946,62544,5
30943,62551,5
30937,62550,5
30940,62559,5
30944,62558,4
30940,62558,5
30944,62557,5
30941,62561,5
30942,62558,4
30940,62560,5
30944,62558,6
30942,62567,4
30944,62561,5
30935,62566,4
30942,62563,5
30940,62566,5
30949,62562,5
30939,62570,5
30938,62564,4
30948,62562,5
30943,62568,5
30940,62564,5
30945,62563,5
30941,62558,4
30941,62555,5
30938,62572,5
30948,62569,5
30948,62565,5
30935,62569,4
30949,62563,5
30938,62567,5
30937,62567,5
30952,62569,4
30946,62567,5
30951,62565,5
30946,62569,6
30948,62569,4
30945,62568,4
30938,62569,5
30954,62566,5
30938,62573,5
30934,62571,5
30948,62570,4
30938,62575,5
30953,62572,5
30950,62582,5
30954,62573,5
30943,62572,4
30944,62575,5
30956,62579,5
30948,62586,5
30950,62585,5
30949,62578,4
30943,62589,5
30950,62580,5
30955,62581,5
30953,62584,5
30961,62587,4
30943,62580,5
30951,62583,5
30945,62567,5
30951,62574,4
30950,62581,5
30949,62585,5
30953,62585,5
30953,62583,5
30955,62582,4
30952,62587,5
30949,62593,5
30957,62585,5
30956,62594,5
30957,62594,4
30960,62598,5
30964,62594,5
30951,62587,5
30961,62583,5
30955,62597,4
30953,62603,5
30956,62593,5
30955,62592,5
30957,62594,4
30948,62599,5
30957,62600,4
30956,62587,5
30960,62587,5
30958,62591,4
30952,62594,5
30955,62587,5
30960,62593,5
30952,62593,5
30946,62586,4
30965,62599,5
30961,62596,5
30962,62599,5
30961,62611,5
30958,62602,4
30958,62591,5
30962,62601,5
30957,62604,5
30955,62603,5
30956,62603,4
30960,62604,5
30960,62603,5
30958,62609,5
30958,62606,4
30961,62611,4
30956,62605,6
30968,62614,4
30958,62602,5
30964,62609,4
30958,62604,5
30955,62606,5
30957,62605,5
30959,62593,5
30964,62603,4
30951,62602,5
30959,62601,5
30954,62602,5
30953,62599,5
30961,62606,4
30955,62605,5
30958,62599,5
30950,62598,5
30959,62602,5
30948,62603,4
30951,62599,5
30961,62593,5
30961,62603,5
30951,62603,4
30953,62595,4
30954,62600,5
30955,62593,5
30958,62585,5
30954,62597,4
30954,62594,5
30953,62585,5
30946,62587,5
30961,62589,5
30953,62585,4
30959,62578,5
30943,62584,5
30953,62578,5
30948,62590,5
30952,62582,4
30945,62588,5
30954,62587,5
30950,62589,5
30956,62588,5
30950,62595,4
30954,62595,5
30953,62596,5
30950,62609,5
30961,62599,5
30955,62598,4
30946,62593,5
30948,62588,5
30955,62595,5
30949,62597,4
30953,62595,5
30951,62591,5
30959,62586,5
30948,62589,5
30951,62590,4
30952,62588,5
30949,62596,5
30956,62589,8
30952,62593,2
30961,62595,4
30958,62593,5
30951,62590,5
30951,62587,5
30954,62590,5
30947,62587,4
30942,62591,5
30946,62590,5
30949,62592,5
30948,62589,4
30959,62589,5
30946,62577,4
30952,62586,5
30951,62597,5
30953,62583,4
30956,62592,5
30953,62595,5
30957,62584,5
30958,62585,5
30952,62595,4
30945,62584,5
30946,62585,5
30958,62584,5
30952,62583,5
30953,62576,4
30957,62588,5
30954,62581,5
30946,62583,5
30953,62590,5
30953,62580,4
30943,62575,5
30955,62582,6
30965,62591,4
30961,62582,4
30950,62591,4
30950,62588,5
30944,62598,5
30956,62591,5
30958,62597,4
30959,62604,5
30958,62592,5
30957,62598,5
30957,62605,5
30961,62600,4
30960,62611,5
30957,62608,5
30966,62613,5
30949,62599,5
30954,62606,4
30960,62599,5
30957,62605,5
30961,62606,5
30957,62593,5
30957,62603,4
30950,62603,5
30963,62597,5
30967,62604,6
30957,62598,3
30959,62606,4
30960,62603,5
30949,62598,5
30957,62589,5
30959,62604,4
30961,62602,5
30962,62593,5
30960,62598,5
30962,62601,5
30959,62596,4
30947,62602,5
30953,62598,5
30953,62596,5
30956,62592,5
30959,62598,4
30949,62597,5
30957,62585,5
30941,62595,5
30954,62588,5
30953,62595,5
30961,62597,4
30949,62586,5
30949,62589,5
30953,62588,6
30951,62588,3
30946,62592,5
30953,62591,5
30970,62588,5
30962,62589,4
30954,62595,5
30951,62592,5
30953,62589,5
30956,62590,5
30953,62589,4
30947,62587,5
30949,62589,5
30951,62585,5
30949,62583,5
30951,62588,4
30956,62585,5
30948,62589,5
30951,62585,5
30948,62583,5
30953,62582,4
30955,62586,6
30951,62591,4
30952,62585,5
30955,62593,5
30942,62581,6
30950,62583,3
30950,62597,5
30954,62591,5
30951,62580,4
30938,62588,5
30950,62589,5
30942,62589,5
30952,62580,5
30942,62577,4
30954,62576,5
30939,62578,5
30944,62571,5
30939,62571,5
30941,62581,4
30941,62580,5
30935,62576,5
30942,62575,5
30959,62581,5
30947,62578,4
30947,62577,5
30946,62574,6
30936,62582,4
30943,62586,5
30954,62580,4
30951,62585,5
30944,62582,5
30942,62590,5
30951,62581,4
30951,62587,5
30952,62581,5
30955,62595,5
30952,62587,5
30950,62592,4
30952,62587,5
30959,62599,5
30956,62594,5
30945,62594,5
30950,62595,4
30952,62595,5
30951,62595,5
30943,62592,5
30950,62593,5
30951,62589,4
30944,62597,5
30949,62594,5
30952,62593,6
30958,62583,4
30946,62585,4
30953,62581,5
30950,62584,5
30945,62586,5
30953,62586,4
30949,62583,4
30948,62580,5
30940,62582,5
30942,62589,5
30946,62578,4
30945,62585,5
30945,62591,5
30943,62585,5
30946,62586,5
30950,62581,4
30941,62580,5
30941,62587,5
30946,62582,5
30944,62579,5
30947,62587,5
30940,62585,4
30948,62580,5
30951,62587,5
30948,62590,6
30946,62581,3
30950,62585,5
30947,62581,5
30945,62592,5
30953,62587,4
30950,62592,4
30944,62583,5
30941,62587,5
30952,62594,5
30950,62591,4
30948,62595,5
30946,62591,5
30950,62581,5
30945,62596,5
30949,62578,4
30945,62585,5
30943,62589,5
30946,62592,5
30949,62577,5
30948,62584,4
30943,62577,6
30950,62578,4
30950,62590,5
30945,62587,5
30944,62589,4
30939,62589,5
30947,62581,5
30949,62578,5
30939,62583,4
30940,62578,4
30950,62578,5
30938,62579,5
30946,62579,5
30937,62574,4
30951,62576,5
30939,62576,5
30937,62576,5
30943,62580,5
30937,62576,4
30942,62568,5
30942,62573,5
30946,62574,5
30937,62566,5
30936,62572,4
30941,62589,5
30943,62585,6
30950,62590,4
30946,62585,5
30946,62585,4
30948,62587,5
30943,62589,5
30938,62581,5
30947,62588,5
30939,62586,4
30944,62577,5
30951,62575,5
30946,62590,5
30955,62598,4
30945,62589,5
30944,62588,5
30945,62596,5
30948,62587,5
30950,62584,4
30950,62588,5
30943,62597,5
30949,62587,5
30952,62599,5
30950,62593,4
30946,62589,5
30948,62586,5
30941,62591,6
30941,62582,4
30943,62595,4
30951,62587,5
30946,62584,5
30954,62586,5
30948,62587,5
30947,62590,4
30952,62586,5
30949,62591,5
30951,62586,5
30951,62578,4
30947,62593,5
30940,62591,5
30951,62584,5
30947,62598,5
30955,62587,4
30946,62587,5
30943,62593,5
30945,62589,5
30945,62601,5
30950,62594,5
30949,62596,4
30950,62598,5
30958,62589,5
30955,62593,5
30950,62595,4
30953,62594,5
30952,62602,5
30944,62589,5
30943,62587,5
30956,62600,4
30948,62586,5
30946,62589,5
30952,62588,5
30951,62600,4
30938,62587,5
30950,62595,5
30950,62597,5
30954,62594,5
30944,62591,4
30941,62595,5
30950,62597,5
30948,62593,5
30948,62585,5
30952,62589,4
30943,62591,6
30954,62596,4
30952,62588,5
30952,62604,5
30952,62593,4
30947,62590,5
30945,62586,5
30943,62590,5
30949,62594,5
30953,62592,4
30956,62585,5
30948,62584,5
30944,62592,5
30956,62593,4
30958,62583,5
30957,62591,5
30942,62590,5
30945,62597,5
30960,62595,4
30949,62591,5
30948,62594,5
30954,62597,5
30942,62594,5
30951,62596,4
30957,62606,5
30953,62600,6
30951,62591,4
30955,62607,5
30956,62596,4
30953,62599,5
30956,62594,5
30948,62611,5
30956,62602,5
30957,62608,4
30950,62605,5
30949,62601,5
30960,62599,5
30961,62606,4
30946,62604,4
30948,62603,5
30954,62590,5
30957,62603,5
30961,62602,4
30949,62609,5
30955,62607,5
30957,62602,5
30953,62600,5
30961,62611,4
30958,62605,5
30962,62614,5
30963,62607,5
30956,62609,5
30958,62611,4
30959,62603,5
30957,62601,5
30961,62609,5
30959,62604,5
30951,62597,4
30959,62601,5
30953,62601,5
30956,62601,5
30956,62595,4
30949,62598,4
30955,62601,5
30962,62613,5
30956,62599,5
30961,62600,4
30955,62602,5
30959,62603,5
30954,62601,5
30954,62598,5
30962,62603,5
30952,62606,4
30951,62604,5
30951,62602,5
30960,62596,5
30960,62608,4
30956,62602,5
30954,62606,5
30949,62609,5
30960,62595,5
30955,62608,4
30948,62595,5
30956,62603,5
30953,62597,5
30945,62606,4
30953,62601,4
30962,62605,5
30946,62610,5
30955,62605,5
30953,62604,4
30957,62604,5
30961,62596,5
30957,62603,5
30958,62602,5
30951,62603,4
30961,62603,6
30959,62602,4
30957,62599,5
30955,62598,5
30950,62608,4
30959,62604,5
30958,62601,5
30956,62601,5
30952,62594,5
30961,62606,4
30959,62604,5
30961,62604,5
30960,62603,5
30961,62606,4
30963,62615,4
30964,62612,5
30961,62609,5
30951,62613,5
30949,62606,4
30966,62615,5
30961,62610,5
30956,62614,6
30959,62611,4
30957,62617,4
30961,62625,5
30964,62613,5
30964,62613,7
30965,62619,3
30958,62610,4
30953,62613,5
30956,62620,5
30955,62612,5
30963,62615,5
30963,62613,4
30960,62609,5
30958,62606,5
30952,62613,5
30953,62609,4
30950,62611,4
30954,62616,5
30959,62614,5
30954,62617,5
30965,62615,5
30957,62612,4
30970,62613,5
30959,62610,5
30955,62611,6
30947,62612,3
30955,62616,5
30959,62617,5
30965,62606,5
30962,62604,5
30954,62605,4
30955,62613,5
30963,62617,5
30961,62603,5
30963,62610,5
30965,62619,4
30960,62608,5
30960,62605,5
30960,62615,5
30962,62611,4
30956,62605,4
30956,62608,5
30954,62606,5
30960,62598,5
30960,62607,4
30958,62608,6
30955,62605,4
30954,62606,5
30957,62612,5
30956,62610,6
30964,62608,3
30960,62611,5
30959,62610,5
30963,62602,5
30966,62608,4
30960,62608,5
30956,62611,5
30959,62607,5
30951,62603,5
30955,62612,4
30953,62610,5
30956,62604,5
30957,62605,5
30960,62608,5
30962,62616,4
30964,62608,5
30956,62612,5
30959,62607,5
30963,62611,4
30955,62614,5
30960,62606,6
30962,62603,4
30960,62612,5
30962,62613,4
30962,62609,5
30954,62613,5
30954,62601,5
30957,62608,5
30947,62604,4
30956,62595,5
30959,62612,5
30955,62604,5
30949,62594,5
30954,62606,4
30957,62606,5
30956,62605,5
30958,62608,5
30957,62602,5
30957,62598,4
30957,62602,5
30964,62612,5
30953,62618,5
30962,62615,4
30966,62614,5
30954,62614,5
30955,62609,6
30961,62611,4
30967,62621,4
30964,62602,5
30965,62608,5
30954,62625,5
30951,62613,5
30955,62611,4
30961,62615,5
30965,62615,5
30967,62622,5
30965,62618,5
30963,62621,4
30959,62606,5
30961,62616,5
30960,62610,5
30961,62612,5
30964,62609,4
30959,62608,5
30960,62619,5
30960,62616,5
30956,62613,5
30956,62622,4
30952,62602,5
30956,62609,5
30959,62617,6
30959,62618,3
30955,62620,5
30957,62611,5
30958,62613,5
30954,62612,5
30960,62608,4
30956,62616,5
30965,62614,5
30953,62609,5
30952,62612,5
30952,62607,4
30953,62604,5
30959,62609,5
30962,62611,5
30963,62613,5
30955,62611,4
30964,62616,5
30949,62615,5
30954,62613,5
30954,62609,4
30962,62606,6
30952,62615,4
30959,62613,5
30956,62608,5
30952,62614,4
30959,62616,5
30968,62616,5
30962,62612,5
30967,62622,5
30961,62616,4
30959,62613,5
30962,62607,5
30956,62611,5
30957,62619,5
30953,62610,4
30955,62615,5
30959,62617,5
30963,62608,5
30959,62613,5
30960,62617,4
30960,62606,5
30948,62603,5
30959,62604,5
30944,62610,4
30950,62613,4
30951,62607,6
30958,62614,4
30950,62614,5
30960,62598,4
30951,62595,5
30954,62592,5
30944,62600,5
30942,62593,5
30953,62608,4
30955,62593,5
30949,62596,5
30950,62591,5
30954,62583,5
30946,62578,4
30952,62586,5
30946,62591,5
30945,62582,5
30947,62585,5
30944,62582,4
30946,62580,5
30948,62587,5
30946,62570,5
30934,62571,4
30931,62568,4
30927,62561,5
30936,62562,6
30929,62554,4
30925,62557,4
30931,62545,5
30928,62552,5
30930,62539,5
30921,62537,5
30925,62529,4
30918,62529,5
30919,62529,5
30921,62531,5
30924,62523,5
30916,62525,4
30923,62521,5
30915,62514,5
30912,62521,5
30906,62516,5
30920,62513,4
30913,62518,5
30912,62527,5
30904,62507,5
30912,62504,5
30907,62501,4
30908,62507,5
30896,62479,5
30896,62489,5
30897,62505,4
30899,62503,5
30906,62500,5
30902,62498,5
30899,62489,5
30907,62492,4
30902,62487,5
30900,62483,5
30892,62484,5
30902,62481,5
30894,62473,4
30887,62447,5
30882,62426,5
30872,62417,5
30850,62388,5
30846,62362,4
30842,62339,5
30827,62326,5
30816,62302,5
30812,62288,4
30812,62283,5
30797,62270,4
30797,62239,5
30783,62209,5
30761,62178,4
30761,62164,5
30755,62166,5
30766,62163,5
30754,62146,5
30727,62080,4
30694,62001,5
30673,61950,5
30657,61922,5
30655,61929,5
30672,61941,4
30670,61957,5
30673,61967,5
30664,61947,5
30663,61919,5
30660,61920,4
30653,61917,5
30653,61908,5
30650,61902,5
30640,61886,5
30641,61870,4
30629,61856,6
30627,61853,4
30617,61840,5
30623,61830,4
30602,61799,5
30605,61801,5
30609,61799,5
30610,61812,5
30609,61820,4
30619,61838,5
30622,61838,5
30624,61844,5
30633,61860,5
30648,61865,4
30626,61861,5
30630,61856,5
30631,61853,5
30620,61853,5
30640,61861,4
30654,61895,5
30659,61910,5
30664,61935,5
30672,61951,5
30684,61974,4
30686,61963,5
30682,61968,5
30674,61960,5
30685,61965,4
30685,61968,5
30677,61973,5
30686,61975,5
30682,61982,5
30682,61987,4
30688,61981,5
30685,61990,5
30696,61987,5
30692,61979,5
30683,61954,4
30674,61933,5
30663,61927,5
30664,61916,5
30660,61914,5
30657,61926,4
30657,61919,5
30663,61913,5
30657,61907,5
30658,61901,5
30654,61895,4
30639,61877,5
30629,61848,5
30613,61815,5
30604,61791,4
30604,61779,5
30599,61779,5
30597,61773,5
30595,61793,5
30603,61816,4
30610,61806,5
30600,61794,5
30600,61771,5
30590,61770,5
30602,61764,4
30594,61776,5
30606,61791,5
30607,61784,5
30607,61793,5
30609,61817,4
30625,61837,5
30633,61853,5
30640,61852,5
30638,61857,5
30639,61856,5
30645,61871,4
30648,61877,5
30661,61915,5
30680,61943,4
30700,61982,5
30709,62013,5
30713,62033,5
30720,62048,5
30722,62050,4
30726,62034,5
30711,62037,5
30713,62038,5
30714,62036,5
30715,62031,4
30720,62040,5
30711,62040,5
30724,62042,5
30725,62056,5
30734,62059,4
30726,62056,5
30727,62068,5
30722,62078,4
30734,62078,5
30731,62093,4
30739,62106,6
30743,62108,3
30750,62122,5
30751,62116,4
30762,62133,4
30761,62144,5
30760,62147,5
30760,62150,5
30772,62157,4
30772,62168,5
30778,62167,5
30784,62176,5
30772,62181,5
30791,62176,4
30782,62192,5
30781,62205,5
30786,62210,5
30786,62220,5
30808,62212,4
30799,62216,5
30802,62224,5
30795,62219,6
30800,62225,4
30798,62238,4
30804,62233,5
30804,62241,5
30815,62237,5
30812,62255,4
30823,62273,4
30826,62270,5
30830,62274,5
30836,62288,5
30836,62296,4
30836,62305,5
30827,62307,5
30844,62310,5
30834,62313,5
30840,62311,4
30831,62302,5
30831,62311,5
30828,62314,5
30851,62311,5
30827,62314,5
30840,62313,4
30834,62307,5
30833,62311,5
30835,62314,6
30842,62311,3
30840,62316,5
30845,62328,5
30843,62322,5
30848,62326,5
30850,62336,4
30849,62339,5
30845,62333,5
30854,62337,5
30857,62347,4
30852,62362,5
30864,62350,5
30861,62362,5
30860,62367,5
30860,62365,4
30857,62364,5
30851,62361,10
30862,62366,5
30853,62364,4
30852,62362,6
30857,62357,4
30860,62363,5
30864,62355,5
30854,62360,6
30860,62357,3
30848,62357,5
30865,62356,5
30855,62355,5
30861,62357,4
30860,62355,5
30865,62370,5
30870,62368,5
30859,62368,4
30862,62375,5
30871,62361,5
30865,62367,5
30858,62370,5
30859,62362,4
30859,62364,5
30859,62364,5
30863,62360,5
30850,62371,5
30866,62372,4
30866,62373,5
30868,62370,6
30862,62368,4
30857,62367,5
30858,62372,4
30866,62381,5
30866,62385,5
30872,62377,5
30871,62389,5
30866,62384,4
30871,62391,5
30876,62394,5
30872,62400,5
30873,62400,4
30873,62404,5
30874,62398,5
30877,62409,5
30878,62410,5
30880,62407,4
30880,62408,5
30883,62410,5
30873,62410,5
30874,62414,5
30870,62413,4
30886,62415,5
30877,62411,5
30882,62412,6
30882,62413,4
30886,62417,4
30884,62413,5
30877,62414,5
30880,62414,5
30878,62414,5
30876,62408,4
30878,62409,5
30878,62423,5
30881,62410,5
30878,62417,4
30873,62406,5
30874,62417,5
30876,62409,5
30875,62420,5
30884,62418,4
30879,62409,5
30880,62417,5
30880,62406,5
30880,62413,5
30871,62413,5
30878,62415,4
30878,62408,5
30877,62413,5
30882,62409,6
30880,62414,3
30877,62400,5
30877,62400,5
30875,62407,5
30881,62416,5
30881,62428,4
30885,62418,5
30878,62422,5
30891,62431,5
30885,62426,4
30886,62423,4
30894,62427,5
30890,62429,5
30885,62427,5
30889,62431,4
30890,62435,5
30878,62437,5
30884,62430,5
30892,62441,5
30878,62429,4
30878,62428,6
30889,62431,4
30888,62433,5
30884,62434,5
30892,62436,4
30893,62443,5
30897,62444,5
30897,62437,5
30893,62436,5
30894,62435,4
30891,62444,5
30895,62439,5
30890,62442,5
30894,62448,4
30892,62446,4
30889,62440,5
30897,62437,5
30893,62450,5
30892,62440,4
30895,62441,5
30894,62445,5
30881,62438,5
30896,62432,5
30888,62439,4
30888,62435,5
30897,62436,6
30899,62442,4
30891,62440,5
30890,62448,4
30890,62448,5
30896,62454,5
30902,62446,5
30889,62453,5
30894,62436,4
30896,62460,5
30895,62450,5
30903,62457,5
30902,62458,4
30901,62465,4
30901,62467,5
30902,62471,5
30905,62467,5
30906,62467,4
30902,62462,5
30904,62467,5
30906,62465,5
30906,62463,5
30911,62467,4
30895,62471,5
30904,62465,5
30905,62469,6
30906,62465,4
30905,62473,4
30903,62467,5
30911,62472,5
30914,62479,5
30901,62470,5
30907,62474,4
30897,62473,5
30902,62465,5
30911,62461,5
30910,62470,4
30912,62468,4
30903,62475,5
30914,62462,5
30906,62472,5
30905,62464,4
30908,62462,5
30904,62460,5
30898,62474,5
30904,62460,5
30905,62458,5
30905,62468,4
30901,62465,5
30903,62467,5
30906,62470,5
30896,62464,4
30898,62471,5
30902,62473,5
30900,62471,5
30907,62475,5
30900,62475,4
30902,62472,5
30904,62480,5
30910,62472,5
30906,62475,4
30901,62466,4
30912,62468,5
30906,62472,5
30902,62477,5
30910,62474,4
30909,62475,5
30904,62470,5
30905,62473,5
30906,62467,5
30904,62469,4
30909,62473,6
30898,62469,4
30908,62478,5
30912,62471,5
30904,62472,4
30907,62476,5
30914,62480,5
30910,62471,5
30912,62477,5
30914,62483,4
30902,62488,5
30906,62486,5
30904,62480,5
30907,62480,5
30907,62475,4
30905,62476,5
30914,62472,5
30903,62477,5
30910,62479,4
30906,62482,5
30899,62475,5
30905,62474,5
30905,62476,5
30909,62474,4
30907,62475,5
30912,62484,6
30911,62487,4
30912,62480,5
30916,62477,4
30910,62481,5
30914,62488,5
30907,62491,5
30913,62486,5
30914,62486,4
30911,62497,5
30908,62479,5
30915,62485,5
30910,62492,5
30910,62488,4
30909,62502,5
30913,62495,5
30917,62496,5
30914,62495,4
30910,62497,5
30909,62495,5
30922,62496,5
30916,62492,5
30919,62496,4
30905,62488,5
30908,62496,5
30917,62493,5
30922,62500,5
30914,62494,4
30910,62488,5
30919,62485,5
30904,62489,5
30918,62483,5
30918,62491,4
30904,62489,5
30908,62495,5
30917,62494,5
30914,62491,5
30912,62489,4
30912,62484,5
30907,62479,5
30907,62476,5
30910,62480,4
30907,62481,5
30909,62475,5
30912,62480,5
30908,62478,5
30901,62465,5
30905,62465,4
30901,62453,5
30898,62450,5
30896,62453,5
30892,62454,4
30891,62450,5
30890,62457,5
30889,62447,5
30898,62456,5
30889,62456,4
30893,62457,5
30896,62450,5
30896,62458,5
30891,62445,5
30885,62441,4
30890,62446,5
30883,62439,5
30888,62433,5
30887,62439,4
30885,62430,5
30883,62423,5
30880,62433,5
30887,62423,5
30881,62406,4
30875,62405,6
30877,62409,4
30877,62406,5
30875,62404,5
30873,62382,4
30858,62368,5
30860,62351,5
30855,62331,5
30845,62331,5
30840,62330,4
30841,62336,5
30850,62343,5
30850,62348,5
30848,62351,5
30851,62350,4
30854,62350,5
30851,62342,5
30850,62347,5
30851,62346,4
30845,62329,4
30847,62328,5
30836,62330,6
30834,62314,4
30831,62299,4
30817,62286,5
30810,62263,5
30817,62261,5
30817,62263,5
30819,62282,4
30820,62301,5
30833,62302,5
30820,62289,5
30815,62279,5
30811,62271,4
30814,62264,5
30805,62272,5
30820,62275,5
30814,62291,5
30815,62289,4
30824,62289,5
30825,62272,5
30806,62252,5
30799,62244,5
30804,62228,4
30797,62236,5
30810,62239,5
30800,62253,6
30809,62264,3
30816,62264,5
30818,62278,5
30823,62281,5
30820,62284,5
30824,62299,4
30821,62289,5
30826,62292,5
30830,62299,5
30823,62302,5
30828,62307,4
30842,62334,5
30844,62335,5
30853,62342,5
30844,62350,5
30848,62357,4
30856,62348,5
30848,62358,5
30856,62362,5
30855,62362,5
30861,62365,5
30861,62369,4
30852,62365,5
30860,62371,5
30853,62371,6
30861,62374,3
30862,62376,5
30863,62379,5
30861,62388,5
30862,62381,4
30858,62382,5
30865,62378,5
30862,62391,5
30866,62395,5
30869,62390,4
30876,62396,5
30868,62407,5
30876,62408,5
30879,62411,5
30875,62408,4
30872,62417,5
30879,62431,5
30884,62416,5
30884,62423,5
30886,62424,4
30884,62420,6
30882,62419,4
30889,62436,5
30888,62428,4
30880,62434,5
30890,62438,5
30892,62448,5
30895,62448,5
30898,62453,4
30906,62456,5
30904,62463,5
30907,62463,5
30914,62475,5
30903,62465,4
30899,62466,5
30907,62479,5
30903,62477,5
30900,62482,5
30909,62473,4
30903,62485,5
30903,62479,5
30903,62481,5
30913,62481,5
30920,62478,4
30909,62477,5
30902,62478,6
30898,62477,4
30914,62484,4
30901,62481,5
30899,62476,5
30900,62480,5
30903,62480,5
30910,62483,4
30907,62484,5
30905,62477,8
30906,62476,2
30910,62482,5
30911,62484,4
30934,62489,5
30910,62485,5
30908,62490,5
30917,62488,5
30911,62493,4
30915,62495,5
30919,62497,5
30916,62504,5
30912,62498,5
30917,62501,4
30923,62499,5
30916,62497,5
30924,62503,6
30923,62503,3
30915,62511,5
30922,62499,5
30920,62502,5
30922,62510,5
30918,62500,4
30920,62487,5
30915,62495,5
30914,62496,5
30921,62489,5
30909,62497,4
30909,62492,5
30907,62500,5
30916,62491,5
30914,62496,5
30912,62493,4
30916,62491,5
30916,62486,5
30916,62495,5
30910,62491,5
30919,62497,5
30919,62489,4
30911,62490,5
30910,62501,5
30921,62496,6
30914,62491,3
30919,62495,5
30913,62495,5
30921,62499,5
30915,62501,4
30918,62498,5
30920,62493,5
30920,62494,5
30911,62489,5
30910,62490,4
30922,62491,5
30917,62492,5
30910,62496,5
30915,62492,5
30919,62491,4
30920,62495,5
30921,62497,5
30907,62489,5
30920,62496,5
30917,62500,4
30914,62497,6
30917,62501,4
30913,62488,5
30919,62504,4
30920,62501,4
30914,62500,5
30914,62488,5
30913,62490,5
30921,62493,4
30916,62491,5
30918,62486,5
30917,62492,5
30910,62493,5
30907,62488,4
30913,62497,5
30913,62505,5
30917,62495,5
30916,62492,5
30909,62491,4
30922,62498,5
30909,62488,5
30914,62497,5
30909,62494,5
30910,62490,4
30915,62498,5
30912,62484,6
30912,62487,4
30903,62488,4
30914,62494,4
30909,62486,5
30906,62495,5
30915,62494,5
30913,62492,4
30920,62486,5
30909,62490,5
30911,62492,5
30914,62502,5
30909,62494,4
30909,62495,5
30907,62501,5
30910,62504,5
30911,62504,5
30922,62514,4
30908,62509,5
30921,62505,5
30915,62504,5
30920,62506,5
30921,62504,4
30909,62508,5
30929,62508,5
30922,62505,6
30917,62510,4
30920,62508,4
30919,62504,5
30928,62514,5
30925,62512,5
30919,62512,4
30919,62512,5
30918,62510,5
30919,62507,5
30921,62508,5
30917,62512,4
30922,62518,5
30911,62508,5
30925,62511,5
30916,62509,5
30924,62508,4
30923,62513,5
30919,62512,5
30924,62511,5
30916,62521,5
30929,62522,5
30915,62519,4
30926,62522,5
30923,62510,5
30923,62517,5
30927,62523,4
30914,62517,5
30924,62520,5
30922,62514,5
30929,62524,4
30924,62525,5
30917,62514,5
30915,62519,5
30930,62519,5
30920,62536,4
30925,62516,5
30925,62519,5
30917,62519,5
30932,62532,5
30923,62522,4
30924,62520,5
30915,62525,5
30917,62505,5
30921,62521,5
30920,62525,4
30919,62514,6
30928,62524,4
30922,62516,5
30922,62514,5
30925,62524,4
30920,62509,5
30921,62521,5
30917,62520,5
30916,62513,4
30924,62519,5
30928,62516,5
30917,62517,5
30923,62528,5
30926,62509,4
30915,62511,5
30920,62521,5
30927,62523,5
30925,62513,5
30924,62517,4
30922,62517,5
30922,62518,5
30918,62516,5
30923,62518,5
30927,62518,4
30918,62517,5
30924,62516,6
30923,62513,4
30920,62516,5
30924,62514,4
30919,62519,5
30925,62524,5
30931,62518,5
30925,62528,4
30922,62531,5
30925,62527,5
30922,62525,5
30922,62536,5
30924,62539,4
30925,62529,5
30928,62540,5
30931,62532,5
30936,62534,5
30926,62533,4
30930,62541,5
30927,62539,5
30932,62536,5
30928,62538,5
30931,62533,4
30926,62530,5
30931,62534,5
30932,62543,5
30927,62539,5
30926,62536,4
30930,62540,5
30934,62541,5
30931,62527,5
30928,62540,4
30922,62531,4
30923,62532,5
30916,62533,5
30932,62527,5
30917,62527,4
30922,62533,5
30925,62534,5
30925,62528,5
30922,62531,5
30919,62527,4
30922,62529,5
30929,62522,5
30922,62519,5
30923,62534,5
30923,62522,5
30923,62530,4
30934,62537,5
30925,62538,5
30921,62538,5
30928,62537,4
30926,62532,5
30931,62543,5
30925,62543,5
30928,62532,4
30928,62543,4
30930,62543,5
30932,62543,5
30924,62533,5
30928,62548,4
30922,62536,5
30932,62547,5
30921,62541,5
30930,62546,5
30926,62551,4
30930,62546,5
30929,62546,5
30935,62545,5
30926,62539,5
30929,62544,4
30939,62553,6
30921,62549,4
30931,62550,5
30933,62544,5
30933,62550,4
30927,62548,5
30931,62542,5
30937,62544,5
30931,62547,5
30928,62550,4
30939,62547,5
30928,62549,5
30933,62544,5
30930,62544,4
30933,62552,5
30929,62549,5
30924,62555,5
30930,62558,5
30940,62556,4
30936,62553,5
30935,62564,5
30932,62561,6
30944,62557,4
30934,62564,4
30940,62563,5
30939,62569,5
30937,62571,5
30933,62554,5
30934,62558,4
30935,62563,5
30938,62565,5
30939,62558,5
30933,62564,5
30933,62559,4
30931,62555,5
30937,62552,5
30941,62566,5
30933,62558,4
30936,62549,5
30941,62555,5
30931,62561,5
30930,62565,5
30942,62565,5
30938,62565,4
30933,62556,5
30942,62556,5
30945,62548,6
30936,62560,3
30929,62550,5
30931,62545,5
30928,62551,5
30937,62556,5
30930,62550,4
30939,62561,5
30937,62561,5
30944,62552,5
30938,62561,5
30932,62557,4
30933,62562,5
30932,62550,5
30935,62558,5
30941,62558,4
30937,62557,4
30936,62551,5
30929,62554,5
30931,62561,5
30941,62554,4
30932,62560,6
30941,62564,4
30937,62560,5
30932,62561,5
30936,62557,6
30936,62557,3
30937,62550,5
30929,62561,5
30933,62563,5
30939,62560,4
30943,62557,5
30932,62559,5
30939,62552,5
30934,62559,5
30927,62556,4
30931,62550,5
30939,62559,5
30938,62562,5
30941,62556,4
30923,62549,4
30934,62554,5
30937,62552,5
30943,62549,5
30932,62555,4
30932,62561,5
30935,62558,6
30938,62549,4
30934,62552,5
30929,62546,4
30929,62557,5
30932,62559,5
30939,62549,5
30925,62549,5
30930,62542,4
30932,62551,5
30939,62557,5
30931,62546,5
30936,62558,5
30937,62551,4
30943,62548,5
30943,62548,5
30935,62554,5
30936,62560,4
30927,62561,4
30940,62562,5
30928,62564,5
30929,62565,5
30936,62562,4
30941,62559,5
30938,62569,5
30940,62560,6
30934,62560,4
30938,62574,4
30940,62568,5
30945,62568,5
30944,62567,5
30941,62563,5
30937,62566,4
30941,62564,5
30938,62572,5
30941,62573,5
30934,62555,5
30950,62558,4
30939,62568,5
30943,62563,5
30945,62562,5
30944,62565,5
30934,62556,4
30933,62564,5
30926,62568,5
30948,62561,5
30943,62564,5
30937,62566,4
30940,62555,5
30940,62558,5
30932,62558,6
30946,62561,3
30949,62556,5
30938,62555,5
30939,62560,5
30944,62558,5
30930,62557,4
30937,62561,5
30938,62552,5
30942,62555,5
30934,62559,5
30940,62565,4
30943,62565,5
30930,62563,5
30932,62566,5
30934,62555,5
30931,62557,4
30935,62565,5
30935,62557,5
30939,62555,5
30936,62549,4
30928,62553,11
30928,62553,4
30931,62558,5
30932,62560,4
30933,62559,5
30931,62559,5
30935,62559,5
30927,62555,5
30935,62560,4
30935,62551,5
30933,62558,5
30941,62563,5
30938,62561,5
30936,62548,4
30934,62549,5
30941,62559,5
30937,62543,5
30930,62554,5
30936,62554,4
30937,62548,5
30941,62558,5
30936,62560,5
30931,62550,4
30939,62550,4
30935,62545,6
30933,62548,4
30928,62553,5
30927,62546,4
30936,62542,5
30937,62547,5
30931,62549,5
30936,62546,5
30929,62549,4
30934,62550,5
30941,62556,5
30942,62555,5
30932,62554,5
30940,62551,4
30939,62566,5
30942,62560,5
30933,62564,5
30944,62562,5
30938,62573,4
30936,62570,5
30946,62566,5
30932,62566,5
30947,62560,4
30938,62563,4
30939,62561,5
30935,62570,6
30937,62565,4
30938,62563,4
30944,62567,5
30937,62558,5
30936,62567,5
30938,62564,5
30931,62563,4
30941,62559,5
30939,62563,5
30937,62569,5
30936,62556,5
30942,62571,4
30946,62572,5
30942,62572,5
30946,62555,5
30935,62558,5
30944,62562,4
30939,62563,5
30939,62561,5
30939,62557,5
30937,62556,5
30944,62560,4
30938,62563,5
30953,62562,5
30931,62558,6
30935,62567,3
30941,62567,5
30943,62551,5
30936,62559,5
30935,62560,5
30943,62562,4
30945,62554,5
30936,62558,5
30934,62567,5
30942,62566,5
30936,62566,4
30950,62559,5
30942,62564,5
30936,62564,5
30932,62561,5
30937,62567,4
30942,62553,5
30937,62562,5
30942,62559,5
30942,62556,5
30943,62565,5
30933,62562,4
30936,62566,5
30944,62552,5
30931,62563,4
30937,62563,5
30935,62556,5
30938,62561,5
30937,62559,5
30940,62566,4
30940,62566,5
30933,62561,5
30935,62568,5
30945,62564,5
30948,62567,4
30945,62557,5
30939,62566,5
30946,62561,5
30944,62563,5
30936,62567,4
30941,62566,5
30945,62559,5
30941,62565,5
30946,62561,5
30942,62565,4
30938,62559,6
30939,62569,4
30941,62558,5
30937,62569,4
30950,62564,5
30948,62565,5
30941,62570,5
30937,62573,5
30947,62560,4
30945,62565,5
30945,62563,5
30934,62569,5
30940,62560,5
30939,62552,4
30928,62556,5
30939,62559,5
30941,62554,5
30928,62550,5
30934,62562,4
30938,62559,5
30934,62559,5
30936,62573,5
30939,62556,5
30940,62560,4
30931,62559,5
30941,62564,6
30946,62573,4
30945,62569,4
30944,62571,5
30946,62578,5
30937,62574,5
30949,62567,5
30948,62572,4
30942,62588,5
30949,62574,5
30948,62583,5
30950,62575,5
30951,62576,4
30947,62576,5
30944,62580,5
30945,62576,5
30950,62591,5
30950,62577,4
30941,62577,5
30951,62583,5
30949,62568,5
30949,62576,5
30939,62576,4
30946,62575,5
30944,62580,5
30944,62582,5
30942,62580,4
30943,62577,4
30944,62571,5
30944,62566,5
30942,62572,5
30942,62572,4
30944,62570,5
30942,62570,5
30939,62571,5
30947,62571,5
30947,62564,4
30939,62563,5
30942,62572,5
30939,62557,5
30940,62560,5
30938,62566,4
30944,62562,5
30949,62566,5
30942,62564,5
30940,62564,5
30942,62571,5
30934,62563,4
30930,62560,5
30936,62559,5
30936,62550,5
30938,62557,4
30936,62547,5
30940,62554,5
30936,62554,5
30934,62555,4
30935,62568,5
30932,62551,5
30931,62546,5
30926,62557,5
30939,62551,4
30932,62549,5
30931,62554,5
30929,62551,5
30938,62549,5
30931,62555,4
30933,62549,5
30926,62558,5
30932,62547,5
30935,62550,5
30929,62551,4
30926,62549,6
30933,62537,4
30935,62536,5
30933,62539,5
30927,62534,4
30930,62544,5
30921,62545,5
30925,62542,5
30931,62541,4
30935,62547,5
30937,62545,5
30940,62542,5
30932,62552,5
30938,62551,4
30933,62541,5
30932,62548,5
30936,62550,5
30935,62548,5
30932,62558,4
30926,62551,5
30940,62544,5
30931,62544,6
30930,62541,4
30935,62544,4
30932,62540,5
30929,62548,5
30935,62549,5
30939,62543,5
30929,62532,4
30936,62544,5
30937,62548,5
30931,62543,5
30932,62550,4
30933,62552,5
30937,62562,5
30939,62559,5
30934,62552,5
30945,62562,4
30945,62567,5
30937,62564,5
30941,62562,5
30943,62559,5
30935,62565,5
30936,62554,4
30937,62563,5
30939,62564,5
30930,62555,6
30940,62555,3
30931,62558,5
30930,62561,5
30942,62566,5
30934,62560,5
30939,62565,4
30927,62554,5
30932,62560,5
30940,62565,5
30934,62558,4
30934,62547,4
30935,62553,5
30942,62554,5
30941,62563,5
30935,62550,4
30937,62549,5
30940,62544,5
30932,62552,5
30932,62550,5
30926,62538,4
30926,62542,6
30934,62541,4
30940,62535,5
30932,62543,5
30936,62539,6
30930,62537,3
30928,62528,5
30932,62528,5
30919,62526,5
30922,62511,4
30912,62511,5
30903,62508,5
30906,62496,5
30903,62493,5
30904,62491,4
30910,62487,5
30910,62482,5
30908,62474,5
30898,62471,4
30900,62458,5
30893,62458,5
30896,62462,5
30898,62458,5
30896,62461,4
30891,62455,5
30891,62458,6
30898,62445,4
30882,62445,5
30889,62436,4
30877,62416,5
30877,62411,5
30868,62405,5
30870,62394,5
30866,62398,4
30870,62396,5
30868,62389,5
30859,62391,5
30875,62406,5
30868,62399,4
30861,62394,5
30857,62386,5
30860,62370,5
30863,62382,4
30858,62381,5
30867,62394,5
30867,62392,5
30867,62393,5
30865,62390,4
30870,62383,5
30865,62380,5
30854,62358,6
30851,62364,4
30848,62360,4
30851,62352,5
30840,62356,5
30857,62365,5
30850,62369,5
30850,62378,4
30856,62375,5
30853,62371,5
30846,62378,5
30853,62360,5
30851,62351,4
30844,62347,5
30844,62352,5
30846,62353,5
30842,62347,4
30852,62362,5
30846,62361,5
30853,62366,5
30856,62366,5
30853,62373,5
30852,62365,4
30855,62370,5
30851,62371,5
30860,62371,6
30858,62372,3
30860,62369,5
30859,62377,5
30850,62371,5
30852,62376,5
30859,62372,4
30854,62376,5
30854,62372,5
30865,62376,5
30856,62380,5
30850,62370,4
30850,62365,5
30862,62366,5
30858,62375,5
30862,62389,4
30858,62396,5
30861,62389,5
30864,62400,5
30863,62401,5
30869,62406,4
30864,62399,6
30868,62389,4
30874,62404,5
30873,62406,5
30874,62395,4
30868,62402,5
30862,62392,5
30865,62398,5
30869,62401,5
30877,62408,4
30876,62411,5
30873,62411,5
30882,62426,5
30877,62416,5
30876,62423,4
30873,62420,5
30873,62430,5
30883,62424,5
30885,62422,4
30883,62430,4
30888,62435,5
30887,62440,5
30882,62437,5
30889,62443,4
30882,62445,5
30887,62439,6
30880,62438,4
30898,62445,5
30880,62434,4
30890,62436,5
30882,62438,5
30885,62430,5
30878,62439,5
30881,62436,4
30879,62435,5
30879,62436,5
30885,62440,5
30878,62443,5
30881,62435,8
30875,62435,1
30866,62427,5
30882,62445,5
30885,62436,4
30882,62437,4
30892,62451,5
30886,62441,5
30885,62447,5
30887,62447,4
30894,62447,5
30894,62452,5
30892,62457,6
30896,62462,4
30891,62455,4
30895,62458,5
30898,62460,5
30903,62471,5
30898,62462,5
30895,62460,4
30895,62471,5
30898,62461,5
30894,62466,5
30903,62473,5
30894,62479,4
30903,62469,5
30901,62463,5
30901,62468,5
30906,62476,4
30896,62473,4
30900,62465,5
30896,62471,5
30900,62471,5
30897,62472,5
30889,62470,4
30897,62462,5
30897,62464,5
30900,62471,5
30899,62464,4
30895,62466,5
30907,62477,5
30901,62479,5
30905,62482,5
30897,62484,4
30905,62478,5
30895,62473,5
30904,62480,5
30905,62485,5
30900,62481,4
30907,62484,5
30901,62481,5
30893,62489,5
30900,62486,5
30902,62483,4
30905,62475,5
30901,62482,5
30902,62486,5
30904,62485,4
30912,62480,6
30910,62481,4
30905,62483,5
30906,62487,5
30910,62485,4
30899,62489,5
30901,62489,5
30912,62488,5
30905,62488,5
30911,62496,4
30918,62486,5
30905,62488,5
30907,62494,5
30916,62499,5
30906,62499,4
30905,62492,5
30909,62487,5
30908,62491,5
30903,62487,5
30904,62489,4
30903,62486,5
30901,62488,5
30907,62493,5
30899,62481,4
30906,62482,5
30905,62487,6
30906,62488,4
30900,62489,5
30906,62492,4
30911,62496,5
30916,62496,5
30910,62492,5
30914,62496,5
30919,62502,4
30915,62502,5
30909,62498,5
30910,62503,5
30912,62503,5
30910,62500,4
30912,62500,5
30912,62494,5
30911,62505,5
30908,62506,5
30914,62508,4
30912,62503,5
30908,62499,5
30913,62507,5
30915,62501,4
30915,62497,4
30914,62495,5
30916,62503,5
30916,62503,5
30902,62496,4
30918,62498,5
30918,62501,5
30905,62504,5
30913,62504,5
30919,62512,4
30912,62506,5
30916,62506,5
30919,62499,5
30910,62507,5
30916,62504,4
30914,62512,5
30914,62495,5
30910,62510,5
30912,62507,5
30922,62500,4
30903,62499,5
30917,62504,5
30912,62504,5
30912,62494,5
30914,62507,4
30921,62502,5
30911,62503,5
30915,62509,5
30915,62509,4
30911,62505,5
30911,62515,5
30913,62501,5
30916,62510,5
30913,62502,4
30917,62507,5
30910,62502,5
30921,62506,5
30916,62501,5
30910,62504,4
30921,62495,5
30914,62501,5
30913,62496,5
30919,62503,5
30916,62515,4
30925,62516,5
30920,62518,5
30915,62505,5
30916,62512,5
30920,62512,6
30917,62506,3
30917,62506,5
30913,62514,5
30916,62505,4
30922,62511,5
30916,62512,5
30915,62498,5
30920,62510,5
30919,62501,4
30909,62507,5
30919,62505,5
30914,62505,5
30914,62506,5
30914,62506,4
30919,62504,5
30916,62516,5
30917,62513,5
30919,62515,5
30920,62510,4
30919,62513,5
30916,62516,5
30912,62515,4
30916,62515,5
30912,62514,4
30920,62510,7
30916,62522,3
30923,62523,5
30918,62514,4
30921,62516,5
30923,62507,5
30923,62522,5
30919,62525,5
30923,62522,4
30916,62523,5
30918,62519,5
30923,62517,5
30920,62518,5
30921,62513,4
30921,62527,5
30919,62525,5
30921,62518,5
30916,62512,5
30924,62510,4
30919,62513,5
30914,62526,5
30922,62525,6
30918,62515,4
30920,62517,4
30927,62516,5
30917,62521,5
30919,62524,5
30923,62529,4
30917,62531,4
30929,62519,5
30914,62521,5
30918,62529,5
30930,62519,4
30916,62522,5
30927,62520,5
30921,62521,5
30922,62527,5
30917,62520,4
30928,62516,5
30923,62515,5
30917,62518,5
30923,62525,5
30920,62509,5
30918,62527,4
30927,62518,5
30928,62528,5
30924,62525,6
30920,62527,3
30924,62525,5
30919,62522,5
30920,62520,5
30921,62523,4
30919,62512,4
30922,62520,5
30931,62519,5
30926,62528,5
30923,62524,4
30918,62515,5
30926,62512,5
30919,62524,5
30911,62525,5
30925,62524,4
30929,62527,5
30923,62526,5
30922,62515,5
30918,62514,5
30920,62514,4
30917,62521,6
30925,62512,4
30921,62521,5
30918,62515,5
30927,62507,6
30922,62516,3
30922,62513,5
30921,62513,5
30919,62518,5
30922,62517,4
30921,62514,5
30928,62508,5
30917,62515,5
30923,62516,4
30920,62522,5
30917,62517,5
30920,62513,5
30914,62518,5
30914,62515,4
30922,62522,5
30920,62522,5
30929,62519,5
30921,62523,5
30918,62528,4
30924,62531,5
30918,62530,6
30930,62527,4
30925,62534,5
30931,62528,4
30919,62527,5
30926,62522,5
30919,62526,5
30918,62515,5
30916,62535,4
30933,62518,5
30922,62528,5
30921,62526,5
30919,62530,4
30922,62531,5
30929,62519,5
30927,62522,5
30926,62529,5
30927,62530,4
30919,62531,5
30926,62532,5
30925,62524,5
30925,62519,5
30923,62526,4
30921,62528,5
30921,62526,5
30933,62521,6
30928,62531,4
30922,62520,4
30924,62519,5
30921,62528,5
30923,62532,5
30928,62523,5
30924,62528,4
30922,62523,5
30929,62523,5
30922,62529,5
30918,62523,4
30922,62524,4
30923,62526,5
30919,62529,5
30921,62522,5
30929,62535,4
30920,62524,5
30917,62525,5
30926,62530,5
30923,62521,5
30928,62530,5
30924,62521,4
30926,62532,5
30930,62522,5
30919,62529,6
30923,62533,3
30921,62529,5
30933,62531,5
30925,62527,5
30920,62533,5
30928,62525,4
30926,62526,5
30919,62521,5
30921,62523,5
30923,62517,4
30922,62523,4
30914,62531,5
30920,62523,5
30917,62523,5
30924,62526,4
30928,62523,5
30917,62519,5
30923,62532,5
30921,62533,5
30919,62534,4
30920,62530,6
30916,62532,4
30916,62537,5
30922,62530,5
30930,62534,4
30918,62520,5
30921,62528,5
30925,62531,5
30924,62526,5
30932,62518,4
30933,62525,5
30917,62528,5
30919,62524,5
30923,62531,5
30919,62526,4
30924,62522,5
30924,62525,5
30923,62516,5
30918,62523,4
30924,62524,5
30925,62524,5
30927,62527,5
30929,62521,5
30928,62529,4
30923,62536,5
30927,62527,6
30920,62533,4
30934,62529,5
30921,62536,4
30934,62538,5
30929,62536,5
30927,62536,5
30928,62539,5
30930,62537,4
30938,62539,5
30926,62545,5
30937,62545,5
30936,62538,5
30934,62537,4
30931,62545,5
30940,62536,5
30941,62545,5
30928,62540,4
30930,62544,4
30936,62542,5
30935,62542,5
30925,62547,5
30925,62538,4
30933,62541,5
30926,62540,5
30927,62535,6
30932,62534,4
30927,62544,4
30932,62534,5
30925,62539,5
30929,62536,5
30932,62530,5
30932,62540,4
30930,62537,5
30932,62543,5
30920,62527,5
30927,62531,5
30930,62536,4
30928,62545,5
30928,62539,5
30931,62546,5
30932,62537,5
30926,62541,4
30925,62540,5
30919,62526,5
30927,62536,5
30929,62526,5
30919,62534,4
30926,62531,5
30929,62530,5
30925,62529,5
30928,62526,6
30926,62526,3
30922,62526,5
30920,62523,5
30924,62530,5
30927,62531,4
30922,62530,5
30922,62535,5
30927,62536,5
30921,62523,5
30922,62528,4
30919,62532,5
30923,62524,5
30920,62530,5
30929,62530,5
30923,62531,4
30928,62528,5
30913,62528,5
30923,62525,5
30918,62522,4
30919,62531,6
30926,62531,4
30918,62527,5
30918,62524,5
30923,62525,4
30919,62520,5
30916,62525,5
30921,62521,5
30921,62526,5
30915,62519,4
30916,62520,5
30918,62526,5
30925,62523,5
30921,62526,5
30918,62521,4
30926,62534,5
30916,62526,5
30919,62530,5
30925,62531,5
30925,62518,4
30930,62524,5
30921,62522,5
30913,62519,5
30920,62528,4
30919,62516,4
30913,62516,6
30923,62516,4
30913,62523,5
30911,62519,4
30909,62522,5
30919,62511,5
30917,62520,5
30917,62526,5
30922,62525,4
30915,62535,5
30929,62524,5
30921,62524,5
30922,62521,5
30914,62520,4
30916,62527,5
30921,62520,5
30924,62521,5
30925,62529,5
30921,62535,4
30926,62530,5
30925,62535,5
30924,62527,5
30925,62531,5
30920,62527,4
30925,62533,5
30918,62527,5
30930,62528,5
30925,62526,4
30917,62522,5
30924,62531,5
30926,62531,5
30924,62524,5
30925,62520,4
30924,62531,5
30916,62524,5
30912,62531,5
30923,62532,5
30918,62521,4
30925,62524,5
30923,62522,5
30924,62534,5
30921,62524,5
30921,62529,4
30931,62525,5
30927,62527,5
30930,62528,5
30917,62530,5
30926,62534,4
30915,62525,5
30925,62526,5
30913,62525,5
30919,62524,4
30912,62524,4
30922,62527,5
30925,62525,5
30923,62532,5
30915,62526,4
30928,62520,5
30925,62525,5
30923,62517,5
30923,62525,5
30920,62509,4
30920,62519,5
30925,62529,5
30922,62521,5
30923,62517,5
30913,62527,4
30913,62516,5
30920,62517,5
30914,62522,5
30917,62513,5
30915,62506,5
30914,62508,4
30915,62523,5
30912,62516,5
30914,62507,4
30913,62502,4
30916,62513,5
30920,62520,5
30910,62515,5
30913,62510,4
30919,62516,5
30911,62509,5
30916,62511,5
30917,62513,5
30914,62514,4
30914,62512,5
30916,62522,5
30909,62512,5
30910,62511,5
30910,62514,4
30915,62505,5
30921,62516,5
30912,62509,4
30914,62516,5
30911,62508,4
30907,62513,7
30924,62500,3
30915,62514,5
30903,62510,5
30916,62513,4
30908,62511,5
30909,62506,5
30914,62511,5
30918,62514,4
30906,62506,5
30920,62503,5
30909,62519,5
30917,62511,5
30910,62500,4
30913,62509,5
30912,62514,5
30916,62504,5
30922,62505,5
30909,62508,4
30916,62509,5
30913,62515,5
30917,62514,6
30913,62515,4
30906,62505,4
30913,62506,5
30918,62510,5
30905,62514,5
30916,62518,5
30908,62506,4
30914,62503,5
30909,62507,5
30913,62509,5
30915,62508,4
30917,62515,5
30912,62507,5
30909,62502,5
30917,62507,5
30909,62504,4
30915,62505,5
30916,62506,5
30908,62500,5
30907,62499,5
30901,62503,5
30912,62494,4
30915,62498,5
30908,62496,5
30911,62500,6
30905,62502,3
30905,62496,5
30914,62500,5
30906,62491,5
30909,62500,5
30909,62497,4
30910,62493,5
30903,62502,5
30901,62496,5
30908,62497,4
30895,62500,4
30903,62489,5
30902,62491,5
30899,62487,5
30894,62484,4
30893,62471,5
30893,62485,5
30883,62468,5
30886,62476,5
30885,62457,4
30885,62457,6
30886,62451,4
30882,62449,5
30876,62435,5
30870,62431,6
30869,62426,3
30870,62416,5
30861,62405,5
30858,62394,5
30854,62378,4
30847,62371,5
30854,62370,5
30851,62357,5
30845,62363,5
30849,62353,4
30835,62362,5
30848,62365,5
30840,62355,5
30840,62343,4
30828,62324,5
30816,62306,5
30823,62296,5
30815,62292,5
30810,62279,4
30808,62267,5
30803,62254,6
30791,62236,4
30784,62223,5
30779,62225,4
30779,62208,5
30775,62216,5
30778,62209,5
30768,62185,5
30753,62139,4
30731,62106,5
30716,62078,5
30708,62068,5
30711,62060,5
30698,62043,4
30704,62016,5
30692,62001,5
30678,61974,5
30674,61945,4
30665,61943,4
30662,61934,5
30652,61929,5
30661,61922,5
30648,61891,4
30643,61885,5
30634,61883,5
30633,61873,6
30637,61863,4
30640,61859,4
30627,61854,5
30626,61851,5
30629,61856,5
30606,61828,5
30603,61811,4
30600,61798,5
30597,61779,5
30595,61776,5
30593,61774,5
30599,61785,4
30612,61815,5
30606,61816,5
30599,61791,5
30595,61772,4
30597,61778,4
30588,61787,5
30606,61800,5
30602,61805,5
30601,61791,5
30594,61782,4
30586,61764,5
30588,61764,5
30596,61762,6
30592,61774,3
30589,61755,5
30585,61763,5
30570,61750,5
30567,61734,5
30568,61730,4
30571,61732,5
30577,61740,5
30577,61746,5
30576,61732,5
30570,61722,4
30567,61716,5
30553,61709,5
30565,61712,5
30560,61707,5
30566,61717,4
30575,61716,5
30556,61710,5
30555,61684,5
30550,61691,4
30555,61691,5
30555,61704,4
30553,61689,5
30548,61680,5
30548,61658,4
30540,61645,5
30531,61647,5
30530,61639,5
30526,61637,5
30525,61636,4
30529,61637,5
30529,61618,5
30527,61628,5
30536,61637,5
30537,61672,4
30549,61667,5
30548,61675,5
30544,61642,5
30526,61608,5
30512,61590,4
30504,61585,5
30513,61604,5
30518,61594,5
30507,61593,4
30517,61601,4
30516,61601,6
30510,61588,4
30516,61584,5
30510,61576,4
30501,61575,5
30508,61578,5
30517,61599,5
30524,61617,5
30522,61613,4
30514,61578,5
30497,61539,5
30489,61534,5
30483,61520,5
30478,61511,4
30484,61504,5
30477,61499,5
30478,61488,5
30472,61482,5
30462,61480,4
30462,61484,5
30467,61494,5
30480,61491,5
30491,61513,5
30492,61524,4
30489,61521,5
30492,61522,6
30489,61517,4
30481,61516,4
30489,61519,5
30486,61532,5
30496,61545,5
30503,61577,5
30517,61582,4
30506,61594,5
30510,61577,5
30507,61577,5
30516,61579,5
30506,61569,4
30510,61576,5
30514,61565,5
30506,61554,5
30493,61534,5
30479,61507,4
30480,61499,5
30479,61525,5
30500,61559,5
30517,61594,5
30537,61616,4
30542,61643,5
30534,61621,5
30521,61586,5
30510,61559,4
30510,61554,5
30513,61565,5
30503,61574,5
30516,61580,5
30508,61558,4
30501,61557,5
30501,61553,5
30506,61561,5
30514,61571,5
30513,61581,4
30513,61573,5
30506,61561,5
30499,61550,5
30497,61550,5
30509,61560,4
30508,61567,5
30523,61579,5
30521,61592,5
30523,61579,5
30518,61572,5
30516,61585,4
30520,61582,5
30522,61584,5
30514,61579,4
30515,61590,4
30511,61576,5
30514,61563,5
30496,61565,5
30498,61548,4
30503,61541,5
30500,61555,5
30502,61561,5
30499,61546,5
30505,61550,4
30502,61544,5
30512,61549,5
30510,61557,9
30499,61552,1
30506,61545,4
30512,61578,5
30506,61567,5
30513,61569,5
30517,61566,5
30512,61573,4
30536,61580,6
30526,61588,4
30519,61595,5
30517,61571,5
30515,61562,4
30514,61559,5
30516,61582,5
30523,61591,5
30522,61596,4
30528,61599,5
30533,61613,5
30529,61600,5
30529,61605,5
30523,61593,4
30521,61584,5
30518,61558,5
30516,61563,5
30511,61565,5
30501,61572,4
30508,61583,5
30523,61578,5
30524,61583,5
30521,61587,5
30521,61596,4
30524,61587,5
30517,61587,5
30517,61582,5
30514,61583,5
30525,61591,4
30525,61590,5
30519,61569,5
30509,61567,5
30510,61554,4
30510,61573,4
30513,61582,5
30523,61593,5
30525,61591,5
30522,61591,4
30527,61594,5
30516,61583,5
30515,61579,5
30515,61575,5
30509,61567,4
30523,61574,5
30513,61586,5
30512,61586,5
30521,61600,5
30532,61617,4
30539,61616,5
30536,61627,5
30544,61620,5
30539,61626,5
30531,61599,4
30526,61596,5
30515,61573,5
30522,61562,5
30511,61565,4
30520,61585,4
30517,61582,5
30510,61571,5
30506,61554,5
30500,61547,4
30497,61553,5
30506,61560,5
30519,61584,5
30534,61599,5
30536,61614,4
30544,61624,5
30534,61610,5
30532,61603,5
30523,61596,5
30525,61605,5
30528,61605,4
30523,61608,5
30529,61607,5
30527,61608,5
30528,61596,4
30522,61595,5
30527,61587,5
30524,61589,5
30522,61593,5
30524,61603,4
30539,61603,5
30536,61611,5
30528,61600,5
30510,61574,4
30505,61544,5
30506,61551,5
30508,61562,5
30516,61571,5
30518,61569,4
30504,61551,5
30508,61554,6
30516,61555,4
30511,61558,5
30506,61554,4
30507,61561,7
30511,61576,3
30521,61579,5
30524,61590,5
30529,61588,4
30523,61573,5
30519,61566,5
30514,61563,5
30512,61575,5
30526,61581,4
30533,61611,5
30538,61652,5
30560,61668,5
30569,61696,4
30582,61708,5
30581,61713,5
30584,61731,5
30589,61726,5
30589,61723,4
30579,61716,5
30589,61720,5
30589,61721,6
30577,61720,4
30585,61737,4
30589,61738,5
30587,61737,5
30594,61746,5
30603,61747,5
30592,61746,4
30594,61733,5
30591,61739,5
30595,61732,5
30588,61734,5
30599,61736,4
30599,61751,5
30587,61745,5
30597,61764,5
30596,61766,4
30597,61761,4
30597,61758,5
30608,61758,5
30607,61764,5
30601,61769,5
30603,61777,4
30620,61784,5
30606,61779,5
30613,61782,6
30608,61776,3
30607,61784,5
30619,61789,5
30618,61787,5
30621,61795,5
30623,61810,4
30614,61802,5
30621,61802,5
30627,61805,5
30617,61789,5
30616,61778,4
30606,61766,5
30606,61774,5
30600,61775,5
30598,61771,4
30601,61767,4
30606,61758,5
30604,61750,5
30602,61760,5
30606,61757,4
30605,61753,6
30603,61764,4
30595,61766,5
30606,61763,5
30594,61754,6
30597,61749,3
30595,61745,5
30592,61739,5
30597,61740,5
30595,61740,4
30598,61747,5
30590,61755,5
30599,61764,5
30604,61765,5
30605,61759,4
30601,61764,5
30600,61767,5
30611,61770,5
30609,61771,5
30612,61766,4
30612,61778,5
30610,61793,5
30618,61784,5
30615,61786,4
30613,61781,5
30610,61783,6
30617,61782,4
30616,61783,5
30617,61795,4
30612,61788,5
30613,61797,5
30623,61814,5
30617,61819,5
30626,61813,4
30630,61822,5
30637,61823,5
30630,61823,5
30626,61817,5
30636,61829,4
30631,61817,5
30630,61833,5
30626,61827,5
30627,61831,5
30629,61837,4
30635,61842,5
30633,61840,5
30635,61843,5
30628,61825,4
30630,61832,4
30633,61831,5
30633,61834,6
30633,61833,4
30630,61832,4
30634,61840,5
30636,61837,5
30633,61839,5
30639,61835,5
30640,61834,4
30630,61842,5
30637,61842,5
30634,61838,5
30639,61837,5
30633,61828,4
30634,61837,5
30632,61831,5
30633,61834,5
30630,61840,5
30640,61841,4
30635,61840,5
30635,61828,5
30630,61834,5
30638,61840,5
30638,61848,4
30637,61850,5
30633,61849,5
30651,61847,6
30646,61867,3
30641,61853,5
30638,61842,5
30639,61854,5
30641,61843,5
30642,61853,4
30644,61852,5
30637,61854,5
30639,61847,5
30635,61849,5
30641,61850,4
30645,61861,5
30641,61854,5
30644,61858,5
30644,61865,5
30650,61875,4
30652,61872,5
30645,61872,5
30648,61874,5
30645,61867,5
30650,61869,5
30655,61861,4
30650,61856,5
30648,61860,5
30639,61866,4
30656,61873,5
30639,61868,5
30650,61864,5
30657,61883,5
30655,61874,4
30646,61868,5
30648,61875,5
30657,61877,5
30655,61887,5
30653,61872,4
30654,61876,5
30653,61865,5
30649,61863,5
30651,61864,5
30644,61869,4
30643,61861,5
30650,61865,5
30639,61875,5
30652,61880,5
30648,61872,4
30652,61875,6
30640,61876,4
30650,61883,5
30646,61891,4
30644,61886,5
30652,61888,5
30654,61896,5
30659,61896,5
30657,61897,4
30651,61890,5
30650,61893,5
30657,61900,5
30658,61907,5
30654,61890,4
30654,61900,5
30662,61898,5
30662,61898,5
30657,61900,5
30662,61896,4
30667,61904,5
30662,61911,5
30669,61905,5
30670,61905,5
30658,61916,4
30671,61916,5
30667,61916,6
30659,61916,4
30667,61919,4
30667,61916,4
30667,61922,5
30670,61940,5
30672,61933,5
30674,61939,4
30673,61943,5
30671,61933,5
30668,61938,5
30679,61935,5
30677,61939,4
30681,61947,5
30679,61945,5
30686,61952,5
30687,61962,5
30680,61960,4
30689,61955,5
30691,61956,5
30691,61970,5
30702,61967,5
30692,61967,4
30695,61975,5
30696,61974,5
30687,61965,5
30700,61975,5
30689,61971,4
30692,61980,5
30691,61974,5
30697,61979,5
30691,61968,4
30691,61972,5
30691,61980,5
30693,61974,5
30689,61983,5
30689,61978,4
30691,61987,5
30693,61977,5
30684,61977,5
30701,61985,5
30700,61976,4
30695,61984,5
30695,61972,5
30688,61976,5
30691,61975,5
30692,61980,5
30691,61972,4
30688,61978,5
30690,61989,5
30690,61973,5
30693,61971,4
30691,61987,5
30691,61975,5
30685,61980,5
30689,61970,4
30693,61970,5
30696,61977,5
30692,61963,5
30686,61968,5
30682,61969,4
30696,61976,5
30691,61966,5
30691,61974,5
30692,61973,5
30696,61976,4
30694,61968,5
30700,61980,5
30686,61985,5
30685,61972,5
30696,61974,4
30684,61968,6
30686,61964,4
30682,61974,5
30694,61977,5
30678,61975,4
30692,61975,5
30694,61973,5
30688,61970,5
30680,61967,4
30690,61981,4
30688,61968,5
30685,61965,5
30700,61966,5
30693,61971,4
30691,61971,5
30681,61980,5
30687,61978,5
30692,61977,5
30685,61978,4
30689,61981,5
30690,61979,5
30687,61970,5
30690,61978,5
30689,61974,4
30689,61980,5
30688,61974,6
30685,61978,4
30683,61985,5
30688,61975,4
30688,61985,5
30685,61982,7
30688,61979,3
30691,61979,5
30697,61982,4
30686,61977,5
30691,61970,5
30685,61989,5
30701,61993,4
30691,61988,5
30698,61991,5
30695,61990,5
30698,61992,5
30687,61997,4
30691,62002,5
30688,61999,5
30701,61997,5
30699,61996,5
30694,62003,4
30700,61999,5
30699,62003,5
30697,62007,5
30700,61993,5
30690,61996,4
30691,61997,5
30706,62005,5
30694,61996,5
30702,62001,5
30707,61999,4
30696,62007,5
30695,62002,5
30701,62001,5
30700,62005,4
30701,61991,4
30699,61994,5
30698,61996,5
30693,62000,5
30701,61998,4
30684,62002,5
30691,61998,5
30696,62004,5
30696,62003,5
30705,61996,5
30696,62005,4
30693,62008,5
30697,61997,5
30692,62008,5
30697,61997,4
30697,61996,5
30697,61996,5
30691,61999,5
30694,62010,5
30694,62010,4
30704,62013,5
30691,62013,5
30699,62017,5
30707,62023,4
30692,62009,4
30697,62017,5
30695,62015,5
30701,62018,5
30704,62017,4
30699,62011,5
30707,62022,6
30705,62023,4
30708,62024,5
30705,62018,4
30709,62022,7
30701,62023,3
30705,62022,5
30702,62025,5
30705,62017,4
30707,62028,5
30710,62022,5
30705,62029,5
30705,62032,5
30710,62031,4
30702,62022,5
30703,62032,5
30720,62026,5
30711,62026,5
30706,62041,4
30704,62041,5
30708,62037,5
30708,62031,5
30710,62037,4
30706,62033,5
30713,62036,5
30711,62043,6
30704,62041,4
30715,62043,4
30709,62038,5
30711,62048,5
30709,62044,5
30712,62046,5
30711,62047,4
30714,62044,5
30717,62046,5
30715,62041,5
30722,62045,5
30720,62057,4
30720,62048,5
30718,62051,5
30723,62058,5
30727,62053,5
30720,62058,4
30717,62054,5
30720,62063,5
30723,62062,5
30719,62075,5
30720,62066,4
30720,62061,5
30728,62070,5
30731,62073,6
30729,62070,3
30726,62074,5
30731,62073,5
30730,62075,5
30730,62067,5
30723,62071,4
30723,62071,5
30724,62073,5
30733,62076,5
30732,62064,5
30731,62075,4
30730,62075,5
30725,62069,5
30720,62069,5
30723,62059,5
30730,62066,4
30730,62066,5
30725,62076,5
30722,62071,5
30723,62075,4
30731,62073,5
30724,62078,4
30727,62068,5
30729,62076,5
30735,62076,6
30735,62072,3
30730,62066,5
30729,62071,5
30732,62081,5
30732,62080,4
30723,62076,5
30732,62076,5
30734,62069,5
30741,62071,5
30736,62082,4
30740,62078,5
30727,62086,5
30728,62071,5
30730,62082,5
30734,62076,4
30735,62069,5
30732,62077,5
30738,62084,5
30727,62081,4
30731,62080,4
30733,62076,6
30735,62080,4
30733,62075,5
30734,62075,4
30732,62071,5
30728,62073,5
30723,62069,5
30719,62074,5
30718,62080,4
30724,62065,5
30723,62072,5
30729,62071,5
30724,62072,5
30723,62077,4
30729,62077,5
30726,62083,5
30727,62075,5
30739,62081,5
30723,62085,4
30730,62079,5
30737,62080,5
30730,62069,5
30736,62084,5
30739,62072,4
30723,62075,5
30721,62078,6
30725,62075,4
30732,62084,4
30733,62072,5
30732,62070,5
30725,62070,5
30728,62082,5
30726,62081,4
30741,62078,5
30734,62087,5
30738,62086,5
30733,62091,5
30736,62095,4
30739,62088,5
30731,62095,5
30746,62083,5
30729,62094,5
30748,62096,4
30742,62094,5
30734,62096,5
30740,62099,5
30741,62097,5
30738,62095,4
30735,62096,5
30746,62095,5
30744,62095,6
30742,62093,3
30737,62094,4
30739,62100,5
30729,62089,5
30743,62091,5
30740,62100,4
30734,62099,5
30742,62093,5
30738,62095,5
30736,62100,5
30738,62101,4
30741,62098,5
30741,62095,5
30738,62100,5
30749,62092,5
30741,62095,4
30738,62099,5
30740,62098,5
30739,62093,5
30736,62098,5
30730,62097,5
30739,62088,4
30739,62083,5
30736,62089,5
30745,62093,4
30740,62096,8
30742,62089,5
30741,62089,5
30729,62096,5
30718,62105,8
30748,62100,5
30743,62102,5
30751,62107,8
30740,62090,5
30745,62089,5
30734,62099,5
30742,62101,8
30742,62101,5
30742,62096,5
30737,62093,8
30730,62088,5
30740,62089,5
30735,62109,8
30736,62118,5
30739,62103,5
30735,62073,5
30743,62090,8
30742,62094,5
30732,62090,5
30732,62090,8
30733,62091,5
30722,62092,5
30731,62090,5
30733,62094,8
30740,62088,5
30731,62094,5
30737,62053,8
30737,62075,5
30740,62094,5
30739,62106,8
30739,62106,5
30739,62113,5
30742,62101,5
30743,62093,8
30747,62108,5
30748,62108,5
30752,62132,8
30750,62120,5
30749,62119,5
30750,62128,5
30758,62132,8
30755,62136,5
30743,62134,5
30757,62124,8
30757,62124,5
30752,62118,5
30752,62132,8
30783,62135,5
30760,62134,5
30754,62123,5
30746,62124,8
30749,62129,5
30751,62128,5
30752,62131,8
30740,62127,5
30751,62130,5
30756,62133,5
30758,62135,8
30758,62135,5
30779,62122,5
30745,62134,8
30733,62132,5
30756,62136,5
30748,62132,8
30757,62144,5
30759,62131,5
30753,62137,5
30754,62143,8
30760,62136,5
30755,62135,5
30757,62125,8
30757,62125,5
30716,62130,5
30749,62127,5
30752,62130,8
30759,62156,5
30748,62133,5
30758,62117,8
30757,62125,5
30750,62123,5
30749,62137,8
30744,62126,5
30745,62122,5
30758,62133,5
30747,62128,8
30747,62128,5
30745,62159,5
30761,62144,8
30750,62100,5
30755,62129,5
30762,62128,5
30777,62131,8
30764,62122,5
30724,62116,5
30744,62111,8
30752,62120,5
30745,62129,5
30745,62119,8
30745,62119,5
30753,62092,5
30748,62088,5
30750,62116,8
30748,62125,5
30750,62128,5
30717,62120,8
30736,62124,5
30752,62127,5
30750,62126,5
30749,62131,8
30751,62122,5
30754,62128,5
30760,62129,8
30760,62129,5
30757,62137,5
30761,62135,8
30759,62135,5
30748,62133,2
30747,62125,3
30751,62135,5
30745,62122,5
30750,62127,5
30744,62121,4
30744,62134,4
30746,62125,5
30747,62126,5
30752,62121,5
30753,62130,4
30752,62134,5
30758,62135,5
30751,62136,5
30759,62144,5
30749,62143,4
30758,62144,5
30751,62144,5
30754,62148,5
30759,62139,5
30757,62139,4
30751,62147,5
30755,62141,5
30762,62149,5
30754,62159,5
30757,62149,4
30763,62145,5
30767,62142,5
30753,62149,5
30761,62146,5
30758,62147,4
30749,62140,5
30751,62132,5
30755,62136,5
30759,62137,4
30756,62141,10
30754,62127,0
30755,62135,5
30757,62114,5
30752,62128,6
30749,62133,3
30756,62133,5
30751,62138,5
30747,62140,5
30748,62135,4
30748,62141,5
30749,62134,5
30744,62130,5
30747,62126,5
30750,62135,4
30753,62129,5
30751,62126,5
30754,62120,5
30747,62137,5
30750,62123,4
30740,62126,5
30751,62123,5
30745,62125,5
30744,62121,4
30738,62128,4
30743,62124,6
30748,62127,4
30740,62137,5
30747,62132,4
30752,62128,7
30752,62126,3
30746,62113,5
30750,62113,5
30748,62123,4
30742,62122,5
30752,62121,5
30743,62135,5
30740,62124,5
30738,62126,4
30761,62139,5
30747,62133,5
30755,62132,5
30750,62133,5
30750,62126,4
30744,62125,5
30748,62123,5
30744,62129,5
30755,62129,5
30749,62116,4
30742,62125,5
30747,62120,6
30739,62134,4
30741,62120,4
30739,62126,5
30738,62118,5
30746,62112,5
30750,62124,5
30743,62116,4
30738,62113,5
30745,62110,5
30732,62119,5
30745,62124,5
30745,62122,4
30742,62119,5
30745,62116,5
30740,62117,5
30731,62119,5
30744,62119,4
30735,62115,5
30745,62115,5
30744,62111,5
30747,62124,5
30739,62125,4
30749,62125,5
30750,62136,5
30756,62127,6
30751,62128,3
30742,62121,4
30749,62126,5
30751,62127,5
30749,62134,5
30744,62125,4
30756,62138,5
30748,62130,5
30756,62131,5
30753,62137,5
30748,62140,4
30749,62144,5
30751,62131,5
30752,62132,5
30749,62139,5
30750,62133,4
30746,62140,5
30746,62133,5
30753,62129,5
30753,62134,5
30756,62137,5
30756,62131,4
30746,62134,5
30752,62136,5
30745,62139,6
30753,62140,3
30761,62131,5
30757,62131,5
30749,62136,5
30754,62137,4
30752,62129,5
30761,62132,5
30746,62139,5
30753,62139,5
30755,62144,4
30753,62141,5
30755,62141,5
30764,62143,5
30760,62133,5
30750,62142,4
30754,62132,5
30751,62137,5
30746,62134,5
30752,62129,5
30745,62133,4
30746,62134,6
30748,62123,4
30756,62131,5
30746,62125,5
30754,62128,4
30753,62130,5
30746,62128,5
30749,62129,5
30741,62137,4
30747,62128,5
30752,62132,5
30752,62133,5
30748,62129,5
30751,62121,4
30744,62129,5
30746,62134,5
30740,62128,5
30750,62135,5
30743,62123,4
30750,62124,5
30743,62121,5
30737,62118,5
30739,62122,5
30748,62124,4
30740,62121,5
30744,62107,6
30747,62117,4
30756,62114,5
30738,62118,4
30743,62112,5
30750,62126,5
30740,62128,5
30745,62128,4
30746,62124,4
30754,62129,5
30750,62134,5
30754,62121,5
30752,62129,4
30747,62133,5
30749,62140,5
30749,62140,5
30759,62128,5
30754,62143,4
30751,62136,5
30752,62140,5
30748,62134,5
30752,62126,5
30752,62138,4
30752,62130,5
30764,62140,5
30753,62134,6
30750,62133,4
30747,62139,4
30743,62129,5
30751,62126,5
30745,62133,5
30747,62127,5
30746,62125,4
30743,62116,5
30754,62130,5
30750,62122,5
30751,62122,4
30751,62126,5
30745,62129,5
30742,62128,5
30743,62128,5
30741,62129,4
30753,62135,5
30752,62132,5
30753,62134,5
30747,62136,5
30754,62126,5
30748,62129,4
30749,62129,5
30753,62130,5
30746,62143,5
30748,62146,4
30749,62141,5
30747,62143,5
30748,62149,5
30761,62138,5
30756,62162,4
30751,62144,5
30757,62145,5
30756,62140,5
30755,62143,4
30753,62138,5
30747,62138,5
30747,62137,5
30752,62132,5
30753,62133,4
30748,62128,5
30745,62128,5
30747,62132,5
30752,62135,5
30747,62129,4
30742,62122,6
30750,62122,4
30753,62127,5
30750,62132,5
30748,62129,4
30742,62130,5
30747,62133,5
30751,62129,5
30750,62128,5
30750,62127,4
30748,62130,5
30747,62130,5
30752,62134,5
30753,62142,4
30750,62143,4
30747,62143,5
30755,62147,5
30744,62143,5
30749,62149,4
30757,62151,5
30757,62148,5
30752,62156,5
30760,62160,5
30761,62159,4
30764,62164,5
30765,62160,6
30769,62167,4
30755,62176,5
30765,62160,4
30767,62179,5
30762,62167,5
30759,62175,5
30757,62177,5
30761,62176,4
30762,62176,5
30766,62170,5
30756,62172,5
30761,62177,4
30769,62192,4
30765,62182,5
30770,62184,5
30765,62179,5
30762,62177,4
30766,62170,5
30770,62170,5
30764,62169,5
30768,62174,5
30765,62171,4
30766,62178,5
30769,62174,5
30758,62175,5
30759,62178,5
30765,62183,4
30757,62175,5
30765,62169,5
30762,62179,5
30763,62179,5
30770,62176,4
30768,62174,5
30758,62176,5
30770,62177,5
30765,62166,5
30765,62180,4
30760,62177,5
30774,62175,5
30763,62178,5
30762,62170,4
30760,62181,5
30772,62175,5
30774,62170,5
30769,62174,5
30767,62180,5
30764,62180,4
30766,62184,5
30770,62182,5
30773,62183,5
30765,62180,4
30777,62182,5
30765,62191,5
30771,62186,5
30767,62193,5
30767,62185,4
30773,62189,5
30776,62184,5
30768,62192,5
30779,62191,5
30764,62194,4
30766,62186,5
30770,62192,5
30772,62186,5
30773,62186,4
30763,62183,5
30775,62199,5
30770,62189,5
30776,62194,5
30768,62192,4
30773,62195,6
30771,62206,4
30774,62207,5
30770,62212,5
30770,62200,4
30781,62207,5
30783,62206,5
30779,62213,5
30784,62211,5
30779,62210,4
30775,62204,5
30775,62213,5
30776,62211,5
30782,62209,5
30784,62202,4
30779,62214,5
30779,62202,5
30778,62210,5
30779,62207,4
30782,62202,4
30778,62205,5
30778,62211,5
30782,62222,5
30777,62215,4
30783,62218,5
30776,62211,6
30782,62208,4
30784,62205,5
30774,62200,4
30783,62208,5
30780,62218,5
30782,62211,5
30783,62213,5
30779,62216,4
30782,62213,5
30776,62204,5
30777,62211,5
30779,62216,5
30782,62212,4
30782,62214,5
30781,62214,5
30782,62210,5
30787,62219,4
30781,62213,4
30783,62220,5
30783,62210,5
30787,62219,5
30780,62218,4
30778,62216,5
30783,62223,5
30775,62209,5
30783,62215,5
30784,62216,4
30784,62216,5
30780,62221,5
30785,62218,5
30789,62217,5
30788,62220,4
30788,62222,5
30782,62210,5
30777,62224,5
30791,62215,5
30788,62219,4
30779,62219,5
30785,62224,5
30786,62225,5
30784,62232,5
30789,62231,5
30779,62221,4
30779,62217,5
30774,62220,5
30788,62222,6
30782,62227,3
30788,62221,5
30784,62212,5
30773,62217,5
30785,62216,4
30778,62222,5
30782,62207,5
30783,62219,5
30786,62219,5
30775,62222,4
30793,62217,5
30787,62224,5
30786,62233,5
30787,62226,5
30783,62228,4
30790,62229,5
30785,62229,5
30786,62230,5
30789,62233,5
30786,62225,4
30793,62229,6
30789,62236,4
30791,62239,5
30792,62240,4
30791,62232,7
30789,62231,3
30786,62230,5
30792,62228,5
30786,62240,4
30798,62233,5
30789,62234,5
30795,62226,5
30783,62237,5
30791,62231,8
30796,62233,1
30791,62232,5
30781,62227,5
30792,62235,5
30793,62225,4
30790,62225,5
30787,62224,5
30790,62213,5
30786,62223,5
30787,62217,4
30793,62226,5
30789,62225,6
30791,62226,4
30781,62222,4
30782,62225,5
30783,62214,5
30781,62217,5
30786,62226,5
30783,62218,4
30788,62214,5
30780,62215,5
30782,62222,5
30782,62216,5
30785,62221,4
30790,62223,5
30786,62220,5
30787,62227,5
30784,62222,5
30797,62228,4
30784,62228,5
30794,62228,5
30793,62217,5
30791,62224,5
30786,62226,4
30787,62228,5
30784,62231,5
30786,62232,6
30795,62220,3
30789,62225,4
30788,62218,5
30789,62221,5
30797,62222,5
30788,62217,4
30785,62225,5
30788,62226,5
30785,62224,5
30792,62216,5
30791,62229,4
30790,62221,5
30784,62223,5
30799,62232,5
30795,62226,5
30791,62241,4
30784,62228,5
30785,62223,5
30793,62233,5
30789,62233,5
30791,62217,5
30787,62216,4
30792,62227,5
30783,62215,5
30789,62208,6
30789,62219,3
30780,62222,5
30785,62220,5
30787,62221,5
30780,62229,4
30784,62225,5
30785,62223,5
30796,62236,5
30787,62242,5
30794,62232,4
30787,62232,5
30788,62241,5
30790,62227,5
30786,62234,5
