RED,IR,EKG,TIME
37168,70664,9
37165,70665,5
37173,70664,5
37131,70661,8
37157,70646,5
37154,70641,5
37158,70652,8
37166,70646,5
37160,70612,5
37139,70613,5
37121,70565,8
37121,70565,5
37119,70556,5
37105,70546,8
37105,70525,5
37090,70514,5
37089,70508,8
37082,70498,5
37090,70509,5
37067,70469,5
37063,70466,8
37056,70452,5
37037,70408,5
37037,70408,8
37032,70399,5
37026,70397,5
37015,70373,5
37006,70362,8
37004,70361,5
36991,70341,5
36978,70281,10
36865,70109,9
36865,70109,8
36845,70040,5
36841,70067,5
36864,70063,5
36857,70073,8
36827,70069,5
36831,70079,5
36851,70092,8
36864,70122,5
36874,70134,5
36933,70244,8
36933,70244,5
36951,70197,5
36954,70273,10
36956,70290,9
36971,70283,5
36931,70235,8
36931,70235,5
36876,70215,5
36896,70219,8
36916,70203,5
36925,70218,5
36914,70223,5
36931,70216,8
36933,70227,5
36943,70249,5
36954,70273,8
36956,70285,5
36956,70292,5
36978,70333,5
37054,70454,8
37054,70454,5
37063,70483,5
37072,70513,8
37073,70509,5
37086,70490,5
37088,70519,8
37093,70511,5
37119,70529,5
37099,70529,5
37090,70516,8
37103,70523,5
37105,70518,5
37090,70506,8
37090,70506,5
37089,70514,5
37080,70463,5
37066,70472,8
37076,70486,5
37071,70474,5
37058,70472,8
37029,70457,5
37048,70456,5
37054,70433,8
37044,70433,5
37031,70420,5
37027,70401,5
37019,70379,8
37019,70379,5
37015,70367,5
37015,70369,8
37017,70377,5
37007,70380,5
36991,70371,5
37017,70377,8
37013,70398,5
37028,70416,5
37029,70391,8
37029,70407,5
37035,70410,5
37044,70446,8
37044,70446,5
37061,70456,3
37056,70447,1
37041,70466,5
37051,70455,4
37050,70451,4
37048,70447,5
37042,70432,6
37038,70427,4
37042,70434,4
37036,70424,5
37032,70414,5
37033,70404,5
37031,70411,5
37036,70390,4
37012,70388,5
37006,70369,5
37015,70360,5
36996,70361,5
36991,70349,4
36978,70338,5
36984,70333,5
36976,70330,5
36971,70302,5
36960,70280,4
36947,70255,5
36932,70235,5
36921,70200,5
36910,70177,5
36888,70141,4
36865,70117,5
36849,70086,5
36849,70074,6
36826,70062,3
36832,70056,5
36829,70041,5
36834,70054,5
36842,70068,5
36839,70070,4
36842,70086,5
36850,70101,5
36863,70111,5
36861,70122,5
36869,70130,4
36883,70142,5
36888,70148,5
36890,70162,5
36895,70172,5
36898,70169,4
36894,70156,5
36877,70141,5
36875,70120,5
36873,70121,5
36864,70112,5
36856,70116,4
36864,70116,5
36865,70118,5
36874,70121,4
36871,70142,5
36891,70143,5
36891,70170,5
36892,70180,5
36915,70206,4
36917,70235,5
36943,70256,5
36958,70279,5
36963,70310,5
36990,70328,4
36996,70363,5
37010,70381,5
37025,70393,5
37029,70424,5
37039,70434,4
37056,70444,5
37052,70455,5
37064,70469,5
37061,70470,5
37060,70474,4
37067,70478,6
37061,70466,4
37062,70471,5
37069,70460,4
37056,70458,5
37056,70458,5
37061,70467,5
37058,70453,5
37060,70458,4
37050,70451,5
37041,70427,5
37037,70425,5
37035,70422,5
37032,70411,4
37036,70399,5
37023,70387,5
37010,70382,5
37011,70361,5
36992,70355,4
36998,70338,5
36986,70331,5
36975,70322,5
36975,70319,5
36974,70301,4
36982,70308,5
36969,70307,6
36969,70309,4
36979,70312,4
36978,70302,5
36974,70314,5
36988,70323,5
36975,70319,5
36983,70330,4
36995,70346,5
36988,70339,5
37010,70352,5
37004,70360,5
37007,70369,4
37015,70378,5
37010,70381,5
37019,70378,5
37012,70376,5
37016,70386,4
37017,70377,5
37010,70387,5
37017,70379,5
37022,70381,5
37009,70373,4
37016,70379,5
37012,70367,5
37004,70362,5
36998,70350,4
36993,70344,5
36988,70339,5
36992,70337,5
36981,70322,5
36980,70313,4
36979,70307,5
36977,70313,5
36970,70288,5
36962,70290,5
36958,70279,4
36964,70275,5
36955,70263,5
36941,70249,5
36935,70253,5
36929,70236,4
36935,70237,5
36945,70232,5
36928,70227,5
36913,70210,5
36917,70206,5
36919,70193,4
36907,70196,5
36904,70189,5
36905,70186,4
36891,70165,4
36887,70163,5
36877,70138,5
36866,70116,5
36853,70086,4
36844,70066,5
36825,70036,5
36807,70012,5
36793,69990,5
36785,69961,4
36780,69957,5
36762,69937,5
36776,69941,5
36773,69956,5
36788,69955,4
36776,69987,5
36790,69984,5
36799,69997,5
36807,70001,5
36819,70022,4
36827,70038,16
36834,70047,3
36838,70053,4
36842,70058,5
36835,70065,5
36836,70066,5
36838,70057,4
36838,70048,5
36812,70027,5
36818,70014,5
36816,70022,5
36811,70008,4
36807,70007,5
36805,70013,5
36813,70016,5
36809,70024,5
36818,70025,4
36828,70051,5
36841,70060,5
36848,70084,5
36862,70110,4
36872,70135,4
36894,70160,5
36910,70175,5
36919,70219,5
36936,70242,4
36950,70274,4
36968,70293,5
36972,70305,5
36983,70337,5
36994,70352,4
37011,70364,5
37002,70377,5
37007,70381,5
37019,70378,5
37022,70398,4
37021,70398,5
37021,70393,5
37024,70386,5
37023,70398,5
37022,70384,5
37016,70378,7
37013,70391,2
37013,70380,5
37005,70371,6
37018,70366,3
36997,70355,5
37008,70353,5
36995,70323,5
36986,70329,4
36990,70315,4
36976,70303,5
36961,70296,5
36958,70279,5
36955,70262,4
36946,70252,5
36944,70246,5
36938,70234,5
36940,70233,5
36929,70216,4
36928,70221,5
36930,70220,5
36923,70224,5
36923,70218,5
36929,70222,4
36928,70237,6
36934,70242,4
36942,70248,5
36955,70252,5
36947,70261,6
36951,70267,3
36952,70281,5
36967,70289,5
36965,70304,4
36976,70313,4
36980,70317,5
36982,70326,5
36978,70322,5
36983,70319,4
36980,70317,5
36979,70318,5
36986,70317,5
36976,70325,5
36972,70315,4
36978,70306,5
36974,70310,5
36981,70306,5
36970,70299,5
36967,70290,4
36966,70287,5
36954,70280,6
36952,70273,4
36950,70257,5
36954,70261,4
36953,70253,5
36945,70243,5
36943,70244,5
36945,70233,4
36935,70235,4
36935,70225,5
36930,70224,5
36935,70224,5
36930,70217,4
36924,70220,5
36925,70211,5
36925,70208,5
36922,70205,5
36921,70197,4
36910,70190,5
36903,70171,5
36904,70169,5
36888,70149,5
36882,70137,4
36867,70117,5
36859,70109,5
36858,70085,6
36844,70065,4
36825,70045,4
36817,70031,5
36823,70021,5
36813,70019,5
36824,70020,4
36820,70023,4
36822,70033,5
36827,70038,5
36834,70047,5
36840,70066,4
36849,70072,5
36851,70086,5
36863,70102,5
36865,70108,5
36871,70118,4
36865,70124,5
36885,70130,5
36881,70136,5
36874,70117,5
36852,70102,5
36865,70092,4
36860,70089,5
36859,70092,5
36857,70098,6
36861,70104,3
36860,70118,5
36874,70120,5
36885,70132,5
36882,70156,4
36903,70182,4
36912,70205,5
36948,70238,5
36959,70283,5
36970,70313,4
36995,70344,5
37018,70386,5
37029,70413,5
37045,70447,5
37063,70475,4
37079,70487,5
37092,70513,5
37099,70532,5
37104,70540,5
37113,70551,4
37110,70558,6
37122,70564,4
37119,70563,5
37128,70567,5
37126,70563,4
37123,70573,5
37121,70559,5
37123,70551,5
37119,70549,4
37119,70564,4
37115,70565,5
37113,70544,5
37105,70529,5
37099,70522,4
37098,70514,5
37084,70503,5
37078,70478,5
37076,70471,5
37063,70460,4
37052,70464,5
37040,70440,5
37040,70409,5
37034,70410,5
37025,70397,4
37021,70396,5
37026,70394,6
37017,70392,4
37018,70391,5
37026,70391,4
37027,70401,5
37035,70413,5
37031,70423,5
37044,70438,4
37053,70451,4
37061,70472,5
37078,70498,5
37083,70514,5
37101,70535,4
37111,70555,5
37118,70567,5
37122,70573,5
37133,70590,5
37136,70590,4
37135,70598,5
37140,70605,5
37141,70606,5
37142,70602,5
37146,70596,4
37131,70595,5
37138,70589,5
37130,70583,6
37119,70578,4
37116,70560,4
37113,70557,5
37108,70539,5
37099,70523,5
37094,70491,4
37076,70478,4
37056,70453,5
37050,70432,5
37030,70402,5
37017,70384,4
37010,70370,5
36998,70346,5
36996,70337,5
36990,70340,5
36989,70334,4
36980,70336,5
36984,70339,5
37001,70353,5
37001,70360,5
37002,70369,5
37004,70373,4
37011,70380,5
37018,70391,5
37028,70397,5
37019,70405,4
37029,70398,5
37027,70410,5
37028,70393,5
37012,70374,4
37001,70359,4
37003,70357,5
36998,70349,5
36997,70343,5
36986,70340,4
36993,70346,5
37001,70362,5
37017,70364,5
37010,70387,5
37034,70406,4
37039,70437,5
37055,70455,5
37075,70487,5
37093,70523,5
37109,70561,4
37132,70589,6
37146,70634,4
37168,70656,5
37180,70675,5
37197,70700,4
37199,70723,5
37219,70740,5
37220,70752,5
37226,70763,4
37235,70763,5
37243,70771,5
37235,70783,5
37235,70780,5
37245,70775,4
37242,70778,5
37242,70778,5
37238,70770,5
37240,70779,5
37239,70766,4
37238,70769,5
37229,70759,5
37230,70759,5
37231,70755,5
37225,70744,4
37207,70725,5
37214,70724,6
37212,70722,4
37203,70701,5
37194,70700,4
37185,70684,5
37178,70674,5
37171,70657,5
37172,70644,4
37165,70643,5
37167,70640,5
37173,70638,5
37179,70656,5
37169,70649,4
37178,70654,5
37173,70667,5
37191,70685,5
37193,70692,5
37197,70712,4
37217,70725,5
37219,70755,5
37231,70761,5
37241,70787,5
37256,70799,4
37267,70813,5
37269,70836,5
37279,70848,5
37273,70849,4
37282,70834,4
37283,70852,5
37287,70852,5
37283,70850,5
37273,70829,4
37270,70835,5
37261,70810,5
37254,70787,5
37239,70771,5
37228,70741,4
37207,70711,5
37190,70692,5
37182,70677,5
37163,70643,5
37158,70632,4
37153,70619,5
37152,70625,5
37146,70616,5
37154,70624,5
37153,70637,5
37161,70634,4
37166,70650,5
37170,70652,5
37178,70655,4
37185,70677,5
37192,70689,5
37195,70707,5
37205,70705,5
37199,70693,4
37188,70676,5
37179,70670,5
37168,70648,5
37158,70649,5
37157,70643,4
37155,70639,5
37155,70641,5
37161,70633,5
37162,70644,5
37169,70662,4
37170,70679,5
37192,70695,5
37200,70715,5
37216,70738,5
37226,70769,4
37243,70804,6
37266,70827,4
37284,70848,5
37294,70885,4
37313,70906,5
37324,70927,5
37335,70952,5
37339,70960,5
37344,70969,4
37355,70987,5
37364,70993,5
37362,71005,5
37362,71002,5
37370,71016,4
37371,71012,5
37369,71010,5
37362,71016,5
37376,71012,5
37381,71029,4
37389,71021,5
37382,71023,5
37379,71019,6
37386,71025,3
37377,71034,4
37381,71023,5
37387,71022,5
37377,71026,5
37384,71016,4
37372,71019,5
37378,71015,5
37378,71000,5
37368,71001,5
37370,70998,4
37358,70984,5
37361,70990,5
37353,70972,5
37356,70984,5
37358,70968,4
37356,70976,5
37354,70979,5
37359,70979,5
37362,70983,5
37367,70995,5
37371,70999,4
37377,71020,5
37383,71031,5
37387,71040,6
37392,71049,3
37410,71060,5
37402,71069,5
37415,71083,5
37424,71091,4
37421,71112,5
37418,71106,5
37433,71110,5
37425,71105,5
37427,71099,4
37414,71092,5
37415,71078,5
37408,71060,5
37390,71041,5
37375,71013,4
37356,70995,5
37351,70958,5
37330,70937,5
37309,70916,5
37304,70899,4
37299,70871,6
37293,70868,4
37281,70868,5
37281,70869,4
37282,70863,5
37295,70874,5
37290,70882,5
37301,70888,5
37301,70907,4
37313,70914,5
37336,70944,5
37330,70943,5
37336,70950,5
37334,70943,4
37327,70917,5
37300,70911,5
37303,70900,5
37295,70873,5
37295,70867,4
37278,70857,5
37281,70841,5
37276,70831,5
37274,70839,5
37273,70828,4
37272,70833,5
37275,70840,6
37277,70839,4
37283,70856,4
37289,70863,5
37290,70868,5
37293,70871,5
37308,70899,5
37306,70910,4
37314,70923,5
37324,70916,5
37322,70936,5
37325,70942,5
37335,70941,4
37338,70943,5
37339,70953,6
37337,70949,4
37337,70947,5
37336,70962,4
37343,70949,5
37334,70953,5
37340,70957,5
37340,70958,5
37334,70954,4
37340,70957,5
37340,70957,5
37336,70956,6
37337,70942,3
37335,70939,5
37326,70933,5
37325,70927,5
37317,70916,5
37320,70907,4
37313,70899,5
37313,70895,5
37303,70882,5
37299,70877,5
37288,70863,4
37281,70846,5
37281,70840,5
37265,70826,5
37265,70811,5
37260,70794,4
37251,70795,5
37244,70792,5
37239,70785,5
37248,70785,5
37238,70778,5
37243,70788,4
37246,70782,5
37237,70787,5
37247,70781,6
37243,70799,3
37251,70797,5
37251,70799,5
37255,70809,5
37258,70806,4
37257,70820,5
37259,70820,5
37261,70813,5
37261,70816,5
37265,70824,4
37255,70815,5
37264,70812,5
37251,70812,5
37260,70810,5
37256,70802,4
37247,70803,5
37258,70786,5
37247,70779,5
37241,70777,5
37243,70775,4
37240,70770,6
37235,70753,4
37234,70754,5
37221,70741,4
37216,70735,4
37211,70725,5
37211,70722,5
37205,70716,5
37191,70699,4
37186,70692,5
37194,70683,5
37185,70681,5
37185,70668,5
37175,70666,4
37170,70651,5
37170,70645,5
37159,70641,5
37157,70640,5
37163,70636,4
37156,70622,5
37153,70620,5
37141,70613,5
37136,70597,5
37135,70593,4
37124,70582,5
37125,70578,6
37127,70567,4
37114,70567,4
37112,70550,4
37109,70547,5
37094,70540,5
37094,70537,5
37090,70516,4
37079,70483,5
37062,70457,5
37043,70418,5
37016,70367,5
36983,70318,4
36945,70257,5
36922,70210,5
36900,70179,5
36892,70171,5
36888,70166,4
36897,70177,5
36902,70177,5
36910,70187,5
36922,70213,5
36917,70226,4
36932,70245,5
36951,70269,5
36969,70301,6
36976,70329,3
36997,70354,4
37013,70387,5
37033,70402,5
37041,70420,5
37038,70423,4
37029,70405,5
37024,70382,5
37018,70374,5
37013,70366,5
37002,70356,4
36997,70350,5
37016,70357,5
36994,70350,5
36993,70344,5
37003,70341,4
36997,70356,5
36996,70360,5
37007,70376,5
37013,70381,5
37029,70394,5
37031,70413,4
37048,70440,5
37063,70463,5
37071,70476,4
37082,70504,4
37091,70518,5
37098,70544,5
37120,70557,5
37125,70572,4
37122,70590,5
37135,70596,5
37140,70600,5
37143,70607,5
37153,70611,4
37146,70622,5
37153,70629,5
37155,70615,5
37151,70612,5
37160,70604,4
37151,70614,5
37141,70614,5
37151,70605,5
37151,70616,5
37147,70599,4
37139,70604,6
37135,70582,4
37132,70575,5
37123,70570,4
37114,70574,4
37118,70561,5
37107,70540,5
37110,70530,5
37105,70522,4
37101,70518,5
37093,70509,5
37085,70501,5
37088,70495,5
37091,70498,4
37080,70491,5
37083,70492,5
37075,70480,5
37083,70486,5
37078,70487,4
37081,70485,5
37077,70493,5
37084,70490,5
37090,70487,5
37097,70506,4
37094,70520,5
37101,70533,6
37104,70539,4
37106,70535,4
37120,70549,4
37106,70557,5
37113,70559,5
37113,70561,5
37128,70569,4
37120,70557,5
37126,70568,5
37120,70565,5
37119,70560,5
37125,70561,4
37114,70553,5
37116,70547,5
37119,70551,5
37112,70542,5
37110,70529,4
37097,70528,5
37101,70520,5
37091,70513,5
37080,70510,5
37089,70488,4
37083,70489,5
37081,70487,5
37069,70487,5
37069,70474,4
37065,70468,4
37063,70455,5
37061,70456,5
37052,70451,5
37056,70444,4
37057,70430,5
37048,70439,5
37049,70421,5
37045,70436,5
37045,70421,4
37036,70415,5
37033,70419,5
37030,70405,5
37025,70400,5
37024,70390,4
37030,70384,5
37025,70387,5
37023,70375,5
37023,70372,5
37005,70367,5
36994,70337,4
36992,70319,5
36973,70301,5
36963,70272,4
36936,70238,4
36923,70207,5
36900,70158,5
36877,70132,5
36875,70104,4
36867,70092,5
36852,70091,5
36856,70086,5
36862,70098,5
36864,70097,4
36870,70115,5
36884,70139,5
36892,70145,5
36908,70175,5
36908,70192,4
36928,70213,5
36927,70227,6
36946,70235,4
36944,70266,5
36953,70265,4
36949,70274,7
36942,70257,3
36953,70226,5
36927,70225,4
36927,70217,4
36927,70216,5
36920,70206,5
36919,70206,5
36921,70209,4
36931,70223,5
36935,70219,5
36935,70231,5
36957,70250,5
36958,70271,4
36957,70292,5
36975,70312,5
36992,70342,5
37010,70372,5
37016,70399,4
37034,70429,5
37054,70442,5
37064,70455,6
37075,70491,4
37081,70499,4
37091,70511,5
37091,70520,5
37101,70529,5
37107,70533,5
37106,70530,4
37103,70540,5
37110,70536,5
37112,70541,5
37105,70528,4
37107,70536,5
37104,70520,5
37103,70529,5
37102,70521,5
37099,70526,4
37095,70516,5
37094,70510,5
37088,70506,5
37086,70489,5
37084,70488,5
37080,70472,4
37067,70472,5
37064,70469,5
37059,70442,6
37054,70430,3
37054,70427,5
37037,70416,5
37044,70405,5
37037,70404,5
37034,70405,4
37035,70400,5
37035,70395,5
37026,70389,5
37030,70400,4
37022,70402,5
37033,70397,5
37036,70410,5
37031,70409,5
37037,70407,4
37051,70431,5
37053,70428,5
37056,70441,5
37062,70451,5
37063,70461,4
37059,70451,6
37072,70469,4
37067,70463,5
37067,70461,5
37069,70481,6
37073,70472,3
37073,70471,5
37069,70464,5
37067,70463,5
37066,70462,4
37059,70455,5
37060,70447,5
37059,70444,5
37056,70445,4
37050,70429,5
37047,70425,5
37046,70421,5
37044,70417,5
37043,70412,4
37038,70410,5
37026,70399,5
37033,70393,5
37029,70381,5
37017,70386,4
37026,70364,5
37017,70372,6
37018,70365,4
37005,70358,5
37013,70348,4
37004,70342,5
36999,70330,5
36988,70325,5
36985,70307,5
36983,70287,4
36972,70275,5
36957,70256,5
36958,70240,5
36926,70201,4
36913,70171,5
36896,70144,5
36887,70128,5
36877,70094,5
36860,70090,4
36854,70083,5
36848,70062,5
36842,70070,5
36862,70074,5
36862,70072,4
36867,70085,5
36869,70096,5
36871,70108,6
36876,70109,4
36871,70124,4
36884,70126,5
36884,70136,5
36889,70148,5
36895,70146,5
36889,70145,4
36882,70139,5
36880,70112,5
36872,70109,5
36861,70096,4
36859,70094,5
36873,70089,5
36864,70093,5
36863,70097,5
36862,70099,4
36876,70102,5
36878,70109,5
36885,70131,5
36888,70139,5
36896,70163,5
36913,70186,4
36928,70206,5
36933,70233,5
36953,70251,6
36965,70277,3
36988,70303,5
36970,70317,5
36994,70328,5
37000,70345,5
37007,70370,4
37011,70376,5
37019,70379,5
37022,70381,5
37030,70385,4
37037,70393,4
37020,70400,5
37030,70397,5
37026,70386,5
37032,70376,4
37026,70376,5
37022,70383,5
37027,70385,5
37025,70377,5
37013,70371,4
37012,70363,6
37005,70349,4
37007,70349,5
36998,70337,5
36994,70324,4
36987,70317,9
36973,70293,1
36969,70279,5
36960,70264,5
36944,70256,4
36941,70230,5
36938,70226,5
36927,70225,5
36929,70214,4
36915,70193,5
36921,70202,5
36927,70201,5
36916,70198,5
36920,70203,4
36916,70204,5
36926,70207,5
36928,70219,5
36927,70229,5
36929,70227,4
36951,70244,5
36949,70250,6
36945,70261,4
36954,70256,5
36960,70270,4
36960,70274,5
36967,70285,5
36958,70279,5
36968,70282,5
36966,70280,4
36962,70287,5
36968,70280,5
36957,70278,5
36963,70272,4
36963,70265,4
36951,70264,5
36957,70271,5
36956,70264,5
36956,70246,4
36946,70245,5
36942,70250,5
36935,70245,5
36932,70234,5
36937,70232,4
36936,70229,5
36937,70219,5
36935,70215,6
36924,70209,4
36925,70221,4
36923,70214,5
36925,70205,5
36912,70203,5
36916,70209,5
36919,70202,4
36922,70196,5
36911,70198,5
36912,70195,5
36909,70185,4
36919,70177,4
36907,70179,5
36906,70165,5
36898,70153,5
36891,70140,4
36886,70118,5
36870,70106,5
36854,70085,5
36851,70062,5
36837,70053,5
36826,70026,4
36817,70019,5
36809,70013,5
36810,70013,5
36814,69993,4
36810,70023,5
36820,70021,5
36825,70026,5
36836,70043,5
36838,70058,4
36845,70079,5
36855,70098,5
36873,70116,5
36877,70129,4
36889,70142,4
36889,70157,5
36899,70160,5
36900,70172,5
36898,70159,4
36890,70140,5
36890,70138,5
36890,70148,5
36893,70143,5
36893,70158,4
36895,70158,6
36894,70167,4
36897,70177,5
36908,70189,5
36920,70210,4
36937,70236,5
36940,70253,5
36963,70297,5
36976,70331,5
37002,70359,4
37021,70387,5
37034,70417,5
37054,70449,5
37064,70472,4
37077,70489,4
37089,70504,5
37096,70512,5
37101,70538,5
37111,70544,4
37114,70554,5
37126,70565,5
37124,70569,5
37130,70572,5
37124,70577,4
37122,70570,5
37122,70577,6
37127,70570,4
37118,70567,5
37125,70571,4
37126,70577,5
37117,70561,5
37105,70555,5
37101,70534,5
37101,70525,4
37098,70522,5
37095,70506,5
37085,70506,5
37080,70487,4
37072,70471,4
37065,70459,5
37058,70444,5
37054,70436,5
37053,70430,4
37049,70415,5
37048,70407,5
37034,70401,5
37037,70414,5
37041,70405,4
37035,70408,5
37029,70414,5
37041,70422,5
37039,70423,5
37047,70443,4
37053,70459,5
37055,70465,5
37075,70483,5
37083,70499,5
37090,70515,4
37091,70522,5
37101,70533,5
37120,70551,5
37117,70559,4
37125,70573,4
37126,70562,5
37124,70581,5
37128,70570,5
37128,70582,4
37125,70583,5
37121,70574,4
37124,70577,5
37126,70574,5
37123,70578,5
37116,70563,3
37112,70553,5
37116,70535,5
37108,70545,5
37098,70543,4
37099,70526,5
37095,70513,5
37092,70497,5
37075,70481,5
37066,70464,4
37058,70439,5
37043,70416,5
37026,70388,5
37013,70368,5
37000,70343,4
36982,70317,5
36981,70299,5
36967,70286,5
36955,70263,4
36958,70268,5
36952,70263,6
36953,70276,4
36966,70280,5
36967,70287,4
36968,70299,7
36978,70313,3
36986,70312,5
36990,70338,5
36992,70343,4
36998,70344,5
37004,70357,5
37004,70364,5
37011,70356,5
36997,70337,4
36986,70313,5
36985,70304,5
36976,70313,5
36972,70308,5
36969,70316,4
36973,70306,5
36988,70312,5
36991,70330,5
36987,70335,4
37001,70351,5
37017,70371,5
37034,70408,6
37045,70435,4
37061,70480,4
37087,70510,5
37104,70536,5
37114,70581,5
37143,70602,5
37150,70628,4
37162,70637,5
37179,70666,5
37184,70682,5
37197,70695,5
37205,70702,4
37200,70713,5
37204,70717,5
37209,70720,5
37210,70722,5
37205,70726,4
37214,70722,5
37213,70720,5
37206,70719,5
37207,70718,5
37220,70718,4
37206,70721,5
37202,70704,5
37199,70706,6
37202,70698,3
37192,70689,5
37192,70683,5
37186,70688,5
37191,70680,5
37184,70662,4
37176,70657,5
37172,70642,5
37165,70640,5
37149,70627,5
37146,70621,4
37146,70607,5
37139,70602,5
37151,70595,5
37134,70606,5
37137,70603,4
37141,70612,5
37147,70613,5
37148,70616,5
37154,70635,4
37170,70639,5
37169,70656,4
37177,70667,5
37186,70678,5
37195,70703,6
37202,70723,3
37207,70732,5
37222,70747,5
37228,70753,5
37227,70776,4
37230,70784,5
37244,70777,5
37247,70789,5
37243,70790,5
37242,70794,4
37249,70784,5
37239,70786,5
37250,70797,5
37253,70786,5
37246,70780,4
37242,70777,5
37254,70779,5
37229,70767,5
37239,70748,4
37218,70732,4
37221,70722,6
37208,70691,4
37181,70671,5
37168,70645,4
37162,70623,5
37146,70585,5
37117,70556,5
37108,70528,5
37090,70503,4
37072,70479,5
37078,70488,5
37069,70468,5
37075,70469,5
37081,70483,4
37077,70492,5
37088,70506,5
37088,70513,5
37097,70538,5
37111,70543,4
37123,70572,5
37118,70574,5
37137,70597,5
37133,70606,4
37131,70593,4
37131,70574,5
37115,70563,6
37108,70551,4
37118,70551,4
37100,70555,5
37102,70539,5
37109,70544,5
37108,70540,5
37118,70567,4
37120,70570,5
37132,70585,5
37144,70609,5
37161,70639,5
37161,70662,4
37193,70690,5
37202,70725,5
37221,70751,5
37245,70786,5
37262,70808,4
37277,70836,5
37288,70857,5
37287,70877,5
37299,70899,5
37320,70911,4
37315,70908,5
37323,70924,5
37326,70933,6
37322,70925,3
37325,70936,5
37326,70939,5
37328,70939,5
37333,70931,5
37340,70940,4
37334,70942,5
37339,70944,5
37339,70943,5
37341,70942,5
37331,70942,4
37330,70937,5
37342,70937,5
37335,70931,5
37335,70930,5
37329,70924,4
37328,70930,5
37323,70910,5
37311,70910,5
37316,70903,4
37306,70894,5
37302,70880,4
37303,70874,5
37302,70869,5
37303,70865,4
37290,70866,5
37295,70870,5
37296,70868,5
37295,70872,5
37297,70872,4
37305,70880,5
37300,70896,5
37313,70894,5
37320,70911,5
37323,70920,4
37330,70933,5
37334,70953,5
37350,70965,5
37354,70971,5
37360,70980,4
37371,70997,5
37363,70988,5
37367,70999,5
37371,71005,5
37368,71009,4
37370,71010,6
37370,71009,4
37373,71017,5
37376,71017,4
37372,71007,5
37371,71001,5
37374,71005,5
37356,70993,5
37361,70975,4
37347,70960,5
37328,70938,5
37323,70918,5
37302,70884,5
37292,70852,4
37281,70823,5
37258,70806,5
37245,70778,5
37234,70759,5
37222,70748,4
37226,70746,5
37225,70744,5
37224,70758,5
37234,70765,5
37238,70765,4
37240,70782,5
37248,70797,6
37261,70811,4
37270,70843,4
37284,70855,5
37283,70876,5
37311,70890,5
37307,70898,5
37298,70888,4
37277,70847,5
37281,70846,5
37278,70830,5
37265,70826,5
37261,70802,4
37258,70804,5
37263,70792,5
37256,70790,5
37251,70789,5
37258,70793,4
37257,70808,7
37272,70824,3
37276,70835,5
37277,70851,5
37291,70859,4
37292,70873,5
37313,70898,5
37315,70908,5
37323,70934,4
37328,70949,5
37352,70964,5
37353,70971,5
37351,70985,5
37357,70984,4
37372,70985,5
37364,70995,5
37365,71004,5
37372,71002,5
37373,70996,4
37374,71016,5
37377,71013,5
37377,71003,5
37358,70996,5
37371,71016,4
37372,71001,5
37371,71006,5
37371,71003,5
37367,71006,5
37366,70994,5
37375,71002,4
37366,70996,5
37371,70987,5
37357,70982,4
37356,70975,4
37348,70977,5
37350,70967,5
37336,70947,5
37340,70947,4
37326,70934,5
37325,70915,5
37314,70910,5
37310,70896,5
37309,70888,4
37304,70875,5
37300,70881,5
37292,70876,5
37295,70885,5
37291,70876,4
37299,70873,5
37297,70871,5
37310,70885,5
37297,70894,5
37309,70894,4
37312,70896,6
37310,70910,4
37317,70915,5
37323,70918,4
37320,70927,5
37318,70915,5
37315,70913,5
37319,70923,5
37320,70918,4
37324,70930,5
37317,70919,5
37321,70904,5
37319,70899,5
37309,70900,4
37304,70896,5
37310,70895,5
37298,70883,5
37301,70876,5
37294,70862,4
37278,70853,5
37283,70841,5
37262,70814,5
37238,70783,5
37227,70752,4
37207,70706,5
37189,70661,5
37163,70627,5
37136,70578,4
37102,70534,5
37089,70489,5
37075,70473,5
37060,70467,5
37060,70456,4
37062,70454,5
37057,70460,5
37065,70458,5
37068,70482,5
37069,70485,4
37082,70499,5
37094,70521,5
37094,70531,5
37104,70546,5
37108,70556,5
37123,70584,4
37131,70600,5
37131,70598,5
37125,70574,6
37112,70554,3
37105,70540,5
37093,70524,5
37082,70508,5
37078,70487,4
37071,70479,4
37065,70462,5
37062,70459,5
37069,70446,5
37061,70453,4
37057,70450,5
37050,70452,5
37070,70462,5
37068,70479,5
37075,70484,4
37084,70486,5
37089,70506,5
37100,70526,5
37106,70547,5
37110,70556,4
37126,70575,6
37131,70597,4
37143,70597,5
37141,70613,5
37161,70631,6
37165,70634,3
37163,70647,5
37171,70666,5
37170,70675,4
37183,70659,4
37176,70678,5
37172,70679,5
37183,70675,5
37182,70688,4
37188,70677,5
37173,70684,5
37181,70683,5
37180,70670,5
37180,70667,4
37176,70666,5
37175,70660,5
37177,70651,5
37169,70649,5
37169,70639,4
37162,70630,5
37149,70628,6
37152,70618,4
37150,70613,5
37135,70598,4
37127,70584,5
37129,70576,5
37125,70564,5
37123,70561,4
37111,70549,4
37118,70549,5
37117,70540,5
37099,70545,5
37110,70552,4
37105,70545,5
37118,70545,5
37111,70552,5
37116,70560,5
37121,70571,4
37126,70560,5
37130,70582,5
37122,70586,5
37135,70583,5
37138,70594,4
37142,70596,5
37145,70597,5
37133,70601,6
37136,70597,4
37148,70597,4
37143,70599,5
37137,70588,5
37137,70608,5
37143,70578,4
37126,70583,4
37125,70583,5
37127,70578,5
37128,70555,5
37112,70556,4
37112,70550,5
37114,70553,5
37104,70539,5
37098,70532,5
37100,70525,4
37093,70520,5
37090,70505,5
37088,70505,5
37084,70491,5
37076,70484,5
37076,70486,4
37066,70481,5
37061,70469,5
37060,70455,6
37053,70451,3
37050,70436,5
37038,70398,5
37016,70371,5
37001,70344,4
36986,70315,4
36960,70283,5
36951,70250,5
36931,70222,5
36926,70209,4
36922,70196,5
36921,70192,5
36913,70199,5
36926,70200,5
36913,70202,4
36926,70212,5
36933,70229,5
36940,70236,5
36949,70265,5
36956,70271,4
36970,70285,6
36980,70296,4
36986,70321,5
36995,70338,5
36989,70343,4
36981,70327,5
36979,70309,5
36968,70294,5
36963,70291,4
36971,70279,4
36963,70271,5
36969,70266,5
36957,70271,5
36965,70279,4
36955,70288,5
36970,70289,5
36962,70294,5
36970,70301,5
36978,70307,4
36989,70327,5
36997,70344,5
37018,70366,5
37021,70383,5
37042,70411,4
37045,70440,5
37055,70444,6
37068,70468,4
37080,70487,5
37090,70496,4
37090,70513,5
37088,70519,5
37105,70524,5
37106,70535,4
37113,70546,4
37115,70550,5
37121,70553,5
37115,70554,5
37117,70560,4
37122,70562,5
37119,70557,5
37121,70558,5
37111,70555,5
37111,70550,4
37116,70545,5
37110,70545,5
37115,70533,5
37102,70531,5
37107,70530,4
37097,70509,5
37093,70502,5
37086,70503,6
37087,70494,4
37079,70482,4
37084,70480,5
37070,70464,5
37060,70466,5
37058,70457,5
37066,70450,4
37058,70446,5
37055,70446,5
37050,70443,5
37056,70438,4
37058,70445,5
37048,70445,5
37059,70456,5
37071,70451,5
37064,70473,4
37075,70480,5
37081,70478,5
37081,70488,5
37082,70491,5
37084,70501,5
37097,70501,4
37097,70513,5
37094,70507,5
37100,70508,5
37107,70508,4
37084,70507,5
37098,70518,5
37092,70508,5
37091,70509,5
37092,70508,4
37088,70502,5
37079,70493,5
37082,70497,5
37082,70488,4
37080,70484,5
37084,70482,5
37075,70456,5
37072,70459,5
37070,70459,4
37059,70443,5
37056,70430,5
37050,70442,5
37056,70426,5
37042,70423,4
37042,70421,6
37043,70408,4
37044,70413,5
37030,70406,5
37035,70416,4
37031,70402,5
37029,70390,5
37028,70397,5
37017,70392,5
37017,70367,4
37010,70364,5
37008,70350,5
36990,70339,5
36989,70303,4
36968,70282,5
36951,70255,5
36947,70229,5
36930,70205,5
36920,70185,4
36911,70184,5
36901,70161,5
36899,70161,5
36898,70151,5
36900,70158,4
36906,70170,5
36905,70175,6
36910,70181,4
36910,70191,5
36915,70196,4
36918,70210,5
36924,70213,5
36933,70227,5
36945,70228,5
36936,70233,4
36951,70244,5
36936,70224,5
36922,70203,5
36921,70192,4
36913,70192,5
36918,70180,5
36917,70174,5
36906,70176,5
36908,70186,4
36909,70186,5
36912,70197,5
36930,70202,5
36927,70212,5
36939,70226,4
36944,70241,5
36954,70256,5
36964,70279,5
36968,70314,5
36989,70325,4
37003,70357,5
37009,70385,5
37033,70390,5
37041,70411,5
37045,70427,4
37053,70446,5
37062,70459,5
37072,70453,5
37079,70463,4
37075,70464,5
37071,70464,5
37073,70473,5
37073,70459,5
37074,70464,4
37070,70459,5
37069,70463,5
37062,70458,5
37075,70465,5
37071,70445,5
37060,70450,4
37062,70443,5
37053,70429,5
37049,70422,5
37043,70410,4
37048,70403,5
37032,70399,5
37029,70386,5
37026,70372,5
37003,70362,4
37013,70348,5
37008,70344,5
36999,70330,5
36993,70333,4
36989,70320,5
36990,70322,5
36988,70310,5
36983,70320,5
36984,70316,4
36990,70323,5
36989,70331,5
36993,70338,5
36998,70340,5
37006,70348,4
37006,70358,6
37008,70362,4
37018,70373,5
37020,70382,5
37032,70393,4
37026,70391,5
37026,70400,5
37025,70412,5
37031,70403,5
37034,70411,9
37034,70412,0
37042,70408,5
37034,70410,5
37032,70392,4
37043,70402,5
37030,70408,5
37030,70399,5
37021,70387,5
37025,70383,4
37032,70374,5
37018,70376,5
37028,70361,6
37015,70362,4
36995,70359,4
37000,70339,5
37010,70334,5
36993,70337,5
36990,70320,5
36992,70322,4
36994,70315,5
36971,70291,5
36977,70291,5
36965,70287,5
36967,70276,4
36960,70274,5
36956,70260,5
36948,70259,5
36942,70238,4
36941,70236,5
36937,70223,5
36922,70212,5
36912,70180,5
36909,70170,5
36900,70139,4
36876,70120,5
36869,70096,5
36850,70082,6
36842,70057,3
36848,70055,5
36830,70042,5
36835,70041,5
36821,70034,5
36834,70052,4
36847,70060,5
36839,70061,5
36848,70071,5
36863,70083,5
36869,70104,4
36869,70114,5
36875,70119,5
36886,70127,5
36888,70144,4
36898,70139,5
36886,70145,5
36879,70130,5
36874,70118,5
36871,70113,4
36871,70115,6
36871,70110,4
36878,70113,5
36876,70117,5
36884,70129,6
36889,70151,3
36903,70168,5
36919,70181,5
36920,70213,5
36943,70241,4
36951,70264,5
36972,70294,5
36986,70316,5
37014,70357,5
37024,70396,4
37042,70416,5
37057,70443,5
37075,70465,5
37084,70493,4
37103,70512,5
37106,70524,5
37114,70536,5
37120,70554,5
37128,70561,4
37124,70560,5
37132,70577,6
37129,70564,4
37128,70573,5
37122,70563,4
37129,70568,5
37128,70567,5
37126,70566,5
37119,70569,5
37120,70562,4
37117,70548,5
37105,70541,5
37110,70539,5
37098,70512,5
37095,70507,4
37085,70505,5
37083,70483,5
37079,70474,5
37065,70470,4
37068,70452,5
37053,70441,5
37045,70440,5
37052,70428,5
37038,70423,4
37046,70416,5
37044,70416,5
37039,70423,6
37046,70425,4
37048,70434,4
37060,70441,5
37060,70454,5
37064,70463,5
37074,70489,5
37093,70503,4
37093,70513,5
37106,70532,5
37127,70548,5
37126,70566,5
37127,70569,4
37136,70584,5
37141,70584,5
37137,70601,5
37152,70602,4
37148,70606,5
37146,70613,5
37161,70602,5
37141,70608,5
37157,70613,5
37148,70610,4
37146,70593,5
37138,70588,5
37135,70584,6
37133,70582,3
37135,70570,5
37134,70567,5
37121,70566,5
37117,70546,5
37112,70547,4
37110,70512,5
37088,70497,5
37073,70480,5
37063,70452,5
37059,70428,4
37036,70405,5
37042,70382,5
37020,70364,5
37010,70343,4
36987,70335,5
36989,70331,5
36993,70317,5
36991,70324,5
36992,70329,4
37002,70338,6
37004,70353,4
37014,70359,5
37022,70366,5
37017,70374,4
37029,70383,5
37025,70402,5
37046,70416,5
37046,70418,5
37048,70421,4
37032,70422,5
37035,70393,5
37018,70383,5
37022,70384,5
37026,70377,4
37016,70376,5
37026,70380,5
37023,70393,5
37030,70391,4
37032,70402,4
37049,70412,5
37051,70430,5
37065,70462,5
37079,70487,4
37093,70527,5
37122,70568,6
37140,70604,4
37170,70634,5
37184,70676,4
37207,70717,5
37220,70737,5
37236,70778,5
37251,70793,5
37263,70821,4
37281,70848,5
37293,70877,5
37300,70880,5
37311,70888,5
37315,70903,4
37322,70913,5
37324,70917,5
37330,70927,5
37342,70946,4
37345,70950,4
37347,70947,5
37355,70969,5
37355,70972,5
37355,70982,4
37364,70969,5
37354,70961,5
37344,70965,6
37345,70956,4
37348,70961,4
37343,70946,5
37340,70932,5
37337,70929,5
37322,70919,5
37318,70900,4
37321,70913,5
37318,70907,5
37322,70898,5
37330,70909,5
37322,70906,4
37321,70923,5
37335,70945,5
37341,70955,5
37359,70966,4
37357,70994,4
37378,71025,5
37393,71039,5
37414,71075,5
37429,71094,5
37440,71129,4
37450,71149,5
37457,71165,5
37466,71167,5
37472,71178,4
37462,71171,5
37474,71182,5
37464,71178,5
37466,71171,5
37467,71168,4
37459,71158,5
37466,71152,5
37448,71130,5
37438,71120,5
37419,71081,4
37405,71057,5
37385,71019,5
37368,70988,5
37344,70951,5
37327,70911,4
37309,70887,5
37294,70863,5
37275,70840,5
37267,70817,4
37257,70805,6
37251,70809,4
37262,70804,5
37267,70813,5
37255,70813,4
37266,70819,5
37265,70832,5
37284,70843,5
37289,70850,5
37289,70861,4
37298,70868,5
37295,70860,5
37286,70835,5
37261,70811,5
37253,70805,4
37249,70789,5
37249,70781,5
37240,70763,5
37236,70757,5
37225,70752,4
37227,70756,5
37232,70760,5
37238,70754,5
37234,70766,4
37248,70787,5
37263,70806,6
37260,70823,4
37273,70830,5
37291,70852,4
37296,70870,5
37304,70895,5
37318,70902,5
37322,70914,5
37335,70943,4
37345,70944,5
37347,70957,5
37350,70976,5
37358,70985,5
37365,70986,4
37375,70995,5
37370,70999,5
37380,71011,5
37381,71014,5
37381,71021,4
37379,71013,5
37389,71031,5
37385,71025,5
37382,71018,4
37394,71018,5
37384,71023,5
37381,71020,5
37379,71011,5
37387,71017,4
37384,71013,5
37381,71003,5
37373,71001,5
37383,70981,5
37364,70982,4
37350,70973,5
37352,70959,5
37351,70954,5
37340,70941,5
37335,70937,4
37340,70937,5
37338,70926,5
37335,70934,5
37342,70941,5
37341,70953,4
37344,70946,5
37343,70961,5
37344,70969,5
37362,70982,5
37361,70989,4
37369,70999,5
37380,71021,5
37390,71031,5
37393,71043,4
37400,71040,5
37406,71056,5
37413,71064,5
37408,71079,5
37412,71065,4
37412,71066,5
37410,71059,5
37397,71062,5
37395,71030,5
37389,71023,4
37381,71004,5
37363,70981,5
37354,70971,5
37348,70957,5
37340,70942,4
37334,70944,5
37337,70941,4
37336,70944,5
37344,70939,4
37336,70944,6
37347,70947,3
37346,70968,5
37349,70966,5
37360,70989,4
37375,71001,5
37385,71031,5
37403,71041,5
37392,71038,5
37379,71024,4
37373,71002,5
37364,70995,5
37364,70981,5
37353,70982,5
37358,70971,4
37352,70966,5
37351,70960,5
37344,70966,5
37354,70958,5
37347,70959,4
37355,70965,5
37352,70977,6
37361,70976,4
37361,70997,4
37370,71002,4
37378,71006,5
37387,71028,5
37386,71036,5
37386,71046,4
37401,71050,5
37402,71059,5
37406,71064,5
37423,71076,5
37424,71094,4
37425,71095,5
37427,71099,5
37441,71108,5
37447,71128,5
37444,71131,4
37450,71141,5
37454,71143,5
37462,71146,5
37467,71166,5
37470,71170,4
37462,71171,5
37470,71171,5
37467,71167,6
37477,71179,3
37474,71174,4
37480,71178,5
37472,71180,5
37471,71183,5
37468,71178,4
37472,71183,5
37469,71175,5
37460,71165,5
37465,71170,5
37463,71162,4
37457,71155,5
37450,71166,5
37459,71159,5
37456,71155,5
37459,71157,4
37446,71150,5
37452,71164,5
37458,71151,5
37462,71159,5
37467,71168,5
37465,71165,4
37469,71169,5
37477,71182,5
37478,71181,6
37471,71187,6
37481,71199,2
37484,71198,5
37488,71199,5
37483,71202,4
37484,71200,5
37485,71196,5
37486,71194,5
37473,71187,5
37469,71187,4
37475,71169,5
37455,71154,5
37443,71124,5
37425,71108,5
37422,71078,4
37397,71045,5
37384,71018,5
37361,70992,5
37358,70966,5
37335,70947,4
37324,70928,6
37320,70910,4
37315,70900,5
37313,70904,5
37312,70899,4
37316,70901,5
37311,70912,5
37313,70907,5
37319,70922,4
37344,70932,5
37331,70946,5
37331,70944,5
37344,70943,5
37333,70917,4
37310,70904,5
37313,70889,5
37303,70881,5
37294,70862,5
37284,70849,4
37272,70836,5
37268,70824,5
37269,70803,5
37252,70800,5
37242,70787,4
37254,70778,5
37244,70777,6
37242,70779,4
37255,70794,5
37242,70791,4
37248,70787,5
37251,70807,5
37254,70808,5
37256,70815,4
37264,70812,5
37266,70817,5
37274,70827,5
37279,70836,5
37271,70845,4
37280,70848,5
37275,70846,5
37291,70846,5
37282,70863,5
37283,70853,4
37287,70847,5
37281,70861,5
37289,70865,5
37291,70864,5
37294,70865,4
37298,70858,5
37290,70853,5
37282,70850,6
37282,70851,4
37292,70854,4
37283,70842,5
37279,70850,5
37271,70831,5
37275,70830,4
37269,70824,5
37266,70820,5
37259,70812,5
37261,70796,5
37250,70796,4
37245,70776,5
37235,70760,5
37233,70752,5
37218,70749,5
37224,70737,4
37218,70729,5
37223,70733,5
37218,70726,5
37217,70721,5
37220,70719,5
37215,70720,4
37214,70718,5
37212,70729,5
37224,70732,5
37219,70738,4
37223,70749,5
37218,70753,5
37230,70752,5
37230,70760,4
37233,70748,4
37239,70757,5
37233,70768,5
37234,70761,5
37239,70760,4
37245,70768,5
37242,70774,5
37240,70760,5
37232,70764,5
37241,70761,4
37233,70762,5
37229,70747,5
37236,70756,5
37226,70748,5
37226,70741,4
37222,70733,6
37222,70738,4
37215,70733,5
37217,70725,5
37213,70717,4
37212,70717,5
37205,70697,5
37205,70702,5
37193,70695,4
37190,70679,4
37185,70676,5
37189,70667,5
37182,70668,5
37184,70665,4
37172,70656,5
37173,70644,5
37169,70645,5
37166,70644,5
37165,70637,4
37160,70636,5
37156,70634,5
37161,70628,5
37161,70618,5
37156,70624,4
37150,70610,5
37150,70613,6
37147,70608,4
37146,70594,5
37139,70599,4
37140,70585,5
37132,70586,5
37127,70582,5
37128,70576,4
37128,70565,4
37124,70568,5
37114,70555,5
37115,70554,5
37113,70542,4
37096,70544,5
37100,70525,5
37102,70522,5
37086,70502,5
37073,70482,4
37066,70457,5
37046,70426,5
37025,70387,5
37002,70337,5
36975,70284,4
36947,70239,5
36928,70202,5
36918,70177,5
36897,70155,5
36901,70158,4
36900,70161,5
36910,70161,5
36909,70181,5
36916,70194,4
36928,70208,4
36947,70221,5
36947,70244,5
36954,70273,5
36971,70286,4
36979,70319,5
37003,70340,5
37016,70365,5
37019,70366,5
37010,70357,4
37002,70342,5
37000,70332,5
36998,70322,5
36997,70319,5
36990,70312,5
36979,70311,4
36992,70314,5
36997,70308,5
36980,70334,5
36989,70331,4
36993,70334,5
36998,70339,5
37016,70360,5
37024,70374,5
37031,70400,4
37052,70431,5
37062,70449,5
37080,70470,5
37080,70486,4
37089,70529,5
37105,70537,5
37118,70555,5
37133,70576,5
37134,70581,4
37145,70587,5
37142,70598,5
37153,70609,5
37153,70614,5
37152,70622,4
37154,70621,6
37156,70619,4
37165,70623,5
37160,70629,5
37160,70620,4
37157,70623,5
37160,70616,5
37156,70621,5
37157,70615,5
37157,70611,4
37150,70594,5
37149,70594,5
37147,70587,5
37135,70579,4
37139,70581,5
37135,70565,5
37125,70556,5
37124,70558,5
37121,70549,4
37124,70542,5
37112,70542,5
37106,70536,5
37110,70525,5
37108,70522,4
37104,70516,5
37106,70513,5
37106,70512,5
37099,70521,5
37103,70509,4
37106,70527,5
37102,70521,5
37105,70533,5
37124,70545,5
37115,70538,4
37121,70551,5
37129,70564,5
37125,70570,5
37129,70584,4
37139,70585,5
37136,70585,5
37139,70588,5
37143,70585,5
37143,70599,4
37144,70586,5
37142,70587,5
37141,70590,5
37139,70587,5
37138,70577,3
37139,70582,5
37138,70570,5
37130,70570,5
37132,70565,5
37129,70553,4
37121,70548,5
37114,70555,5
37119,70544,5
37121,70540,5
37112,70534,4
37109,70528,5
37105,70525,5
37097,70520,5
37108,70517,4
37101,70511,4
37100,70511,5
37102,70504,5
37090,70501,5
37093,70502,4
37083,70495,6
37084,70483,4
37076,70481,5
37085,70486,5
37069,70480,6
37076,70474,3
37068,70465,5
37081,70465,5
37064,70446,5
37076,70443,4
37064,70440,5
37056,70433,5
37044,70436,5
37054,70426,5
37045,70419,4
37046,70421,5
37030,70411,5
37031,70393,5
37034,70391,4
37028,70372,4
37025,70379,5
37016,70362,5
37006,70350,5
37000,70321,4
36978,70294,5
36968,70276,6
36957,70246,4
36939,70220,5
36917,70188,4
36910,70159,5
36889,70135,5
36886,70117,5
36877,70107,5
36871,70104,4
36871,70097,5
36878,70115,5
36890,70118,5
36890,70139,5
36896,70153,4
36903,70153,5
36910,70170,5
36922,70191,5
36923,70206,4
36934,70215,4
36944,70214,5
36935,70224,5
36942,70219,5
36933,70195,4
36929,70182,5
36917,70184,5
36921,70179,6
36917,70173,4
36919,70166,4
36917,70176,5
36920,70184,5
36930,70193,5
36924,70194,5
36939,70205,4
36945,70223,5
36944,70245,5
36966,70265,5
36965,70290,5
36987,70315,4
36996,70345,5
37010,70366,5
37020,70383,5
37039,70411,4
37054,70434,4
37077,70459,5
37070,70461,5
37075,70473,5
37087,70481,5
37083,70485,4
37092,70492,5
37090,70492,5
37086,70494,6
37088,70506,3
37094,70487,5
37088,70490,5
37088,70490,5
37085,70488,5
37076,70481,4
37086,70477,5
37088,70477,5
37079,70472,5
37074,70456,5
37065,70451,4
37063,70440,5
37060,70436,5
37058,70423,5
37057,70420,5
37042,70403,4
37038,70385,5
37036,70370,5
37026,70369,5
37011,70351,4
37016,70349,6
37016,70348,4
37001,70338,5
37007,70330,5
37006,70331,6
36993,70322,3
37002,70334,5
37004,70339,5
37004,70331,5
36996,70340,4
37004,70332,5
37013,70343,5
37014,70356,5
37021,70356,5
37026,70372,4
37029,70377,5
37043,70383,5
37034,70397,5
37043,70397,4
37040,70403,4
37047,70415,5
37051,70416,5
37038,70415,5
37046,70416,4
37046,70409,5
37045,70400,6
37045,70410,4
37040,70408,5
37049,70398,4
37038,70387,5
37027,70383,5
37027,70378,5
37028,70371,5
37016,70362,4
37015,70362,5
37016,70336,5
37007,70335,5
37000,70323,5
36990,70324,4
36990,70311,5
36995,70307,5
36986,70304,5
36985,70299,4
36973,70285,5
36976,70273,4
36962,70262,5
36957,70263,5
36960,70254,4
36956,70245,5
36949,70246,5
36950,70236,6
36938,70231,4
36939,70224,4
36942,70220,5
36931,70206,5
36930,70199,5
36920,70189,5
36914,70178,4
36911,70178,5
36918,70159,5
36900,70161,5
36905,70144,5
36899,70137,4
36887,70122,5
36874,70096,5
36847,70057,5
36846,70028,4
36824,70002,4
36800,69965,5
36783,69949,5
36779,69947,5
36785,69934,5
36788,69933,4
36784,69937,5
36785,69952,5
36794,69956,5
36799,69963,4
36809,69973,5
36821,69995,5
36825,70011,5
36828,70033,5
36848,70040,4
36847,70059,5
36856,70055,5
36857,70075,5
36868,70084,5
36863,70079,4
36863,70063,5
36848,70055,5
36852,70047,5
36847,70044,4
36852,70050,4
36859,70051,5
36848,70047,5
36853,70059,5
36849,70069,4
36864,70080,6
36875,70105,4
36875,70127,5
36897,70152,5
36912,70184,4
36929,70186,5
36956,70238,5
36967,70267,5
36978,70303,5
37004,70335,4
37021,70360,5
37036,70387,5
37044,70414,5
37060,70436,5
37072,70451,4
37079,70469,5
37073,70481,5
37092,70503,5
37101,70503,4
37110,70511,4
37104,70510,5
37110,70530,5
37119,70526,5
37115,70524,4
37116,70532,5
37121,70540,6
37119,70542,4
37125,70538,5
37110,70524,4
37115,70524,5
37109,70518,5
37106,70509,5
37105,70501,5
37093,70494,4
37089,70486,5
37084,70476,5
37081,70469,5
37078,70450,5
37065,70440,4
37060,70431,5
37050,70420,5
37050,70405,5
37048,70406,4
37044,70395,5
37036,70399,5
37046,70394,5
37046,70407,5
37051,70407,4
37063,70410,5
37053,70433,5
37057,70443,5
37066,70450,5
37080,70462,4
37091,70484,5
37090,70489,5
37107,70515,5
37112,70523,5
37123,70534,4
37118,70554,5
37130,70557,5
37129,70568,5
37133,70578,5
37134,70578,4
37135,70568,5
37135,70575,5
37134,70574,5
37132,70577,4
37137,70570,5
37137,70559,5
37130,70547,5
37121,70547,5
37114,70539,5
37122,70531,4
37114,70524,5
37100,70517,5
37097,70495,5
37092,70482,4
37079,70462,5
37067,70439,5
37048,70419,5
37036,70402,5
37027,70376,4
37011,70345,5
36999,70323,5
36992,70309,5
36982,70287,4
36972,70271,4
36972,70268,5
36964,70276,5
36973,70278,5
36961,70275,4
36982,70281,5
36978,70289,5
36986,70294,5
36988,70303,5
36993,70313,4
36989,70316,6
37000,70325,4
36997,70326,5
37001,70331,5
36998,70339,4
36996,70331,5
36992,70314,5
36984,70296,5
36983,70286,5
36972,70295,4
36982,70289,5
36985,70295,5
36983,70288,5
36983,70301,4
36990,70314,4
36996,70332,5
37011,70348,5
37027,70364,5
37023,70395,4
37047,70425,5
37056,70451,5
37080,70491,5
37095,70523,5
37114,70544,4
37132,70572,5
37150,70604,5
37165,70621,5
37170,70640,5
37185,70660,4
37193,70658,5
37199,70671,5
37190,70682,5
37198,70685,5
37202,70679,4
37207,70678,5
37197,70682,5
37195,70681,5
37195,70685,5
37201,70687,4
37198,70689,5
37198,70674,5
37191,70662,5
37181,70650,5
37188,70646,4
37180,70639,5
37177,70630,5
37166,70624,6
37163,70617,3
37158,70611,5
37154,70592,5
37147,70579,5
37142,70567,5
37126,70567,4
37122,70556,5
37124,70537,5
37111,70535,5
37114,70532,5
37123,70540,4
37116,70548,5
37121,70549,5
37132,70557,5
37136,70570,5
37138,70595,4
37151,70603,5
37155,70619,5
37175,70647,5
37176,70679,4
37201,70685,5
37207,70705,4
37220,70719,5
37230,70749,5
37240,70759,6
37245,70763,3
37250,70779,5
37245,70782,5
37250,70774,5
37248,70786,4
37257,70793,5
37257,70786,5
37257,70779,5
37252,70762,5
37237,70747,4
37233,70741,5
37215,70711,5
37206,70699,5
37196,70661,5
37184,70640,4
37159,70613,5
37140,70590,5
37137,70571,5
37132,70552,4
37123,70533,4
37118,70533,6
37120,70530,4
37120,70526,5
37122,70542,4
37123,70552,5
37139,70566,5
37136,70566,5
37130,70586,5
37145,70599,4
37145,70610,5
37152,70615,5
37164,70622,5
37165,70620,5
37159,70609,4
37149,70587,5
37134,70570,5
37126,70573,5
37128,70557,5
37125,70547,4
37121,70551,5
37129,70552,5
37125,70554,5
37131,70562,4
37142,70576,4
37145,70585,5
37146,70601,6
37155,70636,4
37168,70645,4
37190,70684,5
37211,70705,5
37231,70741,5
37244,70766,5
37260,70785,4
37273,70807,5
37279,70823,5
37285,70836,5
37284,70845,5
37295,70860,4
37301,70853,5
37306,70870,5
37299,70872,5
37302,70869,5
37317,70875,4
37301,70876,5
37301,70873,5
37305,70877,5
37310,70876,5
37313,70876,4
37310,70877,5
37300,70868,5
37300,70873,6
37305,70869,3
37304,70861,5
37298,70855,5
37296,70855,5
37292,70841,5
37284,70843,4
37280,70827,5
37277,70828,5
37271,70824,5
37269,70804,5
37262,70800,4
37259,70791,5
37258,70785,5
37257,70772,5
37250,70787,5
37242,70788,4
37260,70787,5
37259,70794,5
37267,70800,5
37265,70815,5
37260,70825,5
37289,70838,4
37289,70848,5
37296,70859,5
37297,70879,6
37318,70887,3
37318,70901,5
37319,70905,5
37330,70925,5
37329,70933,4
37340,70930,5
37343,70941,5
37351,70949,5
37344,70941,5
37350,70954,4
37348,70948,5
37358,70958,5
37353,70951,5
37350,70939,5
37348,70932,4
37341,70924,5
37333,70919,5
37321,70894,5
37314,70874,5
37294,70837,4
37268,70809,6
37253,70779,4
37240,70757,5
37222,70704,4
37199,70692,4
37191,70667,5
37189,70656,5
37189,70655,5
37182,70673,4
37192,70669,5
37198,70684,5
37203,70691,5
37217,70706,5
37214,70722,4
37225,70757,5
37246,70777,5
37264,70805,5
37277,70831,5
37283,70832,4
37289,70846,5
37281,70832,5
37261,70805,5
37259,70798,5
37254,70787,4
37244,70774,5
37236,70762,6
37238,70756,4
37234,70764,4
37233,70754,4
37235,70750,5
37245,70770,5
37239,70774,5
37249,70788,4
37264,70790,5
37261,70812,5
37272,70846,5
37293,70849,5
37300,70875,4
37316,70891,5
37328,70921,5
37334,70933,5
37349,70948,5
37347,70955,4
37355,70964,5
37363,70975,5
37368,70987,5
37375,70993,5
37374,70999,4
37382,71004,5
37382,71005,5
37374,71001,6
37389,70999,4
37391,71015,4
37385,71022,5
37378,71021,5
37391,71026,5
37392,71023,4
37397,71010,5
37387,71026,5
37380,71012,5
37390,71018,5
37389,71020,4
37392,71019,5
37386,71017,5
37378,71002,5
37381,71004,5
37374,71002,4
37376,70992,5
37362,70989,5
37364,70979,5
37359,70971,5
37355,70969,5
37352,70970,4
37348,70961,5
37354,70952,5
37353,70952,5
37349,70961,4
37345,70965,5
37352,70963,5
37353,70971,5
37369,70971,8
37370,70986,1
37375,70998,5
37374,70997,5
37362,71010,5
37379,71012,4
37382,71017,5
37387,71024,5
37394,71028,5
37388,71028,5
37398,71041,4
37395,71037,5
37382,71039,5
37394,71038,5
37390,71016,5
37389,71020,4
37389,71021,6
37384,71003,4
37371,70995,5
37364,70981,5
37359,70956,4
37329,70928,5
37318,70900,5
37298,70863,5
37276,70831,4
37261,70798,4
37240,70756,5
37226,70729,5
37202,70703,5
37194,70686,4
37192,70682,5
37195,70691,5
37198,70683,5
37200,70694,5
37193,70695,4
37204,70723,5
37206,70731,5
37225,70736,5
37235,70770,5
37242,70779,4
37249,70794,5
37268,70815,6
37263,70796,4
37249,70783,5
37225,70760,4
37229,70747,5
37223,70737,5
37215,70720,5
37217,70703,4
37196,70700,4
37198,70687,5
37186,70685,5
37200,70673,5
37183,70668,4
37189,70668,5
37196,70674,5
37207,70699,5
37188,70686,5
37211,70700,4
37210,70717,5
37219,70727,5
37214,70733,5
37216,70737,5
37227,70747,4
37235,70755,5
37233,70752,5
37241,70767,5
37244,70763,5
37240,70769,4
37249,70773,5
37255,70788,5
37245,70789,5
37250,70773,4
37254,70788,4
37254,70785,5
37259,70800,5
37257,70788,5
37253,70799,4
37268,70802,5
37257,70801,5
37259,70794,5
37249,70788,5
37251,70782,4
37247,70774,5
37248,70778,5
37232,70758,5
37239,70759,5
37225,70753,5
37229,70750,4
37227,70740,5
37218,70726,5
37214,70722,5
37197,70712,4
37198,70694,5
37195,70678,5
37195,70666,5
37180,70662,5
37182,70656,4
37171,70647,5
37170,70654,5
37171,70645,5
37175,70649,4
37177,70661,5
37182,70661,5
37182,70667,5
37186,70665,5
37184,70671,4
37188,70677,5
37196,70685,6
37194,70687,4
37195,70701,5
37205,70704,4
37198,70704,7
37205,70709,3
37200,70707,5
37205,70710,5
37201,70706,4
37199,70698,5
37202,70697,5
37205,70696,5
37203,70698,5
37198,70693,4
37201,70686,5
37187,70676,5
37191,70690,5
37182,70669,4
37185,70656,5
37169,70654,5
37171,70642,5
37168,70644,5
37162,70630,4
37152,70625,5
37150,70621,5
37154,70618,6
37147,70611,4
37143,70601,4
37146,70595,5
37131,70601,5
37134,70598,5
37142,70587,5
37133,70588,4
37137,70570,5
37134,70573,5
37126,70571,5
37124,70565,5
37126,70566,4
37125,70555,5
37120,70555,5
37121,70536,5
37112,70542,4
37111,70535,4
37103,70528,5
37101,70524,5
37094,70511,5
37089,70510,5
37082,70507,4
37090,70498,5
37083,70490,5
37081,70482,6
37074,70469,3
37073,70470,5
37071,70461,5
37067,70449,5
37060,70446,5
37057,70436,4
37041,70440,5
37048,70429,5
37045,70419,5
37041,70411,5
37034,70402,4
37025,70396,5
37024,70397,5
37024,70391,5
37021,70382,5
37011,70376,4
37012,70362,5
36990,70330,5
36988,70307,5
36969,70280,4
36942,70235,6
36924,70203,4
36894,70151,5
36874,70097,5
36850,70067,6
36831,70042,3
36825,70036,5
36832,70041,5
36843,70054,5
36846,70062,4
36831,70073,5
36858,70082,5
36866,70100,5
36880,70119,5
36892,70147,4
36906,70171,5
36914,70193,5
36928,70215,5
36946,70238,5
36950,70244,4
36959,70263,5
36953,70265,5
36965,70245,5
36941,70227,4
36941,70222,5
36928,70215,6
36928,70207,4
36925,70199,5
36920,70196,4
36916,70196,5
36921,70212,5
36930,70215,5
36931,70223,5
36939,70221,4
36946,70244,5
36953,70264,5
36961,70277,5
36989,70310,5
36997,70326,4
37003,70370,5
37031,70396,5
37034,70420,5
37057,70427,5
37070,70456,4
37073,70470,5
37084,70498,5
37092,70503,5
37101,70519,4
37101,70524,4
37117,70542,5
37117,70551,6
37118,70549,4
37122,70557,4
37124,70558,5
37118,70564,5
37123,70549,5
37115,70545,5
37118,70542,4
37103,70539,5
37110,70536,5
37116,70536,5
37103,70522,5
37101,70519,4
37093,70511,5
37092,70499,5
37083,70497,5
37082,70487,5
37076,70470,4
37077,70474,5
37067,70462,5
37066,70453,5
37063,70448,5
37058,70431,4
37057,70431,5
37051,70426,5
37043,70416,6
37044,70414,3
37044,70415,5
37036,70414,5
37035,70415,5
37050,70410,5
37055,70418,4
37054,70421,5
37054,70436,5
37057,70441,5
37064,70439,5
37065,70461,4
37068,70472,5
37072,70473,5
37071,70476,5
37083,70480,5
37079,70481,4
37083,70493,5
37091,70494,5
37083,70487,5
37078,70494,5
37093,70492,5
37080,70483,4
37076,70480,5
37083,70476,5
37074,70473,4
37070,70465,5
37069,70459,5
37069,70453,5
37054,70449,5
37046,70432,4
37054,70424,5
37050,70418,5
37042,70404,5
37040,70403,5
37038,70394,4
37033,70382,5
37029,70379,5
37024,70375,5
37018,70359,5
37014,70363,4
37014,70352,5
37004,70341,5
36999,70333,5
36998,70334,5
36997,70327,4
36993,70323,6
36986,70318,4
36988,70319,5
36975,70297,4
36977,70300,4
36975,70287,5
36974,70289,5
36968,70280,5
36957,70272,4
36960,70273,5
36953,70257,5
36952,70250,5
36945,70246,5
36943,70235,4
36932,70226,5
36934,70220,5
36927,70208,5
36925,70200,5
36910,70187,4
36911,70166,5
36894,70151,5
36876,70124,5
36862,70099,5
36851,70055,4
36831,70044,5
36820,70004,6
36801,69978,4
36803,69978,4
36795,69974,4
36793,69967,5
36791,69983,5
36808,69991,5
36819,70001,4
36817,70010,5
36817,70034,5
36834,70047,5
36851,70058,5
36858,70074,4
36852,70085,5
36859,70089,5
36859,70097,5
36870,70098,5
36876,70102,4
36863,70090,5
36849,70073,5
36844,70058,5
36851,70060,5
36840,70050,4
36839,70041,5
36837,70052,5
36842,70051,5
36845,70061,5
36847,70063,4
36853,70075,5
36867,70093,5
36871,70111,5
36889,70143,4
36904,70161,5
36920,70196,5
36938,70227,5
36951,70255,5
36965,70281,4
36982,70303,5
37000,70328,5
37010,70358,5
37024,70372,5
37020,70378,4
37034,70406,5
37040,70402,5
37045,70417,5
37056,70428,5
37051,70429,5
37051,70437,4
37046,70425,5
37044,70439,5
37049,70432,5
37038,70416,4
37052,70421,5
37046,70423,5
37038,70409,5
37034,70401,4
37035,70396,4
37035,70396,5
37028,70381,5
37021,70359,5
37019,70360,4
37006,70350,5
36993,70325,5
36996,70300,5
36980,70292,5
36972,70281,4
36961,70276,5
36959,70258,5
36955,70251,5
36953,70252,5
36948,70237,4
36940,70236,6
36948,70237,4
36953,70237,5
36945,70229,5
36945,70242,4
36944,70252,5
36961,70266,5
36957,70270,5
36963,70283,4
36979,70284,4
36983,70296,5
36981,70315,5
36987,70316,5
36991,70328,4
37004,70337,5
36996,70331,5
36997,70344,5
36998,70342,5
36996,70339,4
36997,70338,5
36993,70336,5
36998,70323,5
36998,70336,6
36998,70327,3
36995,70316,5
36978,70313,5
36978,70305,5
36978,70292,5
36969,70284,4
36970,70273,5
36966,70268,5
36954,70249,5
36948,70245,5
36946,70241,4
36947,70238,5
36929,70227,5
36936,70209,5
36934,70217,4
36932,70196,5
36919,70190,5
36914,70185,5
36916,70173,5
36908,70166,4
36910,70163,4
36896,70154,5
36898,70144,5
36894,70149,5
36885,70132,3
36879,70127,5
36882,70114,5
36882,70102,5
36866,70102,5
36864,70093,4
36861,70087,5
36858,70079,5
36849,70066,5
36848,70064,5
36845,70043,4
36841,70050,5
36836,70029,5
36819,70002,5
36805,69988,4
36795,69956,4
36780,69926,5
36765,69907,5
36750,69880,5
36738,69854,4
36733,69863,6
36732,69858,4
36734,69858,5
36736,69867,5
36742,69869,6
36742,69886,3
36759,69904,5
36765,69913,5
36774,69943,5
36789,69951,4
36798,69970,5
36796,69978,5
36797,69980,5
36811,69983,5
36813,69990,4
36808,69991,5
36802,69991,5
36809,69992,5
36802,69971,4
36786,69949,4
36774,69939,5
36776,69925,5
36769,69933,5
36778,69924,4
36777,69933,5
36774,69933,6
36783,69945,4
36793,69950,5
36795,69965,4
36791,69985,5
36813,70001,5
36823,70029,5
36836,70057,5
36857,70084,4
36868,70119,5
36880,70141,5
36908,70174,5
36910,70192,5
36931,70206,4
36942,70228,5
36953,70256,5
36958,70274,5
36975,70288,5
36980,70295,4
36989,70305,5
36995,70322,5
36999,70330,5
36994,70338,4
36997,70331,5
37002,70336,5
37003,70338,6
37002,70344,4
37005,70341,4
37002,70340,5
36999,70342,5
37009,70331,5
37000,70323,5
36995,70310,4
36988,70304,5
36979,70297,5
36968,70294,5
36960,70271,5
36972,70270,4
36950,70248,5
36945,70248,5
36935,70232,5
36941,70229,5
36927,70214,4
36930,70199,5
36924,70209,5
36932,70206,5
36925,70206,5
36922,70205,4
36926,70214,5
36939,70218,5
36943,70231,6
36947,70237,3
36956,70254,5
36955,70264,5
36968,70279,5
36972,70293,5
36984,70311,4
37003,70335,5
37012,70345,5
37014,70358,5
37012,70370,5
37027,70385,4
37022,70379,5
37035,70388,5
37023,70392,5
37027,70389,5
37034,70390,4
37022,70374,5
37022,70382,5
37017,70380,5
37015,70374,4
37016,70369,5
37011,70355,4
37010,70347,5
37009,70339,5
37001,70328,6
36995,70322,3
36985,70306,5
36980,70308,5
36980,70296,5
36970,70283,4
36973,70286,5
36969,70275,5
36965,70260,5
36950,70250,5
36934,70226,4
36930,70210,5
36918,70192,5
36918,70171,5
36891,70146,5
36888,70124,4
36872,70100,5
36863,70088,5
36846,70076,5
36860,70070,5
36856,70073,4
36861,70069,6
36849,70070,4
36855,70087,5
36864,70106,4
36870,70114,5
36876,70122,5
36886,70132,5
36887,70139,5
36891,70148,4
36897,70157,5
36897,70147,5
36893,70160,5
36899,70154,5
36888,70144,4
36873,70126,5
36872,70116,5
36877,70121,5
36871,70110,5
36871,70113,4
36881,70117,5
36882,70132,5
36882,70132,5
36894,70151,5
36903,70166,4
36915,70182,5
36923,70215,6
36953,70252,4
36960,70277,4
36975,70315,5
36992,70335,5
37005,70373,5
37032,70400,5
37044,70425,4
37057,70454,5
37064,70466,5
37081,70491,5
37080,70507,5
37098,70519,4
37093,70525,5
37112,70536,5
37104,70538,5
37103,70530,5
37106,70536,4
37113,70530,5
37104,70527,5
37101,70521,5
37099,70517,5
37100,70513,4
37092,70515,5
37093,70497,5
37085,70480,6
37075,70484,3
37086,70470,4
37073,70449,5
37065,70442,5
37049,70438,5
37053,70416,4
37043,70404,5
37038,70385,5
37022,70380,5
37016,70363,5
37007,70359,4
37006,70345,5
37002,70350,5
37006,70352,5
37001,70349,5
36997,70357,4
37007,70356,5
37009,70363,5
37027,70371,5
37034,70402,5
37039,70409,5
37037,70428,4
37050,70459,5
37068,70478,5
37083,70497,4
37098,70516,4
37108,70544,5
37109,70548,5
37129,70563,5
37134,70580,4
37132,70595,5
37145,70593,5
37144,70602,5
37145,70608,5
37155,70609,4
37152,70607,5
37145,70606,5
37148,70608,5
37141,70592,5
37141,70593,4
37135,70583,5
37132,70580,5
37132,70574,5
37119,70560,5
37119,70543,4
37110,70536,6
37104,70517,4
37097,70503,5
37093,70484,5
37066,70459,4
37057,70438,5
37043,70419,5
37027,70398,5
37018,70359,4
36989,70334,5
36985,70326,5
36977,70324,5
36986,70323,5
36986,70326,4
36994,70336,5
37001,70356,5
37003,70351,5
37012,70373,5
37010,70389,4
37028,70390,5
37039,70415,5
37038,70430,5
37056,70440,5
37052,70454,4
37064,70458,5
37056,70456,6
37049,70452,4
37040,70420,5
37030,70411,4
37035,70424,5
37037,70412,5
37038,70416,5
37044,70426,4
37048,70431,4
37057,70453,5
37071,70480,5
37087,70517,5
37112,70551,4
37134,70596,5
37153,70629,5
37189,70686,5
37207,70728,5
37228,70768,4
37246,70821,5
37281,70862,5
37302,70913,5
37326,70947,5
37347,70967,4
37352,70985,5
37373,71001,5
37370,71018,5
37373,71020,5
37383,71042,4
37385,71035,5
37380,71043,5
37390,71036,5
37390,71033,5
37380,71028,4
37384,71027,5
37362,71016,5
37367,71012,5
37361,70994,4
37357,70984,5
37338,70968,5
37340,70955,5
37328,70942,5
37311,70929,4
37312,70908,5
37304,70899,5
37299,70880,5
37282,70859,5
37279,70831,5
37255,70819,4
37251,70801,5
37241,70789,5
37222,70770,5
37221,70754,4
37220,70740,5
37207,70746,5
37214,70739,5
37214,70753,5
37217,70743,4
37224,70759,5
37226,70765,5
37234,70776,5
37233,70792,4
37253,70807,4
37263,70834,5
37266,70839,5
37275,70862,5
37287,70873,4
37298,70898,5
37305,70915,5
37311,70921,4
37320,70933,5
37320,70936,4
37324,70934,6
37331,70924,3
37322,70920,5
37322,70909,5
37307,70887,4
37291,70864,5
37269,70840,5
37261,70817,5
37239,70795,5
37233,70761,4
37211,70731,5
37203,70721,5
37194,70703,5
37198,70697,4
37190,70704,4
37187,70698,5
37183,70706,5
37196,70693,5
37197,70711,4
37192,70716,5
37193,70728,5
37201,70731,6
37217,70740,4
37223,70747,4
37224,70752,5
37229,70744,5
37210,70733,5
37189,70717,5
37190,70707,4
37187,70682,5
37173,70672,5
37174,70661,5
37166,70667,5
37176,70669,4
37177,70674,5
37182,70681,5
37181,70693,5
37183,70710,5
37195,70727,4
37209,70748,5
37220,70774,5
37240,70809,5
37247,70820,5
37264,70833,4
37274,70864,5
37295,70886,5
37303,70908,6
37313,70919,3
37322,70924,5
37323,70935,5
37336,70947,5
37340,70947,5
37339,70958,4
37329,70954,5
37337,70953,5
37334,70956,5
37343,70956,5
37326,70962,4
37327,70955,5
37340,70953,9
37333,70969,1
37345,70964,5
37337,70968,4
37338,70978,5
37338,70949,5
37332,70950,5
37331,70955,4
37342,70942,5
37327,70947,4
37328,70938,5
37323,70930,5
37320,70922,6
37316,70913,3
37315,70899,5
37299,70891,5
37295,70882,5
37284,70867,4
37289,70863,5
37276,70853,5
37284,70856,5
37275,70860,5
37286,70865,4
37284,70853,5
37291,70872,5
37294,70876,5
37297,70884,5
37295,70900,4
37303,70905,5
37314,70912,5
37301,70911,5
37322,70926,4
37312,70922,4
37323,70931,6
37317,70935,4
37327,70943,5
37322,70936,4
37325,70938,5
37323,70930,5
37321,70938,5
37320,70931,5
37321,70927,4
37314,70920,5
37319,70921,5
37308,70917,5
37307,70903,5
37305,70894,4
37295,70891,5
37287,70886,5
37283,70880,5
37281,70862,5
37272,70856,4
37270,70850,5
37269,70823,5
37264,70813,5
37243,70802,5
37236,70778,4
37216,70746,5
37202,70704,6
37179,70665,4
37148,70609,4
37111,70555,5
37087,70505,5
37055,70461,5
37039,70441,5
37032,70426,4
37024,70418,5
37030,70418,5
37038,70420,5
37027,70424,5
37034,70429,4
37048,70445,5
37054,70460,5
37070,70479,5
37066,70496,5
37074,70511,4
37099,70533,5
37112,70565,5
37117,70576,5
37111,70590,5
37122,70582,4
37113,70554,5
37095,70533,5
37080,70513,6
37083,70512,3
37072,70492,4
37070,70471,5
37055,70467,5
37053,70449,5
37051,70460,4
37053,70455,5
37061,70447,5
37054,70456,5
37057,70465,5
37064,70480,4
37083,70493,5
37083,70509,5
37085,70516,5
37100,70545,5
37110,70561,4
37111,70583,5
37134,70595,5
37143,70611,5
37146,70628,5
37146,70636,5
37154,70650,4
37163,70650,5
37171,70667,5
37170,70685,5
37172,70673,4
37186,70680,5
37178,70677,5
37184,70682,5
37174,70681,4
37180,70679,5
37176,70666,5
37179,70675,5
37168,70661,5
37168,70658,4
37162,70649,5
37156,70637,5
37152,70635,5
37146,70625,5
37151,70630,4
37148,70613,5
37134,70602,5
37133,70600,5
37129,70599,5
37127,70578,4
37121,70563,6
37113,70567,4
37104,70559,5
37105,70548,5
37098,70542,4
37088,70530,5
37085,70521,5
37086,70526,5
37078,70511,4
37084,70511,5
37082,70517,5
37084,70515,5
37091,70518,5
37093,70517,4
37095,70518,5
37089,70530,5
37104,70543,5
37097,70541,5
37105,70552,4
37101,70552,5
37100,70558,5
37100,70562,5
37116,70556,5
37104,70556,4
37110,70558,5
37104,70556,6
37104,70559,4
37109,70559,5
37100,70545,4
37108,70549,5
37096,70540,5
37097,70541,5
37097,70529,4
37083,70528,5
37088,70511,5
37089,70497,5
37079,70500,5
37066,70495,4
37069,70486,5
37066,70468,5
37065,70461,5
37059,70463,5
37048,70442,4
37043,70445,5
37039,70446,5
37032,70422,5
37026,70420,5
37025,70410,4
37019,70408,5
37026,70400,5
37023,70405,5
37013,70396,5
37019,70391,4
37008,70383,5
37002,70370,5
37011,70369,5
37006,70371,4
37003,70366,5
36994,70356,5
36992,70358,5
36992,70348,5
36995,70334,4
36987,70338,5
36983,70329,5
36971,70317,5
36973,70310,5
36964,70304,4
36970,70301,5
36955,70286,5
36955,70271,5
36945,70269,5
36936,70260,5
36941,70253,4
36935,70229,5
36920,70223,5
36918,70217,5
36905,70196,4
36895,70169,5
36875,70129,5
36850,70093,5
36835,70055,4
36808,70005,4
36773,69961,5
36775,69935,5
36749,69911,5
36750,69910,4
36743,69916,5
36759,69913,5
36757,69937,5
36762,69940,5
36774,69960,4
36793,69980,5
36801,70001,5
36810,70039,5
36827,70058,5
36835,70092,4
36863,70099,6
36865,70120,4
36869,70141,5
36880,70148,5
36882,70152,4
36871,70123,5
36867,70116,5
36862,70104,5
36855,70107,4
36854,70090,4
36857,70094,5
36862,70097,5
36847,70102,5
36863,70103,4
36858,70112,5
36870,70118,5
36868,70134,5
36880,70156,5
36900,70178,4
36923,70204,5
36928,70229,5
36952,70259,5
36964,70293,5
36978,70318,4
36991,70344,5
37005,70377,5
37025,70399,5
37029,70409,5
37033,70432,4
37047,70448,5
37068,70456,5
37062,70463,5
37064,70465,4
37064,70478,4
37071,70483,5
37076,70472,5
37065,70485,5
37071,70484,4
37063,70470,5
37067,70471,5
37059,70466,5
37065,70468,5
37063,70467,4
37059,70463,5
37052,70444,5
37042,70433,5
37039,70428,5
37033,70431,4
37033,70408,5
37022,70394,5
37006,70385,5
37012,70381,5
37006,70358,4
37000,70351,5
36997,70336,5
36988,70334,5
36991,70320,4
36988,70318,4
36976,70317,5
36977,70312,5
36972,70312,5
36968,70310,4
36977,70313,5
36977,70316,5
36974,70324,5
36987,70323,5
36987,70322,4
36990,70334,6
36992,70344,4
37004,70359,5
36998,70360,5
37007,70369,6
37017,70379,3
37015,70382,5
37024,70390,5
37014,70389,5
37015,70392,4
37019,70387,5
37018,70388,5
37017,70386,5
37015,70385,4
37019,70376,4
37013,70372,5
37017,70372,5
37007,70366,5
37004,70363,4
37008,70356,5
37001,70365,5
36996,70354,5
36992,70348,5
36989,70343,4
36991,70340,5
36985,70326,6
36987,70313,4
36977,70315,5
36972,70297,4
36968,70295,5
36961,70277,5
36947,70266,5
36947,70258,5
36945,70250,4
36937,70239,5
36935,70238,5
36925,70224,5
36924,70222,4
36924,70217,4
36910,70205,5
36919,70205,5
36905,70186,5
36908,70196,4
36907,70184,5
36890,70163,5
36886,70155,5
36879,70133,5
36867,70115,4
36848,70090,5
36844,70071,5
36821,70032,6
36807,69997,4
36792,69988,4
36782,69949,5
36763,69930,5
36755,69928,5
36763,69915,5
36760,69913,4
36764,69925,5
36761,69929,5
36768,69935,5
36779,69949,4
36794,69969,4
36785,69973,5
36797,69983,5
36801,69995,5
36802,70010,4
36802,70010,5
36805,70012,5
36803,70010,5
36810,70008,5
36804,69995,5
36797,69975,4
36794,69966,5
36788,69965,5
36776,69963,6
36783,69951,3
36771,69958,5
36784,69968,5
36784,69984,5
36798,69983,5
36787,69992,4
36815,70017,5
36822,70041,5
36836,70068,5
36844,70090,4
36861,70113,4
36884,70135,5
36892,70177,5
36919,70192,5
36923,70215,4
36933,70237,5
36936,70251,5
36969,70268,5
36958,70281,5
36960,70298,4
36969,70305,6
36984,70301,4
36973,70311,5
36988,70313,5
36975,70317,4
36979,70319,5
36973,70307,5
36966,70305,5
36976,70305,5
36969,70300,4
36973,70300,5
36971,70297,5
36954,70286,5
36963,70273,5
36956,70270,4
36946,70250,5
36942,70234,5
36937,70221,5
36932,70220,4
36926,70217,5
36913,70195,5
36905,70187,5
36894,70167,5
36904,70149,4
36891,70149,5
36881,70150,6
36882,70127,4
36874,70131,5
36867,70124,4
36874,70129,5
36874,70129,7
36880,70130,3
36883,70140,5
36888,70147,4
36898,70155,5
36891,70155,5
36907,70169,5
36906,70187,5
36910,70186,4
36914,70202,5
36928,70211,5
36928,70224,5
36931,70235,4
36941,70240,5
36935,70240,5
36939,70230,5
36934,70233,5
36935,70226,4
36933,70236,5
36934,70232,5
36926,70216,6
36935,70215,4
36923,70206,4
36918,70201,5
36914,70199,5
36905,70174,5
36898,70171,5
36909,70163,4
36897,70156,5
36884,70151,5
36882,70133,5
36880,70130,5
36871,70115,4
36872,70118,5
36857,70099,5
36852,70080,5
36858,70088,4
36847,70071,5
36839,70067,5
36836,70058,5
36835,70049,5
36824,70043,5
36831,70039,4
36826,70025,5
36817,70018,5
36811,70011,5
36808,70017,4
36807,70002,5
36809,70006,5
36799,69997,5
36795,69981,5
36794,69984,4
36789,69964,5
36774,69942,5
36767,69925,5
36746,69907,5
36735,69869,4
36718,69847,5
36709,69816,5
36693,69793,5
36679,69781,4
36685,69764,5
36676,69771,5
36671,69780,5
36689,69786,5
36691,69793,4
36699,69803,6
36704,69825,4
36713,69830,5
36724,69846,5
36733,69864,4
36735,69879,5
36734,69885,5
36733,69879,5
36735,69881,5
36744,69883,4
36747,69885,5
36738,69885,5
36739,69864,5
36724,69840,5
36722,69841,4
36718,69830,5
36718,69838,5
36716,69836,5
36715,69837,4
36715,69837,5
36725,69851,5
36722,69867,5
36727,69875,5
36745,69901,4
36761,69913,5
36777,69945,6
36779,69971,4
36798,69996,5
36813,70017,4
36833,70053,5
36828,70082,5
36854,70097,5
36877,70127,5
36884,70136,4
36884,70161,5
36901,70176,5
36908,70180,5
36910,70194,5
36926,70211,4
36921,70210,5
36923,70220,5
36931,70219,5
36930,70218,4
36921,70224,5
36925,70226,5
36924,70212,5
36926,70215,5
36922,70214,4
36923,70212,5
36921,70203,5
36913,70186,5
36915,70182,5
36900,70179,4
36897,70162,5
36893,70154,5
36883,70146,5
36876,70130,5
36862,70111,4
36857,70094,5
36848,70084,5
36843,70075,5
36841,70064,5
36836,70049,4
36832,70061,5
36832,70048,5
36826,70046,5
36833,70038,4
36823,70049,4
36831,70060,5
36831,70059,5
36839,70066,5
36845,70087,5
36856,70092,4
36867,70104,5
36863,70114,5
36878,70133,5
36876,70137,4
36894,70152,5
36900,70187,5
36906,70176,5
36903,70182,5
36911,70196,4
36916,70193,5
36921,70196,5
36916,70190,5
36911,70190,5
36910,70188,4
36907,70187,5
36902,70180,5
36901,70183,5
36905,70170,4
36898,70163,4
36893,70155,5
36885,70158,5
36895,70142,5
36881,70140,4
36873,70132,6
36872,70123,4
36878,70118,5
36871,70113,5
36863,70099,4
36867,70095,5
36865,70088,5
36849,70072,5
36850,70072,5
36847,70065,4
36843,70073,5
36840,70064,5
36837,70059,5
36833,70055,5
36826,70049,4
36828,70039,5
36829,70043,5
36819,70020,5
36807,70006,4
36806,69998,4
36809,69983,5
36789,69962,5
36787,69949,5
36764,69925,4
36755,69902,5
36747,69886,6
36738,69876,4
36738,69877,5
36745,69876,4
36741,69883,5
36737,69886,5
36745,69901,5
36757,69916,5
36768,69930,4
36778,69958,5
36791,69974,5
36801,69981,5
36807,70004,5
36821,70025,4
36814,70025,5
36826,70031,5
36835,70044,5
36826,70035,5
36817,70022,4
36804,70013,5
36812,70008,5
36807,70014,6
36807,70006,3
36806,70009,5
36814,70021,5
36816,70025,5
36821,70048,5
36840,70064,4
36841,70091,5
36868,70115,5
36881,70145,5
36896,70180,5
36918,70208,4
36931,70243,5
36953,70272,5
36967,70313,5
36992,70335,5
37009,70371,4
37029,70400,5
37040,70421,5
37049,70441,5
37054,70461,5
37075,70465,5
37077,70489,4
37084,70495,5
37084,70502,5
37080,70518,6
37090,70506,3
37093,70512,5
37098,70518,5
37083,70504,5
37086,70508,4
37088,70507,5
37091,70498,5
37081,70499,5
37073,70474,5
37064,70473,4
37061,70452,5
37040,70439,5
37040,70435,5
37025,70414,5
37037,70398,4
37020,70375,5
37009,70361,5
36998,70339,5
36990,70330,5
36990,70324,4
36976,70308,6
36974,70299,4
36974,70294,5
36977,70290,4
36970,70292,7
36967,70297,3
36978,70313,5
36983,70328,5
36989,70325,4
36995,70348,5
37006,70368,5
37012,70379,5
37032,70400,5
37032,70411,4
37038,70435,5
37050,70450,5
37060,70465,5
37058,70473,5
37070,70487,4
37077,70487,5
37091,70493,5
37084,70503,5
37083,70502,5
37088,70497,4
37078,70497,5
37081,70491,6
37080,70488,4
37066,70467,4
37047,70457,4
37052,70436,5
37030,70411,5
37009,70387,5
37002,70354,4
36984,70309,5
36968,70281,5
36942,70266,5
36934,70222,5
36919,70207,4
36918,70201,5
36911,70191,5
36906,70186,5
36909,70194,5
36915,70201,4
36927,70217,5
36920,70223,5
36928,70227,5
36937,70239,5
36942,70258,4
36947,70257,5
36948,70264,5
36947,70268,6
36957,70285,3
36960,70285,4
36957,70272,5
36951,70258,5
36939,70243,5
36938,70231,4
36930,70235,5
36944,70233,5
36929,70235,5
36941,70238,5
36936,70245,4
36944,70248,5
36951,70261,5
36960,70288,5
36971,70305,5
36987,70328,4
36999,70376,5
37028,70409,5
37049,70436,5
37061,70474,5
37081,70512,5
37104,70541,4
37119,70574,5
37131,70590,5
37149,70626,6
37152,70636,3
37169,70649,5
37180,70671,5
37178,70680,5
37185,70676,4
37182,70687,5
37187,70693,5
37193,70703,5
37195,70693,5
37196,70688,4
37193,70685,5
37198,70695,5
37198,70692,5
37193,70689,5
37186,70678,4
37186,70673,5
37178,70657,5
37169,70646,5
37157,70632,5
37148,70621,4
37148,70605,6
37134,70594,4
37123,70573,5
37115,70555,5
37101,70542,4
37100,70522,5
37095,70519,5
37088,70507,5
37083,70489,4
37084,70493,4
37082,70496,5
37087,70495,5
37078,70507,5
37095,70507,4
37094,70517,5
37100,70535,5
37105,70551,5
37122,70566,5
37119,70577,4
37137,70604,5
37145,70618,5
37162,70642,5
37174,70652,5
37171,70669,4
37184,70669,5
37186,70679,6
37187,70678,4
37198,70691,5
37191,70687,4
37198,70692,5
37197,70681,5
37184,70684,5
37180,70669,5
37172,70655,4
37170,70637,5
37148,70601,5
37128,70579,5
37108,70545,4
37083,70504,5
37071,70471,5
37050,70443,5
37037,70400,5
37027,70388,4
37017,70372,5
37005,70379,5
37016,70371,5
37017,70375,5
37024,70387,4
37032,70404,5
37032,70411,5
37036,70419,6
37043,70429,4
37058,70442,4
37059,70460,5
37064,70480,5
37074,70485,5
37088,70484,5
37080,70486,4
37061,70463,5
37055,70448,5
37046,70434,5
37042,70430,4
37040,70403,4
37028,70406,5
37029,70400,5
37039,70400,5
37038,70421,4
37033,70426,10
37110,70532,5
37110,70532,5
37119,70571,5
37141,70591,4
37153,70621,5
37178,70651,5
37186,70693,5
37206,70711,4
37219,70722,5
37220,70743,5
37233,70756,5
37244,70762,5
37241,70772,4
37235,70790,5
37239,70777,5
37240,70780,5
37242,70784,4
37248,70786,4
37259,70788,5
37243,70789,5
37253,70791,5
37249,70781,4
37242,70786,5
37246,70793,5
37244,70784,5
37250,70778,5
37249,70790,4
37248,70770,6
37248,70769,4
37245,70768,5
37236,70758,5
37235,70762,4
37229,70763,5
37230,70743,5
37229,70749,5
37212,70724,5
37209,70726,4
37216,70724,5
37208,70717,5
37202,70710,5
37202,70705,5
37210,70707,4
37208,70715,5
37215,70722,5
37210,70722,5
37220,70722,4
37224,70735,5
37225,70749,5
37232,70767,5
37242,70772,5
37247,70784,4
37252,70788,5
37256,70801,6
37260,70814,4
37266,70811,5
37275,70818,4
37274,70816,5
37271,70816,5
37264,70814,5
37264,70831,5
37272,70814,4
37267,70809,5
37259,70812,5
37262,70806,5
37254,70799,5
37268,70792,4
37248,70783,5
37250,70778,5
37242,70769,5
37237,70772,4
37238,70759,4
37231,70762,5
37229,70753,5
37225,70737,5
37213,70728,4
37204,70696,5
37186,70675,5
37163,70639,5
37145,70605,5
37125,70556,4
37092,70512,5
37072,70463,5
37039,70422,5
37031,70395,5
37021,70374,4
37007,70367,5
37000,70360,5
37013,70371,5
37007,70369,5
37011,70375,4
37013,70382,5
37025,70406,5
37033,70414,5
37043,70440,5
37051,70459,4
37065,70465,5
37068,70490,5
37083,70510,5
37091,70515,5
37085,70509,4
37076,70488,5
37061,70461,5
37054,70447,5
37047,70428,4
37044,70416,5
37031,70399,5
37022,70394,5
37016,70376,5
37011,70373,4
37013,70373,5
37001,70370,5
37011,70396,5
37023,70394,5
37024,70405,4
37018,70419,5
37042,70425,5
37045,70438,5
37052,70466,5
37060,70476,4
37084,70498,5
37094,70514,5
37100,70526,5
37118,70546,4
37114,70560,6
37126,70573,4
37125,70573,5
37147,70584,5
37139,70592,4
37135,70597,5
37133,70601,5
37143,70590,5
37131,70594,5
37140,70586,4
37131,70581,5
37136,70582,5
37131,70583,5
37136,70576,5
37124,70584,4
37127,70569,5
37118,70556,5
37113,70554,5
37113,70546,5
37115,70543,4
37113,70542,5
37105,70535,6
37098,70530,4
37095,70510,4
37090,70501,4
37077,70494,5
37082,70486,5
37069,70470,5
37070,70468,4
37066,70464,5
37054,70456,5
37062,70442,5
37057,70447,5
37054,70446,4
37059,70438,5
37053,70460,5
37062,70458,5
37058,70443,5
37058,70455,4
37069,70469,5
37069,70470,5
37070,70467,5
37064,70468,5
37072,70479,4
37069,70483,5
37080,70488,5
37081,70487,6
37075,70488,4
37071,70484,4
37076,70475,5
37069,70485,5
37070,70479,5
37073,70481,4
37060,70475,5
37057,70466,5
37059,70458,5
37064,70450,5
37058,70444,4
37053,70438,5
37049,70431,5
37039,70423,5
37034,70419,5
37033,70409,4
37022,70401,5
37025,70380,5
37021,70368,5
37002,70370,5
37007,70359,5
36992,70349,4
36994,70339,5
36990,70341,5
36988,70324,6
36990,70321,3
36984,70308,5
36977,70310,5
36971,70304,5
36969,70299,4
36961,70298,4
36957,70284,5
36947,70277,5
36962,70272,5
36959,70264,4
36956,70261,5
36950,70252,5
36942,70238,5
36930,70222,5
36922,70200,4
36895,70166,5
36883,70127,5
36850,70083,5
36817,70027,5
36800,69981,4
36771,69937,6
36751,69915,4
36755,69905,5
36748,69900,5
36757,69899,4
36763,69915,5
36752,69915,5
36764,69924,5
36770,69948,4
36795,69980,4
36803,70008,5
36820,70035,5
36841,70060,5
36850,70080,4
36863,70105,5
36873,70119,5
36878,70145,5
36888,70143,5
36879,70138,4
36871,70127,5
36872,70100,5
36863,70094,5
36859,70084,5
36838,70074,4
36851,70081,5
36842,70073,6
36837,70066,4
36839,70076,5
36852,70078,4
36855,70090,5
36857,70097,5
36866,70104,5
36871,70128,5
36886,70146,4
36902,70165,5
36910,70193,5
36919,70222,5
36945,70249,4
36961,70276,5
36966,70300,5
36967,70317,5
36982,70326,5
36989,70344,4
37006,70348,5
37007,70362,5
37010,70366,5
37025,70379,5
37024,70380,4
37015,70390,5
37022,70388,5
37023,70378,6
37020,70381,4
37020,70382,4
37014,70384,5
37011,70375,5
37012,70371,5
37021,70364,5
37007,70354,4
37011,70349,5
37002,70350,5
37015,70338,5
36994,70328,4
36987,70330,4
36983,70323,5
36999,70316,5
36977,70305,5
36980,70299,4
36966,70285,5
36972,70290,5
36966,70274,5
36955,70267,5
36960,70265,5
36960,70267,4
36953,70261,5
36954,70266,5
36956,70260,6
36957,70259,3
36962,70267,5
36959,70282,5
36961,70285,5
36966,70274,5
36967,70288,4
36976,70306,5
36973,70302,5
36982,70323,5
36984,70317,4
36986,70329,4
36991,70331,5
36997,70342,5
36999,70325,5
36992,70324,4
36994,70327,5
36984,70331,5
36986,70328,5
36985,70322,5
36979,70309,4
36978,70314,6
36981,70301,4
36972,70297,5
36970,70291,5
36969,70287,4
36962,70282,5
36962,70272,5
36952,70267,5
36953,70249,5
36947,70242,4
36946,70232,5
36939,70222,5
36931,70225,5
36933,70223,4
36928,70202,4
36922,70193,5
36919,70198,5
36916,70195,5
36905,70179,4
36912,70173,5
36903,70162,5
36900,70162,5
36897,70160,5
36898,70147,4
36883,70140,5
36874,70132,7
36887,70127,3
36876,70117,5
36866,70104,4
36861,70108,5
36874,70097,5
36855,70094,5
36854,70071,5
36844,70079,4
36844,70061,5
36833,70057,5
36836,70051,5
36835,70047,5
36831,70041,4
36825,70022,5
36818,70024,5
36823,70013,5
36810,70003,4
36801,69991,5
36795,69974,5
36783,69962,5
36780,69937,5
36764,69909,4
36740,69875,5
36730,69844,5
36705,69808,6
36694,69783,4
36676,69759,4
36677,69760,5
36669,69763,5
36677,69759,5
36681,69770,5
36688,69782,4
36687,69794,5
36702,69804,5
36714,69824,5
36722,69853,5
36732,69874,4
36745,69896,5
36761,69912,5
36756,69922,5
36768,69925,4
36765,69929,4
36770,69938,5
36765,69915,5
36752,69898,5
36743,69877,5
36736,69861,4
36728,69873,5
36733,69864,5
36732,69865,5
36737,69869,4
36736,69873,5
36738,69876,5
36748,69893,5
36749,69906,5
36761,69916,4
36773,69936,5
36789,69968,5
36798,69994,5
36818,70018,5
36827,70042,4
36843,70086,5
36863,70109,5
36871,70131,5
36888,70156,4
36903,70175,4
36905,70194,5
36913,70198,5
36915,70206,5
36930,70210,4
36933,70225,6
36921,70234,4
36942,70229,5
36938,70238,5
36933,70232,4
36942,70233,5
36934,70227,5
36932,70233,5
36932,70227,5
36932,70227,7
36940,70227,2
36928,70221,5
36929,70199,5
36923,70193,5
36915,70188,4
36910,70174,5
36902,70165,5
36896,70155,5
36883,70149,5
36883,70123,4
36880,70113,5
36864,70103,5
36857,70100,5
36849,70077,4
36851,70072,5
36836,70061,6
36842,70066,4
36839,70048,5
36841,70056,4
36844,70050,5
36839,70063,5
36843,70065,5
36848,70072,5
36852,70070,4
36847,70088,5
36851,70093,5
36864,70101,5
36866,70119,5
36867,70125,4
36873,70135,5
36886,70139,5
36884,70149,5
36887,70143,5
36897,70162,4
36898,70149,5
36892,70165,5
36890,70152,5
36890,70148,4
36894,70150,5
36885,70144,5
36886,70136,5
36879,70129,5
36870,70127,4
36868,70113,5
36868,70109,5
36864,70106,5
36860,70092,5
36856,70078,4
36851,70071,5
36849,70064,5
36842,70049,5
36835,70054,5
36818,70040,4
36825,70029,5
36806,70018,5
36808,70004,5
36801,69998,5
36797,69986,5
36797,69979,4
36785,69966,5
36784,69963,5
36778,69951,6
36780,69948,3
36773,69931,5
36776,69938,5
36766,69920,5
36761,69913,4
36750,69887,5
36730,69870,5
36725,69851,5
36718,69824,5
36704,69812,4
36697,69795,5
36676,69773,5
36674,69768,5
36674,69752,5
36667,69750,4
36680,69767,5
36677,69772,5
36677,69782,5
36689,69790,5
36706,69812,4
36706,69826,6
36715,69829,4
36718,69843,5
36723,69850,4
36722,69856,6
36730,69871,3
36726,69865,5
36730,69872,5
36736,69870,4
36734,69864,5
36727,69834,5
36718,69828,5
36714,69825,5
36716,69827,4
36723,69824,5
36706,69830,5
36723,69835,5
36722,69856,5
36733,69871,4
36735,69891,5
36751,69915,5
36771,69939,5
36782,69974,5
36805,70007,4
36825,70030,5
36844,70077,6
36855,70102,4
36879,70143,5
36909,70176,4
36914,70199,5
36933,70237,5
36936,70245,5
36957,70269,4
36973,70291,5
36982,70304,5
36987,70323,5
36994,70338,5
36997,70326,4
36989,70345,5
36998,70344,5
37008,70344,5
36996,70342,5
36998,70346,4
37003,70336,5
36997,70344,5
36999,70349,5
36992,70343,5
36991,70315,4
36982,70312,5
36975,70296,5
36954,70289,6
36970,70278,4
36954,70259,4
36944,70248,5
36931,70227,5
36931,70208,5
36916,70192,4
36898,70186,4
36902,70170,5
36892,70148,5
36886,70162,5
36897,70152,4
36900,70149,5
36888,70151,5
36903,70153,5
36899,70164,5
36914,70177,4
36911,70184,5
36915,70203,5
36929,70223,5
36945,70232,5
36945,70252,5
36957,70273,4
36964,70283,5
36973,70296,5
36981,70300,6
36980,70316,3
36981,70323,5
36986,70328,5
36990,70325,5
36982,70321,5
36985,70318,4
36977,70310,5
36984,70313,5
36986,70304,5
36975,70295,4
36971,70287,5
36967,70273,5
36955,70270,5
36953,70258,5
36942,70246,4
36943,70220,5
36915,70203,5
36909,70170,5
36887,70153,5
36878,70125,4
36865,70096,6
36850,70068,4
36842,70058,5
36819,70034,5
36817,70011,4
36817,69996,5
36803,69998,5
36806,69993,5
36810,70007,5
36813,70007,4
36816,70020,5
36816,70022,5
36824,70019,5
36824,70033,4
36828,70048,4
36834,70048,5
36831,70047,5
36830,70047,5
36829,70049,4
36835,70060,5
36832,70051,5
36831,70038,5
36814,70014,5
36806,70009,4
36811,70009,5
36802,70007,6
36801,70005,4
36819,70007,5
36811,70019,4
36814,70025,5
36823,70039,5
36832,70048,5
36846,70075,5
36858,70102,4
36876,70133,5
36886,70168,5
36909,70190,5
36924,70235,4
36953,70257,4
36960,70290,5
36978,70316,5
37002,70341,5
37010,70370,4
37022,70389,5
37029,70393,5
37029,70408,5
37035,70431,5
37044,70421,4
37050,70426,5
37042,70429,5
37049,70424,6
37052,70436,4
37052,70428,4
37042,70425,5
37052,70425,5
37038,70415,5
37039,70410,5
37035,70405,4
37020,70386,5
37024,70381,5
37022,70368,5
37008,70366,5
37008,70347,4
36998,70345,5
36984,70329,5
36983,70312,5
36974,70293,4
36967,70286,5
36950,70264,5
36956,70269,5
36950,70260,5
36942,70252,5
36945,70258,4
36950,70262,5
36955,70253,5
36958,70262,5
36962,70275,4
36959,70281,5
36974,70299,5
36986,70324,5
36994,70337,5
37004,70352,4
37016,70376,5
37027,70386,5
37035,70410,5
37040,70421,5
37044,70430,4
37047,70442,5
37065,70443,5
37064,70456,5
37063,70458,4
37059,70465,4
37069,70461,5
37060,70462,5
37057,70455,5
37059,70442,4
37057,70439,10
37056,70442,5
37050,70408,5
37034,70385,5
37028,70398,8
37035,70382,5
37018,70362,5
36943,70332,5
36974,70316,8
36974,70282,5
36946,70279,5
36931,70221,8
36924,70183,5
36898,70161,5
36902,70162,5
36898,70158,8
36898,70158,5
36902,70164,5
36905,70173,8
36906,70183,5
36916,70185,5
36914,70220,8
36920,70230,5
36922,70198,5
36931,70205,5
36922,70210,8
36896,70161,5
36896,70161,5
36894,70168,8
36890,70154,5
36888,70165,5
36899,70172,5
36912,70196,8
36928,70210,5
36928,70236,5
36939,70186,8
36960,70276,5
36976,70323,5
37086,70510,8
37086,70510,5
37106,70547,5
37121,70562,5
37142,70582,8
37151,70600,5
37168,70628,5
37167,70636,8
37156,70643,5
37167,70644,5
37181,70641,5
37187,70651,8
37179,70663,5
37175,70658,5
37179,70637,8
37179,70637,5
37176,70641,5
37162,70644,8
37195,70652,5
37166,70637,5
37151,70609,5
37152,70607,8
37152,70606,5
37147,70590,5
37144,70594,8
37126,70569,5
37120,70563,5
37114,70550,5
37097,70522,8
37097,70522,5
37096,70528,5
37074,70534,8
37094,70538,5
37115,70550,5
37121,70559,8
37124,70576,5
37135,70582,5
37141,70593,5
37153,70610,8
37166,70634,5
37161,70645,5
37194,70688,8
37194,70688,5
37165,70688,5
37190,70696,5
37202,70695,8
37202,70716,5
37191,70691,5
37191,70673,8
37205,70681,5
37210,70678,5
37186,70680,8
37171,70652,5
37167,70646,5
37162,70621,5
37073,70485,8
37073,70485,5
37065,70497,5
37043,70435,8
37038,70364,5
37026,70374,5
37042,70373,5
37042,70383,8
37017,70377,5
36989,70381,5
37023,70384,8
37035,70404,5
37039,70415,5
37079,70491,8
37079,70491,5
37086,70456,5
37086,70479,5
37076,70479,8
37080,70469,5
37062,70457,5
37008,70461,8
37045,70442,5
37055,70435,5
37042,70445,5
37074,70504,13
37074,70504,5
37101,70515,8
37099,70532,5
37115,70564,5
37141,70597,8
37166,70626,5
37169,70653,5
37173,70688,5
37232,70745,8
37232,70745,5
37246,70771,5
37267,70769,3
37267,70775,0
37267,70775,3
37247,70778,5
37250,70779,5
37251,70777,5
37256,70772,4
37250,70779,5
37242,70776,5
37243,70772,6
37260,70773,3
37249,70777,5
37248,70775,5
37247,70777,5
37257,70779,5
37244,70783,4
37243,70774,5
37234,70774,5
37253,70762,5
37236,70770,4
37241,70757,5
37233,70758,5
37228,70739,5
37226,70739,5
37222,70740,4
37222,70721,5
37218,70715,5
37206,70711,5
37209,70722,5
37211,70711,4
37204,70709,6
37208,70716,4
37210,70724,5
37219,70727,5
37212,70734,6
37227,70735,3
37224,70746,5
37228,70749,5
37238,70775,5
37245,70763,4
37245,70779,5
37245,70782,5
37260,70815,5
37260,70806,4
37272,70818,4
37268,70824,5
37278,70829,5
37269,70820,5
37261,70817,4
37261,70807,5
37263,70813,5
37264,70807,5
37259,70802,5
37256,70799,4
37257,70795,5
37260,70793,6
37256,70791,4
37250,70784,5
37250,70788,4
37237,70777,5
37245,70765,5
37226,70755,5
37231,70745,5
37232,70739,4
37214,70722,5
37202,70704,5
37187,70676,5
37169,70637,5
37138,70604,4
37121,70552,5
37099,70517,5
37073,70465,5
37044,70424,4
37032,70391,5
37017,70366,5
37004,70356,5
37006,70348,5
37003,70351,4
37005,70363,5
37012,70356,5
37016,70372,6
37024,70386,4
37028,70402,4
37048,70416,5
37045,70441,5
37056,70460,5
37070,70473,5
37077,70496,4
37076,70493,5
37088,70490,5
37061,70469,5
37063,70444,5
37045,70425,4
37038,70421,5
37029,70404,5
37025,70395,5
37023,70390,4
37017,70384,5
37016,70377,5
37021,70384,5
37024,70394,5
37030,70390,5
37035,70409,4
37038,70426,5
37044,70433,5
37054,70446,6
37062,70476,3
37076,70484,5
37071,70506,5
37098,70526,5
37099,70535,5
37110,70551,4
37111,70565,5
37123,70578,5
37130,70594,5
37143,70591,5
37143,70594,4
37136,70607,5
37150,70605,5
37137,70598,5
37147,70593,4
37149,70600,4
37142,70600,5
37144,70598,5
37138,70597,5
37136,70597,4
37137,70590,6
37136,70586,4
37123,70584,5
37128,70581,5
37121,70571,4
37120,70561,5
37117,70554,5
37117,70551,5
37115,70539,5
37105,70529,4
37097,70511,5
37096,70503,5
37084,70488,5
37074,70483,5
37068,70480,4
37064,70465,5
37067,70453,5
37039,70447,5
37056,70441,5
37045,70442,4
37051,70435,5
37051,70435,5
37043,70431,5
37053,70428,4
37058,70434,5
37063,70443,6
37044,70445,4
37054,70441,5
37058,70461,4
37069,70460,5
37060,70475,5
37068,70474,5
37075,70476,5
37080,70469,4
37074,70476,5
37073,70475,5
37072,70478,5
37069,70476,5
37068,70472,4
37065,70470,5
37069,70463,5
37059,70456,5
37063,70449,5
37048,70453,4
37057,70449,5
37043,70438,5
37045,70417,5
37043,70417,4
37043,70401,5
37029,70387,5
37031,70402,6
37020,70385,4
37018,70379,4
37012,70373,5
37007,70362,5
37012,70364,5
37004,70359,5
37000,70357,4
37003,70345,5
37001,70347,5
36996,70336,5
36995,70353,5
37003,70335,4
36996,70333,5
36995,70321,5
36986,70327,5
36991,70322,5
36980,70307,4
36978,70295,5
36971,70300,5
36971,70292,5
36964,70286,5
36959,70279,4
36960,70268,5
36949,70261,5
36946,70251,5
36945,70245,4
36945,70237,5
36944,70246,5
36928,70233,5
36928,70216,5
36919,70209,4
36922,70204,5
36921,70197,5
36911,70186,5
36903,70177,5
36903,70178,4
36899,70177,5
36900,70165,5
36891,70153,5
36885,70154,5
36887,70149,4
36881,70132,5
36868,70109,5
36868,70095,5
36838,70069,4
36827,70038,5
36803,69991,4
36773,69941,5
36760,69901,5
36736,69870,4
36728,69859,5
36725,69853,5
36726,69857,5
36732,69866,5
36730,69874,4
36738,69891,5
36745,69905,5
36758,69926,5
36773,69942,5
36789,69957,4
36806,69977,5
36812,70007,5
36818,70029,5
36824,70036,5
36835,70051,4
36838,70055,5
36833,70042,5
36819,70020,5
36813,70000,5
36795,69995,4
36794,69986,6
36796,69979,4
36799,69981,5
36793,69984,4
36802,69990,5
36798,69985,5
36808,70002,5
36814,70012,5
36816,70033,4
36833,70043,5
36846,70064,5
36853,70094,5
36870,70127,5
36892,70157,4
36908,70183,5
36923,70208,5
36930,70237,5
36944,70257,5
36956,70279,4
36967,70296,5
36978,70323,5
