RED,IR,EKG,TIME
33357,64628,5
33371,64649,5
33366,64651,5
33383,64691,8
33383,64691,5
33396,64696,5
33389,64689,8
33380,64695,5
33388,64703,5
33385,64702,8
33384,64713,5
33384,64691,5
33383,64678,5
33378,64686,7
33390,64678,5
33408,64686,5
33379,64670,8
33379,64670,5
33380,64628,5
33375,64641,5
33371,64655,8
33373,64649,5
33357,64641,5
33307,64638,8
33340,64616,5
33345,64602,5
33326,64599,5
33335,64578,8
33317,64561,5
33318,64547,5
33311,64564,8
33311,64564,5
33326,64575,5
33333,64588,8
33334,64598,5
33333,64616,5
33353,64633,5
33356,64645,8
33372,64694,5
33376,64668,5
33381,64680,8
33367,64653,5
33352,64628,5
33352,64628,5
33354,64629,8
33346,64616,5
33351,64640,5
33360,64632,8
33363,64657,5
33379,64665,5
33382,64674,8
33385,64658,5
33401,64697,5
33414,64716,5
33446,64788,8
33446,64788,5
33449,64811,5
33453,64817,8
33460,64818,5
33470,64822,5
33471,64822,5
33474,64835,8
33455,64840,5
33475,64834,5
33481,64827,8
33483,64842,5
33480,64843,5
33488,64860,8
33488,64860,5
33479,64838,5
33473,64839,5
33474,64850,8
33504,64845,5
33476,64838,5
33463,64820,8
33471,64830,5
33466,64831,5
33473,64831,5
33477,64837,8
33472,64836,5
33472,64845,5
33492,64871,8
33492,64871,5
33525,64898,5
33515,64906,8
33499,64916,5
33527,64943,5
33530,64957,5
33543,64978,8
33547,64991,5
33556,65009,5
33568,65019,8
33568,65024,5
33584,65040,5
33603,65094,10
33603,65094,9
33608,65090,5
33612,65095,8
33601,65078,5
33609,65081,5
33601,65090,8
33601,65090,5
33604,65094,5
33606,65072,5
33595,65061,8
33586,65063,5
33595,65052,5
33586,65045,8
33571,65028,5
33566,65024,5
33572,65012,8
33571,65000,5
33557,65003,5
33552,65004,5
33581,65028,8
33581,65028,5
33585,65051,5
33588,65072,8
33632,65096,5
33616,65117,5
33606,65123,1
33626,65123,2
33613,65140,4
33623,65119,5
33613,65100,5
33598,65090,6
33599,65072,3
33589,65057,4
33585,65058,5
33586,65051,5
33592,65048,5
33584,65056,4
33590,65057,5
33603,65071,5
33593,65078,5
33604,65082,5
33596,65087,4
33602,65087,5
33603,65101,5
33613,65097,5
33615,65114,5
33624,65116,4
33622,65117,5
33628,65130,5
33627,65129,5
33635,65126,5
33629,65136,5
33627,65142,4
33630,65130,5
33637,65139,5
33634,65127,5
33628,65134,4
33630,65126,5
33633,65123,5
33628,65128,5
33625,65130,4
33625,65126,4
33628,65123,5
33629,65128,5
33619,65128,5
33624,65121,4
33622,65122,5
33614,65111,5
33624,65117,5
33617,65112,5
33620,65117,4
33612,65097,5
33622,65098,5
33617,65104,5
33607,65098,5
33605,65088,4
33605,65093,6
33606,65094,4
33604,65093,5
33610,65099,5
33608,65109,4
33617,65106,5
33622,65116,5
33625,65130,5
33628,65137,5
33645,65155,4
33648,65152,5
33634,65167,5
33651,65177,5
33654,65181,4
33659,65191,4
33658,65195,5
33668,65196,5
33673,65193,5
33673,65201,4
33662,65208,5
33673,65204,5
33672,65214,5
33671,65206,5
33666,65207,4
33662,65207,5
33672,65210,6
33660,65198,4
33653,65193,5
33649,65186,4
33644,65175,5
33637,65163,5
33645,65160,5
33639,65158,5
33634,65144,4
33628,65152,5
33624,65146,5
33626,65149,5
33645,65143,5
33635,65158,4
33633,65160,5
33654,65172,5
33649,65190,5
33660,65192,4
33661,65189,5
33661,65187,5
33649,65175,5
33645,65170,5
33642,65158,4
33640,65153,5
33631,65141,5
33632,65141,5
33630,65143,5
33626,65129,4
33633,65134,5
33630,65139,5
33632,65148,5
33629,65139,5
33634,65144,4
33637,65138,5
33637,65154,5
33639,65145,5
33640,65155,5
33645,65162,4
33645,65163,5
33643,65166,5
33648,65169,5
33651,65163,5
33645,65173,4
33650,65167,5
33646,65170,5
33648,65176,5
33648,65173,5
33645,65173,4
33654,65177,5
33656,65173,5
33650,65188,5
33652,65184,4
33662,65191,5
33667,65202,5
33658,65193,5
33657,65195,5
33658,65195,4
33660,65189,5
33653,65193,5
33663,65186,5
33665,65191,5
33657,65190,4
33663,65200,5
33662,65198,5
33657,65192,5
33659,65193,5
33667,65194,4
33661,65192,5
33656,65184,5
33658,65195,5
33656,65191,4
33657,65185,5
33647,65190,4
33650,65192,5
33669,65192,5
33664,65187,4
33664,65199,5
33665,65204,5
33663,65201,5
33669,65213,5
33665,65210,4
33670,65221,5
33678,65229,5
33688,65244,5
33686,65237,5
33678,65246,4
33690,65249,5
33699,65255,5
33682,65256,5
33694,65256,5
33692,65255,4
33691,65242,5
33683,65247,5
33685,65250,4
33682,65242,5
33670,65229,4
33673,65219,7
33668,65216,3
33663,65217,5
33665,65200,4
33661,65200,4
33650,65196,5
33657,65197,5
33649,65190,5
33660,65193,4
33661,65198,5
33659,65200,5
33662,65210,5
33666,65225,5
33670,65242,4
33677,65243,5
33674,65236,5
33675,65223,5
33664,65196,5
33662,65203,4
33649,65190,5
33651,65178,5
33644,65169,6
33649,65168,4
33648,65167,4
33644,65158,5
33631,65155,5
33640,65152,5
33629,65160,5
33626,65146,4
33637,65151,5
33631,65153,5
33623,65146,5
33631,65146,4
33637,65162,4
33631,65153,5
33627,65158,5
33637,65148,5
33640,65159,4
33634,65152,5
33634,65150,5
33633,65151,5
33638,65155,5
33640,65152,5
33644,65149,4
33626,65149,5
33624,65142,5
33632,65143,6
33640,65133,3
33634,65151,5
33631,65144,5
33637,65143,5
33639,65148,5
33636,65151,4
33630,65146,5
33635,65150,5
33637,65153,5
33623,65150,5
33626,65142,4
33632,65145,5
33620,65135,5
33624,65131,5
33616,65125,4
33623,65131,4
33620,65113,5
33617,65113,5
33624,65112,5
33603,65103,4
33606,65099,6
33599,65093,4
33598,65094,5
33597,65085,5
33595,65094,7
33592,65086,2
33590,65092,5
33604,65089,5
33597,65087,5
33601,65084,4
33604,65095,5
33594,65094,5
33599,65099,5
33608,65093,5
33591,65090,4
33605,65094,5
33605,65104,5
33599,65095,5
33610,65092,5
33601,65100,4
33607,65103,5
33605,65100,5
33605,65108,5
33598,65099,4
33601,65101,4
33606,65105,6
33600,65092,6
33602,65101,3
33596,65097,4
33595,65097,5
33592,65094,5
33595,65094,5
33594,65084,5
33590,65092,4
33591,65085,5
33583,65069,5
33587,65068,5
33581,65054,5
33571,65042,4
33573,65017,5
33558,65006,5
33540,64982,5
33535,64958,5
33512,64934,4
33499,64906,5
33485,64881,5
33467,64858,5
33469,64847,5
33456,64848,4
33461,64863,5
33469,64862,6
33468,64863,4
33474,64867,4
33481,64894,5
33488,64921,5
33513,64945,5
33529,64971,5
33539,65004,4
33563,65018,5
33567,65037,5
33560,65019,5
33556,65024,5
33554,65007,4
33543,65006,5
33548,65001,5
33537,64993,5
33539,64983,5
33539,64968,4
33541,64974,5
33532,64968,5
33530,64967,5
33537,64967,5
33535,64968,4
33526,64975,5
33539,64974,5
33536,64981,6
33541,64975,4
33529,64981,4
33540,64973,5
33542,64977,5
33533,64982,5
33535,64980,4
33539,64972,5
33537,64983,5
33541,64970,5
33529,64969,5
33526,64962,4
33523,64967,5
33530,64958,5
33534,64956,5
33534,64960,5
33531,64964,4
33527,64964,5
33532,64967,5
33529,64968,5
33544,64968,5
33538,64977,5
33534,64973,4
33535,64981,5
33532,64974,5
33540,64980,5
33538,64988,4
33546,64977,5
33545,64976,5
33544,64981,5
33530,64988,5
33541,64972,4
33549,64989,5
33540,64979,5
33536,64979,5
33535,64971,4
33534,64969,5
33530,64968,5
33520,64961,5
33532,64960,5
33524,64960,4
33530,64955,5
33519,64956,5
33521,64946,5
33526,64950,5
33528,64957,4
33530,64960,6
33524,64959,4
33520,64960,5
33527,64953,5
33534,64960,4
33533,64969,5
33532,64976,5
33540,64983,5
33541,64979,5
33539,64989,4
33548,64988,5
33544,64988,5
33542,64990,5
33541,64987,5
33536,64983,4
33544,64991,5
33543,64983,5
33539,64987,5
33545,64980,4
33539,64981,5
33539,64978,5
33537,64984,5
33535,64977,5
33530,64975,4
33531,64971,5
33531,64969,6
33538,64971,4
33527,64971,5
33538,64964,4
33524,64959,5
33527,64954,5
33526,64949,5
33517,64958,5
33513,64941,4
33515,64934,5
33505,64913,5
33495,64902,5
33481,64870,5
33471,64852,4
33457,64831,5
33442,64806,5
33430,64783,5
33425,64769,4
33412,64759,4
33409,64754,5
33409,64745,5
33408,64746,5
33418,64758,4
33414,64765,5
33413,64779,5
33425,64792,6
33433,64802,4
33441,64814,4
33453,64837,5
33465,64857,5
33484,64882,5
33492,64879,5
33482,64867,4
33469,64867,5
33474,64854,5
33466,64850,5
33461,64825,5
33461,64826,4
33449,64823,5
33456,64825,5
33452,64823,5
33448,64810,5
33448,64812,4
33442,64803,5
33445,64803,5
33443,64807,5
33451,64806,5
33449,64807,4
33450,64812,5
33447,64813,5
33450,64815,5
33456,64811,4
33448,64813,5
33452,64815,5
33443,64810,5
33449,64808,5
33440,64805,4
33445,64804,5
33447,64809,5
33452,64803,5
33444,64813,5
33437,64803,4
33447,64808,5
33441,64802,5
33435,64807,5
33445,64798,5
33446,64798,4
33444,64799,5
33444,64795,5
33440,64790,5
33443,64799,5
33432,64782,5
33439,64795,4
33431,64782,5
33430,64784,5
33431,64783,4
33430,64771,4
33427,64770,5
33422,64768,5
33427,64760,5
33417,64759,4
33417,64759,5
33413,64756,5
33414,64748,5
33407,64751,5
33407,64746,4
33415,64740,5
33414,64747,5
33414,64754,5
33411,64763,5
33419,64760,4
33418,64765,5
33418,64764,5
33432,64766,5
33438,64769,5
33434,64782,4
33433,64787,6
33439,64787,4
33446,64807,5
33447,64807,5
33451,64811,4
33449,64822,5
33450,64816,5
33450,64817,5
33443,64820,4
33453,64819,4
33457,64822,5
33451,64817,5
33454,64817,5
33452,64812,4
33451,64821,5
33451,64816,5
33444,64818,5
33453,64812,5
33448,64821,4
33443,64806,5
33455,64813,5
33448,64810,5
33442,64804,5
33440,64798,4
33448,64807,5
33442,64799,5
33442,64804,5
33438,64785,5
33438,64787,4
33430,64787,5
33434,64795,5
33426,64782,5
33437,64793,5
33429,64782,4
33425,64779,5
33428,64782,5
33429,64784,5
33429,64789,4
33432,64773,4
33433,64783,5
33429,64773,5
33426,64769,5
33425,64783,5
33421,64785,4
33431,64778,5
33424,64773,5
33427,64773,6
33431,64769,3
33422,64765,5
33417,64776,5
33426,64770,5
33415,64773,5
33421,64767,4
33422,64757,5
33414,64740,5
33400,64716,5
33389,64709,5
33369,64673,4
33363,64649,5
33350,64631,5
33334,64623,5
33320,64593,5
33320,64584,4
33308,64570,5
33312,64570,5
33313,64570,5
33312,64574,4
33325,64584,5
33324,64596,4
33336,64606,5
33350,64634,5
33353,64652,6
33369,64674,3
33380,64699,5
33396,64718,5
33407,64721,5
33391,64723,4
33383,64694,5
33374,64692,5
33379,64686,5
33371,64664,5
33365,64663,4
33354,64648,5
33361,64652,5
33357,64648,5
33363,64643,5
33364,64665,4
33362,64657,5
33368,64663,5
33368,64659,5
33377,64667,5
33375,64673,4
33382,64668,6
33375,64679,4
33378,64688,5
33380,64689,4
33386,64692,4
33381,64687,5
33384,64696,5
33384,64696,5
33384,64683,4
33387,64689,5
33382,64681,5
33382,64687,5
33378,64680,5
33379,64678,4
33380,64674,5
33371,64677,5
33373,64670,5
33376,64677,5
33378,64678,4
33382,64676,5
33377,64672,5
33371,64673,5
33380,64673,5
33365,64660,4
33370,64659,5
33360,64652,6
33363,64654,4
33370,64645,5
33358,64640,4
33353,64641,5
33351,64626,5
33352,64629,5
33346,64629,4
33344,64625,4
33344,64622,5
33350,64621,5
33342,64618,5
33344,64623,4
33340,64612,5
33335,64620,5
33345,64626,5
33343,64630,5
33358,64640,4
33361,64638,5
33357,64649,5
33366,64656,5
33365,64663,5
33368,64662,4
33373,64672,5
33378,64680,5
33385,64689,6
33392,64692,4
33388,64690,4
33382,64701,5
33390,64690,5
33384,64700,5
33392,64705,5
33387,64693,4
33390,64702,5
33387,64692,5
33381,64692,5
33380,64688,4
33386,64679,4
33378,64679,5
33372,64684,5
33366,64679,5
33376,64674,4
33371,64665,5
33372,64662,5
33362,64662,5
33373,64659,5
33359,64656,5
33353,64657,4
33357,64648,5
33361,64641,5
33348,64643,6
33353,64639,3
33364,64641,5
33348,64631,5
33339,64618,5
33339,64609,5
33349,64598,4
33332,64590,5
33317,64573,5
33304,64547,5
33302,64535,5
33290,64519,4
33289,64518,5
33281,64507,5
33275,64505,5
33275,64498,4
33280,64504,5
33292,64507,5
33284,64520,5
33287,64529,5
33300,64546,4
33304,64552,6
33309,64558,4
33333,64587,5
33337,64622,5
33347,64643,4
33353,64629,5
33357,64638,5
33345,64626,5
33333,64614,5
33337,64613,4
33329,64601,5
33318,64590,5
33321,64591,5
33321,64594,9
33317,64587,0
33329,64574,5
33326,64600,5
33332,64612,5
33338,64605,5
33345,64615,4
33350,64620,5
33350,64638,5
33366,64654,5
33361,64654,4
33367,64665,5
33379,64682,6
33386,64693,4
33385,64698,5
33391,64703,4
33400,64703,5
33395,64706,5
33402,64705,5
33396,64708,5
33398,64711,4
33397,64704,5
33399,64703,5
33389,64709,5
33397,64709,5
33392,64708,4
33387,64704,5
33396,64721,5
33399,64721,5
33400,64709,5
33395,64697,4
33389,64703,5
33388,64692,5
33388,64701,5
33388,64690,5
33384,64684,4
33387,64683,5
33378,64681,6
33379,64673,4
33372,64672,4
33383,64684,5
33374,64673,5
33377,64671,5
33378,64679,5
33374,64675,4
33377,64675,5
33377,64693,5
33385,64693,5
33388,64701,5
33387,64709,4
33395,64710,5
33402,64726,5
33406,64726,5
33407,64740,5
33425,64761,4
33429,64773,5
33435,64784,5
33450,64799,5
33443,64805,5
33454,64813,4
33460,64818,5
33462,64832,5
33466,64835,5
33470,64842,5
33465,64829,4
33470,64843,5
33466,64835,5
33460,64832,5
33466,64836,4
33464,64837,5
33466,64831,5
33456,64842,5
33457,64839,5
33463,64836,4
33457,64838,5
33464,64829,5
33454,64827,5
33461,64828,5
33453,64823,4
33448,64811,5
33448,64812,5
33441,64801,5
33432,64784,5
33418,64763,5
33411,64748,4
33417,64746,5
33400,64734,5
33396,64709,5
33396,64710,4
33394,64697,5
33384,64705,5
33389,64699,5
33389,64706,4
33395,64703,4
33401,64728,5
33399,64731,5
33402,64741,5
33406,64752,4
33414,64755,5
33423,64784,5
33445,64799,5
33445,64820,5
33449,64814,4
33449,64807,5
33437,64781,5
33428,64779,5
33429,64775,5
33428,64768,4
33424,64754,7
33418,64760,3
33426,64768,5
33424,64760,5
33423,64769,4
33425,64764,5
33436,64778,5
33443,64789,5
33447,64801,5
33450,64813,4
33447,64813,5
33454,64823,5
33466,64836,5
33466,64840,4
33467,64850,4
33471,64857,5
33480,64853,5
33486,64852,5
33486,64866,4
33481,64865,5
33488,64863,5
33477,64861,5
33479,64863,5
33486,64868,4
33486,64858,5
33485,64860,6
33485,64857,4
33479,64866,5
33480,64859,4
33479,64856,5
33486,64862,5
33482,64857,5
33474,64850,5
33481,64856,4
33471,64850,5
33465,64844,5
33471,64843,5
33469,64851,5
33467,64845,4
33468,64836,5
33464,64836,5
33463,64838,5
33452,64825,4
33457,64824,4
33460,64828,5
33462,64834,5
33472,64825,5
33462,64834,4
33469,64851,5
33481,64857,5
33481,64856,5
33484,64870,5
33491,64883,4
33494,64895,5
33501,64903,5
33507,64919,5
33508,64930,5
33525,64935,4
33525,64942,5
33532,64957,5
33530,64956,5
33541,64969,5
33545,64979,4
33541,64983,5
33542,64989,5
33545,64997,5
33559,65001,5
33552,64998,5
33558,64995,4
33559,65000,5
33547,65000,5
33550,65001,6
33547,64999,3
33558,64998,5
33556,64997,5
33556,64995,5
33548,64998,4
33551,64994,5
33550,64984,5
33534,64976,5
33533,64955,5
33526,64947,4
33510,64931,5
33508,64916,5
33489,64898,5
33485,64895,5
33485,64876,4
33484,64874,5
33482,64873,5
33480,64879,5
33486,64884,5
33492,64900,4
33502,64912,6
33513,64934,4
33519,64949,5
33526,64970,4
33542,64984,6
33551,65002,3
33555,65011,5
33556,65016,5
33546,65003,4
33546,64992,5
33534,64987,5
33546,64978,5
33536,64967,5
33536,64957,4
33536,64960,5
33529,64955,5
33526,64964,5
33533,64964,5
33534,64968,4
33545,64973,5
33539,64985,5
33543,64984,5
33554,64990,5
33554,64994,4
33556,65010,5
33566,65012,6
33564,65014,4
33568,65024,5
33575,65032,4
33567,65032,5
33576,65031,5
33570,65033,5
33570,65034,4
33577,65035,4
33572,65034,5
33580,65039,5
33580,65040,5
33579,65030,4
33570,65031,5
33576,65043,5
33568,65044,5
33585,65042,5
33575,65041,4
33577,65041,5
33585,65051,5
33571,65045,5
33568,65043,5
33582,65033,4
33570,65036,5
33577,65039,5
33560,65039,6
33568,65033,4
33571,65031,4
33559,65021,5
33569,65025,5
33571,65020,5
33560,65016,5
33557,65017,4
33562,65016,5
33561,65017,5
33561,65025,5
33566,65027,4
33575,65031,4
33566,65029,5
33581,65040,5
33576,65052,5
33595,65061,4
33593,65072,5
33590,65080,5
33598,65096,5
33606,65093,5
33611,65110,5
33611,65103,4
33614,65126,5
33614,65122,5
33626,65137,6
33625,65147,3
33630,65139,5
33634,65147,5
33636,65155,5
33640,65162,5
33640,65153,4
33638,65157,5
33638,65153,5
33636,65163,5
33636,65156,5
33638,65177,4
33643,65155,5
33639,65166,5
33642,65159,5
33635,65164,4
33634,65160,4
33626,65156,5
33619,65136,5
33619,65135,5
33610,65116,4
33604,65103,6
33589,65087,4
33576,65062,5
33562,65037,5
33559,65025,4
33553,65010,5
33534,64995,5
33547,65002,5
33547,65000,5
33550,65007,4
33553,65014,5
33564,65028,5
33568,65049,5
33573,65056,5
33584,65094,4
33600,65103,5
33603,65115,5
33616,65136,5
33616,65140,5
33618,65124,4
33612,65105,5
33611,65105,5
33602,65097,5
33597,65087,4
33599,65079,4
33587,65072,6
33591,65073,4
33584,65076,5
33585,65068,4
33586,65070,5
33581,65069,5
33578,65067,5
33588,65072,5
33591,65077,4
33597,65069,5
33599,65086,5
33594,65088,5
33594,65094,5
33601,65084,4
33602,65086,5
33598,65077,5
33590,65070,5
33596,65072,5
33591,65064,4
33581,65059,5
33585,65065,5
33591,65072,5
33581,65069,5
33592,65060,4
33588,65062,5
33577,65055,6
33587,65058,4
33586,65064,4
33594,65054,4
33576,65055,5
33586,65058,5
33573,65051,5
33577,65043,4
33573,65044,5
33575,65033,5
33568,65037,5
33568,65030,5
33562,65032,4
33564,65028,5
33565,65018,5
33561,65017,5
33548,64999,5
33547,65002,4
33550,64997,5
33540,64984,5
33536,64993,5
33541,64976,5
33534,64977,4
33539,64985,5
33529,64964,5
33536,64975,6
33537,64980,4
33540,64984,4
33544,64985,5
33533,64989,5
33538,64990,5
33552,64995,4
33542,65000,4
33550,64995,5
33546,64999,5
33549,65003,5
33548,65014,4
33552,65023,5
33550,65018,5
33559,65016,5
33558,65021,5
33548,65022,4
33554,65022,5
33561,65013,5
33559,65024,5
33543,65013,5
33563,65016,5
33558,65015,4
33549,65011,5
33546,65013,5
33553,65003,5
33546,64995,4
33552,64993,5
33546,65004,5
33541,64985,5
33546,64992,5
33528,64971,4
33536,64974,5
33528,64948,5
33520,64941,5
33497,64915,4
33491,64875,4
33467,64852,5
33448,64815,5
33427,64792,5
33420,64758,4
33401,64736,5
33386,64712,5
33381,64706,5
33375,64696,5
33386,64714,4
33397,64721,6
33396,64727,6
33396,64736,3
33414,64748,5
33420,64773,4
33422,64787,5
33439,64814,5
33447,64841,5
33457,64870,5
33468,64869,4
33476,64867,5
33471,64861,5
33468,64850,5
33465,64844,5
33446,64834,4
33443,64818,5
33443,64817,5
33439,64806,5
33427,64808,4
33436,64789,4
33434,64802,5
33431,64798,5
33434,64803,5
33435,64792,4
33431,64798,5
33445,64799,6
33449,64813,4
33436,64813,5
33442,64812,4
33450,64817,5
33450,64820,5
33446,64816,5
33448,64827,5
33448,64826,4
33465,64825,5
33445,64819,5
33449,64820,5
33455,64811,5
33449,64813,4
33450,64815,5
33443,64817,5
33448,64813,5
33453,64819,5
33446,64803,4
33444,64816,5
33446,64821,5
33452,64813,5
33441,64811,4
33450,64811,5
33454,64814,5
33441,64806,5
33445,64804,5
33441,64801,4
33433,64799,5
33443,64797,5
33448,64801,5
33433,64799,5
33435,64792,4
33433,64794,5
33424,64790,5
33437,64779,5
33427,64774,5
33428,64774,4
33426,64767,5
33428,64769,5
33422,64773,5
33427,64767,5
33423,64770,4
33428,64780,5
33424,64789,5
33431,64776,5
33435,64788,5
33425,64795,4
33444,64805,5
33435,64816,5
33440,64808,5
33445,64808,4
33453,64818,5
33448,64825,5
33458,64828,5
33459,64840,5
33458,64828,4
33454,64838,5
33464,64835,5
33458,64839,5
33459,64830,5
33463,64839,4
33466,64851,5
33459,64843,5
33460,64853,5
33458,64846,5
33459,64835,4
33456,64836,5
33457,64838,4
33459,64830,5
33454,64831,5
33468,64834,6
33450,64837,3
33463,64837,5
33459,64834,5
33450,64832,4
33454,64819,4
33450,64822,5
33448,64810,5
33439,64826,5
33442,64817,4
33449,64811,5
33439,64809,5
33436,64813,5
33439,64803,5
33437,64805,4
33439,64800,5
33440,64794,5
33441,64805,5
33437,64796,5
33431,64805,4
33435,64798,5
33431,64795,6
33434,64799,4
33428,64802,5
33429,64787,4
33430,64788,5
33431,64796,5
33429,64794,5
33434,64788,5
33436,64789,4
33434,64790,5
33432,64782,5
33417,64785,5
33428,64791,5
33418,64787,4
33431,64780,5
33423,64775,5
33434,64769,5
33424,64767,4
33425,64776,5
33419,64763,5
33416,64767,5
33406,64762,5
33405,64759,4
33408,64746,5
33399,64738,5
33393,64722,6
33380,64694,4
33361,64667,4
33340,64633,5
33336,64606,5
33313,64557,5
33291,64532,5
33267,64511,4
33258,64485,5
33256,64464,5
33248,64462,5
33249,64454,5
33255,64460,4
33253,64466,5
33259,64476,5
33255,64493,5
33274,64510,4
33279,64538,4
33295,64560,5
33318,64584,5
33334,64605,5
33335,64627,5
33333,64600,4
33331,64605,5
33332,64611,5
33329,64606,6
33334,64597,3
33322,64596,5
33319,64583,5
33326,64596,5
33323,64599,5
33326,64603,4
33336,64603,5
33337,64614,5
33339,64625,5
33346,64623,5
33350,64639,4
33354,64643,5
33361,64654,5
33368,64664,5
33380,64679,5
33377,64678,4
33380,64683,5
33379,64686,5
33378,64691,5
33373,64690,4
33379,64689,5
33382,64686,4
33387,64689,5
33375,64685,5
33376,64685,6
33376,64690,3
33370,64683,5
33381,64683,5
33373,64683,5
33375,64674,4
33374,64669,5
33373,64679,5
33371,64680,5
33367,64671,5
33366,64668,4
33364,64674,5
33362,64667,5
33366,64665,5
33358,64659,5
33352,64655,4
33360,64646,5
33347,64643,5
33348,64634,5
33352,64631,5
33352,64643,4
33347,64631,6
33345,64627,4
33343,64618,5
33340,64623,4
33346,64624,4
33340,64623,5
33348,64621,5
33347,64627,5
33343,64632,4
33348,64636,5
33354,64639,5
33351,64652,5
33358,64655,5
33364,64665,4
33379,64671,5
33375,64688,5
33385,64691,5
33377,64693,5
33388,64701,4
33392,64717,5
33396,64724,5
33399,64730,5
33399,64740,5
33402,64747,4
33411,64744,5
33414,64756,6
33407,64753,4
33407,64756,5
33414,64745,4
33402,64740,5
33409,64746,5
33412,64740,5
33403,64740,4
33396,64743,5
33398,64744,5
33404,64732,5
33394,64727,5
33405,64729,4
33393,64720,5
33395,64722,5
33393,64719,5
33401,64723,5
33395,64710,4
33385,64703,5
33381,64703,5
33380,64703,5
33379,64700,5
33373,64700,4
33378,64695,5
33379,64697,5
33381,64685,6
33366,64680,4
33378,64683,4
33369,64681,5
33373,64681,5
33370,64667,5
33371,64676,5
33365,64665,4
33362,64660,5
33365,64653,5
33353,64646,5
33347,64639,4
33348,64616,5
33334,64601,5
33313,64574,5
33308,64554,5
33302,64536,4
33289,64524,5
33282,64518,5
33280,64510,5
33271,64508,5
33275,64508,5
33286,64517,4
33277,64527,5
33285,64528,5
33289,64537,5
33302,64551,4
33304,64560,5
33316,64573,5
33319,64588,5
33335,64611,5
33330,64622,4
33340,64617,5
33334,64600,5
33320,64580,5
33308,64581,5
33306,64567,4
33307,64545,5
33298,64549,5
33301,64553,5
33303,64557,4
33298,64560,5
33303,64545,5
33301,64557,5
33318,64572,5
33319,64586,4
33324,64594,6
33331,64597,4
33331,64609,5
33336,64626,5
33347,64631,4
33354,64634,5
33352,64637,5
33356,64648,5
33363,64636,5
33360,64636,4
33352,64645,5
33358,64654,5
33364,64649,5
33354,64645,5
33358,64642,4
33363,64640,5
33357,64641,5
33346,64639,5
33352,64641,4
33354,64633,4
33354,64635,5
33351,64639,5
33353,64642,5
33351,64631,4
33348,64619,5
33348,64623,6
33340,64614,4
33336,64609,5
33337,64604,4
33338,64607,5
33331,64603,5
33335,64599,5
33332,64597,5
33323,64597,4
33320,64587,5
33326,64580,5
33322,64581,5
33315,64566,5
33314,64564,4
33310,64562,5
33308,64555,5
33312,64557,5
33305,64565,5
33315,64573,4
33315,64571,5
33319,64577,5
33329,64592,5
33330,64600,4
33341,64617,5
33339,64622,5
33345,64637,5
33354,64644,5
33357,64639,4
33355,64659,5
33366,64645,5
33361,64653,5
33357,64653,5
33359,64654,4
33361,64647,5
33353,64647,5
33362,64644,5
33350,64642,5
33355,64638,4
33357,64637,5
33345,64629,5
33347,64631,5
33345,64628,5
33339,64633,4
33338,64616,5
33339,64614,5
33337,64602,5
33333,64610,5
33325,64598,4
33324,64597,5
33332,64584,5
33320,64589,5
33320,64586,4
33323,64590,5
33316,64577,5
33316,64581,5
33308,64587,5
33309,64572,4
33308,64568,5
33305,64552,5
33301,64549,5
33296,64528,5
33284,64511,4
33268,64490,5
33260,64480,5
33245,64453,5
33237,64424,5
33231,64409,4
33224,64400,5
33215,64392,5
33217,64392,5
33215,64393,5
33207,64399,5
33218,64391,4
33225,64408,5
33230,64424,5
33233,64433,4
33245,64454,5
33254,64467,5
33272,64494,5
33274,64516,5
33295,64521,4
33294,64545,5
33302,64547,5
33296,64522,5
33286,64518,9
33278,64522,0
33282,64486,5
33278,64502,5
33276,64506,5
33280,64508,5
33270,64506,4
33283,64507,5
33282,64511,5
33287,64524,4
33296,64540,5
33301,64547,4
33305,64555,6
33311,64571,3
33326,64587,5
33325,64583,4
33339,64607,5
33338,64620,5
33350,64635,5
33354,64637,5
33357,64640,4
33355,64640,5
33363,64648,5
33357,64648,5
33361,64641,5
33359,64640,4
33357,64643,5
33352,64640,5
33355,64644,5
33361,64634,5
33356,64645,4
33352,64643,5
33352,64640,5
33350,64633,6
33355,64648,4
33349,64640,4
33352,64627,5
33340,64622,5
33346,64610,5
33351,64616,4
33337,64601,4
33330,64599,5
33340,64607,5
33334,64606,5
33326,64598,4
33327,64597,5
33328,64587,5
33327,64594,5
33331,64598,5
33333,64589,4
33330,64586,5
33334,64601,5
33333,64595,5
33337,64604,5
33345,64615,5
33340,64628,4
33344,64643,5
33361,64642,5
33365,64660,6
33374,64666,3
33380,64683,5
33384,64699,5
33391,64705,5
33395,64726,5
33411,64743,4
33409,64741,5
33410,64754,5
33419,64763,5
33415,64760,4
33424,64757,5
33428,64773,5
33426,64775,5
33427,64780,5
33428,64771,4
33428,64769,5
33423,64770,5
33428,64782,5
33427,64774,5
33422,64768,4
33429,64764,6
33425,64757,4
33422,64761,5
33420,64758,5
33415,64758,6
33409,64740,3
33405,64730,5
33397,64724,5
33397,64701,5
33381,64686,4
33374,64679,5
33373,64653,5
33356,64645,5
33350,64629,4
33344,64624,4
33333,64606,5
33332,64607,5
33343,64616,5
33340,64612,4
33342,64631,5
33344,64632,5
33349,64637,5
33353,64656,5
33364,64663,4
33373,64682,5
33387,64700,6
33391,64707,4
33398,64726,5
33403,64725,4
33384,64712,5
33387,64706,5
33379,64701,5
33381,64684,5
33372,64680,4
33371,64680,5
33376,64688,5
33383,64693,5
33380,64693,5
33385,64694,4
33387,64711,5
33396,64717,5
33403,64727,5
33410,64738,4
33419,64751,4
33415,64764,5
33427,64778,5
33431,64782,5
33438,64799,4
33449,64803,5
33440,64816,5
33449,64816,6
33446,64816,4
33457,64811,4
33454,64821,5
33452,64818,5
33459,64820,5
33451,64820,5
33453,64822,4
33459,64819,5
33456,64823,5
33457,64811,5
33472,64815,5
33459,64820,4
33451,64822,5
33454,64821,5
33461,64827,5
33459,64828,5
33448,64811,4
33458,64816,5
33459,64819,5
33449,64806,5
33444,64817,5
33449,64824,4
33455,64818,5
33449,64800,5
33450,64811,6
33446,64807,3
33448,64805,5
33441,64803,5
33438,64795,5
33442,64798,5
33443,64790,4
33442,64803,5
33438,64808,5
33451,64809,5
33447,64816,5
33454,64832,4
33468,64846,5
33472,64853,5
33477,64864,5
33480,64876,5
33487,64885,4
33487,64897,5
33500,64908,5
33504,64912,5
33499,64913,5
33499,64913,5
33508,64928,4
33503,64923,5
33507,64939,5
33519,64933,4
33517,64935,5
33510,64932,5
33520,64930,5
33507,64932,5
33508,64926,4
33505,64909,5
33499,64901,5
33493,64896,5
33484,64888,5
33471,64862,4
33466,64848,5
33454,64831,5
33449,64810,5
33442,64805,5
33432,64799,4
33445,64797,5
33436,64806,5
33438,64801,5
33439,64810,5
33454,64830,4
33460,64836,6
33461,64852,4
33477,64864,5
33483,64882,5
33488,64901,4
33504,64919,5
33503,64915,5
33487,64903,5
33491,64897,4
33488,64889,5
33483,64883,5
33483,64872,5
33477,64864,5
33478,64868,4
33471,64858,5
33474,64855,5
33476,64858,5
33486,64871,5
33473,64875,4
33487,64873,5
33489,64882,5
33488,64892,5
33495,64912,5
33503,64906,4
33505,64915,5
33502,64919,6
33516,64927,4
33516,64935,5
33520,64938,4
33530,64942,5
33529,64947,5
33531,64948,5
33519,64949,5
33520,64943,4
33528,64957,5
33533,64958,5
33526,64955,5
33528,64953,4
33537,64966,5
33530,64963,5
33532,64962,5
33536,64980,5
33538,64974,4
33542,64968,5
33546,64982,5
33549,64983,5
33546,64985,5
33545,64983,4
33541,64989,5
33547,64987,5
33542,64993,6
33549,64992,4
33542,64996,4
33546,64983,5
33544,64986,5
33555,64988,5
33538,64984,5
33549,64986,4
33541,64992,5
33543,64985,5
33555,64989,5
33547,65004,5
33553,65013,4
33560,65020,5
33554,65022,5
33568,65033,5
33572,65046,4
33575,65054,5
33574,65063,5
33577,65069,5
33595,65081,5
33593,65104,5
33611,65108,4
33606,65115,5
33619,65117,5
33616,65123,5
33621,65130,4
33618,65138,5
33621,65136,5
33631,65138,5
33631,65145,5
33625,65154,4
33634,65142,5
33632,65154,5
33626,65147,5
33629,65140,5
33624,65135,4
33608,65130,5
33614,65105,5
33614,65091,5
33592,65076,4
33575,65060,4
33570,65044,5
33568,65030,5
33561,65023,5
33553,65017,4
33549,65012,6
33553,65019,4
33554,65027,5
33565,65032,5
33563,65052,4
33575,65055,5
33590,65071,5
33601,65101,5
33613,65126,5
33610,65129,4
33629,65156,5
33616,65143,5
33617,65125,5
33610,65110,5
33602,65106,4
33601,65097,5
33596,65091,5
33589,65085,5
33589,65072,5
33590,65064,4
33578,65068,5
33581,65073,5
33586,65065,5
33585,65071,4
33588,65077,4
33586,65076,6
33587,65079,4
33591,65075,5
33597,65076,4
33600,65088,5
33595,65083,5
33604,65090,5
33604,65092,5
33596,65097,4
33599,65097,5
33597,65106,5
33607,65101,5
33603,65095,5
33607,65099,4
33614,65101,5
33607,65099,5
33599,65103,5
33599,65099,5
33599,65099,4
33602,65102,5
33606,65112,5
33615,65113,5
33616,65119,5
33619,65123,4
33615,65120,5
33616,65126,5
33620,65123,5
33622,65131,4
33621,65127,4
33626,65127,5
33610,65130,5
33622,65123,5
33620,65134,4
33608,65124,5
33618,65123,5
33612,65132,5
33611,65124,5
33623,65118,4
33618,65124,5
33613,65124,5
33615,65121,5
33610,65120,5
33611,65123,5
33620,65122,4
33610,65125,5
33621,65138,5
33620,65132,6
33613,65138,3
33622,65136,5
33626,65143,5
33622,65138,5
33627,65156,5
33631,65158,4
33641,65158,5
33633,65160,5
33642,65167,5
33639,65172,4
33643,65173,5
33650,65177,5
33644,65170,5
33644,65180,5
33644,65178,4
33643,65180,5
33640,65166,5
33639,65168,5
33637,65161,5
33636,65164,4
33637,65161,6
33632,65156,4
33620,65146,5
33618,65129,5
33619,65122,6
33602,65107,3
33592,65090,5
33582,65067,5
33565,65051,5
33560,65019,4
33547,65002,5
33547,64991,5
33537,64989,5
33535,64996,4
33534,64991,4
33538,64998,5
33547,65010,5
33546,65013,5
33559,65027,4
33565,65041,5
33568,65053,5
33580,65071,5
33599,65095,5
33594,65101,4
33605,65102,5
33585,65087,6
33573,65068,4
33581,65059,5
33570,65038,4
33560,65022,5
33554,65030,7
33553,65011,3
33551,64994,5
33538,64989,4
33528,64995,5
33545,64985,5
33544,64987,5
33538,64990,5
33539,64988,4
33540,64990,5
33539,64987,5
33545,64999,5
33549,64999,4
33537,64993,4
33548,64987,5
33545,64995,5
33558,65009,5
33543,65002,4
33551,64998,5
33539,64993,5
33541,64997,6
33539,65001,4
33545,64994,4
33542,64991,5
33542,64988,5
33545,64999,5
33542,64999,5
33541,64992,4
33541,64994,5
33538,64997,5
33538,65000,5
33536,64992,5
33538,64984,4
33537,64992,5
33540,64977,5
33535,64982,5
33537,64970,5
33524,64972,4
33525,64973,5
33531,64963,5
33524,64960,5
33521,64951,5
33520,64952,4
33511,64947,5
33509,64947,5
33505,64922,6
33501,64921,3
33502,64919,5
33505,64924,5
33502,64917,5
33498,64918,5
33494,64923,4
33497,64916,5
33498,64923,5
33502,64912,5
33507,64921,5
33505,64928,4
33511,64936,5
33515,64940,5
33518,64938,5
33511,64950,5
33512,64959,4
33527,64951,5
33514,64962,5
33528,64960,5
33526,64962,4
33525,64970,5
33524,64964,4
33520,64973,5
33526,64976,5
33526,64981,6
33531,64961,3
33525,64972,5
33535,64973,5
33527,64975,5
33523,64965,4
33528,64953,5
33515,64967,5
33513,64959,5
33505,64952,5
33520,64945,4
33503,64949,5
33516,64943,5
33518,64945,5
33503,64941,5
33507,64932,4
33503,64927,5
33493,64918,5
33488,64894,5
33479,64881,5
33469,64860,4
33458,64837,6
33441,64810,4
33430,64783,5
33410,64769,4
33402,64747,4
33393,64716,5
33382,64705,5
33377,64710,5
33389,64708,4
33388,64715,5
33391,64714,5
33397,64731,5
33407,64748,5
33410,64762,4
33421,64786,5
33432,64800,5
33448,64822,5
33461,64847,5
33477,64880,4
33474,64898,5
33482,64889,5
33478,64878,5
33475,64866,5
33469,64865,4
33463,64858,5
33459,64843,6
33445,64841,4
33447,64837,5
33443,64823,4
33449,64819,5
33440,64823,5
33443,64813,5
33444,64812,4
33447,64822,5
33448,64829,5
33450,64827,5
33454,64826,5
33457,64834,4
33452,64835,5
33447,64836,5
33458,64838,5
33451,64838,5
33463,64835,4
33455,64836,5
33464,64837,5
33460,64836,5
33461,64836,5
33460,64830,4
33454,64835,5
33459,64841,5
33452,64835,6
33455,64832,4
33460,64843,4
33466,64834,5
33455,64838,5
33471,64844,5
33470,64841,5
33454,64845,4
33457,64851,5
33455,64841,5
33456,64846,5
33456,64840,4
33461,64840,5
33456,64840,5
33455,64837,5
33453,64833,5
33470,64830,4
33452,64826,5
33453,64819,5
33447,64828,5
33457,64809,5
33445,64813,5
33452,64809,4
33439,64808,5
33449,64805,5
33440,64811,5
33435,64811,4
33449,64819,5
33450,64815,5
33445,64813,5
33435,64826,5
33446,64823,4
33444,64823,5
33450,64831,5
33464,64842,5
33459,64850,5
33470,64845,4
33461,64851,5
33462,64854,5
33468,64854,5
33466,64862,4
33473,64864,5
33476,64872,5
33471,64862,5
33470,64866,5
33472,64872,4
33484,64879,6
33470,64882,4
33478,64877,5
33472,64867,5
33478,64873,4
33466,64862,5
33465,64872,5
33473,64862,5
33464,64852,5
33467,64852,4
33464,64846,5
33463,64839,5
33454,64848,5
33459,64848,5
33453,64830,4
33445,64826,5
33453,64825,5
33449,64830,5
33448,64818,5
33446,64829,4
33439,64818,5
33440,64817,5
33446,64815,5
33443,64807,4
33441,64804,5
33436,64801,6
33435,64805,4
33438,64799,5
33426,64794,4
33433,64785,5
33428,64796,5
33423,64789,5
33424,64796,5
33426,64788,4
33429,64781,5
33427,64776,5
33425,64779,5
33420,64783,5
33420,64782,4
33423,64771,5
33418,64771,5
33413,64764,5
33417,64770,5
33420,64769,4
33413,64769,5
33421,64768,5
33417,64775,5
33410,64771,4
33409,64764,4
33417,64771,5
33413,64774,5
33409,64768,5
33409,64757,4
33406,64762,5
33398,64738,5
33391,64717,5
33376,64695,5
33370,64669,4
33348,64641,5
33336,64627,5
33321,64601,5
33314,64580,5
33305,64563,4
33287,64544,5
33290,64537,5
33284,64538,5
33291,64542,5
33298,64544,4
33297,64541,5
33298,64550,5
33302,64573,5
33319,64589,5
33327,64610,4
33331,64627,5
33338,64647,5
33347,64668,5
33350,64647,4
33348,64632,4
33342,64629,5
33324,64618,5
33332,64620,5
33330,64624,4
33336,64614,5
33338,64617,5
33337,64622,5
33346,64624,5
33350,64641,4
33344,64639,5
33356,64645,5
33346,64664,5
33365,64671,5
33369,64669,4
33378,64681,5
33372,64695,4
33382,64704,5
33392,64710,5
33395,64712,5
33395,64726,3
33390,64727,5
33394,64721,5
33398,64729,5
33399,64718,4
33389,64720,5
33389,64720,5
33392,64717,5
33386,64715,4
33385,64713,5
33381,64712,5
33387,64704,5
33381,64699,5
33386,64705,4
33390,64705,5
33383,64705,5
33379,64709,5
33388,64703,5
33388,64700,4
33382,64687,5
33376,64682,6
33380,64680,4
33377,64683,5
33367,64669,4
33363,64675,7
33369,64668,3
33377,64663,5
33362,64663,5
33354,64663,4
33361,64655,5
33354,64652,5
33354,64653,5
33353,64660,5
33356,64656,4
33360,64653,5
33365,64670,5
33376,64672,5
33375,64674,4
33371,64685,5
33377,64697,5
33386,64702,5
33389,64712,5
33397,64722,4
33399,64732,5
33411,64746,5
33413,64753,6
33405,64760,4
33412,64770,4
33424,64774,5
33417,64775,5
33420,64780,5
33423,64778,5
33417,64774,4
33427,64770,5
33422,64785,5
33420,64777,5
33427,64781,5
33416,64770,4
33416,64765,5
33416,64764,5
33406,64762,5
33415,64752,4
33410,64757,4
33404,64748,5
33399,64738,5
33402,64746,5
33408,64741,5
33403,64724,4
33400,64725,5
33398,64738,5
33388,64724,6
33390,64717,3
33388,64714,5
33390,64717,5
33387,64702,5
33385,64699,5
33378,64701,4
33370,64687,5
33374,64694,5
33375,64685,5
33366,64679,5
33372,64676,4
33361,64682,5
33369,64668,5
33365,64667,5
33370,64674,5
33359,64674,4
33366,64672,5
33364,64673,5
33364,64662,5
33357,64661,4
33352,64654,5
33349,64641,4
33340,64627,5
33331,64602,5
33318,64586,6
33311,64572,3
33292,64552,5
33289,64524,5
33288,64515,5
33273,64510,4
33265,64493,5
33272,64491,5
33271,64493,5
33276,64501,5
33270,64508,4
33283,64518,5
33284,64524,5
33283,64535,5
33299,64556,5
33305,64566,4
33313,64578,5
33315,64590,5
33323,64601,5
33333,64598,5
33313,64575,4
33306,64571,6
33297,64558,4
33297,64550,5
33294,64548,4
33296,64544,5
33290,64552,5
33305,64558,5
33301,64562,5
33312,64559,4
33312,64580,5
33319,64598,5
33332,64604,5
33342,64624,5
33345,64640,4
33358,64657,5
33365,64677,5
33372,64690,5
33374,64692,9
33382,64721,0
33389,64692,5
33385,64712,5
33397,64721,5
33396,64729,5
33395,64721,4
33399,64718,5
33396,64722,6
33397,64719,4
33393,64720,5
33386,64718,4
33388,64709,5
33389,64702,5
33379,64696,5
33384,64694,4
33386,64704,5
33380,64697,5
33371,64700,5
33376,64694,5
33378,64686,4
33367,64681,5
33362,64670,5
33365,64671,5
33363,64662,5
33363,64651,4
33356,64659,5
33355,64656,5
33347,64641,5
33350,64639,5
33354,64635,4
33345,64632,5
33345,64637,5
33350,64640,6
33353,64636,4
33350,64651,4
33350,64659,5
33355,64666,5
33365,64672,5
33376,64679,4
33370,64690,4
33378,64712,5
33388,64711,5
33397,64729,5
33405,64742,4
33415,64757,5
33419,64768,5
33427,64790,5
33430,64797,5
33444,64803,4
33445,64814,5
33448,64812,5
33456,64819,5
33450,64827,5
33449,64814,5
33446,64822,4
33439,64821,5
33450,64808,5
33446,64817,5
33439,64806,4
33434,64811,5
33439,64810,5
33444,64810,5
33439,64791,5
33443,64795,4
33433,64795,5
33425,64798,5
33428,64774,5
33423,64781,4
33426,64766,4
33420,64771,5
33419,64768,5
33419,64768,5
33416,64762,4
33409,64756,5
33415,64751,5
33409,64752,5
33396,64739,5
33392,64725,4
33390,64708,6
33384,64708,4
33378,64691,5
33370,64675,5
33355,64660,4
33350,64640,5
33332,64627,5
33332,64604,5
33331,64600,5
33322,64600,4
33328,64606,5
33331,64606,5
33333,64614,5
33336,64619,5
33337,64639,4
33352,64656,5
33359,64665,5
33366,64686,5
33375,64703,4
33383,64718,5
33399,64728,5
33401,64741,5
33402,64733,5
33393,64711,4
33375,64707,5
33375,64692,7
33373,64687,3
33368,64679,5
33365,64674,4
33366,64674,5
33369,64693,5
33375,64691,5
33377,64705,5
33400,64716,4
33398,64735,5
33405,64752,5
33413,64771,5
33427,64783,5
33440,64798,4
33438,64800,5
33451,64826,5
33453,64826,5
33463,64834,4
33461,64844,4
33467,64846,5
33466,64842,5
33466,64843,5
33472,64839,4
33469,64845,5
33465,64846,5
33467,64844,5
33456,64843,5
33467,64840,4
33458,64836,5
33466,64843,5
33453,64844,5
33457,64840,5
33459,64846,4
33469,64839,5
33461,64831,5
33454,64833,5
33449,64832,5
33457,64825,4
33456,64829,5
33456,64827,5
33440,64820,5
33443,64812,5
33449,64816,4
33441,64801,5
33435,64800,5
33439,64799,5
33432,64803,5
33433,64798,4
33433,64798,5
33429,64800,5
33433,64807,5
33433,64801,4
33444,64817,5
33440,64826,5
33454,64833,5
33453,64843,5
33461,64860,4
33470,64879,5
33490,64891,5
33480,64907,5
33502,64919,5
33502,64923,4
33506,64941,5
33514,64960,5
33530,64961,5
33526,64968,5
33526,64966,4
33541,64971,5
33536,64979,5
33533,64982,5
33532,64982,5
33543,64983,5
33530,64980,4
33543,64976,5
33536,64979,5
33534,64975,4
33529,64976,5
33521,64974,5
33529,64959,5
33515,64953,5
33516,64951,4
33512,64936,5
33498,64912,5
33477,64888,5
33471,64873,5
33467,64851,4
33455,64829,5
33445,64813,5
33432,64808,5
33436,64804,5
33430,64792,4
33419,64784,5
33435,64804,5
33438,64808,4
33446,64826,5
33448,64824,4
33449,64842,6
33471,64861,3
33479,64884,5
33492,64912,4
33497,64911,4
33514,64928,5
33507,64932,5
33495,64919,5
33487,64890,4
33483,64884,5
33484,64875,5
33472,64882,5
33473,64871,5
33479,64869,4
33477,64876,5
33483,64885,5
33476,64901,5
33490,64906,5
33490,64915,4
33506,64921,5
33510,64941,5
33516,64951,6
33526,64962,4
33521,64974,4
33538,64987,5
33548,64986,5
33546,64999,5
33547,64996,5
33552,65001,4
33547,65008,5
33552,65007,5
33548,65013,5
33546,65007,4
33557,65005,4
33544,65004,5
33539,65006,5
33542,64998,5
33541,64996,4
33553,65000,5
33552,65000,5
33553,65007,5
33544,64999,5
33538,65001,5
33546,65001,4
33548,64993,5
33547,64996,5
33531,64990,6
33541,64983,3
33543,64984,5
33547,64982,5
33535,64985,5
33532,64977,5
33525,64981,4
33531,64970,5
33528,64962,5
33520,64964,5
33515,64953,5
33518,64953,4
33517,64957,5
33525,64964,5
33518,64969,5
33522,64977,4
33528,64978,4
33537,64987,5
33547,64994,5
33545,65006,5
33547,65003,4
33549,65025,6
33558,65037,4
33562,65050,5
33565,65055,5
33578,65063,6
33584,65078,3
33588,65089,5
33597,65098,5
33587,65101,5
33603,65106,4
33598,65117,5
33600,65110,5
33604,65111,5
33604,65111,5
33604,65109,4
33604,65106,5
33600,65106,5
33591,65111,5
33590,65087,5
33585,65081,4
33568,65064,5
33555,65043,5
33546,65012,5
33535,64996,4
33526,64965,5
33517,64949,6
33497,64931,4
33493,64914,5
33496,64909,4
33487,64921,5
33500,64919,5
33495,64939,5
33501,64945,5
33512,64969,4
33519,64968,5
33530,64989,5
33552,65016,5
33554,65040,5
33575,65059,4
33575,65063,5
33565,65039,5
33556,65026,5
33557,65026,5
33541,65009,4
33538,65004,5
33539,64991,5
33533,64987,5
33530,64983,4
33532,64991,4
33540,64984,5
33534,64989,6
33535,64992,4
33541,65001,4
33540,65007,5
33545,65012,5
33544,65019,5
33559,65027,5
33560,65034,4
33564,65036,5
33563,65031,5
33558,65033,5
33564,65043,5
33566,65045,4
33572,65047,5
33570,65044,5
33562,65041,5
33564,65046,5
33566,65049,4
33564,65043,5
33570,65030,5
33571,65035,5
33562,65031,5
33558,65036,4
33566,65039,5
33564,65046,5
33566,65034,6
33568,65029,3
33563,65023,5
33562,65027,5
33551,65024,5
33549,65009,5
33547,65007,4
33534,64999,5
33536,64991,5
33540,64992,5
33538,64999,5
33531,64985,4
33525,64973,5
33524,64974,5
33520,64965,5
33516,64952,5
33512,64949,4
33509,64934,5
33502,64935,5
33497,64927,5
33496,64930,5
33497,64934,5
33512,64933,4
33508,64943,5
33510,64948,5
33511,64946,5
33507,64953,4
33516,64952,5
33524,64964,5
33520,64971,5
33534,64977,4
33526,64981,5
33522,64981,5
33534,64987,5
33535,64988,5
33538,64994,4
33529,64998,5
33534,64994,5
33532,64993,5
33532,64986,5
33536,64989,4
33535,64992,5
33531,64988,5
33531,64990,5
33530,64982,5
33521,64973,4
33524,64975,6
33523,64960,4
33514,64961,5
33508,64945,5
33509,64949,4
33497,64939,5
33501,64939,5
33500,64922,5
33496,64927,4
33488,64915,4
33486,64904,5
33478,64890,5
33473,64866,5
33458,64847,4
33439,64823,5
33423,64787,5
33401,64751,5
33389,64713,5
33368,64690,4
33349,64664,5
33339,64640,5
33330,64621,5
33330,64610,5
33320,64602,4
33328,64602,5
33329,64617,6
33330,64628,4
33344,64640,5
33346,64662,4
33364,64680,5
33375,64707,7
33388,64738,3
33408,64777,5
33430,64800,4
33442,64827,5
33443,64837,5
33438,64820,5
33433,64817,4
33445,64810,5
33428,64806,5
33428,64802,5
33426,64795,5
33425,64789,4
33425,64790,5
33426,64788,5
33421,64782,5
33421,64782,5
33421,64795,4
33424,64789,5
33426,64797,5
33427,64810,6
33438,64795,4
33438,64810,4
33439,64818,5
33438,64825,5
33439,64818,5
33438,64820,5
33435,64822,4
33442,64820,5
33443,64821,5
33444,64825,5
33439,64825,5
33449,64826,4
33445,64824,5
33440,64819,5
33443,64834,5
33447,64819,4
33447,64818,5
33442,64823,5
33440,64809,5
33441,64813,5
33443,64824,5
33439,64817,4
33446,64811,5
33434,64814,5
33441,64811,5
33431,64815,4
33448,64810,5
33433,64801,5
33437,64805,5
33428,64799,5
33432,64797,4
33433,64798,5
33423,64777,5
33422,64780,5
33422,64775,5
33422,64772,4
33420,64768,5
33412,64768,5
33411,64761,5
33409,64757,4
33414,64767,4
33412,64774,5
33412,64766,5
33418,64778,5
33422,64780,4
33428,64782,6
33422,64788,4
33424,64787,5
33431,64801,5
33429,64807,4
33430,64810,5
33442,64822,5
33447,64825,5
33442,64818,5
33452,64845,4
33448,64827,5
33451,64835,5
33456,64840,5
33457,64850,5
33457,64849,4
33455,64846,5
33450,64844,5
33452,64844,5
33439,64836,5
33445,64838,4
33448,64828,5
33455,64834,5
33447,64826,5
33435,64833,4
33446,64822,4
33444,64827,6
33442,64818,4
33444,64823,5
33438,64814,4
33431,64809,5
33432,64804,5
33433,64801,5
33430,64806,5
33430,64797,4
33423,64784,5
33425,64786,5
33426,64781,5
33410,64780,5
33420,64780,4
33418,64784,5
33421,64777,5
33414,64778,5
33406,64768,5
33412,64777,4
33418,64773,5
33415,64763,5
33408,64773,5
33409,64770,5
33405,64773,4
33415,64762,5
33408,64763,5
33406,64760,5
33409,64765,4
33397,64752,4
33403,64744,5
33388,64718,5
33375,64684,5
33350,64655,4
33344,64635,5
33326,64610,5
33309,64580,5
33294,64567,5
33289,64544,4
33288,64534,5
33280,64526,5
33279,64532,5
33283,64535,5
33280,64539,5
33287,64551,4
33307,64568,5
33311,64592,5
33324,64615,6
33336,64644,3
33371,64676,5
33363,64701,5
33377,64726,5
33389,64730,5
33377,64712,4
33376,64696,5
33367,64698,5
33368,64686,5
33359,64686,4
33355,64683,5
33356,64667,5
33359,64667,5
33357,64664,5
33360,64674,4
33364,64676,5
33362,64682,5
33360,64688,5
33367,64680,5
33375,64694,4
33375,64700,6
33377,64696,4
33377,64714,5
33388,64723,5
33391,64724,6
33393,64725,3
33392,64729,5
33385,64734,5
33400,64725,5
33389,64727,4
33390,64719,5
33385,64725,5
33390,64722,5
33387,64732,5
33387,64714,4
33393,64718,5
33383,64721,5
33387,64717,5
33377,64722,4
33382,64710,5
33384,64713,5
33391,64715,5
33387,64720,5
33380,64705,4
33384,64705,5
33374,64704,6
33380,64697,4
33378,64693,5
33374,64692,4
33371,64687,5
33376,64692,5
33364,64681,5
33367,64676,5
33366,64679,4
33368,64672,5
33355,64668,5
33359,64658,5
33352,64671,5
33356,64665,4
33358,64661,5
33357,64662,5
33358,64672,5
33362,64672,4
33379,64688,4
33367,64703,5
33375,64708,5
33387,64732,5
33393,64730,4
33397,64739,5
33405,64748,5
33406,64743,6
33407,64765,4
33416,64766,4
33417,64764,5
33416,64767,5
33408,64774,5
33415,64768,5
33421,64767,4
33414,64773,5
33415,64760,5
33417,64764,5
33408,64762,5
33412,64763,4
33412,64761,5
33409,64749,5
33403,64750,5
33398,64747,5
33397,64732,4
33386,64736,5
33384,64739,5
33387,64725,5
33382,64720,5
33380,64712,4
33379,64707,5
33382,64705,5
33376,64692,6
33372,64691,3
33370,64683,5
33369,64685,5
33361,64678,5
33367,64680,5
33359,64668,4
33363,64671,5
33354,64665,5
33349,64663,5
33354,64654,5
33347,64659,4
33357,64654,5
33344,64653,5
33342,64648,5
33348,64651,5
33348,64638,4
33338,64651,5
33343,64645,5
33337,64640,5
33338,64636,5
33344,64638,5
33336,64630,4
33336,64633,5
33329,64620,5
33331,64619,6
33320,64600,3
33316,64588,5
33295,64565,5
33290,64535,5
33267,64509,4
33268,64488,5
33249,64472,5
33235,64454,5
33237,64437,5
33241,64440,4
33224,64419,5
33227,64434,5
33230,64436,5
33233,64446,5
33245,64447,4
33248,64471,5
33256,64484,5
33261,64511,5
33272,64519,5
33289,64546,4
33303,64564,6
33302,64572,4
33305,64569,5
33295,64558,5
33287,64545,4
33283,64539,5
33286,64529,5
33280,64515,5
33271,64525,4
33283,64526,5
33290,64528,5
33285,64535,5
33284,64539,5
33288,64546,4
33297,64551,5
33309,64558,5
33315,64570,5
33315,64585,5
33320,64596,4
33334,64609,5
33334,64618,5
33338,64621,5
33330,64627,5
33350,64629,4
33349,64646,5
33342,64634,6
33345,64636,4
33343,64634,5
33348,64637,4
33343,64626,5
33339,64625,5
33330,64620,5
33339,64621,4
33335,64623,4
33342,64620,5
33336,64616,5
33336,64620,5
33337,64621,4
33324,64616,5
33337,64611,5
33329,64606,5
33326,64599,5
33314,64600,4
33325,64586,5
33316,64589,5
33310,64582,5
33306,64574,5
33314,64563,4
33305,64559,5
33306,64560,5
33302,64557,6
33300,64556,4
33302,64552,4
33303,64541,5
33296,64554,5
33293,64543,5
33296,64549,5
33301,64554,4
33304,64564,5
33303,64562,5
33301,64575,5
33307,64581,4
33330,64590,4
33317,64595,5
33328,64595,5
33330,64615,5
33334,64618,4
33345,64631,5
33344,64631,5
33352,64648,5
33342,64644,5
33355,64646,5
33359,64652,4
33351,64653,5
33360,64649,5
33362,64659,5
33362,64666,4
33361,64652,5
33357,64653,5
33350,64652,5
33349,64645,5
33340,64644,4
33344,64647,5
33340,64634,5
33341,64634,5
33342,64621,5
33334,64631,4
33333,64630,5
33333,64610,5
33335,64616,5
33327,64613,4
33324,64610,4
33327,64604,5
33324,64594,5
33322,64592,5
33321,64595,4
33311,64588,6
33313,64589,4
33315,64580,5
33315,64574,5
33316,64569,4
33300,64576,5
33311,64576,5
33302,64568,5
33304,64566,5
33317,64563,4
33304,64556,5
33298,64554,5
33297,64540,5
33288,64537,5
33274,64520,4
33271,64497,5
33267,64480,5
33254,64460,5
33244,64446,5
33234,64446,4
33237,64435,5
33236,64420,5
33222,64423,5
33230,64428,4
33229,64433,5
33224,64433,6
33241,64445,4
33245,64461,5
33245,64468,4
33254,64485,5
33266,64505,5
33279,64511,5
33284,64545,5
33290,64557,4
33297,64562,5
33301,64552,5
33299,64539,5
33278,64531,5
33285,64518,4
33280,64515,5
33268,64503,5
33272,64499,5
33265,64500,9
33266,64493,0
33270,64485,5
33278,64516,5
33287,64528,5
33283,64540,5
33302,64556,4
33303,64571,5
33316,64585,5
33326,64608,5
33339,64618,4
33341,64644,5
33352,64651,5
33354,64659,5
33358,64661,5
33363,64667,4
33363,64668,5
33374,64668,5
33372,64672,5
33364,64670,5
33361,64678,4
33373,64674,5
33364,64672,5
33367,64669,5
33365,64663,5
33368,64667,4
33361,64664,5
33365,64661,5
33360,64658,5
33359,64659,5
33360,64656,4
33364,64660,5
33349,64655,5
33356,64649,5
33352,64645,4
33351,64644,4
33351,64643,5
33347,64633,5
33339,64635,5
33340,64626,4
33339,64622,5
33335,64621,5
33335,64610,5
33331,64616,5
33332,64622,4
33332,64617,5
33336,64612,5
33338,64618,5
33343,64635,5
33349,64632,4
33343,64647,5
33361,64659,5
33366,64669,5
33371,64682,5
33379,64699,5
33378,64706,3
33397,64731,5
33403,64741,5
33405,64752,5
33417,64764,4
33416,64778,5
33429,64784,5
33430,64784,5
33426,64792,4
33430,64797,4
33438,64800,5
33437,64805,5
33439,64791,5
33440,64791,4
33429,64804,5
33424,64796,5
33433,64783,5
33430,64802,5
33434,64787,4
33434,64800,5
33432,64787,6
33432,64791,4
33426,64772,5
33421,64787,4
33430,64786,7
33428,64776,3
33417,64764,5
33418,64764,5
33413,64759,4
33408,64748,5
33396,64738,5
33387,64710,5
33380,64699,5
33376,64680,4
33362,64664,5
33351,64645,5
33347,64642,5
33338,64629,4
33340,64633,5
33338,64618,5
33338,64629,5
33339,64621,5
33335,64650,4
33357,64657,5
33366,64663,5
33365,64686,6
33377,64702,4
33385,64712,4
33400,64740,5
33405,64762,5
33421,64771,5
33414,64777,5
33408,64753,4
33403,64739,5
33390,64731,5
33398,64733,5
33390,64720,5
33383,64714,4
33388,64711,5
33394,64724,5
33388,64726,5
33396,64730,5
33397,64738,4
33415,64752,5
33413,64774,5
33423,64796,5
33439,64807,5
33440,64811,4
33457,64840,5
33456,64840,5
33476,64860,6
33471,64872,3
33473,64871,5
33480,64875,5
33479,64884,5
33475,64888,5
33479,64879,4
33477,64881,5
33483,64878,5
33489,64877,5
33477,64877,5
33474,64881,4
33478,64862,5
33484,64868,5
33473,64874,5
33483,64873,5
33471,64883,4
33474,64887,5
33479,64877,5
33476,64882,5
33475,64871,4
33469,64861,5
33460,64863,4
33471,64855,5
33466,64858,5
33469,64848,6
33466,64848,3
33462,64845,5
33456,64836,5
33458,64840,5
33453,64823,4
33444,64834,5
33450,64833,5
33448,64828,5
33451,64827,5
33451,64825,4
33456,64847,5
33463,64850,5
33466,64859,5
33473,64868,5
33471,64871,4
33474,64896,5
33493,64907,5
33500,64911,5
33499,64928,5
33504,64941,4
33520,64944,6
33521,64962,4
33528,64961,5
33532,64975,4
33530,64981,5
33541,64980,5
33531,64986,5
33537,64985,5
33533,64990,4
33534,64992,5
33542,64984,5
33534,64988,5
33539,64973,5
33544,64967,4
33524,64970,5
33504,64959,5
33512,64938,5
33504,64926,5
33494,64911,4
33480,64887,5
33481,64874,5
33466,64865,5
33455,64860,5
33459,64849,4
33469,64860,5
33461,64858,6
33470,64859,4
33474,64879,5
33479,64892,4
33483,64897,5
33483,64902,5
33502,64927,5
33498,64936,4
33510,64944,5
33513,64942,5
33514,64938,5
33498,64910,5
33491,64898,4
33485,64905,5
33478,64893,5
33477,64890,5
33482,64879,5
33474,64886,4
33478,64895,5
33489,64895,5
33491,64901,5
33501,64912,5
33497,64914,4
33501,64932,5
33506,64948,5
33520,64950,6
33523,64961,4
33540,64979,4
33529,64974,5
33539,64987,5
33549,64991,5
33550,65005,5
33547,65011,4
33552,65010,5
33551,65011,5
33553,65016,5
33550,65009,4
33556,65010,5
33555,65017,5
33549,65009,5
33552,65007,5
33558,65011,4
33551,65008,5
33556,65017,5
33556,65022,5
33553,65010,5
33552,65016,5
33547,65018,4
33554,65011,5
33541,65006,5
33548,65000,5
33541,65004,4
33547,65002,5
33536,65013,5
33536,65001,5
33538,64995,5
33540,64987,4
33542,64983,5
33542,64980,5
33532,64976,5
33542,64978,4
33538,64993,4
33535,64988,5
33538,64998,5
33540,65002,5
33539,65014,4
33547,65009,5
33562,65023,5
33562,65029,5
33560,65041,5
33562,65048,4
33573,65066,6
33580,65069,4
33581,65074,5
33585,65080,5
33593,65091,4
33593,65094,5
33589,65096,5
33603,65108,5
33601,65127,5
33609,65121,4
33608,65130,5
33622,65129,5
33614,65126,5
33613,65132,5
33616,65124,4
33614,65124,5
33609,65118,5
33599,65105,5
33592,65102,4
33587,65079,4
33575,65074,5
33577,65048,5
33566,65032,5
33554,65017,4
33549,65006,5
33539,65002,6
33545,65003,4
33544,65005,5
33542,65006,4
33538,65017,5
33551,65023,5
33555,65034,5
33561,65045,5
33570,65069,4
33586,65080,5
33593,65101,5
33598,65100,5
33597,65091,5
33583,65076,4
33579,65075,5
33569,65065,5
33562,65049,5
33557,65038,5
33558,65035,4
33563,65030,5
33559,65030,5
33554,65032,5
33553,65031,4
33558,65026,4
33555,65032,5
33557,65036,6
33559,65031,4
33567,65040,4
33564,65045,5
33567,65045,5
33577,65051,5
33575,65052,5
33572,65048,4
33574,65042,5
33574,65038,5
33571,65049,5
33569,65048,5
33578,65058,4
33578,65064,5
33565,65046,5
33570,65043,5
33569,65052,5
33569,65052,4
33559,65044,5
33575,65053,5
33563,65044,5
33564,65039,5
33554,65040,4
33568,65033,5
33560,65031,5
33565,65023,5
33552,65016,4
33554,65017,4
33553,65017,5
33549,65017,5
33547,65006,5
33536,65009,4
33541,65015,5
33537,65002,5
33541,64988,5
33537,64985,5
33526,64980,4
33530,64970,5
33526,64965,5
33518,64954,5
33512,64962,5
33522,64956,4
33507,64948,5
33507,64950,5
33518,64944,5
33504,64948,5
33510,64942,5
33508,64952,4
33511,64957,5
33508,64946,5
33520,64956,5
33511,64971,4
33522,64967,5
33518,64969,5
33514,64970,5
33534,64981,4
33525,64983,4
33527,64978,5
33527,64988,5
33527,64982,5
33531,64979,4
33527,64984,5
33533,64982,5
33528,64983,5
33531,64986,5
33527,64974,4
33524,64990,5
33521,64972,5
33534,64967,5
33524,64973,5
33516,64977,4
33518,64969,6
33511,64958,4
33508,64961,5
33507,64957,5
33505,64942,4
33499,64939,5
33494,64926,5
33485,64901,5
33467,64881,5
33461,64858,4
33445,64825,5
33418,64795,5
33400,64756,5
33404,64732,4
33381,64720,5
33369,64694,5
33369,64679,5
33364,64692,5
33365,64682,4
33373,64702,5
33375,64717,5
33384,64726,6
33401,64734,4
33405,64767,4
33417,64786,5
33424,64810,5
33442,64841,5
33455,64863,5
33460,64882,4
33472,64870,5
33463,64852,8
33459,64848,2
33476,64851,5
33452,64832,4
33453,64831,5
33437,64818,5
33439,64814,5
33432,64810,5
33431,64800,4
33430,64805,5
33428,64803,5
33429,64802,5
33425,64800,5
33425,64797,4
33428,64792,5
33431,64794,5
33433,64806,6
33432,64807,3
33436,64811,5
33445,64806,5
33441,64815,5
33439,64807,5
33438,64811,4
33436,64811,5
33445,64816,5
33443,64809,5
33441,64823,5
33444,64812,4
33431,64815,5
33441,64817,5
33438,64815,5
33440,64812,5
33444,64815,4
33436,64815,5
33431,64818,5
33440,64821,5
33436,64820,4
33442,64817,5
33438,64805,4
33437,64804,5
33437,64807,5
33431,64800,6
33436,64804,3
33436,64798,5
33426,64806,5
33425,64803,5
33430,64797,4
33417,64790,5
33429,64792,5
33414,64791,5
33425,64787,5
33418,64779,4
33411,64773,5
33419,64771,5
33405,64773,5
33412,64773,5
33415,64769,4
33415,64776,5
33412,64774,5
33411,64778,5
33412,64785,5
33418,64778,4
33412,64786,6
33423,64793,4
33425,64798,5
33431,64797,4
33420,64806,4
33432,64801,5
33435,64813,5
33434,64807,5
33440,64816,4
33436,64812,5
33452,64814,5
33447,64822,5
33446,64821,5
33438,64817,4
33444,64819,5
33445,64826,5
33443,64826,5
33445,64825,5
33433,64821,4
33442,64814,5
33444,64819,5
33431,64822,5
33433,64815,5
33439,64811,4
33430,64810,5
33427,64812,6
33434,64803,4
33429,64799,5
33422,64782,4
33425,64793,5
33420,64792,5
33416,64788,5
33410,64769,4
33415,64772,4
33420,64773,5
33414,64773,5
33411,64771,5
33407,64763,4
33411,64770,5
33408,64769,5
33410,64771,5
33405,64772,5
33407,64762,4
33400,64758,5
33394,64764,5
33395,64753,5
33405,64753,5
33399,64750,4
33396,64751,5
33394,64745,5
33400,64753,6
33397,64740,4
33395,64752,4
33394,64735,5
33396,64738,5
33393,64740,5
33391,64733,5
33393,64731,4
33380,64725,5
33389,64722,5
33377,64717,5
33385,64717,4
33378,64718,4
33382,64717,5
33377,64718,5
33381,64717,5
33375,64700,4
33371,64709,5
33366,64698,5
33362,64696,5
33368,64678,5
33354,64659,5
33341,64640,4
33321,64613,5
33305,64574,5
33293,64537,6
33267,64516,3
33258,64486,5
33244,64462,5
33235,64450,5
33234,64440,5
33230,64427,4
33228,64427,5
33233,64431,5
33230,64431,5
33236,64451,5
33234,64462,4
33246,64478,5
33265,64509,5
33279,64531,5
33292,64569,4
33310,64589,4
33310,64602,5
33311,64601,5
33312,64591,5
33306,64593,4
33308,64590,6
33307,64572,4
33308,64577,5
33311,64576,5
33301,64574,4
33301,64579,5
33311,64583,5
33305,64577,5
33311,64586,5
33311,64586,4
33313,64613,5
33326,64617,5
33345,64620,5
33342,64628,5
33348,64636,4
33349,64649,5
33348,64652,5
33351,64653,5
33349,64665,5
33363,64671,4
33352,64660,5
33367,64671,5
33355,64667,5
33365,64669,4
33362,64668,5
33361,64662,6
33365,64667,4
33354,64667,5
33358,64674,4
33355,64670,5
33364,64670,5
33361,64673,5
33360,64666,5
33363,64669,4
33357,64661,5
33359,64663,5
33347,64660,5
33349,64654,5
33354,64643,4
33348,64644,5
33347,64636,5
33344,64631,5
33336,64631,5
33337,64627,4
33339,64622,5
33326,64620,5
33337,64612,5
33338,64611,5
33334,64613,4
33321,64605,5
33331,64610,6
33329,64607,4
33330,64600,4
33316,64611,5
33326,64607,5
33330,64621,5
33334,64619,5
33338,64625,4
33343,64634,5
33342,64635,5
33346,64645,5
33355,64645,5
33354,64651,4
33347,64652,5
33354,64666,5
33369,64679,5
33359,64673,5
33372,64692,4
33376,64685,5
33375,64704,5
33372,64700,5
33375,64687,5
33376,64694,4
33369,64685,5
33366,64689,5
33365,64690,5
33363,64682,4
33363,64655,4
33351,64666,5
33359,64658,5
33355,64656,5
33350,64637,4
33337,64652,5
33350,64640,5
33346,64642,5
33350,64627,5
33333,64632,4
33332,64627,5
33339,64631,5
33335,64627,5
33329,64624,5
33333,64620,4
33325,64618,5
33332,64625,5
33330,64622,5
33331,64612,5
33336,64618,5
33326,64616,4
33326,64611,5
33317,64605,5
33323,64603,5
33321,64601,4
33315,64588,5
33320,64596,5
33318,64595,5
33313,64577,4
33321,64585,4
33309,64589,5
33315,64583,5
33306,64586,5
33307,64581,4
33300,64573,5
33307,64573,5
33301,64562,5
33290,64568,5
33293,64551,4
33291,64542,5
33285,64528,5
33271,64510,5
33261,64489,5
33249,64471,4
33239,64446,6
33230,64415,4
33211,64409,5
33209,64387,5
33204,64371,4
33193,64357,5
33190,64358,5
33188,64352,5
33182,64358,5
33185,64370,4
33196,64381,5
33205,64386,5
33213,64398,5
33222,64415,4
33236,64447,4
33244,64478,5
33261,64495,5
33262,64499,5
33265,64506,4
33252,64482,5
33245,64475,5
33250,64463,5
33248,64449,5
33241,64448,4
33235,64445,5
33247,64444,5
33244,64460,5
33244,64466,5
33247,64468,4
33252,64480,5
33253,64483,5
33271,64504,5
33275,64520,5
33285,64532,4
33296,64543,5
33291,64558,5
33309,64577,5
33320,64581,5
33318,64576,4
33322,64582,5
33322,64587,5
33320,64596,5
33316,64598,4
33322,64587,4
33317,64588,5
33311,64592,5
33320,64590,6
33316,64605,3
33329,64585,5
33309,64586,5
33314,64576,5
33311,64578,5
33307,64569,4
33301,64568,5
33305,64569,5
33304,64579,5
33300,64557,5
33300,64553,4
33299,64542,5
33294,64548,5
33290,64537,5
33291,64533,5
33294,64536,4
33289,64522,5
33288,64527,5
33280,64518,5
33279,64515,5
33276,64513,5
33269,64511,4
33268,64509,5
33276,64512,5
33273,64502,6
33271,64506,3
33268,64518,5
33274,64520,5
33289,64530,5
33285,64535,4
33288,64547,5
33295,64567,5
33303,64581,5
33311,64581,5
33328,64601,4
33332,64613,5
33343,64624,5
33341,64635,5
33370,64653,5
33357,64653,4
33362,64666,5
33361,64673,5
33368,64685,5
33365,64676,5
33371,64681,4
33368,64688,6
33367,64681,4
33372,64676,5
33372,64677,5
33363,64679,6
33365,64675,3
33360,64682,5
33364,64678,5
33355,64668,4
33357,64662,5
33359,64666,5
33355,64656,5
33350,64655,5
33345,64646,4
33350,64647,5
33343,64641,5
33342,64647,5
33341,64632,5
33345,64635,4
33338,64629,5
33336,64630,5
33333,64628,5
33329,64618,5
33334,64614,4
33330,64602,5
33321,64605,6
33321,64582,4
33314,64573,5
33303,64566,4
33292,64554,5
33286,64533,5
33277,64509,5
33262,64493,5
33261,64492,4
33252,64469,5
33249,64459,5
33238,64462,5
33245,64457,4
33248,64456,5
33251,64460,5
33254,64489,5
33266,64502,5
33276,64508,4
33277,64523,5
33294,64546,5
33302,64566,5
33310,64589,10
33309,64596,4
33315,64597,5
33315,64588,6
33301,64571,4
33310,64560,4
33297,64564,5
33299,64551,5
33292,64550,5
33291,64545,5
33299,64552,4
33294,64557,5
33297,64570,5
33306,64588,5
33322,64596,5
33332,64610,4
33338,64640,5
33343,64645,5
33362,64672,5
33376,64688,4
33385,64703,5
33388,64712,5
33399,64729,5
33407,64745,5
33404,64757,5
33416,64764,4
33422,64761,5
33419,64776,5
33420,64772,6
33420,64772,3
33421,64775,5
33430,64776,5
33428,64779,5
33425,64773,5
33425,64777,4
33418,64774,5
33413,64770,5
33412,64770,5
33419,64776,5
33420,64774,4
33414,64764,5
33401,64762,5
33414,64761,5
33416,64761,5
33412,64752,4
33406,64751,5
33410,64745,5
33408,64739,5
33402,64735,4
33402,64741,6
33394,64729,4
33397,64724,5
33396,64729,5
33390,64735,4
33394,64734,5
33396,64734,5
33396,64746,5
33405,64751,5
33401,64746,4
33411,64759,5
33411,64776,5
33424,64775,5
33428,64796,5
33431,64817,4
33438,64816,5
33454,64836,5
33454,64863,5
33467,64866,5
33469,64882,4
33474,64883,5
33493,64892,5
33489,64903,5
33482,64897,4
33489,64906,4
33490,64916,6
33485,64907,4
33481,64907,5
33492,64912,4
33499,64912,5
33493,64910,5
33483,64904,5
33482,64898,5
33491,64907,4
33481,64889,5
33469,64881,5
33469,64864,5
33466,64852,5
33444,64833,4
33445,64829,5
33441,64809,5
33421,64796,5
33409,64780,5
33423,64772,4
33407,64756,5
33408,64749,5
33404,64752,5
33417,64758,5
33418,64759,4
33418,64774,5
33418,64779,6
33427,64795,4
33434,64811,4
33440,64818,4
33448,64832,5
33454,64841,5
33452,64852,5
33452,64843,4
33437,64818,5
33443,64794,5
33431,64801,5
33423,64791,5
33421,64791,4
33427,64785,5
33429,64793,5
33428,64801,5
33431,64812,5
33438,64812,4
33448,64834,5
33449,64850,5
33458,64855,5
33471,64879,5
33478,64879,4
33482,64898,5
33495,64921,5
33502,64937,5
33510,64929,4
33506,64931,4
33510,64944,5
33509,64944,5
33515,64953,5
33522,64961,4
33525,64969,5
33527,64969,5
33526,64970,5
33535,64957,5
33529,64968,4
33523,64964,5
33528,64965,5
33528,64962,5
33523,64968,5
33527,64960,4
33523,64965,5
33528,64966,5
33514,64959,5
33518,64960,5
33509,64947,5
33515,64942,4
33510,64943,5
33516,64936,5
33503,64938,5
33504,64931,4
33500,64933,5
33508,64927,5
33506,64923,5
33504,64926,4
33496,64933,4
33497,64927,5
33503,64925,5
33498,64929,5
33506,64928,4
33507,64938,5
33521,64941,5
33507,64963,5
33518,64963,5
33523,64975,4
33539,64989,5
33536,65009,5
33541,65007,5
33561,65033,5
33568,65032,4
33575,65049,6
33571,65064,4
33576,65057,5
33578,65074,5
33579,65080,4
33592,65089,5
33590,65091,5
33589,65085,5
33596,65097,5
33596,65090,4
33592,65091,5
33583,65073,5
33581,65073,5
33572,65059,4
33570,65051,5
33564,65033,5
33546,65023,5
33549,65005,5
33537,65001,4
33532,64987,5
33535,64993,5
33523,64981,5
33531,64982,5
33525,64984,4
33532,64998,5
33543,64991,6
33545,65011,4
33553,65022,5
33559,65035,4
33559,65048,5
33575,65058,5
33577,65064,5
33573,65061,5
33563,65040,4
33563,65036,5
33559,65033,5
33548,65008,5
33548,65017,4
33551,65002,4
33541,65001,5
33540,65004,5
33548,65004,5
33542,65007,4
33553,65010,5
33557,65021,5
33553,65024,5
33560,65031,5
33554,65048,4
33575,65049,5
33575,65049,5
33580,65062,5
33574,65065,5
33579,65073,4
33590,65072,5
33584,65077,5
33577,65076,5
33588,65079,5
33588,65085,4
33588,65088,5
33591,65088,5
33598,65078,5
33596,65084,4
33596,65095,4
33605,65094,5
33590,65090,5
33590,65093,5
33595,65083,4
33602,65091,5
33597,65094,5
33588,65093,5
33590,65093,5
33596,65088,5
33598,65087,3
33590,65089,5
33582,65077,5
33593,65079,5
33582,65079,4
33594,65086,5
33593,65081,5
33596,65074,5
33588,65081,5
33589,65070,4
33579,65072,5
33581,65078,5
33581,65072,5
33588,65071,5
33584,65070,4
33580,65078,5
33587,65077,5
33585,65087,5
33586,65086,4
33579,65093,5
33592,65099,6
33598,65106,4
33593,65105,5
33606,65121,4
33609,65127,7
33616,65129,3
33615,65134,5
33620,65148,5
33624,65151,4
33625,65160,5
33627,65162,5
33630,65170,5
33624,65171,5
33635,65168,4
33638,65164,5
33625,65156,5
33629,65152,5
33622,65144,5
33613,65140,4
33610,65135,5
33614,65124,5
33602,65124,5
33598,65107,4
33590,65098,4
33586,65080,5
33585,65071,6
33583,65079,4
33575,65073,4
33579,65078,5
33586,65097,5
33588,65089,5
33585,65098,5
33596,65110,4
33600,65127,5
33613,65143,5
33613,65147,5
33625,65161,5
33628,65170,4
33616,65139,5
33615,65135,5
33613,65133,5
33602,65120,5
33600,65106,4
33586,65101,5
33593,65102,5
33595,65091,5
33582,65087,5
33596,65091,4
33590,65088,5
33585,65080,5
33587,65078,6
33585,65081,3
33586,65085,5
33592,65085,5
33585,65096,5
33591,65091,5
33588,65095,4
33598,65097,5
33598,65096,5
33589,65087,5
33594,65088,5
33590,65102,4
33589,65097,5
33587,65088,5
33593,65091,5
33592,65087,5
33588,65092,4
33584,65083,5
33581,65091,5
33585,65088,5
33588,65087,5
33587,65084,5
33583,65091,4
33588,65091,5
33592,65080,5
33594,65089,6
33586,65081,3
33587,65081,5
33585,65082,5
33582,65079,5
33579,65069,4
33574,65068,5
33570,65057,5
33574,65059,5
33559,65055,5
33560,65042,4
33557,65035,5
33551,65020,5
33551,65019,5
33536,65000,5
33536,65011,4
33536,65001,5
33536,64998,5
33531,64998,5
33528,64988,5
33538,64986,4
33527,64996,6
33529,64991,4
33535,64990,5
33535,64992,5
33524,64994,4
33540,64995,5
33534,65004,5
33544,65007,5
33540,65012,4
33546,65016,5
33542,65018,5
33545,65024,5
33548,65017,5
33548,65027,4
33559,65021,5
33548,65027,5
33553,65016,5
33548,65020,5
33550,65020,4
33542,65015,5
33555,65012,5
33547,65017,5
33550,65018,5
33542,65007,4
33536,65007,5
33536,64990,6
33528,64977,4
33508,64961,5
33500,64944,4
33481,64913,5
33479,64885,5
33462,64869,5
33454,64841,5
33442,64822,4
33436,64816,5
33426,64805,5
33422,64807,5
33422,64809,4
33434,64817,4
33435,64818,5
33436,64830,5
33450,64841,5
33453,64848,4
33464,64874,5
33470,64895,5
33493,64922,5
33496,64940,5
33503,64955,4
33503,64954,5
33492,64929,5
33488,64921,6
33489,64913,4
33476,64904,4
33475,64884,5
33467,64877,5
33462,64863,5
33462,64868,5
33462,64852,4
33452,64848,5
33454,64850,8
33459,64854,2
33450,64846,5
33474,64846,4
33458,64845,5
33461,64852,5
33463,64852,5
33454,64851,4
33471,64852,5
33453,64852,5
33464,64860,5
33462,64869,5
33461,64857,5
33464,64870,4
33459,64867,5
33469,64862,5
33462,64866,5
33470,64857,4
33457,64862,5
33464,64858,5
33465,64854,5
33460,64853,5
33460,64863,4
33466,64854,5
33451,64855,5
33461,64857,5
33458,64863,5
33459,64852,4
33459,64857,5
33453,64860,5
33449,64857,5
33463,64851,5
33458,64847,4
33457,64840,5
33452,64846,5
33451,64841,5
33458,64844,4
33445,64835,5
33450,64839,4
33444,64835,5
33444,64832,5
33450,64830,4
33435,64822,5
33443,64817,5
33433,64817,5
33432,64822,5
33428,64824,4
33437,64819,5
33443,64819,5
33432,64819,5
33434,64824,5
33438,64824,4
33440,64839,5
33438,64837,5
33447,64844,5
33450,64851,5
33456,64849,4
33456,64858,5
33471,64863,5
33459,64870,5
33470,64859,5
33464,64878,4
33462,64876,6
33473,64882,4
33474,64878,5
33471,64881,4
33474,64882,4
33468,64875,5
33467,64878,5
33472,64885,5
33470,64872,4
33458,64868,5
33460,64870,5
33471,64863,5
33467,64867,5
33458,64875,4
33466,64870,5
33451,64849,5
33460,64863,5
33453,64852,5
33453,64860,4
33450,64852,5
33462,64853,5
33453,64858,5
33457,64851,5
33449,64850,4
33455,64846,5
33443,64836,6
33449,64838,4
33440,64836,5
33441,64839,4
33449,64832,5
33438,64831,5
33442,64836,5
33431,64841,4
33445,64827,5
33435,64831,5
33440,64822,5
33440,64823,5
33433,64820,4
33445,64824,5
33434,64817,5
33446,64817,5
33435,64822,5
33436,64820,4
33438,64817,5
33445,64811,5
33430,64811,5
33431,64801,5
33420,64801,4
33423,64789,5
33407,64771,5
33405,64766,5
33399,64742,5
33382,64728,4
33382,64721,5
33376,64720,5
33372,64711,5
33370,64709,5
33360,64698,4
33368,64696,5
33364,64686,5
33355,64663,5
33355,64671,4
33338,64653,5
33323,64617,5
33308,64581,5
33291,64569,5
33272,64540,4
33266,64502,5
33249,64473,5
33238,64462,5
33227,64433,5
33217,64419,5
33206,64414,4
33205,64402,5
33201,64405,5
33214,64417,5
33219,64441,4
33226,64442,5
33234,64466,5
33250,64490,5
33269,64528,5
33272,64549,4
33293,64559,5
33297,64569,5
33296,64566,5
33298,64569,5
33295,64567,4
33304,64565,5
33298,64559,5
33299,64567,5
33304,64559,4
33291,64570,4
33300,64585,5
33311,64585,5
33312,64589,5
33307,64602,4
33321,64609,6
33314,64616,4
33334,64625,5
33333,64636,5
33340,64647,4
33350,64652,5
33348,64645,5
33348,64663,5
33362,64669,5
33359,64671,4
33350,64658,5
33353,64667,5
33362,64666,5
33361,64662,5
33358,64662,4
33368,64671,5
33363,64670,5
33368,64670,5
33359,64664,5
33353,64665,4
33356,64658,5
33354,64658,6
33356,64654,4
33343,64657,4
33353,64660,5
33360,64661,5
33348,64652,5
33354,64659,5
33358,64648,4
33347,64641,5
33355,64650,5
33342,64648,5
33341,64638,5
33343,64634,4
33332,64631,5
33337,64621,5
33332,64618,5
33331,64621,5
33331,64619,4
33333,64617,5
33331,64612,5
33329,64614,5
33331,64611,5
33334,64622,4
33333,64615,5
33338,64623,5
33335,64628,6
33337,64632,4
33345,64638,4
33340,64650,5
33351,64650,5
33353,64660,5
33346,64653,4
33357,64664,5
33367,64673,5
33372,64691,5
33371,64696,5
33377,64698,4
33381,64706,5
33380,64712,5
33383,64714,5
33379,64710,5
33381,64718,4
33378,64718,5
33391,64710,5
33385,64705,5
33386,64707,5
33386,64704,5
33386,64708,4
33381,64707,5
33383,64707,5
33370,64699,6
33373,64700,3
33372,64689,5
33370,64687,5
33363,64685,5
33375,64686,5
33364,64679,4
33366,64679,5
33360,64675,5
33354,64670,5
33356,64668,4
33352,64663,5
33355,64655,5
33351,64666,5
33350,64657,5
33349,64652,4
33350,64653,5
33338,64654,5
33354,64641,5
33339,64651,5
33338,64646,4
33340,64643,6
33352,64638,4
33342,64628,5
33345,64630,5
33333,64635,6
33340,64628,3
33334,64627,5
33342,64634,5
33333,64632,5
33336,64630,4
33333,64620,5
33327,64626,5
33332,64616,5
33334,64615,5
33323,64615,4
33325,64618,5
33325,64607,5
33318,64582,5
33307,64595,4
33303,64572,4
33289,64548,5
33284,64518,5
33266,64495,5
33254,64476,4
33238,64454,5
33229,64435,6
33218,64414,4
33212,64406,5
33212,64391,4
33216,64398,5
33212,64393,5
33217,64385,5
33212,64402,5
33214,64417,4
33229,64424,5
33224,64439,5
33236,64450,5
33247,64464,5
33258,64490,4
33258,64506,5
33270,64515,5
33276,64513,5
33266,64504,5
33260,64484,4
33260,64478,5
33256,64478,5
33249,64454,5
33239,64450,4
33239,64457,4
33247,64457,5
33247,64476,6
33263,64481,4
33253,64493,4
33269,64499,5
33264,64512,5
33281,64520,5
33280,64533,5
33299,64558,4
33302,64567,5
33310,64575,5
33315,64585,5
33323,64602,5
33330,64608,4
33323,64604,5
33332,64609,5
33327,64609,5
33325,64606,5
33333,64617,4
33330,64602,5
33327,64610,5
33332,64605,5
33323,64605,5
33324,64602,4
33316,64593,5
33319,64584,5
33315,64588,6
33315,64575,3
33310,64586,5
33308,64583,5
33306,64576,5
33311,64574,5
33310,64566,4
33299,64550,5
33297,64550,5
33304,64536,5
33288,64531,5
33295,64536,4
33269,64530,5
33280,64525,5
33277,64519,5
33279,64511,5
33267,64501,4
33267,64510,5
33267,64491,5
33272,64502,5
33269,64496,5
33261,64508,5
33271,64500,4
33276,64515,5
33280,64526,5
33283,64531,5
33293,64540,4
33288,64555,5
33304,64574,5
33311,64581,5
33313,64604,4
33325,64615,5
33327,64631,5
33340,64635,5
33341,64650,5
33349,64649,4
33354,64657,5
33349,64658,5
33353,64667,5
33358,64661,5
33352,64667,4
33362,64661,5
33360,64664,5
33354,64664,5
33354,64659,5
33350,64659,4
33347,64650,6
33352,64664,4
33348,64653,5
33344,64644,5
33344,64645,4
33340,64638,5
33341,64632,5
33339,64629,5
33330,64625,5
33329,64620,4
33339,64620,5
33333,64609,5
33335,64611,5
33322,64609,4
33327,64610,5
33324,64609,5
33328,64600,5
33318,64601,5
33320,64598,4
33321,64586,5
33313,64587,5
33318,64582,5
33302,64571,5
33304,64566,4
33306,64562,5
33299,64547,6
33288,64517,4
33275,64515,5
33259,64490,4
33256,64477,5
33249,64449,5
33235,64447,5
33234,64442,5
33229,64437,4
33224,64434,5
33229,64427,5
33229,64441,5
33235,64442,5
33241,64455,4
33250,64471,5
33256,64481,5
33263,64501,5
33272,64526,4
33287,64548,5
33305,64559,5
33303,64563,5
33306,64573,10
33297,64551,4
33290,64544,5
33279,64534,8
33283,64525,2
33279,64527,4
33283,64526,5
33278,64538,5
33282,64533,5
33288,64538,5
33304,64554,4
33313,64571,5
33305,64592,5
33325,64606,5
33340,64611,5
33335,64635,4
33355,64644,5
33365,64667,5
33374,64676,5
33373,64695,5
33379,64703,4
33381,64709,5
33391,64712,5
33386,64708,5
33400,64718,5
33386,64715,4
33386,64723,5
33392,64724,5
33396,64723,5
33389,64723,4
33384,64712,5
33388,64715,5
33387,64714,5
33386,64709,5
33384,64708,4
33385,64710,5
33397,64705,5
33381,64703,5
33386,64699,5
33385,64702,4
33377,64697,5
33381,64693,5
33375,64681,5
33372,64680,5
33368,64684,4
33365,64676,5
33365,64685,5
33358,64670,5
33367,64675,5
33359,64668,5
33362,64657,4
33361,64661,5
33362,64665,5
33365,64667,4
33359,64674,5
33362,64672,5
33365,64684,5
33381,64699,5
33386,64703,4
33392,64717,5
33399,64736,5
33407,64752,5
33415,64764,5
33428,64786,4
33431,64790,5
33438,64817,5
33449,64815,5
33450,64830,5
33449,64837,4
33465,64845,5
33460,64854,5
33474,64860,5
33464,64865,5
33468,64869,4
33472,64868,6
33470,64862,4
33463,64867,5
33467,64858,4
33464,64857,4
33460,64846,5
33452,64852,5
33452,64827,5
33444,64813,4
33440,64801,5
33428,64780,5
33410,64764,5
33402,64757,5
33399,64732,4
33392,64721,5
33386,64710,5
33374,64703,5
33383,64707,5
33387,64714,4
33382,64721,5
33392,64729,5
33390,64736,6
33400,64747,4
33401,64741,4
33406,64754,5
33415,64779,5
33423,64783,5
33427,64793,5
33428,64791,4
33422,64771,5
33410,64759,5
33408,64750,5
33402,64737,4
33404,64732,4
33388,64726,5
33394,64732,5
33403,64734,5
33409,64737,4
33400,64755,5
33414,64760,5
33425,64775,5
33430,64786,5
33444,64810,5
33446,64822,4
33461,64840,5
33469,64855,5
33493,64869,6
33483,64876,3
33478,64887,5
33489,64892,5
33497,64908,5
33494,64908,5
33500,64915,4
33507,64922,5
33505,64913,5
33502,64915,5
33504,64916,5
33498,64919,4
33501,64914,5
33501,64908,5
33499,64918,5
33497,64920,4
33505,64922,4
33505,64914,5
33498,64917,5
33492,64917,5
33491,64897,4
33495,64908,6
33491,64893,4
33484,64887,5
33484,64885,5
33478,64877,6
33481,64889,3
33472,64872,5
33470,64868,5
33472,64860,5
33473,64867,4
33463,64850,5
33461,64865,5
33456,64860,5
33466,64849,5
33469,64856,4
33464,64862,5
33468,64866,5
33475,64883,5
33485,64888,5
33489,64894,4
33483,64910,5
33504,64910,5
33509,64939,5
33509,64951,4
33521,64963,4
33533,64981,6
33537,64992,4
33535,64996,5
33537,65006,4
33547,65019,5
33557,65023,5
33561,65032,5
33548,65040,5
33561,65032,4
33568,65031,5
33562,65037,5
33558,65028,5
33557,65026,5
33560,65031,4
33545,65006,5
33554,64997,5
33531,64985,5
33522,64969,5
33515,64947,4
33516,64938,5
33499,64920,5
33490,64907,5
33482,64904,5
33483,64894,4
33490,64887,5
33476,64903,6
33484,64906,4
33493,64915,4
33498,64920,4
33509,64930,5
33509,64946,5
33519,64958,5
33534,64971,4
33530,64985,5
33524,64980,5
33518,64959,5
33516,64955,5
33515,64943,4
33508,64940,5
33503,64933,5
33505,64938,5
33501,64930,5
33507,64937,4
33499,64941,5
33503,64948,5
33515,64947,5
33518,64959,5
33529,64964,4
33527,64961,5
33534,64993,5
33538,64996,6
33545,65000,4
33554,65014,4
33560,65025,5
33566,65030,5
33568,65032,5
33572,65032,4
33576,65048,4
33573,65047,5
33571,65049,5
33573,65056,5
33575,65059,4
33573,65065,5
33577,65053,5
33582,65063,5
33587,65071,5
33579,65064,4
33580,65082,5
33594,65084,5
33596,65092,5
33595,65090,5
33592,65083,5
33589,65097,4
33587,65089,5
33592,65090,5
33595,65084,6
33586,65081,3
33587,65082,5
33581,65078,5
33580,65083,5
33583,65078,5
33580,65075,4
33577,65071,5
33572,65074,5
33571,65069,5
33583,65070,4
33584,65075,4
33570,65079,5
33579,65070,5
33586,65077,5
33582,65084,4
33588,65081,5
33591,65096,5
33585,65104,5
33602,65110,5
33606,65119,4
33605,65126,6
33614,65142,4
33613,65140,5
33631,65145,5
33629,65154,4
33619,65162,5
33630,65164,5
33640,65158,5
33634,65171,5
33635,65168,4
33627,65163,5
33628,65178,5
33635,65170,5
33636,65162,5
33626,65164,4
33618,65142,5
33616,65140,5
33613,65125,5
33600,65110,4
33593,65101,4
33593,65088,5
33577,65079,5
33570,65068,5
33573,65059,4
33574,65077,5
33585,65078,6
33577,65088,4
33579,65085,5
33594,65102,4
33591,65122,5
33599,65122,5
33609,65141,5
33612,65141,5
33616,65125,4
33604,65118,5
33595,65115,5
33594,65115,5
33580,65091,5
33581,65092,4
33580,65087,5
33587,65073,5
33575,65074,5
33571,65065,5
33572,65075,4
33572,65055,5
33568,65063,5
33578,65062,5
33576,65063,4
33567,65063,4
33574,65065,5
33577,65074,6
33576,65069,4
33587,65077,4
33578,65082,5
33574,65072,5
33587,65073,5
33583,65072,5
33580,65074,4
33574,65065,5
33575,65070,5
33578,65070,5
33582,65067,5
33574,65061,4
33578,65067,5
33578,65054,5
33576,65055,5
33576,65056,5
33579,65060,4
33582,65062,5
33574,65070,5
33579,65064,5
33577,65065,5
33565,65052,4
33570,65053,5
33576,65052,5
33563,65043,5
33568,65042,4
33561,65030,4
33566,65032,5
33560,65025,5
33552,65028,5
33548,65012,4
33540,65003,5
33539,64991,5
33530,64997,5
33523,64988,5
33526,64971,4
33520,64984,5
33527,64980,5
33522,64976,5
33520,64975,5
33525,64982,4
33532,64971,5
33533,64989,5
33533,64991,5
33527,64985,5
33538,65001,5
33537,64992,4
33542,65007,5
33540,65015,5
33544,65017,5
33549,65017,4
33543,65025,5
33543,65025,5
33548,65029,5
33556,65031,4
33555,65034,4
33546,65036,5
33557,65024,5
33546,65027,5
33551,65027,4
33554,65027,5
33555,65027,5
33555,65027,5
33547,65020,5
33545,65014,4
33546,65016,5
33540,65005,5
33537,64998,5
33533,64991,5
33521,64975,4
33510,64959,6
33505,64936,4
33490,64914,5
33468,64879,5
33453,64859,4
33435,64822,5
33411,64791,5
33407,64768,5
33400,64751,5
33388,64738,4
33383,64733,5
33375,64741,5
33387,64733,5
33388,64743,4
33398,64751,4
33406,64773,5
33415,64791,5
33425,64825,5
33437,64839,4
33462,64862,5
33472,64889,5
33483,64913,5
33488,64904,5
33478,64894,4
33476,64887,5
33478,64884,6
33469,64884,4
33482,64867,5
33471,64863,4
33465,64868,5
33460,64858,5
33467,64859,5
33459,64855,5
33459,64853,4
33458,64862,8
33458,64848,2
33451,64857,5
33457,64847,5
33470,64859,4
33456,64848,5
33465,64859,5
33461,64867,5
33467,64874,4
33468,64873,4
33467,64868,5
33469,64871,5
33464,64864,5
33464,64864,4
33466,64870,5
33463,64865,5
33464,64869,5
33461,64857,5
33468,64860,4
33465,64859,5
33466,64859,5
33466,64876,5
33464,64865,5
33461,64870,4
33461,64875,5
33465,64886,5
33470,64870,5
33465,64872,5
33467,64859,4
33461,64874,5
33463,64860,5
33465,64849,5
33465,64854,5
33461,64849,5
33458,64850,4
33461,64853,5
33456,64846,5
33451,64842,6
33455,64846,3
33441,64827,5
33444,64837,5
33437,64826,5
33445,64823,4
33444,64821,5
33439,64829,5
33441,64821,5
33449,64822,5
33446,64835,4
33442,64827,5
33454,64836,5
33455,64831,5
33455,64848,5
33454,64845,4
33452,64849,5
33460,64857,5
33467,64859,5
33470,64865,5
33468,64860,4
33466,64869,6
33457,64877,4
33468,64884,5
33470,64878,5
33470,64876,6
33473,64885,3
33470,64878,5
33473,64878,5
33466,64879,4
33470,64877,4
33466,64881,5
33466,64875,5
33464,64877,5
33461,64869,4
33461,64875,5
33472,64868,5
33456,64868,5
33465,64868,5
33469,64854,4
33450,64855,5
33459,64857,5
33459,64839,5
33446,64833,5
33435,64820,4
33426,64798,5
33411,64766,6
33396,64752,4
33384,64724,5
33379,64701,4
33369,64681,5
33358,64670,5
33353,64660,5
33348,64654,5
33344,64647,4
33351,64657,5
33351,64659,5
33352,64670,5
33357,64683,4
33370,64695,4
33382,64721,5
33385,64722,5
33394,64751,5
33418,64784,4
33436,64807,5
33435,64828,5
33434,64826,5
33427,64812,5
33431,64810,4
33436,64800,5
33428,64800,5
33422,64789,6
33416,64776,4
33413,64776,4
33417,64770,5
33413,64762,5
33405,64764,5
33414,64764,5
33413,64764,4
33407,64759,5
33408,64768,5
33412,64768,5
33420,64778,5
33417,64780,4
33423,64775,5
33414,64781,5
33414,64779,5
33419,64784,4
33418,64782,4
33410,64784,5
33421,64780,5
33427,64786,5
33417,64773,5
33425,64769,4
33425,64768,5
33424,64771,5
33422,64775,6
33428,64778,3
33421,64776,5
33421,64781,5
33421,64770,5
33435,64767,5
33416,64773,4
33422,64774,5
33422,64781,5
33416,64774,5
33413,64771,5
33417,64773,4
33413,64765,5
33421,64762,5
33425,64765,5
33415,64758,5
33414,64761,4
33411,64756,5
33413,64756,5
33410,64751,5
33410,64756,4
33408,64734,5
33403,64740,4
33403,64732,5
33399,64737,5
33389,64724,4
33400,64731,5
33397,64725,5
33392,64732,5
33397,64734,5
33394,64743,4
33403,64743,5
33398,64747,5
33395,64755,5
33411,64761,5
33413,64759,4
33412,64762,5
33417,64777,5
33434,64767,5
33424,64775,5
33419,64781,4
33417,64789,5
33422,64780,5
33421,64784,5
33417,64775,5
33419,64780,4
33424,64788,6
33413,64778,4
33422,64778,5
33413,64771,4
33414,64765,5
33417,64765,5
33412,64762,5
33410,64761,5
33403,64763,4
33406,64755,5
33410,64758,5
33403,64743,5
33396,64739,5
33395,64742,4
33394,64743,5
33396,64737,5
33392,64735,5
33389,64739,5
33393,64725,4
33384,64728,5
33391,64724,5
33383,64718,5
33386,64725,5
33382,64711,4
33382,64717,5
33384,64718,6
33375,64706,4
33374,64696,5
33368,64680,4
33359,64664,5
33339,64635,5
33331,64621,5
33315,64600,4
33301,64570,5
33303,64563,5
33296,64548,5
33282,64538,5
33282,64525,4
33285,64530,5
33289,64532,5
33290,64552,5
33294,64552,5
33308,64577,4
33315,64599,5
33334,64607,5
33341,64634,5
33347,64656,5
33361,64678,4
33375,64692,5
33376,64713,5
33373,64703,6
33370,64690,4
33367,64678,4
33361,64668,5
33350,64661,5
33353,64646,5
33338,64641,4
33337,64643,4
33341,64645,5
33344,64644,5
33347,64638,5
33345,64641,4
33345,64642,5
33349,64646,5
33344,64650,5
33355,64660,5
33365,64666,4
33357,64670,5
33368,64681,5
33368,64690,5
33377,64690,5
33372,64685,5
33378,64686,4
33375,64688,5
33373,64688,5
33376,64695,5
33377,64697,4
33376,64697,5
33373,64687,5
33379,64690,5
33382,64696,5
33366,64692,4
33376,64687,5
33368,64676,5
33371,64686,5
33370,64687,4
33375,64693,4
33378,64682,5
33367,64684,5
33371,64679,5
33361,64676,4
33374,64670,5
33356,64667,5
33354,64660,5
33356,64659,5
33357,64654,4
33348,64644,6
33346,64640,4
33354,64646,5
33341,64638,5
33342,64632,4
33342,64630,5
33342,64629,5
33341,64628,5
33352,64632,5
33341,64639,4
33348,64640,5
33345,64641,5
33357,64651,5
33350,64657,5
33349,64657,4
33358,64662,5
33359,64669,5
33366,64682,5
33373,64681,4
33378,64691,4
33376,64685,5
33377,64695,5
33385,64711,5
33385,64707,4
33381,64708,5
33385,64716,6
33377,64710,4
33376,64717,5
33375,64698,4
33381,64707,5
33381,64692,5
33374,64691,5
33378,64694,5
33376,64685,4
33369,64693,5
33375,64679,5
33371,64696,5
33366,64681,5
33367,64682,4
33364,64678,5
33358,64688,5
33352,64676,5
33358,64665,5
33350,64665,4
33351,64664,5
33352,64653,5
33348,64642,5
33341,64654,4
33340,64639,4
33341,64650,5
33352,64644,5
33348,64640,5
33343,64636,4
33342,64639,5
33344,64632,5
33340,64639,5
33343,64634,5
33332,64622,4
33336,64621,5
33333,64609,5
33326,64606,5
33312,64585,5
33303,64567,4
33294,64552,5
33279,64538,5
33281,64523,5
33275,64517,5
33280,64510,4
33263,64515,5
33274,64506,5
33276,64523,5
33276,64528,5
33285,64532,4
33290,64550,5
33296,64564,5
33302,64574,5
33317,64614,4
33334,64625,4
33341,64659,5
33356,64667,5
33364,64683,5
33373,64689,4
33363,64665,5
33349,64654,5
33354,64643,5
33345,64637,5
33341,64614,4
33329,64612,5
33330,64611,5
33330,64614,5
33337,64615,5
33334,64629,4
33339,64631,6
33340,64640,4
33344,64644,5
33357,64648,5
33354,64659,6
33356,64670,3
33364,64682,5
33365,64674,5
33376,64690,5
33375,64696,4
33384,64713,5
33378,64707,5
33388,64710,5
33392,64712,4
33386,64719,4
33397,64714,5
33387,64706,5
33390,64707,5
33381,64698,4
33380,64704,5
33387,64707,5
33378,64699,5
33375,64701,5
33381,64700,4
33381,64700,5
33386,64699,6
33384,64694,4
33375,64702,5
33379,64693,4
33383,64683,5
33372,64694,5
33372,64678,5
33370,64677,5
33373,64677,4
33364,64678,5
33368,64682,5
33367,64669,5
33356,64668,5
33362,64667,4
33366,64676,5
33359,64675,5
33360,64673,5
33366,64681,4
33367,64677,4
33369,64686,5
33365,64687,5
33378,64707,5
33387,64722,4
33393,64735,5
33390,64744,5
33428,64797,11
33428,64797,3
33441,64808,5
33441,64822,5
33450,64827,5
33450,64830,5
33453,64844,4
33459,64835,5
33463,64846,5
33464,64837,5
33456,64846,5
33460,64842,4
33463,64836,5
33458,64831,5
33455,64837,5
33462,64834,5
33455,64837,4
33445,64831,5
33444,64830,5
33446,64834,5
33447,64829,5
33451,64826,4
33438,64823,5
33444,64825,5
33446,64810,6
33442,64810,3
33438,64814,5
33439,64790,5
33425,64785,5
33418,64768,5
33407,64766,4
33402,64751,5
33397,64743,5
33384,64721,5
33377,64718,5
33384,64709,4
33385,64713,5
33374,64711,5
33387,64712,5
33391,64722,5
33395,64733,4
33399,64739,5
33406,64752,5
33413,64763,5
33415,64781,4
33420,64800,5
33436,64814,4
33444,64829,5
33454,64840,5
33464,64845,6
33445,64842,3
33440,64829,5
33429,64819,5
33427,64795,5
33421,64778,4
33423,64763,5
33407,64762,5
33407,64754,5
33406,64751,5
33405,64761,4
33411,64761,5
33417,64773,5
33422,64773,5
33419,64781,5
33430,64789,4
33435,64797,5
33436,64813,5
33450,64819,5
33454,64827,5
33456,64835,4
33457,64841,6
33453,64848,4
33461,64850,5
33463,64854,4
33465,64857,4
33470,64844,5
33473,64846,5
33458,64856,5
33464,64846,4
33461,64852,5
33464,64841,5
33460,64850,5
33459,64842,5
33456,64845,4
33467,64852,5
33464,64849,5
33455,64852,5
33462,64835,5
33457,64837,4
33460,64833,5
33456,64831,5
33456,64832,5
33456,64825,5
33451,64830,4
33456,64836,5
33447,64824,6
33449,64828,4
33449,64819,5
33439,64815,4
33442,64823,5
33445,64835,5
33450,64832,5
33454,64831,4
33457,64845,4
33470,64863,5
33482,64888,5
33490,64927,5
33526,64959,4
33522,64992,5
33553,65013,5
33563,65049,5
33578,65076,5
33591,65084,4
33600,65108,5
33602,65111,5
33603,65117,5
33605,65118,5
33608,65115,4
33603,65117,5
33602,65122,5
33610,65116,6
33608,65118,4
33609,65120,4
33609,65122,5
33609,65112,5
33599,65111,5
33601,65106,5
33601,65110,4
33596,65116,5
33600,65103,5
33591,65106,5
33585,65092,4
33589,65084,4
33582,65069,5
33585,65066,5
33579,65053,5
33566,65036,4
33548,65021,5
33548,65015,5
33545,65002,5
33529,64986,5
33514,64968,5
33519,64951,4
33507,64952,5
33507,64943,5
33509,64941,5
33507,64951,4
33511,64956,5
33514,64949,5
33520,64963,5
33518,64976,5
33526,64979,4
33538,65006,5
33549,65007,5
33550,65024,5
33556,65038,5
33560,65053,4
33569,65056,5
33564,65053,5
33558,65030,5
33553,65013,4
33539,65014,5
33533,64993,5
33524,64982,5
33519,64974,5
33527,64967,4
33528,64970,6
33528,64975,4
33522,64970,5
33525,64971,5
33533,64986,4
33536,64996,5
33541,64997,5
33542,65003,5
33554,65016,5
33552,65024,4
33552,65027,5
33560,65037,5
33567,65042,5
33566,65041,5
33561,65051,4
33562,65051,5
33571,65042,5
33561,65046,5
33564,65038,4
33571,65054,4
33580,65040,5
33563,65046,5
33567,65045,5
33563,65048,4
