RED,IR,EKG,TIME
33125,64028,184165
33118,64033,0
33128,64032,5
33193,65009,4
33200,65014,6
33196,65017,4
33199,65009,5
33202,65011,4
33202,65020,7
33204,65017,3
33201,65029,5
33211,65024,5
33204,65025,4
33201,65026,5
33207,65026,5
33203,65029,5
33209,65027,5
33203,65023,4
33197,65014,5
33195,65016,5
33190,65013,5
33187,65013,5
33192,65003,4
33180,65003,5
33183,64999,5
33182,64990,5
33189,64994,5
33184,64991,4
33182,64988,5
33182,64991,6
33177,64991,4
33178,64972,4
33164,64979,5
33170,64962,5
33158,64962,5
33150,64938,5
33149,64928,4
33135,64910,5
33123,64901,5
33115,64900,5
33119,64877,5
33108,64867,4
33108,64869,5
33104,64868,5
33108,64865,5
33107,64872,5
33114,64878,4
33115,64884,5
33122,64905,5
33126,64910,5
33137,64927,5
33144,64937,4
33155,64954,5
33163,64973,5
33173,64982,6
33173,64993,3
33174,64984,5
33164,64973,5
33156,64955,5
33154,64952,5
33152,64941,4
33148,64932,5
33143,64930,5
33145,64928,5
33141,64934,5
33149,64932,4
33141,64938,5
33142,64940,5
33144,64943,5
33155,64947,5
33156,64964,4
33152,64962,5
33159,64981,5
33166,64990,5
33171,64990,4
33181,65005,5
33179,65008,4
33178,65011,5
33184,65030,5
33186,65018,6
33174,65005,3
33189,65018,5
33187,65016,5
33195,65016,5
33179,65018,4
33184,65017,5
33189,65027,5
33193,65022,5
33191,65027,5
33187,65028,4
33195,65032,5
33199,65031,5
33201,65033,5
33183,65027,5
33184,65022,4
33187,65013,5
33190,65019,5
33181,65012,5
33184,65016,4
33188,65019,4
33184,65011,6
33185,65017,4
33191,65022,5
33195,65024,4
33175,65006,5
33173,65006,5
33169,65004,5
33178,65004,5
33179,65000,4
33178,65019,5
33190,65037,5
33200,65053,5
33202,65049,5
33210,65073,4
33207,65087,5
33219,65093,5
33233,65090,5
33223,65110,5
33233,65107,4
33229,65117,5
33230,65117,5
33231,65119,5
33238,65117,4
33235,65119,4
33224,65124,5
33239,65124,6
33235,65126,4
33232,65131,4
33235,65120,5
33240,65125,5
33227,65123,5
33239,65126,5
33240,65126,4
33236,65132,5
33232,65123,5
33237,65128,5
33241,65125,5
33232,65120,4
33235,65115,5
33231,65113,5
33231,65106,5
33219,65104,5
33216,65088,4
33212,65086,5
33206,65074,5
33208,65057,5
33193,65064,5
33197,65051,4
33199,65061,5
33190,65055,5
33194,65077,6
33206,65073,3
33213,65087,5
33215,65096,5
33217,65104,5
33234,65120,5
33232,65126,4
33236,65138,5
33240,65140,5
33246,65141,5
33234,65127,5
33225,65110,4
33217,65103,5
33218,65090,5
33208,65088,5
33206,65074,5
33213,65083,4
33214,65075,5
33212,65073,5
33213,65077,5
33211,65082,4
33213,65078,6
33215,65082,4
33209,65092,5
33213,65095,5
33217,65109,4
33216,65101,5
33233,65111,5
33229,65120,5
33231,65122,5
33237,65128,4
33244,65132,5
33244,65139,5
33245,65143,5
33246,65130,9
33247,65144,0
33248,65142,5
33239,65120,5
33247,65143,5
33254,65133,5
33243,65143,4
33239,65147,5
33242,65150,5
33241,65141,5
33247,65151,4
33247,65144,5
33251,65147,6
33242,65145,4
33246,65144,5
33246,65141,4
33246,65142,5
33245,65149,5
33249,65140,5
33251,65141,5
33245,65138,4
33247,65146,5
33247,65141,5
33239,65135,5
33234,65125,5
33240,65135,4
33246,65129,5
33236,65132,5
33238,65145,5
33239,65144,5
33247,65161,4
33252,65162,5
33253,65177,5
33257,65186,5
33265,65189,4
33275,65207,5
33282,65215,5
33278,65228,5
33289,65242,5
33301,65241,4
33295,65249,5
33302,65265,5
33311,65271,5
33315,65263,5
33310,65271,4
33313,65275,5
33323,65284,5
33318,65284,5
33313,65281,5
33329,65279,4
33323,65284,5
33322,65273,5
33321,65268,5
33318,65280,5
33319,65278,4
33306,65265,5
33308,65250,5
33302,65251,5
33306,65246,5
33284,65222,4
33281,65217,5
33279,65207,5
33273,65192,5
33283,65202,4
33265,65193,5
33281,65189,5
33268,65211,5
33279,65217,5
33285,65218,4
33291,65223,5
33299,65252,5
33308,65265,5
33321,65289,5
33331,65302,4
33327,65302,5
33335,65307,5
33320,65292,5
33319,65293,5
33323,65283,4
33315,65275,5
33320,65274,5
33320,65280,5
33315,65279,4
33320,65281,5
33319,65278,4
33321,65293,5
33321,65289,5
33324,65287,4
33338,65309,5
33341,65305,5
33351,65324,5
33344,65328,5
33349,65340,4
33354,65332,5
33358,65348,5
33353,65353,5
33369,65363,5
33375,65364,4
33378,65374,5
33369,65387,5
33383,65385,5
33384,65391,5
33387,65404,4
33390,65419,5
33403,65434,5
33412,65442,5
33413,65442,4
33426,65456,4
33437,65479,6
33442,65491,4
33434,65496,5
33437,65504,4
33439,65500,5
33441,65503,5
33442,65501,5
33444,65501,5
33434,65499,4
33433,65492,5
33429,65495,5
33433,65497,5
33430,65489,5
33439,65508,4
33447,65512,5
33449,65516,5
33449,65521,5
33459,65528,5
33453,65533,4
33443,65521,5
33446,65533,5
33456,65535,6
33469,65567,3
33468,64797,4
33478,64804,5
33489,64815,5
33487,64819,5
33491,64828,4
33492,64825,5
33489,64824,5
33477,64810,5
33485,64811,5
33482,64811,4
33481,64819,5
33487,64827,5
33480,64816,5
33482,64811,5
33491,64821,4
33496,64831,5
33493,64825,5
33485,64820,5
33489,64810,5
33489,64803,5
33483,64793,4
33480,64793,5
33468,64789,5
33466,64779,6
33472,64771,3
33455,64774,5
33454,64770,5
33456,64764,5
33452,64769,4
33456,64766,5
33470,64769,5
33465,64771,5
33459,64786,5
33465,64801,4
33468,64807,5
33477,64809,5
33476,64786,5
33456,64781,5
33453,64765,4
33456,64748,5
33441,64731,5
33439,64720,5
33436,64718,5
33428,64723,4
33430,64712,6
33429,64714,4
33429,64701,5
33429,64724,5
33427,64712,6
33441,64714,3
33435,64720,5
33436,64724,5
33447,64716,4
33440,64726,5
33443,64731,5
33445,64729,5
33454,64740,5
33449,64746,4
33449,64745,5
33464,64748,5
33460,64753,5
33458,64754,5
33458,64750,4
33464,64747,5
33451,64743,5
33445,64734,5
33449,64738,5
33452,64746,4
33458,64751,5
33462,64763,6
33465,64775,4
33466,64774,5
33469,64778,4
33463,64767,5
33458,64772,5
33459,64753,5
33460,64770,4
33460,64765,4
33468,64761,5
33461,64760,5
33457,64759,5
33447,64757,4
33449,64746,5
33449,64759,5
33459,64750,5
33447,64748,5
33443,64745,4
33448,64740,5
33440,64731,5
33437,64734,5
33432,64734,5
33451,64743,4
33438,64744,5
33442,64741,5
33445,64744,6
33446,64748,4
33437,64746,4
33436,64739,5
33456,64738,5
33443,64739,5
33443,64739,4
33441,64742,4
33449,64742,5
33441,64742,5
33437,64738,5
33442,64746,4
33440,64730,5
33446,64738,5
33429,64730,5
33431,64721,5
33433,64704,4
33419,64699,5
33411,64687,5
33408,64674,5
33399,64653,5
33382,64643,5
33382,64630,4
33372,64616,5
33372,64605,5
33365,64605,6
33369,64606,3
33360,64610,5
33369,64618,5
33364,64619,5
33373,64645,5
33384,64639,4
33385,64634,5
33370,64618,5
33369,64607,5
33367,64598,4
33352,64587,5
33354,64575,5
33347,64568,5
33342,64564,5
33340,64558,4
33342,64560,5
33341,64567,5
33337,64558,5
33340,64555,5
33331,64553,4
33342,64547,6
33343,64541,4
33329,64544,5
33335,64548,5
33335,64541,4
33331,64540,5
33335,64543,5
33330,64543,5
33336,64548,5
33337,64544,4
33341,64546,5
33328,64546,5
33336,64545,5
33329,64533,4
33336,64533,5
33329,64541,5
33329,64539,5
33331,64534,5
33336,64539,4
33330,64539,5
33337,64552,5
33344,64544,5
33335,64539,5
33336,64543,4
33332,64538,5
33336,64527,6
33335,64542,4
33329,64533,5
33334,64531,4
33331,64530,5
33333,64532,5
33324,64518,5
33329,64522,5
33319,64528,4
33318,64520,5
33317,64515,5
33311,64519,5
33322,64506,4
33307,64501,4
33308,64495,5
33304,64489,5
33313,64491,5
33304,64487,4
33303,64491,5
33303,64488,5
33304,64493,5
33306,64495,5
33308,64506,4
33303,64506,5
33319,64506,5
33308,64510,6
33314,64513,4
33317,64517,4
33317,64523,5
33324,64518,5
33332,64524,5
33323,64524,5
33321,64525,4
33331,64529,5
33322,64521,5
33330,64531,5
33327,64527,4
33322,64524,4
33323,64523,5
33330,64525,5
33328,64532,5
33323,64531,4
33335,64521,5
33325,64519,5
33317,64528,5
33325,64518,5
33317,64514,5
33313,64504,4
33314,64515,5
33321,64501,5
33313,64498,5
33306,64488,4
33297,64478,5
33287,64458,5
33272,64444,5
33267,64411,5
33249,64387,4
33238,64367,5
33228,64343,5
33221,64335,5
33214,64326,5
33209,64321,4
33219,64324,5
33216,64334,5
33222,64337,5
33216,64345,4
33228,64361,5
33246,64395,5
33255,64401,5
33268,64418,5
33274,64441,4
33282,64455,6
33291,64471,4
33292,64464,5
33286,64443,5
33280,64442,4
33284,64433,5
33269,64420,5
33257,64403,5
33263,64401,5
33258,64390,4
33253,64382,5
33243,64384,5
33248,64376,5
33253,64388,5
33244,64374,4
33251,64378,5
33243,64379,5
33255,64376,5
33251,64381,4
33247,64379,4
33244,64379,5
33258,64383,5
33246,64384,5
33254,64384,4
33246,64383,5
33250,64376,6
33251,64382,4
33249,64376,5
33248,64379,4
33254,64381,5
33252,64377,5
33257,64382,5
33250,64372,5
33250,64377,4
33246,64368,5
33243,64369,5
33252,64369,5
33252,64383,5
33251,64382,4
33255,64378,5
33251,64387,5
33252,64369,5
33249,64380,4
33244,64370,4
33249,64370,5
33237,64371,5
33251,64373,5
33243,64373,4
33248,64371,5
33233,64360,5
33238,64360,5
33243,64366,7
33234,64356,2
33230,64355,5
33234,64357,5
33240,64350,5
33237,64354,5
33234,64361,4
33228,64353,5
33229,64355,5
33228,64352,5
33231,64358,5
33232,64354,4
33234,64355,5
33234,64367,5
33239,64370,5
33243,64373,5
33244,64379,4
33249,64380,5
33247,64382,5
33244,64387,5
33248,64389,5
33245,64393,4
33255,64395,5
33252,64398,5
33257,64392,5
33262,64398,4
33257,64394,5
33266,64398,5
33256,64408,5
33264,64391,5
33254,64404,4
33252,64396,5
33258,64388,5
33247,64400,5
33249,64396,5
33256,64391,4
33250,64393,5
33254,64396,5
33254,64386,5
33255,64387,5
33250,64390,4
33240,64377,5
33237,64366,4
33229,64360,5
33230,64338,4
33213,64327,6
33201,64303,3
33199,64295,5
33192,64272,5
33188,64257,4
33175,64257,5
33176,64255,5
33170,64259,5
33178,64241,5
33182,64258,4
33168,64269,5
33182,64275,5
33189,64287,5
33210,64301,5
33210,64311,4
33211,64328,5
33229,64352,5
33237,64367,5
33246,64383,5
33252,64393,4
33244,64370,5
33231,64350,6
33226,64348,4
33226,64336,4
33221,64328,4
33213,64315,5
33207,64309,5
33207,64309,5
33211,64302,4
33205,64299,5
33206,64298,5
33212,64308,5
33214,64299,5
33200,64298,4
33204,64311,5
33205,64311,5
33212,64313,5
33207,64318,5
33219,64330,4
33212,64323,5
33221,64320,5
33219,64328,5
33210,64318,5
33216,64317,4
33212,64319,5
33215,64315,5
33210,64314,6
33208,64317,4
33207,64310,4
33209,64313,5
33223,64310,5
33212,64306,5
33216,64321,4
33212,64316,5
33211,64322,5
33217,64315,5
33214,64316,5
33210,64308,4
33215,64313,5
33217,64310,5
33211,64312,5
33208,64306,5
33205,64305,4
33206,64301,5
33207,64303,5
33195,64304,5
33205,64301,5
33202,64299,5
33199,64297,4
33194,64290,5
33201,64292,5
33199,64285,6
33207,64284,3
33197,64290,5
33203,64291,5
33202,64289,5
33206,64299,4
33200,64305,5
33212,64306,5
33219,64304,5
33217,64316,5
33216,64314,4
33222,64327,5
33220,64332,5
33227,64340,5
33225,64339,5
33232,64346,4
33226,64354,5
33232,64365,5
33237,64359,5
33243,64363,5
33240,64358,4
33234,64362,6
33241,64367,4
33245,64362,5
33242,64364,5
33237,64361,4
33238,64364,5
33241,64357,5
33228,64358,5
33232,64352,4
33230,64356,4
33234,64349,5
33226,64354,5
33229,64341,5
33224,64346,4
33222,64345,5
33226,64341,5
33221,64346,5
33227,64338,5
33224,64336,4
33221,64331,5
33221,64338,5
33221,64332,5
33224,64332,5
33217,64324,4
33215,64327,5
33214,64322,6
33220,64334,4
33209,64317,5
33210,64326,4
33215,64322,5
33210,64313,5
33208,64308,5
33203,64302,4
33196,64289,4
33187,64265,5
33180,64256,5
33169,64237,5
33165,64217,4
33144,64211,5
33141,64209,5
33148,64198,5
33148,64202,5
33141,64204,4
33151,64203,5
33143,64216,5
33165,64220,5
33160,64231,5
33168,64247,4
33180,64258,5
33195,64280,5
33195,64297,6
33201,64306,4
33205,64324,4
33212,64322,5
33205,64304,5
33189,64290,5
33188,64274,5
33179,64254,4
33184,64253,5
33173,64246,5
33168,64245,5
33178,64251,4
33183,64242,5
33176,64247,5
33172,64249,5
33173,64248,5
33184,64248,4
33182,64253,5
33181,64255,5
33176,64274,5
33191,64273,5
33190,64271,5
33195,64276,4
33190,64278,5
33192,64266,5
33195,64277,5
33194,64279,4
33195,64280,5
33199,64272,5
33197,64280,5
33195,64283,5
33192,64273,4
33194,64261,5
33187,64274,5
33188,64273,5
33199,64269,4
33194,64277,5
33182,64267,5
33189,64267,5
33187,64270,5
33189,64260,4
33179,64261,5
33181,64260,5
33175,64244,5
33186,64254,5
33176,64243,4
33164,64240,6
33169,64230,4
33164,64234,5
33160,64228,5
33159,64219,4
33163,64216,5
33157,64223,5
33153,64217,5
33150,64209,5
33156,64200,4
33151,64202,5
33148,64223,5
33156,64219,5
33162,64225,4
33161,64230,4
33173,64236,5
33170,64242,5
33175,64248,5
33178,64264,4
33177,64262,5
33185,64270,5
33194,64276,5
33194,64277,5
33186,64289,4
33199,64292,5
33197,64288,6
33208,64293,4
33206,64296,5
33201,64293,4
33201,64295,5
33205,64296,5
33198,64303,5
33194,64297,5
33195,64296,4
33199,64298,5
33201,64289,5
33201,64290,5
33199,64288,4
33199,64292,4
33189,64288,5
33194,64283,5
33191,64276,5
33183,64273,4
33191,64271,5
33187,64270,5
33187,64273,5
33184,64272,5
33188,64264,4
33183,64266,5
33188,64256,5
33183,64260,6
33178,64262,4
33182,64249,4
33166,64252,5
33177,64253,5
33178,64243,5
33176,64248,5
33162,64233,4
33166,64230,5
33158,64227,5
33146,64216,5
33146,64203,4
33146,64190,4
33130,64167,5
33136,64176,5
33129,64163,5
33118,64157,4
33119,64151,5
33109,64143,5
33115,64152,5
33117,64150,5
33126,64169,5
33129,64183,4
33136,64188,5
33136,64199,5
33140,64213,5
33158,64229,4
33166,64240,5
33177,64245,5
33176,64259,5
33182,64253,5
33166,64231,4
33153,64223,5
33158,64209,5
33155,64198,5
33147,64192,5
33138,64189,4
33139,64187,5
33138,64187,5
33141,64195,5
33150,64194,4
33150,64201,5
33158,64215,5
33157,64223,5
33172,64236,5
33163,64238,4
33178,64245,6
33178,64255,4
33183,64258,5
33184,64274,5
33188,64272,4
33196,64277,5
33194,64284,5
33191,64281,5
33190,64278,5
33192,64271,4
33189,64268,5
33196,64268,5
33197,64274,5
33190,64275,5
33200,64279,4
33189,64263,5
33190,64269,5
33192,64266,5
33180,64276,4
33191,64264,5
33183,64263,5
33189,64274,5
33186,64263,5
33184,64263,4
33185,64248,5
33177,64247,6
33184,64253,4
33181,64240,5
33179,64252,4
33171,64244,5
33177,64241,5
33171,64230,5
33174,64240,5
33171,64244,4
33167,64225,5
33171,64246,5
33181,64245,5
33173,64246,5
33172,64244,4
33173,64264,5
33182,64264,5
33181,64267,5
33192,64276,4
33192,64293,4
33202,64293,5
33208,64305,5
33206,64307,5
33220,64333,4
33220,64335,5
33220,64342,5
33226,64349,5
33240,64356,5
33239,64358,4
33246,64368,5
33247,64373,5
33239,64369,5
33247,64368,5
33245,64371,4
33249,64371,5
33251,64359,5
33242,64366,5
33246,64368,5
33238,64373,4
33238,64371,5
33242,64363,5
33242,64356,5
33238,64366,4
33235,64366,5
33241,64361,4
33232,64357,5
33232,64351,5
33231,64361,6
33229,64347,3
33230,64338,5
33219,64333,5
33218,64322,5
33216,64313,4
33203,64307,5
33200,64292,5
33193,64280,5
33188,64272,5
33181,64264,4
33181,64258,5
33171,64255,5
33180,64255,5
33182,64266,5
33187,64271,4
33190,64278,5
33196,64291,5
33200,64301,6
33211,64320,4
33220,64326,4
33226,64348,6
33227,64351,4
33234,64359,5
33228,64358,4
33226,64325,7
33213,64328,3
33206,64309,5
33194,64301,5
33198,64295,4
33205,64302,5
33206,64293,5
33194,64286,5
33208,64297,5
33200,64301,4
33206,64307,5
33211,64313,5
33211,64319,5
33228,64330,5
33231,64348,4
33231,64347,5
33239,64361,5
33242,64355,5
33246,64373,5
33250,64386,4
33258,64380,5
33249,64384,6
33257,64393,4
33251,64392,4
33261,64397,5
33252,64395,5
33260,64395,5
33249,64391,5
33256,64388,4
33253,64388,5
33258,64385,5
33258,64387,5
33259,64396,5
33263,64388,4
33250,64393,5
33247,64381,5
33255,64385,5
33245,64377,5
33248,64382,4
33242,64371,5
33241,64368,5
33248,64368,5
33238,64365,5
33241,64359,4
33228,64347,5
33235,64352,5
33232,64349,6
33231,64352,3
33227,64349,4
33230,64348,5
33231,64343,5
33230,64346,5
33236,64365,4
33231,64355,5
33246,64373,5
33236,64371,5
33265,64385,5
33255,64398,4
33267,64413,5
33258,64408,5
33267,64420,5
33282,64431,5
33289,64451,4
33294,64454,5
33298,64464,5
33299,64474,5
33302,64485,5
33305,64475,5
33307,64483,4
33312,64486,5
33312,64490,5
33314,64492,6
33310,64496,3
33310,64498,5
33318,64500,5
33316,64491,5
33308,64486,4
33316,64504,5
33312,64494,5
33313,64500,5
33309,64502,5
33309,64492,4
33313,64485,5
33310,64490,5
33311,64496,5
33299,64483,5
33297,64486,4
33303,64470,5
33291,64472,5
33283,64450,5
33270,64433,5
33264,64423,4
33262,64406,6
33253,64390,4
33242,64385,5
33235,64378,4
33241,64377,4
33237,64371,5
33239,64383,5
33239,64389,5
33250,64393,4
33257,64400,5
33268,64419,5
33276,64437,5
33285,64457,5
33294,64479,4
33311,64496,5
33323,64521,5
33322,64526,5
33324,64520,5
33321,64505,4
33313,64497,5
33304,64484,5
33304,64484,5
33307,64479,5
33306,64479,4
33307,64489,5
33304,64483,6
33309,64492,4
33315,64502,5
33324,64514,4
33326,64513,5
33326,64536,5
33339,64549,5
33345,64550,4
33354,64562,5
33354,64570,5
33353,64575,5
33362,64576,5
33354,64585,4
33355,64582,5
33365,64585,5
33370,64592,5
33374,64601,5
33370,64600,4
33376,64599,5
33367,64597,5
33361,64601,5
33372,64597,5
33375,64593,4
33373,64592,5
33374,64601,5
33369,64608,6
33368,64599,4
33371,64597,4
33361,64596,5
33377,64594,5
33371,64605,5
33368,64595,4
33365,64592,5
33374,64590,5
33356,64583,5
33357,64594,5
33359,64583,4
33360,64583,5
33357,64574,5
33348,64579,5
33353,64578,5
33348,64569,4
33351,64568,5
33358,64577,5
33352,64578,5
33363,64583,5
33365,64578,5
33359,64591,4
33370,64598,5
33367,64594,5
33372,64612,5
33382,64629,4
33386,64640,5
33397,64656,5
33406,64671,5
33413,64687,4
33415,64694,4
33422,64698,5
33430,64700,5
33426,64724,5
33436,64728,4
33441,64729,5
33438,64728,5
33441,64728,5
33436,64732,5
33437,64723,4
33441,64722,5
33429,64726,5
33426,64716,5
33426,64720,5
33432,64701,4
33413,64701,6
33419,64695,4
33426,64694,5
33421,64697,5
33414,64709,4
33430,64695,5
33419,64708,5
33421,64715,5
33426,64726,4
33440,64737,4
33445,64748,5
33443,64757,5
33455,64773,5
33462,64771,4
33465,64767,5
33454,64749,5
33440,64739,5
33447,64733,5
33431,64724,4
33434,64718,5
33433,64715,5
33434,64708,5
33428,64718,5
33435,64717,4
33429,64725,5
33431,64712,6
33429,64721,4
33434,64718,5
33435,64722,4
33431,64717,5
33442,64734,5
33446,64735,5
33448,64737,5
33449,64744,4
33448,64743,5
33442,64737,5
33452,64750,5
33453,64753,4
33458,64747,5
33447,64748,5
33450,64751,5
33449,64757,5
33451,64750,4
33441,64741,5
33444,64744,5
33451,64749,5
33448,64746,5
33449,64758,4
33449,64754,5
33439,64744,5
33448,64744,5
33446,64750,5
33441,64736,4
33441,64732,5
33438,64732,5
33445,64734,5
33438,64731,5
33436,64727,4
33443,64724,5
33424,64724,5
33427,64703,5
33426,64699,4
33424,64692,4
33414,64684,5
33418,64681,5
33406,64681,5
33399,64663,4
33400,64666,5
33398,64661,5
33392,64655,5
33396,64665,5
33398,64668,5
33393,64662,4
33399,64665,5
33388,64661,5
33399,64667,5
33400,64671,4
33399,64666,5
33406,64672,5
33404,64673,5
33408,64681,5
33395,64682,4
33401,64671,5
33397,64667,5
33401,64676,5
33387,64658,4
33379,64648,4
33381,64629,5
33378,64622,5
33365,64620,5
33362,64597,4
33352,64581,5
33343,64568,5
33335,64550,5
33337,64552,5
33328,64547,4
33332,64551,6
33334,64555,4
33339,64550,5
33334,64559,5
33335,64561,4
33335,64570,5
33343,64568,5
33345,64583,5
33350,64580,5
33340,64564,4
33343,64551,5
33331,64538,5
33324,64539,5
33329,64522,5
33321,64527,4
33326,64531,5
33325,64521,5
33316,64530,5
33315,64521,4
33320,64523,5
33325,64514,5
33319,64526,5
33319,64518,4
33322,64518,4
33317,64522,5
33330,64532,5
33323,64527,5
33328,64535,5
33326,64543,4
33327,64538,5
33333,64540,5
33328,64544,5
33327,64536,5
33326,64546,4
33337,64543,5
33333,64550,5
33340,64547,5
33339,64545,5
33330,64555,4
33337,64560,5
33342,64551,5
33347,64570,5
33342,64569,5
33345,64572,4
33351,64571,5
33344,64578,5
33340,64581,6
33353,64575,3
33354,64573,5
33344,64573,5
33351,64559,5
33341,64566,5
33349,64568,4
33344,64580,5
33359,64571,5
33351,64573,5
33345,64563,5
33338,64561,4
33339,64554,5
33335,64560,5
33337,64554,5
33338,64558,5
33340,64550,4
33322,64543,5
33325,64547,5
33340,64561,5
33333,64560,4
33336,64564,5
33333,64560,4
33332,64539,5
33325,64534,5
33318,64553,6
33323,64542,3
33329,64556,5
33332,64549,5
33329,64574,5
33336,64569,4
33347,64589,5
33336,64578,5
33336,64564,5
33335,64553,5
33334,64547,4
33320,64564,5
33331,64566,5
33339,64571,5
33327,64548,5
33323,64540,4
33301,64519,5
33287,64486,5
33281,64479,5
33286,64480,4
33272,64461,4
33261,64429,6
33247,64410,4
33238,64403,5
33233,64405,4
33232,64385,5
33212,64361,5
33198,64317,5
33173,64280,5
33164,64269,4
33158,64268,5
33167,64277,5
33176,64285,5
33184,64297,5
33184,64309,4
33194,64337,5
33200,64337,5
33207,64358,5
33223,64374,5
33229,64380,4
33228,64386,5
33228,64386,5
33228,64380,5
33228,64388,5
33233,64388,4
33232,64384,5
33219,64356,6
33204,64318,4
33191,64311,4
33196,64311,5
33196,64320,5
33206,64330,5
33205,64329,5
33208,64333,4
33191,64305,5
33182,64287,8
33167,64280,2
33176,64279,5
33211,64297,4
33193,64301,5
33203,64321,5
33201,64327,5
33217,64337,5
33215,64344,4
33224,64341,5
33227,64353,5
33228,64353,5
33219,64352,5
33217,64354,4
33234,64361,5
33238,64363,5
33230,64361,6
33232,64363,3
33225,64360,5
33220,64354,5
33223,64356,5
33220,64356,5
33223,64355,4
33218,64357,5
33221,64348,5
33217,64340,5
33220,64338,5
33228,64341,4
33214,64340,5
33220,64328,5
33208,64327,5
33210,64321,5
33208,64329,4
33210,64312,5
33198,64318,5
33206,64324,5
33199,64326,5
33207,64306,5
33202,64308,4
33193,64300,5
33196,64292,5
33190,64300,4
33191,64300,5
33200,64304,5
33200,64306,5
33201,64306,5
33207,64318,4
33211,64321,5
33211,64333,5
33227,64335,5
33225,64349,5
33233,64358,4
33237,64369,5
33232,64368,5
33239,64378,5
33245,64377,5
33240,64383,4
33231,64389,5
33247,64395,5
33250,64389,5
33250,64391,4
33243,64381,4
33249,64380,6
33251,64381,4
33241,64388,5
33252,64386,4
33252,64378,5
33245,64375,5
33244,64383,5
33252,64376,5
33241,64372,4
33240,64370,5
33246,64379,5
33253,64363,5
33237,64364,5
33244,64365,4
33224,64339,5
33233,64336,5
33225,64318,5
33202,64308,5
33192,64280,4
33178,64262,5
33174,64247,5
33156,64217,5
33148,64209,5
33143,64180,4
33134,64177,5
33140,64178,6
33137,64182,4
33142,64180,4
33151,64197,5
33143,64207,5
33155,64215,5
33167,64232,5
33179,64253,4
33185,64271,5
33190,64285,5
33210,64314,5
33219,64337,5
33221,64348,4
33217,64330,5
33214,64318,5
33207,64312,5
33200,64296,5
33193,64279,4
33192,64287,5
33193,64272,5
33185,64273,5
33189,64273,5
33189,64273,4
33179,64273,5
33182,64265,5
33191,64262,5
33185,64269,4
33188,64265,5
33188,64261,5
33193,64273,5
33201,64273,5
33188,64286,4
33197,64297,5
33198,64280,5
33200,64292,5
33202,64278,5
33201,64279,4
33195,64288,5
33197,64283,5
33200,64279,5
33198,64278,5
33191,64277,4
33184,64274,5
33187,64274,5
33197,64274,5
33191,64273,5
33200,64277,5
33197,64280,4
33199,64292,5
33197,64282,5
33193,64282,4
33203,64270,4
33195,64276,5
33190,64264,5
33188,64261,5
33183,64266,4
33189,64276,5
33189,64267,5
33183,64271,5
33186,64269,5
33184,64263,4
33181,64263,5
33184,64264,5
33179,64261,5
33174,64260,5
33177,64256,4
33187,64256,5
33183,64256,5
33178,64260,5
33187,64262,5
33184,64265,4
33188,64279,6
33189,64267,4
33184,64279,5
33199,64287,4
33191,64293,4
33199,64286,5
33200,64296,5
33205,64296,5
33205,64304,4
33207,64302,5
33206,64308,5
33208,64315,5
33213,64310,5
33213,64312,4
33218,64318,5
33219,64330,5
33221,64313,5
33218,64322,5
33212,64329,4
33218,64322,5
33216,64323,5
33206,64317,5
33212,64312,5
33217,64315,4
33210,64316,5
33214,64301,6
33217,64317,4
33211,64312,5
33214,64306,4
33200,64312,5
33209,64309,5
33209,64306,5
33209,64304,4
33201,64293,5
33205,64294,5
33205,64294,5
33193,64292,5
33204,64288,4
33197,64297,5
33196,64288,5
33189,64288,5
33193,64284,5
33199,64284,4
33185,64286,5
33183,64284,5
33198,64280,5
33181,64274,5
33177,64255,4
33175,64239,5
33162,64218,5
33148,64197,5
33139,64181,5
33135,64162,4
33122,64150,5
33113,64138,5
33110,64124,5
33121,64131,4
33113,64129,4
33111,64145,5
33114,64160,5
33126,64168,5
33138,64176,4
33135,64195,5
33152,64208,5
33162,64226,5
33180,64258,5
33189,64280,4
33200,64284,5
33197,64280,5
33182,64267,5
33180,64256,5
33171,64256,5
33174,64234,4
33163,64229,5
33159,64219,5
33153,64218,5
33158,64206,4
33148,64215,5
33157,64215,5
33167,64220,5
33154,64226,4
33159,64223,4
33164,64224,5
33169,64230,5
33168,64244,5
33174,64251,4
33175,64247,5
33177,64243,5
33176,64252,5
33172,64246,5
33169,64252,4
33186,64255,5
33177,64246,6
33178,64250,4
33181,64243,5
33170,64240,4
33172,64247,7
33180,64245,3
33169,64250,5
33166,64238,5
33170,64243,4
33163,64228,5
33162,64238,5
33170,64246,5
33173,64242,5
33176,64237,4
33172,64233,5
33165,64227,5
33165,64231,5
33161,64227,4
33167,64222,5
33161,64219,5
33155,64220,5
33150,64211,5
33148,64203,4
33151,64204,5
33144,64196,5
33145,64192,6
33139,64187,4
33138,64180,4
33146,64192,5
33132,64193,5
33145,64189,5
33143,64188,5
33150,64200,4
33146,64204,5
33153,64200,5
33158,64208,5
33161,64213,5
33168,64223,4
33170,64237,5
33169,64233,5
33176,64246,5
33175,64252,4
33190,64253,5
33178,64255,5
33178,64260,5
33189,64267,5
33189,64262,5
33195,64270,4
33187,64272,5
33187,64271,5
33195,64278,6
33194,64274,3
33192,64278,5
33197,64281,5
33193,64276,5
33191,64280,5
33196,64273,4
33200,64284,5
33189,64296,5
33195,64279,5
33196,64283,5
33193,64285,4
33198,64274,5
33181,64267,5
33185,64282,5
33192,64280,4
33190,64273,4
33195,64277,5
33199,64284,5
33195,64290,5
33201,64300,4
33196,64290,6
33202,64301,4
33196,64287,5
33196,64290,5
33203,64293,6
33199,64283,3
33194,64284,5
33201,64297,5
33196,64296,5
33202,64298,4
33206,64296,5
33199,64300,5
33194,64299,5
33199,64289,5
33186,64274,4
33182,64266,5
33175,64269,5
33170,64245,5
33153,64246,4
33160,64234,4
33158,64234,5
33162,64234,5
33147,64228,5
33158,64223,4
33160,64236,5
33160,64242,6
33173,64261,4
33178,64274,5
33188,64291,4
33200,64298,5
33216,64330,5
33233,64358,5
33235,64386,5
33256,64408,4
33260,64399,5
33241,64377,5
33235,64358,5
33219,64340,5
33212,64327,4
33208,64326,5
33210,64333,5
33219,64346,5
33225,64345,5
33220,64341,4
33226,64336,5
33214,64328,5
33218,64327,5
33211,64346,4
33217,64341,5
33229,64368,5
33228,64350,6
33220,64361,4
33230,64365,4
33229,64368,5
33234,64375,5
33227,64377,5
33234,64381,5
33238,64379,4
33227,64355,5
33234,64357,5
33228,64366,5
33229,64354,5
33230,64373,4
33228,64362,5
33230,64361,5
33227,64372,5
33230,64378,5
33230,64385,4
33230,64378,5
33231,64366,5
33227,64372,5
33236,64371,5
33232,64365,4
33223,64359,5
33219,64343,5
33217,64333,6
33208,64336,3
33207,64332,5
33204,64308,5
33194,64306,5
33207,64325,5
33193,64318,4
33202,64320,5
33197,64325,5
33203,64317,5
33194,64308,5
33192,64302,4
33191,64330,5
33208,64357,5
33222,64369,5
33233,64372,5
33226,64373,4
33219,64359,5
33211,64350,5
33227,64365,5
33230,64373,4
33248,64400,5
33245,64402,6
33246,64413,3
33249,64420,5
33272,64444,4
33280,64459,5
33287,64470,5
33281,64452,5
33273,64432,5
33268,64431,4
33261,64437,5
33264,64434,5
33261,64425,5
33262,64427,5
33258,64439,4
33271,64436,5
33267,64431,5
33265,64433,5
33264,64432,5
33256,64406,4
33255,64401,5
33239,64385,5
33228,64354,5
33223,64344,5
33218,64358,4
33225,64360,6
33222,64363,4
33236,64373,5
33236,64383,4
33246,64391,5
33252,64405,5
33264,64408,5
33253,64425,5
33266,64431,4
33277,64442,5
33282,64464,5
33288,64469,5
33299,64484,5
33291,64476,4
33281,64462,5
33274,64440,5
33272,64432,5
33267,64417,5
33262,64415,4
33268,64397,5
33255,64392,5
33250,64387,5
33248,64392,5
33253,64404,4
33261,64406,5
33258,64417,6
33268,64438,4
33285,64443,4
33284,64459,5
33297,64477,5
33308,64478,5
33310,64496,5
33315,64502,4
33320,64505,5
33318,64516,5
33326,64521,5
33324,64525,5
33332,64524,4
33325,64529,5
33341,64545,5
33332,64528,5
33336,64545,5
33336,64545,4
33348,64549,5
33351,64556,5
33351,64559,5
33363,64577,5
33357,64572,4
33360,64570,5
33362,64571,5
33359,64573,5
33354,64575,4
33361,64564,4
33355,64579,5
33362,64570,5
33349,64574,5
33359,64576,4
33346,64566,5
33360,64572,5
33355,64572,5
33348,64569,5
33355,64576,4
33346,64562,5
33354,64571,5
33351,64582,5
33362,64591,5
33358,64588,4
33375,64600,5
33377,64612,5
33391,64633,5
33381,64638,5
33394,64655,5
33404,64670,4
33398,64679,5
33404,64674,5
33420,64698,5
33422,64712,4
33428,64712,5
33425,64711,5
33426,64713,5
33432,64713,4
33430,64708,5
33426,64725,5
33427,64717,5
33432,64718,5
33439,64720,4
33434,64731,5
33430,64719,5
33426,64724,5
33436,64729,5
33427,64724,4
33431,64706,5
33419,64703,5
33417,64708,5
33407,64693,5
33403,64666,4
33399,64654,6
33381,64629,4
33365,64619,5
33363,64603,5
33360,64595,4
33350,64580,5
33350,64589,5
33346,64583,5
33362,64598,4
33360,64607,5
33360,64612,5
33374,64630,5
33382,64651,5
33387,64655,4
33411,64690,5
33410,64702,5
33416,64705,5
33410,64698,5
33416,64687,4
33402,64667,5
33395,64661,5
33390,64656,5
33388,64638,5
33378,64636,4
33387,64639,5
33384,64635,5
33387,64631,5
33381,64642,5
33382,64649,4
33395,64649,5
33390,64653,5
33393,64647,5
33393,64660,4
33396,64668,4
33400,64666,5
33401,64663,5
33408,64667,5
33408,64679,4
33414,64682,5
33402,64679,5
33415,64682,5
33413,64691,5
33426,64678,4
33418,64687,4
33411,64684,5
33423,64681,5
33415,64694,6
33420,64685,3
33410,64684,5
33416,64684,5
33418,64688,5
33423,64701,5
33415,64702,4
33421,64698,5
33426,64702,5
33422,64702,5
33425,64716,5
33416,64703,4
33425,64703,5
33417,64704,5
33426,64701,5
33411,64697,4
33425,64704,5
33416,64702,5
33418,64696,5
33413,64695,5
33416,64700,4
33418,64696,6
33415,64699,4
33406,64697,5
33418,64707,5
33423,64703,6
33430,64710,3
33423,64721,5
33430,64726,5
33441,64740,5
33441,64756,4
33447,64768,5
33458,64777,5
33465,64782,5
33473,64792,5
33475,64803,4
33479,64815,5
33476,64818,5
33485,64828,5
33486,64833,4
33493,64838,5
33495,64850,5
33490,64849,5
33488,64843,5
33497,64845,4
33488,64834,5
33488,64828,6
33478,64825,4
33487,64814,5
33483,64814,4
33475,64799,5
33467,64801,5
33465,64799,5
33479,64789,5
33471,64805,4
33469,64801,5
33474,64809,5
33480,64819,5
33472,64822,5
33484,64831,4
33486,64845,5
33499,64864,5
33508,64869,5
33512,64872,4
33513,64869,4
33504,64853,5
33500,64847,5
33493,64842,5
33488,64844,4
33487,64826,5
33485,64830,5
33482,64829,6
33476,64817,4
33472,64804,4
33471,64806,5
33467,64805,5
33471,64808,5
33470,64802,5
33471,64809,4
33474,64798,5
33480,64809,5
33472,64812,5
33480,64795,5
33468,64806,4
33482,64805,5
33467,64811,5
33479,64807,5
33474,64794,4
33470,64800,4
33472,64804,5
33469,64797,5
33467,64790,5
33467,64794,5
33468,64789,4
33461,64787,5
33459,64794,5
33462,64782,6
33475,64786,3
33470,64796,5
33474,64782,5
33455,64776,5
33463,64781,5
33450,64772,4
33455,64768,5
33448,64760,5
33452,64755,5
33449,64752,5
33449,64754,4
33439,64735,5
33438,64733,5
33435,64728,5
33425,64721,5
33420,64715,4
33416,64712,5
33414,64703,5
33410,64694,5
33408,64684,4
33397,64669,6
33397,64691,4
33388,64673,5
33395,64667,5
33387,64664,4
33389,64659,5
33388,64669,5
33391,64668,5
33396,64672,5
33401,64675,4
33398,64678,5
33403,64688,5
33405,64679,5
33407,64690,5
33405,64689,4
33408,64705,5
33409,64691,5
33409,64705,5
33411,64702,5
33410,64703,4
33418,64704,5
33415,64708,5
33414,64709,5
33419,64706,4
33415,64704,4
33414,64700,6
33407,64694,4
33399,64685,5
33395,64676,4
33386,64665,5
33377,64654,5
33373,64636,5
33363,64611,5
33356,64592,4
33336,64575,5
33331,64557,5
33321,64547,5
33322,64541,5
33313,64542,4
33324,64547,5
33327,64551,5
33325,64557,5
33331,64570,5
33331,64564,4
33341,64585,5
33340,64596,5
33353,64612,5
33360,64631,4
33376,64653,4
33389,64679,5
33386,64676,6
33382,64660,4
33370,64632,4
33372,64628,5
33371,64629,5
33360,64614,5
33361,64606,5
33351,64600,4
33358,64599,5
33349,64580,5
33348,64580,5
33344,64580,5
33336,64574,4
33339,64568,5
33335,64564,5
33331,64558,5
33328,64546,5
33330,64547,4
33322,64549,5
33332,64546,5
33332,64553,5
33325,64552,5
33329,64542,4
33337,64544,5
33326,64540,5
33320,64533,6
33326,64532,3
33321,64525,5
33316,64513,5
33318,64506,5
33304,64504,5
33307,64490,4
33294,64493,5
33308,64500,5
33299,64490,5
33292,64489,5
33293,64485,4
33293,64476,5
33301,64487,5
33297,64467,5
33281,64464,5
33282,64463,4
33281,64457,5
33292,64456,5
33299,64455,5
33282,64459,5
33285,64459,5
33280,64453,4
33291,64457,5
33284,64454,5
33279,64455,4
33274,64454,4
33280,64450,5
33274,64440,5
33276,64444,5
33281,64446,4
33277,64443,5
33273,64438,5
33269,64437,5
33269,64449,5
33286,64446,4
33272,64447,5
33287,64453,5
33286,64459,5
33292,64459,5
33290,64470,4
33287,64476,5
33297,64468,5
33309,64479,5
33305,64489,5
33302,64503,4
33306,64502,6
33315,64512,4
33317,64514,5
33321,64518,4
33323,64522,4
33320,64525,5
33318,64512,5
33321,64521,5
33322,64522,4
33316,64526,5
33321,64519,5
33326,64528,5
33321,64526,5
33321,64524,8
33321,64513,1
33311,64503,5
33289,64490,5
33304,64477,5
33291,64471,4
33284,64447,5
33268,64439,5
33265,64422,5
33254,64392,5
33243,64384,4
33233,64367,5
33232,64359,6
33223,64352,4
33229,64346,5
33224,64344,4
33230,64350,5
33229,64355,5
33236,64376,5
33246,64394,4
33245,64399,5
33256,64414,5
33271,64437,5
33285,64453,5
33299,64486,4
33304,64488,5
33307,64494,5
33310,64482,5
33287,64461,5
33279,64457,4
33284,64451,5
33274,64429,5
33263,64414,5
33264,64404,5
33260,64410,4
33252,64401,5
33259,64390,5
33259,64398,5
33256,64401,5
33248,64397,4
33251,64396,5
33248,64388,5
33259,64405,5
33247,64392,4
33247,64399,4
33255,64390,5
33253,64404,5
33260,64397,5
33257,64395,4
33253,64388,5
33250,64394,5
33253,64399,5
33253,64392,5
33260,64386,4
33257,64391,5
33260,64388,5
33264,64384,5
33245,64379,5
33251,64388,5
33252,64383,4
33253,64387,5
33246,64381,5
33251,64381,5
33244,64389,4
33249,64388,5
33244,64379,5
33250,64383,5
33246,64371,5
33240,64380,4
33248,64380,5
33249,64370,5
33241,64374,5
33233,64372,4
33237,64372,5
33247,64360,5
33232,64361,5
33235,64359,5
33227,64356,4
33230,64359,5
33233,64358,5
33240,64361,5
33228,64360,5
33233,64362,4
33238,64372,6
33244,64367,4
33237,64375,5
33237,64373,5
33239,64375,4
33254,64385,5
33252,64394,5
33240,64390,5
33257,64401,5
33253,64399,4
33256,64410,5
33266,64420,5
33269,64418,5
33277,64422,4
33275,64427,4
33271,64431,5
33279,64439,5
33278,64431,5
33283,64437,4
33278,64452,5
33288,64438,5
33275,64443,6
33281,64450,4
33285,64447,4
33285,64444,5
33274,64438,5
33280,64447,5
33282,64444,5
33285,64450,4
33294,64456,5
33288,64447,5
33276,64451,5
33283,64449,5
33281,64451,4
33270,64445,5
33276,64437,5
33279,64438,5
33286,64430,4
33274,64431,4
33268,64434,5
33275,64431,5
33274,64438,5
33270,64427,5
33265,64421,4
33267,64422,5
33263,64416,5
33265,64416,6
33260,64414,3
33267,64418,5
33267,64416,5
33266,64410,5
33259,64413,5
33267,64419,4
33264,64417,5
33255,64412,5
33255,64411,5
33264,64417,5
33252,64396,4
33247,64394,5
33246,64381,5
33236,64361,5
33217,64339,5
33213,64314,4
33198,64296,5
33177,64276,5
33171,64261,5
33168,64245,4
33163,64220,6
33155,64219,4
33154,64226,5
33148,64222,5
33147,64220,6
33162,64240,3
33173,64242,5
33175,64252,5
33186,64276,5
33199,64290,4
33206,64318,5
33224,64339,5
33230,64346,5
33233,64358,5
33224,64348,4
33213,64336,5
33215,64322,5
33208,64311,5
33202,64295,5
33193,64289,4
33187,64291,5
33190,64281,5
33191,64279,5
33198,64286,4
33195,64286,4
33192,64290,6
33201,64291,4
33198,64299,5
33196,64297,4
33205,64301,5
33203,64305,5
33205,64302,5
33208,64301,5
33204,64304,4
33210,64306,5
33213,64309,5
33214,64302,5
33210,64308,5
33205,64309,4
33211,64299,5
33209,64310,5
33198,64311,5
33199,64300,5
33199,64307,4
33206,64300,5
33206,64293,5
33201,64290,5
33198,64289,5
33200,64291,4
33202,64285,5
33193,64294,6
33199,64282,4
33190,64287,4
33188,64283,5
33197,64277,5
33199,64281,5
33197,64263,5
33185,64255,4
33178,64250,5
33164,64251,5
33175,64236,5
33173,64232,5
33176,64240,4
33172,64237,5
33167,64240,5
33168,64235,5
33175,64234,5
33169,64232,4
33164,64236,5
33164,64235,5
33165,64240,5
33176,64244,5
33170,64243,4
33177,64257,5
33182,64264,5
33190,64269,5
33192,64267,4
33188,64274,4
33198,64284,5
33203,64288,5
33197,64300,5
33209,64304,4
33199,64299,5
33211,64307,5
33205,64303,5
33203,64315,5
33201,64309,4
33213,64305,5
33206,64315,5
33209,64309,5
33203,64304,5
33216,64309,4
33207,64305,5
33207,64303,5
33202,64294,5
33202,64284,5
33200,64287,5
33204,64287,4
33201,64285,5
33191,64272,5
33187,64277,4
33189,64279,4
33191,64277,5
33188,64281,5
33191,64275,5
33190,64274,4
33185,64276,5
33188,64284,5
33184,64272,5
33187,64267,5
33178,64266,4
33185,64275,5
33185,64255,5
33183,64260,5
33187,64263,5
33178,64263,4
33181,64272,5
33173,64264,5
33182,64268,5
33175,64256,5
33179,64271,4
33184,64260,6
33185,64260,4
33176,64263,5
33185,64260,5
33184,64268,4
33182,64262,5
33169,64259,5
33174,64252,5
33167,64243,4
33163,64222,5
33151,64202,5
33138,64198,5
33130,64182,5
33125,64168,4
33120,64162,5
33125,64153,5
33114,64144,5
33119,64142,5
33106,64143,4
33118,64143,5
33125,64164,5
33131,64171,5
33137,64185,5
33137,64190,4
33147,64211,5
33162,64232,6
33163,64246,4
33173,64258,5
33169,64270,4
33181,64274,5
33177,64249,5
33168,64235,5
33166,64232,4
33152,64221,5
33157,64213,5
33151,64211,5
33159,64218,5
33153,64227,4
33164,64236,5
33166,64239,5
33180,64249,5
33180,64257,5
33189,64278,4
33191,64287,5
33198,64295,5
33205,64298,5
33209,64311,5
33217,64324,4
33221,64328,5
33222,64329,5
33229,64346,5
33240,64352,5
33234,64353,4
33229,64351,5
33235,64359,5
33237,64359,5
33240,64361,4
33228,64356,5
33233,64364,5
33232,64349,5
33236,64350,5
33224,64363,4
33227,64348,5
33240,64350,5
33237,64354,5
33239,64354,5
33239,64351,4
33229,64343,5
33236,64351,5
33226,64343,5
33229,64339,5
33233,64344,5
33232,64340,4
33223,64338,5
33229,64332,5
33225,64337,5
33222,64334,4
33220,64329,5
33209,64330,5
33219,64333,5
33218,64339,4
33216,64332,5
33219,64339,5
33214,64333,5
33221,64346,5
33232,64346,4
33230,64361,5
33232,64369,5
33236,64374,5
33244,64380,5
33257,64392,4
33271,64410,5
33265,64416,5
33276,64429,5
33269,64441,5
33296,64459,4
33297,64458,6
33288,64471,4
33295,64476,5
33305,64477,5
33299,64479,4
33304,64496,5
33313,64493,5
33315,64494,5
33306,64494,4
33307,64496,4
33313,64496,5
33307,64485,5
33305,64490,5
33305,64490,4
33307,64492,5
33296,64483,5
33304,64476,5
33293,64472,5
33293,64458,4
33290,64445,5
33281,64443,5
33274,64438,5
33271,64420,5
33265,64417,4
33264,64414,5
33268,64405,5
33265,64410,5
33263,64421,5
33265,64417,4
33269,64430,5
33271,64444,5
33284,64449,5
33284,64450,4
33280,64467,4
33293,64478,5
33303,64497,5
33307,64493,5
33303,64483,4
33297,64469,5
33285,64449,5
33282,64449,5
33274,64439,5
33271,64429,4
33270,64426,5
33271,64425,5
33271,64431,5
33276,64436,5
33286,64439,4
33285,64447,5
33287,64459,5
33286,64470,5
33292,64477,7
33307,64489,2
33311,64487,5
33312,64509,5
33320,64507,5
33327,64524,4
33332,64523,4
33334,64530,5
33327,64532,5
33336,64539,5
33345,64536,4
33342,64546,5
33332,64543,5
33336,64552,5
33336,64546,5
33340,64545,4
33348,64555,6
33334,64545,4
33337,64550,5
33351,64554,5
33346,64556,6
33334,64555,3
33346,64552,5
33337,64543,5
33336,64543,5
33339,64533,4
33330,64539,5
33334,64531,5
33331,64528,5
33329,64521,4
33330,64523,4
33324,64526,5
33326,64519,5
33324,64519,5
33314,64505,4
33314,64507,5
33309,64521,5
33320,64516,5
33325,64520,5
33325,64524,4
33325,64533,5
33332,64545,6
33341,64560,4
33345,64570,5
33351,64582,4
33366,64607,5
33366,64603,5
33370,64619,5
33379,64630,5
33392,64641,4
33391,64648,5
33396,64655,5
33397,64664,5
33401,64670,4
33409,64676,4
33413,64671,5
33408,64690,5
33413,64682,5
33415,64682,4
33408,64679,5
33414,64682,5
33408,64672,5
33407,64657,5
33389,64661,4
33399,64656,5
33388,64639,5
33377,64635,6
33381,64633,4
33367,64623,4
33377,64622,5
33381,64628,5
33376,64627,5
33377,64636,5
33375,64646,4
33388,64646,5
33386,64644,5
33387,64653,5
33397,64671,4
33412,64674,4
33410,64686,5
33414,64681,5
33404,64688,5
33398,64659,4
33390,64661,5
33384,64650,5
33396,64640,5
33380,64639,5
33382,64643,5
33378,64636,4
33396,64638,5
33387,64642,5
33386,64647,6
33395,64660,3
33406,64661,5
33399,64673,5
33409,64684,5
33406,64679,5
33421,64694,4
33422,64712,5
33429,64718,5
33431,64724,5
33445,64731,4
33448,64742,4
33453,64750,5
33453,64754,5
33451,64749,5
33454,64767,4
33451,64768,5
33452,64765,5
33456,64767,5
33462,64774,5
33469,64772,4
33474,64787,6
33470,64797,4
33471,64795,5
33478,64797,5
33470,64793,6
33476,64803,3
33476,64795,5
33475,64797,5
33474,64791,5
33476,64803,4
33476,64802,5
33471,64797,5
33471,64796,5
33468,64793,4
33464,64786,4
33470,64792,5
33470,64791,5
33468,64804,5
33473,64811,4
33466,64804,5
33473,64811,5
33480,64815,5
33482,64831,5
33483,64835,4
33497,64855,5
33502,64863,6
33511,64874,4
33511,64886,5
33522,64891,4
33521,64901,5
33537,64912,5
33538,64932,5
33549,64945,5
33557,64957,4
33564,64983,5
33570,64988,5
33588,65010,5
33584,65012,4
33584,65012,4
33591,65007,5
33581,65000,5
33577,64996,5
33569,64991,4
33573,64983,5
33575,64979,5
33560,64980,5
33565,64964,5
33557,64975,4
33552,64958,5
33553,64954,5
33552,64950,6
33557,64962,4
33554,64959,4
33553,64976,5
33572,64981,5
33570,64998,5
33577,65002,5
33587,65023,4
33590,65034,5
33597,65034,5
33585,65029,5
33584,65015,4
33573,64999,4
33574,65001,5
33567,64981,5
33560,64977,5
33566,64972,4
33560,64956,5
33558,64951,5
33553,64962,5
33545,64949,5
33541,64935,5
33548,64930,4
33533,64925,5
33529,64918,5
33524,64905,5
33526,64908,4
33530,64910,5
33521,64906,5
33527,64906,5
33528,64902,5
33526,64893,4
33514,64900,5
33516,64891,5
33510,64884,5
33512,64868,5
33501,64864,4
33494,64861,5
33495,64852,5
33494,64850,5
33494,64847,4
33492,64838,5
33487,64842,5
33493,64846,5
33490,64846,5
33494,64834,4
33482,64828,6
33486,64829,4
33474,64830,5
33484,64825,5
33478,64819,4
33474,64806,5
33459,64808,5
33467,64797,5
33463,64784,5
33453,64782,4
33437,64777,5
33450,64766,5
33431,64761,5
33436,64748,5
33435,64739,4
33425,64726,5
33420,64717,5
33413,64713,5
33421,64701,4
33415,64699,5
33411,64701,5
33411,64699,5
33407,64700,5
33400,64700,4
33407,64694,5
33409,64699,6
33412,64696,4
33407,64699,5
33414,64712,4
33418,64712,5
33411,64712,5
33423,64707,5
33419,64711,5
33421,64713,4
33408,64709,5
33421,64717,5
33416,64717,5
33410,64712,5
33423,64698,4
33407,64688,5
33400,64676,5
33402,64662,5
33377,64653,4
33372,64623,4
33354,64623,5
33345,64595,5
33340,64579,5
33333,64563,4
33337,64558,5
33326,64558,5
33330,64572,6
33335,64554,4
33335,64568,4
33341,64569,5
33341,64596,5
33347,64602,5
33363,64624,5
33370,64634,4
33372,64646,5
33375,64636,5
33357,64612,5
33354,64613,5
33353,64601,4
33357,64593,5
33349,64575,5
33346,64574,5
33341,64570,4
33341,64579,4
33345,64575,5
33339,64573,5
33337,64567,5
33334,64568,5
33329,64563,4
33336,64560,5
33337,64563,5
33334,64567,5
33329,64561,4
33341,64567,5
33338,64562,5
33338,64562,5
33340,64571,5
33345,64565,4
33337,64572,5
33332,64561,5
33343,64568,5
33343,64569,5
33333,64569,4
33342,64564,5
33333,64564,5
33337,64563,5
33334,64565,5
33341,64556,4
33337,64559,5
33343,64572,5
33335,64570,5
33336,64565,4
33332,64562,6
33341,64550,4
33336,64560,5
33337,64553,5
33332,64548,4
33332,64552,5
33332,64544,5
33331,64539,5
33328,64547,5
33332,64545,4
33328,64545,5
33320,64538,5
33324,64535,5
33325,64534,5
33322,64529,4
33316,64519,5
33321,64521,5
33314,64522,5
33311,64530,5
33312,64528,4
33312,64518,5
33318,64523,5
33321,64531,5
33323,64529,4
33319,64530,4
33316,64533,6
33316,64546,4
33325,64539,5
33324,64540,4
33330,64548,5
33326,64551,5
33328,64558,5
33331,64561,5
33336,64557,4
33333,64557,5
33335,64566,5
33333,64571,5
33340,64569,5
33341,64574,4
33342,64574,5
33334,64570,5
33342,64576,5
33341,64573,5
33336,64567,4
33337,64573,5
33342,64570,5
33337,64570,5
33338,64578,5
33343,64568,4
33343,64577,5
33334,64568,5
33332,64559,5
33330,64548,4
33320,64544,5
33321,64521,5
33308,64519,5
33306,64500,5
33279,64477,4
33274,64447,5
33258,64425,5
33249,64396,5
33234,64396,5
33231,64381,4
33244,64391,5
33237,64385,5
33247,64402,5
33249,64409,5
33267,64414,5
33262,64433,4
33271,64451,5
33282,64470,5
33300,64481,6
33305,64510,3
33323,64538,5
33335,64555,5
33339,64565,5
33337,64563,4
33321,64545,5
33317,64534,5
33305,64513,5
33310,64497,5
33295,64494,4
33293,64482,5
33286,64470,5
33289,64471,5
33285,64470,5
33293,64469,4
33289,64467,5
33291,64463,5
33282,64459,5
33284,64462,5
33278,64462,4
33282,64460,6
33283,64462,4
33283,64464,5
33287,64469,5
33276,64459,6
33287,64453,3
33287,64470,5
33293,64474,5
33288,64462,4
33285,64461,4
33289,64466,5
33282,64455,5
33278,64458,5
33274,64463,4
33288,64461,5
33286,64458,5
33282,64461,5
33277,64448,5
33289,64454,4
33283,64464,5
33277,64460,5
33281,64453,10
33281,64462,4
33274,64461,5
33276,64442,6
33273,64466,4
33269,64449,5
33275,64455,4
33280,64434,5
33272,64447,5
33264,64446,5
33270,64441,5
33267,64432,4
33267,64430,5
33266,64433,5
33259,64425,5
33260,64420,4
33260,64423,5
33258,64421,5
33253,64419,5
33263,64426,5
33262,64432,4
33266,64429,5
33267,64432,5
33264,64434,5
33271,64443,5
33271,64445,4
33269,64446,5
33272,64452,5
33276,64467,6
33283,64454,4
33276,64476,4
33278,64468,5
33284,64472,5
33285,64474,5
33295,64484,5
33300,64477,4
33290,64479,5
33295,64487,5
33300,64482,5
33296,64482,4
33297,64497,4
33298,64492,5
33296,64493,5
33296,64492,5
33303,64494,4
33299,64489,5
33296,64491,5
33293,64483,5
33290,64486,5
33289,64487,5
33298,64484,4
33289,64484,5
33289,64481,5
33297,64484,6
33298,64482,3
33294,64479,5
33294,64480,5
33289,64474,5
33279,64471,5
33280,64478,4
33284,64472,5
33290,64462,5
33285,64479,5
33289,64479,4
33290,64469,4
33291,64469,5
33288,64473,5
33285,64466,5
33294,64470,4
33293,64461,5
33277,64472,5
33290,64470,5
33288,64458,5
33281,64469,4
33279,64460,6
33284,64472,4
33282,64454,5
33275,64454,5
33284,64451,4
33268,64443,5
33260,64428,5
33255,64417,5
33243,64388,5
33221,64366,4
33213,64348,5
33209,64321,5
33195,64301,5
33179,64285,5
33182,64265,4
33181,64276,5
33185,64276,5
33189,64284,5
33183,64283,4
33183,64299,5
33200,64305,5
33216,64325,5
33214,64354,5
33217,64363,4
33246,64392,5
33261,64423,6
33259,64438,4
33267,64439,5
33260,64432,4
33259,64412,5
33254,64405,5
33252,64386,5
33227,64378,5
33232,64364,4
33230,64356,5
33221,64356,5
33227,64356,5
33218,64345,5
33223,64351,4
33220,64356,5
33226,64354,5
33238,64353,5
33233,64367,4
33235,64366,5
33230,64381,5
33242,64383,5
33248,64374,5
33238,64382,4
33248,64390,5
33235,64393,5
33235,64388,6
33244,64384,4
33241,64385,4
33255,64392,5
33241,64387,5
33240,64373,5
33244,64379,5
33239,64376,4
33244,64383,5
33244,64383,5
33238,64382,5
33243,64382,5
33239,64375,4
33242,64385,5
33243,64380,5
33243,64370,5
33240,64365,4
33229,64365,4
33239,64374,5
33236,64359,5
33238,64364,5
33230,64344,5
33226,64355,4
33232,64354,5
33225,64352,5
33229,64343,5
33223,64346,4
33220,64343,5
33215,64339,5
33214,64338,5
33210,64341,5
33224,64334,4
33214,64344,5
33208,64348,5
33231,64343,5
33215,64346,5
33225,64354,4
33223,64355,5
33226,64366,5
33237,64378,5
33234,64368,4
33228,64373,4
33239,64386,5
33255,64391,5
33238,64390,5
33254,64396,4
33253,64401,6
33253,64408,4
33247,64402,5
33255,64411,5
33255,64419,4
33256,64404,5
33261,64412,5
33260,64400,5
33254,64419,5
33251,64408,4
33256,64407,5
33250,64407,5
33256,64399,5
33251,64402,5
33253,64394,4
33240,64399,5
33249,64392,5
33233,64387,5
33231,64383,5
33230,64383,4
33235,64391,5
33232,64367,5
33238,64380,5
33228,64369,4
33227,64367,5
33227,64371,6
33233,64366,4
33227,64354,5
33217,64360,4
33220,64365,5
33218,64360,5
33225,64363,5
33223,64350,5
33217,64352,4
33216,64340,5
33218,64328,5
33209,64319,5
33199,64305,5
33192,64297,4
33182,64272,5
33164,64258,5
33170,64244,5
33153,64232,5
33146,64219,4
33144,64212,5
33142,64201,5
33136,64207,5
33140,64206,4
33145,64206,4
33144,64215,5
33148,64216,5
33155,64238,5
33161,64245,4
33168,64254,5
33164,64264,5
33178,64288,5
33194,64302,5
33197,64319,4
33201,64323,5
33196,64301,5
33195,64279,5
33176,64275,5
33185,64262,4
33171,64256,5
33164,64247,5
33172,64244,5
33170,64239,5
33164,64244,4
33160,64249,5
33165,64251,5
33178,64256,5
33179,64260,5
33185,64275,4
33190,64297,5
33185,64295,5
33201,64305,5
33205,64307,4
33203,64317,5
33210,64315,5
33206,64327,5
33207,64326,5
33207,64323,4
33209,64322,5
33210,64320,5
33215,64327,5
33211,64322,5
33210,64313,4
33214,64318,5
33209,64318,5
33201,64310,5
33205,64324,5
33205,64312,4
33211,64320,5
33210,64330,5
33202,64324,5
33204,64316,5
33204,64308,5
33210,64310,4
33199,64306,5
33195,64298,5
33194,64303,4
33200,64296,4
33199,64295,5
33193,64287,5
33188,64288,5
33192,64282,4
33180,64279,5
33190,64275,5
33180,64279,5
33186,64285,5
33182,64283,4
33184,64289,5
33198,64290,5
33193,64301,5
33198,64304,5
33192,64313,4
33200,64326,5
33216,64330,6
33223,64342,4
33220,64361,5
33230,64369,4
33236,64378,7
33244,64389,3
33245,64393,5
33253,64416,5
33265,64415,4
33255,64416,5
33261,64417,5
33259,64422,5
33263,64420,4
33263,64426,5
33267,64423,5
33266,64425,5
33256,64426,5
33258,64424,4
33263,64428,5
33263,64424,5
33256,64419,5
33257,64425,5
33251,64413,4
33259,64412,5
33253,64414,5
33258,64404,6
33248,64400,4
33260,64402,4
33243,64388,5
33239,64391,5
33238,64366,5
33229,64358,5
33226,64347,4
33212,64325,5
33201,64321,5
33200,64314,5
33206,64307,4
33190,64300,4
33190,64296,5
33188,64307,5
33189,64303,5
33204,64306,4
33203,64317,5
33205,64324,5
33217,64339,5
33214,64354,5
33228,64372,5
33238,64371,4
33235,64387,5
33246,64396,5
33239,64383,6
33230,64369,3
33229,64362,5
33221,64353,5
33224,64331,5
33212,64335,5
33214,64333,4
33213,64337,5
33214,64328,5
33215,64340,5
33218,64341,4
33221,64360,4
33227,64361,5
33233,64367,5
33238,64384,5
33238,64393,4
33249,64395,5
33256,64410,5
33263,64417,5
33260,64416,5
33261,64433,4
33271,64439,6
33274,64438,4
33271,64432,5
33269,64434,5
33265,64431,6
33269,64434,3
33271,64425,5
33262,64427,5
33271,64436,5
33264,64433,4
33272,64434,5
33272,64431,5
33264,64438,5
33261,64421,5
33269,64435,4
33270,64427,5
33266,64420,5
33251,64415,5
33264,64414,4
33260,64410,5
33247,64411,5
33252,64395,5
33250,64394,5
33242,64397,4
33246,64389,5
33240,64379,6
33237,64386,4
33237,64386,5
33236,64378,4
33241,64388,5
33233,64390,5
33241,64390,5
33244,64399,5
33249,64411,4
33260,64413,5
33260,64423,5
33274,64440,5
33270,64448,5
33282,64453,4
33288,64458,5
33283,64486,5
33295,64493,5
33306,64498,4
33315,64512,4
33318,64512,5
33321,64521,5
33317,64533,5
33322,64534,4
33324,64535,5
33330,64542,5
33323,64542,6
33329,64555,4
33332,64538,4
33327,64547,5
33318,64550,5
33332,64539,5
33320,64543,5
33328,64541,4
33327,64542,5
33329,64531,8
33325,64532,2
33319,64522,5
33317,64528,4
33339,64520,5
33313,64515,5
33309,64510,5
33310,64500,4
33292,64494,4
33293,64486,5
33288,64465,5
33277,64441,5
33269,64428,5
33259,64416,4
33249,64407,5
33243,64390,5
33244,64380,6
33230,64379,3
33239,64367,5
33230,64378,5
33238,64380,5
33248,64389,5
33244,64405,4
33257,64426,5
33260,64425,5
33266,64438,5
33275,64455,5
33289,64482,4
33288,64499,5
33289,64487,5
33289,64487,5
33290,64462,5
33280,64457,4
33275,64447,5
33276,64438,5
33264,64440,5
33271,64438,4
33265,64441,6
33264,64439,4
33266,64442,5
33272,64448,5
33275,64452,4
33279,64458,5
33286,64463,5
33289,64469,5
33296,64484,5
33297,64491,4
33305,64509,5
33312,64512,5
33316,64517,5
33317,64523,5
33320,64525,4
33322,64536,5
33313,64528,5
33313,64525,5
33321,64525,5
33318,64524,4
33318,64516,5
33314,64513,5
33310,64517,5
33317,64509,4
33311,64506,4
33308,64509,6
33318,64512,4
33317,64511,5
33318,64500,4
33298,64490,5
33304,64484,5
33299,64476,5
33300,64476,5
33285,64465,4
33287,64467,5
33283,64451,5
33279,64443,5
33274,64436,5
33271,64424,4
33263,64422,5
33262,64416,5
33261,64411,5
33249,64400,5
33252,64402,4
33258,64402,5
33250,64404,5
33260,64416,5
33259,64414,5
33255,64416,4
33265,64430,5
33265,64441,6
33266,64452,4
33276,64453,4
33287,64462,5
33284,64472,5
33304,64479,5
33299,64488,5
33297,64478,4
33311,64492,5
33310,64495,5
33322,64493,5
33310,64498,5
33321,64514,4
33322,64507,5
33330,64523,5
33313,64514,5
33316,64523,5
33327,64527,4
33316,64509,5
33322,64518,5
33313,64527,5
33320,64514,5
33317,64523,4
33323,64520,5
33309,64522,5
33318,64522,5
33314,64511,4
33306,64516,5
33308,64514,5
33310,64491,5
33303,64480,5
33298,64468,4
33290,64461,5
33282,64436,5
33263,64411,5
33253,64412,5
33251,64395,4
33255,64395,5
33252,64387,5
33241,64390,5
33242,64399,5
33257,64413,4
33259,64435,5
33275,64450,5
33286,64450,5
33285,64479,5
33299,64512,5
33314,64522,4
33320,64532,5
33338,64545,5
33330,64550,4
33320,64542,4
33318,64543,5
33323,64538,5
33324,64535,5
33327,64538,4
33326,64536,5
33333,64536,5
33330,64530,5
33335,64540,5
33330,64552,4
33345,64561,5
33345,64582,5
33355,64592,5
33366,64606,5
33373,64617,4
33378,64628,5
33383,64631,5
33380,64628,5
33381,64636,5
33396,64644,4
33386,64656,6
33408,64658,4
33398,64664,5
33401,64677,4
33413,64686,4
33415,64690,5
33431,64708,5
33426,64714,5
33431,64714,4
33443,64717,5
33436,64730,5
33442,64738,5
33448,64745,5
33446,64756,4
33448,64739,5
33447,64740,5
33446,64752,5
33443,64742,5
33451,64754,4
33452,64770,5
33462,64778,5
33457,64782,5
33469,64792,5
33472,64795,4
33469,64803,5
33475,64802,5
33476,64798,5
33464,64801,5
33466,64796,4
33472,64800,5
33471,64797,5
33470,64805,5
33477,64820,4
33479,64826,5
33497,64847,5
33503,64847,5
33507,64869,5
33504,64868,4
33517,64867,5
33515,64885,5
33519,64886,5
33527,64901,5
33531,64910,4
33533,64933,5
33550,64953,5
33554,64960,5
33559,64967,5
33562,64970,3
33557,64967,5
33557,64966,5
33561,64960,5
33559,64956,5
33546,64936,4
33543,64921,5
33533,64902,5
33516,64893,5
33506,64874,4
33497,64855,5
33490,64841,5
33478,64820,5
33470,64809,5
33474,64796,4
33468,64794,5
33463,64793,5
33463,64795,5
33460,64785,5
33460,64792,4
33464,64788,6
33460,64788,4
33462,64798,5
33470,64796,5
33463,64797,6
33451,64764,3
33443,64735,5
33441,64733,5
33434,64720,5
33420,64705,4
33405,64688,5
33400,64679,5
33396,64670,5
33406,64653,4
33393,64655,4
33392,64648,5
33393,64632,5
33398,64633,5
33382,64635,4
33380,64634,5
33378,64634,5
33384,64625,5
33379,64625,5
33383,64633,4
33374,64626,5
33391,64625,6
33378,64631,4
33388,64617,5
33375,64627,4
33383,64621,5
33373,64618,5
33377,64622,5
33383,64620,5
33372,64602,4
33368,64607,5
33369,64607,5
33374,64617,5
33369,64613,4
33367,64614,4
33371,64615,5
33367,64608,5
33365,64612,5
33368,64611,4
33359,64604,5
33366,64608,5
33364,64601,5
33364,64597,5
33361,64597,4
33360,64583,5
33360,64605,5
33353,64584,6
33341,64573,4
33335,64560,4
33340,64560,5
33330,64546,5
33335,64544,5
33333,64536,5
33326,64551,4
33322,64537,5
33315,64540,5
33316,64532,5
33322,64540,5
33325,64536,4
33325,64537,5
33325,64534,5
33319,64542,5
33322,64541,4
33336,64546,5
33341,64539,5
33327,64541,5
33330,64552,5
33340,64562,5
33333,64561,4
33340,64558,5
33339,64562,5
33335,64568,6
33334,64563,3
33335,64565,5
33342,64554,5
33342,64564,5
33338,64564,5
33330,64560,4
33329,64559,5
33330,64561,5
33328,64553,5
33331,64542,5
33324,64540,4
33321,64536,5
33310,64525,5
33304,64505,5
33290,64489,4
33278,64462,4
33275,64440,5
33250,64419,5
33234,64389,5
33216,64366,4
33209,64339,6
33201,64331,4
33206,64329,5
33203,64329,5
33217,64345,4
33212,64351,5
33222,64360,5
33232,64380,5
33232,64396,5
33245,64413,4
33252,64434,5
33263,64448,5
33276,64463,5
33276,64451,5
33270,64433,4
33259,64426,5
33257,64425,5
33256,64410,5
33257,64409,4
33256,64408,4
33253,64395,5
33249,64403,5
33239,64404,5
33245,64389,4
33247,64395,5
33236,64393,6
33239,64388,4
33239,64393,5
33243,64392,4
33240,64395,5
33248,64392,5
33245,64396,5
33245,64402,5
33246,64401,4
33249,64401,5
33240,64399,5
33250,64400,5
33253,64407,5
33243,64403,4
33243,64393,5
33237,64392,5
33242,64388,5
33236,64399,5
33235,64391,4
33243,64379,5
33240,64386,5
33233,64385,5
33242,64386,4
33239,64393,5
33238,64391,5
33233,64395,6
33236,64384,4
33239,64381,4
33233,64378,5
33234,64367,5
33230,64370,5
33228,64359,5
33226,64369,4
33231,64368,5
33223,64361,5
33222,64356,5
33222,64349,5
33221,64346,4
33208,64343,5
33219,64338,5
33210,64342,5
33216,64341,5
33203,64338,4
33213,64336,5
33208,64340,5
33212,64348,5
33204,64346,5
33216,64343,4
33215,64339,5
33223,64342,5
33220,64349,6
33214,64347,3
33226,64351,5
33225,64356,5
33216,64370,5
33229,64366,5
33233,64376,4
33230,64372,5
33236,64385,5
33228,64383,5
33239,64383,5
33235,64383,4
33238,64387,5
33234,64387,5
33235,64391,5
33237,64401,5
33240,64395,4
33239,64392,5
33245,64396,5
33239,64394,5
33235,64384,5
33224,64362,10
33224,64362,4
33222,64359,5
33216,64350,4
33210,64333,5
33192,64316,5
33189,64290,5
33175,64274,5
33152,64249,4
33147,64235,5
33135,64213,5
33135,64207,5
33134,64199,5
33130,64191,4
33130,64200,5
33139,64204,5
33138,64217,5
33143,64232,5
33152,64243,4
33157,64257,5
33169,64264,5
33184,64294,5
33183,64308,5
33202,64327,4
33208,64336,6
33194,64323,4
33195,64302,5
33185,64298,4
33190,64298,4
33178,64283,5
33177,64276,5
33181,64271,5
33183,64273,4
33176,64263,5
33175,64269,5
33174,64267,5
33174,64264,5
33172,64266,4
33167,64266,5
33174,64261,5
33165,64258,5
33169,64268,5
33167,64264,4
33170,64265,5
33178,64271,5
33169,64263,5
33162,64271,5
33176,64262,4
33172,64262,5
33173,64252,6
33171,64262,4
33173,64263,4
33166,64272,4
33173,64271,5
33173,64269,5
33176,64259,5
33181,64261,4
33177,64264,5
33173,64262,5
33173,64271,5
33175,64270,5
33174,64270,4
33176,64269,5
33171,64261,5
33169,64265,5
33166,64262,5
33173,64256,4
33169,64250,5
33161,64252,5
33154,64254,5
33156,64245,5
33155,64259,4
33160,64250,5
33158,64242,5
33150,64236,5
33148,64235,5
33154,64239,4
33145,64230,5
33147,64230,5
33150,64228,5
33149,64235,4
33152,64228,5
33159,64229,5
33156,64240,5
33152,64242,5
33156,64252,4
33160,64253,5
33165,64255,5
33161,64264,5
33163,64257,5
33160,64270,4
33168,64267,5
33158,64281,5
33185,64278,5
33182,64284,5
33187,64282,5
33180,64291,4
33189,64288,5
33189,64292,5
33183,64291,5
33189,64293,4
33181,64299,5
33191,64289,5
33185,64295,5
33194,64296,4
33187,64294,4
33186,64280,5
33184,64293,5
33190,64291,5
33185,64283,4
33181,64284,5
33182,64280,5
33182,64280,5
33174,64278,5
33170,64275,4
33179,64278,5
33174,64276,5
33173,64272,5
33162,64281,5
33172,64275,4
33175,64267,6
33169,64283,4
33180,64278,5
33183,64279,5
33174,64272,4
33174,64275,5
33180,64276,5
33178,64281,5
33166,64273,5
33169,64279,4
33172,64270,5
33178,64281,5
33168,64274,5
33173,64271,4
33164,64274,5
33177,64275,5
33168,64286,5
33170,64272,5
33175,64261,4
33164,64262,5
33168,64268,5
33171,64252,6
33155,64244,4
33144,64226,4
33130,64203,5
33120,64179,5
33111,64166,5
33093,64149,5
33082,64125,4
33072,64114,5
33075,64102,5
33072,64096,5
33073,64089,5
33075,64104,4
33077,64103,5
33086,64125,5
33091,64136,5
33099,64148,4
33109,64171,4
33118,64194,5
33138,64224,5
33150,64243,5
33157,64247,5
33156,64239,4
33145,64222,5
33143,64222,5
33135,64211,6
33138,64215,3
33132,64201,5
33127,64195,5
33133,64194,5
33128,64188,5
33131,64192,4
33132,64199,5
33127,64201,5
33138,64203,5
33137,64199,5
33149,64211,4
33132,64219,5
33149,64221,5
33146,64223,5
33141,64225,5
33156,64233,4
33150,64223,5
33159,64238,5
33159,64247,5
33149,64241,4
33154,64242,6
33155,64233,4
33157,64233,5
33154,64234,5
33158,64234,6
33158,64233,3
33147,64232,5
33154,64229,5
33143,64224,5
33141,64228,4
33147,64223,5
33158,64227,5
33148,64227,5
33145,64221,5
33146,64223,4
33150,64212,5
33149,64212,5
33144,64202,5
33135,64216,5
33141,64206,4
33134,64208,5
33140,64205,5
33131,64201,5
33129,64198,4
33135,64199,4
33125,64194,6
33122,64184,4
33130,64181,5
33130,64194,4
33122,64196,5
33128,64199,5
33137,64208,5
33142,64199,5
33138,64207,4
33140,64213,5
33147,64223,5
33154,64224,5
33152,64238,5
33150,64244,4
33160,64236,5
33167,64261,5
33164,64261,5
33164,64272,5
33170,64277,4
33181,64271,5
33184,64277,5
33177,64288,5
33177,64287,5
33186,64284,4
33177,64281,5
33178,64280,6
33183,64289,4
33178,64290,4
33177,64288,5
33176,64288,5
33175,64283,5
33174,64282,5
33177,64279,4
33185,64270,5
33184,64283,5
33173,64274,5
33176,64276,5
33180,64264,4
33168,64274,5
33171,64267,5
33175,64270,5
33171,64263,5
33165,64253,4
33170,64263,5
33159,64256,5
33162,64251,5
33157,64251,5
33166,64248,4
33160,64243,5
33160,64245,5
33161,64247,6
33157,64251,3
33161,64244,4
33145,64220,5
33145,64221,5
33138,64215,5
33138,64209,4
33120,64173,5
33114,64168,5
33102,64158,5
33094,64141,5
33089,64136,4
33076,64119,5
33084,64132,5
33088,64118,5
33088,64131,5
33086,64127,4
33095,64142,5
33104,64157,5
33102,64173,5
33123,64178,5
33126,64188,5
33142,64214,4
33139,64234,5
33144,64226,5
33145,64234,4
33149,64230,4
33144,64204,5
33123,64200,5
33124,64187,5
33125,64170,4
33119,64159,5
33106,64161,5
33104,64159,5
33099,64152,5
33109,64162,4
33113,64163,5
33116,64164,5
33119,64174,5
33115,64178,5
33125,64182,4
33131,64184,5
33134,64205,5
33137,64208,5
33142,64215,5
33155,64211,4
33150,64223,6
33156,64223,4
33153,64229,5
33150,64230,5
33143,64228,4
33152,64220,5
33152,64223,5
33144,64218,5
33140,64215,4
33145,64212,5
33140,64210,5
33144,64213,5
33135,64214,5
33136,64207,4
33133,64202,5
33146,64209,5
33139,64196,5
33132,64195,5
33120,64193,4
33124,64180,5
33127,64181,5
33125,64176,5
33121,64176,5
33117,64169,4
33115,64162,5
33108,64149,6
33107,64151,4
33100,64149,5
33110,64143,4
33101,64137,5
33093,64140,5
33101,64137,5
33098,64140,4
33097,64143,5
33092,64138,5
33095,64154,5
33111,64156,5
33113,64171,4
33117,64171,5
33118,64188,5
33125,64194,5
33134,64206,5
33137,64215,4
33140,64220,5
33148,64224,5
33147,64235,5
33156,64240,5
33157,64254,4
33155,64250,5
33160,64257,5
33168,64256,5
33165,64252,5
33170,64251,4
33170,64260,5
33165,64255,5
33166,64252,5
33164,64252,4
33165,64256,4
33157,64246,5
33163,64257,5
33155,64250,5
33163,64249,4
33156,64251,5
33148,64246,5
33160,64238,5
33145,64235,5
33141,64225,4
33135,64213,5
33136,64205,5
33123,64192,5
33108,64175,5
33115,64164,5
33103,64156,4
33100,64148,5
33085,64133,5
33086,64120,5
33082,64123,4
33096,64133,5
33096,64130,5
33097,64131,5
33096,64135,4
33105,64159,4
33117,64169,5
33117,64174,5
33122,64192,5
33133,64208,4
33136,64212,5
33146,64224,5
33150,64228,5
33150,64215,5
33135,64206,4
33136,64204,5
33131,64191,5
33118,64187,5
33124,64180,5
33123,64178,4
33114,64198,6
33121,64181,4
33132,64182,5
33134,64192,5
33134,64201,4
33135,64213,5
33147,64225,5
33166,64249,5
33174,64263,5
33183,64278,4
33181,64285,5
33184,64287,5
33174,64290,5
33185,64283,8
33181,64307,1
33182,64299,5
33197,64304,5
33192,64300,5
33198,64313,4
33196,64309,5
33193,64311,5
33201,64308,5
33187,64308,5
33184,64294,4
33191,64301,5
33194,64307,6
33193,64310,4
33190,64298,5
33183,64303,4
33189,64302,5
33188,64305,5
33188,64299,5
33186,64296,5
33186,64299,4
33187,64294,5
33180,64285,5
33180,64290,5
33182,64280,4
33173,64274,4
33177,64266,5
33172,64267,5
33161,64258,5
33176,64260,4
33164,64253,5
33162,64253,5
33169,64270,5
33169,64274,5
33176,64276,4
33184,64287,5
33189,64293,5
33180,64308,5
33194,64317,5
33200,64319,4
33207,64336,5
33213,64344,5
33213,64350,5
33216,64367,5
33229,64366,4
33237,64382,5
33228,64385,5
33238,64395,5
33247,64396,5
33251,64397,4
33248,64406,5
33244,64404,5
33239,64404,5
33244,64408,4
33241,64390,5
33240,64389,4
33235,64398,5
33242,64389,5
33224,64373,5
33224,64370,3
33212,64351,5
33217,64336,5
33209,64328,5
33209,64318,4
33198,64325,5
33195,64312,5
33193,64308,5
33197,64318,5
33195,64321,4
33200,64331,5
33210,64339,5
33213,64356,5
33237,64356,5
33233,64368,4
33235,64386,5
33233,64402,5
33244,64405,5
33247,64413,4
33246,64391,5
33226,64373,6
33229,64370,4
33225,64363,5
33222,64347,4
33210,64345,7
33209,64351,3
33218,64340,5
33212,64350,5
33214,64353,4
33229,64354,5
33219,64364,5
33224,64381,5
33233,64379,5
33237,64376,4
33244,64395,5
33245,64402,5
33255,64421,5
33253,64426,5
33267,64427,4
33265,64427,5
33265,64437,5
33268,64438,5
33269,64444,4
33265,64450,4
33280,64445,5
33280,64451,6
33283,64444,4
33274,64454,4
33285,64457,5
33288,64455,5
33281,64470,5
33298,64482,5
33296,64483,4
33293,64471,5
33295,64482,5
33300,64481,5
33293,64476,5
33290,64471,4
33297,64469,5
33287,64471,5
33286,64462,5
33278,64456,5
33281,64459,4
33283,64463,5
33276,64442,5
33268,64437,5
33262,64439,5
33267,64431,4
33266,64429,5
33265,64431,5
33262,64441,6
33272,64450,3
33276,64462,5
33277,64468,5
33281,64470,5
33290,64471,5
33281,64490,4
33298,64493,5
33303,64504,5
33314,64533,5
33322,64541,5
33325,64548,4
33331,64575,5
33338,64584,5
33343,64586,5
33356,64597,5
33353,64592,4
33355,64597,5
33353,64598,5
33361,64594,5
33354,64580,5
33346,64589,5
33346,64570,4
33331,64574,5
33332,64556,5
33328,64546,6
33319,64536,3
33310,64525,5
33310,64505,5
33311,64515,5
33304,64522,4
33309,64519,5
33317,64524,5
33317,64530,5
33313,64540,5
33319,64544,4
33328,64571,5
33341,64570,5
33348,64590,5
33359,64587,5
33352,64582,4
33346,64573,5
33345,64565,5
33343,64563,5
33333,64557,5
33326,64557,4
33338,64546,6
33330,64549,4
33328,64551,5
33333,64549,4
33327,64560,4
33331,64553,5
33333,64549,5
33334,64556,5
33337,64561,4
33344,64563,5
33347,64573,5
33350,64597,5
33354,64590,5
33356,64597,4
33361,64606,5
33369,64611,5
33374,64621,5
33375,64631,5
33379,64637,4
33391,64651,5
33386,64651,5
33387,64644,5
33391,64644,5
33382,64648,4
33387,64646,5
33392,64647,6
33396,64666,4
33404,64671,5
33402,64678,4
33401,64684,5
33408,64697,5
33419,64714,5
33416,64719,4
33418,64725,5
33418,64723,5
33426,64716,5
33423,64720,5
33421,64711,4
33417,64719,5
33415,64721,5
33427,64725,5
33422,64726,5
33429,64729,4
33428,64739,5
33433,64746,5
33444,64753,5
33435,64755,5
33442,64759,4
33441,64759,5
33450,64764,5
33448,64779,6
33450,64773,4
33457,64786,4
33457,64794,5
33462,64797,5
33456,64800,5
33472,64811,4
33477,64819,4
33488,64832,5
33480,64838,5
33489,64840,5
33488,64851,4
33492,64851,5
33482,64850,5
33485,64851,5
33486,64832,5
33481,64822,4
33474,64823,5
33459,64809,5
33463,64809,5
33458,64794,5
33451,64787,5
33445,64781,4
33443,64787,5
33454,64788,5
33449,64784,5
33455,64777,4
33446,64787,5
33458,64793,5
33466,64796,5
33468,64812,4
33472,64814,4
33462,64797,5
33447,64786,5
33451,64774,5
33446,64765,4
33436,64741,5
33432,64738,5
33429,64721,5
33422,64709,5
33418,64709,4
33415,64702,5
33410,64695,5
33411,64699,5
33404,64694,5
33403,64675,4
33401,64674,6
33400,64680,4
33392,64673,5
33390,64673,5
33404,64660,4
33397,64662,5
33388,64660,5
33391,64660,5
33389,64655,5
33380,64657,4
33384,64650,5
33383,64648,5
33386,64657,5
33383,64653,4
33379,64645,5
33373,64644,5
33379,64647,5
33376,64640,5
33378,64638,4
33377,64645,5
33376,64654,5
33372,64643,5
33373,64634,5
33370,64636,4
33372,64641,5
33380,64626,6
33378,64630,4
33375,64627,5
33371,64623,4
33375,64623,5
33371,64628,5
33368,64626,5
33360,64613,5
33364,64615,4
33362,64609,5
33358,64608,5
33356,64604,5
33343,64596,4
33352,64599,4
33347,64582,5
33350,64591,5
33343,64591,5
33342,64578,4
33334,64587,5
33343,64580,5
33330,64579,5
33333,64582,5
33344,64580,4
33332,64581,5
33339,64580,5
33343,64575,5
33336,64578,5
33343,64583,4
33340,64583,5
33349,64590,5
33346,64593,5
33344,64583,5
33342,64589,4
33342,64580,5
33340,64602,5
33345,64590,5
33341,64595,5
33347,64593,4
33338,64588,5
33334,64581,5
33326,64561,5
33320,64554,4
33318,64532,5
33295,64509,5
33292,64500,5
33283,64467,5
33266,64450,5
33268,64443,4
33250,64441,5
33254,64438,5
33262,64451,5
33259,64456,4
33262,64458,5
33273,64463,5
33280,64486,5
33290,64496,5
33295,64517,4
33303,64519,5
33303,64538,5
33322,64547,5
33324,64537,5
33309,64538,4
33297,64519,5
33303,64510,5
33297,64499,5
33289,64487,4
33286,64484,4
33278,64476,5
33281,64471,5
33271,64458,5
33276,64455,4
33266,64450,6
33273,64454,4
33270,64446,5
33273,64445,5
33274,64444,4
33266,64437,5
33266,64440,5
33261,64441,5
33260,64435,5
33259,64435,4
33254,64442,5
33265,64437,5
33264,64432,5
33250,64431,5
33262,64433,4
33264,64434,5
33263,64431,5
33253,64427,5
33256,64425,4
33266,64414,4
33259,64419,5
33244,64426,5
33258,64426,5
33257,64425,4
33258,64439,5
33263,64426,5
33251,64433,5
33257,64431,5
33254,64423,4
33256,64418,5
33250,64419,5
33253,64418,5
33258,64417,5
33263,64417,4
33262,64421,5
33253,64420,5
33253,64420,5
33242,64410,5
33248,64415,4
33245,64403,5
33244,64398,5
33231,64398,5
33233,64388,5
33232,64388,4
33230,64376,5
33233,64372,5
33224,64381,6
33227,64374,3
33232,64388,4
33233,64379,5
33225,64378,5
33222,64391,7
33230,64387,2
33236,64380,5
33237,64390,5
33235,64389,5
33235,64395,5
33235,64412,4
33242,64407,5
33241,64412,5
33251,64402,5
33250,64410,5
33236,64416,4
33250,64409,5
33252,64424,5
33248,64430,5
33253,64426,5
33256,64423,5
33250,64420,4
33249,64436,5
33249,64420,5
33244,64432,6
33248,64421,3
33244,64426,5
33239,64409,5
33249,64407,5
33259,64418,4
33249,64420,5
33243,64413,5
33235,64406,5
33239,64411,5
33238,64398,4
33237,64403,5
33230,64394,5
33230,64376,5
33218,64376,5
33214,64353,4
33205,64320,5
33175,64299,5
33165,64279,5
33159,64252,5
33141,64241,4
33136,64227,6
33137,64225,4
33131,64228,5
33146,64224,5
33144,64241,6
33147,64249,3
33158,64258,5
33169,64280,5
33169,64297,4
33187,64315,5
33190,64342,5
33215,64370,5
33226,64384,5
33234,64392,4
33231,64386,5
33213,64359,5
33211,64354,5
33202,64354,5
33202,64333,4
33192,64332,5
33201,64316,5
33197,64314,5
33194,64317,5
33193,64311,4
33182,64319,5
33193,64316,6
33186,64309,4
33192,64309,5
33181,64310,4
33184,64307,5
33190,64306,5
33193,64315,5
33178,64310,5
33193,64319,4
33194,64320,5
33192,64313,5
33199,64319,5
33201,64322,4
33190,64317,5
33196,64319,5
33191,64313,5
33193,64314,5
33195,64308,4
33185,64310,5
33189,64305,5
33197,64312,5
33196,64315,5
33184,64315,4
33188,64316,5
33192,64324,5
33197,64325,6
33197,64313,4
33196,64314,4
33193,64315,5
33187,64314,5
33185,64315,5
33192,64315,5
33190,64302,4
33189,64305,5
33192,64310,5
33190,64303,5
33183,64301,4
33180,64300,4
33180,64298,5
33183,64297,5
33186,64298,5
33179,64284,4
33181,64289,5
33181,64297,5
33182,64296,5
33180,64296,5
33184,64288,5
33185,64299,4
33173,64303,5
33181,64310,5
33183,64302,6
33181,64312,3
33191,64326,5
33199,64314,5
33192,64325,5
33206,64339,5
33211,64340,4
33215,64341,5
33207,64348,5
33208,64347,5
33209,64353,5
33223,64351,4
33213,64349,5
33211,64359,5
33211,64360,5
33216,64362,4
33219,64362,5
33216,64354,5
33210,64359,5
33216,64352,5
33207,64353,4
33203,64346,6
33214,64339,4
33203,64346,5
33203,64338,5
33202,64341,4
33208,64351,5
33209,64332,5
33204,64343,5
33207,64333,5
33198,64344,4
33208,64336,5
33198,64325,5
33208,64339,5
33202,64337,5
33200,64336,4
33198,64331,5
33199,64338,5
33195,64316,5
33192,64329,4
33187,64292,4
33173,64275,5
33168,64265,5
33154,64258,5
33149,64233,4
33143,64229,5
33136,64211,6
33133,64207,4
33133,64197,5
33123,64197,4
33122,64197,5
33132,64209,5
33134,64215,5
33141,64227,5
33152,64243,4
33158,64260,5
33160,64275,5
33181,64295,5
33187,64313,5
33199,64327,4
33205,64332,5
33194,64311,5
33188,64309,5
33178,64291,5
33178,64289,4
33174,64284,5
33169,64283,5
33169,64281,5
33172,64272,4
33163,64262,5
33168,64264,5
33168,64264,6
33167,64271,4
33170,64264,4
33169,64254,5
33171,64278,5
33180,64279,5
33171,64287,5
33180,64282,4
33179,64286,5
33182,64285,5
33184,64280,5
33181,64292,5
33182,64295,4
33180,64296,5
33183,64291,5
33188,64287,5
33178,64293,5
33181,64289,4
33184,64290,5
33182,64285,5
33179,64287,5
33182,64291,5
33179,64279,4
33179,64285,5
33184,64294,5
33179,64292,5
33184,64282,4
33176,64285,5
33170,64277,5
33177,64274,5
33176,64281,5
33174,64279,4
33176,64272,5
33166,64269,5
33180,64270,5
33173,64271,5
33173,64265,4
33163,64269,5
33163,64266,5
33162,64253,5
33165,64255,5
33160,64246,4
33164,64262,5
33160,64270,5
33164,64259,5
33158,64261,5
33160,64267,5
33170,64265,4
33168,64283,5
33168,64279,5
33178,64277,4
33181,64290,5
33186,64294,5
33177,64308,5
33182,64312,5
33197,64313,4
33197,64318,5
33200,64323,5
33202,64332,5
33194,64324,5
33198,64335,4
33193,64331,5
33198,64333,5
33198,64329,5
33204,64336,5
33201,64333,4
33200,64331,5
33206,64333,5
33198,64325,5
33192,64326,5
33191,64324,4
33195,64314,6
33196,64321,4
33191,64323,5
33196,64319,4
33186,64314,4
33193,64308,5
33203,64301,5
33190,64312,5
33191,64304,4
33187,64304,5
33186,64296,5
33186,64303,5
33179,64299,5
33187,64298,4
33187,64299,5
33180,64298,5
33178,64296,5
33168,64283,5
33174,64294,4
33176,64279,5
33171,64264,5
33156,64252,5
33157,64254,5
33149,64235,4
33134,64228,5
33134,64218,5
33126,64184,5
33119,64185,5
33124,64180,4
33111,64172,5
33107,64161,5
33114,64178,5
33116,64183,4
33119,64197,5
33131,64208,5
33131,64210,5
33143,64220,5
33146,64233,4
33153,64263,5
33163,64277,5
33165,64273,5
33173,64282,5
33171,64290,4
33149,64257,5
33150,64233,5
33145,64239,5
33142,64223,5
33131,64211,4
33133,64206,5
33134,64201,5
33141,64206,5
33139,64204,5
33131,64215,4
33140,64215,5
33138,64224,5
33133,64226,5
33140,64227,4
33148,64230,4
33160,64237,5
33153,64244,5
33157,64248,5
33159,64251,4
33167,64259,5
33162,64264,5
33163,64262,5
33162,64263,5
33166,64258,4
33163,64263,5
33172,64259,4
33159,64257,5
33167,64259,5
33161,64260,6
33158,64256,3
33151,64259,5
33163,64259,5
33165,64255,5
33172,64258,4
33163,64256,5
33167,64257,5
33159,64251,5
33165,64250,4
33146,64241,4
33156,64244,5
33154,64244,5
33150,64232,5
33147,64238,4
33148,64228,5
33148,64224,5
33136,64221,5
33142,64223,5
33135,64219,4
33137,64216,5
33146,64223,6
33136,64218,4
33137,64215,5
33145,64224,4
33149,64229,7
33148,64231,3
33147,64230,5
33152,64249,5
33161,64253,4
33162,64255,5
33173,64274,5
33164,64283,5
33181,64291,5
33187,64300,4
33198,64297,5
33189,64316,5
33202,64323,5
33205,64327,4
33205,64336,4
33207,64349,5
33200,64339,5
33206,64344,5
33211,64344,4
33201,64347,5
33212,64351,5
33206,64341,6
33212,64343,4
33208,64340,4
33216,64340,5
33212,64342,5
33211,64338,5
33208,64338,5
33208,64334,4
33198,64341,5
33195,64334,5
33205,64318,5
33198,64336,5
33202,64329,4
33190,64320,5
33192,64316,5
33193,64311,5
33182,64308,4
33185,64306,4
33173,64287,5
33176,64283,5
33168,64257,5
33163,64259,5
33149,64250,4
33148,64225,5
33141,64227,5
33143,64224,6
33130,64226,3
33142,64225,5
33145,64237,5
33148,64230,5
33167,64250,5
33160,64264,4
33174,64274,5
33173,64285,5
33190,64299,5
33191,64314,5
33190,64333,4
33198,64327,5
33201,64315,5
33187,64298,5
33184,64297,5
33176,64287,4
33175,64290,10
33178,64286,5
33174,64283,4
33171,64288,6
33182,64289,4
33187,64296,5
33183,64297,5
33193,64315,6
33193,64303,3
33203,64326,5
33199,64324,5
33201,64335,5
33201,64340,4
33206,64359,5
33223,64361,5
33222,64363,5
33233,64368,5
33227,64371,4
33237,64374,5
33228,64375,5
33231,64382,5
33234,64384,5
33230,64394,4
33242,64392,5
33241,64400,5
33235,64398,5
33245,64398,4
33242,64407,4
33254,64420,6
33255,64431,4
33248,64427,5
33261,64424,4
33259,64437,5
33255,64416,5
33253,64413,5
33254,64419,5
33254,64419,4
33254,64428,5
33261,64431,5
33261,64419,5
33248,64428,5
33257,64415,4
33250,64414,5
33245,64417,5
33246,64414,5
33251,64402,5
33246,64414,4
33247,64410,5
33254,64416,5
33259,64437,5
33264,64451,5
33274,64464,4
33287,64479,5
33285,64488,6
33296,64510,4
33299,64507,4
33297,64513,5
33319,64533,5
33313,64531,5
33322,64550,5
33324,64550,4
33313,64541,5
33318,64543,5
33320,64540,5
33317,64551,5
33334,64560,4
33331,64559,5
33327,64570,5
33334,64563,5
33333,64566,5
33337,64570,4
33326,64570,5
33332,64576,5
33333,64564,5
33328,64554,5
33324,64553,4
33313,64524,5
33307,64535,5
33304,64521,6
33308,64521,3
33305,64518,4
33294,64508,5
33291,64505,5
33290,64509,5
33291,64513,4
33297,64517,5
33307,64524,5
33303,64531,5
33306,64544,5
33318,64555,4
33327,64561,5
33331,64579,5
33326,64561,5
33321,64543,5
33313,64527,4
33301,64511,5
33297,64503,5
33302,64507,5
33288,64500,5
33298,64509,5
33296,64494,4
33300,64487,5
33290,64501,5
33298,64506,5
33297,64509,4
33301,64512,5
33308,64523,5
33310,64520,5
33313,64524,4
33317,64536,5
33321,64541,5
33324,64538,5
33324,64548,5
33329,64556,4
33332,64547,5
33337,64566,5
33333,64563,5
33328,64553,5
33328,64552,4
33332,64563,5
33334,64560,5
33330,64554,5
33330,64563,5
33340,64555,4
33344,64574,6
33331,64572,4
33337,64568,5
33332,64560,5
33333,64567,4
33335,64555,5
33331,64556,5
33334,64560,5
33335,64562,4
33333,64559,4
33326,64547,5
33327,64550,5
33319,64544,5
33327,64549,4
33314,64540,5
33320,64539,5
33322,64532,5
33322,64535,5
33310,64527,4
33323,64540,5
33317,64534,5
33321,64543,5
33323,64549,5
33328,64568,4
33337,64577,5
33343,64573,6
33346,64582,4
33350,64606,5
33355,64609,4
33359,64607,5
33359,64624,5
33370,64633,5
33368,64637,5
33373,64641,4
33373,64651,5
33382,64652,5
33385,64660,5
33379,64665,4
33388,64668,5
33382,64650,5
33389,64652,5
33371,64664,5
33382,64640,4
33373,64640,5
33374,64631,5
33373,64632,5
33361,64621,5
33364,64624,4
33364,64626,5
33361,64621,5
33367,64623,5
33364,64632,5
33381,64641,4
33366,64640,5
33377,64652,5
33390,64669,5
33389,64684,5
33397,64689,4
33397,64682,5
33385,64667,5
33389,64655,5
33387,64662,4
33378,64646,5
33376,64641,5
33373,64637,5
33375,64645,5
33374,64642,4
33373,64635,5
33376,64641,5
33374,64633,5
33380,64639,5
33374,64647,5
33372,64651,4
33380,64650,5
33387,64652,5
33388,64659,5
33395,64661,4
33396,64669,5
33401,64676,5
33407,64676,5
33394,64675,5
33403,64681,4
33404,64685,5
33407,64687,5
33402,64690,5
33398,64686,4
33410,64687,4
33404,64683,5
33403,64687,5
33416,64696,5
33419,64703,4
33425,64711,5
33415,64715,5
33416,64710,5
33412,64706,5
33426,64708,4
33420,64717,6
33418,64718,4
33422,64720,5
33420,64722,5
33422,64722,4
33421,64721,5
33426,64719,5
33419,64724,5
33413,64712,5
33417,64723,4
33413,64719,5
33412,64720,5
33407,64708,5
33416,64712,4
33413,64716,4
33410,64718,5
33419,64722,5
33415,64714,5
33417,64718,4
33413,64727,5
33421,64729,5
33415,64727,5
33416,64736,5
33432,64742,4
33425,64749,5
33436,64742,5
33435,64761,5
33446,64758,5
33446,64764,4
33443,64764,5
33445,64768,5
33441,64773,5
33439,64774,5
33447,64766,4
33447,64771,5
33435,64765,5
33438,64760,5
33433,64758,5
33428,64748,4
33429,64741,5
33418,64740,5
33424,64740,5
33414,64740,5
33424,64734,4
33435,64751,5
33420,64751,5
33430,64754,6
33437,64765,3
33452,64777,5
33454,64789,5
33448,64806,5
33453,64786,5
33442,64768,4
33440,64756,5
33442,64750,5
33428,64756,5
33427,64755,5
33439,64754,4
33436,64758,5
33440,64762,10
33441,64760,5
33442,64770,9
33433,64749,8
33433,64749,5
33440,64754,5
33450,64758,8
33460,64759,5
33446,64770,5
33436,64757,5
33454,64766,8
33448,64765,5
33448,64767,5
33428,64761,8
33440,64754,5
33442,64757,5
33430,64744,5
33423,64728,8
33423,64728,5
33416,64728,5
33387,64723,8
33401,64735,5
33412,64726,5
33419,64734,8
33413,64723,5
33414,64727,5
33408,64723,5
33413,64716,8
33413,64723,5
33406,64716,5
33387,64674,8
33387,64674,5
33366,64666,5
33382,64661,5
33380,64656,8
33368,64664,5
33367,64630,5
33371,64633,8
33364,64638,5
33387,64626,5
33359,64631,8
33351,64616,5
33356,64624,5
33352,64631,5
33358,64635,8
33358,64635,5
33366,64683,5
33366,64650,8
33371,64613,5
33365,64647,5
33398,64658,5
33393,64646,8
33366,64646,5
33346,64656,5
33372,64655,8
33376,64653,5
33382,64652,5
33357,64606,8
33357,64606,5
33337,64549,5
33332,64561,5
33326,64557,8
33317,64546,5
33307,64533,5
33255,64531,8
33297,64527,5
33309,64534,5
33303,64538,5
33304,64539,8
33308,64542,5
33319,64549,5
33342,64590,8
33342,64590,5
33329,64583,5
33335,64575,8
33324,64561,5
33320,64545,5
33318,64542,5
33307,64541,8
33312,64552,5
33300,64500,5
33307,64511,8
33309,64518,5
33292,64521,5
33292,64521,5
33303,64521,8
33307,64516,5
33293,64512,5
33299,64511,8
33299,64523,5
33301,64523,5
33302,64488,8
33304,64489,5
33295,64515,5
33296,64503,5
33299,64506,8
33299,64506,5
33297,64507,5
33286,64500,8
33295,64504,5
33290,64516,5
33304,64506,5
33293,64502,8
33281,64498,5
33292,64503,5
33290,64498,8
33300,64508,5
33301,64495,5
33289,64496,8
33289,64496,5
33290,64477,5
33294,64488,5
33281,64481,13
33309,64483,5
33280,64482,8
33277,64478,5
33281,64479,5
33290,64472,5
33275,64476,8
33275,64476,5
33282,64488,5
33276,64449,8
33286,64468,5
33279,64490,5
33328,64493,5
33294,64491,8
33257,64491,5
33285,64502,5
33291,64495,5
33286,64507,1
33293,64505,1
33301,64505,4
33295,64517,4
33297,64515,5
33298,64506,5
33296,64517,5
33298,64518,4
33294,64513,5
33297,64514,5
33304,64520,5
33288,64520,5
33302,64509,4
33298,64513,5
33300,64509,5
33306,64507,5
33289,64515,5
33292,64518,4
33297,64506,5
33290,64498,5
33293,64510,6
33294,64496,4
33290,64506,4
33297,64495,5
33290,64506,5
33291,64503,5
33294,64493,4
33294,64495,4
33284,64487,5
33287,64485,5
33284,64489,5
33285,64484,4
33286,64481,5
33274,64483,5
33275,64476,5
33276,64463,5
33268,64463,4
33261,64448,5
33251,64425,5
33237,64404,5
33227,64375,5
33210,64344,5
33195,64316,4
33174,64298,5
33173,64276,5
33158,64277,5
33169,64268,4
33166,64272,5
33165,64284,5
33175,64289,5
33175,64307,5
33191,64319,4
33196,64339,5
33211,64361,5
33218,64383,5
33244,64419,4
33257,64439,5
33263,64460,5
33261,64451,5
33258,64440,5
33247,64431,4
33243,64426,5
33242,64409,5
33243,64403,5
33237,64411,5
33236,64405,4
33246,64397,6
33234,64395,4
33240,64394,5
33237,64398,5
33232,64390,4
33231,64391,5
33238,64396,5
33236,64398,5
33231,64391,5
33238,64397,4
33239,64401,5
33241,64397,5
33243,64408,5
33243,64405,4
33245,64399,5
33248,64405,5
33247,64398,5
33244,64406,5
33243,64400,4
33240,64396,5
33236,64408,5
33242,64397,5
33242,64399,5
33236,64394,4
33240,64400,5
33237,64402,6
33241,64403,4
33239,64403,5
33236,64397,4
33243,64404,5
33232,64400,5
33234,64391,5
33240,64391,5
33236,64395,4
33234,64390,5
33236,64397,5
33237,64391,5
33240,64389,4
33238,64390,5
33231,64388,5
33227,64382,5
33224,64382,5
33230,64377,4
33225,64377,5
33229,64375,5
33223,64373,5
33220,64376,5
33232,64370,4
33212,64371,5
33230,64374,5
33227,64381,5
33228,64387,5
33228,64392,4
33232,64401,5
33235,64405,5
33236,64411,5
33250,64409,5
33256,64413,4
33245,64423,5
33249,64421,5
33265,64431,5
33251,64428,4
33260,64428,5
33253,64437,5
33267,64430,5
33255,64444,5
33263,64434,4
33262,64438,5
33256,64434,5
33262,64449,5
33263,64449,5
33263,64446,5
33257,64436,4
33257,64438,5
33258,64434,5
33263,64438,5
33256,64426,4
33261,64425,5
33260,64429,5
33251,64429,5
33257,64422,5
33260,64420,4
33252,64421,5
33249,64419,5
33245,64425,5
33248,64414,4
33244,64411,4
33247,64405,5
33240,64409,5
33230,64385,5
33229,64371,4
33222,64356,5
33209,64349,5
33193,64332,4
33190,64303,5
33180,64294,4
33169,64278,7
33180,64277,3
33172,64276,5
33161,64268,5
33173,64275,4
33166,64273,5
33177,64291,5
33180,64302,5
33188,64316,5
33208,64324,4
33209,64337,5
33218,64359,5
33231,64384,5
33225,64393,4
33234,64404,4
33242,64396,5
33229,64381,5
33226,64369,5
33214,64372,4
33213,64350,5
33223,64338,5
33208,64341,6
33207,64343,4
33201,64332,4
33201,64335,5
33207,64329,5
33208,64338,5
33209,64335,5
33198,64332,4
33207,64334,5
33207,64349,5
33207,64349,5
33208,64345,5
33213,64352,4
33214,64354,5
33218,64348,5
33210,64353,5
33212,64354,4
33215,64345,4
33216,64356,5
33218,64354,5
33219,64346,5
33220,64356,5
33211,64355,4
33217,64345,5
33218,64352,5
33210,64348,6
33212,64348,3
33210,64349,5
33217,64350,5
33214,64355,5
33218,64355,5
33212,64346,4
33214,64348,5
33209,64341,5
33211,64346,5
33207,64340,5
33210,64340,4
33216,64338,5
33206,64324,5
33204,64326,5
33201,64322,5
33192,64314,4
33188,64313,5
33194,64317,5
33196,64312,5
33194,64317,4
33191,64311,6
33197,64315,4
33199,64313,5
33207,64320,5
33198,64326,6
33200,64324,3
33202,64329,5
33205,64338,5
33214,64338,5
33214,64359,4
33221,64359,5
33223,64369,5
33226,64367,5
33231,64381,5
33229,64390,4
33233,64389,5
33237,64388,5
33239,64389,5
33230,64405,5
33246,64406,4
33247,64398,5
33245,64405,5
33240,64404,5
33240,64402,4
33247,64410,5
33245,64402,6
33235,64392,4
33236,64398,5
33252,64401,4
33234,64387,5
33242,64388,5
33221,64392,5
33234,64389,5
33231,64383,4
33243,64389,5
33234,64389,5
33234,64385,5
33228,64371,5
33240,64376,4
33227,64378,5
33229,64375,5
33224,64372,5
33226,64363,5
33215,64365,4
33223,64367,5
33217,64369,5
33210,64365,5
33212,64362,4
33221,64366,5
33222,64358,5
33217,64357,6
33220,64360,4
33218,64367,4
33212,64354,5
33224,64352,5
33222,64354,5
33218,64357,5
33212,64347,4
33204,64340,5
33201,64320,5
33192,64302,5
33183,64292,5
33168,64275,4
33155,64256,5
33156,64253,5
33155,64245,5
33143,64243,5
33142,64236,4
33152,64249,5
33143,64241,5
33157,64254,5
33161,64256,5
33161,64283,4
33178,64289,5
33181,64300,5
33187,64311,6
33195,64339,3
33208,64347,5
33217,64363,5
33210,64353,5
33207,64335,5
33201,64322,4
33199,64316,5
33183,64299,5
33185,64296,5
33178,64287,5
33184,64283,4
33177,64297,5
33178,64299,5
33187,64300,5
33183,64293,5
33186,64304,4
33195,64323,5
33206,64329,5
33205,64335,5
33208,64350,4
33217,64348,6
33226,64358,4
33222,64373,5
33229,64372,5
33235,64376,4
33233,64379,5
33228,64381,5
33232,64381,5
33240,64386,5
33233,64374,4
33235,64376,5
33230,64386,5
33233,64376,5
33225,64380,5
33226,64381,4
33232,64376,5
33229,64375,5
33230,64376,5
33230,64384,5
33229,64371,4
33227,64369,5
33237,64378,5
33229,64379,5
33219,64365,4
33227,64362,4
33234,64363,6
33218,64362,4
33224,64366,5
33222,64367,4
33233,64351,5
33216,64354,5
33217,64363,5
33216,64354,5
33223,64353,4
33215,64352,5
33225,64368,5
33219,64360,5
33218,64366,5
33232,64380,4
33234,64386,5
33243,64392,5
33243,64411,5
33239,64408,5
33252,64421,4
33261,64429,5
33267,64446,5
33274,64456,5
33271,64462,4
33273,64457,4
33283,64479,5
33286,64480,6
33289,64497,4
33298,64498,4
33306,64502,5
33298,64511,5
33307,64519,5
33301,64519,5
33311,64519,4
33310,64515,5
33308,64518,5
33313,64516,5
33309,64519,5
33305,64513,4
33298,64510,5
33306,64514,5
33297,64502,5
33296,64493,5
33281,64490,4
33281,64488,5
33279,64465,5
33276,64458,5
33262,64458,5
33276,64452,6
33274,64450,3
