RED,IR,EKG,TIME
41576,78737,7
41565,78733,5
41563,78720,5
41529,78714,5
41526,78704,8
41533,78688,5
41526,78700,5
41536,78675,8
41526,78658,5
41528,78676,5
41511,78679,8
41538,78679,5
41533,78697,5
41539,78705,5
41556,78734,8
41556,78734,5
41556,78737,5
41576,78744,8
41566,78764,5
41567,78728,5
41523,78661,5
41514,78644,8
41514,78628,5
41530,78609,5
41471,78581,8
41471,78580,5
41471,78578,5
41504,78622,8
41504,78622,5
41511,78683,5
41522,78670,5
41524,78647,8
41533,78674,5
41546,78712,5
41587,78740,8
41562,78748,5
41553,78743,5
41592,78782,5
41601,78795,8
41615,78816,5
41615,78806,5
41626,78848,8
41626,78848,5
41626,78812,5
41625,78843,5
41631,78865,8
41626,78856,5
41631,78864,5
41627,78864,8
41625,78882,5
41636,78878,5
41628,78849,8
41622,78829,5
41628,78859,5
41623,78843,5
41607,78822,8
41607,78822,5
41614,78826,5
41606,78825,8
41600,78812,5
41610,78822,5
41613,78861,5
41623,78866,8
41633,78839,5
41632,78846,5
41642,78882,8
41702,78976,5
41702,78976,5
41706,79001,8
41723,79017,5
41715,79036,5
41731,79058,5
41752,79075,8
41758,79082,5
41753,79081,5
41752,79040,8
41636,78878,5
41747,79064,5
41745,79060,5
41697,78983,8
41697,78983,5
41694,78956,5
41679,78941,8
41674,78938,5
41680,78944,5
41677,78942,8
41658,78914,5
41670,78932,5
41672,78938,5
41678,78938,8
41680,78941,5
41662,78948,5
41676,78922,8
41676,78922,5
41653,78886,5
41634,78884,5
41654,78856,8
41606,78839,5
41605,78815,5
41604,78822,8
41604,78811,5
41606,78818,5
41602,78820,8
41601,78814,5
41616,78818,5
41609,78831,5
41617,78856,3
41615,78812,1
41611,78816,5
41628,78851,5
41603,78849,5
41620,78862,5
41627,78864,4
41632,78859,5
41632,78867,5
41637,78871,5
41635,78875,5
41632,78878,4
41629,78867,6
41625,78867,4
41632,78864,5
41627,78864,4
41628,78857,4
41630,78855,5
41624,78853,5
41623,78853,5
41626,78863,4
41641,78865,5
41633,78857,5
41617,78843,5
41621,78837,5
41611,78827,4
41607,78813,5
41608,78808,5
41579,78790,5
41578,78770,5
41573,78763,4
41566,78741,5
41531,78723,5
41543,78698,5
41539,78689,5
41530,78668,4
41492,78642,5
41506,78637,5
41500,78618,5
41483,78610,5
41491,78595,4
41472,78591,5
41482,78584,5
41471,78586,5
41486,78576,4
41462,78575,5
41468,78568,5
41468,78575,5
41487,78572,5
41469,78576,4
41473,78580,5
41471,78585,5
41481,78585,5
41468,78589,5
41472,78592,4
41468,78581,5
41463,78562,5
41462,78564,5
41466,78566,5
41450,78539,4
41434,78498,5
41418,78485,5
41399,78458,5
41383,78425,5
41360,78356,4
41333,78340,5
41313,78298,5
41296,78261,5
41279,78230,4
41281,78231,4
41258,78226,5
41263,78225,5
41261,78219,5
41251,78206,4
41261,78208,5
41256,78205,5
41250,78218,5
41254,78198,5
41257,78195,4
41262,78216,5
41251,78236,4
41265,78201,5
41247,78177,5
41208,78117,5
41185,78075,3
41166,78053,5
41156,78029,5
41135,78006,5
41134,77996,4
41137,77990,5
41122,77984,5
41130,77976,5
41128,77979,5
41116,77966,4
41115,77956,5
41114,77956,5
41114,77944,5
41107,77954,4
41112,77953,5
41114,77953,5
41109,77955,5
41123,77962,5
41122,77974,4
41127,77970,5
41123,77961,6
41121,77982,4
41125,77980,5
41119,77975,4
41128,77976,7
41121,77972,3
41124,77975,5
41133,77974,5
41131,77981,4
41123,77979,5
41133,77975,5
41128,77979,5
41131,77985,5
41135,77989,4
41140,77984,5
41130,77977,5
41132,77974,5
41123,77971,4
41124,77956,4
41113,77957,5
41115,77943,5
41114,77945,5
41108,77936,4
41107,77927,5
41104,77925,5
41093,77913,6
41096,77914,4
41085,77910,4
41077,77891,5
41071,77884,5
41071,77881,5
41074,77892,5
41076,77891,4
41070,77889,5
41072,77887,5
41074,77876,5
41079,77887,5
41086,77900,4
41088,77908,5
41092,77907,5
41093,77917,5
41100,77918,4
41100,77929,4
41106,77934,5
41113,77930,5
41110,77947,5
41116,77948,5
41119,77953,4
41116,77959,5
41129,77970,5
41131,77970,6
41131,77974,3
41132,77982,5
41129,77981,5
41139,77975,5
41142,77991,5
41129,77984,4
41133,77987,5
41137,77982,5
41123,77977,5
41128,77978,5
41126,77969,4
41120,77963,5
41128,77960,5
41124,77957,5
41117,77959,5
41116,77955,4
41120,77954,5
41108,77938,5
41108,77951,5
41099,77942,4
41102,77934,6
41101,77924,4
41083,77912,5
41095,77899,5
41075,77874,6
41057,77848,3
41018,77813,5
41018,77786,5
41005,77763,5
40996,77734,7
40968,77722,2
40977,77714,5
40966,77697,5
40975,77704,5
40991,77714,4
40988,77720,5
40990,77741,5
41004,77753,5
41021,77768,5
41012,77786,4
41027,77812,5
41044,77819,5
41065,77830,5
41044,77840,4
41058,77844,4
41053,77850,6
41076,77865,4
41073,77864,5
41062,77843,4
41030,77793,5
41003,77744,5
40982,77722,5
40969,77704,5
40957,77690,4
40949,77657,5
40947,77663,5
40946,77667,5
40949,77660,5
40952,77642,4
40946,77659,5
40952,77668,5
40960,77681,5
40963,77673,5
40966,77694,4
40960,77702,5
40968,77704,5
40967,77714,5
40980,77713,5
40989,77728,4
40981,77730,5
40986,77756,6
40992,77736,4
40994,77749,4
41001,77752,5
41001,77772,5
40996,77751,5
41004,77757,5
40996,77753,4
40996,77764,5
41003,77755,5
40992,77754,5
41010,77758,5
41002,77756,4
40999,77762,5
41011,77764,5
41005,77754,5
41008,77754,5
40996,77754,4
41002,77758,5
41000,77756,5
41003,77744,5
40998,77745,5
40998,77747,4
40996,77734,5
40997,77739,5
40989,77721,6
40982,77717,3
40980,77724,4
40982,77719,5
40978,77723,5
40989,77710,5
40975,77725,4
40978,77724,5
40976,77724,5
40977,77730,5
40989,77733,5
40992,77731,4
40995,77743,5
41000,77748,5
41002,77756,5
41010,77761,5
41027,77769,4
41019,77784,5
41037,77794,5
41028,77802,5
41039,77813,5
41041,77817,5
41038,77826,4
41049,77834,5
41050,77838,5
41057,77835,5
41066,77847,4
41055,77847,5
41060,77857,5
41059,77859,5
41062,77859,4
41056,77865,5
41064,77853,5
41056,77847,5
41063,77850,5
41060,77839,4
41057,77837,5
41048,77845,5
41057,77841,5
41058,77839,5
41044,77838,4
41052,77845,5
41045,77831,5
41049,77830,5
41045,77821,5
41042,77819,4
41046,77824,6
41047,77819,4
41047,77820,5
41043,77811,5
41037,77805,4
41022,77795,5
41026,77782,5
41004,77752,5
40997,77732,4
40977,77703,4
40974,77689,5
40962,77671,5
40952,77651,5
40943,77644,4
40950,77638,5
40943,77639,5
40941,77644,5
40952,77646,5
40954,77665,4
40963,77674,5
40971,77699,5
40976,77707,5
40994,77742,5
41000,77746,4
41002,77756,5
41006,77771,6
41014,77771,4
41020,77774,5
41027,77790,4
41022,77778,5
40995,77744,5
40976,77706,5
40958,77672,5
40946,77663,4
40922,77651,5
40945,77640,5
40938,77636,5
40936,77635,4
40916,77625,5
40926,77639,5
40943,77629,5
40934,77641,5
40955,77649,4
40953,77658,5
40959,77678,5
40960,77700,5
40998,77703,5
40979,77710,4
40984,77720,5
40984,77742,5
41020,77745,5
41006,77752,5
41012,77767,4
41018,77772,5
41026,77776,5
41026,77779,5
41014,77784,5
41026,77787,4
41030,77794,5
41029,77790,5
41027,77793,5
41034,77795,4
41018,77782,4
41026,77803,5
41030,77809,5
41035,77810,5
41029,77794,4
41036,77798,5
41028,77800,5
41033,77799,5
41037,77789,5
41033,77809,5
41028,77796,4
41023,77781,5
41027,77793,5
41023,77780,5
41017,77776,4
41020,77788,5
41022,77806,5
41022,77794,5
41021,77791,5
41023,77798,4
41034,77821,5
41030,77794,5
41043,77815,5
41056,77816,5
41047,77838,4
41055,77848,5
41068,77846,5
41065,77866,5
41077,77869,4
41088,77881,5
41094,77911,5
41107,77925,5
41110,77931,5
41115,77936,4
41121,77958,6
41129,77966,4
41121,77970,5
41136,77973,5
41140,77993,4
41146,77999,5
41153,78010,5
41150,78015,5
41155,78031,5
41164,78027,4
41165,78028,5
41163,78028,5
41163,78020,5
41157,78028,5
41160,78020,4
41156,78028,5
41160,78020,5
41155,78011,5
41147,78003,4
41151,78009,4
41155,78005,5
41150,78004,6
41152,78001,4
41144,77998,4
41150,77992,5
41139,77977,5
41140,77981,5
41133,77984,5
41131,77984,4
41136,77981,5
41141,77979,5
41133,77971,5
41129,77964,5
41126,77963,4
41132,77960,5
41126,77965,5
41108,77937,5
41108,77923,5
41103,77917,4
41091,77892,5
41082,77881,5
41069,77864,5
41056,77842,5
41048,77831,4
41053,77838,5
41042,77830,5
41042,77821,6
41056,77835,3
41055,77842,5
41058,77855,5
41066,77872,5
41092,77896,5
41083,77909,4
41097,77917,5
41102,77924,5
41101,77930,5
41110,77944,5
41112,77944,4
41116,77942,5
41109,77935,5
41108,77931,5
41103,77907,5
41074,77856,4
41042,77820,5
41038,77804,5
41031,77794,5
41020,77789,5
41022,77780,5
41025,77776,4
41016,77770,5
41014,77778,5
41019,77780,6
41020,77791,3
41042,77805,5
41038,77805,5
41045,77821,5
41051,77837,4
41064,77851,5
41069,77857,5
41071,77880,5
41075,77884,5
41085,77888,4
41093,77903,5
41070,77901,5
41092,77914,5
41096,77903,5
41103,77908,4
41081,77904,5
41100,77904,5
41094,77909,5
41091,77897,5
41081,77901,4
41103,77907,6
41095,77908,4
41094,77914,5
41114,77921,4
41098,77920,4
41098,77913,5
41096,77900,5
41113,77896,5
41091,77889,4
41083,77885,5
41087,77881,5
41095,77869,5
41077,77861,5
41074,77863,4
41064,77849,5
41070,77847,5
41066,77844,5
41067,77853,5
41070,77860,4
41073,77841,5
41071,77853,5
41067,77863,5
41078,77876,5
41079,77857,4
41077,77883,5
41085,77895,6
41089,77906,4
41098,77904,5
41101,77927,4
41113,77939,5
41124,77957,5
41128,77969,5
41137,77979,4
41146,77997,5
41149,78006,5
41154,78028,5
41164,78023,5
41165,78041,4
41164,78040,5
41172,78067,5
41178,78061,5
41182,78064,5
41187,78059,4
41190,78076,5
41188,78058,5
41182,78062,5
41179,78068,5
41186,78074,4
41176,78062,5
41176,78062,5
41175,78051,6
41178,78049,4
41178,78039,4
41168,78038,5
41159,78023,5
41160,78002,5
41140,77996,4
41137,77969,4
41127,77953,5
41121,77949,5
41105,77923,5
41106,77917,4
41103,77907,5
41099,77913,5
41090,77905,5
41100,77918,5
41108,77923,4
41101,77926,5
41097,77930,5
41110,77949,5
41115,77956,5
41124,77958,5
41127,77962,4
41133,77968,5
41132,77973,5
41134,77972,6
41132,77973,3
41132,77973,5
41130,77952,5
41107,77921,5
41073,77869,4
41071,77856,4
41060,77841,5
41054,77830,5
41046,77836,5
41045,77827,4
41051,77832,5
41061,77855,5
41058,77866,5
41065,77871,5
41075,77872,4
41078,77886,5
41101,77907,5
41112,77922,5
41113,77937,5
41120,77963,4
41128,77972,6
41135,77985,4
41139,78002,5
41145,78003,5
41159,78017,4
41154,78019,5
41165,78034,5
41161,78045,5
41172,78044,5
41177,78034,4
41175,78046,5
41179,78046,5
41173,78040,5
41172,78040,4
41179,78053,5
41177,78065,5
41193,78061,5
41182,78060,5
41185,78062,4
41183,78056,5
41173,78047,5
41174,78029,10
41174,78029,4
41172,78032,5
41165,78027,6
41166,78035,4
41164,78021,5
41169,78038,4
41175,78037,5
41172,78040,5
41169,78045,5
41179,78051,5
41187,78063,4
41187,78072,5
41204,78090,5
41208,78103,5
41222,78125,4
41219,78155,4
41238,78164,5
41248,78196,5
41270,78212,5
41267,78237,4
41294,78246,5
41311,78270,5
41317,78294,5
41301,78302,5
41327,78311,4
41329,78322,5
41342,78326,5
41352,78334,6
41346,78343,4
41356,78352,4
41358,78346,5
41368,78358,5
41350,78342,5
41345,78344,5
41341,78319,4
41353,78316,5
41320,78297,5
41313,78290,5
41311,78270,4
41312,78262,4
41291,78260,5
41294,78253,5
41298,78248,5
41296,78249,4
41296,78259,5
41305,78257,5
41303,78273,5
41308,78261,5
41303,78278,5
41318,78286,4
41321,78288,5
41318,78273,5
41314,78302,5
41323,78310,4
41326,78310,5
41325,78296,5
41319,78296,5
41309,78258,5
41284,78232,4
41277,78215,5
41261,78193,5
41247,78180,5
41257,78188,5
41250,78204,4
41255,78188,5
41256,78194,5
41261,78201,5
41270,78227,4
41269,78221,5
41283,78245,5
41291,78269,5
41308,78298,5
41316,78302,4
41330,78313,6
41344,78335,4
41353,78360,5
41361,78378,5
41365,78390,4
41382,78406,5
41394,78421,5
41390,78425,5
41395,78434,5
41399,78445,4
41412,78453,5
41406,78453,5
41411,78462,5
41414,78453,5
41408,78459,4
41408,78486,5
41433,78500,5
41434,78501,5
41429,78493,4
41429,78485,4
41428,78493,5
41422,78481,5
41416,78471,5
41416,78480,4
41421,78467,5
41424,78475,6
41417,78464,4
41419,78452,5
41415,78460,4
41411,78459,5
41410,78443,5
41403,78450,5
41403,78447,5
41412,78460,4
41414,78465,5
41418,78467,5
41425,78483,5
41419,78498,5
41441,78518,4
41452,78526,5
41457,78550,5
41482,78571,5
41488,78598,4
41509,78624,4
41525,78649,5
41535,78670,5
41540,78699,5
41553,78703,4
41557,78724,5
41570,78735,5
41582,78748,5
41583,78770,5
41594,78767,4
41599,78775,5
41595,78787,5
41601,78791,5
41600,78798,5
41601,78798,4
41599,78785,5
41597,78776,5
41595,78765,5
41573,78752,5
41570,78734,4
41556,78706,5
41551,78698,5
41539,78677,5
41523,78664,5
41526,78656,4
41524,78652,4
41524,78653,5
41523,78649,5
41526,78664,5
41525,78666,3
41538,78670,5
41540,78675,5
41530,78683,5
41546,78687,4
41553,78712,5
41562,78714,5
41563,78715,5
41561,78723,5
41552,78699,4
41535,78670,5
41517,78645,5
41513,78630,5
41501,78625,5
41492,78614,4
41489,78611,5
41513,78609,5
41496,78615,5
41498,78615,5
41492,78625,4
41506,78626,6
41515,78633,4
41525,78650,5
41515,78654,4
41528,78673,6
41534,78683,3
41549,78681,5
41547,78699,5
41554,78718,4
41562,78721,5
41570,78731,5
41588,78736,5
41570,78743,5
41575,78742,4
41569,78737,5
41595,78743,5
41575,78738,5
41574,78738,5
41573,78725,4
41577,78727,5
41553,78727,5
41569,78732,5
41572,78723,5
41581,78736,4
41575,78736,5
41563,78733,6
41558,78726,4
41561,78705,4
41547,78704,4
41549,78703,5
41539,78691,5
41544,78672,5
41537,78671,4
41538,78667,5
41514,78648,5
41515,78607,5
41509,78618,5
41499,78603,4
41491,78589,5
41483,78579,5
41483,78583,5
41478,78578,5
41482,78577,4
41484,78587,5
41490,78584,5
41489,78596,5
41492,78591,5
41486,78626,4
41495,78609,5
41501,78614,5
41505,78626,6
41510,78645,4
41512,78628,4
41520,78644,5
41517,78638,5
41515,78640,5
41517,78639,4
41516,78649,5
41514,78642,5
41513,78640,5
41514,78638,5
41521,78627,4
41507,78629,5
41501,78622,5
41507,78619,5
41500,78607,5
41496,78604,4
41498,78599,5
41496,78593,5
41478,78587,5
41474,78565,5
41466,78557,5
41456,78530,4
41449,78520,5
41437,78484,5
41415,78451,6
41385,78407,3
41369,78369,5
41341,78341,5
41317,78298,5
41308,78250,4
41280,78228,4
41266,78199,5
41260,78192,5
41254,78183,5
41252,78184,4
41252,78179,5
41252,78195,5
41264,78204,5
41261,78207,5
41276,78211,4
41273,78214,5
41272,78227,5
41287,78229,5
41285,78237,5
41285,78234,4
41292,78249,6
41297,78253,4
41282,78227,5
41262,78180,5
41220,78128,4
41212,78106,5
41192,78072,5
41180,78047,5
41166,78037,5
41151,78020,4
41152,78009,5
41142,78003,5
41148,78005,5
41140,77999,4
41146,77990,5
41147,77999,5
41151,77993,5
41151,78000,5
41157,78009,4
41161,78016,5
41160,78019,5
41159,78031,5
41156,78032,5
41170,78040,4
41160,78040,5
41174,78048,6
41177,78037,4
41172,78037,5
41164,78039,4
41179,78042,5
41167,78032,5
41168,78035,5
41172,78033,5
41164,78030,4
41163,78024,5
41164,78029,5
41165,78033,5
41159,78041,4
41165,78029,4
41170,78034,5
41168,78027,5
41160,78009,5
41146,78015,4
41146,78002,5
41149,78001,5
41139,77989,5
41138,77974,5
41127,77973,4
41110,77958,5
41124,77944,5
41109,77935,6
41103,77923,4
41083,77911,4
41098,77903,5
41099,77893,5
41088,77891,5
41061,77886,5
41083,77875,4
41083,77877,5
41084,77881,5
41091,77882,5
41082,77891,4
41085,77890,4
41091,77889,5
41115,77902,5
41095,77907,5
41100,77911,4
41105,77919,5
41131,77921,5
41105,77929,5
41113,77931,5
41119,77935,5
41115,77934,4
41122,77944,5
41126,77949,5
41125,77949,5
41122,77957,4
41130,77957,5
41132,77961,5
41117,77945,5
41131,77938,5
41119,77953,4
41120,77951,5
41117,77938,5
41111,77928,5
41112,77931,5
41116,77923,4
41105,77926,5
41098,77900,5
41095,77902,5
41082,77882,4
41072,77855,5
41061,77841,5
41045,77806,5
41028,77767,5
41004,77736,4
40977,77728,6
40974,77688,4
40965,77669,5
40949,77661,5
40953,77678,4
40952,77654,5
40961,77669,5
40967,77683,5
40970,77697,5
40974,77699,4
40984,77719,5
40991,77729,5
40996,77752,5
41017,77759,5
41017,77763,4
41017,77775,5
41013,77767,5
41032,77783,5
41023,77778,4
41021,77765,4
41015,77732,5
40965,77673,5
40951,77645,5
40941,77624,4
40928,77607,5
40920,77589,6
40910,77580,4
40906,77578,5
40905,77576,4
40903,77576,5
40913,77565,5
40908,77573,5
40905,77590,5
40919,77595,4
40925,77592,5
40930,77614,5
40927,77620,5
40931,77635,5
40935,77633,4
40945,77647,5
40958,77652,5
40950,77665,5
40960,77659,5
40954,77674,4
40961,77680,5
40961,77676,5
40968,77672,5
40967,77683,4
40964,77688,5
40976,77695,5
40969,77688,5
40976,77682,5
40979,77695,4
40974,77699,5
40977,77716,5
40985,77707,5
40987,77706,5
40988,77697,4
40974,77691,5
40970,77678,8
40967,77679,2
40990,77679,5
40963,77666,4
40955,77669,5
40959,77669,5
40955,77658,5
40956,77654,5
40955,77650,4
40950,77644,5
40948,77643,5
40943,77646,5
40949,77650,5
40939,77655,4
40950,77661,5
40952,77649,5
40953,77657,5
40955,77660,4
40960,77670,5
40959,77679,5
40977,77693,5
40972,77704,5
40979,77712,4
40991,77708,5
40997,77725,5
41008,77740,5
41008,77747,5
41014,77760,4
41022,77765,5
41017,77772,5
41027,77784,5
41028,77779,5
41035,77801,4
41036,77803,5
41034,77809,5
41039,77808,5
41038,77809,4
41040,77805,5
41034,77809,4
41045,77799,5
41046,77800,5
41039,77795,4
41014,77800,5
41037,77795,5
41028,77791,5
41036,77785,5
41006,77782,4
41028,77772,5
41018,77777,5
41019,77775,5
41025,77770,5
41022,77763,4
41018,77755,5
41018,77755,5
41024,77760,5
41010,77764,5
41012,77746,4
41012,77759,5
41026,77744,6
41010,77744,4
41009,77741,4
41003,77744,4
41019,77736,5
40998,77735,5
40999,77728,5
40998,77733,4
40995,77728,5
41001,77723,5
41000,77720,5
40990,77712,5
40988,77695,4
40969,77683,5
40965,77674,5
40951,77639,5
40939,77626,5
40937,77613,4
40923,77602,5
40915,77591,5
40915,77577,5
40913,77580,5
40909,77595,4
40927,77602,5
40928,77616,5
40941,77635,6
40945,77647,4
40965,77671,4
40976,77696,5
40978,77693,5
40986,77710,5
40992,77722,4
40990,77750,5
40997,77731,5
40992,77732,5
40999,77730,5
40999,77741,4
40986,77689,5
40956,77641,5
40920,77600,5
40920,77584,5
40907,77562,4
40896,77566,5
40896,77551,5
40887,77556,5
40887,77551,5
40888,77549,5
40896,77560,4
40902,77574,5
40900,77574,5
40911,77588,6
40925,77588,3
40926,77613,5
40928,77625,5
40943,77643,5
40940,77635,4
40961,77664,4
40960,77666,5
40966,77684,5
40977,77694,5
40980,77707,4
40982,77703,5
40982,77708,5
40985,77715,5
40991,77715,5
40993,77720,4
40995,77728,5
40998,77731,5
40991,77731,5
40997,77726,5
40993,77723,4
40998,77739,6
41002,77742,4
41012,77738,5
40997,77744,5
41005,77744,6
41011,77734,3
40995,77729,5
40993,77727,5
40991,77737,4
41001,77723,4
40998,77726,5
40997,77727,5
40995,77720,5
40988,77724,4
40997,77724,5
40992,77729,5
40996,77723,5
40998,77736,5
41005,77742,4
40999,77744,5
41010,77741,5
41011,77758,5
41020,77761,5
41022,77777,4
41019,77787,5
41029,77789,6
41042,77812,4
41044,77823,5
41066,77844,4
41065,77853,5
41072,77866,5
41082,77886,5
41096,77892,5
41096,77912,4
41106,77912,5
41114,77922,5
41117,77933,5
41128,77944,4
41131,77951,5
41132,77960,5
41135,77969,5
41132,77963,5
41141,77966,4
41134,77985,5
41136,77970,5
41146,77981,5
41143,77983,5
41134,77977,4
41137,77969,5
41140,77978,5
41137,77977,6
41139,77966,4
41139,77967,4
41138,77966,5
41128,77963,5
41128,77950,5
41139,77963,5
41127,77949,4
41113,77963,5
41125,77954,5
41126,77947,5
41121,77940,4
41095,77925,4
41103,77912,5
41090,77903,5
41088,77877,5
41056,77873,4
41076,77861,5
41074,77852,5
41077,77840,5
41070,77841,5
41068,77845,5
41074,77848,4
41070,77869,5
41094,77883,5
41088,77904,6
41098,77903,3
41100,77916,5
41132,77933,5
41116,77944,5
41117,77948,5
41133,77945,4
41131,77944,5
41114,77942,5
41120,77935,5
41115,77935,5
41104,77912,4
41084,77859,5
41050,77829,5
41051,77809,5
41028,77776,4
41031,77787,5
41037,77787,5
41033,77777,5
41035,77774,5
41031,77798,4
41045,77802,6
41046,77810,4
41060,77793,5
41049,77820,5
41062,77845,4
41062,77860,5
41082,77877,5
41086,77896,5
41094,77900,5
41101,77914,4
41108,77947,5
41110,77927,5
41113,77932,5
41110,77942,5
41117,77963,4
41121,77939,5
41119,77932,5
41117,77944,5
41121,77958,4
41119,77954,5
41125,77954,5
41115,77939,5
41121,77943,5
41125,77954,4
41133,77970,5
41132,77957,6
41127,77958,4
41122,77947,5
41119,77942,4
41121,77944,5
41108,77936,5
41121,77939,5
41118,77930,5
41111,77913,4
41106,77918,5
41104,77909,5
41097,77906,5
41106,77911,5
41099,77907,4
41098,77905,5
41097,77902,5
41102,77911,5
41104,77916,4
41117,77926,5
41107,77926,5
41117,77930,5
41114,77938,5
41120,77953,4
41133,77971,5
41143,77977,5
41149,77998,6
41152,78005,4
41158,78018,4
41168,78032,5
41175,78042,5
41183,78051,5
41184,78053,5
41185,78064,4
41194,78067,5
41184,78076,5
41201,78082,5
41197,78074,5
41198,78088,4
41204,78087,5
41198,78091,5
41195,78085,5
41200,78086,4
41202,78083,5
41202,78078,5
41195,78080,5
41193,78067,5
41198,78071,5
41187,78066,4
41197,78063,5
41189,78060,5
41194,78062,5
41188,78048,4
41185,78048,5
41182,78035,5
41171,78034,5
41168,78025,5
41161,78008,4
41147,77995,5
41138,77973,5
41127,77963,5
41126,77949,5
41113,77927,4
41110,77921,5
41102,77920,5
41105,77907,5
41102,77908,4
41100,77914,5
41105,77919,5
41107,77928,5
41116,77936,5
41111,77955,4
41127,77953,6
41136,77963,4
41130,77967,5
41129,77967,5
41140,77960,4
41140,77963,5
41122,77953,5
41120,77956,5
41099,77897,5
41075,77852,4
41059,77839,5
41044,77823,5
41050,77827,5
41046,77817,5
41040,77825,4
41032,77815,5
41041,77823,5
41049,77825,5
41062,77836,4
41041,77853,5
41072,77865,5
41074,77878,5
41085,77882,5
41101,77912,4
41102,77920,5
41105,77926,6
41120,77937,4
41141,77959,5
41136,77971,4
41146,77988,5
41147,77991,5
41171,78000,5
41157,78005,5
41155,78006,4
41162,78010,5
41173,78027,5
41167,78022,5
41169,78023,5
41163,78034,4
41178,78038,5
41174,78041,5
41175,78055,5
41184,78048,4
41176,78026,5
41179,78031,5
41178,78030,5
41170,78023,5
41169,78013,4
41164,78021,5
41162,78030,5
41158,78018,5
41156,77996,5
41155,78010,4
41152,78008,5
41153,78003,5
41154,78002,5
41152,77997,5
41161,78012,4
41154,78008,5
41162,78034,5
41166,78021,5
41172,78042,5
41182,78051,4
41179,78081,5
41194,78071,5
41196,78094,5
41215,78112,4
41222,78138,5
41232,78150,4
41243,78170,5
41264,78181,5
41270,78198,6
41279,78212,3
41283,78225,5
41295,78239,5
41292,78254,5
41299,78263,4
41309,78281,5
41322,78290,5
41315,78290,5
41321,78293,5
41339,78312,4
41324,78313,5
41319,78314,5
41331,78297,5
41320,78301,5
41317,78295,4
41308,78266,5
41298,78253,5
41293,78242,5
41290,78229,4
41275,78221,5
41273,78210,6
41272,78201,4
41277,78204,5
41269,78195,4
41276,78201,12
41276,78212,3
41272,78221,5
41274,78226,4
41291,78237,5
41291,78249,5
41305,78247,5
41299,78258,5
41297,78265,4
41304,78259,5
41300,78275,5
41306,78268,5
41309,78253,5
41278,78202,4
41258,78165,5
41231,78150,5
41231,78147,5
41236,78128,4
41221,78126,5
41226,78129,5
41225,78139,6
41228,78141,4
41237,78145,4
41250,78164,5
41257,78172,5
41265,78194,5
41274,78207,5
41283,78236,4
41289,78242,5
41299,78269,5
41312,78285,5
41323,78305,5
41334,78320,4
41348,78336,5
41350,78360,5
41351,78364,5
41368,78374,5
41371,78370,4
41376,78389,5
41370,78391,5
41372,78399,5
41382,78402,5
41378,78392,4
41371,78392,5
41386,78408,5
41383,78423,6
41408,78437,3
41405,78435,5
41390,78420,5
41386,78424,5
41397,78415,5
41386,78411,4
41381,78402,5
41391,78400,5
41388,78400,5
41377,78399,5
41379,78393,4
41364,78379,5
41367,78370,5
41372,78364,5
41354,78364,5
41363,78364,4
41361,78376,5
41366,78372,5
41347,78377,5
41371,78377,4
41373,78395,6
41393,78408,4
41375,78430,5
41403,78443,5
41415,78468,6
41430,78486,3
41443,78498,5
41449,78525,5
41464,78549,5
41472,78567,4
41506,78586,5
41494,78617,5
41510,78629,5
41519,78638,5
41544,78655,4
41530,78657,5
41534,78672,5
41541,78674,5
41548,78679,5
41536,78662,4
41532,78658,5
41522,78644,5
41523,78624,5
41510,78615,4
41504,78600,5
41490,78578,6
41476,78565,4
41490,78568,5
41482,78556,4
41466,78548,5
41467,78536,5
41476,78563,5
41471,78577,5
41495,78578,4
41490,78561,5
41485,78587,5
41507,78602,5
41503,78626,5
41511,78631,4
41511,78631,5
41521,78647,5
41499,78612,5
41489,78588,5
41468,78543,4
41454,78538,5
41457,78521,5
41442,78539,5
41452,78511,4
41440,78518,5
41447,78519,5
41448,78527,6
41454,78521,4
41456,78533,4
41462,78537,5
41462,78555,5
41480,78565,5
41480,78578,5
41496,78598,4
41493,78607,5
41511,78623,5
41518,78646,5
41521,78661,5
41531,78666,4
41540,78681,5
41537,78690,5
41555,78688,5
41551,78697,5
41555,78705,4
41555,78709,5
41555,78708,5
41557,78712,5
41559,78708,5
41564,78703,4
41558,78717,5
41560,78719,5
41578,78742,6
41586,78748,3
41564,78749,5
41575,78742,5
41572,78739,5
41572,78727,5
41568,78726,4
41558,78718,5
41563,78710,5
41561,78711,5
41555,78702,5
41557,78703,4
41553,78692,5
41543,78685,5
41544,78681,5
41538,78676,5
41533,78679,4
41534,78679,5
41541,78679,5
41540,78671,5
41543,78675,4
41538,78688,6
41554,78691,4
41549,78714,5
41560,78712,5
41563,78717,4
41577,78733,5
41582,78747,5
41575,78754,5
41592,78768,5
41605,78781,4
41610,78791,5
41608,78803,5
41605,78805,5
41618,78816,5
41611,78811,4
41614,78814,5
41618,78808,5
41609,78798,5
41598,78787,5
41590,78768,4
41578,78745,5
41575,78732,5
41564,78710,5
41550,78697,4
41538,78678,5
41537,78660,6
41532,78655,4
41521,78649,5
41525,78650,4
41520,78643,5
41515,78645,5
41519,78646,5
41516,78648,5
41526,78659,4
41521,78653,5
41527,78657,5
41532,78666,5
41529,78658,5
41521,78628,4
41482,78563,5
41458,78535,5
41439,78518,5
41443,78499,5
41415,78480,4
41417,78464,5
41407,78451,5
41413,78452,5
41387,78435,4
41407,78438,5
41402,78423,5
41397,78430,6
41380,78420,4
41391,78424,4
41396,78424,5
41399,78428,5
41400,78432,5
41405,78443,5
41395,78439,4
41403,78451,5
41424,78451,5
41398,78440,5
41405,78446,5
41406,78438,4
41424,78436,5
41393,78431,5
41395,78436,5
41396,78426,5
41410,78422,4
41390,78427,5
41386,78416,5
41388,78414,5
41389,78422,5
41399,78425,4
41392,78414,5
41387,78407,5
41385,78396,5
41372,78399,4
41373,78383,5
41370,78371,5
41359,78343,5
41352,78348,5
41336,78325,4
41333,78324,5
41314,78290,5
41319,78295,5
41310,78281,5
41301,78254,4
41286,78252,5
41286,78228,5
41275,78226,5
41270,78208,5
41269,78224,4
41267,78210,5
41261,78199,5
41272,78214,5
41271,78219,4
41263,78202,5
41271,78204,4
41277,78209,5
41273,78232,5
41277,78222,4
41281,78230,5
41281,78234,5
41282,78230,5
41295,78233,5
41292,78243,4
41287,78241,5
41299,78247,5
41292,78249,5
41305,78256,5
41302,78261,4
41304,78266,5
41306,78260,5
41301,78266,5
41303,78263,5
41306,78261,4
41308,78259,5
41301,78257,5
41298,78248,5
41299,78252,4
41293,78252,4
41291,78242,6
41292,78236,4
41279,78233,5
41270,78220,4
41279,78217,5
41266,78207,5
41264,78193,5
41259,78193,5
41251,78164,4
41235,78144,5
41218,78105,5
41195,78068,5
41170,78020,5
41145,77978,4
41125,77943,5
41110,77928,5
41099,77888,5
41086,77886,5
41082,77888,4
41084,77885,5
41098,77894,5
41102,77919,6
41105,77926,4
41117,77934,4
41120,77955,5
41135,77973,5
41135,77988,5
41156,77990,4
41135,77994,5
41154,77996,5
41162,78007,5
41167,78028,5
41167,78017,4
41149,77982,5
41120,77926,5
41085,77887,5
41075,77874,5
41072,77854,4
41061,77841,5
41060,77837,5
41051,77812,5
41046,77822,5
41049,77823,5
41047,77821,4
41046,77826,5
41044,77828,5
41053,77828,6
41053,77833,3
41066,77847,5
41069,77849,5
41072,77860,5
41081,77869,4
41074,77869,4
41072,77880,5
41083,77888,5
41083,77899,5
41088,77901,4
41091,77890,5
41100,77901,5
41095,77897,5
41089,77904,5
41095,77898,4
41101,77900,5
41094,77900,5
41093,77892,5
41086,77899,5
41090,77895,4
41091,77905,6
41103,77899,4
41104,77899,5
41094,77898,5
41081,77891,6
41091,77896,3
41086,77889,5
41087,77887,5
41063,77880,5
41081,77880,4
41087,77871,5
41073,77863,5
41056,77852,5
41064,77843,4
41070,77842,5
41050,77837,5
41060,77835,5
41050,77832,5
41051,77821,4
41045,77818,5
41073,77827,5
41050,77822,5
41052,77820,5
41051,77828,4
41072,77835,5
41063,77832,6
41061,77841,4
41057,77845,5
41066,77854,4
41074,77860,5
41074,77862,5
41080,77874,5
41079,77879,5
41088,77883,4
41090,77880,5
41085,77883,5
41091,77874,5
41095,77902,4
41101,77890,5
41095,77902,5
41098,77880,5
41103,77901,5
41099,77903,4
41093,77900,5
41100,77887,5
41093,77893,5
41094,77897,5
41090,77881,4
41089,77901,5
41087,77879,5
41080,77869,6
41084,77876,4
41076,77892,4
41074,77853,5
41069,77858,5
41067,77842,5
41067,77854,5
41052,77841,4
41052,77828,5
41049,77825,5
41054,77824,5
41044,77824,4
41049,77817,4
41049,77815,5
41042,77810,5
41045,77809,5
41036,77802,4
41042,77798,10
41038,77794,5
41032,77782,5
41023,77746,5
41008,77733,4
40992,77718,5
40977,77690,5
40958,77654,6
40940,77643,3
40939,77624,5
40931,77603,5
40924,77603,5
40933,77610,5
40927,77621,4
40930,77627,5
40945,77633,5
40954,77662,5
40968,77682,5
40974,77686,4
40980,77705,5
40993,77735,5
40997,77745,5
41008,77760,4
41025,77758,5
41012,77769,5
41017,77765,5
41028,77781,5
41020,77741,4
40994,77697,6
40963,77660,4
40949,77655,5
40950,77629,5
40944,77635,4
40945,77619,5
40936,77623,5
40940,77633,5
40937,77633,5
40940,77639,4
40947,77645,5
40948,77655,5
40963,77666,5
40973,77682,5
40977,77687,4
40981,77705,5
40996,77715,5
40998,77739,5
41011,77753,4
41011,77759,4
41020,77765,5
41024,77783,5
41031,77787,5
41033,77799,4
41037,77797,5
41038,77806,6
41038,77816,4
41054,77825,5
41061,77825,4
41062,77830,5
41059,77837,5
41069,77843,5
41059,77838,5
41060,77844,4
41068,77858,5
41068,77855,5
41069,77859,5
41068,77855,5
41060,77844,4
41064,77839,5
41056,77836,5
41061,77838,5
41057,77830,5
41055,77829,4
41052,77822,5
41044,77810,5
41048,77817,5
41050,77815,4
41038,77815,5
41043,77814,5
41047,77811,6
41052,77813,4
41048,77820,4
41056,77825,5
41055,77838,5
41064,77840,5
41063,77853,5
41075,77858,4
41063,77867,5
41085,77886,5
41092,77890,5
41106,77895,5
41084,77912,4
41106,77927,5
41115,77935,5
41117,77943,5
41130,77958,5
41132,77954,4
41141,77970,5
41137,77972,5
41158,77978,5
41149,77986,5
41153,77985,4
41142,77998,5
41173,77994,5
41161,78001,5
41163,78006,4
41160,78008,5
41170,78001,5
41159,78008,5
41156,77996,5
41150,77990,4
41149,78000,5
41150,77990,5
41142,77980,5
41145,77972,5
41135,77949,4
41129,77952,5
41120,77934,5
41102,77914,5
41096,77885,5
41091,77872,4
41075,77853,5
41068,77847,5
41062,77811,5
41052,77817,4
41046,77826,5
41042,77813,4
41051,77814,5
41055,77827,5
41054,77832,4
41061,77852,5
41065,77873,5
41064,77854,5
41068,77863,5
41081,77872,4
41080,77899,5
41077,77866,5
41087,77878,5
41083,77880,5
41079,77892,4
41060,77847,5
41050,77800,5
41018,77755,5
40999,77741,5
41004,77721,4
40985,77716,5
40989,77704,5
40983,77714,5
40981,77714,5
40980,77707,4
40988,77718,6
40991,77734,4
41002,77742,5
41008,77755,4
41022,77762,5
41030,77772,5
41035,77790,5
41039,77813,5
41054,77825,4
41060,77847,5
41072,77865,5
41076,77878,5
41081,77883,5
41086,77897,4
41096,77904,5
41099,77911,5
41100,77919,5
41124,77936,5
41118,77933,4
41115,77929,5
41127,77943,5
41121,77941,5
41120,77943,5
41121,77959,4
41128,77962,5
41131,77971,5
41127,77957,5
41130,77959,4
41129,77959,4
41135,77950,5
41130,77954,5
41120,77952,5
41120,77948,4
41124,77936,5
41117,77933,5
41110,77933,5
41111,77937,5
41117,77940,4
41120,77938,5
41121,77946,5
41112,77937,5
41127,77949,5
41122,77945,4
41130,77962,5
41135,77954,5
41130,77959,5
41146,77965,5
41148,77983,4
41159,78005,5
41153,78010,5
41163,78031,5
41175,78035,5
41178,78052,4
41195,78072,5
41199,78064,5
41202,78080,5
41207,78088,4
41215,78103,5
41211,78107,5
41220,78125,5
41225,78127,5
41225,78116,4
41227,78132,5
41226,78129,5
41233,78135,5
41240,78137,5
41222,78156,4
41231,78141,6
41231,78143,4
41242,78125,5
41236,78132,5
41231,78128,6
41226,78116,3
41218,78114,5
41218,78114,5
41207,78105,5
41208,78097,4
41213,78097,5
41206,78091,5
41199,78086,5
41209,78073,4
41203,78075,4
41177,78071,5
41200,78067,5
41194,78066,5
41188,78057,4
41166,78067,5
41187,78054,5
41189,78050,5
41180,78063,5
41170,78046,4
41186,78044,5
41181,78029,6
41169,78016,4
41162,77999,5
41150,77991,4
41139,77975,5
41119,77950,5
41141,77924,5
41105,77922,5
41101,77897,4
41094,77894,5
41112,77879,5
41080,77885,5
41089,77877,4
41085,77883,4
41104,77884,5
41106,77909,5
41104,77928,5
41116,77934,4
41125,77950,5
41130,77958,5
41133,77961,5
41132,77964,5
41141,77954,4
41139,77958,5
41131,77966,5
41124,77949,6
41113,77898,4
41094,77873,4
41061,77844,5
41061,77824,5
41044,77797,5
41046,77809,5
41038,77810,4
41035,77808,5
41047,77820,5
41049,77815,5
41049,77829,5
41060,77850,4
41065,77862,5
41070,77864,5
41079,77881,5
41095,77889,4
41103,77924,5
41109,77928,5
41120,77937,5
41127,77951,5
41135,77967,5
41135,77974,4
41141,77979,5
41145,77979,5
41143,77997,6
41144,77993,3
41148,77994,5
41154,78002,5
41158,78002,5
41155,78010,5
41159,78008,4
41154,78004,5
41154,78000,5
41150,78008,5
41161,78017,5
41159,78015,4
41162,78003,5
41147,78001,5
41143,77997,5
41144,77984,4
41151,77989,4
41148,77987,5
41144,77977,5
41135,77975,5
41141,77966,4
41134,77952,6
41124,77960,4
41135,77957,5
41129,77962,5
41135,77963,6
41138,77957,3
41132,77969,5
41133,77968,5
41133,77974,5
41129,77979,4
41148,77973,5
41142,77995,5
41156,78004,5
41153,78015,5
41158,78014,4
41162,78030,5
41175,78043,5
41184,78045,5
41190,78058,5
41205,78080,4
41203,78088,5
41210,78090,5
41214,78094,5
41221,78115,4
41227,78125,5
41221,78123,6
41232,78131,4
41226,78134,5
41223,78145,4
41221,78146,5
41235,78136,5
41234,78141,5
41233,78137,5
41237,78140,4
41227,78133,5
41226,78127,5
41223,78124,5
41220,78119,5
41219,78111,4
41218,78119,5
41218,78106,5
41204,78099,5
41203,78094,5
41206,78073,4
41192,78067,5
41184,78062,5
41178,78042,5
41168,78031,4
41163,78015,4
41162,78004,5
41147,78004,6
41152,77988,4
41148,77994,4
41144,77988,5
41145,77990,5
41140,77996,5
41147,78002,5
41159,78016,4
41162,78023,5
41170,78034,5
41171,78037,5
41166,78037,5
41180,78051,4
41186,78056,5
41175,78052,5
41186,78062,5
41187,78062,5
41182,78039,4
41144,78004,5
41145,77980,5
41133,77968,5
41129,77958,5
41101,77956,4
41123,77959,5
41121,77970,5
41142,77973,6
41134,77982,3
41141,77999,5
41144,78000,5
41158,78025,5
41191,78041,5
41184,78065,4
41197,78106,5
41210,78111,5
41249,78134,5
41237,78156,5
41244,78174,4
41265,78190,5
41279,78208,5
41292,78226,5
41290,78247,5
41285,78248,4
41302,78271,5
41312,78266,5
41307,78280,5
41320,78292,5
41315,78290,5
41320,78289,4
41318,78303,5
41325,78311,5
41336,78311,4
41355,78339,5
41353,78351,5
41353,78347,5
41347,78334,5
41359,78355,7
41353,78350,2
41352,78349,5
41351,78349,5
41345,78341,5
41345,78338,4
41338,78331,5
41336,78347,5
41339,78332,5
41332,78331,5
41333,78315,4
41340,78344,5
41330,78319,5
41337,78325,5
41343,78329,5
41344,78349,4
41345,78345,6
41349,78358,4
41369,78366,5
41379,78394,4
41392,78409,4
41399,78428,5
41401,78439,5
41413,78472,5
41431,78496,4
41450,78517,5
41461,78535,5
41472,78548,5
41479,78571,5
41486,78570,4
41482,78585,5
41495,78590,5
41490,78604,5
41491,78608,5
41497,78597,4
41492,78599,5
41499,78586,5
41480,78569,5
41473,78556,5
41462,78541,4
41443,78519,5
41450,78506,6
41433,78502,4
41424,78487,5
41431,78479,4
41427,78488,5
41433,78497,5
41435,78497,5
41440,78503,4
41444,78520,5
41447,78514,5
41447,78517,5
41453,78530,5
41453,78536,4
41462,78539,5
41459,78547,5
41472,78545,5
41468,78539,5
41457,78524,4
41434,78486,5
41413,78455,5
41408,78447,5
41392,78436,5
41405,78435,4
41391,78433,5
41399,78436,5
41404,78432,5
41408,78450,5
41411,78455,4
41423,78470,5
41417,78480,5
41431,78492,5
41437,78515,4
41449,78537,4
41460,78550,5
41482,78570,5
41488,78591,5
41493,78608,4
41501,78618,5
41517,78629,5
41516,78659,5
41529,78658,5
41534,78668,4
41537,78675,5
41538,78677,5
41541,78690,5
41549,78688,5
41541,78694,5
41545,78695,4
41555,78696,5
41562,78714,5
41571,78725,5
41564,78725,4
41564,78710,5
41566,78718,5
41563,78704,5
41568,78702,4
41555,78707,4
41559,78699,5
41554,78695,5
41543,78696,5
41545,78688,4
41538,78686,5
41546,78680,5
41533,78668,5
41532,78664,5
41526,78672,4
41527,78663,5
41521,78671,5
41537,78674,5
41542,78674,5
41538,78691,4
41537,78703,6
41555,78720,4
41569,78736,5
41584,78756,5
41575,78771,4
41606,78792,5
41619,78813,5
41626,78836,5
41644,78858,5
41655,78884,4
41662,78892,5
41669,78904,5
41699,78914,5
41684,78927,4
41691,78942,5
41697,78944,5
41712,78955,5
41692,78941,5
41688,78941,4
41683,78929,5
41689,78919,5
41676,78905,6
41658,78891,4
41652,78876,4
41638,78850,5
41634,78838,5
41613,78827,5
41603,78807,5
41607,78793,4
41604,78803,5
41609,78800,5
41612,78803,5
41611,78787,5
41608,78796,4
41612,78802,5
41616,78812,5
41619,78798,5
41623,78845,4
41633,78844,4
41628,78841,5
41621,78819,5
41598,78772,5
41583,78738,5
41565,78717,4
41553,78731,5
41545,78682,5
41537,78668,6
41533,78678,3
41530,78687,5
41530,78659,5
41528,78654,5
41521,78646,5
41524,78647,4
41518,78647,5
41513,78647,5
41525,78641,5
41518,78647,5
41512,78637,4
41518,78640,5
41522,78633,5
41513,78638,5
41511,78641,5
41522,78631,4
41517,78635,5
41511,78626,5
41511,78635,5
41506,78625,4
41500,78618,6
41502,78617,4
41495,78604,5
41495,78604,5
41493,78608,6
41491,78601,3
41492,78603,5
41496,78602,5
41492,78594,5
41496,78589,4
41480,78586,5
41483,78568,5
41479,78558,5
41461,78557,5
41456,78543,4
41456,78517,5
41441,78508,5
41441,78489,5
41420,78457,5
41413,78457,4
41403,78443,5
41386,78418,5
41381,78394,5
41371,78379,4
41352,78367,4
41351,78352,6
41346,78338,4
41343,78332,5
41344,78321,4
41331,78318,5
41339,78329,5
41335,78325,5
41339,78328,5
41342,78322,4
41338,78333,5
41339,78340,5
41350,78340,5
41350,78340,5
41349,78336,4
41355,78346,5
41357,78360,5
41350,78355,5
41358,78366,5
41357,78363,4
41364,78363,5
41372,78373,5
41361,78371,5
41367,78383,5
41365,78381,4
41373,78390,5
41365,78382,6
41374,78378,4
41372,78390,4
41371,78376,5
41367,78375,5
41370,78362,5
41347,78354,5
41342,78327,4
41323,78302,5
41310,78265,5
41283,78216,5
41252,78190,5
41244,78152,4
41224,78127,5
41206,78098,5
41203,78079,5
41195,78083,5
41191,78080,4
41207,78082,5
41201,78099,5
41200,78103,5
41208,78110,5
41212,78122,4
41221,78128,5
41218,78135,5
41232,78138,6
41236,78146,3
41248,78160,5
41240,78171,5
41249,78172,5
41245,78160,5
41213,78096,4
41177,78058,5
41176,78040,5
41157,78017,5
41152,77993,5
41141,77979,4
41139,77981,5
41134,77962,5
41135,77975,5
41144,77968,5
41138,77967,4
41137,77975,5
41129,77980,5
41151,77977,5
41143,77984,5
41147,77985,5
41148,77991,4
41162,77987,5
41154,78002,5
41162,78010,4
41163,78018,4
41168,78021,5
41171,78028,5
41167,78030,5
41164,78033,4
41166,78023,5
41172,78033,5
41168,78043,5
41169,78033,5
41177,78014,4
41166,78032,5
41175,78031,5
41161,78033,5
41177,78021,5
41182,78048,4
41172,78046,5
41181,78044,5
41172,78032,5
41175,78028,5
41176,78030,4
41174,78033,6
41174,78045,4
41164,78017,5
41157,78018,5
41165,78010,4
41162,78030,5
41159,77991,5
41148,78000,5
41144,77984,4
41138,78013,5
41139,77985,5
41148,77974,5
41140,77968,5
41140,77987,4
41130,77959,5
41136,77976,5
41134,77971,5
41135,77974,5
41144,77981,4
41139,77981,5
41146,77997,5
41156,77998,5
41156,78004,5
41164,78007,4
41158,78008,5
41162,78025,6
41176,78023,4
41166,78031,5
41174,78030,4
41173,78035,5
41181,78047,5
41178,78049,5
41184,78042,4
41182,78047,4
41185,78038,5
41178,78053,5
41176,78054,5
41183,78040,4
41177,78037,5
41181,78031,5
41172,78030,5
41176,78022,5
41168,78019,4
41164,78007,5
41152,78004,5
41163,77993,5
41143,77988,5
41140,77981,4
41140,77965,5
41128,77964,5
41130,77956,5
41120,77938,5
41116,77941,4
41112,77933,5
41114,77927,5
41112,77918,5
41103,77905,4
41101,77906,4
41095,77899,5
41087,77889,5
41092,77881,5
41072,77856,4
41071,77842,5
41050,77819,5
41032,77781,5
41018,77733,5
40998,77706,4
40976,77677,5
40959,77653,5
40947,77626,5
40931,77610,5
40926,77619,5
40939,77627,4
40944,77626,5
40951,77647,5
40950,77656,5
40960,77684,4
40972,77692,5
40988,77711,5
40993,77730,5
41013,77738,5
41018,77747,4
41019,77764,5
41023,77770,5
41030,77787,5
41036,77804,4
41032,77794,5
41029,77762,5
40992,77705,5
40966,77676,5
40962,77655,4
40946,77638,5
40940,77624,5
40929,77605,5
40927,77608,5
40917,77603,4
40928,77601,7
40933,77610,3
40933,77619,5
40933,77621,5
40945,77635,4
40953,77646,5
40943,77662,5
40961,77667,5
40966,77674,5
40973,77687,4
40959,77696,5
40988,77706,5
40999,77711,5
40992,77719,4
40987,77737,4
40994,77742,5
41014,77746,5
41019,77751,5
41020,77761,4
41017,77756,5
41017,77768,5
41027,77777,10
41027,77777,4
41051,77781,5
41035,77785,6
41032,77783,4
41029,77776,5
41030,77775,4
41027,77772,5
41024,77782,5
41031,77778,5
41028,77769,5
41023,77763,4
41018,77761,5
41017,77758,5
41013,77739,5
41017,77753,4
41015,77754,4
41012,77758,5
41019,77735,5
41016,77764,5
41019,77764,4
41018,77767,5
41025,77756,5
41028,77774,5
41025,77784,5
41030,77785,4
41046,77799,5
41050,77807,5
41055,77820,5
41064,77836,5
41060,77871,4
41080,77864,5
41089,77870,5
41092,77879,5
41098,77913,5
41101,77914,4
41107,77918,5
41104,77928,5
41121,77940,5
41122,77944,5
41132,77951,4
41130,77951,5
41139,77971,5
41138,77967,5
41146,77963,4
41143,77970,6
41148,77969,4
41135,77961,5
41138,77962,5
41137,77963,6
41139,77959,3
41128,77958,5
41133,77955,5
41114,77936,5
41126,77936,4
41122,77933,5
41111,77927,5
41118,77928,5
41115,77932,5
41112,77927,4
41116,77917,5
41120,77918,5
41116,77924,5
41117,77925,5
41114,77926,4
41113,77917,5
41115,77923,5
41107,77904,5
41098,77905,4
41103,77895,4
41089,77884,6
41086,77865,4
41073,77856,5
41065,77824,4
41049,77815,7
41046,77813,3
41037,77806,5
41028,77790,5
41033,77788,4
41033,77792,5
41041,77804,5
41044,77819,5
41069,77833,5
41066,77845,4
41079,77855,5
41081,77871,5
41090,77881,5
41099,77898,5
41101,77909,4
41106,77915,5
41109,77926,5
41109,77924,5
41108,77928,4
41104,77896,4
41071,77861,5
41057,77825,6
41038,77806,4
41038,77797,4
41034,77787,5
41036,77784,5
41026,77776,5
41028,77784,5
41035,77787,4
41030,77790,5
41040,77795,5
41041,77809,5
41052,77826,5
41061,77825,4
41065,77836,5
41072,77848,5
41079,77871,5
41087,77886,5
41097,77897,4
41105,77916,5
41102,77921,5
41120,77922,5
41127,77934,5
41127,77951,4
41124,77959,5
41128,77964,5
41132,77971,6
41140,77976,3
41147,77971,5
41144,77975,5
41143,77987,5
41148,77985,5
41151,77981,4
41142,77985,5
41163,78003,5
41152,78012,5
41149,78010,5
41139,77998,4
41147,77993,5
41148,77997,5
41157,77995,5
41130,78001,5
41147,77985,4
41147,77984,5
41141,77966,5
41136,77967,5
41135,77959,5
41144,77968,5
41137,77972,4
41153,77969,5
41142,77975,5
41140,77978,7
41149,77985,2
41172,78002,5
41163,78001,5
41164,78013,5
41171,78021,4
41191,78040,5
41181,78062,5
41188,78065,5
41198,78070,5
41219,78095,4
41215,78102,5
41229,78119,5
41236,78138,5
41243,78132,5
41250,78157,4
41257,78173,5
41265,78178,5
41262,78161,5
41274,78185,5
41261,78193,4
41264,78196,6
41273,78173,4
41276,78196,5
41279,78188,5
41262,78189,4
41265,78180,5
41261,78188,5
41258,78180,5
41253,78179,4
41261,78176,5
41251,78161,5
41244,78161,5
41234,78158,5
41234,78168,4
41243,78145,5
41234,78131,5
41224,78122,5
41226,78129,5
41219,78111,4
41211,78102,5
41220,78091,5
41207,78096,5
41202,78087,5
41201,78073,4
41196,78063,5
41194,78066,6
41196,78056,4
41188,78055,5
41177,78038,4
41182,78035,5
41179,78031,5
41171,78015,5
41168,78005,4
41158,77994,4
41151,77979,5
41136,77951,5
41124,77931,5
41112,77919,4
41092,77902,5
41090,77881,5
41083,77866,5
41071,77856,5
41075,77847,4
41072,77848,5
41075,77849,5
41077,77867,5
41085,77873,5
41090,77890,4
41099,77899,5
41112,77920,5
41107,77921,6
41111,77933,4
41125,77938,4
41123,77931,5
41113,77943,5
41117,77943,5
41116,77930,4
41102,77903,4
41090,77852,5
41065,77834,5
41048,77808,5
41035,77793,4
41038,77785,5
41034,77788,5
41038,77786,5
41039,77794,5
41043,77799,4
41048,77806,5
41052,77819,5
41055,77840,5
41067,77859,5
41079,77873,5
41083,77889,4
41105,77912,5
41113,77929,5
41117,77946,5
41130,77953,4
41138,77971,5
41141,77982,5
41141,77982,5
41155,77998,5
41161,78005,4
41166,78011,5
41169,78007,5
41165,78009,5
41165,78020,4
41169,78019,5
41164,78026,5
41176,78025,5
41167,78025,5
41165,78031,4
41178,78038,5
41183,78040,5
41170,78031,5
41179,78040,5
41172,78033,4
41175,78030,6
41170,78026,4
41172,78024,5
41171,78016,5
41172,78014,4
41166,78012,5
41161,78015,5
41159,77998,5
41155,78002,5
41161,78001,4
41162,78007,5
41159,78006,5
41169,78014,5
41175,78012,4
41164,78015,4
41176,78028,5
41180,78045,5
41195,78053,5
41180,78062,4
41205,78080,5
41218,78103,5
41218,78117,5
41220,78130,5
41245,78160,4
41260,78176,5
41266,78213,6
41293,78238,4
41301,78249,5
41312,78262,4
41320,78280,5
41339,78290,5
41333,78315,5
41339,78304,5
41345,78325,4
41373,78331,5
41351,78336,5
41347,78341,5
41361,78336,5
41366,78335,4
41343,78329,5
41342,78323,5
41341,78314,5
41333,78295,4
41324,78290,5
41325,78286,5
41317,78271,5
41309,78247,5
41321,78267,4
41313,78257,5
41312,78268,5
41310,78251,5
41313,78267,5
41316,78275,4
41327,78285,5
41334,78272,5
41337,78295,5
41332,78313,5
41330,78304,4
41339,78331,5
41341,78318,5
41344,78321,5
41340,78323,5
41345,78340,4
41339,78308,5
41315,78267,5
41290,78219,5
41269,78234,4
41260,78188,5
41266,78183,5
41255,78170,5
41253,78181,5
41253,78173,5
41260,78184,4
41265,78182,5
41266,78193,5
41271,78205,5
41276,78215,4
41284,78229,5
41305,78245,5
41305,78253,5
41316,78281,5
41329,78299,4
41336,78322,5
41350,78331,5
41353,78350,5
41359,78352,5
41359,78368,4
41377,78372,5
41371,78381,5
41375,78388,5
41382,78389,4
41382,78398,4
41380,78399,5
41383,78400,5
41390,78412,5
41396,78417,4
41405,78417,6
41405,78433,4
41394,78420,5
41399,78420,5
41396,78409,4
41401,78411,5
41392,78403,5
41393,78398,5
41389,78393,5
41388,78403,4
41378,78390,5
41378,78384,5
41380,78382,5
41369,78378,5
41361,78371,4
41368,78382,5
41373,78374,5
41372,78382,5
41373,78380,4
41378,78389,4
41386,78398,5
41391,78401,6
41399,78419,4
41405,78433,4
41418,78452,5
41433,78483,5
41444,78504,5
41456,78527,5
41467,78553,4
41490,78573,5
41497,78586,5
41494,78605,5
41511,78614,5
41520,78632,4
41525,78646,5
41530,78657,5
41536,78665,5
41547,78674,5
41541,78672,4
41556,78679,5
41540,78680,5
41543,78690,5
41541,78689,5
41550,78665,4
41544,78670,5
41529,78638,5
41514,78623,6
41501,78617,3
41498,78592,5
41484,78564,5
41486,78557,5
41468,78547,5
41459,78534,4
41450,78520,5
41448,78516,5
41451,78524,5
41455,78527,5
41464,78545,4
41460,78550,5
41470,78553,9
41469,78562,1
41485,78591,5
41480,78569,4
41477,78593,5
41505,78600,5
41501,78594,5
41501,78585,5
41467,78559,5
41454,78518,4
41449,78504,5
41438,78489,5
41420,78476,6
41431,78482,3
41424,78480,5
41438,78486,5
41439,78491,5
41442,78506,4
41456,78511,5
41453,78533,5
41481,78543,5
41472,78561,5
41491,78575,4
41497,78597,5
41528,78628,5
41521,78642,5
41539,78664,5
41550,78675,4
41566,78696,5
41560,78709,5
41559,78720,5
41562,78723,5
41577,78733,4
41582,78736,6
41582,78750,4
41584,78747,5
41577,78745,4
41583,78756,4
41587,78744,5
41587,78757,5
41585,78752,5
41594,78782,4
41603,78786,5
41606,78779,5
41602,78765,5
41604,78778,5
41604,78774,4
41603,78761,5
41591,78758,5
41585,78761,5
41592,78754,5
41583,78736,4
41578,78750,5
41570,78725,5
41564,78725,5
41570,78731,5
41570,78749,4
41573,78724,5
41570,78736,6
41572,78735,4
41576,78755,4
41589,78750,4
41582,78766,5
41593,78761,5
41598,78784,5
41610,78791,4
41619,78796,5
41624,78836,5
41642,78859,5
41651,78867,5
41660,78881,4
41669,78912,5
41676,78923,5
41690,78941,5
41691,78944,5
41704,78945,4
41698,78954,5
41706,78963,5
41702,78958,5
41697,78948,5
41687,78940,4
41677,78925,5
41670,78909,5
41672,78901,6
41664,78885,4
41661,78876,4
41656,78868,5
41650,78865,5
41652,78864,5
41642,78857,4
41652,78856,5
41650,78867,5
41648,78858,5
41655,78872,5
41659,78873,4
41659,78895,5
41682,78911,5
41681,78927,5
41683,78921,5
41685,78916,4
41663,78877,5
41647,78850,5
41638,78836,5
41629,78835,5
41627,78821,5
41621,78817,4
41621,78812,5
41627,78828,5
41628,78825,5
41623,78827,4
41626,78822,5
41636,78819,5
41630,78839,5
41626,78844,4
41635,78834,5
41636,78847,5
41636,78846,5
41645,78847,5
41646,78852,4
41644,78860,5
41641,78861,5
41655,78857,5
41642,78858,5
41646,78868,4
41659,78876,5
41656,78867,5
41655,78869,5
41650,78865,5
41649,78869,4
41644,78868,6
41640,78867,4
41649,78869,5
41657,78881,5
41664,78888,4
41658,78894,5
41655,78878,5
41653,78881,5
41655,78875,4
41650,78863,4
41642,78862,5
41645,78851,5
41647,78846,5
41631,78844,4
41635,78824,5
41630,78825,5
41617,78817,5
41608,78798,5
41601,78785,4
41589,78762,5
41590,78754,5
41582,78747,5
41576,78724,5
41557,78723,4
41553,78717,5
41557,78700,6
41556,78702,4
41564,78701,5
41533,78697,4
41557,78695,5
41559,78701,5
41560,78694,5
41541,78693,4
41555,78706,4
41550,78700,5
41558,78702,5
41566,78700,5
41549,78698,4
41555,78697,5
41554,78704,5
41575,78696,5
41546,78701,5
41553,78706,4
41558,78691,5
41572,78690,5
41543,78679,5
41539,78665,5
41530,78659,4
41532,78637,5
41517,78616,5
41488,78579,5
41466,78538,5
41444,78487,4
41424,78457,5
41397,78411,5
41387,78368,5
41344,78319,5
41333,78294,4
41311,78263,5
41305,78252,5
41292,78222,5
41289,78229,4
41280,78227,5
41289,78225,5
41289,78212,5
41293,78232,5
41289,78232,4
41285,78214,5
41284,78226,5
41293,78234,5
41294,78242,5
41290,78241,5
41286,78231,4
41250,78149,5
41215,78106,5
41212,78078,5
41192,78080,4
41179,78032,5
41165,78012,5
41165,78014,5
41163,78011,5
41155,78014,4
41159,78009,5
41157,77997,5
41155,78002,5
41161,77998,4
41151,78003,4
41155,78007,5
41156,78002,5
41162,78013,5
41162,78016,4
41167,78010,5
41170,78025,5
41174,78027,5
41181,78035,5
41178,78028,4
41173,78035,6
41179,78035,4
41175,78039,5
41183,78045,5
41183,78048,4
41184,78049,5
41174,78047,5
41185,78053,5
41184,78054,5
41189,78058,4
41187,78056,5
41200,78052,5
41195,78067,5
41184,78063,4
41189,78050,4
41180,78045,5
41183,78051,5
41180,78042,5
41180,78032,4
41176,78036,5
41178,78039,5
41171,78029,5
41170,78032,5
41171,78016,4
41173,78013,5
41172,78007,6
41159,78001,4
41153,78002,5
41159,77989,4
41156,77988,5
41146,77983,5
41153,77988,5
41152,77975,5
41146,77987,4
41155,77992,5
41153,77993,5
41154,77997,5
41155,78008,4
41160,78001,4
41164,78020,5
41161,78018,5
41165,78022,5
41174,78030,4
41176,78024,5
41177,78038,5
41174,78035,5
41184,78044,5
41192,78054,4
41191,78050,5
41197,78062,5
41189,78061,5
41197,78075,5
41194,78079,4
41200,78072,5
41206,78080,5
41207,78084,5
41199,78070,5
41205,78074,4
41189,78066,5
41195,78071,5
41192,78068,5
41192,78059,5
41185,78050,4
41178,78037,5
41167,78035,5
41162,78014,5
41149,77988,4
41135,77959,6
41121,77915,4
41097,77896,5
41082,77862,5
41070,77837,6
41053,77815,3
41035,77807,5
41043,77800,5
41034,77791,5
41045,77800,4
41037,77816,5
41052,77824,5
41062,77843,5
41068,77847,5
41069,77873,4
41081,77883,5
41101,77901,5
41109,77913,5
41109,77916,5
41116,77938,4
41121,77951,5
41133,77961,5
41155,77962,5
41131,77935,4
41105,77893,4
41073,77855,6
41085,77853,4
41074,77827,5
41057,77823,4
41055,77826,7
41075,77820,3
41050,77822,5
41059,77821,5
41057,77837,4
41060,77838,5
41072,77842,5
41063,77847,5
41082,77854,5
41073,77856,4
41084,77878,5
41084,77891,5
41091,77904,5
41097,77898,5
41111,77919,4
41118,77922,5
41131,77940,5
41127,77925,5
41129,77950,4
41136,77959,4
41131,77963,5
41144,77974,6
41143,77971,4
41146,77980,4
41150,77980,5
41145,77993,5
41151,77985,5
41144,77990,5
41155,77993,4
41159,78025,5
41162,78002,5
41160,77996,5
41151,77988,5
41155,77999,4
41158,77994,5
41158,77989,5
41156,77982,5
41142,77985,5
41135,77974,4
41141,77969,5
41141,77972,5
41136,77962,5
41135,77957,5
41138,77966,4
41139,77965,5
41131,77958,5
41131,77953,6
41138,77952,3
41136,77958,5
41134,77966,5
41128,77965,5
41137,77975,5
41146,77976,4
41148,77990,5
41148,77999,5
41158,78008,5
41165,78011,5
41170,78022,4
41181,78038,5
41188,78041,5
41188,78059,5
41191,78068,5
41202,78077,4
41210,78085,5
41217,78095,5
41216,78099,5
41221,78113,5
41221,78117,5
41235,78133,4
41230,78135,5
41236,78144,5
41235,78138,6
41246,78145,3
41237,78150,5
41240,78145,5
41233,78144,5
41237,78140,4
41237,78127,5
41239,78134,5
41237,78125,5
41228,78137,5
41226,78120,4
41231,78119,5
41225,78123,5
41223,78112,5
41222,78114,5
41217,78103,4
41217,78096,5
41222,78099,5
41210,78101,5
41212,78095,5
41219,78093,4
41216,78092,6
41218,78095,4
41210,78086,5
41209,78092,4
41215,78086,4
41214,78076,7
41203,78081,3
41204,78074,5
41208,78077,4
41204,78076,5
41186,78050,5
41184,78036,5
41186,78031,5
41156,77998,4
41160,77989,5
41139,77966,5
41125,77949,5
41127,77933,5
41115,77927,4
41121,77919,5
41126,77933,5
41123,77937,5
41116,77949,5
41130,77960,4
41136,77966,5
41160,77986,6
41158,78001,4
41179,78029,5
41176,78042,4
41181,78055,5
41177,78060,5
41199,78069,5
41209,78079,4
41213,78085,5
41186,78069,5
41173,78034,5
41155,77978,5
41148,77961,4
41125,77960,5
41130,77946,5
41129,77943,5
41133,77942,5
41122,77955,4
41124,77949,5
41128,77958,5
41129,77966,5
41153,77968,5
41144,77980,4
41153,77992,5
41163,78012,5
41197,78022,6
41183,78035,4
41183,78045,4
41196,78061,5
41209,78073,5
41202,78089,5
41212,78099,4
41211,78108,4
41228,78122,5
41221,78115,5
41230,78130,5
41232,78123,4
41239,78135,5
41246,78146,5
41239,78146,5
41239,78147,5
41241,78127,4
41238,78153,5
41246,78151,5
41248,78162,5
41245,78149,5
41252,78156,5
41244,78163,4
41251,78149,5
41239,78140,5
41242,78157,5
41250,78143,4
41240,78141,5
41234,78143,5
41230,78127,5
41232,78127,5
41229,78119,4
41227,78142,5
41224,78128,5
41230,78121,5
41219,78119,4
41228,78137,5
41221,78122,5
41224,78127,5
41236,78132,5
41242,78144,4
41239,78143,5
41245,78153,5
41251,78156,5
41262,78174,5
41256,78187,4
41281,78193,6
41286,78215,4
41284,78230,5
41294,78253,5
41303,78259,4
41307,78270,5
41317,78287,5
41327,78305,5
41331,78305,5
41335,78331,4
41345,78339,5
41352,78349,5
41353,78350,5
41360,78362,4
41353,78347,5
41364,78347,5
41351,78350,5
41357,78353,5
41358,78344,4
41345,78325,5
41343,78319,5
41339,78321,5
41333,78313,5
41339,78311,4
41334,78306,5
41338,78295,6
41321,78292,4
41329,78295,5
41319,78282,4
41313,78282,5
41318,78276,5
41307,78257,5
41312,78265,5
41308,78246,4
41296,78245,5
41289,78230,5
41285,78226,5
41276,78217,4
41278,78202,4
41273,78184,5
41266,78198,5
41278,78193,5
41257,78177,4
41261,78186,5
41257,78161,5
41250,78162,5
41244,78138,5
41225,78113,4
41202,78088,5
41202,78070,5
41191,78051,5
41186,78046,5
41173,78033,4
41170,78014,5
41167,78022,5
41164,78005,5
41165,78008,5
41165,78016,4
41165,78017,5
41173,78041,5
41176,78037,5
41183,78043,5
41198,78056,4
41196,78061,5
41195,78061,5
41200,78070,5
41200,78076,4
41204,78078,5
41196,78086,5
41205,78073,5
41196,78067,5
41184,78025,5
41157,77986,4
41137,77968,5
41132,77945,5
41121,77938,5
41126,77928,4
41107,77922,5
41113,77927,5
41115,77922,5
41109,77930,5
41115,77937,4
41115,77940,5
41128,77958,5
41142,77973,5
41150,77992,5
41158,78002,4
41156,78025,5
41180,78034,5
41191,78060,5
41198,78079,4
41194,78086,4
41208,78107,5
41225,78100,5
41225,78116,5
41230,78111,4
41233,78122,6
41230,78132,4
41233,78141,5
41245,78133,5
41232,78136,4
41236,78134,5
41235,78132,5
41251,78134,5
41239,78135,5
41239,78146,4
41245,78143,5
41245,78135,5
41231,78135,5
41229,78128,5
41239,78130,4
41240,78123,5
41224,78134,5
41224,78127,5
41223,78126,4
41224,78101,4
41225,78112,5
41222,78111,6
41223,78111,4
41220,78104,4
41232,78121,5
41230,78123,5
41233,78130,5
41247,78120,5
41245,78137,4
41238,78160,5
41258,78176,5
41261,78180,5
41276,78196,5
41291,78218,4
41294,78241,5
41310,78273,5
41313,78276,5
41321,78294,5
41343,78314,4
41346,78357,5
41357,78348,5
41371,78370,5
41376,78366,5
41374,78395,4
41395,78389,5
41399,78404,5
41394,78406,6
41392,78408,3
41397,78407,5
41396,78416,5
41394,78417,5
41399,78419,5
41402,78411,4
41402,78407,5
41398,78394,5
41386,78388,5
41380,78373,5
41375,78363,4
41361,78342,5
41354,78327,5
41348,78330,5
41347,78321,5
41342,78314,4
41337,78321,5
41341,78328,5
41342,78333,5
41353,78331,5
41356,78333,5
41358,78345,4
41359,78351,5
41365,78358,5
41371,78370,6
41376,78377,3
41385,78379,5
41377,78378,5
41382,78394,5
41385,78402,4
41385,78400,5
41379,78381,5
41378,78359,5
41339,78314,5
41331,78289,4
41326,78282,5
41319,78280,5
41315,78269,5
41298,78257,5
41312,78263,4
41317,78270,5
41318,78283,5
41328,78301,5
41335,78307,5
41337,78319,4
41351,78332,6
41359,78359,4
41375,78376,5
41388,78399,4
41389,78408,4
41406,78432,5
41410,78437,5
41415,78460,5
41425,78470,4
41431,78480,5
41438,78482,5
41445,78487,5
41445,78495,5
41452,78503,4
41451,78514,5
41447,78512,5
41457,78520,5
41460,78531,5
41467,78530,4
41467,78543,5
41472,78554,5
41475,78540,5
41474,78534,5
41475,78549,4
41471,78540,5
41458,78541,6
41462,78534,4
41463,78528,4
41464,78525,4
41455,78513,5
41461,78517,5
41448,78513,5
41452,78509,4
41450,78517,5
41449,78507,5
41453,78514,5
41453,78514,5
41461,78512,4
41460,78529,5
41469,78532,5
41463,78555,5
41490,78567,5
41492,78595,4
41501,78616,5
41511,78640,5
41538,78651,5
41552,78679,5
41562,78719,4
41565,78736,5
41595,78755,5
41604,78782,6
41612,78806,3
41616,78819,4
41631,78831,5
41641,78848,5
41647,78858,5
41669,78868,4
41654,78875,5
41656,78877,5
41651,78883,5
41678,78876,5
41653,78873,4
41649,78850,5
41647,78850,5
41645,78820,5
41620,78807,5
41619,78797,4
41620,78796,5
41604,78776,5
41603,78775,5
41599,78767,5
41599,78771,5
41596,78758,4
41600,78767,5
41597,78776,5
41611,78783,5
41605,78777,4
41613,78803,5
41611,78807,5
41625,78822,5
41626,78814,4
41635,78833,5
41636,78837,5
41639,78827,5
41620,78792,5
41585,78755,4
41585,78735,5
41570,78721,5
41559,78726,5
41557,78703,5
41551,78707,4
41563,78708,5
41569,78744,5
41567,78720,5
41569,78737,5
41578,78750,4
41595,78775,6
41605,78787,4
41611,78799,5
41621,78822,5
41638,78836,4
41648,78863,5
41653,78869,5
41669,78899,5
41673,78911,4
41674,78919,5
41689,78937,5
41693,78946,5
41691,78950,5
41705,78954,4
41707,78961,5
41698,78950,5
41709,78948,5
41711,78961,5
41710,78960,4
41701,78976,5
41707,78994,5
41720,78998,5
41719,78987,5
41717,78988,4
41714,78989,5
41722,78987,6
41716,78979,4
41722,78990,5
41714,78985,4
41729,78980,5
41717,78981,5
41712,78974,5
41711,78967,4
41707,78958,5
41697,78961,5
41708,78956,5
41703,78960,5
41702,78964,4
41702,78970,5
41709,78970,5
41711,78984,5
41719,78991,5
41723,79008,9
41742,79027,0
41691,78950,5
41760,79073,5
41786,79093,5
41791,79110,4
41801,79138,5
41813,79157,5
41825,79186,5
41844,79196,5
41845,79213,4
41853,79226,5
41865,79233,5
41871,79247,5
41859,79253,4
41871,79257,4
41868,79259,5
41870,79241,5
41867,79243,5
41863,79232,4
41855,79226,5
41844,79212,5
41837,79194,5
41831,79172,5
41825,79172,4
41823,79148,5
41809,79155,5
41804,79156,5
41816,79161,5
41817,79160,5
41825,79154,4
41817,79164,5
41822,79161,5
41821,79181,5
41832,79183,4
41834,79194,5
41836,79210,5
41854,79215,5
41842,79201,4
41829,79154,4
41807,79136,5
41789,79127,5
41785,79101,5
41777,79085,4
41780,79087,5
41771,79081,5
41774,79076,5
41769,79088,5
41769,79082,4
41765,79080,5
41764,79070,5
41756,79071,5
41766,79082,5
41762,79078,4
41761,79077,6
41753,79085,4
41776,79076,5
41767,79088,5
41771,79085,4
41763,79082,5
41771,79080,5
41768,79075,5
41766,79073,5
41772,79065,4
41755,79068,5
41758,79059,5
41757,79056,5
41775,79050,4
41754,79038,5
41747,79030,5
41741,79036,5
41767,79039,5
41744,79049,4
41751,79040,5
41740,79028,5
41744,79026,5
41734,79015,5
41728,79002,4
41724,78979,5
41712,78977,5
41703,78963,5
41693,78938,5
41678,78929,4
41678,78900,5
41663,78901,5
41658,78875,5
41647,78861,5
41638,78817,4
41624,78824,5
41623,78805,5
41603,78784,5
41595,78754,4
41593,78761,4
41593,78762,5
41593,78758,5
41588,78754,5
41576,78743,4
41581,78744,5
41583,78744,5
41585,78766,5
41583,78756,5
41584,78753,3
41581,78757,5
41591,78776,5
41592,78758,5
41590,78760,5
41586,78764,4
41585,78758,5
41586,78771,5
41589,78761,5
41596,78759,5
41584,78751,4
41586,78755,5
41589,78750,5
41583,78745,5
41574,78739,5
41574,78736,4
41573,78732,5
41572,78725,5
41561,78715,5
41562,78705,4
41558,78688,6
41543,78674,4
41528,78645,5
41503,78615,5
41496,78588,6
41479,78542,3
41442,78511,5
41429,78468,5
41403,78429,5
41393,78412,4
41385,78386,5
41373,78369,5
41372,78367,5
41362,78366,5
41375,78379,4
41374,78389,5
41385,78402,5
41390,78405,5
41391,78406,5
41398,78436,4
41407,78441,5
41412,78444,5
41410,78450,5
41416,78471,4
41429,78484,5
41431,78489,6
41431,78473,4
41402,78425,5
41373,78386,4
41369,78360,7
41347,78347,3
41347,78338,5
41348,78318,5
41340,78307,4
41334,78306,5
41336,78302,5
41338,78305,5
41330,78302,5
41326,78299,4
41325,78302,5
41324,78298,5
41331,78302,5
41334,78304,5
41334,78310,4
41336,78318,5
41337,78317,5
41349,78323,5
41344,78329,4
41340,78327,4
41346,78322,5
41339,78320,6
41348,78327,4
41337,78332,4
41342,78326,5
41351,78320,5
41334,78321,5
41339,78322,5
41338,78314,4
41331,78311,5
41342,78317,5
41330,78307,5
41341,78319,5
41344,78329,4
41339,78320,5
41340,78307,5
41338,78306,5
41334,78293,5
41322,78289,4
41319,78276,5
41319,78275,5
41316,78265,5
41311,78266,5
41298,78252,4
41299,78240,5
41294,78225,5
41283,78220,6
41282,78212,3
41265,78195,5
41269,78192,5
41241,78184,5
41256,78173,5
41246,78163,4
41259,78170,5
41242,78176,5
41260,78177,5
41259,78169,5
41266,78178,4
41271,78188,5
41271,78199,5
41274,78195,5
41279,78206,5
41303,78217,4
41291,78233,5
41291,78231,5
41301,78237,5
41329,78244,5
41303,78244,5
41303,78250,4
41301,78260,5
41325,78266,5
41311,78272,6
41316,78269,3
41309,78267,5
41318,78267,5
41316,78267,5
41318,78260,4
41313,78264,5
41308,78247,5
41311,78255,5
41316,78251,5
41306,78244,4
41295,78228,5
41298,78237,5
41288,78231,5
41294,78221,5
41275,78197,4
41280,78210,5
41280,78199,5
41269,78193,5
41263,78181,5
41259,78175,4
41245,78152,6
41241,78139,4
41230,78120,5
41207,78077,4
41185,78046,4
41173,78015,5
41159,78009,5
41149,77975,5
41146,77956,4
41135,77949,5
41127,77959,5
41137,77960,5
41138,77966,5
41145,77985,4
41147,77986,5
41159,78003,5
41166,78022,5
41179,78036,5
41186,78044,4
41194,78062,5
41191,78065,5
41202,78072,5
41210,78086,5
41220,78091,4
41219,78104,5
41212,78085,6
41194,78059,4
41161,77999,5
41146,77978,4
41144,77964,5
41134,77959,5
41131,77945,5
41131,77938,4
41127,77938,5
41124,77939,5
41117,77944,5
41125,77938,5
41122,77945,4
41121,77940,5
41135,77962,5
41131,77962,5
41146,77973,5
41151,77987,4
41158,77992,5
41164,78003,5
41168,78016,5
41173,78032,5
41179,78044,4
41190,78054,5
41193,78054,5
41196,78059,6
41197,78063,4
41195,78057,4
41204,78070,5
41204,78075,5
41206,78069,5
41203,78076,4
41199,78084,4
41202,78076,5
41200,78079,5
41202,78078,5
41215,78077,4
41210,78079,5
41205,78081,5
41206,78079,5
41194,78076,5
41205,78064,4
41202,78063,5
41191,78069,5
41196,78072,5
41193,78059,5
41194,78056,5
41184,78051,4
41187,78054,5
41184,78048,5
41183,78047,5
41190,78040,4
41186,78035,5
41185,78044,5
41184,78046,5
41191,78040,4
41178,78050,4
41199,78054,5
41197,78062,5
41206,78070,5
41208,78077,4
41217,78076,5
41216,78085,5
41217,78092,5
41228,78106,5
41226,78110,4
41238,78130,5
41236,78140,5
41243,78152,5
41249,78157,5
41249,78168,4
41267,78171,6
41282,78189,4
41275,78196,5
41273,78211,5
41283,78206,4
41284,78219,5
41292,78213,5
41271,78215,5
41295,78224,5
41288,78218,4
41294,78217,5
41280,78228,5
41283,78222,5
41292,78218,4
41287,78215,5
41272,78209,5
41284,78209,5
41288,78199,5
41274,78194,4
41285,78193,5
41271,78186,5
41282,78207,5
41262,78192,5
41294,78193,4
41277,78186,5
41265,78184,6
41260,78175,4
41278,78167,5
41254,78162,4
41240,78139,5
41231,78123,5
41225,78098,5
41204,78087,5
41195,78061,4
41187,78043,5
41172,78021,5
41180,78021,5
41174,78014,4
41167,78011,4
41172,78003,5
41180,78032,5
41187,78048,5
41197,78066,4
41220,78078,5
41219,78108,5
41230,78130,5
41238,78145,5
41247,78138,4
41249,78168,5
41261,78170,5
41262,78169,5
41270,78193,5
41271,78183,4
41254,78150,5
41228,78102,5
41207,78080,5
41190,78056,5
41181,78024,4
41173,78015,5
41170,78031,5
41160,78018,5
41167,78012,5
41162,78010,4
41171,78012,5
41164,78008,5
41167,78014,5
41176,78030,4
41185,78048,5
41187,78045,5
41197,78070,5
41207,78080,5
41205,78088,5
41218,78112,4
41227,78113,5
41229,78118,5
41242,78132,5
41235,78140,4
41241,78144,5
41253,78151,5
41251,78152,5
41253,78162,7
41255,78158,2
41255,78158,5
41253,78167,5
41261,78164,5
41256,78168,5
41262,78174,4
41265,78181,5
41263,78184,5
41272,78172,5
41259,78167,4
41266,78172,5
41258,78162,5
41246,78163,5
41256,78160,5
41255,78156,4
41248,78148,6
41239,78143,3
41236,78140,5
41241,78133,5
41239,78130,4
41238,78132,5
41239,78130,5
41243,78131,5
41239,78138,5
41247,78137,4
41249,78145,5
41252,78154,5
41257,78155,5
41258,78161,5
41263,78176,4
41275,78188,5
41268,78196,5
41281,78220,5
41292,78225,4
41306,78246,4
41314,78259,5
41313,78276,6
41330,78286,4
41337,78299,4
41341,78306,5
41337,78322,5
41350,78328,5
41363,78342,5
41371,78353,4
41365,78357,5
41372,78362,5
41378,78368,5
41377,78373,5
41387,78380,4
41386,78376,5
41381,78384,5
41384,78382,5
41387,78375,5
41381,78380,4
41378,78368,5
41384,78373,5
41379,78365,5
41379,78372,5
41367,78367,4
41374,78374,5
41372,78370,5
41366,78369,6
41369,78355,3
41364,78356,5
41360,78346,5
41360,78338,5
41366,78344,5
41353,78349,4
41355,78335,5
41351,78339,5
41357,78332,5
41346,78321,5
41349,78326,4
41346,78317,5
41347,78317,5
41317,78292,5
41331,78279,5
41316,78257,4
41296,78249,5
41273,78215,5
41285,78204,5
41277,78205,5
41275,78189,5
41271,78184,4
41264,78181,5
41267,78182,5
41275,78188,6
41291,78206,3
41286,78219,5
41293,78231,5
41293,78242,5
41333,78245,4
41308,78253,5
41321,78269,5
41317,78278,5
41325,78270,5
41322,78270,4
41313,78268,5
41319,78253,5
41289,78227,5
41270,78174,5
41249,78140,4
41243,78128,5
41234,78111,5
41231,78115,5
41227,78107,5
41221,78117,4
41224,78089,6
41235,78110,4
41226,78125,5
41229,78121,4
41232,78126,4
41245,78157,5
41257,78164,5
41267,78183,5
41266,78196,4
41277,78193,5
41294,78214,5
41287,78226,5
41288,78237,5
41292,78236,4
41302,78246,5
41302,78252,5
41303,78259,5
41306,78247,5
41308,78256,4
41312,78251,5
41308,78257,5
41312,78251,5
41307,78246,5
41309,78246,4
41311,78262,5
41307,78255,6
41311,78262,4
41313,78252,5
41293,78239,4
41300,78243,5
41292,78240,5
41294,78236,5
41288,78225,4
41290,78218,5
41291,78214,5
41287,78207,5
41286,78201,5
41271,78196,4
41274,78194,5
41276,78202,5
41275,78198,5
41277,78196,5
41279,78215,4
41285,78212,5
41288,78217,5
41289,78222,5
41284,78243,5
41294,78239,4
41310,78257,5
41311,78262,5
41309,78281,6
41318,78286,4
41327,78300,4
41333,78319,5
41344,78319,5
41354,78340,5
41364,78345,4
41367,78372,5
41372,78373,5
41384,78384,5
41391,78399,5
41396,78410,4
41392,78408,5
41404,78412,5
41399,78413,5
41406,78427,5
41407,78433,4
41411,78421,5
41406,78421,5
41405,78419,5
41397,78423,5
41405,78409,5
41390,78413,4
41391,78392,5
41381,78382,5
41371,78366,5
41362,78352,4
41351,78323,5
41342,78320,5
41343,78291,5
41322,78285,4
41315,78263,4
41305,78250,5
41312,78246,5
41302,78244,5
41303,78255,4
41300,78248,5
41303,78255,5
41312,78260,5
41316,78273,5
41313,78274,4
41320,78283,5
41324,78278,5
41334,78288,5
41335,78292,5
41329,78299,4
41338,78299,6
41331,78302,4
41338,78311,5
41336,78292,5
41308,78259,4
41297,78217,5
41277,78208,5
41269,78195,5
41265,78184,4
41264,78175,4
41259,78177,5
41260,78172,5
41263,78182,5
41266,78188,4
41271,78206,5
41276,78211,5
41293,78237,5
41275,78246,5
41308,78275,4
41326,78290,5
41327,78309,5
41324,78311,5
41349,78334,5
41363,78359,4
41365,78354,5
41368,78364,6
41379,78384,4
41378,78378,5
41380,78381,4
41396,78384,5
41383,78394,5
41384,78392,5
41391,78385,4
41411,78402,4
41388,78391,5
41398,78390,5
41398,78411,5
41405,78413,4
41400,78406,5
41396,78406,5
41387,78401,5
41394,78399,5
41387,78400,4
41385,78397,5
41392,78395,5
41386,78374,5
41382,78385,5
41382,78382,4
41379,78378,5
41384,78363,5
41383,78384,5
41383,78381,5
41384,78380,4
41385,78375,5
41394,78395,5
41391,78400,5
41392,78414,4
41405,78428,4
41413,78445,5
41428,78466,5
41427,78485,5
41440,78514,4
41458,78513,5
41475,78548,5
41491,78571,5
41502,78616,5
41510,78613,4
41529,78635,5
41533,78654,5
41542,78672,5
41562,78682,5
41553,78693,5
41560,78709,4
41566,78721,5
41573,78726,5
41589,78729,5
41588,78742,4
41580,78740,5
41584,78739,5
41576,78718,5
41576,78711,4
41561,78689,4
41548,78672,5
41540,78651,5
41529,78643,5
41520,78627,4
41519,78613,5
41514,78606,5
41512,78610,5
41512,78604,5
41496,78609,4
41514,78614,5
41515,78618,5
41530,78640,5
41519,78642,5
41525,78643,4
41536,78643,6
41534,78651,4
41543,78674,5
41548,78675,5
41551,78683,4
41564,78685,5
41553,78668,5
41531,78644,5
41511,78607,5
41504,78593,4
41489,78572,5
41483,78569,5
41482,78557,5
41482,78556,4
41488,78569,5
41487,78580,5
41487,78570,5
41499,78586,5
41510,78600,4
41506,78609,5
41514,78642,5
41522,78645,5
41541,78657,5
41548,78686,4
41560,78700,5
41565,78719,5
41576,78727,5
41586,78750,5
41596,78770,4
41604,78779,5
41608,78784,5
41607,78790,5
41606,78793,5
41612,78805,4
41614,78804,5
41621,78805,5
41624,78809,5
41624,78817,4
41631,78823,5
41637,78835,5
41636,78849,5
41646,78836,5
41636,78824,4
41639,78836,5
41641,78836,5
41626,78828,5
41635,78837,5
41624,78823,3
41638,78820,5
41623,78819,5
41632,78822,5
41630,78805,5
41626,78806,4
41623,78806,5
41622,78798,5
41613,78807,5
41616,78805,5
41618,78818,4
41627,78823,5
41633,78836,5
41633,78837,5
41643,78851,4
41652,78874,5
41666,78893,5
41683,78908,5
41693,78928,5
41684,78954,4
41715,78979,6
41729,79001,4
41742,79015,5
41732,79041,5
41756,79050,6
41780,79079,3
41777,79080,5
41781,79093,5
41800,79111,5
41796,79124,4
41798,79119,5
41815,79139,5
41809,79144,5
41809,79134,5
41808,79142,4
41825,79136,5
41799,79115,5
41794,79110,5
41780,79091,4
41780,79074,5
41753,79050,5
41739,79036,5
41733,79022,5
41734,79001,4
41729,78995,5
41728,78994,6
41721,78992,4
41733,78985,5
41726,79005,4
41730,79015,5
41736,79023,5
41736,79008,5
41750,79031,5
41752,79050,4
41761,79056,5
41768,79052,5
41782,79096,5
41789,79101,5
41790,79090,4
41762,79060,5
41749,79026,5
41743,79009,5
41728,79004,4
41725,79004,4
41713,78983,5
41724,78993,5
41720,78997,5
41724,79030,4
41725,79002,5
41741,79015,5
41735,79018,11
41745,79044,3
41749,79030,5
41758,79055,5
41766,79067,5
41760,79073,5
41769,79074,4
41780,79092,5
41783,79095,5
41786,79101,5
41790,79115,5
41793,79116,4
41798,79120,5
41794,79125,5
41800,79125,5
41802,79136,4
41806,79136,4
41809,79137,5
41805,79143,5
41808,79147,5
41811,79149,5
41820,79154,4
41822,79166,5
41830,79182,5
41833,79181,6
41832,79184,3
41835,79186,5
41824,79174,5
41825,79178,5
41834,79178,5
41828,79177,4
41830,79175,5
41830,79168,5
41818,79157,5
41822,79157,5
41824,79153,4
41805,79148,5
41809,79143,5
41812,79144,5
41798,79147,5
41808,79138,4
41809,79137,5
41806,79137,5
41810,79148,5
41822,79163,4
41810,79160,5
41822,79170,4
41824,79174,5
41836,79194,5
41834,79190,6
41847,79212,3
41853,79219,5
41861,79222,5
41853,79220,5
41862,79233,4
41871,79241,5
41861,79252,5
41872,79244,5
41864,79255,5
41873,79255,4
41872,79249,5
41870,79252,5
41873,79256,5
41865,79253,5
41868,79251,4
41870,79250,5
41870,79240,5
41867,79241,5
41866,79239,4
41855,79220,4
41856,79216,6
41854,79207,4
41846,79205,5
41838,79190,4
41823,79174,5
41815,79160,5
41807,79135,5
41797,79101,5
41768,79065,4
41755,79031,5
41731,78982,5
41708,78945,5
41675,78908,5
41658,78869,4
41644,78838,5
41627,78807,5
41609,78785,5
41604,78777,5
41604,78766,4
41604,78778,5
41585,78764,5
41604,78781,5
41601,78776,5
41604,78782,4
41584,78767,5
41603,78787,6
41607,78778,4
41603,78782,4
41594,78801,5
41615,78808,5
41611,78776,5
41586,78725,5
41530,78662,4
41525,78621,5
41505,78594,5
41487,78562,5
41479,78540,5
41457,78527,4
41452,78512,5
41437,78502,5
41466,78506,5
41444,78492,5
41431,78486,4
41444,78498,5
41455,78488,5
41435,78493,5
41436,78493,5
41434,78493,4
41448,78494,5
41440,78503,5
41439,78499,6
41442,78502,3
41454,78503,4
41453,78511,5
41453,78509,5
41451,78512,5
41458,78496,4
41454,78508,5
41449,78511,5
41454,78516,5
41444,78487,5
41449,78510,4
41450,78499,5
41445,78496,5
41453,78501,5
41450,78517,5
41451,78518,4
41462,78512,5
41458,78520,5
41450,78512,5
41448,78497,5
41447,78495,5
41445,78505,4
41431,78475,5
41428,78471,5
41424,78462,5
41417,78468,4
41418,78439,5
41408,78427,5
41402,78420,5
41392,78418,4
41394,78393,5
41381,78385,5
41376,78378,5
41369,78381,5
41372,78360,4
41378,78370,5
41359,78362,5
41377,78361,5
41374,78375,5
41373,78372,4
41381,78382,5
41389,78380,5
41386,78386,5
41403,78405,5
41389,78404,4
41396,78418,6
41400,78428,4
41402,78427,5
41409,78425,5
41407,78446,4
41413,78443,5
41410,78441,5
41413,78445,5
41424,78459,4
41428,78458,4
41422,78464,5
41425,78459,5
41426,78468,5
41419,78470,4
41425,78459,5
41419,78457,5
41409,78455,5
41418,78442,5
41419,78439,4
41411,78430,5
41398,78413,5
41396,78394,5
41371,78365,5
41355,78328,4
41337,78287,5
41316,78255,6
41290,78226,4
41274,78189,5
41258,78155,4
41246,78144,5
41234,78126,5
41227,78126,5
41230,78123,4
41233,78126,4
41243,78129,5
41241,78143,5
41244,78140,5
41241,78154,4
41249,78165,5
41251,78158,5
41262,78163,5
41264,78170,5
41259,78176,4
41270,78189,5
41268,78192,5
41268,78191,5
41266,78163,5
41237,78122,4
41212,78069,5
41187,78040,5
41176,78020,5
41160,77998,5
41149,77982,4
41145,77968,5
41146,77957,5
41132,77964,5
41134,77963,5
41142,77951,4
41145,77959,5
41142,77963,5
41149,77971,5
41151,77979,4
41154,77988,4
41173,77993,5
41158,78002,5
41160,78017,5
41181,78021,4
41178,78034,5
41185,78033,5
41186,78039,5
41179,78047,5
41196,78050,5
41199,78056,4
41191,78061,5
41200,78058,5
41201,78068,5
41194,78061,4
41182,78054,5
41206,78065,5
41203,78064,5
41203,78065,5
41186,78072,4
41210,78075,5
41211,78070,5
41201,78063,5
41203,78064,4
41192,78064,4
41199,78059,5
41201,78050,5
41218,78051,5
41191,78040,4
41192,78049,5
41180,78034,5
41202,78033,4
41182,78027,5
41169,78018,4
41173,78027,6
41184,78016,3
41167,78025,5
41169,78026,5
41180,78024,4
41175,78025,5
41176,78036,5
41182,78043,5
41189,78032,5
41187,78043,4
41201,78068,5
41200,78074,5
41215,78081,5
41221,78078,5
41216,78099,4
41220,78111,5
41222,78124,5
41243,78117,5
41243,78144,4
41254,78150,5
41257,78162,5
41255,78172,6
41261,78175,4
41271,78181,4
41277,78200,5
41269,78203,5
41276,78185,5
41271,78195,5
41274,78193,4
41269,78223,5
41276,78198,5
41278,78200,5
41275,78200,5
41280,78196,4
41270,78193,5
41272,78176,5
41268,78176,5
41258,78179,5
41267,78175,4
41257,78170,5
41261,78168,5
41263,78173,5
41249,78156,5
41254,78155,4
41253,78159,5
41258,78158,5
41253,78145,6
41240,78146,3
41244,78144,5
41252,78138,5
41248,78139,5
41247,78134,5
41243,78136,4
41237,78124,5
41234,78143,5
41230,78130,5
41234,78125,5
41234,78119,4
41236,78115,5
41225,78111,5
41214,78092,5
41204,78067,5
41197,78048,4
41182,78028,5
41170,77996,5
41153,77980,5
41144,77963,4
41135,77951,5
41135,77940,4
41124,77945,5
41123,77946,5
41137,77947,6
41140,77972,3
41154,77997,5
41161,78006,5
41165,78022,5
41184,78035,4
41191,78051,5
41192,78065,5
41200,78074,5
41207,78077,5
41207,78085,4
41221,78091,5
41217,78098,5
41200,78061,5
41180,78008,5
41161,77989,4
41149,77963,5
41129,77958,5
41143,77950,5
41129,77936,5
41128,77932,4
41129,77942,6
41128,77946,4
41124,77942,5
41144,77955,4
41147,77968,4
41142,77972,5
41159,77984,5
41161,78000,5
41166,78005,4
41171,78018,5
41180,78040,5
41195,78053,5
41198,78060,5
41197,78072,4
41213,78079,5
41226,78096,5
41222,78101,5
41224,78101,5
41227,78111,4
41232,78118,5
41228,78109,5
41230,78118,5
41232,78124,5
41232,78124,4
41229,78119,5
41233,78123,6
41238,78106,4
41235,78122,4
41232,78128,4
41227,78121,5
41226,78121,5
41240,78118,5
41226,78106,4
41231,78111,5
41216,78124,5
41232,78103,5
41218,78102,5
41225,78100,4
41200,78093,5
41223,78084,5
41211,78087,5
41224,78095,5
41206,78094,4
41214,78089,5
41231,78094,5
41221,78113,5
41240,78103,5
41219,78112,4
41222,78113,5
41237,78122,5
41255,78135,6
41241,78143,4
41253,78152,4
41254,78160,5
41288,78171,5
41268,78185,5
41276,78203,4
41287,78211,5
41300,78221,5
41299,78227,5
41304,78243,5
41313,78255,4
41314,78245,5
41315,78267,9
41324,78284,1
41332,78278,5
41329,78310,4
41335,78294,5
41331,78297,5
41341,78298,5
41343,78275,5
41332,78289,5
41336,78290,4
41334,78291,5
41329,78277,5
41331,78293,5
41327,78288,4
41336,78284,5
41328,78281,5
41321,78269,5
41318,78256,4
41312,78254,4
41302,78256,5
41303,78232,5
41291,78209,5
41280,78195,4
41267,78196,5
41256,78162,5
41262,78146,5
41249,78145,5
41234,78148,4
41240,78130,5
41242,78139,5
41242,78149,5
41256,78156,5
41255,78151,4
41252,78167,6
41271,78173,4
41272,78201,5
41285,78206,5
41295,78220,4
41301,78237,5
41296,78250,5
41306,78244,5
41315,78253,5
41317,78273,4
41309,78266,5
41305,78231,5
41282,78206,5
41268,78192,4
41270,78187,5
41271,78195,5
41273,78192,5
41279,78202,5
41292,78211,4
41282,78220,5
41293,78232,5
41294,78253,5
41307,78254,5
41305,78253,4
41318,78275,5
41324,78283,6
41332,78302,4
41344,78323,5
41346,78324,4
41356,78338,5
41352,78340,5
41364,78349,5
41358,78349,5
41359,78346,4
41367,78348,5
41364,78346,5
41359,78347,5
41356,78333,4
41353,78336,5
41352,78330,5
41350,78325,5
41349,78321,5
41342,78316,4
41347,78331,5
41351,78316,5
41345,78309,5
41337,78305,5
41340,78295,4
41323,78288,5
41320,78277,5
41320,78284,6
41319,78277,4
41307,78263,4
41305,78253,5
41294,78234,5
41285,78224,5
41288,78215,5
41277,78209,4
41282,78203,5
41278,78198,5
41276,78201,5
41275,78202,4
41280,78204,4
41275,78200,5
41278,78208,5
41283,78204,5
41281,78211,4
41284,78224,5
41290,78235,5
41301,78242,5
41309,78255,5
41324,78269,5
41319,78283,4
41328,78299,5
41330,78306,5
41343,78314,5
41344,78322,4
41349,78336,5
41354,78337,5
41362,78345,5
41359,78343,5
41358,78347,4
41366,78350,5
41358,78358,5
41373,78358,5
41372,78365,5
41370,78357,4
41352,78358,5
41371,78361,5
41363,78352,5
41370,78355,4
41345,78351,5
41356,78336,5
41354,78334,5
41350,78321,5
41353,78309,4
41348,78307,6
41331,78283,4
41320,78258,5
41326,78255,5
41305,78240,4
41294,78219,5
41290,78211,5
41307,78208,5
41275,78202,5
41274,78206,4
41280,78190,5
41286,78213,5
41285,78205,5
41285,78214,5
41283,78223,4
41293,78227,5
41298,78233,5
41298,78230,5
41294,78240,4
41302,78239,4
41306,78248,5
41306,78241,5
41306,78257,5
41307,78225,4
41296,78214,5
41271,78166,6
41240,78135,4
41240,78102,5
41228,78110,4
41221,78101,5
41211,78104,5
41219,78093,5
41218,78098,5
41227,78107,4
41228,78103,5
41219,78133,5
41239,78122,5
41244,78132,5
41250,78153,4
41265,78197,5
41276,78189,5
41284,78210,5
41291,78221,4
41299,78241,4
41300,78246,5
41312,78265,5
41315,78267,5
41318,78277,3
41327,78289,5
41328,78295,5
41339,78294,5
41334,78302,5
41334,78305,4
41333,78301,5
41338,78306,5
41349,78309,5
41339,78316,5
41344,78328,4
41356,78320,5
41354,78319,5
41343,78302,5
41341,78305,5
41337,78305,4
41339,78297,5
41338,78294,5
41333,78293,5
41334,78289,5
41328,78288,5
41328,78282,4
41325,78287,5
41324,78294,5
41332,78293,6
41331,78298,3
41342,78300,5
41340,78326,5
41349,78319,5
41346,78322,4
41364,78351,5
41365,78360,5
41384,78386,5
41387,78392,5
41407,78428,4
41414,78444,5
41425,78462,5
41436,78481,5
41436,78506,5
41458,78519,4
41477,78537,5
41491,78563,5
41498,78576,5
41506,78594,5
41510,78605,4
41516,78615,6
41528,78623,4
41531,78649,5
41538,78659,4
41542,78663,6
41554,78662,3
41542,78662,5
41549,78657,5
41545,78652,4
41535,78643,5
41535,78639,5
41521,78626,5
41511,78604,5
41505,78592,4
41493,78578,5
41485,78552,5
41479,78550,5
41463,78535,5
41465,78520,4
41455,78514,5
41461,78519,5
41454,78519,5
41455,78523,5
41468,78527,4
41469,78535,5
41463,78550,6
41476,78546,4
41483,78552,5
41473,78564,4
41479,78565,5
41490,78575,5
41486,78589,5
41492,78583,4
41486,78567,5
41475,78534,5
41449,78501,5
41445,78470,5
41427,78471,4
41423,78453,5
41421,78443,5
41413,78447,5
41418,78452,5
41414,78451,4
41430,78460,5
41416,78475,5
41432,78494,5
41440,78493,5
41448,78509,4
41440,78519,5
41469,78543,5
41478,78556,6
41478,78568,4
41486,78581,4
41505,78611,5
41524,78622,5
41521,78625,5
41541,78641,4
41534,78656,4
41534,78653,5
41538,78663,5
41568,78661,5
41544,78667,4
41553,78669,5
41547,78675,5
41571,78671,5
41550,78682,5
41549,78686,4
41558,78698,5
41564,78695,5
41556,78690,5
41565,78683,5
41556,78681,5
41539,78668,4
41547,78673,5
41543,78665,5
41535,78661,6
41541,78644,3
41534,78653,5
41535,78637,5
41526,78638,5
41531,78617,5
41520,78632,4
41528,78639,5
41519,78629,5
41531,78620,5
41522,78639,4
41526,78649,5
41542,78660,5
41549,78676,5
41550,78687,5
41574,78706,4
41570,78726,5
41594,78777,5
41597,78782,5
41615,78803,5
41632,78823,4
41646,78866,6
41650,78867,4
41675,78889,5
41677,78913,5
41690,78925,4
41696,78939,5
41710,78955,5
41717,78967,5
41715,78970,5
41713,78983,4
41723,78982,5
41727,78972,5
41714,78962,5
41710,78959,4
41706,78939,4
41696,78935,5
41681,78913,5
41676,78892,5
41664,78875,4
41649,78871,5
41660,78858,5
41648,78849,5
41652,78856,5
41647,78850,4
41641,78858,5
41653,78870,6
41661,78877,4
41653,78881,5
41652,78882,4
41667,78894,5
41675,78904,5
41684,78907,5
41692,78943,5
41704,78942,4
41700,78948,5
41689,78917,5
41667,78885,5
41655,78873,4
41659,78868,4
41641,78862,5
41652,78860,5
41652,78856,5
41653,78867,4
41652,78873,5
41662,78873,5
41660,78878,5
41664,78887,5
41668,78893,4
41685,78911,5
41676,78926,5
41695,78933,6
41703,78948,4
41702,78959,4
41709,78984,5
41725,78993,5
41724,79009,5
41745,79017,5
41739,79025,4
41751,79033,5
41753,79045,5
41754,79053,5
41753,79044,5
41747,79052,4
41753,79059,5
41764,79062,5
41762,79063,5
41769,79057,4
41772,79074,5
41785,79104,5
41797,79116,5
41793,79125,5
41794,79129,5
41800,79125,4
41800,79123,5
41792,79117,5
41795,79126,5
41796,79124,4
41794,79123,5
41795,79131,5
41798,79114,5
41791,79108,5
41787,79111,4
41790,79115,5
41787,79112,5
41802,79113,5
41784,79118,5
41792,79109,4
41791,79111,5
41796,79128,5
41796,79118,5
41800,79139,4
41804,79150,4
41811,79154,5
41810,79169,5
41833,79181,5
41834,79201,4
41844,79223,6
41830,79221,4
41860,79241,5
41866,79255,5
41873,79252,4
41865,79279,8
41884,79282,2
41882,79283,5
41888,79274,5
41884,79278,4
41877,79261,5
41873,79251,5
41862,79234,5
41872,79220,5
41847,79199,4
41838,79181,5
41827,79159,5
41823,79135,5
41792,79115,4
41780,79095,4
41771,79076,5
41775,79056,5
41755,79059,5
41757,79054,4
41739,79045,5
41744,79032,6
41752,79029,4
41742,79026,5
41741,79036,4
41749,79023,5
41757,79050,5
41763,79054,5
41754,79049,5
41735,78986,4
41701,78947,5
41683,78926,5
41667,78899,5
41649,78863,5
41658,78858,4
41653,78850,5
41638,78844,5
41634,78842,5
41629,78825,5
41630,78820,4
41624,78814,5
41613,78822,5
41609,78785,5
41601,78780,4
41607,78781,5
41604,78786,5
41596,78768,5
41590,78768,5
41584,78753,4
41583,78752,5
41574,78741,5
41579,78719,5
41572,78721,5
41574,78719,4
41562,78709,5
41556,78694,5
41549,78689,5
41546,78679,5
41544,78673,4
41538,78668,5
41538,78655,5
41529,78664,5
41541,78668,5
41536,78664,4
41532,78647,5
41528,78644,5
41527,78627,5
41512,78622,5
41517,78608,4
41499,78602,5
41494,78590,5
41492,78577,5
41488,78570,4
41478,78555,5
41468,78536,5
41464,78523,5
41454,78498,5
41437,78478,4
41431,78461,5
41424,78455,5
41417,78443,5
41411,78430,5
41403,78422,4
41401,78420,5
41402,78424,5
41397,78421,5
41399,78421,5
41397,78416,4
41407,78420,5
41398,78427,4
41408,78425,5
41408,78421,4
41407,78425,5
41411,78428,3
41407,78423,5
41414,78436,5
41417,78448,4
41417,78449,5
41419,78454,5
41420,78451,5
41428,78459,5
41425,78457,4
41417,78461,5
41421,78462,5
41420,78455,5
41422,78463,5
41427,78460,4
41420,78448,5
41422,78454,5
41426,78445,5
41421,78448,5
41413,78440,4
41418,78441,5
41408,78437,6
41403,78425,4
41410,78414,5
41404,78413,4
41399,78398,5
41391,78379,5
41369,78353,5
41354,78333,4
41326,78290,5
41313,78246,5
41281,78203,5
41260,78157,5
41245,78127,4
41227,78108,5
41223,78089,5
41206,78083,5
41214,78079,5
41206,78085,4
41212,78095,5
41218,78101,5
41223,78107,5
41236,78126,5
41243,78142,4
41257,78152,5
41258,78170,5
41268,78182,6
41277,78183,4
41274,78200,4
41287,78206,5
41279,78224,5
41283,78224,5
41282,78204,4
41262,78166,5
41208,78116,5
41205,78084,5
41202,78061,5
41195,78041,4
41167,78029,5
41175,78019,5
41166,78012,5
41162,78019,5
41174,78006,4
41160,78008,5
41169,78009,5
41177,78015,5
41188,78015,5
41177,78027,5
41171,78026,4
41193,78046,5
41203,78045,5
41199,78053,6
41202,78059,3
41197,78067,5
41210,78074,5
41212,78069,5
41207,78078,4
41216,78084,4
41215,78071,5
41219,78082,5
41217,78084,5
41208,78079,4
41207,78075,5
41214,78089,5
41205,78086,5
41217,78099,5
41214,78063,4
41221,78088,5
41216,78094,5
41217,78083,5
41211,78070,5
41215,78088,4
41203,78080,6
41216,78077,4
41203,78079,5
41204,78066,5
41205,78064,4
41200,78050,5
41206,78069,5
41195,78045,5
41189,78043,5
41192,78040,4
41193,78063,5
41192,78042,5
41185,78037,5
41178,78035,4
41185,78046,5
41180,78038,5
41192,78039,5
41200,78044,5
41189,78055,4
41195,78058,5
41202,78069,5
41211,78081,5
41219,78088,5
41217,78101,4
41230,78108,5
41232,78120,6
41239,78135,4
41249,78137,5
41245,78146,4
41252,78166,5
41259,78163,5
41267,78165,5
41267,78175,5
41275,78174,4
41268,78183,5
41269,78184,5
41277,78184,5
41278,78181,4
41267,78183,4
41275,78185,5
41274,78185,5
41266,78174,5
41258,78171,4
41259,78172,5
41267,78162,5
41264,78162,5
41259,78152,5
41253,78151,4
41242,78134,5
41242,78131,5
41237,78126,6
41252,78124,4
41240,78117,4
41238,78121,5
41223,78112,5
41224,78105,5
41220,78103,5
41224,78091,4
41218,78085,5
41217,78081,5
41206,78075,5
41205,78066,5
41207,78057,4
41199,78052,5
41197,78051,5
41201,78065,5
41194,78049,4
41184,78036,5
41179,78030,5
41172,78003,5
41158,77981,5
41141,77954,5
41124,77920,4
41101,77884,5
41095,77870,5
41077,77845,6
41066,77828,3
41058,77813,5
41061,77809,5
41055,77812,5
41075,77834,5
41063,77840,4
41086,77852,5
41095,77874,5
41103,77891,5
41101,77894,5
41115,77909,4
41124,77935,5
41135,77944,5
41132,77961,5
41143,77969,4
41153,77963,4
41154,77972,9
41153,77975,5
41145,77953,5
41106,77917,5
41097,77863,8
41070,77847,5
41068,77834,5
41053,77798,5
41046,77781,8
41036,77781,5
41047,77800,5
