RED,IR,EKG,TIME
36991,70324,12
37003,70346,5
37005,70357,5
37009,70373,5
37005,70361,8
37013,70356,5
37017,70364,5
37004,70368,8
37009,70369,5
37010,70366,5
37018,70365,5
36995,70339,8
36995,70339,5
36986,70326,5
36990,70328,8
36989,70316,5
36983,70281,5
36962,70280,8
36961,70276,5
36988,70258,5
36957,70261,5
36936,70236,8
36945,70230,5
36936,70235,5
36926,70206,8
36926,70206,5
36931,70248,5
36927,70215,5
36933,70191,8
36937,70229,5
36941,70230,5
36953,70231,8
36927,70243,5
36933,70260,5
36961,70273,8
36966,70279,5
36972,70287,5
36974,70291,5
36970,70282,8
36970,70282,5
36971,70279,5
36966,70288,8
36977,70283,5
36967,70263,5
36933,70266,5
36953,70263,8
36947,70259,5
36955,70271,5
36940,70225,8
36935,70212,5
36922,70205,5
36898,70153,8
36898,70153,5
36894,70149,5
36882,70124,5
36859,70110,8
36865,70106,5
36864,70093,5
36868,70125,8
36848,70096,5
36837,70032,5
36843,70044,5
36850,70044,8
36811,69998,5
36811,69998,5
36810,69998,8
36798,69971,5
36791,69964,5
36788,69965,8
36789,69957,5
36781,69944,5
36773,69896,5
36772,69903,8
36767,69922,5
36768,69911,5
36754,69900,8
36754,69900,5
36746,69881,5
36733,69862,5
36729,69848,8
36723,69840,5
36722,69829,5
36705,69797,8
36668,69753,5
36672,69740,5
36657,69713,8
36650,69700,5
36638,69691,5
36631,69699,5
36655,69722,8
36655,69722,5
36681,69750,5
36699,69768,8
36711,69779,5
36692,69794,5
36701,69808,5
36712,69824,8
36710,69843,5
36709,69831,5
36711,69830,8
36708,69835,5
36703,69808,5
36691,69771,8
36691,69771,5
36720,69779,5
36695,69797,3
36675,69796,3
36722,69805,0
36722,69805,4
36702,69816,4
36720,69834,5
36731,69853,5
36743,69869,6
36752,69908,3
36760,69934,5
36790,69962,5
36798,69989,5
36811,70005,5
36831,70043,4
36842,70053,6
36849,70081,4
36861,70095,5
36879,70113,5
36881,70132,4
36888,70153,5
36896,70157,5
36894,70168,5
36908,70168,5
36900,70180,4
36917,70188,5
36908,70176,5
36900,70171,5
36901,70162,5
36908,70174,4
36894,70168,5
36905,70168,5
36909,70155,5
36897,70148,4
36889,70130,5
36887,70128,5
36878,70121,5
36865,70106,5
36850,70089,4
36866,70075,5
36846,70051,6
36825,70032,4
36812,70026,5
36821,70006,4
36814,70000,5
36794,69986,5
36801,69979,5
36795,69962,5
36786,69958,4
36791,69969,5
36792,69954,5
36798,69964,5
36790,69975,5
36801,69984,4
36812,69980,5
36810,69987,5
36810,70001,5
36816,70024,4
36829,70017,4
36827,70030,5
36831,70040,5
36834,70049,5
36844,70059,4
36846,70071,5
36844,70067,5
36845,70072,6
36847,70060,4
36845,70057,4
36845,70065,5
36844,70066,5
36850,70047,5
36833,70046,5
36831,70047,4
36824,70035,5
36818,70017,5
36815,70007,5
36806,70006,5
36810,69987,4
36796,69977,5
36793,69968,5
36796,69963,5
36783,69950,5
36775,69941,4
36765,69923,5
36767,69916,5
36760,69898,5
36755,69904,5
36747,69877,4
36748,69879,5
36742,69865,5
36739,69872,6
36723,69852,3
36728,69845,5
36719,69833,5
36717,69832,5
36721,69823,5
36714,69827,4
36709,69806,5
36701,69797,5
36692,69784,5
36690,69775,5
36671,69751,4
36661,69719,5
36649,69694,5
36632,69667,5
36617,69641,5
36605,69631,4
36609,69630,5
36609,69635,5
36617,69639,5
36618,69646,4
36618,69642,5
36626,69658,4
36623,69674,5
36640,69687,5
36644,69695,4
36654,69722,5
36659,69724,5
36676,69733,5
36668,69741,5
36668,69746,4
36671,69748,5
36672,69746,5
36671,69750,5
36670,69741,5
36667,69728,4
36651,69701,5
36649,69680,5
36637,69682,5
36637,69687,5
36641,69671,4
36631,69687,5
36639,69690,5
36639,69698,5
36653,69704,4
36655,69728,4
36664,69742,6
36682,69756,4
36692,69793,5
36702,69813,4
36716,69835,5
36732,69858,5
36752,69890,5
36760,69918,5
36781,69943,4
36794,69962,5
36804,69992,5
36805,70006,5
36816,70025,5
36827,70040,4
36840,70046,5
36849,70062,5
36855,70069,5
36849,70068,5
36857,70083,4
36857,70081,5
36857,70088,5
36860,70082,5
36856,70084,5
36863,70076,4
36854,70075,5
36855,70067,6
36851,70063,4
36848,70056,4
36842,70044,5
36836,70032,5
36830,70020,5
36822,70023,5
36812,70005,4
36813,69983,5
36796,69973,5
36796,69963,5
36792,69956,5
36780,69946,4
36780,69931,5
36772,69915,5
36764,69927,5
36760,69910,5
36767,69902,4
36762,69925,5
36765,69923,5
36777,69924,5
36785,69936,5
36785,69955,4
36787,69965,5
36796,69972,5
36798,69989,5
36802,70005,4
36815,70019,4
36835,70034,5
36835,70042,5
36835,70050,5
36844,70056,4
36849,70063,5
36857,70078,5
36864,70070,5
36854,70084,5
36859,70083,4
36849,70083,5
36860,70071,5
36858,70085,5
36851,70070,5
36851,70058,4
36853,70057,5
36849,70053,5
36839,70043,5
36830,70027,5
36831,70019,5
36827,70011,4
36817,69992,5
36803,69987,5
36795,69979,5
36792,69973,4
36789,69965,5
36787,69949,5
36778,69928,5
36786,69945,4
36776,69915,5
36773,69909,5
36761,69909,5
36757,69905,5
36763,69899,4
36753,69888,5
36752,69877,5
36744,69867,5
36726,69859,5
36724,69835,4
36704,69821,5
36691,69791,5
36685,69763,5
36667,69745,5
36657,69722,4
36649,69708,6
36641,69696,4
36641,69695,5
36649,69704,5
36659,69702,4
36654,69710,5
36664,69733,5
36672,69744,5
36682,69762,4
36694,69779,4
36698,69792,5
36703,69797,5
36705,69809,5
36712,69818,4
36701,69820,5
36713,69825,5
36716,69829,5
36704,69807,5
36697,69794,4
36689,69784,5
36689,69777,5
36698,69782,6
36694,69781,4
36693,69783,4
36703,69803,5
36711,69801,5
36707,69825,5
36726,69852,5
36747,69881,4
36763,69902,5
36783,69944,5
36798,69977,5
36820,70016,4
36851,70058,4
36862,70084,5
36877,70124,5
36897,70156,5
36917,70185,4
36927,70220,5
36947,70237,5
36955,70268,5
36968,70280,5
36981,70286,5
36980,70294,4
36975,70300,5
36983,70321,5
36996,70313,6
36985,70318,3
36981,70314,5
36992,70315,5
36990,70312,5
36983,70307,5
36984,70304,4
36981,70302,5
36975,70282,5
36972,70270,5
36968,70262,5
36947,70242,4
36950,70230,5
36948,70220,5
36935,70214,5
36925,70186,4
36911,70179,5
36900,70163,5
36898,70146,5
36890,70131,5
36892,70125,4
36882,70117,6
36876,70107,4
36881,70104,5
36873,70111,5
36873,70113,6
36880,70124,3
36892,70131,5
36884,70137,5
36893,70148,5
36907,70161,4
36911,70183,5
36925,70207,5
36931,70227,5
36943,70239,5
36951,70268,4
36974,70281,5
36977,70295,5
36985,70305,5
36979,70311,4
36993,70313,4
36989,70308,5
36996,70319,5
36995,70308,5
36992,70312,4
36986,70314,5
36979,70299,6
36984,70299,4
36978,70286,5
36977,70284,4
36953,70264,5
36956,70249,5
36941,70231,5
36930,70213,5
36914,70187,4
36901,70151,5
36890,70134,5
36876,70106,5
36858,70073,5
36854,70052,4
36838,70032,5
36821,70022,5
36828,70018,5
36826,70011,4
36826,70016,4
36830,70019,5
36842,70034,5
36840,70044,5
36839,70050,4
36842,70053,5
36851,70063,5
36850,70065,6
36844,70065,4
36849,70074,4
36853,70072,5
36860,70078,5
36847,70064,5
36838,70033,5
36827,70010,4
36820,70008,5
36816,69998,5
36816,69999,5
36805,69995,5
36811,70008,4
36824,70003,5
36826,70024,5
36834,70035,5
36842,70061,5
36862,70095,4
36870,70115,5
36891,70156,5
36920,70195,5
36936,70227,5
36957,70273,4
36975,70307,5
36996,70338,5
37018,70362,6
37024,70392,3
37046,70421,5
37053,70437,5
37068,70455,5
37067,70461,5
37083,70476,4
37087,70483,5
37087,70492,5
37086,70486,5
37088,70492,5
37090,70483,4
37089,70485,5
37091,70492,5
37092,70484,5
37096,70494,5
37086,70483,4
37077,70468,5
37076,70464,5
37076,70472,5
37074,70461,4
37071,70444,5
37058,70445,4
37061,70431,5
37050,70426,5
37053,70406,4
37035,70389,5
37029,70389,5
37021,70360,5
37014,70356,5
37014,70347,4
37012,70347,5
37008,70344,5
37009,70343,5
37014,70341,5
37019,70355,4
37018,70361,5
37028,70372,5
37034,70388,5
37038,70409,5
37055,70424,4
37062,70441,5
37075,70464,5
37078,70489,5
37087,70492,4
37100,70507,4
37103,70531,6
37114,70528,4
37129,70535,5
37113,70552,4
37126,70546,5
37119,70543,9
37122,70548,1
37126,70575,5
37113,70538,4
37115,70529,5
37109,70524,5
37110,70518,5
37108,70508,5
37094,70496,4
37084,70470,5
37064,70446,5
37060,70412,5
37040,70391,5
37021,70353,4
37004,70316,5
36978,70284,5
36956,70247,5
36939,70219,4
36926,70208,4
36923,70197,5
36922,70200,6
36921,70196,4
36930,70210,4
36947,70219,5
36941,70235,5
36945,70253,5
36959,70257,5
36958,70271,4
36974,70282,5
36977,70291,5
36983,70308,5
36986,70314,5
36986,70323,4
36986,70307,5
36980,70287,5
36968,70278,5
36953,70264,5
36951,70247,4
36953,70245,5
36943,70241,5
36944,70246,5
36955,70257,5
36959,70268,4
36970,70274,5
36985,70293,5
36998,70328,5
37003,70348,4
37025,70379,5
37030,70408,5
37056,70441,5
37076,70489,5
37102,70513,4
37102,70534,5
37126,70557,5
37140,70581,5
37149,70598,5
37153,70602,4
37156,70624,5
37169,70626,5
37170,70628,5
37178,70644,5
37176,70643,4
37183,70653,5
37182,70644,5
37195,70647,5
37189,70646,4
37187,70648,5
37190,70664,4
37202,70664,5
37191,70669,5
37192,70658,4
37186,70650,5
37187,70655,5
37182,70660,5
37179,70652,5
37180,70646,4
37182,70641,5
37179,70641,5
37180,70631,5
37169,70625,5
37169,70594,4
37150,70593,5
37149,70589,5
37154,70589,5
37136,70555,5
37137,70562,4
37134,70549,5
37141,70567,5
37133,70554,5
37131,70553,4
37134,70562,4
37138,70568,6
37138,70579,4
37147,70583,5
37156,70591,4
37158,70611,5
37163,70630,5
37166,70634,5
37169,70630,5
37180,70646,4
37182,70662,5
37193,70667,5
37191,70650,5
37186,70656,5
37196,70665,4
37188,70667,5
37197,70663,5
37186,70654,5
37186,70641,5
37168,70633,4
37167,70614,5
37155,70593,5
37136,70569,5
37123,70537,4
37103,70501,4
37082,70471,5
37059,70432,5
37051,70405,5
37026,70377,4
37013,70359,5
37012,70349,5
37008,70353,5
37004,70349,5
37004,70348,4
37022,70361,5
37019,70374,5
37022,70375,5
37023,70387,5
37033,70400,4
37036,70411,5
37048,70418,5
37052,70428,5
37046,70418,5
37037,70394,4
37027,70374,5
37006,70363,5
37000,70339,5
36987,70324,5
36988,70311,4
36980,70300,5
36982,70290,5
36973,70282,5
36973,70280,4
36969,70286,5
36981,70294,5
36981,70293,5
36984,70308,5
36991,70322,4
36989,70323,5
37008,70339,5
37007,70356,5
37021,70369,5
37026,70391,4
37034,70402,5
37042,70409,5
37054,70434,5
37064,70445,5
37071,70448,4
37069,70457,5
37072,70475,4
37083,70478,5
37079,70480,5
37075,70476,6
37086,70469,3
37080,70470,5
37085,70474,5
37070,70475,4
37071,70469,5
37076,70466,5
37075,70459,5
37080,70458,5
37068,70443,4
37055,70438,5
37055,70436,5
37052,70422,5
37054,70421,5
37049,70415,4
37042,70402,5
37030,70387,5
37028,70380,5
37022,70351,5
37016,70348,4
36998,70331,5
36992,70312,6
36992,70304,4
36982,70295,5
36969,70287,4
36975,70285,5
36966,70277,5
36958,70276,5
36962,70264,4
36973,70275,5
36968,70267,5
36956,70275,5
36974,70288,5
36978,70294,4
36979,70305,5
36976,70305,5
36987,70310,5
36992,70317,5
36999,70330,4
36994,70338,5
36999,70335,5
37000,70333,5
37003,70333,5
37007,70338,4
37004,70326,5
37001,70324,5
36995,70324,6
37001,70325,4
36991,70322,4
36985,70311,5
36981,70308,5
36994,70297,5
36976,70292,4
36967,70278,5
36964,70264,5
36955,70260,5
36944,70253,5
36946,70229,4
36946,70223,5
36935,70221,5
36932,70203,5
36928,70194,5
36930,70181,4
36919,70167,5
36912,70169,5
36912,70166,5
36901,70154,5
36901,70148,5
36890,70143,4
36894,70140,5
36886,70139,5
36888,70138,6
36877,70121,3
36881,70127,5
36885,70121,5
36882,70116,5
36867,70112,4
36874,70110,4
36873,70084,5
36860,70096,5
36856,70075,5
36857,70067,4
36839,70059,5
36844,70054,5
36839,70035,5
36836,70045,5
36823,70022,4
36823,70018,5
36821,70012,5
36809,70002,5
36802,69988,5
36804,69980,4
36788,69961,6
36795,69958,4
36779,69945,5
36784,69946,5
36779,69926,4
36770,69925,5
36771,69925,5
36767,69913,5
36765,69906,4
36757,69900,4
36757,69893,5
36755,69888,5
36743,69871,5
36741,69866,4
36724,69841,5
36713,69804,5
36692,69765,5
36661,69724,5
36634,69691,4
36619,69651,5
36597,69620,5
36592,69602,5
36595,69608,5
36594,69617,4
36602,69624,5
36601,69630,6
36610,69644,4
36623,69660,5
36624,69681,4
36651,69707,5
36668,69739,5
36682,69761,5
36691,69786,4
36701,69799,4
36713,69823,5
36726,69842,5
36735,69866,5
36729,69866,4
36733,69856,5
36714,69829,5
36723,69815,5
36717,69819,5
36706,69801,4
36706,69800,5
36706,69807,5
36700,69817,5
36704,69816,5
36711,69819,4
36721,69837,5
36726,69851,5
36740,69871,6
36749,69896,4
36764,69917,4
36775,69961,5
36802,69992,5
36817,70017,5
36826,70042,5
36849,70068,4
36863,70090,5
36881,70115,5
36894,70141,5
36893,70171,4
36906,70169,5
36919,70189,5
36923,70209,5
36929,70208,5
36934,70221,4
36930,70218,5
36934,70217,5
36938,70229,5
36935,70221,5
36939,70212,5
36933,70214,4
36935,70210,5
36928,70205,5
36931,70203,5
36931,70203,4
36934,70201,5
36925,70189,5
36916,70180,5
36908,70189,5
36906,70176,4
36902,70159,5
36898,70153,5
36890,70151,5
36895,70143,4
36882,70131,5
36880,70131,5
36878,70117,5
36874,70109,5
36875,70105,4
36876,70107,5
36876,70096,5
36871,70085,5
36871,70094,5
36865,70092,4
36870,70093,6
36867,70097,4
36875,70095,5
36872,70106,5
36877,70098,4
36879,70112,5
36874,70117,5
36874,70117,5
36896,70127,5
36886,70133,4
36889,70131,5
36895,70143,5
36892,70146,5
36895,70145,4
36891,70145,5
36891,70133,5
36891,70134,5
36888,70131,5
36879,70136,4
36886,70129,5
36870,70112,5
36866,70114,5
36870,70100,5
36864,70090,4
36867,70073,5
36855,70081,6
36852,70071,4
36846,70051,5
36841,70053,4
36830,70036,5
36831,70020,5
36822,70007,5
36812,70001,5
36813,69989,4
36803,69969,5
36801,69973,5
36794,69963,5
36789,69949,4
36780,69949,5
36783,69940,5
36777,69923,5
36768,69924,5
36762,69918,4
36759,69891,5
36760,69898,5
36746,69888,5
36739,69878,5
36747,69872,4
36741,69864,5
36736,69862,5
36728,69849,5
36712,69835,5
36714,69821,4
36708,69800,5
36690,69782,5
36674,69751,5
36663,69713,5
36636,69683,4
36625,69661,5
36615,69638,5
36606,69618,5
36607,69611,4
36604,69611,5
36595,69615,5
36602,69620,5
36605,69638,5
36620,69646,4
36626,69668,5
36639,69686,7
36644,69700,3
36649,69720,5
36661,69734,5
36674,69741,4
36675,69750,5
36679,69765,5
36682,69766,5
36682,69772,4
36681,69770,5
36674,69743,5
36664,69719,5
36659,69727,5
36660,69723,4
36653,69717,5
36652,69716,5
36648,69725,5
36662,69717,4
36658,69722,5
36675,69744,5
36670,69754,5
36683,69779,5
36699,69805,4
36718,69829,5
36739,69862,5
36746,69891,5
36760,69914,5
36772,69955,4
36794,69978,6
36808,70009,4
36818,70022,5
36838,70046,5
36842,70063,4
36855,70067,5
36864,70084,5
36862,70100,5
36872,70107,5
36875,70110,4
36873,70101,5
36872,70114,5
36865,70108,5
36870,70104,4
36870,70091,4
36862,70089,5
36861,70094,5
36862,70083,5
36860,70082,4
36850,70081,5
36853,70065,5
36848,70052,5
36838,70046,5
36830,70034,4
36822,70017,5
36821,70013,5
36816,70006,5
36802,69980,5
36791,69975,4
36794,69954,5
36795,69949,5
36783,69934,5
36771,69921,5
36758,69914,4
36762,69913,5
36755,69904,5
36760,69907,5
36758,69904,5
36756,69910,4
36770,69912,5
36765,69923,5
36758,69938,5
36778,69934,4
36780,69941,4
36784,69951,5
36797,69964,5
36800,69964,5
36792,69973,3
36807,69978,5
36812,69993,5
36800,69985,5
36806,69994,5
36811,69983,4
36818,69994,5
36798,69997,5
36807,69994,5
36803,69988,5
36804,69984,4
36798,69975,5
36793,69965,5
36784,69960,5
36787,69946,5
36776,69938,4
36773,69934,5
36764,69918,5
36768,69919,5
36758,69907,4
36750,69891,6
36748,69880,4
36742,69857,5
36739,69858,5
36734,69852,6
36732,69849,3
36720,69832,5
36715,69828,5
36721,69815,5
36703,69810,4
36700,69810,5
36689,69790,5
36694,69774,5
36685,69766,5
36670,69748,4
36662,69713,5
36642,69694,5
36623,69663,5
36611,69649,5
36598,69604,4
36584,69593,5
36580,69572,5
36574,69580,5
36583,69580,4
36583,69591,4
36582,69599,6
36595,69608,4
36598,69626,5
36610,69631,4
36619,69659,7
36635,69671,3
36634,69682,5
36641,69701,5
36649,69711,4
36646,69710,5
36651,69727,5
36663,69729,5
36659,69727,5
36652,69709,4
36638,69689,5
36634,69681,5
36627,69686,5
36639,69688,5
36628,69678,4
36640,69698,5
36640,69702,5
36649,69709,5
36662,69726,4
36664,69749,4
36675,69773,5
36693,69797,6
36725,69834,4
36732,69865,4
36752,69903,5
36770,69939,5
36792,69974,5
36810,70004,5
36823,70027,4
36849,70049,5
36853,70076,5
36866,70108,5
36878,70115,5
36891,70126,4
36896,70143,5
36894,70147,5
36897,70171,5
36916,70167,5
36903,70168,4
36911,70166,5
36907,70165,5
36916,70164,5
36911,70178,5
36905,70177,4
36909,70181,5
36913,70174,5
36903,70169,6
36902,70155,3
36892,70155,5
36899,70146,5
36887,70136,5
36888,70124,5
36882,70124,4
36876,70122,5
36872,70093,5
36862,70088,5
36860,70082,5
36848,70056,4
36847,70058,5
36832,70048,5
36841,70040,5
36838,70042,5
36837,70040,4
36841,70049,5
36851,70052,5
36842,70048,5
36854,70061,5
36852,70074,5
36855,70089,4
36869,70100,5
36876,70109,5
36875,70127,6
36881,70138,3
36890,70160,5
36900,70158,5
36913,70168,5
36914,70183,4
36915,70184,5
36919,70176,5
36913,70192,5
36921,70181,5
36917,70194,4
36914,70186,5
36915,70187,5
36918,70186,5
36915,70179,5
36908,70185,4
36919,70177,5
36909,70169,5
36905,70170,5
36895,70160,5
36892,70145,4
36889,70130,6
36882,70114,4
36859,70092,5
36848,70060,5
36828,70036,4
36814,70009,5
36808,69987,5
36788,69959,5
36785,69943,4
36771,69922,5
36770,69911,5
36757,69912,5
36755,69899,5
36762,69910,4
36775,69925,5
36765,69925,5
36765,69940,5
36778,69938,5
36772,69950,4
36791,69962,5
36789,69960,5
36787,69961,5
36792,69974,5
36789,69974,4
36795,69968,5
36789,69968,6
36774,69930,4
36771,69937,5
36776,69935,4
36764,69929,5
36770,69924,5
36773,69932,5
36775,69934,4
36780,69948,5
36786,69964,5
36794,69968,5
36808,69998,5
36817,70014,4
36830,70059,5
36858,70081,5
36869,70120,5
36891,70143,5
36900,70185,4
36923,70210,5
36937,70236,5
36953,70273,5
36976,70294,5
36975,70310,4
36983,70321,5
37000,70328,5
36999,70337,6
37005,70345,4
37006,70349,4
37011,70364,5
37010,70357,5
37018,70361,5
37009,70368,4
37010,70355,4
37007,70357,5
37012,70371,5
37006,70363,5
37006,70357,4
37002,70354,5
37012,70344,5
36995,70336,5
36993,70323,5
36988,70313,4
36975,70301,5
36971,70292,5
36969,70276,5
36962,70263,5
36949,70250,5
36952,70246,4
36939,70230,5
36935,70215,5
36934,70219,5
36926,70215,4
36936,70212,5
36928,70219,5
36931,70219,5
36945,70225,5
36939,70231,4
36950,70240,5
36954,70258,5
36965,70277,5
36962,70285,4
36970,70302,5
36987,70316,5
36993,70342,5
37001,70351,5
37007,70367,4
37018,70375,5
37027,70396,5
37032,70402,5
37030,70401,5
37037,70406,4
37044,70414,6
37030,70407,4
37043,70396,5
37032,70394,5
37021,70378,4
37019,70362,5
37005,70345,5
36996,70322,5
36977,70295,5
36960,70275,4
36952,70243,5
36941,70225,5
36925,70198,5
36912,70197,4
36913,70189,4
36913,70183,5
36917,70188,5
36912,70201,5
36915,70197,4
36927,70214,5
36924,70219,5
36933,70224,5
36945,70236,5
36947,70252,4
36955,70262,5
36954,70268,6
36956,70268,4
36953,70258,5
36946,70236,4
36925,70225,5
36927,70215,5
36927,70207,5
36918,70198,5
36926,70203,4
36916,70204,5
36916,70208,5
36923,70218,5
36933,70223,5
36946,70234,4
36950,70272,5
36960,70281,5
36978,70326,5
36997,70338,4
37003,70371,5
37028,70403,5
37046,70424,5
37059,70444,5
37055,70468,4
37086,70492,5
37096,70508,5
37096,70520,5
37099,70532,5
37112,70532,4
37119,70541,5
37121,70548,5
37125,70558,5
37120,70550,5
37124,70545,4
37125,70555,5
37130,70561,5
37124,70549,5
37123,70560,5
37123,70558,4
37136,70565,5
37116,70553,5
37115,70553,5
37118,70545,4
37118,70536,4
37114,70535,5
37108,70531,5
37107,70528,5
37100,70520,5
37100,70523,4
37097,70504,5
37095,70505,5
37079,70475,5
37083,70474,4
37072,70470,5
37069,70471,5
37065,70455,5
37063,70457,5
37061,70467,4
37066,70460,5
37071,70460,5
37076,70470,5
37086,70485,5
37077,70484,4
37089,70513,5
37097,70529,5
37104,70526,5
37102,70543,5
37116,70566,4
37127,70561,5
37127,70577,5
37135,70584,5
37133,70598,4
37143,70589,6
37146,70597,4
37142,70595,5
37158,70601,5
37148,70596,4
37151,70601,5
37144,70603,5
37139,70592,5
37132,70580,5
37123,70570,9
37109,70553,0
37106,70502,5
37080,70492,5
37069,70473,5
37048,70434,4
37036,70403,5
37013,70370,5
37006,70352,5
36993,70326,5
36980,70314,4
36986,70323,5
36991,70327,6
36982,70329,4
36989,70340,4
37000,70345,4
37007,70372,5
37023,70378,5
37029,70403,5
37048,70430,4
37054,70450,5
37064,70468,5
37065,70473,5
37071,70474,5
37054,70445,4
37047,70427,5
37042,70422,5
37041,70405,5
37035,70387,5
37021,70393,4
37030,70393,5
37032,70383,5
37021,70396,5
37036,70402,5
37041,70421,4
37041,70427,5
37058,70437,5
37067,70456,6
37084,70484,4
37089,70495,4
37098,70530,5
37120,70554,5
37126,70578,5
37140,70594,4
37154,70605,5
37168,70632,5
37174,70639,5
37170,70650,5
37176,70655,4
37187,70651,5
37184,70662,5
37184,70666,5
37194,70669,5
37189,70684,4
37192,70674,5
37189,70681,5
37193,70678,5
37196,70681,5
37196,70683,5
37192,70672,4
37194,70683,5
37196,70669,5
37190,70676,6
37194,70668,3
37184,70657,5
37194,70669,5
37184,70662,5
37186,70665,4
37179,70663,4
37177,70652,5
37178,70649,5
37169,70641,5
37170,70640,4
37158,70627,5
37156,70606,5
37160,70611,5
37153,70608,5
37153,70590,4
37149,70586,5
37150,70598,5
37146,70593,5
37139,70594,5
37144,70597,4
37146,70600,6
37152,70603,4
37150,70615,5
37151,70623,5
37158,70626,6
37159,70632,3
37172,70632,5
37173,70639,5
37166,70638,5
37165,70639,4
37175,70637,5
37174,70654,5
37179,70653,5
37171,70634,4
37170,70645,5
37170,70635,5
37176,70639,5
37166,70632,5
37170,70621,4
37156,70622,5
37168,70617,5
37158,70616,5
37151,70611,5
37158,70608,4
37153,70609,5
37135,70582,6
37129,70584,4
37133,70575,5
37128,70580,4
37135,70565,5
37118,70549,5
37115,70536,5
37105,70519,5
37086,70497,4
37065,70465,5
37057,70430,5
37033,70378,5
37010,70356,4
36979,70296,4
36957,70251,5
36931,70220,5
36915,70197,5
36915,70189,4
36906,70173,5
36901,70180,5
36904,70181,5
36913,70186,5
36918,70204,4
36921,70224,5
36924,70230,5
36933,70239,6
36952,70258,4
36962,70284,4
36965,70296,5
36976,70321,5
36992,70333,5
36993,70344,5
36992,70315,4
36971,70290,5
36964,70282,5
36958,70260,5
36946,70248,4
36929,70227,4
36931,70219,5
36917,70213,5
36915,70205,5
36916,70196,4
36919,70199,5
36916,70211,5
36924,70210,5
36928,70219,5
36937,70218,5
36932,70224,4
36942,70250,5
36951,70265,5
36947,70279,6
36968,70286,3
36975,70305,5
36986,70317,5
36992,70336,5
36993,70350,5
37001,70358,4
37001,70363,5
37015,70375,5
37012,70374,5
37020,70382,5
37032,70384,4
37019,70378,5
37019,70384,5
37022,70387,5
37015,70377,4
37025,70384,4
37025,70387,5
37018,70377,5
37029,70383,5
37013,70372,4
37018,70378,6
37012,70360,4
37009,70370,5
37009,70357,5
37000,70362,4
37002,70353,5
37000,70344,5
36989,70333,5
36988,70328,5
36987,70318,4
36980,70310,5
36972,70309,5
36970,70294,5
36974,70284,5
36966,70286,4
36968,70278,5
36961,70281,5
36959,70282,5
36967,70279,5
36963,70272,4
36965,70275,5
36963,70287,5
36960,70286,5
36977,70291,4
36976,70294,5
36971,70297,6
36976,70312,4
36984,70312,5
36981,70321,4
36979,70333,5
36983,70321,5
36991,70325,5
36987,70331,5
36987,70336,4
36990,70326,5
36992,70326,5
36986,70320,5
36979,70328,5
36991,70321,4
36976,70314,5
36984,70307,5
36980,70312,5
36969,70305,5
36971,70299,4
36974,70288,5
36965,70286,5
36961,70272,5
36955,70274,4
36954,70259,4
36955,70270,5
36949,70253,6
36938,70243,4
36946,70241,4
36928,70234,5
36940,70232,5
36929,70223,5
36925,70215,5
36921,70211,4
36920,70206,5
36913,70206,5
36910,70192,5
36906,70192,5
36916,70187,4
36903,70181,5
36911,70183,5
36903,70176,5
36896,70166,5
36893,70161,4
36887,70152,5
36908,70151,5
36884,70132,5
36879,70133,5
36877,70123,4
36883,70110,5
36872,70109,5
36861,70092,5
36856,70090,4
36856,70069,5
36841,70064,5
36835,70051,5
36831,70055,5
36826,70031,4
36815,70031,5
36814,70020,5
36811,70019,5
36816,70004,5
36804,69999,4
36798,69990,5
36781,69969,5
36778,69935,5
36766,69920,5
36747,69887,4
36726,69842,5
36694,69795,5
36676,69752,5
36654,69714,5
36637,69680,5
36618,69668,4
36625,69675,5
36629,69685,5
36639,69690,4
36637,69703,4
36645,69708,5
36655,69712,5
36668,69739,5
36681,69778,4
36697,69803,5
36716,69824,5
36711,69841,5
36727,69876,5
36741,69882,4
36754,69892,5
36747,69894,5
36750,69878,5
36728,69857,5
36715,69837,4
36712,69832,5
36708,69823,5
36714,69822,5
36700,69821,5
36711,69829,4
36717,69832,6
36708,69832,4
36722,69843,5
36725,69856,4
36729,69869,4
36752,69894,5
36749,69914,5
36768,69947,5
36782,69976,4
36806,70002,5
36820,70024,5
36833,70049,5
36842,70085,5
36864,70091,4
36874,70114,5
36884,70134,5
36887,70150,5
36899,70167,5
36904,70173,4
36909,70179,5
36912,70181,5
36917,70189,5
36911,70188,5
36910,70197,4
36914,70194,5
36911,70191,5
36908,70180,5
36908,70175,5
36915,70171,4
36909,70170,5
36905,70164,5
36902,70158,5
36896,70155,4
36889,70153,4
36884,70141,5
36884,70141,5
36883,70132,5
36872,70119,4
36866,70109,5
36868,70109,5
36853,70083,5
36852,70083,5
36843,70060,5
36834,70056,4
36835,70055,5
36835,70051,5
36837,70050,6
36831,70042,3
36833,70031,5
36837,70039,5
36837,70043,5
36831,70034,5
36845,70051,4
36839,70065,5
36841,70069,5
36848,70071,5
36855,70073,4
36862,70092,4
36855,70098,5
36859,70101,5
36867,70109,5
36862,70111,4
36875,70110,5
36879,70113,5
36870,70124,5
36869,70116,5
36878,70111,4
36875,70106,6
36867,70108,4
36862,70105,5
36860,70093,5
36857,70088,6
36852,70073,3
36841,70069,5
36843,70061,5
36834,70052,5
36828,70053,4
36835,70043,5
36830,70036,5
36817,70031,5
36817,70014,5
36806,70006,4
36808,69993,5
36802,69990,5
36794,69977,5
36791,69975,4
36794,69964,4
36796,69953,5
36781,69947,5
36776,69944,5
36778,69929,4
36773,69924,5
36767,69920,6
36765,69914,4
36753,69912,5
36758,69895,4
36752,69889,5
36756,69875,5
36730,69856,5
36724,69842,5
36704,69812,4
36699,69788,5
36673,69774,5
36669,69737,5
36658,69708,5
36634,69680,4
36629,69669,5
36610,69656,5
36612,69652,5
36616,69649,5
36620,69659,4
36615,69676,5
36632,69682,5
36638,69683,5
36649,69720,4
36647,69723,5
36655,69735,5
36664,69735,6
36675,69752,6
36672,69749,2
36676,69752,5
36667,69762,5
36669,69738,5
36656,69733,5
36654,69709,4
36641,69712,5
36650,69708,5
36646,69703,5
36644,69696,5
36636,69713,4
36650,69707,5
36654,69708,5
36651,69728,5
36652,69746,5
36677,69758,4
36698,69778,5
36696,69803,5
36712,69835,5
36725,69855,5
36743,69897,4
36763,69919,5
36780,69955,5
36793,69972,6
36808,69998,3
36815,70032,5
36839,70029,5
36833,70035,5
36828,70049,5
36845,70057,4
36847,70068,5
36849,70072,5
36853,70070,5
36857,70066,5
36855,70079,4
36852,70072,5
36854,70060,5
36834,70060,5
36847,70055,5
36847,70061,4
36838,70049,5
36835,70044,5
36828,70037,5
36825,70019,5
36812,70009,5
36812,69995,4
36800,69983,5
36790,69966,5
36791,69945,6
36781,69938,3
36763,69924,5
36766,69910,5
36752,69904,5
36756,69888,4
36745,69887,5
36738,69870,5
36735,69876,5
36736,69867,5
36740,69870,4
36744,69869,5
36745,69871,5
36741,69882,5
36755,69889,5
36752,69901,4
36758,69909,5
36763,69916,5
36769,69938,5
36770,69945,5
36784,69947,4
36791,69952,6
36789,69967,4
36797,69972,5
36797,69976,4
36796,69980,4
36788,69973,5
36800,69986,5
36794,69976,5
36795,69973,4
36793,69967,5
36790,69966,5
36794,69972,5
36791,69953,5
36783,69964,4
36776,69942,5
36779,69937,5
36770,69923,5
36767,69910,5
36755,69913,4
36752,69890,5
36754,69888,5
36743,69886,5
36741,69865,5
36727,69856,4
36725,69840,5
36721,69836,6
36711,69828,4
36713,69817,5
36695,69801,4
36701,69787,5
36696,69781,5
36688,69768,5
36679,69759,4
36670,69736,5
36649,69710,5
36647,69685,5
36631,69660,5
36616,69640,4
36599,69623,5
36594,69614,5
36587,69602,5
36592,69596,5
36579,69596,4
36589,69606,5
36601,69625,5
36603,69633,5
36609,69644,5
36625,69671,4
36629,69677,5
36634,69687,5
36641,69697,6
36649,69692,4
36645,69707,4
36647,69709,5
36663,69712,5
36652,69717,5
36651,69704,4
36639,69686,4
36639,69662,5
36638,69681,5
36628,69668,5
36631,69678,4
36634,69676,5
36644,69688,5
36639,69695,5
36655,69709,5
36655,69729,4
36666,69756,5
36681,69776,5
36702,69807,5
36719,69832,5
36747,69880,5
36756,69897,4
36780,69941,5
36790,69963,5
36806,69995,5
36818,70022,4
36835,70047,5
36843,70058,5
36853,70096,5
36872,70115,5
36885,70123,4
36880,70136,5
36895,70147,5
36890,70162,5
36899,70169,4
36903,70172,5
36906,70172,5
36904,70169,5
36903,70178,5
36914,70184,4
36910,70178,5
36906,70180,5
36912,70174,5
36904,70169,5
36902,70162,4
36900,70152,6
36893,70147,4
36882,70135,5
36884,70129,5
36880,70118,4
36877,70094,5
36864,70079,5
36854,70081,5
36856,70066,5
36842,70056,4
36847,70050,5
36826,70049,5
36834,70038,5
36834,70036,4
36824,70033,4
36832,70042,5
36836,70043,5
36832,70053,5
36846,70061,4
36853,70066,5
36867,70092,5
36862,70103,5
36872,70117,5
36877,70136,4
36890,70149,5
36895,70158,6
36904,70174,4
36901,70172,5
36906,70195,4
36910,70197,5
36914,70189,5
36911,70189,5
36914,70190,5
36917,70184,4
36914,70187,5
36907,70178,5
36905,70174,5
36902,70164,4
36897,70151,4
36890,70146,5
36882,70139,5
36882,70121,5
36875,70097,4
36852,70087,5
36846,70066,5
36831,70036,5
36826,70009,5
36805,69978,4
36797,69950,5
36772,69935,5
36755,69899,5
36736,69876,5
36734,69860,4
36733,69863,5
36730,69849,5
36730,69856,5
36734,69860,5
36744,69879,4
36741,69884,5
36748,69890,5
36747,69902,5
36752,69907,5
36754,69917,4
36757,69922,5
36764,69931,5
36768,69921,5
36765,69935,4
36771,69933,4
36775,69917,5
36757,69909,5
36757,69903,5
36764,69898,5
36748,69893,4
36752,69890,5
36748,69902,5
36758,69908,5
36765,69919,4
36770,69930,5
36782,69940,5
36784,69972,5
36810,69991,5
36826,70025,4
36843,70062,5
36860,70097,5
36873,70126,5
36891,70159,5
36911,70186,4
36932,70222,5
36941,70245,5
36951,70262,5
36963,70281,5
36970,70295,4
36986,70312,5
36981,70316,4
36994,70319,5
36991,70331,4
36995,70324,7
36992,70331,3
37002,70336,5
36994,70332,5
36994,70329,4
36992,70328,5
36989,70332,5
36997,70328,5
36988,70309,5
36979,70290,4
36979,70297,5
36977,70285,5
36961,70278,5
36962,70269,5
36951,70255,4
36951,70239,5
36944,70225,5
36938,70218,5
36917,70203,5
36918,70187,4
36909,70174,5
36905,70170,6
36900,70164,4
36891,70154,4
36890,70159,4
36898,70165,5
36908,70178,5
36908,70175,5
36914,70195,4
36926,70202,5
36922,70222,5
36942,70227,5
36950,70249,5
36955,70269,4
36962,70281,5
36979,70293,5
36983,70313,5
36994,70326,5
36995,70345,4
37001,70345,5
37003,70348,5
37000,70359,5
37014,70352,5
37006,70366,4
37019,70362,5
37010,70355,5
37012,70352,6
37008,70340,4
36996,70320,4
36986,70316,5
36968,70291,5
36964,70270,5
36944,70231,4
36932,70196,5
36909,70182,5
36894,70151,5
36876,70138,5
36871,70120,4
36864,70113,5
36862,70103,5
36868,70093,5
36868,70113,5
36869,70118,4
36872,70127,5
36883,70140,5
36896,70154,5
36909,70175,5
36911,70186,5
36915,70200,4
36926,70215,5
36936,70228,5
36931,70221,6
36931,70212,3
36916,70188,5
36917,70173,5
36898,70178,5
36898,70161,4
36891,70156,4
36888,70155,5
36896,70153,5
36894,70164,5
36895,70177,4
36912,70190,5
36914,70205,5
36925,70233,5
36947,70247,5
36965,70271,4
36972,70318,5
36991,70335,5
37018,70382,5
37040,70410,5
37040,70427,4
37064,70447,6
37084,70478,4
37090,70490,5
37103,70502,5
37090,70511,4
37111,70523,5
37112,70528,5
37108,70538,5
37110,70534,5
37108,70529,4
37108,70539,5
37116,70533,5
37113,70533,5
37105,70534,4
37117,70542,5
37111,70542,5
37116,70535,5
37101,70539,5
37115,70530,4
37116,70536,5
37108,70519,5
37108,70519,5
37106,70521,5
37094,70501,4
37089,70508,5
37092,70495,6
37085,70488,4
37086,70482,5
37085,70479,4
37075,70465,5
37073,70453,5
37062,70452,5
37063,70451,5
37064,70448,4
37057,70453,5
37068,70450,5
37064,70463,5
37070,70471,4
37077,70477,4
37086,70482,5
37093,70502,5
37095,70511,5
37099,70520,4
37120,70541,5
37127,70558,5
37122,70565,5
37134,70578,5
37136,70572,4
37136,70579,5
37135,70591,5
37131,70582,10
37141,70575,4
37121,70565,5
37124,70558,5
37113,70528,5
37097,70511,5
37079,70483,4
37075,70472,5
37056,70447,5
37054,70421,5
37039,70412,5
37033,70391,4
37019,70384,5
37019,70384,6
37028,70379,4
37029,70392,4
37032,70397,5
37037,70416,5
37048,70424,5
37048,70438,5
37071,70456,5
37081,70484,4
37082,70504,5
37098,70521,5
37099,70516,6
37093,70502,3
37079,70484,5
37079,70464,5
37072,70466,5
37064,70449,5
37052,70440,4
37057,70431,5
37047,70422,5
37037,70422,5
37048,70417,5
37054,70425,4
37057,70438,5
37054,70452,5
37070,70450,5
37076,70481,4
37087,70492,4
37101,70508,5
37109,70543,5
37122,70547,5
37136,70571,4
37143,70589,6
37154,70611,4
37151,70603,5
37164,70618,5
37161,70623,4
37174,70647,5
37175,70639,5
37180,70642,5
37180,70646,5
37177,70651,4
37185,70658,5
37186,70666,5
37191,70663,5
37193,70670,5
37196,70682,4
37196,70681,5
37202,70677,5
37195,70676,5
37198,70680,5
37199,70672,4
37197,70671,5
37191,70673,5
37195,70685,5
37200,70683,4
37196,70677,5
37185,70678,6
37193,70664,4
37186,70664,5
37181,70659,4
37177,70657,5
37173,70642,5
37185,70640,5
37176,70647,5
37174,70636,4
37175,70642,5
37173,70652,5
37171,70646,5
37181,70654,5
37183,70656,4
37187,70663,5
37190,70666,5
37198,70677,5
37198,70683,5
37197,70687,4
37205,70694,5
37211,70703,5
37208,70710,5
37219,70710,4
37214,70710,4
37225,70724,5
37218,70724,6
37227,70728,4
37218,70732,4
37230,70729,5
37222,70733,5
37225,70730,5
37222,70723,5
37224,70723,4
37226,70725,5
37220,70732,5
37214,70719,5
37213,70711,5
37213,70711,4
37199,70697,5
37205,70681,5
37192,70659,5
37170,70635,5
37160,70608,4
37141,70581,5
37116,70530,5
37100,70494,5
37067,70461,5
37047,70422,4
37033,70403,5
37029,70384,5
37016,70383,5
37018,70384,4
37028,70389,5
37030,70394,5
37035,70408,5
37032,70420,5
37053,70441,4
37060,70459,5
37076,70478,5
37083,70498,5
37100,70517,5
37109,70535,4
37115,70543,5
37101,70534,5
37100,70508,5
37074,70483,5
37071,70452,4
37057,70434,5
37039,70418,5
37037,70400,5
37035,70392,5
37018,70372,5
37011,70361,4
37003,70357,5
37010,70353,5
37009,70361,4
37016,70357,4
37014,70370,5
37011,70375,5
37030,70387,5
37028,70401,4
37023,70406,5
37042,70436,5
37053,70433,5
37051,70448,5
37054,70461,4
37069,70474,5
37078,70475,5
37082,70479,5
37099,70483,5
37078,70489,4
37078,70496,5
37087,70498,5
37090,70494,5
37085,70493,5
37088,70500,4
37080,70479,6
37088,70487,4
37080,70480,5
37078,70477,5
37073,70467,4
37077,70475,5
37068,70461,5
37072,70459,5
37068,70440,4
37059,70439,5
37056,70443,5
37045,70435,5
37050,70437,5
37045,70416,4
37042,70420,5
37032,70410,5
37032,70399,5
37030,70378,5
37032,70387,4
37017,70378,5
37018,70363,5
37009,70351,5
37011,70349,4
37014,70344,4
37004,70339,5
37000,70357,5
37005,70345,5
36997,70351,5
36999,70343,4
37000,70356,5
37012,70356,5
37009,70356,5
37018,70367,4
37019,70380,4
37011,70379,5
37014,70378,5
37022,70383,5
37028,70383,4
37015,70386,5
37022,70380,5
37022,70383,5
37028,70388,5
37023,70384,5
37016,70388,4
37024,70380,5
37019,70375,5
37022,70369,6
37018,70370,3
37005,70363,5
37001,70360,5
37008,70344,5
37008,70337,5
36995,70339,4
36989,70329,5
36978,70319,5
36980,70312,5
36978,70302,5
36970,70298,4
36968,70289,5
36963,70270,5
36965,70274,5
36952,70264,4
36953,70252,5
36953,70253,5
36947,70249,5
36948,70257,5
36945,70248,4
36945,70246,6
36943,70241,4
36944,70233,5
36939,70220,5
36936,70229,6
36936,70228,3
36937,70222,5
36931,70209,5
36921,70200,5
36914,70187,4
36910,70169,5
36890,70137,5
36876,70105,5
36846,70061,5
36819,70014,4
36795,69972,5
36769,69925,5
36756,69885,5
36741,69880,4
36738,69861,4
36726,69869,5
36744,69862,5
36734,69881,5
36749,69893,4
36749,69910,5
36759,69922,6
36767,69949,4
36780,69960,5
36797,69982,4
36811,70010,5
36827,70031,5
36844,70070,5
36855,70084,5
36862,70091,4
36857,70078,5
36844,70054,5
36825,70051,5
36833,70045,5
36822,70027,4
36826,70023,5
36820,70006,5
36819,70007,5
36810,70005,5
36815,70011,4
36822,70009,5
36816,70014,5
36822,70021,5
36827,70045,4
36838,70048,5
36842,70073,5
36858,70078,6
36866,70106,4
36872,70124,4
36895,70138,5
36900,70171,5
36901,70179,5
36918,70197,5
36922,70209,4
36931,70226,5
36934,70231,5
36942,70242,5
36947,70240,5
36948,70241,4
36937,70243,5
36960,70249,5
36953,70248,5
36950,70245,5
36945,70242,4
36937,70237,5
36944,70237,5
36943,70238,5
36959,70243,5
36936,70233,4
36939,70212,5
36924,70213,5
36939,70212,6
36927,70207,3
36921,70197,5
36923,70196,5
36924,70184,5
36911,70165,5
36905,70163,4
36888,70151,5
36897,70148,5
36883,70127,5
36890,70133,5
36880,70126,4
36875,70126,5
36879,70120,5
36872,70105,5
36872,70112,5
36885,70112,4
36883,70116,5
36878,70118,5
36891,70126,5
36891,70129,5
36888,70139,5
36896,70153,4
36897,70166,5
36904,70162,5
36911,70168,6
36909,70172,3
36916,70193,5
36922,70194,5
36914,70187,5
36928,70193,4
36922,70199,5
36931,70202,5
36920,70202,5
36913,70203,5
36920,70191,4
36912,70191,5
36912,70193,5
36913,70185,5
36907,70181,5
36906,70178,4
36911,70173,5
36908,70170,5
36895,70160,5
36899,70153,5
36892,70144,4
36888,70133,6
36889,70132,4
36884,70135,5
36889,70125,4
36878,70126,4
36878,70112,5
36885,70115,5
36881,70106,5
36873,70106,4
36863,70095,5
36873,70107,5
36859,70094,5
36865,70092,5
36853,70077,4
36848,70069,5
36854,70073,5
36856,70063,5
36841,70060,5
36838,70048,4
36829,70043,5
36824,70019,5
36810,69998,5
36802,69978,5
36787,69943,4
36759,69924,5
36749,69888,6
36730,69857,4
36719,69831,5
36711,69818,4
36700,69798,5
36693,69801,5
36702,69787,5
36698,69794,4
36701,69808,5
36709,69820,5
36721,69829,5
36723,69854,5
36735,69867,4
36742,69870,5
36751,69883,5
36757,69900,5
36764,69914,5
36762,69930,4
36776,69932,5
36778,69937,5
36773,69918,5
36758,69900,5
36757,69888,4
36751,69883,5
36742,69876,5
36740,69872,6
36735,69875,4
36748,69879,4
36735,69875,5
36739,69882,5
36746,69895,5
36752,69905,4
36758,69919,4
36774,69942,5
36779,69954,5
36799,69979,5
36812,70015,4
36823,70032,5
36845,70055,5
36860,70085,5
36872,70096,5
36887,70120,4
36884,70131,5
36889,70150,5
36909,70150,5
36904,70164,5
36900,70172,5
36909,70169,4
36908,70175,5
36905,70178,5
36905,70174,5
36913,70166,7
36907,70169,2
36899,70160,5
36908,70151,5
36899,70157,5
36899,70157,4
36894,70146,5
36891,70135,5
36895,70128,5
36888,70126,4
36885,70110,5
36861,70101,5
36866,70096,5
36870,70089,5
36865,70081,4
36843,70068,5
36852,70064,5
36845,70049,5
36844,70037,5
36842,70030,4
36839,70034,6
36831,70018,4
36820,70027,5
36832,70034,5
36825,70022,4
36837,70031,5
36836,70040,5
36849,70043,5
36842,70061,5
36848,70062,4
36859,70073,5
36868,70089,5
36864,70097,5
36870,70098,4
36866,70111,4
36879,70112,5
36884,70116,5
36881,70131,5
36880,70122,4
36881,70124,5
36873,70130,5
36882,70122,5
36882,70127,5
36873,70104,4
36874,70103,5
36873,70109,6
36877,70103,4
36872,70092,5
36862,70085,4
36860,70077,5
36850,70078,5
36844,70070,5
36845,70057,5
36840,70047,4
36839,70037,5
36833,70045,5
36827,70026,5
36825,70027,5
36824,70013,4
36821,70022,5
36815,70011,5
36820,70000,5
36808,69995,4
36810,69988,5
36806,69985,5
36803,69977,5
36799,69966,5
36789,69969,4
36792,69953,5
36785,69953,5
36785,69937,5
36782,69948,5
36771,69935,4
36764,69921,5
36773,69919,5
36763,69908,5
36752,69897,5
36748,69888,4
36743,69871,5
36720,69845,5
36712,69824,5
36701,69806,5
36692,69765,4
36668,69747,5
36656,69725,5
36642,69698,5
36632,69666,4
36621,69665,4
36618,69650,5
36627,69653,5
36621,69661,5
36626,69671,5
36631,69675,4
36636,69694,5
36645,69700,5
36651,69720,5
36660,69724,4
36670,69733,5
36658,69735,5
36674,69739,5
36674,69756,5
36677,69759,4
36680,69755,5
36676,69734,5
36661,69718,5
36646,69709,5
36653,69712,4
36651,69709,5
36649,69702,5
36657,69705,5
36657,69715,5
36665,69723,4
36663,69729,6
36662,69745,4
36690,69764,5
36691,69789,4
36705,69807,7
36725,69832,3
36732,69871,5
36747,69895,5
36761,69932,4
36777,69960,5
36805,69982,5
36813,70006,5
36819,70024,5
36830,70040,4
36836,70059,5
36849,70069,5
36854,70073,5
36855,70070,5
36864,70083,4
36869,70092,5
36857,70082,5
36859,70096,5
36864,70090,5
36866,70088,4
36865,70094,5
36870,70084,6
36867,70083,4
36866,70089,4
36858,70077,4
36848,70063,5
36842,70056,5
36840,70045,5
36842,70047,4
36826,70035,5
36824,70024,5
36818,70018,5
36806,70015,5
36807,69987,4
36799,69978,5
36799,69969,5
36797,69971,5
36798,69957,5
36794,69968,4
36797,69956,5
36784,69959,5
36798,69978,5
36795,69977,5
36799,69984,4
36801,69991,5
36816,70012,5
36821,70021,6
36834,70042,4
36838,70059,4
36846,70071,5
36863,70097,5
36872,70107,5
36893,70117,4
36894,70136,5
36898,70144,5
36896,70154,5
36911,70157,5
36898,70161,4
36901,70158,5
36903,70169,5
36911,70161,5
36909,70165,5
36903,70156,4
36903,70162,5
36897,70151,5
36899,70157,5
36897,70149,5
36900,70146,5
36890,70146,4
36885,70130,5
36879,70136,5
36888,70131,6
36885,70118,3
36879,70119,5
36877,70112,5
36877,70110,5
36868,70094,4
36871,70103,4
36869,70082,5
36860,70088,5
36853,70080,5
36850,70072,4
36853,70059,5
36844,70057,5
36840,70061,5
36831,70044,5
36840,70035,4
36821,70027,5
36818,70017,5
36807,69989,5
36792,69968,5
36783,69950,4
36771,69936,6
36763,69909,4
36755,69888,5
36743,69878,5
36741,69864,4
36730,69851,5
36729,69855,5
36737,69866,5
36734,69865,5
36738,69874,4
36740,69875,5
36751,69890,5
36758,69899,5
36766,69908,4
36765,69919,5
36767,69925,5
36773,69931,5
36779,69944,5
36776,69939,4
36779,69937,5
36777,69917,5
36755,69911,5
36757,69904,5
36757,69907,4
36749,69907,5
36763,69905,6
36770,69912,4
36769,69928,5
36775,69957,4
36793,69963,5
36796,69989,5
36821,70027,5
36835,70046,5
36855,70083,4
36871,70113,5
36892,70151,5
36914,70183,5
36933,70224,5
36950,70262,4
36959,70283,5
36979,70302,5
36991,70324,5
36998,70335,4
37002,70345,5
37021,70354,5
37016,70369,5
37019,70376,5
37016,70377,4
37024,70375,5
37026,70365,5
37024,70373,6
37022,70379,4
37019,70377,4
37014,70373,5
37015,70372,5
37012,70359,5
37012,70352,5
37000,70331,4
36998,70330,5
36997,70309,5
36988,70310,5
36976,70304,5
36971,70283,4
36967,70274,5
36962,70267,5
36953,70248,5
36951,70238,4
36934,70226,4
36935,70219,5
36925,70218,5
36929,70208,5
36925,70210,5
36923,70206,4
36932,70218,5
36947,70232,5
36943,70244,6
36946,70251,3
36960,70279,5
36977,70295,5
36988,70329,5
37005,70346,5
37017,70366,4
37025,70383,5
37040,70410,5
37050,70434,5
37062,70446,5
37062,70452,4
37070,70465,5
37074,70476,5
37081,70478,5
37071,70481,5
37080,70483,4
37087,70479,5
37064,70475,5
37077,70469,5
37064,70447,4
37063,70442,6
37042,70422,4
37042,70404,5
37027,70373,5
37010,70361,4
36984,70341,5
36989,70320,5
36979,70299,5
36967,70271,5
36958,70271,4
36951,70261,5
36958,70266,5
36960,70262,5
36964,70274,5
36952,70277,4
36968,70279,5
36971,70289,5
36986,70293,5
36976,70302,5
36983,70312,4
36978,70324,5
36990,70319,5
36979,70307,5
36976,70295,4
36960,70262,4
36946,70259,6
36943,70239,4
36940,70224,5
36937,70230,4
36933,70227,5
36936,70233,5
36938,70240,5
36947,70244,5
36953,70250,4
36968,70286,5
36978,70308,5
36990,70337,5
37015,70359,5
37025,70399,4
37041,70426,5
37064,70462,5
37082,70485,5
37094,70516,5
37109,70531,4
37123,70553,5
37123,70573,5
37140,70579,5
37138,70587,5
37141,70604,4
37141,70624,5
37152,70609,6
37152,70611,4
37161,70608,4
37160,70615,5
37160,70614,5
37157,70630,5
37164,70619,5
37165,70638,4
37161,70616,5
37161,70625,5
37151,70619,5
37152,70614,5
37149,70610,4
37155,70603,5
37150,70599,5
37148,70596,5
37135,70577,5
37129,70574,4
37124,70555,5
37114,70555,5
37112,70535,5
37115,70530,5
37102,70527,4
37089,70523,5
37102,70518,5
37092,70519,5
37098,70523,4
37109,70520,4
37105,70541,5
37119,70545,5
37124,70563,5
37126,70575,4
37141,70592,5
37147,70604,5
37163,70634,5
37171,70643,5
37185,70663,4
37182,70662,5
37185,70682,5
37185,70684,5
37201,70691,5
37197,70686,4
37192,70687,5
37190,70668,5
37186,70662,5
37177,70650,5
37168,70626,5
37155,70606,4
37142,70573,5
37118,70569,5
37114,70541,5
37104,70527,4
37098,70507,5
37088,70500,5
37089,70483,5
37087,70490,4
37082,70484,5
37090,70488,5
37090,70496,5
37087,70502,5
37099,70520,4
37099,70529,5
37101,70543,5
37115,70548,5
37125,70552,5
37112,70537,4
37096,70521,5
37090,70519,5
37093,70507,5
37090,70486,5
37080,70494,4
37085,70488,6
37072,70474,4
37085,70488,5
37085,70482,5
37080,70501,4
37094,70505,5
37102,70522,5
37114,70537,5
37120,70570,4
37135,70585,5
37145,70606,5
37159,70617,5
37169,70633,5
37173,70665,4
37186,70685,5
37202,70689,5
37205,70703,5
37210,70719,5
37223,70728,4
37216,70728,5
37225,70739,5
37231,70732,5
37232,70733,4
37227,70743,4
37239,70752,5
37238,70743,5
37235,70755,5
37238,70757,5
37239,70783,4
37234,70768,5
37238,70756,5
37241,70770,5
37247,70768,4
37244,70766,4
37247,70775,5
37241,70772,5
37239,70766,5
37238,70767,4
37235,70757,5
37238,70754,5
37238,70750,5
37242,70734,5
37221,70729,5
37219,70731,4
37214,70718,5
37224,70713,5
37203,70716,6
37206,70706,3
37202,70702,5
37206,70698,5
37209,70710,5
37202,70715,5
37212,70719,4
37210,70720,5
37216,70727,5
37219,70735,5
37227,70744,5
37226,70731,4
37235,70752,5
37242,70762,5
37245,70779,5
37247,70772,4
37246,70773,5
37245,70781,5
37246,70780,5
37252,70771,5
37245,70777,4
37238,70764,6
37235,70751,4
37227,70744,5
37222,70718,5
37209,70701,6
37194,70682,3
37181,70679,5
37166,70639,5
37164,70626,5
37148,70609,4
37152,70601,5
37151,70587,5
37137,70587,5
37136,70597,5
37142,70591,4
37145,70596,5
37150,70602,5
37154,70617,5
37169,70637,4
37175,70654,4
37175,70662,5
37186,70663,5
37173,70642,5
37162,70630,4
37162,70618,5
37155,70606,6
37144,70590,4
37136,70576,5
37121,70574,4
37120,70557,5
37117,70552,5
37108,70543,5
37104,70531,5
37110,70538,4
37110,70542,5
37114,70548,5
37112,70546,5
37120,70556,5
37120,70564,4
37133,70574,5
37126,70589,5
37132,70585,5
37139,70599,5
37146,70596,4
37146,70597,5
37141,70606,5
37148,70617,5
37156,70623,4
37152,70618,5
37156,70622,5
37154,70616,6
37159,70618,4
37162,70616,4
37159,70618,5
37154,70617,5
37155,70613,5
37152,70620,5
37142,70602,4
37145,70613,5
37153,70604,5
37141,70608,5
37147,70590,5
37138,70597,4
37133,70585,5
37135,70575,5
37131,70569,5
37128,70564,5
37124,70551,4
37122,70552,5
37112,70539,5
37098,70532,5
37093,70518,5
37088,70501,4
37080,70487,5
37077,70477,5
37076,70468,6
37063,70458,3
37060,70448,5
37053,70443,5
37054,70438,5
37048,70443,5
37043,70430,4
37047,70428,5
37051,70446,5
37047,70444,5
37051,70444,5
37060,70450,4
37062,70458,5
37062,70450,5
37068,70456,5
37072,70465,5
37068,70468,4
37075,70467,5
37074,70466,5
37065,70462,5
37057,70465,4
37068,70459,5
37055,70451,4
37054,70457,5
37061,70454,5
37060,70441,4
37050,70444,5
37057,70438,5
37041,70440,5
37039,70418,5
37038,70421,4
37041,70401,5
37018,70398,5
37025,70391,5
37019,70375,5
37020,70379,4
37008,70366,5
37003,70366,5
37019,70352,5
36998,70351,5
36991,70340,4
36988,70331,5
36992,70334,5
36978,70318,5
36997,70321,5
36981,70309,4
36989,70312,6
36984,70318,4
36985,70310,5
36981,70310,4
36969,70301,5
36968,70297,5
36967,70289,5
36968,70281,5
36954,70266,4
36940,70239,5
36928,70224,5
36909,70175,5
36890,70143,5
36863,70100,4
36839,70049,5
36815,70011,5
36796,69970,5
36777,69953,5
36765,69933,4
36771,69937,5
36766,69933,5
36771,69944,5
36774,69942,5
36784,69960,4
36793,69977,5
36806,69996,6
36806,70017,4
36826,70040,4
36833,70063,4
36852,70091,5
36868,70124,5
36883,70125,5
36874,70130,4
36867,70106,5
36862,70101,5
36856,70095,5
36841,70082,5
36840,70080,4
36841,70073,5
36843,70060,5
36836,70069,5
36843,70069,5
36851,70057,4
36838,70076,5
36844,70072,5
36841,70081,5
36845,70088,5
36856,70103,4
36861,70118,5
36878,70132,5
36875,70139,5
36890,70168,5
36905,70180,4
36907,70192,5
36917,70205,5
36934,70218,5
36933,70235,4
36946,70239,5
36949,70248,5
36949,70261,5
36958,70260,5
36958,70273,4
36962,70280,5
36959,70277,5
36962,70284,5
36970,70282,5
36964,70276,4
36964,70282,5
36964,70281,5
36965,70279,5
36965,70274,5
36955,70274,5
36961,70261,4
36956,70263,5
36952,70253,5
36938,70242,5
36947,70250,4
36937,70242,5
36929,70223,5
36937,70217,5
36929,70207,4
36925,70197,4
36918,70185,5
36903,70181,5
36908,70164,5
36899,70163,4
36904,70160,5
36890,70160,5
36895,70171,5
36890,70158,5
36892,70161,4
36893,70159,5
36903,70163,5
36898,70165,5
36908,70172,5
36914,70186,4
36920,70195,6
36924,70203,4
36921,70212,5
36935,70216,5
36928,70222,4
36933,70221,5
36935,70236,5
36940,70233,5
36944,70234,5
36936,70236,4
36942,70242,5
36943,70241,5
36944,70231,5
36945,70230,4
36932,70225,5
36928,70228,5
36930,70224,5
36927,70210,5
36934,70211,4
36931,70210,5
36923,70205,5
36914,70198,5
36918,70196,5
36919,70189,4
36915,70189,5
36909,70189,6
36904,70178,4
36899,70177,5
36903,70176,4
36897,70169,5
36906,70162,5
36897,70160,5
36895,70159,5
36894,70156,4
36889,70160,5
36886,70151,5
36887,70148,5
36879,70139,4
36885,70133,4
36870,70135,5
36875,70133,5
36878,70126,5
36865,70120,4
36870,70109,5
36858,70096,5
36866,70104,5
36858,70089,5
36863,70091,4
36847,70080,5
36847,70074,5
36839,70064,5
36849,70056,5
36836,70045,4
36833,70041,5
36826,70045,5
36827,70030,5
36825,70031,5
36819,70030,4
36820,70021,5
36812,70013,5
36811,70002,5
36800,69979,5
36786,69957,4
36767,69934,5
36753,69905,5
36740,69864,5
36719,69829,4
36692,69786,5
36677,69761,5
36662,69742,5
36658,69726,5
36645,69712,6
36656,69729,3
36660,69728,5
36665,69736,5
36673,69744,5
36674,69771,4
36682,69773,5
36691,69807,5
36705,69817,5
36724,69835,5
36728,69856,4
36728,69870,5
36740,69896,5
36755,69892,5
36741,69886,5
36741,69860,4
36736,69857,5
36736,69856,5
36729,69855,5
36735,69854,4
36722,69861,4
36732,69856,6
36734,69857,4
36741,69875,5
36746,69882,4
36755,69903,7
36765,69925,3
36775,69945,5
36793,69970,5
36803,69995,4
36816,70024,5
36827,70049,5
36851,70067,5
36862,70085,5
36869,70110,4
36873,70127,5
36891,70138,5
36896,70162,5
36901,70165,5
36915,70181,4
36910,70183,5
36913,70186,5
36914,70187,5
36910,70192,4
36917,70191,4
36916,70183,5
36915,70190,6
36919,70188,4
36910,70185,4
36907,70172,5
36907,70171,5
36911,70170,5
36898,70163,5
36900,70152,4
36893,70145,5
36884,70149,8
36880,70129,2
36875,70130,5
36898,70111,4
36868,70108,5
36872,70091,5
36860,70087,5
36852,70081,5
36855,70065,4
36842,70062,5
36840,70055,5
36839,70052,5
36841,70047,5
36836,70053,4
36836,70051,5
36841,70055,5
36840,70050,6
36840,70051,3
36846,70054,5
36844,70060,5
36849,70068,5
36859,70073,5
36854,70076,4
36860,70092,5
36866,70094,5
36871,70110,5
36865,70109,5
36876,70108,4
36877,70113,5
36880,70120,5
36880,70122,5
36870,70114,5
36875,70120,4
36879,70119,5
36872,70116,5
36869,70116,5
36874,70111,5
36866,70105,5
36865,70106,4
36859,70093,5
36856,70083,5
36858,70073,6
36844,70059,3
36847,70061,5
36848,70055,5
36845,70061,5
36831,70047,4
36842,70043,5
36832,70048,5
36832,70038,5
36824,70020,5
36823,70020,4
36816,70018,5
36812,70006,5
36804,69994,5
36797,69991,5
36796,69978,4
36802,69977,5
36791,69977,5
36797,69972,5
36782,69959,5
36785,69944,4
36773,69950,6
36776,69942,4
36771,69934,5
36761,69925,5
36766,69917,4
36758,69909,5
36758,69904,5
36756,69897,5
36751,69892,4
36745,69876,5
36742,69871,5
36728,69865,5
36740,69858,5
36734,69851,4
36728,69833,5
36715,69837,5
36718,69822,5
36707,69816,5
36698,69803,4
36685,69780,5
36676,69753,5
36659,69727,5
36645,69695,5
36629,69664,4
36610,69628,5
36602,69618,6
36593,69606,4
36591,69598,5
36582,69597,4
36592,69607,5
36593,69607,5
36598,69631,5
36609,69630,4
36615,69648,4
36621,69660,5
36631,69683,5
36641,69700,5
36648,69700,4
36652,69705,5
36655,69722,5
36654,69735,5
36663,69731,5
36654,69716,4
36642,69700,5
36638,69694,5
36633,69687,5
36622,69672,5
36634,69670,4
36626,69682,5
36626,69686,5
36641,69695,6
36634,69699,4
36650,69719,4
36658,69730,5
36675,69760,5
36688,69782,5
36701,69822,5
36720,69841,4
36729,69863,5
36748,69902,5
36764,69933,5
36779,69957,4
36791,69982,5
36808,69996,5
36817,70024,5
36832,70044,5
36842,70054,4
36842,70061,5
36851,70079,5
36859,70069,5
36859,70081,5
36865,70084,5
36857,70094,4
36864,70097,5
36871,70088,5
36865,70097,5
36868,70085,4
36861,70092,5
36859,70097,5
36861,70087,5
36853,70077,5
36849,70069,4
36854,70066,5
36848,70057,5
36845,70045,5
36837,70034,4
36820,70025,4
36829,70024,5
36823,70011,5
36818,69999,5
36809,69995,4
36809,69991,5
36804,69982,5
36801,69971,5
36792,69973,5
36793,69972,4
36789,69965,6
36800,69974,4
36801,69979,5
36802,69987,5
36815,69990,4
36813,70000,5
36813,70020,5
36828,70039,5
36839,70051,5
36852,70065,4
36855,70085,5
36866,70095,5
36862,70106,5
36883,70122,5
36878,70127,4
36883,70145,5
36892,70139,5
36891,70142,5
36898,70147,4
36892,70139,5
36896,70136,5
36885,70138,5
36885,70138,5
36887,70127,4
36884,70115,5
36881,70111,6
36876,70108,4
36868,70101,5
36869,70096,4
36866,70072,5
36853,70072,5
36841,70069,5
36848,70054,5
36838,70043,4
36841,70039,5
36826,70035,5
36827,70025,5
36817,70019,5
36815,70011,4
36814,70003,5
36807,69986,5
36796,69982,5
36800,69972,4
36792,69956,4
36768,69936,5
36759,69933,5
36753,69905,5
36752,69890,4
36734,69867,5
36720,69841,5
36714,69821,5
36708,69813,5
36700,69798,4
36692,69794,5
36691,69802,5
36703,69798,5
36710,69806,5
36717,69824,4
36713,69829,5
36726,69853,5
36733,69855,5
36740,69868,5
36739,69885,4
36761,69901,5
36754,69908,5
36773,69920,5
36770,69928,4
36761,69914,4
36749,69899,5
36751,69895,5
36757,69883,5
36749,69884,5
36752,69891,4
36744,69893,5
36756,69904,5
36764,69910,5
36771,69923,4
36772,69934,5
36788,69956,5
36796,69978,5
36818,70020,5
36830,70044,4
36854,70075,5
36870,70115,5
36882,70142,5
36905,70164,5
36912,70188,4
36932,70213,5
36936,70232,5
36958,70259,5
36956,70263,5
36963,70274,4
36966,70280,5
36972,70291,5
36978,70291,5
36976,70303,4
36983,70297,6
36976,70301,4
36970,70292,5
36972,70293,5
36977,70294,4
36968,70285,5
36971,70281,5
36979,70283,5
36958,70277,5
36956,70269,4
36962,70257,5
36955,70257,5
36947,70233,5
36945,70228,5
36931,70225,4
36927,70214,5
36920,70198,5
36917,70179,5
36908,70175,5
36903,70159,4
36899,70152,5
36896,70148,5
36889,70146,5
36888,70133,4
36893,70143,4
36880,70144,6
36893,70160,4
36901,70172,5
36913,70184,4
36914,70201,5
36935,70221,5
36942,70246,5
36950,70260,5
36970,70284,4
36976,70308,5
36989,70323,5
36998,70335,5
37005,70348,5
37015,70363,4
37012,70369,5
37013,70377,5
37023,70369,5
37026,70378,5
37028,70381,4
37029,70380,5
37019,70366,5
37023,70368,6
37015,70362,3
37012,70351,4
37001,70351,5
36998,70331,5
36975,70299,5
36971,70285,4
36960,70263,5
36940,70232,5
36931,70214,5
36921,70189,5
36906,70158,4
36894,70147,5
36887,70144,5
36879,70123,5
36887,70142,5
36893,70141,4
36889,70145,5
36896,70145,5
36897,70162,5
36900,70168,5
36906,70177,5
36908,70178,4
36918,70186,5
36911,70193,5
36912,70199,6
36918,70186,3
36908,70176,5
36895,70150,5
36892,70149,5
36895,70145,4
36893,70136,5
36891,70138,5
36881,70137,5
36879,70138,5
36894,70144,4
36894,70157,5
36912,70192,5
36914,70202,5
36933,70227,5
36946,70262,4
36961,70278,5
36980,70309,5
37002,70346,5
37011,70372,5
37032,70407,4
37052,70432,6
37051,70436,4
37059,70464,5
37076,70472,5
37078,70485,6
37090,70490,3
37094,70508,5
37107,70510,5
37098,70506,4
37096,70509,4
37097,70513,5
37106,70521,5
37101,70516,5
37097,70523,4
37111,70524,5
37102,70513,5
37101,70513,5
37094,70509,5
37102,70506,4
37089,70505,5
37099,70494,5
37095,70496,5
37096,70489,5
37080,70478,4
37085,70472,5
37071,70470,6
37068,70454,4
37071,70447,5
37061,70435,4
37056,70428,5
37056,70427,5
37049,70417,5
37049,70416,5
37054,70420,4
37052,70426,5
37057,70433,5
37056,70435,5
37058,70448,4
37061,70447,5
37082,70477,5
37090,70492,5
37096,70498,5
37109,70518,4
37107,70537,5
37112,70546,5
37120,70569,5
37135,70583,5
37139,70575,4
37137,70580,5
37149,70594,5
37145,70604,6
37148,70598,4
37151,70597,4
37154,70590,5
37141,70598,5
37151,70593,5
37138,70582,5
37134,70572,4
37131,70560,5
37121,70541,5
37109,70526,5
37102,70499,4
37089,70471,5
37072,70450,5
37047,70415,5
37037,70386,5
37014,70373,4
37012,70345,5
37003,70338,5
37003,70337,5
37008,70339,5
37002,70343,5
37001,70359,6
37017,70373,3
37022,70373,5
37031,70390,6
37033,70406,3
37051,70417,5
37056,70437,5
37072,70452,5
37069,70446,5
37057,70433,4
37049,70424,5
37042,70411,5
37039,70407,5
37027,70398,4
37027,70380,4
37029,70386,5
37025,70382,5
37031,70386,5
37024,70394,4
37033,70394,5
37045,70412,5
37046,70428,5
37058,70443,5
37065,70459,4
37075,70479,6
37094,70504,4
37109,70529,5
37117,70556,5
37128,70572,4
37143,70601,5
37156,70611,5
37165,70618,5
37171,70635,5
37180,70643,4
37176,70655,5
37180,70656,5
37183,70658,5
37187,70665,5
37188,70666,4
37195,70667,5
37191,70664,5
37189,70657,5
37189,70674,4
37198,70680,5
37202,70677,5
37199,70666,5
37190,70670,5
37197,70670,4
37186,70662,5
37181,70678,6
37192,70667,4
37199,70658,5
37189,70663,4
37179,70653,5
37178,70653,5
37176,70660,5
37176,70639,5
37158,70625,4
37157,70616,5
37154,70614,5
37153,70611,5
37154,70601,5
37157,70609,4
37149,70605,5
37154,70606,5
37155,70609,5
37152,70608,4
37161,70611,5
37156,70614,5
37163,70630,5
37160,70633,5
37166,70637,4
37169,70654,5
37182,70660,5
37188,70660,6
37190,70664,4
37194,70672,4
37198,70674,5
37195,70689,5
37193,70685,5
37195,70687,5
37203,70684,4
37196,70687,5
37192,70679,5
37200,70686,5
37200,70677,5
37191,70672,4
37189,70672,5
37188,70673,5
37193,70658,5
37192,70651,4
37187,70655,4
37181,70652,5
37177,70641,5
37169,70636,5
37176,70627,5
37157,70612,4
37150,70614,5
37150,70597,5
37147,70589,5
37137,70574,4
37124,70562,5
37116,70534,5
37095,70508,5
37080,70473,5
37051,70426,4
37038,70386,5
37001,70335,5
36980,70293,5
36951,70246,5
36934,70219,4
36923,70195,5
36920,70182,5
36915,70189,5
36908,70187,5
36916,70186,4
36917,70213,5
36926,70222,5
36930,70244,5
36956,70262,4
36966,70283,6
36980,70304,4
36996,70330,5
36999,70363,5
37011,70370,4
37017,70370,5
37007,70361,5
36994,70344,5
36985,70320,5
36977,70310,4
36967,70281,5
36964,70279,5
36955,70263,5
36944,70246,5
36944,70248,4
36939,70242,5
36945,70244,5
36945,70251,5
36944,70267,5
36955,70262,4
36961,70267,5
36969,70283,5
36970,70299,5
36985,70322,4
36992,70334,4
36992,70342,6
37005,70352,4
37014,70372,5
37020,70384,4
37031,70392,5
37033,70401,5
37041,70414,5
37043,70410,5
37045,70423,4
37040,70432,5
37049,70422,5
37043,70422,5
37043,70431,5
37049,70427,4
37040,70415,5
37034,70419,5
37044,70408,5
37044,70426,5
37040,70411,4
37041,70406,5
37031,70400,5
37033,70408,5
37029,70404,5
37024,70388,4
37024,70386,5
37020,70387,5
37015,70373,5
37021,70364,4
37007,70356,5
36999,70351,5
37003,70343,5
36995,70335,5
36990,70322,4
36986,70321,5
36985,70306,5
36977,70303,5
36968,70297,5
36977,70297,4
36971,70300,5
36968,70292,5
36979,70297,5
36969,70294,5
36985,70303,4
36980,70306,5
36989,70312,5
36992,70320,5
36983,70319,5
36989,70327,4
36984,70330,5
36988,70329,5
36994,70339,5
36993,70342,4
37003,70334,4
36999,70336,5
36995,70346,5
36996,70347,5
37000,70340,4
36996,70331,5
36990,70332,5
36989,70329,5
36989,70317,5
36982,70310,4
36987,70303,5
36975,70301,5
36977,70289,5
36970,70282,5
36961,70280,4
36960,70277,5
36960,70255,4
36945,70262,5
36940,70244,5
36941,70233,6
36940,70229,3
36928,70220,5
36928,70212,5
36928,70212,5
36923,70209,4
36915,70194,5
36919,70194,5
36911,70194,5
36913,70185,4
36907,70183,5
36897,70178,5
36895,70175,5
36903,70159,5
36889,70160,4
36895,70152,5
36889,70144,5
36881,70145,5
36879,70129,5
36884,70125,4
36875,70115,5
36872,70111,6
36861,70100,4
36861,70096,5
36867,70095,4
36852,70075,5
36845,70057,5
36823,70023,5
36803,69984,5
36767,69935,4
36751,69885,5
36720,69831,5
36699,69790,5
36679,69759,4
36664,69741,4
36660,69740,5
36660,69737,5
36668,69759,5
36662,69750,4
36679,69776,5
36689,69783,5
36704,69808,5
36714,69835,5
36721,69859,4
36743,69874,5
36764,69904,5
36774,69942,6
36789,69967,4
36799,69973,4
36789,69969,5
36788,69964,5
36770,69949,5
36779,69931,5
36769,69933,4
36771,69919,5
36754,69916,5
36751,69922,5
36764,69923,5
36765,69913,4
36763,69924,5
36773,69936,5
36774,69941,5
36781,69955,4
36783,69971,5
36802,69995,5
36803,70007,5
36816,70028,5
36838,70052,5
36845,70065,4
36857,70106,5
36869,70108,5
36887,70133,6
36890,70141,3
36901,70159,5
36900,70171,5
36916,70171,5
36917,70185,5
36922,70186,4
36917,70200,5
36923,70194,5
36918,70198,5
36919,70191,5
36929,70195,4
36920,70199,5
36917,70188,5
36907,70183,5
36919,70187,4
36912,70171,5
36911,70179,5
36915,70174,5
36905,70163,5
36896,70156,4
36891,70152,6
36895,70145,4
36892,70141,5
36889,70130,5
36881,70126,6
36874,70110,3
36869,70110,5
36858,70092,5
36868,70089,5
36858,70086,4
36859,70076,5
36850,70078,5
36853,70068,5
36853,70068,5
36849,70071,4
36849,70069,5
36857,70071,5
36859,70079,5
36860,70087,4
36865,70103,4
36861,70106,5
36873,70109,5
36874,70120,5
36881,70129,4
36880,70127,5
36886,70129,6
36885,70136,4
36900,70143,5
36889,70145,4
36896,70145,5
36894,70144,5
36890,70149,5
36892,70145,5
36893,70140,4
36882,70136,5
36890,70139,5
36887,70131,5
36887,70128,5
36883,70127,4
36876,70115,5
36872,70118,5
36865,70114,5
36868,70094,5
36865,70093,4
36867,70092,5
36855,70082,5
36856,70072,5
36846,70076,4
36852,70066,5
36841,70059,5
36842,70057,6
36834,70044,4
36838,70042,4
36832,70044,5
36830,70036,5
36825,70024,5
36826,70015,5
36821,70005,4
36808,69993,5
36804,69981,5
36787,69954,5
36770,69939,5
36764,69904,4
36746,69886,5
36723,69851,5
36716,69828,5
36697,69808,5
36690,69778,4
36683,69763,5
36673,69753,5
36679,69751,5
36673,69755,5
36675,69761,4
36677,69768,5
36681,69775,5
36692,69791,6
36702,69799,3
36706,69820,5
36713,69820,5
36711,69833,5
36724,69853,5
36739,69859,4
36731,69872,5
36743,69868,5
36743,69869,5
36728,69854,5
36711,69830,4
36711,69826,5
36712,69813,5
36718,69816,5
36714,69821,5
36706,69808,4
36711,69822,5
36708,69824,5
36715,69832,5
36716,69841,5
36735,69863,5
36740,69870,4
36751,69901,5
36766,69920,5
36777,69949,4
36786,69955,5
36796,69998,5
36822,70020,5
36831,70032,5
36835,70057,4
36840,70067,5
36861,70073,5
36868,70087,5
36878,70109,8
36874,70114,1
36872,70115,5
36861,70122,5
36885,70120,5
36876,70109,5
36880,70116,4
36884,70121,5
36881,70111,5
36875,70111,5
36871,70109,5
36871,70111,4
36865,70112,6
36863,70095,4
36872,70090,5
36855,70076,4
36851,70073,4
36850,70058,5
36843,70056,5
36841,70050,5
36833,70033,4
36833,70020,5
36821,70011,5
36816,69996,5
36802,69990,5
36801,69976,4
36796,69975,5
36794,69984,5
36793,69973,5
36787,69964,5
36791,69965,4
36786,69960,5
36788,69970,5
36800,69965,5
36800,69993,5
36807,69986,4
36811,70001,5
36818,69999,6
36819,70026,4
36821,70028,4
36830,70043,4
36839,70049,5
36847,70049,5
36844,70061,5
36843,70061,4
36851,70062,5
36852,70062,5
36846,70060,5
36843,70062,5
36841,70054,4
36845,70057,5
36845,70056,5
36844,70053,5
36845,70046,5
36830,70043,4
36829,70037,5
36833,70035,5
36826,70024,5
36826,70009,5
36817,70004,4
36817,69997,5
36805,69995,5
36803,69989,5
36796,69982,5
36799,69972,4
36797,69971,5
36791,69959,5
36784,69951,5
36786,69956,4
36784,69944,5
36773,69929,5
36778,69928,5
36767,69929,5
36765,69915,4
36759,69906,5
36759,69894,5
36751,69891,5
36754,69882,5
36745,69887,4
36739,69877,5
36739,69872,5
36731,69865,5
36735,69850,5
36731,69849,5
36728,69845,4
36723,69843,5
36716,69841,5
36705,69830,5
36713,69819,4
36718,69825,5
36705,69797,5
36701,69789,5
36694,69772,4
36678,69751,5
36669,69722,5
36658,69708,5
36633,69676,5
36617,69655,4
36609,69635,5
36594,69614,5
36587,69596,5
36574,69595,5
36590,69599,4
36586,69604,5
36599,69619,5
36599,69626,5
36611,69640,5
36613,69655,4
36630,69664,6
36643,69684,4
36645,69699,5
36645,69708,5
36655,69706,4
36664,69723,5
36661,69731,5
36664,69729,5
36665,69727,4
36652,69706,4
36649,69694,5
36638,69698,5
36643,69701,5
36648,69695,4
36650,69706,5
36658,69708,5
36657,69723,5
36661,69734,5
36672,69762,4
36691,69778,5
36701,69822,5
36727,69856,5
36745,69879,5
36760,69913,4
36786,69943,5
36796,69979,5
36821,70021,5
36834,70046,5
36848,70076,4
36861,70081,5
36880,70122,5
36883,70139,5
36891,70148,5
36903,70156,4
36903,70170,5
36907,70165,5
36908,70173,5
36907,70186,4
36910,70172,5
36916,70177,5
36916,70179,5
36907,70183,5
36906,70173,5
36911,70173,4
36903,70173,5
36903,70172,5
36894,70162,6
36891,70152,3
36894,70144,5
36890,70139,5
36883,70125,5
36884,70114,5
36869,70109,4
36865,70098,5
36859,70078,5
36862,70064,5
36855,70067,5
36839,70061,4
36846,70045,5
36837,70036,5
36840,70035,5
36836,70045,4
36838,70039,4
36837,70039,5
36843,70051,5
36846,70063,5
36852,70069,4
36858,70084,6
36868,70095,4
36869,70116,5
36875,70133,5
36897,70141,6
36903,70160,3
36906,70183,5
36923,70192,5
36917,70200,5
36930,70212,4
36932,70222,5
36935,70222,5
36943,70235,5
36940,70232,5
36940,70238,4
36942,70236,5
36939,70220,5
36937,70217,5
36945,70211,5
36929,70202,4
36923,70213,5
36926,70201,5
36924,70198,5
36923,70193,4
36923,70181,5
36904,70172,6
36911,70170,4
36905,70163,5
36899,70159,4
36894,70138,5
36881,70117,5
36875,70097,5
36858,70083,5
36847,70058,4
36831,70039,5
36823,70013,5
36802,69994,5
36801,69987,5
36790,69959,4
36782,69945,5
36777,69956,5
36780,69948,5
36779,69949,5
36782,69957,4
36787,69957,5
36790,69976,5
36807,69974,5
36798,69987,4
36813,70004,4
36807,70010,5
36821,70008,6
36816,70022,4
36824,70023,4
36829,70029,5
36820,70005,5
36804,69992,5
36806,69982,5
36804,69976,4
36788,69970,5
36795,69970,5
36796,69976,5
36801,69985,5
36799,69983,4
36805,69995,5
36817,70017,5
36826,70043,5
36837,70062,5
36862,70094,4
36871,70132,5
36893,70161,5
36914,70195,5
36925,70226,5
36946,70249,4
36967,70274,5
36978,70288,5
36974,70319,6
36999,70330,3
37004,70344,5
37010,70354,5
37005,70360,5
37012,70366,5
37023,70367,4
37015,70363,5
37023,70370,5
37017,70380,5
37021,70379,5
37016,70365,4
37025,70379,5
37018,70374,5
37021,70358,5
37016,70350,5
37019,70347,4
37004,70333,5
36998,70333,5
36988,70321,5
36993,70306,5
36977,70294,5
36978,70281,4
36963,70277,5
36965,70253,5
36956,70241,4
36947,70239,4
36936,70226,5
36930,70213,5
36930,70207,5
36929,70205,4
36928,70207,5
36932,70211,5
36934,70230,5
36937,70230,5
36948,70257,4
36957,70258,5
36973,70276,5
36978,70309,5
36985,70323,5
37004,70346,4
37012,70371,5
37034,70391,5
37030,70408,5
37048,70426,5
37062,70423,4
37047,70440,6
37064,70447,4
37066,70464,5
37063,70448,4
37064,70449,4
37062,70445,5
37057,70452,5
37058,70431,5
37054,70430,4
37042,70418,5
37035,70399,5
37031,70375,5
37016,70354,5
37008,70331,4
36985,70310,5
36972,70277,5
36951,70252,5
36952,70242,5
36931,70230,4
36932,70210,5
36922,70208,5
36923,70208,5
36922,70212,5
36929,70205,4
36923,70223,5
36942,70235,6
36937,70240,4
36945,70247,5
36948,70245,4
36956,70257,5
36958,70272,5
36960,70263,5
36952,70270,4
36953,70245,4
36935,70226,5
36931,70218,5
36919,70201,5
36917,70187,4
36911,70177,5
36900,70177,5
36906,70172,5
36911,70186,5
36919,70197,4
36923,70208,5
36930,70229,5
36936,70244,5
36963,70279,5
36974,70301,4
36997,70338,5
37005,70363,5
37030,70399,6
37048,70422,4
37058,70447,4
37070,70470,5
37085,70486,5
37090,70496,5
37095,70509,5
37105,70525,4
37102,70530,5
37107,70525,5
37103,70537,5
37107,70525,4
37107,70533,5
37114,70536,5
37105,70532,5
37117,70532,5
37114,70531,4
37109,70532,5
37106,70529,5
37100,70527,5
37108,70530,5
37102,70524,5
37100,70516,4
37096,70504,5
37100,70511,5
37091,70499,5
37094,70493,4
37094,70486,5
37089,70479,5
37075,70468,5
37076,70466,5
37060,70448,4
37065,70440,5
37066,70444,5
37059,70439,5
37063,70439,4
37063,70441,4
37057,70447,5
37069,70452,5
37069,70462,5
37083,70467,4
37089,70482,5
37088,70502,5
37097,70518,5
37102,70536,5
37115,70541,4
37125,70561,6
37126,70571,4
37132,70578,5
37152,70587,5
37158,70602,4
37152,70608,5
37163,70610,5
37143,70610,5
37154,70605,5
37151,70603,4
37157,70609,5
37160,70603,5
37157,70600,5
37148,70609,5
37135,70597,4
37156,70595,5
37144,70590,5
37137,70578,5
37134,70574,4
37134,70556,5
37120,70541,5
37101,70514,5
37086,70481,5
37075,70462,4
37049,70429,5
37036,70401,11
37022,70369,4
37005,70342,4
36999,70321,5
36978,70306,5
36974,70304,5
36985,70304,5
36983,70306,4
36987,70313,5
36994,70324,5
36997,70329,5
37008,70367,5
37017,70370,4
37023,70394,5
37039,70395,5
37042,70427,5
37039,70422,5
37046,70404,4
37039,70385,5
37027,70384,5
37026,70369,5
37013,70367,4
37007,70362,5
37011,70350,5
37018,70360,5
37011,70359,5
37018,70371,4
37012,70384,5
37020,70384,5
37043,70409,5
37046,70443,5
37058,70446,4
37069,70467,5
37084,70493,5
37099,70524,5
37108,70537,5
37124,70554,4
37134,70581,5
37136,70596,5
37154,70608,5
37160,70624,5
37166,70631,4
37169,70627,5
37179,70644,5
37179,70651,5
37182,70663,5
37182,70652,4
37183,70658,5
37186,70653,5
37182,70667,5
37184,70666,4
37190,70669,5
37194,70676,5
37199,70678,5
37195,70668,5
37189,70674,4
37195,70680,5
37184,70663,5
37188,70667,5
37191,70676,5
37182,70664,4
37186,70664,5
37184,70652,5
37183,70650,5
37180,70640,5
37166,70627,4
37157,70623,6
37156,70608,4
37156,70606,5
37145,70598,5
37152,70591,6
37144,70587,3
37142,70590,5
37142,70586,5
37139,70583,4
37141,70587,5
37134,70591,5
37140,70590,5
37145,70608,5
37150,70600,4
37157,70625,5
37158,70607,5
37160,70618,5
37164,70623,5
37161,70619,4
37166,70632,5
37170,70634,5
37168,70640,5
37170,70639,5
37170,70640,4
37173,70632,5
37160,70631,6
37164,70627,4
37148,70610,5
37148,70602,4
37151,70586,5
37126,70564,5
37115,70541,5
37094,70504,4
37072,70474,4
37058,70446,5
37037,70407,5
37018,70381,5
37008,70351,4
36998,70324,5
36999,70323,5
36988,70320,5
36980,70320,5
36988,70324,4
36989,70326,5
36992,70345,5
36999,70347,5
37005,70352,5
37010,70384,4
37025,70394,5
37037,70412,5
37042,70423,6
37051,70428,4
37052,70414,4
37030,70397,5
37021,70375,5
37018,70366,5
37003,70345,5
36992,70329,4
36980,70319,5
36971,70297,5
36978,70299,5
36961,70296,4
36981,70291,5
36969,70303,5
36974,70297,5
36976,70305,5
36982,70314,4
36986,70324,5
36995,70334,5
37002,70348,5
37004,70351,5
37014,70368,5
37021,70385,4
37037,70391,5
37042,70398,5
37044,70403,6
37041,70423,3
37053,70422,5
37051,70434,5
37057,70429,5
37050,70435,5
37062,70434,4
37059,70442,5
37058,70445,5
37063,70455,5
37057,70448,4
37065,70439,4
37061,70443,5
37051,70440,5
37054,70430,5
37056,70430,4
37051,70422,5
37041,70408,5
37044,70416,5
37052,70407,5
37037,70398,4
37040,70391,6
37030,70382,4
37020,70374,5
37014,70370,5
37021,70358,4
37011,70353,5
37011,70341,5
37006,70342,5
37001,70334,5
37003,70337,4
36993,70330,5
36998,70336,5
36996,70334,5
36994,70338,5
37004,70324,4
36995,70332,5
36994,70341,5
36999,70361,5
37010,70357,4
37008,70352,5
37023,70366,5
37021,70381,5
37030,70387,5
37016,70385,4
37035,70391,5
37027,70387,6
37029,70394,4
37022,70390,5
37025,70381,4
37026,70387,5
37028,70383,5
37015,70386,5
37018,70376,5
37016,70376,4
37016,70361,5
37017,70360,5
37013,70354,5
37006,70353,5
37009,70349,4
37003,70348,5
36996,70332,5
36993,70330,5
36991,70318,4
36982,70318,4
36985,70312,5
36985,70301,5
36978,70303,5
36976,70302,4
36970,70291,5
36967,70296,5
36970,70275,6
36966,70271,4
36953,70264,4
36954,70252,5
36933,70221,5
36928,70191,5
36897,70153,5
36879,70125,4
36860,70082,5
36827,70034,5
36807,69994,5
36786,69947,5
36763,69931,4
36750,69897,5
36754,69894,5
36753,69896,5
36757,69901,5
36757,69905,4
36759,69914,5
36764,69928,5
36779,69947,5
36775,69959,5
36789,69974,4
36797,69990,5
36811,70011,5
36833,70038,6
36842,70055,3
36846,70075,5
36847,70057,5
36843,70046,5
36829,70030,5
36823,70025,4
36822,70028,5
36814,70022,5
36815,70007,5
36805,70007,5
36809,70013,4
36815,70002,5
36806,70001,5
36821,70014,5
36815,70019,5
36818,70026,4
36830,70040,5
36838,70047,5
36843,70068,5
36854,70077,5
36859,70086,5
36866,70116,4
36882,70121,5
36884,70145,5
36895,70162,4
36900,70160,5
36901,70181,5
36912,70190,5
36908,70192,5
36929,70195,4
36933,70205,5
36924,70216,5
36931,70212,5
36926,70214,5
36922,70215,4
36930,70217,5
36934,70207,5
36932,70217,5
36918,70204,5
36931,70214,4
36927,70200,5
36917,70190,5
36906,70192,5
36914,70184,5
36908,70177,4
36911,70171,6
36899,70175,4
36899,70151,5
36895,70150,4
36894,70142,4
36894,70133,5
36878,70123,5
36881,70112,5
36875,70117,4
36885,70109,5
36874,70095,5
36869,70100,5
36866,70096,5
36869,70101,4
36861,70102,5
36861,70096,5
36868,70099,5
36869,70106,5
36874,70111,4
36886,70121,5
36887,70135,5
36889,70134,5
36891,70140,5
36899,70149,4
36894,70157,5
36904,70161,6
36905,70163,4
36907,70158,5
36909,70168,4
36910,70160,5
36906,70167,5
36911,70174,5
36903,70164,4
36911,70163,4
36902,70167,5
36902,70159,5
36903,70157,5
36887,70163,4
36888,70154,5
36892,70131,5
36886,70134,5
36889,70139,5
36881,70122,4
36875,70119,5
36875,70102,5
36872,70113,5
36871,70106,5
36865,70099,4
36871,70094,5
36861,70092,5
36859,70091,5
36861,70087,5
36864,70084,4
36860,70079,5
36861,70068,5
36851,70073,5
36851,70057,5
36849,70065,4
36841,70059,5
36842,70053,5
36844,70050,5
36840,70047,4
36837,70038,5
36833,70044,5
36840,70038,5
36825,70031,5
36826,70026,4
36817,70020,5
36827,70012,5
36816,70011,5
36808,70001,5
36809,69984,5
36803,69983,4
36806,69974,5
36799,69970,5
36788,69967,5
36791,69956,4
36783,69938,5
36775,69919,5
36758,69904,5
36743,69869,5
36725,69832,4
36702,69801,5
36674,69767,5
36658,69716,5
36640,69691,4
36629,69680,4
36630,69664,5
36618,69656,5
36619,69659,5
36619,69665,4
36630,69672,5
36639,69685,5
36646,69698,5
36659,69721,5
36665,69741,4
36674,69764,6
36701,69789,4
36707,69807,5
36717,69839,5
36720,69839,4
36718,69834,5
36700,69822,5
36705,69798,5
36697,69790,5
36695,69795,4
36689,69791,5
36698,69795,5
36693,69798,5
36702,69788,5
36700,69796,4
36712,69809,5
36708,69814,5
36710,69832,5
36730,69849,4
36732,69881,4
36754,69889,5
36766,69918,6
36778,69948,4
36789,69968,4
36805,69996,5
36814,70020,5
36829,70034,5
36837,70037,5
36840,70059,4
36858,70070,5
36858,70084,5
36857,70104,5
36867,70094,5
36868,70089,4
36869,70107,5
36872,70104,5
36880,70097,5
36871,70099,5
36872,70096,9
36863,70096,0
36858,70086,5
36860,70091,5
36859,70070,5
36855,70090,4
36864,70079,5
36847,70068,5
36839,70061,6
36836,70053,3
36832,70044,5
36832,70035,5
36826,70020,5
36821,70015,5
36817,69998,4
36807,69993,5
36808,69977,5
36803,69977,5
36800,69962,5
36798,69961,4
36790,69966,5
36794,69966,5
36787,69954,5
36782,69956,5
36794,69960,4
36783,69955,5
36792,69958,5
36789,69965,5
36809,69973,5
36800,69985,5
36807,69990,4
36821,70003,5
36819,70019,5
36826,70018,6
36828,70033,3
36833,70027,5
36829,70035,5
36840,70046,5
36834,70038,4
36840,70031,5
36842,70030,5
36839,70043,5
36836,70036,5
36833,70030,4
36831,70020,5
36827,70024,5
36828,70021,5
36827,70017,5
36812,70006,4
36815,69997,5
36803,70000,5
36805,69990,5
36797,69982,5
36787,69967,4
36798,69963,6
36787,69962,4
36790,69965,5
36774,69945,5
36770,69929,6
36771,69927,3
36762,69925,5
36773,69912,5
36765,69905,4
36761,69904,5
36749,69895,5
36750,69897,5
36749,69872,5
36745,69875,4
36740,69871,5
36734,69855,5
36734,69858,5
36726,69842,5
36726,69849,4
36726,69836,5
36715,69832,5
36709,69822,5
36716,69822,5
36704,69818,4
36711,69812,5
36704,69806,6
36703,69799,4
36700,69790,5
36697,69784,4
36690,69770,5
36682,69763,5
36677,69738,5
36661,69729,4
36651,69705,4
36634,69681,5
36615,69656,5
36606,69621,5
36593,69590,4
36575,69576,5
36567,69552,5
36565,69560,5
36558,69555,5
36564,69558,4
36570,69568,5
36571,69585,5
36593,69595,5
36592,69612,5
36603,69615,4
36615,69633,5
36617,69650,5
36626,69667,6
36625,69664,4
36634,69677,4
36633,69684,5
36635,69672,5
36632,69666,5
36612,69640,5
36618,69627,4
36615,69633,5
36605,69636,5
36609,69628,5
36603,69637,4
36615,69638,4
36616,69652,5
36624,69656,5
36633,69675,5
36643,69682,4
36648,69714,5
36667,69745,5
36684,69768,5
36698,69790,5
36709,69821,5
36729,69856,4
36736,69888,5
36755,69907,5
36772,69934,6
36785,69949,3
36795,69972,5
36811,69980,5
36806,69995,5
36816,70011,5
36831,70021,4
36826,70023,5
36839,70029,5
36836,70033,5
36832,70037,5
36838,70023,4
36834,70034,5
36831,70024,5
36830,70024,5
36832,70030,4
36841,70031,5
36830,70030,5
36829,70016,5
36828,70012,5
36816,69993,4
36813,69998,6
36817,69984,4
36808,69971,5
36787,69965,5
36794,69957,4
36787,69935,5
36785,69938,5
36768,69924,5
36771,69920,5
36761,69915,4
36769,69909,5
36764,69910,5
36765,69922,5
36761,69918,5
36768,69924,4
36771,69927,5
36780,69938,5
36795,69943,5
36793,69966,4
36811,69977,4
36806,69992,5
36815,70012,5
36823,70022,5
36840,70047,4
36843,70049,5
36847,70070,6
36859,70080,4
36868,70094,5
36867,70092,4
36870,70089,5
36867,70084,5
36868,70090,5
36864,70087,5
36858,70087,4
36868,70089,5
36865,70078,5
36855,70076,5
36858,70080,5
36855,70064,4
36860,70059,5
36845,70049,5
36841,70052,5
36842,70043,5
36828,70029,4
36832,70018,5
36824,70005,5
36818,70009,5
36816,69997,4
36809,69985,5
36801,69983,5
36800,69974,6
36791,69963,4
36774,69932,4
36768,69909,5
36759,69883,5
36748,69874,5
36725,69848,5
36718,69831,4
36709,69804,5
36694,69799,5
36698,69784,5
36690,69791,5
36696,69787,4
36702,69797,5
36693,69790,5
36705,69805,5
36706,69809,5
36706,69817,4
36721,69826,5
36717,69838,5
36729,69842,5
36728,69856,5
36737,69857,4
36742,69857,5
36721,69857,5
36717,69839,5
36711,69822,4
36704,69827,5
36703,69815,5
36711,69813,5
36717,69820,5
36708,69825,4
36715,69825,5
36721,69832,5
36729,69860,5
36745,69873,5
36753,69893,4
36764,69914,5
36777,69951,5
36799,69968,5
36808,70003,5
36829,70028,4
36844,70056,5
36860,70081,5
36874,70100,5
36884,70114,5
36895,70131,5
36902,70149,4
36905,70165,5
36909,70173,5
36912,70172,4
36911,70173,4
36911,70174,5
36911,70175,5
36909,70172,5
36912,70165,4
36911,70170,5
36906,70169,5
36905,70171,5
36911,70166,5
36907,70161,4
36897,70149,5
36911,70146,5
36888,70126,5
36889,70127,5
36884,70116,4
36871,70104,5
36874,70090,5
36859,70085,5
36858,70062,5
36851,70054,4
36842,70049,6
36843,70032,4
36836,70035,5
36826,70028,5
36828,70025,4
36826,70023,5
36828,70024,5
36831,70022,5
36827,70038,4
36839,70051,5
36849,70058,5
36859,70079,5
36871,70095,5
36870,70109,4
36879,70137,5
36891,70150,5
36910,70163,5
36912,70181,5
36929,70198,4
36941,70213,5
36941,70224,5
36948,70234,5
36945,70242,5
36960,70250,4
36958,70253,5
36959,70244,5
36955,70240,5
36951,70230,5
36948,70237,4
36946,70227,5
36945,70219,5
36938,70218,5
36939,70206,4
36934,70194,4
36920,70195,5
36919,70185,5
36914,70165,5
36904,70148,4
36898,70126,5
36877,70113,5
36867,70081,5
36846,70058,5
36823,70032,4
36828,70004,4
36800,69974,5
36795,69958,5
36774,69937,5
36789,69920,3
36769,69917,5
36764,69912,5
36774,69918,5
36780,69918,5
36775,69932,4
36788,69950,5
36794,69960,5
36808,69973,5
36805,69978,5
36814,69998,4
36814,70013,5
36821,70023,5
36830,70021,5
36821,70015,4
36817,69997,5
36803,69990,5
36798,69980,5
36797,69975,5
36800,69972,4
36806,69968,6
36804,69985,4
36816,69996,5
36819,70004,5
36821,70014,6
36833,70047,3
36848,70068,5
36869,70106,5
36888,70145,5
36899,70179,4
36931,70206,5
36945,70233,5
36971,70290,5
36980,70299,5
36992,70330,4
37013,70354,5
37018,70370,5
37032,70376,5
37039,70395,5
37047,70397,4
37048,70418,5
37057,70419,5
37056,70422,5
37050,70423,4
37064,70419,5
37057,70424,6
37061,70424,4
37062,70423,5
37049,70420,4
37052,70423,7
37056,70408,3
37052,70409,5
37047,70409,5
37048,70400,4
37046,70385,5
37039,70392,5
37029,70378,5
37031,70374,5
37019,70370,4
37017,70357,5
37020,70334,5
37008,70329,5
36997,70328,5
36993,70306,4
36984,70306,5
36979,70290,5
36982,70292,5
36976,70288,4
36980,70294,4
36983,70308,5
36989,70301,6
36993,70309,4
36995,70327,4
37003,70342,5
37011,70347,5
37020,70368,5
37032,70379,5
37044,70401,4
37052,70424,5
37057,70433,5
37066,70445,5
37076,70458,5
37083,70470,4
37090,70478,5
37090,70481,5
37094,70487,5
37091,70489,5
37098,70486,4
37095,70485,5
37085,70480,5
37093,70488,5
37084,70471,5
37083,70463,4
37074,70449,5
37062,70428,5
37048,70403,6
37043,70378,3
37011,70348,5
37005,70310,5
36981,70283,5
36968,70243,7
36947,70221,2
36928,70201,5
36917,70186,5
36915,70176,5
36916,70176,5
36917,70186,4
36926,70195,5
36928,70206,5
36943,70217,5
36942,70221,5
36960,70250,4
36960,70269,5
36965,70287,5
36984,70311,5
37000,70332,5
36997,70332,5
37011,70325,4
36994,70304,5
36982,70293,5
36977,70284,6
36972,70281,3
36955,70259,5
36956,70254,5
36958,70256,5
36963,70249,4
36963,70253,5
36971,70262,5
36976,70274,5
36976,70293,5
36988,70315,4
36998,70324,5
37011,70354,5
37010,70375,5
37042,70403,5
37056,70432,4
37069,70457,5
37067,70465,5
37091,70482,5
37093,70504,5
37103,70515,4
37100,70518,6
37108,70532,4
37113,70527,5
37125,70534,4
37135,70532,4
37122,70538,5
37126,70539,5
37116,70540,5
37132,70538,4
37130,70545,5
37125,70540,5
37124,70547,5
37141,70547,5
37125,70547,4
37122,70537,5
37120,70546,5
37119,70530,5
37132,70530,5
37117,70537,4
37114,70530,5
37121,70526,5
37115,70522,5
37109,70517,5
37107,70513,4
37090,70498,5
37099,70497,6
37094,70488,4
37090,70475,5
37093,70465,4
37089,70477,5
37089,70476,5
37084,70474,5
37090,70467,4
37082,70475,4
37090,70492,5
37091,70480,5
37096,70505,5
37103,70505,4
37114,70522,5
37117,70540,5
37121,70548,5
37133,70558,5
37131,70563,4
37138,70578,5
37141,70590,5
37141,70573,5
37149,70584,5
37153,70594,4
37154,70599,5
37156,70591,5
37150,70587,6
37150,70585,4
37147,70583,4
37140,70578,5
37133,70561,5
37133,70549,5
37114,70526,5
37107,70493,4
37076,70462,5
37060,70438,5
37046,70388,5
37029,70350,4
37004,70323,5
36981,70299,5
36980,70280,5
36968,70273,5
36966,70267,4
36975,70266,5
36977,70279,5
36975,70292,5
36984,70292,5
36992,70321,5
37004,70329,4
37014,70358,5
37028,70380,5
37038,70395,5
37047,70411,4
37053,70415,5
37044,70412,5
37033,70390,5
37025,70361,5
37012,70343,4
36998,70325,5
36988,70301,5
36976,70287,5
36969,70266,4
36959,70248,4
36952,70250,5
36947,70243,5
36949,70241,5
36944,70246,4
36953,70249,5
36944,70241,5
36962,70261,5
36968,70266,5
36978,70274,4
36973,70302,6
36990,70309,4
36991,70323,5
37000,70331,5
37011,70345,4
37016,70358,5
37022,70363,5
37015,70373,5
37030,70380,5
37031,70393,4
37027,70390,5
37033,70380,5
37025,70388,5
37031,70376,5
37025,70377,4
37019,70383,5
37017,70369,5
37025,70366,5
37020,70371,4
37027,70357,5
37008,70352,5
37013,70341,5
37008,70343,5
37006,70337,4
36995,70316,5
36990,70316,6
36988,70302,4
36968,70283,5
36980,70283,4
36969,70279,5
36952,70258,5
36960,70249,5
36951,70234,5
36945,70221,4
36936,70215,5
36924,70203,5
36927,70190,5
36919,70193,5
36921,70184,4
36919,70192,5
36915,70186,5
36911,70189,5
36925,70182,4
36921,70200,4
36926,70200,5
36922,70205,5
36925,70213,5
36939,70214,4
36931,70213,5
36943,70221,5
36937,70228,5
36949,70226,5
36938,70239,4
36944,70238,5
36943,70247,5
36942,70238,5
36950,70239,5
36953,70235,4
36938,70235,5
36947,70229,5
36935,70216,5
36948,70216,5
36932,70207,4
36929,70210,5
36932,70204,5
36932,70202,5
36920,70201,4
36924,70184,4
36919,70182,5
36909,70172,5
36904,70163,5
36907,70168,5
36902,70154,4
36904,70146,5
36907,70146,5
36895,70139,5
36885,70141,4
36888,70132,5
36886,70132,5
36888,70128,5
36881,70120,5
36873,70100,4
36869,70086,5
36856,70079,5
36847,70045,5
36823,70000,5
36801,69971,4
36777,69928,5
36757,69894,5
36724,69859,5
36707,69830,5
36709,69803,4
36700,69788,5
36700,69799,5
36700,69795,5
36705,69813,4
36710,69806,5
36709,69839,4
36722,69846,5
36729,69858,5
36743,69886,4
36759,69910,5
36768,69931,5
36789,69958,5
36792,69975,5
36814,70007,4
36828,70022,5
36826,70016,5
36823,70013,5
36811,69981,5
36797,69974,4
36789,69972,5
36788,69960,5
36790,69946,5
36790,69951,5
36785,69944,4
36784,69941,5
36781,69949,6
36788,69947,4
36783,69953,5
36786,69965,4
36795,69976,5
36799,69983,5
36809,69996,5
36816,70017,4
36833,70030,5
36835,70047,5
36843,70061,5
36860,70079,5
36875,70092,4
36874,70101,5
36877,70125,5
36889,70128,5
36890,70144,5
36899,70148,4
36902,70162,5
36906,70160,5
36912,70162,5
36900,70162,9
36903,70168,5
36906,70168,5
36901,70168,5
36903,70163,8
36903,70163,5
36941,70146,5
36895,70154,5
36868,70141,8
36891,70139,5
36883,70124,5
36885,70136,8
36880,70107,5
36874,70107,5
36868,70085,8
36868,70086,5
36866,70088,5
36861,70075,5
36851,70069,8
36851,70069,5
36840,70053,5
36852,70055,8
36862,70082,5
36858,70070,5
36861,70067,5
36868,70083,8
36863,70094,5
36884,70105,5
36869,70100,8
36865,70103,5
36873,70117,5
36892,70129,8
36892,70129,5
36892,70164,5
36887,70163,5
36886,70124,8
36879,70106,5
36880,70126,5
36915,70124,8
36895,70114,5
36853,70105,5
36863,70104,5
36870,70097,8
36856,70092,5
36864,70092,5
36839,70058,8
36839,70058,5
36849,70004,5
36836,70037,8
36843,70044,5
36838,70034,5
36811,70027,5
36820,70038,8
36828,70027,5
36827,70023,5
36834,70028,8
36827,70023,5
36820,70002,5
36818,70008,5
36813,69997,8
36813,69997,5
36822,69984,5
36812,69981,8
36795,69978,5
36796,69975,5
36796,69985,8
36790,69985,5
36783,69955,5
36776,69916,5
36760,69906,8
36744,69884,5
36663,69709,5
36663,69709,8
36647,69691,5
36636,69670,5
36629,69676,5
36631,69676,8
36642,69680,5
36637,69685,5
36649,69654,8
36656,69693,5
36668,69730,5
36720,69827,8
36720,69827,5
36716,69834,5
36723,69844,5
36729,69824,8
36719,69833,5
36708,69797,5
36708,69798,8
36708,69799,5
36708,69788,5
36705,69779,5
36705,69790,8
36704,69792,5
36701,69806,5
36733,69874,8
36733,69874,5
36757,69895,5
36759,69915,8
36794,69942,5
36794,69964,5
36793,69980,5
36821,69999,8
36822,70021,5
36834,70032,5
36850,70060,8
36838,70057,5
36850,70073,5
36860,70078,5
36854,70086,8
36854,70086,5
36894,70089,5
36864,70077,8
36833,70078,5
36856,70070,5
36861,70080,5
36854,70075,13
36859,70063,5
36829,70033,8
36829,70033,5
36726,69827,5
36824,70021,8
36832,70005,5
36819,69988,5
36761,69981,5
36794,69969,8
36807,69968,5
36801,69988,5
36792,69957,2
36784,69933,1
36790,69946,3
36799,69946,5
36780,69945,5
36787,69946,5
36798,69956,5
36800,69964,4
36804,69968,5
36805,69972,5
36803,69980,5
36810,69979,4
36818,69999,5
36820,70014,6
36821,70006,4
36829,70021,5
36820,70029,4
36836,70022,5
36832,70030,5
36834,70025,5
36840,70034,5
36835,70022,4
36838,70025,5
36822,70021,5
36832,70016,5
36832,70019,5
36825,70010,4
36825,70016,5
36820,69998,5
36823,69993,5
36814,69986,5
36803,69980,4
36800,69986,5
36800,69965,5
36794,69965,5
36796,69955,4
36786,69951,4
36794,69938,5
36776,69935,6
36770,69932,4
36765,69919,4
36772,69919,5
36757,69910,5
36760,69900,5
36760,69886,5
36755,69891,4
36736,69875,5
36740,69869,5
36753,69864,5
36741,69865,5
36724,69852,4
36726,69841,5
36734,69834,5
36716,69824,5
36722,69816,5
36716,69825,4
36710,69806,5
36704,69807,5
