RED,IR,EKG,TIME
29907,60361,9
29926,60386,5
29922,60396,5
29937,60404,8
29944,60422,5
29943,60401,5
29948,60396,5
29940,60391,8
29952,60390,5
29955,60404,5
29947,60393,8
29934,60403,5
29941,60425,5
30029,60584,8
30029,60584,5
30035,60624,5
30041,60597,5
30032,60538,8
29811,60148,5
29958,60431,5
29954,60371,8
29894,60330,5
29867,60284,5
29867,60229,5
29848,60227,8
29853,60233,5
29863,60229,5
29860,60231,8
29860,60231,5
29858,60217,5
29852,60252,8
29875,60241,5
29864,60255,5
29824,60242,5
29846,60227,8
29838,60183,5
29814,60185,5
29800,60097,8
29787,60083,5
29789,60096,5
29786,60084,5
29743,60004,8
29743,60004,5
29730,59975,5
29711,59964,8
29713,59956,5
29726,59985,5
29737,60019,8
29718,59966,5
29672,59840,5
29627,59755,5
29587,59640,8
29434,59383,5
29434,59383,5
29447,59412,8
29441,59403,5
29430,59377,5
29418,59362,5
29381,59235,8
29291,59060,5
29203,58910,5
29154,58807,8
29147,58804,5
29120,58769,5
28847,58230,13
28804,58133,5
28788,58104,5
28773,58099,8
28783,58139,5
28812,58161,5
28764,58067,8
28713,57970,5
28695,57915,5
28675,57889,5
28669,57864,8
28631,57803,5
28579,57714,5
28532,57580,8
28532,57580,5
28525,57539,5
28487,57451,8
28458,57383,5
28415,57370,5
28453,57427,5
28489,57485,8
28520,57530,5
28517,57511,5
28480,57461,8
28460,57419,5
28453,57397,5
28441,57380,5
28431,57349,8
28431,57349,5
28406,57319,5
28396,57330,8
28427,57372,5
28453,57394,5
28452,57405,7
28449,57382,1
28421,57333,3
28421,57334,4
28428,57351,5
28421,57326,5
28399,57311,5
28397,57295,4
28392,57270,6
28379,57277,4
28382,57255,5
28353,57194,5
28314,57141,4
28300,57104,5
28297,57096,5
28300,57096,5
28304,57098,5
28289,57096,4
28305,57103,5
28293,57083,5
28281,57058,5
28266,57024,5
28247,56968,4
28220,56935,5
28213,56922,5
28216,56927,5
28256,56995,5
28289,57067,4
28299,57121,5
28328,57142,6
28353,57172,4
28366,57180,4
28381,57173,5
28359,57142,5
28369,57154,5
28396,57196,5
28430,57250,4
28458,57320,5
28498,57378,5
28509,57395,5
28496,57332,5
28446,57251,4
28395,57178,5
28357,57106,5
28364,57098,5
28376,57112,5
28380,57130,4
28396,57157,5
28406,57159,5
28394,57123,5
28375,57111,5
28362,57075,4
28349,57045,5
28317,57026,5
28299,56988,6
28285,56962,3
28270,56908,4
28245,56877,5
28241,56860,5
28240,56864,5
28234,56833,4
28207,56808,5
28200,56797,5
28205,56804,5
28218,56835,5
28224,56849,4
28221,56861,5
28227,56825,5
28219,56825,5
28205,56787,5
28191,56786,4
28191,56777,5
28177,56757,5
28178,56737,5
28160,56720,5
28152,56682,5
28132,56662,4
28135,56665,5
28147,56691,5
28164,56708,6
28161,56721,3
28168,56716,5
28180,56730,5
28171,56728,5
28179,56728,4
28171,56712,5
28168,56694,5
28149,56673,5
28139,56650,5
28123,56635,4
28137,56649,5
28146,56679,5
28170,56701,5
28171,56714,5
28187,56723,4
28186,56713,5
28156,56670,5
28153,56633,5
28126,56610,5
28138,56596,4
28123,56597,6
28110,56566,4
28094,56531,5
28078,56507,5
28076,56478,6
28052,56452,3
28056,56439,5
28054,56450,5
28071,56467,4
28074,56485,5
28081,56471,5
28065,56448,5
28052,56420,5
28048,56413,4
28055,56425,5
28068,56437,5
28071,56443,5
28050,56435,5
28048,56413,4
28032,56390,5
28030,56397,5
28051,56432,5
28046,56426,5
28060,56439,4
28066,56468,5
28089,56521,6
28129,56588,4
28157,56631,5
28161,56640,4
28166,56645,5
28171,56653,5
28169,56629,5
28151,56584,4
28142,56611,4
28169,56630,5
28174,56640,5
28187,56672,5
28198,56664,4
28184,56636,5
28174,56618,5
28177,56624,5
28172,56605,5
28173,56586,4
28187,56605,5
28208,56653,5
28200,56652,5
28188,56617,5
28169,56561,4
28144,56494,5
28088,56401,5
28062,56338,6
28050,56291,4
28029,56256,4
28018,56222,5
28011,56191,5
27997,56192,5
27999,56188,4
27996,56153,4
27976,56115,5
27967,56089,5
27958,56052,5
27941,56020,4
27953,56026,5
27955,56018,5
27967,55991,5
27927,55940,5
27913,55896,4
27897,55848,5
27875,55822,5
27866,55812,5
27881,55821,5
27890,55826,5
27883,55821,4
27876,55795,5
27871,55788,5
27872,55781,6
27867,55786,3
27883,55795,5
27874,55805,5
27887,55823,5
27904,55850,5
27921,55857,4
27903,55845,5
27898,55835,5
27897,55833,5
27892,55826,4
27897,55822,5
27888,55830,5
27898,55828,5
27893,55805,5
27868,55788,4
27864,55759,5
27859,55757,5
27861,55744,5
27854,55749,5
27861,55780,4
27863,55771,6
27861,55750,4
27859,55760,5
27853,55759,5
27849,55731,4
27833,55688,5
27819,55671,5
27810,55675,5
27811,55670,5
27799,55652,4
27798,55651,5
27794,55636,5
27780,55619,5
27767,55604,4
27755,55569,5
27751,55542,5
27736,55522,5
27728,55513,5
27717,55474,4
27713,55449,5
27708,55454,5
27712,55454,5
27689,55416,5
27673,55367,4
27656,55319,5
27661,55316,6
27648,55306,4
27652,55304,5
27646,55310,4
27657,55308,5
27669,55323,5
27698,55387,5
27745,55446,5
27776,55503,4
27813,55566,5
27858,55628,5
27879,55671,5
27901,55705,4
27924,55746,5
27955,55813,5
27991,55879,5
28007,55896,5
28012,55894,4
28005,55886,5
27982,55843,5
27969,55781,5
27931,55717,5
27912,55664,4
27890,55605,5
27839,55518,5
27818,55446,6
27790,55379,4
27746,55289,4
27717,55220,5
27674,55129,5
27631,54998,5
27567,54879,5
27507,54770,4
27455,54662,5
27420,54574,5
27379,54504,5
27325,54408,4
27277,54288,5
27241,54203,5
27219,54169,5
27197,54143,5
27187,54111,4
27191,54112,5
27196,54126,5
27210,54151,5
27213,54174,5
27223,54184,5
27231,54196,4
27236,54195,5
27233,54178,5
27211,54160,5
27204,54138,4
27200,54111,5
27183,54071,5
27154,54023,5
27143,53995,5
27123,53961,4
27111,53933,5
27104,53915,5
27096,53877,5
27074,53820,4
27032,53743,5
27003,53689,5
26977,53640,5
26962,53566,5
26941,53530,4
26922,53490,5
26912,53466,5
26909,53464,5
26922,53468,5
26920,53490,4
26923,53504,6
26946,53536,4
26974,53581,5
26985,53616,5
27008,53657,4
27026,53673,5
27037,53710,5
27053,53743,5
27071,53785,5
27091,53828,4
27104,53860,5
27118,53887,5
27130,53905,5
27130,53916,4
27130,53920,5
27141,53934,5
27146,53953,5
27142,53947,5
27132,53947,4
27144,53960,5
27156,53975,5
27160,54004,5
27168,54032,5
27196,54079,4
27219,54134,5
27250,54203,6
27290,54278,4
27322,54359,5
27357,54427,4
27395,54500,5
27432,54571,5
27460,54666,5
27499,54761,5
27536,54830,4
27572,54887,5
27582,54925,5
27607,54973,5
27637,55044,4
27671,55122,5
27712,55223,5
27752,55316,5
27810,55429,5
27873,55574,4
27944,55745,5
28009,55901,5
28061,56010,5
28093,56098,5
28161,56285,4
28257,56500,5
28365,56712,5
28457,56913,5
28530,57072,5
28599,57233,4
28673,57367,5
28741,57484,5
28774,57579,5
28834,57691,5
28897,57821,4
28977,57988,5
29036,58091,5
29069,58176,5
29110,58243,4
29134,58316,4
29171,58390,5
29237,58520,5
29317,58684,5
29405,58888,4
29537,59127,5
29655,59355,5
29736,59505,5
29799,59624,5
29876,59773,5
29993,60032,4
30183,60404,5
30413,60836,5
30659,61312,5
30905,61769,4
31128,62148,5
31283,62405,5
31409,62639,5
31516,62849,5
31631,63036,4
31698,63133,5
31740,63273,5
31885,63591,5
32126,64145,5
32462,64860,4
32834,65629,5
33191,66306,5
33525,66973,5
33759,67412,4
33885,67735,5
33961,67830,5
34003,67976,5
34029,68067,5
34071,68147,4
34129,68278,6
34214,68502,4
34364,68822,5
34524,69194,5
34704,69559,4
34807,69717,5
34781,69654,5
34717,69477,5
34621,69292,5
34524,69120,4
34460,68993,5
34434,68975,5
34479,69095,5
34633,69421,4
34850,69878,4
35074,70288,5
35200,70497,5
35238,70543,5
35243,70547,4
35252,70582,5
35291,70657,5
35327,70706,5
35350,70753,4
35392,70817,4
35453,70922,5
35506,71004,5
35550,71072,5
35566,71056,5
35493,70853,4
35349,70588,5
35308,70564,5
35409,70786,5
35603,71185,5
35820,71589,4
35971,71883,5
36084,72075,5
36185,72298,5
36393,72723,4
36707,73335,4
37121,74176,5
37614,74953,5
37869,75288,5
38018,75443,5
38020,75325,4
37877,74996,5
37692,74567,5
37465,74150,6
37267,73773,3
37105,73470,5
36996,73285,5
36926,73155,5
36861,73036,5
36783,72859,4
36691,72634,5
36561,72397,5
36440,72156,5
36324,71974,5
36236,71803,4
36155,71674,5
36086,71531,5
35978,71324,5
35855,71090,4
35737,70859,4
35592,70638,5
35494,70420,5
35377,70175,5
35254,69958,4
35192,69882,6
35191,69859,4
35167,69811,5
35129,69765,5
35112,69745,6
35126,69756,3
35115,69747,5
35106,69715,5
35085,69686,5
35082,69706,4
35090,69743,5
35095,69763,5
35124,69782,5
35098,69771,5
35079,69727,4
35053,69675,5
35042,69639,5
35003,69591,5
35002,69578,5
34969,69480,4
34894,69355,5
34801,69192,5
34741,69115,5
34736,69096,4
34709,69012,5
34707,69042,6
34738,69102,4
34778,69202,5
34871,69379,4
34996,69613,5
35099,69794,5
35175,69926,5
35215,69981,5
35222,69982,4
35165,69877,5
35094,69753,5
35055,69677,5
35008,69586,5
34939,69442,4
34850,69276,5
34765,69139,5
34699,69014,5
34627,68860,5
34524,68678,4
34391,68426,5
34238,68147,5
34119,67931,5
34011,67746,4
33930,67599,5
33865,67472,5
33801,67351,6
33726,67204,4
33635,67024,4
33566,66891,5
33504,66775,5
33456,66719,5
33448,66693,5
33447,66689,4
33437,66647,5
33405,66607,5
33404,66604,5
33412,66629,5
33470,66730,4
33541,66886,5
33594,66973,5
33612,66978,5
33597,66967,5
33590,66941,4
33584,66943,5
33582,66943,5
33536,66857,5
33484,66748,5
33392,66621,4
33329,66500,5
33248,66366,5
33180,66221,6
33108,66068,3
33004,65861,5
32878,65622,5
32731,65355,5
32602,65112,5
32478,64874,4
32347,64620,5
32228,64399,5
32147,64241,5
32079,64112,5
32014,63938,4
31936,63795,5
31874,63690,5
31861,63637,5
31860,63648,5
31913,63736,4
31984,63899,5
32090,64064,5
32190,64239,5
32302,64457,4
32424,64704,6
32560,64965,4
32671,65120,5
32728,65218,5
32743,65223,4
32742,65232,5
32751,65249,5
32774,65315,5
32824,65403,5
32882,65512,4
32972,65694,5
33056,65807,5
33106,65901,5
33161,65992,5
33180,66031,4
33180,66051,5
33200,66078,5
33206,66085,5
33200,66085,5
33191,66067,4
33171,66046,5
33166,66023,5
33148,65992,5
33118,65964,4
33087,65878,5
33031,65797,6
32985,65707,4
32903,65551,5
32811,65431,4
32789,65376,5
32726,65264,5
32652,65113,5
32579,64971,5
32506,64840,4
32421,64680,5
32328,64517,5
32231,64342,5
32148,64190,5
32098,64096,4
32058,64014,5
32027,63968,5
31998,63928,5
31992,63891,5
31951,63827,4
31927,63790,5
31890,63748,5
31896,63735,5
31894,63713,4
31882,63714,4
31871,63721,5
31892,63749,6
31910,63765,4
31925,63794,4
31940,63816,5
31952,63830,5
31956,63834,5
31973,63855,5
31990,63902,4
31992,63926,5
32017,63956,5
32039,63994,5
32061,64008,5
32055,64009,4
32043,63996,5
32041,63982,5
32047,63987,5
32041,64001,5
32060,64024,4
32064,64036,5
32074,64041,5
32066,64028,5
32063,64011,5
32054,63999,4
32038,63969,5
32027,63947,5
31999,63885,6
31963,63816,3
31917,63725,5
31872,63638,5
31799,63493,5
31716,63336,5
31640,63163,4
31579,63080,5
31546,63019,5
31522,62968,5
31501,62928,5
31470,62861,4
31446,62786,5
31383,62668,5
31321,62561,5
31282,62479,5
31243,62409,4
31195,62292,5
31144,62192,5
31066,62017,5
31021,61912,5
30975,61830,5
30939,61764,4
30902,61680,5
30854,61577,5
30821,61507,4
30785,61420,5
30748,61336,5
30711,61274,5
30677,61212,5
30649,61114,4
30613,61056,5
30609,61037,5
30592,61019,5
30577,60973,5
30546,60911,4
30525,60858,5
30503,60828,5
30515,60833,5
30511,60852,5
30536,60936,4
30602,61069,5
30723,61346,5
30863,61628,5
30989,61889,5
31106,62119,4
31207,62322,6
31298,62520,4
31379,62696,5
31471,62862,4
31548,62992,4
31599,63098,5
31687,63303,5
31869,63730,5
32226,64546,4
32792,65746,5
33518,67202,5
34355,68823,5
35076,70068,5
35622,71111,4
36106,72007,5
36431,72623,5
36764,73380,5
37136,74005,5
37658,75273,4
38837,77545,5
39645,78748,5
39589,78223,5
38411,75849,5
37594,74483,4
37324,74182,5
37476,74635,6
37806,75371,4
38261,76322,4
38696,77179,4
39038,77835,5
39254,78246,5
39346,78459,5
39427,78678,4
39627,79147,5
39915,79786,5
40182,80283,5
40330,80583,5
40487,80888,4
40687,81343,5
40941,81867,5
41038,81920,5
40894,80936,5
40684,80468,4
40363,79819,5
40003,79116,5
39670,78512,5
39425,78095,5
39299,77901,4
39273,77895,5
39357,78126,5
39568,78570,5
39870,79124,4
40144,79703,4
40412,80156,5
40622,80534,5
40667,80536,5
40588,80319,4
40437,79916,5
40216,79452,5
39988,78956,5
39685,78258,5
39186,77185,4
38634,76109,5
38243,75445,5
38131,75278,5
38124,75261,5
38148,75266,4
38157,75279,5
38127,75241,5
38078,75162,5
38022,75037,5
37972,74981,5
37938,74971,4
37934,75075,5
38015,75225,5
38080,75362,5
38125,75438,4
38151,75486,5
38182,75542,5
38169,75482,5
38074,75255,4
37934,74950,5
37753,74633,5
37629,74393,5
37539,74225,5
37505,74131,4
37462,74061,5
37452,74034,5
37418,73925,5
37335,73726,5
37237,73570,4
37169,73394,5
37056,73149,5
36936,72912,5
36821,72734,5
36773,72624,4
36736,72562,6
36738,72555,4
36736,72533,5
36723,72493,5
36671,72390,4
36630,72274,5
36568,72164,5
36504,72031,5
36458,71937,4
36396,71766,5
36328,71620,5
36256,71480,5
36209,71396,5
36170,71293,4
36079,71121,5
35983,70922,5
35878,70743,5
35805,70600,5
35709,70385,4
35612,70176,5
35510,69950,5
35410,69767,5
35296,69499,5
35154,69199,4
35010,68886,5
34871,68624,5
34764,68399,8
34679,68226,2
34567,67996,4
34429,67722,5
34289,67398,5
34102,67007,5
33946,66669,4
33776,66362,5
33637,66052,5
33491,65750,5
33350,65477,5
33221,65885,4
33121,65680,5
33021,65453,5
32952,65324,5
32888,65185,5
32814,65010,5
32739,64813,4
32653,64639,5
32579,64486,5
32517,64355,6
32452,64207,3
32372,64008,5
32274,63810,5
32185,63604,5
32120,63426,5
32045,63239,4
31978,63072,5
31908,62908,5
31843,62755,5
31790,62616,4
31719,62500,4
31661,62359,5
31619,62226,5
31547,62067,5
31490,61942,4
31411,61715,5
31307,61510,5
31220,61302,5
31139,61098,5
31060,60926,4
30954,60693,6
30856,60458,4
30762,60275,5
30714,60163,5
30695,60099,6
30677,60029,3
30643,59922,5
30582,59817,5
30532,59705,5
30491,59619,4
30468,59526,5
30431,59411,5
30381,59285,5
30326,59135,4
30269,59027,4
30228,58915,5
30199,58857,5
30189,58820,5
30189,58788,4
30175,58772,5
30190,58780,5
30212,58830,5
30259,58925,5
30309,59017,4
30360,59112,5
30405,59158,6
30402,59156,4
30416,59167,5
30419,59147,4
30415,59107,5
30386,59021,5
30318,58893,5
30247,58736,5
30177,58619,4
30131,58509,5
30072,58394,5
30048,58345,5
30014,58274,5
30000,58233,4
29987,58194,5
29989,58181,5
29981,58156,5
29995,58177,4
30026,58217,5
30018,58194,5
30012,58151,5
30002,58133,5
29995,58119,4
29986,58056,5
29948,57954,5
29894,57850,6
29835,57750,4
29817,57691,4
29792,57622,5
29772,57566,5
29740,57530,5
29730,57479,5
29731,57455,4
29711,57413,5
29673,57317,5
29621,57206,5
29575,57116,5
29558,57084,4
29598,57107,5
29574,57101,5
29561,57064,5
29546,56998,4
29532,56919,5
29479,56841,5
29450,56771,5
29458,56759,5
29496,56789,5
29520,56836,4
29547,56886,5
29593,56971,5
29625,57019,6
29654,57063,3
29671,57084,5
29688,57090,5
29673,57060,5
29687,57095,5
29706,57089,4
29699,57045,5
29679,57003,5
29673,56975,5
29660,56955,5
29648,56922,4
29660,56905,5
29634,56850,5
29619,56819,5
29621,56804,4
29621,56797,5
29627,56757,5
29612,56700,5
29586,56636,5
29535,56542,4
29462,56366,6
29398,56217,4
29345,56103,5
29315,56059,5
29298,55960,4
29228,55794,5
29141,55661,5
29094,55578,5
29062,55500,5
29043,55432,4
29019,55383,5
28990,55350,5
28990,55309,5
28981,55288,5
28987,55268,4
28991,55269,5
28990,55259,5
28981,55244,5
28996,55252,4
28993,55261,4
28966,55191,5
28942,55131,5
28908,55069,5
28886,55010,4
28871,54982,5
28857,54938,6
28846,54916,4
28838,54905,5
28841,54899,4
28836,54881,5
28826,54844,5
28811,54803,5
28789,54770,5
28769,54743,4
28750,54691,5
28730,54652,5
28697,54596,5
28677,54546,5
28652,54491,4
28639,54451,5
28620,54417,5
28608,54388,5
28586,54366,4
28579,54335,4
28577,54328,5
28577,54310,5
28558,54295,5
28559,54282,4
28545,54260,5
28531,54239,5
28521,54218,6
28520,54209,4
28513,54189,4
28498,54168,5
28494,54144,5
28478,54128,5
28473,54099,5
28452,54052,4
28430,53997,5
28413,53958,5
28410,53929,5
28385,53912,5
28371,53886,4
28361,53850,5
28338,53813,5
28315,53773,5
28296,53715,5
28278,53678,4
28262,53649,5
28264,53643,5
28260,53631,5
28240,53596,5
28234,53592,4
28226,53571,5
28224,53564,5
28219,53545,6
28221,53561,3
28216,53536,5
28207,53532,5
28202,53528,5
28202,53499,5
28196,53478,4
28183,53476,5
28184,53453,5
28173,53444,5
28175,53461,5
28179,53464,4
28184,53470,5
28188,53466,5
28190,53461,5
28189,53470,5
28200,53472,4
28182,53484,5
28197,53494,5
28207,53491,5
28202,53490,4
28179,53488,6
28200,53478,4
28190,53481,5
28186,53478,5
28177,53476,4
28203,53487,5
28208,53488,5
28199,53486,5
28208,53502,5
28214,53506,4
28215,53512,5
28220,53519,5
28237,53517,5
28215,53527,5
28221,53538,4
28230,53548,5
28256,53571,5
28245,53572,5
28249,53566,5
28252,53581,4
28266,53580,5
28253,53576,5
28253,53582,5
28261,53579,4
28252,53575,4
28251,53577,6
28251,53557,4
28249,53557,5
28240,53555,4
28249,53565,5
28245,53572,5
28253,53574,5
28253,53572,5
28272,53616,4
28281,53613,5
28293,53634,5
28302,53646,5
28313,53662,5
28312,53677,4
28309,53669,5
28308,53665,5
28308,53676,5
28318,53693,5
28327,53703,4
28323,53720,5
28327,53709,5
28322,53715,5
28329,53711,4
28347,53740,4
28339,53721,5
28335,53712,6
28334,53707,4
28337,53722,4
28347,53715,5
28350,53725,5
28355,53738,5
28366,53771,5
28380,53788,4
28388,53816,5
28416,53857,5
28426,53887,5
28441,53913,5
28457,53918,4
28466,53946,5
28475,53960,5
28480,53976,5
28492,53987,5
28499,53987,4
28507,54004,5
28510,54020,5
28522,54022,5
28537,54047,5
28544,54079,4
28558,54104,5
28574,54136,5
28583,54161,5
28598,54179,4
28604,54185,5
28618,54209,5
28625,54228,5
28635,54245,5
28639,54256,4
28639,54269,5
28655,54273,5
28643,54275,5
28652,54283,5
28665,54302,4
28671,54312,5
28681,54335,5
28688,54365,5
28706,54388,5
28723,54412,4
28731,54439,5
28742,54466,5
28765,54510,5
28788,54548,5
28805,54565,5
28811,54590,4
28839,54629,5
28844,54655,5
28856,54673,4
28862,54689,5
28879,54690,5
28874,54673,5
28865,54667,5
28859,54658,4
28863,54666,5
28859,54663,5
28864,54655,5
28862,54653,5
28855,54668,4
28870,54679,5
28880,54684,5
28874,54693,5
28892,54717,5
28892,54730,4
28904,54734,5
28901,54730,5
28899,54735,5
28907,54733,5
28892,54715,4
28852,54660,6
28852,54656,4
28838,54651,5
28828,54644,4
28844,54649,5
28833,54656,5
28835,54646,5
28822,54627,5
28822,54626,4
28823,54614,5
28821,54610,5
28816,54590,5
28806,54593,5
28807,54582,4
28812,54596,5
28816,54601,5
28818,54603,5
28821,54610,5
28816,54608,4
28824,54617,5
28823,54622,5
28818,54608,5
28824,54616,5
28824,54620,4
28815,54630,5
28829,54644,5
28830,54628,5
28831,54614,4
28801,54610,4
28816,54593,5
28817,54583,5
28807,54588,5
28823,54607,4
28835,54619,5
28842,54646,5
28868,54652,5
28874,54655,5
28872,54682,4
28892,54713,5
28887,54709,5
28915,54715,5
28897,54723,5
28899,54726,5
28894,54716,4
28895,54714,5
28882,54717,5
28887,54718,6
28889,54716,3
28894,54727,5
28897,54729,5
28895,54731,5
28890,54730,5
28903,54725,4
28898,54749,5
28897,54748,5
28905,54738,5
28903,54735,4
28905,54736,5
28915,54733,5
28909,54734,5
28913,54732,5
28908,54745,4
28921,54758,5
28924,54764,5
28926,54757,6
28935,54760,4
28932,54758,4
28934,54765,6
28937,54781,4
28944,54766,5
28934,54771,5
28954,54773,6
28954,54785,3
28952,54772,5
28950,54772,5
28950,54793,5
28957,54811,4
28968,54825,5
28980,54839,5
28996,54863,5
29011,54881,4
29023,54913,4
29035,54937,5
29048,54954,5
29061,54982,5
29071,54989,4
29074,55012,5
29087,55021,5
29091,55039,5
29094,55033,5
29093,55036,4
29093,55035,5
29100,55051,6
29095,55055,4
29100,55064,5
29110,55079,4
29115,55081,5
29123,55106,5
29128,55119,5
29142,55134,5
29150,55149,4
29158,55175,5
29177,55201,5
29180,55215,5
29181,55200,5
29169,55189,4
29180,55193,5
29186,55190,5
29171,55177,5
29170,55175,4
29173,55181,5
29169,55180,5
29167,55177,5
29173,55162,5
29173,55161,4
29167,55160,5
29161,55156,5
29158,55150,6
29151,55142,4
29145,55128,4
29143,55126,5
29137,55120,5
29124,55107,5
29122,55090,5
29107,55056,4
29100,55030,5
29080,54999,5
29070,54973,5
29061,54949,5
29054,54933,4
29052,54919,5
29044,54914,5
29034,54890,5
29022,54862,4
29026,54862,4
29017,54837,5
29013,54813,5
28983,54777,5
28961,54715,5
28942,54673,4
28920,54643,5
28901,54603,5
28885,54562,6
28863,54538,3
28840,54494,5
28813,54441,5
28795,54395,5
28768,54336,5
28752,54287,4
28737,54256,5
28722,54217,5
28705,54188,5
28678,54115,5
28637,54037,4
28592,53929,5
28555,53891,5
28529,53847,5
28504,53778,5
28496,53744,4
28480,53727,5
28480,53706,5
28463,53666,5
28450,53644,4
28449,53622,6
28449,53615,4
28431,53605,5
28441,53599,5
28454,53588,6
28436,53565,3
28414,53534,5
28422,53517,5
28414,53477,5
28405,53435,4
28373,53403,5
28360,53354,5
28351,53314,5
28347,53293,5
28349,53301,4
28354,53292,5
28351,53289,5
28340,53285,5
28358,53272,5
28343,53254,4
28328,53221,5
28330,53212,5
28332,53208,5
28317,53211,4
28319,53219,4
28329,53229,6
28346,53240,4
28343,53246,5
28348,53243,4
28335,53217,5
28320,53186,5
28305,53175,5
28314,53146,5
28307,53134,4
28306,53115,5
28293,53125,5
28308,53120,5
28308,53121,5
28317,53114,4
28311,53127,5
28296,53109,5
28298,53096,5
28300,53077,5
28294,53095,4
28308,53099,5
28313,53108,5
28319,53123,5
28313,53103,4
28302,53059,4
28279,53012,5
28275,53018,6
28276,52978,4
28268,52971,4
28256,52941,5
28248,52946,5
28245,52914,5
28247,52899,5
28233,52887,4
28233,52873,5
28226,52847,5
28204,52812,5
28192,52793,5
28195,52793,4
28198,52781,5
28202,52777,5
28194,52761,5
28187,52760,5
28187,52754,4
28185,52764,5
28188,52764,5
28192,52751,5
28194,52736,5
28186,52737,4
28184,52737,5
28196,52728,5
28183,52702,6
28171,52686,3
28169,52683,4
28167,52668,5
28155,52674,5
28174,52678,5
28172,52676,4
28172,52661,5
28160,52643,5
28149,52619,5
28136,52583,5
28123,52565,4
28096,52520,5
28089,52502,5
28073,52478,5
28066,52469,5
28069,52466,4
28063,52465,5
28072,52471,5
28082,52484,5
28089,52491,5
28085,52499,5
28098,52511,4
28094,52515,5
28103,52515,5
28095,52511,4
28091,52485,4
28085,52482,5
28074,52466,5
28079,52469,5
28097,52493,4
28095,52504,5
28100,52533,5
28113,52536,5
28121,52531,5
28109,52521,4
28105,52509,5
28099,52505,5
28103,52505,5
28103,52508,5
28103,52508,4
28114,52515,5
28104,52527,5
28121,52524,5
28127,52532,5
28136,52556,4
28142,52579,6
28160,52607,4
28164,52621,5
28179,52659,5
28193,52689,4
28202,52687,5
28201,52699,5
28215,52717,5
28220,52729,4
28230,52740,5
28242,52755,5
28253,52781,5
28254,52779,5
28263,52781,4
28251,52765,5
28244,52754,5
28253,52752,5
28252,52746,5
28252,52742,4
28256,52751,5
28255,52749,5
28266,52755,5
28262,52749,5
28260,52755,4
28271,52766,5
28276,52789,6
28276,52794,4
28292,52793,5
28281,52793,4
28294,52791,5
28277,52793,5
28291,52791,5
28286,52789,4
28292,52784,4
28283,52787,5
28293,52797,5
28305,52796,5
28295,52787,4
28285,52791,5
28285,52785,5
28295,52779,5
28286,52780,5
28296,52770,4
28294,52768,5
28294,52782,5
28303,52788,5
28315,52790,5
28302,52798,4
28307,52806,5
28313,52813,5
28326,52813,5
28320,52830,5
28323,52839,4
28339,52849,5
28341,52846,5
28335,52841,5
28328,52832,5
28325,52804,4
28315,52784,5
28305,52785,5
28304,52774,5
28306,52777,4
28302,52772,5
28299,52780,5
28312,52794,5
28323,52808,5
28333,52812,4
28338,52838,5
28338,52838,5
28342,52831,5
28336,52839,5
28348,52835,5
28346,52837,4
28345,52825,5
28341,52835,5
28337,52809,5
28339,52811,4
28333,52790,5
28336,52806,5
28331,52781,5
28331,52766,5
28324,52777,4
28330,52783,5
28337,52783,5
28336,52783,5
28339,52765,4
28324,52753,4
28329,52753,5
28314,52720,5
28297,52692,5
28293,52683,4
28292,52654,5
28280,52641,5
28260,52606,5
28251,52621,5
28264,52605,4
28255,52587,6
28236,52551,4
28231,52535,5
28221,52530,5
28225,52549,4
28227,52573,5
28259,52608,5
28276,52641,5
28291,52670,5
28307,52702,4
28321,52720,5
28328,52725,5
28319,52711,5
28310,52709,4
28309,52699,4
28318,52685,5
28310,52675,5
28306,52671,5
28309,52689,4
28314,52706,5
28314,52681,5
28304,52658,5
28290,52648,5
28299,52660,4
28306,52687,5
28317,52712,5
28317,52708,5
28331,52722,5
28335,52754,4
28355,52774,5
28365,52809,5
28384,52845,5
28405,52872,5
28398,52863,4
28400,52872,5
28404,52879,5
28415,52914,5
28444,52954,5
28473,53009,4
28497,53057,5
28523,53107,5
28546,53156,5
28582,53225,4
28617,53281,4
28639,53341,5
28670,53417,5
28704,53478,6
28734,53523,3
28743,53567,5
28749,53603,5
28780,53642,5
28799,53701,5
28815,53728,4
28823,53736,5
28823,53737,5
28804,53723,5
28813,53734,5
28824,53754,4
28835,53784,5
28837,53770,5
28818,53733,5
28793,53702,5
28791,53688,4
28806,53684,5
28799,53702,5
28821,53748,5
28835,53771,4
28819,53747,5
28804,53710,4
28796,53693,5
28790,53676,5
28781,53667,6
28783,53649,3
28794,53673,5
28798,53685,5
28800,53706,5
28818,53722,4
28820,53722,5
28816,53723,5
28811,53723,5
28820,53723,5
28817,53712,4
28817,53725,5
28813,53742,5
28846,53775,5
28873,53820,5
28870,53841,4
28862,53833,5
28870,53846,5
28894,53864,5
28893,53913,5
28951,53978,4
28954,54021,6
28970,54073,4
29010,54125,5
29024,54130,4
29007,54130,7
29007,54131,3
29003,54127,5
29013,54114,5
28990,54113,4
28989,54102,9
28982,54087,1
28983,54101,5
28975,54087,5
28985,54107,4
29009,54160,5
29037,54194,5
29050,54241,5
29051,54256,5
29060,54260,4
29054,54230,5
29046,54240,5
29056,54244,5
29053,54266,5
29081,54274,4
29079,54305,5
29091,54307,6
29094,54313,4
29099,54334,4
29107,54353,4
29112,54350,5
29118,54345,5
29100,54316,5
29082,54283,4
29070,54262,5
29058,54259,5
29061,54268,5
29063,54271,5
29048,54245,4
29036,54195,5
29010,54158,5
28985,54115,5
28981,54102,5
28967,54083,4
28947,54061,5
28945,54036,5
28933,54006,5
28904,53960,5
28891,53922,4
28871,53880,5
28855,53865,5
28854,53869,6
28855,53870,4
28869,53885,4
28880,53908,5
28863,53889,5
28853,53850,5
28839,53812,4
28809,53768,5
28797,53747,5
28798,53741,5
28795,53747,5
28800,53739,4
28799,53735,5
28793,53730,5
28792,53740,5
28781,53716,5
28769,53698,4
28766,53671,5
28755,53651,5
28759,53659,5
28759,53665,5
28767,53669,5
28773,53676,4
28775,53700,5
28786,53706,5
28782,53692,6
28771,53676,3
28760,53653,5
28762,53646,5
28760,53654,5
28764,53668,4
28778,53693,4
28797,53732,5
28809,53748,5
28816,53749,5
28812,53733,4
28797,53728,5
28799,53706,5
28790,53697,5
28774,53673,5
28763,53655,4
28752,53641,5
28763,53640,5
28765,53648,5
28754,53647,5
28768,53649,4
28769,53668,6
28771,53673,4
28784,53681,5
28788,53685,5
28775,53651,4
28762,53636,5
28753,53621,5
28750,53610,5
28750,53611,4
28747,53622,4
28757,53628,5
28761,53637,5
28760,53640,5
28775,53657,4
28774,53665,5
28775,53650,5
28770,53649,5
28772,53654,5
28777,53664,4
28783,53684,5
28792,53678,5
28794,53689,5
28803,53719,5
28809,53731,4
28814,53751,5
28814,53741,6
28820,53750,4
28824,53757,5
28824,53760,4
28831,53768,5
28838,53779,5
28842,53785,5
28837,53798,5
28839,53804,4
28858,53828,5
28862,53840,5
28865,53859,5
28881,53867,4
28891,53880,5
28883,53859,5
28867,53851,5
28869,53829,5
28859,53804,4
28847,53807,5
28840,53785,5
28841,53778,5
28847,53792,5
28847,53804,4
28874,53800,5
28861,53809,5
28866,53815,6
28861,53825,4
28882,53832,4
28872,53822,5
28866,53827,5
28856,53827,5
28875,53815,5
28863,53814,4
28867,53824,5
28867,53824,5
28878,53833,5
28870,53833,4
28875,53837,4
28868,53828,5
28874,53828,5
28872,53848,5
28872,53837,4
28867,53833,5
28877,53836,5
28877,53852,5
28888,53864,5
28889,53862,5
28885,53849,4
28891,53870,5
28897,53878,5
28898,53885,5
28892,53880,4
28890,53881,5
28892,53880,5
28907,53905,5
28912,53938,5
28912,53922,4
28909,53931,5
28923,53960,5
28930,53991,5
28932,53963,5
28939,53971,4
28942,53972,5
28946,53990,5
28940,53995,5
28935,53975,4
28945,53979,5
28938,53973,5
28941,53968,5
28945,53974,5
28944,53972,4
28938,53981,6
28944,53975,4
28949,53981,5
28941,54001,5
28950,54000,4
28964,54010,5
28962,54024,5
28974,54034,5
28978,54038,5
28973,54050,4
28993,54064,5
28998,54091,5
29015,54105,5
29025,54129,5
29034,54149,4
29042,54161,5
29059,54186,5
29066,54201,5
29066,54214,4
29083,54220,4
29088,54219,5
29069,54193,5
29072,54195,5
29070,54178,4
29055,54174,5
29061,54183,6
29068,54191,4
29075,54206,5
29074,54191,4
29077,54211,5
29063,54193,5
29069,54191,5
29070,54193,5
29058,54168,4
29065,54183,5
29064,54194,5
29074,54200,5
29076,54202,5
29067,54208,4
29080,54218,5
29082,54227,5
29075,54224,5
29074,54213,5
29063,54186,4
29050,54156,5
29041,54140,5
29032,54113,5
29021,54081,4
28990,54034,5
28962,53977,5
28962,53958,6
28956,53953,4
28955,53952,4
28972,53972,5
28986,54000,5
29011,54045,5
29022,54089,5
29043,54104,4
29056,54127,5
29082,54176,5
29101,54204,5
29100,54221,5
29121,54251,4
29139,54280,5
29144,54305,5
29154,54317,5
29152,54328,5
29174,54353,4
29180,54386,5
29197,54418,5
29215,54449,5
29224,54473,5
29239,54500,4
29243,54516,5
29249,54536,5
29265,54563,5
29273,54578,4
29284,54606,5
29298,54628,5
29301,54635,5
29294,54643,5
29295,54645,4
29311,54647,5
29309,54642,5
29301,54654,5
29307,54655,5
29291,54638,4
29297,54648,5
29307,54652,5
29293,54657,5
29310,54660,5
29311,54662,4
29303,54659,5
29308,54663,5
29312,54663,5
29312,54668,4
29308,54659,5
29323,54664,4
29314,54672,5
29324,54674,5
29329,54671,4
29341,54670,5
29318,54668,5
29314,54666,5
29318,54659,5
29322,54670,4
29324,54676,5
29330,54687,5
29335,54681,5
29325,54674,5
29323,54670,4
29322,54674,5
29327,54654,5
29320,54649,5
29317,54662,5
29319,54658,4
29316,54649,5
29313,54631,5
29307,54633,5
29302,54618,5
29297,54619,4
29305,54591,6
29300,54607,4
29299,54611,5
29297,54604,4
29283,54599,5
29281,54591,5
29289,54585,5
29275,54588,5
29283,54593,4
29286,54578,5
29277,54568,5
29265,54546,5
29268,54570,5
29282,54563,4
29258,54529,5
29253,54512,5
29259,54517,5
29244,54498,5
29248,54487,4
29239,54497,5
29243,54492,5
29250,54490,5
29248,54488,4
29257,54497,4
29254,54504,5
29245,54484,5
29237,54483,5
29231,54474,4
29232,54460,4
29231,54451,5
29220,54438,5
29213,54418,5
29214,54411,4
29199,54413,5
29202,54417,5
29210,54407,5
29198,54401,5
29192,54385,4
29198,54395,5
29186,54382,5
29189,54372,5
29187,54372,5
29173,54366,5
29181,54357,4
29184,54356,5
29178,54357,5
29177,54357,6
29168,54346,3
29170,54340,5
29165,54328,5
29159,54321,5
29153,54317,5
29150,54304,4
29155,54316,5
29153,54313,5
29160,54322,5
29157,54336,4
29175,54342,5
29176,54353,5
29186,54357,5
29178,54364,5
29190,54371,4
29188,54376,5
29191,54378,5
29185,54382,5
29192,54379,5
29191,54386,4
29192,54385,6
29192,54379,4
29186,54383,5
29184,54371,5
29184,54372,6
29187,54364,3
29177,54358,5
29187,54363,5
29181,54362,5
29186,54370,4
29177,54353,5
29183,54360,5
29184,54360,5
29178,54352,4
29171,54351,4
29176,54348,5
29175,54343,5
29167,54340,5
29162,54321,4
29170,54325,5
29165,54326,5
29164,54308,5
29143,54288,5
29138,54267,4
29136,54252,5
29119,54236,6
29117,54216,4
29108,54206,5
29105,54208,4
29103,54197,5
29099,54194,5
29110,54190,5
29103,54184,5
29099,54177,4
29093,54174,5
29081,54160,5
29073,54156,5
29074,54150,5
29064,54132,4
29075,54129,5
29061,54132,5
29067,54133,5
29055,54128,4
29059,54118,5
29063,54109,5
29051,54108,5
29043,54096,5
29056,54095,6
29051,54104,3
29048,54106,5
29051,54102,6
29057,54089,4
29043,54072,4
29036,54056,5
29036,54058,5
29030,54052,5
29028,54058,5
29036,54048,4
29051,54061,5
29035,54049,5
29041,54060,5
29043,54068,5
29057,54073,4
29043,54076,5
29049,54083,5
29053,54085,5
29051,54078,4
29041,54081,4
29050,54076,5
29042,54077,5
29048,54071,5
29041,54067,5
29037,54067,4
29039,54062,5
29035,54052,5
29039,54057,6
29042,54056,3
29034,54054,5
29036,54036,5
29032,54059,5
29034,54051,5
29036,54051,4
29041,54049,5
29032,54051,5
29042,54048,5
29036,54058,5
29041,54068,4
29034,54062,5
29044,54059,5
29038,54060,5
29036,54064,4
29043,54060,4
29041,54057,5
29029,54046,5
29019,54025,5
29029,54039,4
29025,54044,6
29015,54017,4
29010,54019,5
29010,54009,5
29018,53994,4
29009,53999,5
29009,53991,5
29007,53987,5
29000,53990,5
29007,53989,4
29008,53992,5
29004,54001,5
29005,54002,5
29015,53994,5
29004,53991,4
29009,53987,5
29007,54004,5
29010,53999,5
29007,53993,5
29002,53997,4
29005,53999,5
29007,53997,5
29008,53994,5
29017,53999,4
29017,54005,5
29006,54011,6
29010,54013,4
29027,54017,5
29023,54030,4
29017,54027,5
29021,54024,5
29021,54032,5
29027,54026,5
29028,54043,4
29027,54029,5
29031,54037,5
29032,54032,5
29033,54037,5
29027,54039,4
29034,54045,5
29031,54054,5
29039,54051,5
29038,54065,5
29044,54080,4
29054,54076,5
29052,54078,5
29051,54086,5
29051,54086,4
29045,54086,4
29056,54078,5
29057,54082,6
29042,54077,4
29051,54077,4
29050,54080,5
29052,54077,5
29055,54080,5
29051,54083,5
29053,54072,4
29056,54078,5
29051,54079,5
29056,54098,5
29059,54082,5
29054,54089,4
29057,54088,5
29050,54081,5
29049,54083,5
29049,54089,5
29055,54099,4
29064,54091,5
29064,54105,5
29071,54106,5
29070,54105,5
29070,54106,4
29065,54113,5
29073,54114,5
29071,54108,6
29076,54113,3
29069,54109,5
29054,54107,5
29066,54110,5
29068,54106,5
29074,54106,4
29058,54097,5
29060,54095,5
29057,54090,5
29049,54082,5
29060,54089,4
29064,54094,5
29058,54091,5
29063,54103,5
29061,54101,5
29059,54105,4
29071,54111,5
29078,54115,5
29079,54117,5
29057,54111,5
29069,54115,5
29085,54116,4
29079,54130,5
29083,54131,5
29087,54137,4
29088,54142,4
29093,54142,5
29101,54152,5
29091,54158,5
29102,54154,4
29103,54171,5
29108,54151,5
29099,54164,5
29105,54166,5
29104,54176,4
29109,54169,5
29115,54174,5
29109,54176,5
29112,54174,5
29120,54188,4
29111,54181,5
29113,54186,5
29111,54190,5
29113,54193,5
29122,54198,4
29113,54205,6
29122,54208,4
29125,54200,5
29128,54220,5
29133,54216,4
29137,54222,5
29133,54217,5
29130,54226,5
29137,54235,4
29149,54236,5
29138,54236,5
29148,54241,5
29141,54245,5
29141,54252,4
29144,54266,5
29146,54254,5
29145,54259,5
29159,54266,5
29151,54284,4
29152,54271,5
29152,54269,5
29161,54276,5
29160,54293,5
29174,54295,4
29158,54287,5
29169,54300,6
29178,54311,4
29176,54328,5
29189,54336,4
29193,54357,5
29196,54361,5
29200,54360,5
29198,54360,4
29200,54359,4
29206,54369,5
29209,54380,5
29215,54387,5
29215,54376,4
29214,54376,5
29215,54394,5
29217,54397,5
29216,54385,5
29211,54392,4
29226,54409,5
29236,54407,5
29225,54407,5
29220,54414,5
29228,54408,4
29227,54406,5
29224,54417,5
29232,54414,5
29230,54422,5
29232,54428,4
29227,54422,5
29246,54426,5
29237,54435,5
29232,54430,4
29237,54436,4
29243,54430,5
29248,54449,5
29248,54451,5
29252,54473,4
29268,54490,5
29276,54492,5
29275,54507,5
29282,54516,5
29292,54534,4
29298,54554,5
29312,54578,5
29329,54595,5
29342,54621,5
29341,54626,5
29336,54623,4
29344,54620,5
29339,54623,5
29340,54613,5
29332,54607,4
29336,54603,5
29333,54608,5
29327,54606,5
29324,54606,5
29326,54616,4
29330,54616,5
29328,54612,5
29342,54626,5
29343,54635,4
29358,54637,5
29356,54660,5
29362,54667,5
29367,54682,5
29365,54689,4
29368,54680,5
29369,54687,5
29371,54682,5
29372,54681,5
29368,54679,4
29364,54680,6
29371,54672,4
29367,54669,5
29365,54668,5
29365,54669,4
29357,54663,5
29358,54660,5
29349,54662,5
29354,54656,5
29358,54656,4
29357,54656,5
29353,54652,5
29356,54650,5
29358,54653,4
29354,54647,4
29342,54649,5
29352,54644,5
29350,54632,5
29347,54623,4
29331,54629,5
29340,54626,5
29343,54614,5
29336,54616,5
29330,54612,4
29336,54623,5
29337,54612,5
29336,54610,5
29333,54622,5
29334,54618,4
29325,54601,5
29328,54601,5
29330,54585,5
29312,54573,5
29313,54570,4
29309,54570,5
29323,54560,5
29308,54560,5
29299,54555,5
29300,54556,4
29305,54566,5
29299,54556,5
29300,54546,5
29293,54538,5
29297,54539,4
29287,54542,5
29289,54526,5
29302,54533,6
29294,54522,3
29291,54522,5
29282,54519,5
29276,54512,5
29276,54493,5
29280,54505,4
29274,54490,5
29272,54489,5
29272,54466,5
29256,54471,5
29262,54484,4
29254,54483,5
29265,54478,5
29255,54471,5
29266,54468,5
29271,54487,4
29256,54490,5
29261,54477,5
29261,54481,5
29273,54486,4
29268,54496,5
29267,54489,4
29268,54481,5
29272,54491,5
29275,54497,6
29274,54485,3
29279,54500,5
29280,54489,5
29273,54502,5
29283,54503,4
29278,54490,5
29267,54486,5
29268,54484,5
29263,54477,5
29272,54478,4
29267,54474,5
29260,54485,5
29266,54472,5
29261,54472,5
29268,54462,4
29258,54459,5
29254,54450,5
29249,54447,5
29247,54434,4
29243,54430,4
29248,54435,6
29244,54437,4
29249,54437,5
29249,54439,4
29246,54443,7
29255,54451,3
29257,54444,5
29257,54452,5
29250,54441,4
29258,54442,5
29252,54446,5
29252,54440,5
29235,54420,5
29240,54427,4
29240,54424,5
29236,54417,5
29225,54402,5
29218,54389,5
29220,54371,4
29214,54367,5
29217,54370,5
29207,54367,5
29206,54362,5
29199,54350,4
29202,54339,5
29190,54353,6
29197,54339,4
29195,54344,4
29192,54337,5
29198,54348,5
29189,54335,5
29188,54340,5
29189,54336,4
29185,54332,5
29197,54347,5
29194,54342,5
29191,54336,5
29190,54338,4
29196,54335,5
29190,54332,5
29182,54342,5
29186,54328,5
29190,54323,4
29176,54320,5
29185,54321,5
29177,54323,5
29179,54321,5
29178,54322,4
29172,54310,5
29181,54309,5
29178,54307,6
29173,54307,3
29177,54306,4
29176,54311,5
29180,54315,5
29175,54319,5
29185,54319,4
29177,54314,5
29188,54308,5
29178,54309,9
29177,54303,1
29176,54295,4
29168,54309,5
29167,54282,5
29163,54277,5
29166,54278,5
29162,54279,4
29165,54274,5
29150,54280,5
29160,54281,5
29168,54287,5
29161,54287,5
29156,54286,4
29166,54281,5
29163,54285,5
29164,54292,6
29161,54286,3
29162,54284,5
29169,54285,5
29165,54286,5
29167,54272,4
29161,54279,5
29161,54276,5
29167,54281,5
29170,54263,5
29156,54281,4
29163,54269,5
29157,54264,5
29167,54249,5
29151,54242,5
29145,54234,4
29142,54236,5
29135,54217,5
29121,54204,5
29121,54190,5
29117,54187,4
29121,54176,6
29111,54176,4
29111,54174,5
29118,54177,5
29111,54164,4
29118,54181,5
29118,54184,5
29114,54179,5
29112,54157,4
29120,54167,5
29103,54162,5
29119,54174,5
29105,54150,5
29119,54165,4
29111,54156,5
29117,54159,5
29111,54159,5
29115,54156,5
29114,54157,4
29115,54160,5
29109,54172,5
29106,54145,5
29104,54157,5
29106,54162,4
29103,54167,5
29115,54146,6
29106,54143,4
29103,54134,5
29102,54148,4
29103,54144,5
29104,54141,5
29103,54133,5
29112,54143,4
29108,54136,4
29106,54139,5
29105,54142,5
29104,54146,5
29103,54156,4
29114,54151,5
29109,54152,5
29106,54151,5
29105,54155,5
29112,54153,4
29114,54157,5
29118,54161,5
29110,54156,5
29118,54170,5
29116,54170,4
29114,54166,5
29120,54163,5
29123,54171,6
29115,54174,4
29125,54174,4
29127,54187,5
29127,54190,5
29130,54190,5
29129,54186,4
29129,54191,4
29129,54178,5
29122,54181,5
29138,54184,5
29126,54189,4
29124,54183,5
29132,54187,5
29127,54181,5
29121,54184,5
29119,54183,4
29123,54179,5
29130,54169,5
29124,54173,5
29121,54174,5
29123,54170,5
29117,54174,4
29115,54172,5
29124,54164,5
29122,54168,5
29124,54177,4
29121,54175,5
29120,54181,5
29127,54181,5
29122,54177,5
29126,54177,4
29126,54175,5
29116,54180,5
29132,54190,5
29122,54184,4
29129,54187,5
29143,54186,5
29126,54189,5
29123,54188,5
29136,54191,4
29124,54189,5
29135,54202,5
29130,54197,5
29137,54199,5
29144,54201,4
29142,54211,6
29139,54209,4
29142,54211,5
29150,54210,5
29147,54224,4
29141,54222,5
29148,54225,5
29147,54224,5
29145,54216,5
29146,54215,4
29143,54228,5
29154,54212,5
29151,54224,5
29145,54222,4
29151,54222,4
29152,54219,5
29155,54222,5
29154,54225,5
29156,54238,4
29161,54234,5
29159,54235,5
29147,54240,5
29163,54247,5
29153,54238,4
29159,54239,5
29151,54244,6
29163,54249,4
29165,54254,5
29163,54260,4
29153,54250,5
29165,54245,5
29166,54247,5
29164,54243,5
29156,54257,4
29170,54258,5
29169,54252,5
29167,54256,5
29188,54259,4
29169,54255,4
29175,54261,5
29175,54261,5
29179,54256,5
29172,54262,4
29185,54274,5
29182,54270,5
29175,54255,5
29175,54259,5
29168,54271,4
29170,54264,5
29173,54255,5
29161,54248,5
29157,54242,5
29161,54245,4
29155,54229,5
29163,54239,5
29156,54244,5
29165,54250,5
29164,54237,4
29159,54248,5
29166,54252,5
29168,54252,5
29163,54236,5
29153,54242,4
29156,54252,5
29162,54245,5
29157,54250,5
29163,54243,4
29158,54234,5
29162,54243,5
29161,54261,5
29167,54249,5
29160,54248,5
29156,54250,4
29161,54260,5
29163,54249,5
29168,54254,5
29164,54243,4
29163,54265,5
29166,54246,5
29159,54247,5
29170,54240,5
29161,54244,4
29165,54246,5
29158,54236,5
29167,54246,5
29159,54254,5
29170,54258,4
29174,54272,5
29186,54274,5
29185,54284,5
29188,54302,4
29192,54307,5
29200,54315,5
29199,54326,5
29208,54329,5
29209,54338,4
29209,54339,6
29219,54345,4
29220,54352,5
29227,54365,5
29226,54378,4
29239,54391,5
29250,54409,5
29268,54444,5
29295,54497,5
29306,54518,4
29315,54536,5
29327,54556,5
29326,54562,5
29331,54554,5
29323,54550,4
29314,54534,5
29317,54543,5
29322,54558,5
29340,54564,4
29338,54578,4
29336,54576,5
29337,54579,5
29335,54562,5
29325,54548,4
29320,54549,5
29317,54547,6
29324,54546,4
29317,54542,5
29321,54535,4
29325,54538,5
29322,54543,5
29321,54544,5
29331,54546,5
29324,54564,4
29331,54568,5
29322,54540,5
29330,54564,5
29341,54573,5
29342,54575,4
29337,54571,5
29340,54560,5
29325,54563,5
29323,54547,5
29334,54538,4
29333,54539,5
29323,54542,5
29324,54549,6
29329,54543,3
29328,54551,5
29331,54546,5
29332,54554,5
29328,54542,5
29335,54544,4
29327,54547,5
29327,54539,5
29328,54543,5
29325,54546,5
29322,54540,4
29327,54529,5
29327,54541,5
29329,54534,5
29332,54534,5
29329,54537,4
29327,54534,5
29329,54549,5
29328,54551,5
29326,54549,5
29327,54539,5
29327,54540,4
29331,54546,5
29318,54541,5
29327,54545,6
29328,54535,3
29332,54545,5
29307,54532,5
29327,54535,5
29330,54533,4
29334,54542,5
29315,54542,5
29336,54546,5
29324,54536,5
29333,54538,4
29333,54549,5
29330,54542,5
29326,54543,5
29323,54550,5
29348,54534,4
29329,54544,5
29325,54548,5
29333,54534,5
29337,54545,5
29331,54540,4
29331,54542,6
29325,54546,4
29339,54539,5
29324,54551,4
29330,54545,6
29329,54539,3
29328,54549,5
29325,54547,5
29331,54543,4
29326,54545,5
29330,54538,5
29336,54565,5
29328,54558,5
29339,54562,4
29338,54549,5
29339,54563,5
29342,54561,5
29331,54554,5
29337,54553,4
29343,54558,5
29337,54564,5
29340,54566,5
29336,54565,5
29334,54558,4
29328,54543,5
29331,54551,6
29321,54561,4
29326,54533,5
29321,54524,4
29311,54521,5
29311,54523,5
29308,54502,5
29305,54507,4
29309,54506,5
29301,54511,5
29296,54510,5
29315,54508,5
29309,54505,4
29304,54512,5
29315,54508,5
29301,54502,5
29308,54506,5
29307,54503,4
29296,54500,5
29297,54508,5
29299,54492,5
29299,54493,5
29292,54491,4
29299,54492,5
29302,54490,5
29299,54493,6
29300,54485,4
29296,54487,4
29298,54488,5
29296,54483,5
29292,54485,5
29290,54484,4
29292,54485,4
29291,54490,5
29289,54474,5
29285,54467,5
29282,54466,4
29282,54470,5
29288,54467,5
29274,54452,5
29282,54461,5
29277,54459,4
29269,54452,5
29279,54451,5
29278,54454,5
29281,54445,5
29276,54454,5
29285,54457,4
29275,54445,5
29272,54443,5
29277,54448,6
29272,54444,3
29275,54438,5
29267,54432,5
29266,54431,5
29263,54432,5
29265,54429,4
29268,54424,5
29257,54427,5
29261,54426,5
29251,54422,4
29262,54431,5
29261,54410,5
29259,54412,5
29252,54415,5
29251,54407,4
29258,54407,5
29255,54400,5
29250,54391,5
29252,54388,5
29240,54383,4
29244,54380,6
29239,54383,6
29246,54379,3
29242,54380,5
29241,54376,4
29240,54387,5
29239,54382,5
29223,54375,5
29227,54361,5
29231,54352,4
29228,54354,5
29219,54340,5
29218,54335,5
29210,54335,4
29207,54324,5
29211,54321,5
29204,54324,5
29207,54311,5
29212,54315,4
29198,54315,5
29197,54300,5
29204,54306,5
29190,54309,5
29198,54304,4
29192,54309,5
29197,54318,6
29201,54302,4
29192,54302,5
29193,54294,4
29195,54303,5
29184,54282,5
29168,54284,5
29190,54290,5
29184,54283,4
29178,54281,5
29167,54264,5
29182,54259,5
29182,54261,4
29163,54248,4
29171,54243,5
29164,54248,5
29162,54235,5
29157,54217,4
29168,54213,5
29150,54208,5
29147,54198,5
29146,54198,5
29144,54187,4
29141,54191,5
29139,54191,5
29125,54195,6
29139,54192,4
29142,54208,4
29149,54205,5
29151,54210,5
29147,54210,5
29152,54214,5
29156,54230,4
29150,54230,5
29161,54224,5
29171,54244,5
29164,54240,4
29172,54248,4
29166,54231,5
29165,54247,5
29170,54251,5
29163,54248,4
29178,54237,5
29175,54256,5
29174,54257,5
29174,54251,5
29170,54264,5
29168,54250,4
29164,54249,5
29171,54256,5
29171,54265,5
29168,54244,4
29172,54248,5
29167,54254,5
29174,54266,5
29174,54252,5
29170,54262,4
29172,54253,5
29177,54271,5
29187,54280,5
29184,54276,5
29184,54263,4
29178,54269,5
29185,54263,5
29175,54262,5
29170,54255,4
29167,54232,5
29163,54233,5
29165,54237,5
29167,54234,5
29168,54239,4
29168,54242,6
29166,54246,4
29166,54248,5
29175,54241,5
29177,54239,4
29176,54242,5
29161,54242,5
29161,54248,5
29169,54242,5
29171,54244,4
29162,54236,5
29165,54237,5
29161,54236,5
29163,54236,5
29157,54237,4
29158,54235,5
29154,54221,5
29166,54226,5
29163,54233,4
29165,54242,4
29166,54223,5
29161,54239,5
29160,54238,5
29171,54234,4
29173,54251,5
29164,54255,6
29166,54254,4
29170,54260,5
29174,54255,4
29171,54256,5
29171,54253,5
29172,54256,5
29177,54255,5
29181,54255,4
29179,54260,5
29174,54257,5
29187,54260,5
29187,54262,5
29182,54263,4
29175,54267,5
29188,54265,5
29176,54258,5
29183,54270,5
29192,54274,4
29189,54283,5
29193,54288,5
29186,54291,5
29194,54280,4
29194,54287,5
29193,54283,5
29194,54287,6
29189,54283,4
29188,54278,4
29189,54291,5
29194,54286,5
29185,54285,5
29186,54283,5
29192,54280,4
29196,54281,5
29184,54288,5
29188,54292,5
29184,54292,5
29192,54291,4
29186,54297,5
29199,54295,5
29194,54289,5
29197,54289,5
29199,54295,4
29197,54299,5
29197,54295,5
29201,54295,5
29182,54277,5
29189,54280,4
29194,54287,5
29203,54285,5
29182,54270,5
29184,54264,4
29180,54267,5
29173,54261,5
29181,54259,5
29175,54256,5
29175,54267,4
29183,54263,5
29186,54266,5
29170,54268,5
29186,54278,5
29186,54269,4
29181,54278,5
29185,54278,5
29189,54278,5
29188,54270,5
29186,54275,4
29207,54275,5
29195,54284,5
29189,54288,5
29195,54286,4
29202,54292,5
29190,54294,4
29191,54293,5
29198,54300,5
29205,54296,4
29205,54307,5
29203,54312,5
29212,54313,5
29214,54313,5
29207,54329,4
29209,54316,5
29207,54321,5
29215,54311,5
29206,54320,5
29208,54312,4
29216,54313,5
29213,54314,5
29220,54321,5
29209,54332,5
29223,54338,4
29226,54334,5
29236,54344,5
29229,54353,5
29234,54369,4
29240,54381,4
29249,54377,6
29253,54387,4
29252,54395,5
29253,54411,4
29248,54383,5
29252,54397,5
29251,54395,5
29249,54407,5
29248,54393,4
29250,54398,5
29256,54392,5
29247,54399,5
29250,54409,5
29256,54407,4
29261,54409,5
29263,54411,5
29262,54413,5
29260,54411,5
29256,54418,4
29254,54414,5
29260,54420,5
29265,54423,5
29264,54435,4
29278,54430,4
29267,54447,5
29280,54448,5
29281,54453,5
29277,54460,4
29286,54464,5
29284,54457,5
29280,54464,5
29289,54468,5
29292,54475,4
29286,54450,5
29286,54449,5
29286,54466,5
29290,54468,5
29284,54473,4
29295,54472,5
29296,54471,5
29286,54474,5
29284,54470,5
29291,54472,5
29292,54461,4
29283,54469,5
29293,54476,5
29286,54484,6
29293,54488,3
29303,54481,5
29306,54488,5
29305,54506,5
29309,54507,4
29310,54515,4
29314,54506,5
29317,54514,5
29324,54528,5
29324,54534,4
29322,54543,5
29334,54543,5
29332,54544,5
29330,54556,5
29331,54568,4
29339,54563,5
29340,54567,5
29346,54580,5
29344,54566,5
29339,54576,4
29357,54586,6
29345,54593,4
29341,54577,5
29355,54584,5
29351,54589,6
29345,54596,3
29354,54596,5
29347,54593,5
29343,54595,4
29346,54598,4
29351,54608,5
29352,54598,5
29366,54610,5
29371,54616,4
29366,54631,5
29378,54639,5
29383,54640,5
29381,54637,5
29375,54638,4
29376,54633,5
29373,54631,5
29373,54617,5
29378,54622,5
29372,54624,4
29373,54618,5
29366,54620,6
29369,54624,4
29371,54628,5
29359,54615,4
29356,54617,5
29373,54622,5
29365,54623,5
29366,54622,5
29364,54629,4
29372,54617,5
29372,54631,5
29367,54631,5
29358,54631,4
29374,54633,5
29373,54635,5
29373,54636,5
29365,54640,5
29385,54633,4
29384,54646,5
29382,54644,5
29388,54642,5
29372,54643,5
29381,54639,4
29382,54644,5
29392,54651,5
29388,54647,6
29388,54657,4
29384,54666,4
29404,54659,5
29394,54662,5
29383,54647,5
29377,54646,5
29383,54644,4
29384,54639,5
29370,54631,5
29373,54628,5
29363,54616,4
29366,54608,4
29368,54613,5
29364,54608,5
29366,54597,5
29364,54617,4
29366,54615,5
29358,54616,5
29370,54609,5
29365,54619,5
29366,54623,5
29368,54626,4
29363,54613,5
29365,54620,5
29368,54620,6
29361,54620,3
29356,54620,5
29368,54615,5
29364,54621,5
29365,54613,5
29364,54631,4
29356,54614,5
29355,54612,5
29360,54615,5
29364,54619,5
29370,54620,4
29365,54606,5
29366,54617,5
29369,54631,5
29366,54616,4
29364,54620,5
29370,54609,5
29367,54611,5
29364,54610,5
29355,54608,4
29353,54617,6
29363,54603,4
29361,54606,5
29359,54612,5
29359,54608,4
29358,54612,5
29360,54614,5
29360,54619,5
29365,54609,5
29370,54618,4
29373,54623,5
29370,54629,5
29369,54631,5
29367,54632,5
29364,54627,4
29366,54630,5
29370,54630,5
29369,54633,5
29368,54621,4
29363,54619,4
29364,54625,5
29362,54620,5
29365,54614,5
29361,54627,4
29364,54623,5
29364,54620,6
29370,54631,4
29372,54618,5
29367,54626,4
29365,54629,5
29360,54624,5
29375,54625,5
29359,54630,5
29364,54630,4
29366,54629,5
29371,54629,5
29367,54633,5
29377,54637,5
29374,54631,9
29370,54635,0
29370,54646,5
29377,54620,5
29368,54636,4
29363,54626,4
29360,54623,5
29363,54631,5
29367,54627,5
29361,54615,4
29357,54610,5
29355,54610,5
29355,54610,6
29355,54608,4
29352,54605,4
29358,54599,5
29355,54600,5
29358,54607,5
29346,54602,5
29352,54602,4
29360,54601,5
29359,54593,5
29347,54585,5
29341,54593,5
29338,54587,4
29352,54587,5
29341,54576,5
29335,54574,5
29343,54568,5
29339,54571,4
29342,54564,5
29330,54561,5
29327,54560,5
29338,54565,5
29336,54565,4
29339,54571,5
29335,54562,5
29335,54571,6
29336,54560,3
29333,54562,5
29327,54554,5
29339,54556,5
29332,54554,5
29328,54549,4
29325,54544,5
29321,54546,5
29323,54544,5
29314,54538,5
29305,54539,4
29317,54529,5
29325,54535,5
29328,54539,5
29324,54538,5
29321,54545,4
29319,54542,5
29332,54556,5
29336,54555,5
29331,54550,4
29332,54551,5
29328,54551,4
29342,54556,5
29332,54539,5
29330,54542,4
29325,54534,5
29337,54528,5
29319,54521,5
29316,54513,5
29306,54522,4
29315,54510,5
29314,54519,5
29316,54507,5
29318,54507,5
29315,54513,4
29308,54508,5
29312,54516,5
29304,54517,5
29311,54499,5
29308,54509,4
29315,54509,5
29312,54506,5
29301,54490,5
29305,54494,5
29309,54498,4
29300,54494,6
29300,54483,4
29294,54484,5
29292,54464,4
29286,54460,5
29287,54473,5
29283,54463,5
29273,54448,5
29271,54436,4
29265,54445,5
29275,54435,5
29276,54433,5
29267,54427,5
29275,54439,4
29273,54431,5
29271,54438,5
29277,54425,5
29264,54434,5
29272,54430,4
29274,54424,5
29272,54418,5
29264,54421,5
29265,54411,5
29265,54412,4
29261,54404,5
29256,54400,6
29264,54395,4
29254,54396,4
29256,54397,4
29254,54394,5
29254,54395,5
29255,54407,5
29271,54395,4
29256,54395,5
29250,54395,5
29251,54404,5
29262,54400,5
29258,54395,4
29258,54401,5
29262,54394,5
29257,54395,5
29258,54395,5
29256,54394,4
29258,54384,5
29255,54381,5
29260,54388,5
29252,54385,5
29258,54398,4
29255,54392,5
29258,54391,5
29251,54391,5
29256,54393,5
29260,54388,4
29253,54391,5
29257,54402,5
29252,54406,5
29252,54400,4
29262,54411,5
29267,54397,5
29261,54406,5
29261,54410,5
29267,54409,4
29260,54408,5
29261,54412,5
29256,54402,5
29268,54409,5
29267,54411,4
29268,54416,5
29264,54407,5
29259,54405,5
29264,54395,5
29268,54407,5
29272,54411,4
29270,54402,5
29261,54410,5
29267,54413,5
29264,54407,4
29266,54414,5
29266,54423,5
29269,54419,5
29278,54422,4
29280,54430,4
29274,54430,5
29282,54427,5
29275,54409,5
29265,54405,4
29271,54408,5
29274,54413,5
29265,54396,5
29258,54395,5
29251,54390,4
29257,54402,5
29260,54394,5
29263,54393,5
29256,54388,5
29260,54392,4
29267,54406,6
29267,54402,4
29264,54415,5
29270,54409,5
29266,54407,4
29264,54405,5
29266,54410,5
29270,54402,5
29265,54406,5
29267,54403,4
29256,54403,5
29255,54391,5
29251,54400,5
29260,54397,4
29241,54385,5
29249,54392,5
29258,54393,5
29261,54388,5
29248,54394,4
29262,54402,5
29273,54407,5
29269,54409,5
29266,54413,5
29262,54409,4
29273,54411,5
29265,54409,5
29277,54400,5
29255,54408,5
29257,54401,4
29262,54402,5
29269,54398,5
29268,54399,5
29258,54394,5
29260,54411,4
29267,54405,5
29266,54404,5
29267,54409,5
29264,54408,4
29272,54402,4
29271,54418,5
29268,54421,5
29272,54420,5
29268,54409,5
29266,54413,4
29275,54416,5
29278,54422,5
29265,54407,6
29282,54428,3
29280,54428,5
29276,54423,5
29273,54411,5
29277,54411,5
29269,54421,4
29273,54410,5
29277,54428,5
29275,54419,5
29276,54423,5
29282,54429,4
29281,54447,5
29286,54427,5
29287,54441,5
29279,54430,5
29277,54441,4
29283,54437,5
29287,54432,5
29284,54439,5
29282,54440,4
29284,54439,6
29282,54444,4
29276,54442,5
29281,54419,5
29267,54420,6
29280,54430,3
29275,54425,5
29276,54413,5
29274,54419,5
29275,54423,4
29268,54410,5
29266,54406,5
29271,54416,5
29274,54414,5
29281,54425,4
29275,54425,5
29283,54423,5
29283,54426,5
29277,54414,5
29281,54427,4
29275,54421,5
29282,54424,5
29283,54439,5
29285,54432,4
29280,54431,4
29286,54441,6
29286,54450,4
29290,54449,5
29291,54446,4
29293,54449,5
29294,54442,5
29299,54460,5
29294,54464,5
29303,54463,4
29303,54476,5
29298,54476,5
29308,54493,5
29316,54488,5
29304,54485,4
29313,54491,5
29310,54492,5
29314,54496,5
29318,54500,5
29315,54499,4
29327,54511,5
29333,54518,5
29332,54517,5
29334,54514,5
29326,54504,4
29322,54517,5
29332,54517,6
29332,54541,4
29340,54563,4
29369,54606,5
29386,54642,5
29410,54683,5
29415,54697,5
29418,54704,4
29421,54688,5
29410,54677,5
29397,54643,5
29390,54638,5
29386,54628,4
29387,54622,5
29396,54627,5
29398,54635,5
29385,54612,5
29378,54592,4
29378,54593,5
29368,54596,5
29371,54587,5
29379,54606,5
29373,54588,4
29371,54571,5
29364,54562,5
29359,54564,6
29358,54562,3
29351,54551,4
29352,54557,5
29361,54573,5
29366,54584,5
29369,54590,4
29364,54588,5
29382,54612,5
29388,54624,5
29386,54635,5
29398,54637,4
29401,54647,5
29390,54664,5
29415,54666,5
29410,54665,5
29410,54656,4
29398,54653,5
29397,54648,5
29402,54648,5
29401,54653,5
29392,54660,5
29405,54660,4
29413,54669,5
29417,54672,5
29423,54680,6
29422,54686,3
29417,54688,5
29423,54679,5
29435,54679,5
29419,54674,4
29415,54676,5
29411,54660,5
29418,54660,5
29410,54662,5
29405,54661,4
29398,54650,5
29408,54648,5
29400,54641,5
29398,54647,5
29402,54646,4
29393,54646,5
29401,54648,5
29400,54657,5
29403,54645,5
29402,54660,4
29404,54657,6
29409,54663,4
29400,54652,5
29406,54647,5
29411,54664,4
29409,54661,5
29404,54664,5
29404,54657,5
29408,54650,4
29408,54662,4
29405,54647,5
29401,54664,5
29402,54663,5
29408,54662,4
29401,54660,5
29401,54666,5
29403,54659,5
29408,54657,5
29410,54666,4
29408,54672,5
29409,54666,5
29400,54662,5
29406,54663,5
29403,54674,4
29407,54666,5
29399,54664,6
29400,54655,4
29409,54661,5
29397,54655,4
29404,54658,5
29403,54657,5
29406,54653,5
29400,54661,4
29402,54652,4
29393,54650,5
29400,54654,5
29405,54649,5
29405,54657,4
29406,54658,5
29404,54658,5
29396,54646,5
29400,54648,5
29397,54648,4
29397,54652,5
29399,54654,5
29398,54634,5
29388,54632,5
29392,54629,4
29391,54633,5
29382,54623,5
29389,54620,6
29379,54626,6
29380,54612,2
29373,54614,5
29390,54608,5
29373,54616,5
29382,54608,5
29380,54609,4
29379,54620,5
29381,54618,5
29377,54609,5
29372,54607,4
29371,54608,5
29380,54612,5
29373,54605,5
29375,54605,5
29380,54604,4
29375,54602,5
29371,54607,5
29375,54605,5
29373,54612,5
29368,54603,5
29369,54609,4
29370,54601,5
29373,54609,5
29370,54610,5
29370,54606,4
29367,54594,5
29360,54604,5
29374,54601,5
29368,54595,5
29370,54604,4
29365,54596,5
29370,54601,5
29366,54588,5
29368,54595,4
29365,54586,4
29365,54587,5
29364,54574,5
29360,54576,5
29361,54581,4
29357,54576,5
29360,54591,5
29361,54590,5
29367,54597,5
29372,54591,4
29358,54594,6
29363,54590,4
29369,54586,5
29362,54595,5
29364,54602,4
29367,54584,5
29361,54582,5
29366,54586,5
29364,54581,5
29370,54589,4
29361,54588,5
29358,54587,5
29360,54587,5
29354,54574,5
29359,54581,4
29361,54574,5
29347,54569,5
29357,54567,5
29348,54568,4
29357,54564,5
29341,54564,5
29352,54574,5
29352,54563,5
29345,54553,4
29335,54567,5
29357,54572,6
29356,54562,4
29354,54564,5
29353,54549,4
29347,54550,5
29334,54541,5
29336,54542,5
29345,54525,5
29334,54525,4
29326,54516,5
29313,54505,5
29320,54510,5
29309,54502,5
29309,54495,4
29315,54502,5
29333,54506,5
29317,54497,5
29319,54502,4
29311,54502,4
29314,54497,5
29306,54490,5
29312,54498,5
29300,54494,4
29316,54488,5
29310,54488,5
29301,54478,5
29300,54480,5
29316,54474,4
29311,54480,5
29308,54480,5
29316,54478,5
29296,54464,5
29305,54483,4
29296,54487,5
29303,54478,5
29303,54491,5
29311,54485,5
29298,54481,4
29307,54478,5
29298,54484,5
29294,54464,5
29302,54465,5
29289,54460,4
29292,54474,5
29299,54456,5
29287,54457,5
29287,54448,5
29289,54448,4
29281,54441,5
29279,54429,5
29273,54424,5
29275,54419,4
29271,54401,5
29267,54397,5
29257,54398,5
29269,54400,5
29261,54396,4
29260,54392,5
29253,54386,5
29253,54370,5
29252,54357,5
29236,54333,4
29215,54317,5
29186,54257,5
29122,54165,5
29101,54129,5
29088,54107,4
29086,54104,5
29070,54083,5
29065,54060,5
29054,54038,4
29044,54028,6
29043,54029,4
29048,54038,5
29047,54025,5
29038,54009,4
29013,53983,5
29006,53949,5
29001,53941,5
28992,53930,5
28955,53857,4
28920,53796,5
28893,53750,5
28888,53750,5
28879,53719,5
28853,53664,4
28808,53573,5
28782,53527,5
28779,53526,5
28779,53519,5
28775,53521,4
28767,53498,5
28739,53464,5
28730,53413,5
28696,53359,4
28679,53328,4
28656,53300,6
28659,53303,4
28655,53300,5
28638,53287,4
28623,53239,5
28592,53161,5
28568,53128,5
28551,53127,5
28547,53095,4
28524,53042,5
28484,52980,5
28488,52985,5
28505,53011,5
28507,53001,4
28497,52993,5
28480,52961,5
28454,52924,5
28431,52867,5
28409,52831,4
28410,52822,5
28410,52823,5
28407,52815,6
28376,52745,4
28315,52626,4
28281,52579,5
28275,52575,5
28266,52569,5
28284,52586,4
28270,52573,5
28260,52546,5
28246,52493,5
28204,52415,5
28180,52383,4
28171,52388,5
28177,52393,5
28171,52360,5
28141,52306,5
28143,52304,4
28146,52303,5
28152,52317,5
28145,52326,5
28154,52339,5
28174,52387,5
28210,52470,4
28244,52536,5
28284,52582,5
28313,52651,6
28361,52742,3
28389,52809,5
28430,52835,5
28434,52856,5
28451,52873,4
28448,52860,4
28434,52830,5
28437,52853,5
28470,52914,5
28530,52993,4
28546,53038,5
28552,53062,5
28568,53087,5
28605,53117,5
28581,53087,4
28552,53023,5
28502,52922,5
28469,52863,5
28446,52832,5
28456,52835,4
28454,52839,6
28444,52821,4
28437,52780,5
28418,52762,5
28429,52792,6
28438,52813,3
28464,52859,5
28467,52852,5
28458,52826,5
28422,52761,4
28401,52737,5
28390,52717,5
28401,52729,5
28416,52772,4
28452,52814,5
28460,52857,5
28486,52913,5
28516,52938,5
28508,52928,4
28503,52924,5
28498,52921,5
28505,52945,5
28516,52953,5
28528,52989,4
28555,53027,5
28562,53060,6
28583,53068,4
28582,53074,5
28578,53069,4
28576,53072,5
28564,53047,5
28567,53062,5
28586,53081,5
28587,53084,4
28583,53070,5
28585,53080,5
28580,53078,5
28585,53088,4
28589,53105,4
28592,53077,5
28576,53050,5
28556,53027,5
28546,53010,4
28532,52990,5
28536,53006,5
28554,53023,5
28555,53030,5
28549,53034,4
28565,53049,5
28570,53066,5
28580,53086,6
28581,53074,4
28564,53058,4
28569,53057,5
28564,53057,5
28573,53084,5
28595,53117,5
28612,53156,4
28620,53170,5
28634,53182,5
28638,53210,5
28659,53246,5
28663,53262,4
28665,53260,5
28664,53250,5
28652,53219,5
28650,53224,4
28656,53230,5
28656,53236,5
28657,53247,5
28679,53279,5
28702,53334,5
28713,53359,4
28711,53348,5
28704,53339,5
28703,53337,6
28713,53354,3
28718,53356,5
28716,53368,5
28737,53383,5
28732,53407,5
28746,53422,4
28771,53453,5
28783,53475,5
28799,53523,5
28813,53545,5
28832,53595,4
28853,53614,5
28859,53640,5
28865,53647,5
28885,53676,4
28884,53678,4
28892,53688,5
28897,53696,5
28898,53688,5
28893,53690,4
28897,53682,6
28892,53677,4
28903,53697,5
28904,53721,5
28906,53725,4
28916,53730,5
28917,53738,5
28918,53734,5
28899,53690,5
28871,53634,4
28835,53576,5
28810,53531,5
28784,53493,5
28765,53462,5
28745,53440,4
28746,53425,5
28735,53390,5
28700,53340,5
28681,53292,4
28630,53191,4
28578,53127,5
28574,53111,5
28577,53135,5
28592,53171,4
28605,53168,5
28600,53156,6
28575,53152,4
28602,53145,5
28608,53174,4
28624,53217,5
28634,53251,5
28662,53260,5
28665,53279,5
28689,53317,4
28714,53369,5
28721,53367,5
28700,53335,5
28664,53255,5
28649,53228,4
28629,53223,5
28640,53218,5
28632,53214,5
28647,53197,5
28622,53195,4
28632,53205,5
28627,53210,5
28622,53203,5
28629,53198,4
28614,53198,5
28612,53187,5
28612,53165,6
28587,53133,4
28563,53085,4
28544,53065,5
28535,53026,5
28517,53007,5
28521,52996,5
28526,53004,4
28527,52996,5
28533,53024,5
28537,53025,5
28545,53047,5
28550,53043,4
28556,53061,5
28573,53078,5
28575,53102,5
28594,53131,5
28604,53151,4
28616,53172,5
28621,53168,5
28617,53180,5
28609,53167,5
28607,53157,4
28601,53144,5
28591,53123,5
28580,53097,6
28581,53090,3
28565,53076,5
28559,53052,5
28546,53047,5
28537,53024,5
28539,53009,4
28536,53011,5
28540,53024,5
28534,53007,5
28531,53011,5
28554,53020,4
28544,53034,5
28553,53050,5
28561,53056,6
28562,53064,4
28568,53074,4
28568,53076,5
28573,53092,5
28584,53094,5
28586,53105,4
28592,53116,5
28589,53118,4
28606,53126,5
28604,53144,5
28611,53145,4
28613,53154,5
28613,53164,5
28618,53160,5
28620,53165,5
28614,53155,4
28609,53165,5
28609,53161,5
28606,53166,5
28610,53166,5
28611,53145,4
28604,53143,5
28598,53122,5
28590,53121,5
28586,53107,5
28576,53097,4
28575,53075,5
28561,53054,5
28552,53052,5
28559,53036,5
28544,53039,4
28548,53020,6
28535,53014,4
28532,52999,5
28525,52980,4
28508,52962,5
28510,52949,5
28504,52948,5
28512,52949,5
28509,52953,4
28513,52964,5
28514,52950,5
28508,52952,5
28513,52951,5
28501,52942,4
28501,52947,5
28503,52942,5
28497,52938,5
28499,52926,5
28491,52919,4
28486,52933,5
28498,52934,5
28499,52938,5
28491,52931,5
28484,52919,4
28494,52908,5
28487,52909,6
28484,52905,4
28468,52898,4
28478,52882,5
28472,52889,5
28469,52880,5
28467,52880,5
28472,52883,4
28469,52869,5
28459,52877,5
28462,52865,5
28460,52854,5
28445,52835,4
28439,52821,5
28433,52799,5
28431,52802,5
28422,52797,5
28429,52794,4
28424,52789,5
28422,52797,5
28423,52787,5
28411,52784,5
28410,52777,4
28419,52771,5
28415,52773,5
28408,52763,5
28413,52765,4
28408,52753,4
28403,52742,5
28394,52751,5
28408,52749,5
28406,52745,4
28412,52756,5
28415,52769,5
28412,52768,5
28429,52788,5
28428,52802,4
28443,52808,5
28437,52811,5
28448,52825,5
28438,52824,5
28464,52829,4
28443,52833,5
28458,52846,5
28458,52854,5
28471,52863,5
28469,52867,5
28476,52885,4
28482,52891,5
28485,52895,5
28480,52895,4
28493,52901,4
28495,52912,5
28500,52918,5
28498,52920,5
28502,52930,4
28505,52943,5
28514,52935,5
28523,52979,5
28533,52998,5
28546,53018,4
28553,53020,5
28560,53043,5
28562,53052,5
28562,53064,5
28577,53082,4
28577,53086,5
28583,53092,5
28582,53099,5
28582,53114,5
28581,53101,4
28594,53113,6
28595,53123,4
28603,53148,5
28613,53151,5
28620,53172,4
28619,53185,5
28637,53197,5
28641,53204,5
28647,53232,4
28655,53243,5
28666,53251,5
28679,53256,5
28670,53250,5
28670,53262,4
28675,53269,5
28681,53274,5
28684,53281,5
28682,53287,5
28685,53293,4
28690,53311,5
28696,53311,5
28688,53322,5
28703,53324,4
28703,53331,4
28705,53329,5
28707,53339,5
28706,53333,5
28708,53335,5
28703,53339,4
28714,53350,5
28713,53346,5
28716,53342,5
28713,53355,4
28718,53365,4
28723,53370,5
28729,53380,5
28736,53385,5
28725,53376,4
28732,53388,5
28737,53389,5
28741,53390,5
28735,53393,5
28743,53407,5
28743,53409,4
28735,53416,5
28750,53422,5
28762,53428,6
28758,53438,3
28762,53456,5
28774,53459,5
28781,53473,5
28778,53485,5
28786,53494,4
28786,53505,5
28792,53489,5
28802,53508,5
28797,53511,5
28795,53511,4
28801,53510,5
28796,53520,5
28805,53518,5
28800,53511,4
28795,53529,5
28801,53530,5
28798,53532,5
28801,53527,5
28808,53534,4
28807,53536,6
28807,53532,4
28809,53537,5
28809,53533,5
28809,53535,6
28809,53547,3
28805,53542,5
28809,53532,5
28809,53543,5
28816,53542,4
28805,53539,5
28807,53545,5
28813,53549,5
28813,53546,5
28817,53558,4
28813,53547,5
28817,53554,5
28819,53554,5
28815,53574,4
28832,53579,5
28832,53605,5
28841,53601,5
28844,53632,5
28861,53641,4
28874,53656,5
28873,53656,6
28876,53672,4
28871,53669,5
28874,53674,4
28878,53688,5
28889,53692,5
28883,53696,5
28873,53703,5
28895,53702,4
28894,53704,5
28897,53712,5
28885,53717,5
28892,53710,5
28904,53720,4
28901,53726,5
28904,53713,5
28904,53736,5
28909,53723,4
28901,53741,4
28916,53724,5
28902,53730,5
28907,53726,5
28896,53726,4
28906,53724,5
28902,53728,5
28907,53727,6
28901,53723,4
28906,53728,4
28900,53731,5
28906,53742,5
28899,53747,5
28903,53736,5
28909,53748,4
28909,53750,5
28909,53757,5
28917,53747,5
28922,53765,5
28918,53761,4
28916,53772,5
28917,53759,5
28926,53776,5
28916,53775,5
28928,53770,4
28924,53752,5
28914,53759,5
28922,53774,5
28923,53777,5
28925,53789,4
28930,53782,5
28921,53767,5
28918,53759,6
28909,53767,3
28897,53740,5
28916,53759,5
28921,53774,5
28918,53773,5
28909,53727,4
28869,53666,5
28841,53599,5
28808,53569,5
28807,53544,5
28784,53491,4
28750,53430,5
28707,53360,5
28668,53285,5
28634,53224,5
28606,53178,4
28597,53183,5
28605,53168,5
28595,53152,5
28577,53119,4
28554,53073,5
28523,53030,4
28513,53008,5
28514,53008,5
28505,53011,4
28517,53018,5
28515,53017,5
28504,52977,5
28493,52952,5
28463,52896,4
28405,52811,5
28385,52752,5
28366,52761,5
28393,52800,5
28416,52856,4
28448,52881,5
28447,52886,5
28452,52895,5
28457,52912,5
28479,52958,4
28508,52993,5
28519,53027,5
28535,53044,5
28539,53065,4
28562,53104,4
28575,53125,6
28576,53108,4
28572,53109,5
28560,53110,4
28580,53140,5
28599,53183,5
28622,53219,5
28639,53225,5
28642,53232,4
28625,53197,5
28624,53177,5
28618,53180,5
28615,53194,5
28638,53243,4
28676,53303,5
28680,53319,5
28681,53322,5
28695,53336,5
28690,53326,4
28686,53321,5
28688,53324,5
28695,53348,5
28704,53330,5
28698,53321,4
28676,53300,5
28679,53313,6
28690,53319,4
28690,53321,4
28698,53320,4
28682,53324,5
28692,53332,5
28704,53334,5
28708,53337,4
28707,53339,5
28703,53325,5
28704,53323,5
28698,53335,5
28696,53337,4
28696,53341,5
28704,53346,5
28699,53345,5
28708,53337,5
28691,53315,4
28695,53325,5
28692,53315,5
28696,53310,5
28697,53312,5
28690,53321,4
28690,53323,5
28691,53329,5
28701,53342,6
28707,53337,3
28690,53339,4
28707,53338,5
28707,53343,5
28702,53330,5
28677,53306,4
28692,53311,5
28674,53273,5
28658,53253,5
28640,53235,5
28633,53212,4
28635,53202,5
28628,53197,5
28637,53202,5
28629,53204,5
28631,53200,4
28626,53197,5
28639,53198,5
28633,53192,5
28630,53198,5
28632,53196,5
28640,53190,4
28621,53187,5
28618,53176,5
28620,53176,5
28626,53169,4
28622,53178,5
28623,53178,5
28621,53183,5
28629,53176,4
28628,53198,5
28631,53200,5
28635,53206,5
28625,53203,5
28643,53215,4
28641,53211,5
28637,53231,5
28649,53219,5
28656,53237,5
28655,53232,4
28657,53229,5
28646,53220,5
28648,53239,5
28650,53229,5
28654,53240,4
28652,53248,6
28653,53242,4
28647,53245,5
28655,53253,5
28660,53269,4
28654,53251,8
28669,53257,2
28661,53257,5
28675,53261,4
28646,53235,4
28641,53224,5
28640,53224,5
28639,53214,5
28628,53218,4
28631,53211,5
28637,53207,5
28635,53215,5
28635,53212,5
28638,53218,4
28633,53214,5
28641,53214,5
28632,53211,5
28642,53215,5
28632,53209,4
28630,53218,5
28632,53211,6
28634,53203,4
28640,53196,5
28626,53194,4
28622,53186,5
28617,53191,5
28612,53187,5
28610,53185,4
28626,53191,4
28624,53191,5
28619,53176,5
28617,53192,5
28625,53188,4
28619,53190,5
28622,53187,5
28616,53184,5
28616,53182,5
28616,53169,4
28613,53167,5
28599,53163,5
28607,53152,5
28600,53155,5
28595,53147,4
28601,53146,5
28592,53141,5
28595,53149,5
28601,53146,5
28603,53153,4
28607,53145,5
28599,53152,5
28598,53162,5
28600,53165,5
28613,53151,4
28595,53146,5
28593,53145,5
28593,53139,5
28592,53141,4
28598,53141,5
28590,53136,5
28586,53122,5
28591,53119,5
28588,53120,4
28578,53111,5
28579,53114,5
28592,53122,5
28580,53119,5
28587,53107,5
28578,53111,4
28569,53100,5
28565,53093,5
28572,53092,5
28570,53104,4
28578,53100,5
28574,53100,5
28571,53091,5
28578,53093,5
28574,53102,4
28571,53094,5
28564,53086,5
28563,53076,5
28559,53074,4
28559,53057,4
28547,53067,5
28547,53066,5
28551,53070,5
28562,53059,4
28554,53074,5
28567,53081,5
28559,53077,5
28564,53092,5
28571,53098,4
28574,53093,6
28564,53107,4
28578,53109,5
28579,53105,5
28583,53101,4
28560,53102,5
28574,53106,5
28579,53106,5
28576,53112,5
28568,53116,4
28577,53104,5
28575,53120,5
28583,53119,5
28583,53112,5
28591,53128,4
28591,53129,5
28594,53134,5
28599,53133,5
28599,53143,4
28590,53143,5
28591,53140,5
28618,53136,5
28596,53146,4
28590,53149,4
28600,53154,5
28609,53151,5
28599,53152,5
28606,53153,5
28600,53160,4
28600,53155,5
28602,53153,5
28600,53155,5
28601,53155,5
28597,53149,4
28601,53159,5
28610,53161,5
28602,53163,5
28611,53155,5
28606,53173,4
28611,53184,5
28613,53193,5
28622,53180,5
28628,53201,5
28625,53209,4
28631,53199,5
28623,53201,5
28618,53202,6
28629,53204,3
28614,53198,5
28620,53206,5
28616,53197,5
28613,53195,5
28620,53200,4
28635,53225,5
28620,53204,5
28619,53201,5
28624,53202,5
28629,53220,4
28621,53196,5
28621,53201,5
28625,53205,5
28616,53217,5
28623,53212,4
28632,53206,5
28629,53214,5
28632,53220,5
28636,53221,4
28653,53235,5
28638,53249,4
28649,53256,5
28654,53267,5
28660,53275,6
28659,53267,3
28661,53275,5
28657,53264,5
28656,53256,5
28649,53248,4
28643,53248,5
28637,53242,5
28643,53242,5
28647,53247,5
28644,53237,4
28650,53244,5
28648,53247,5
28651,53252,5
28650,53247,5
28653,53269,4
28657,53280,5
28662,53273,5
28666,53290,5
28677,53295,4
28674,53300,4
28678,53304,6
28682,53312,4
28669,53311,5
28684,53302,4
28676,53312,5
28683,53316,5
28690,53324,5
28692,53327,5
28700,53338,4
28699,53346,5
28704,53362,5
28708,53374,5
28713,53375,5
28712,53370,4
28712,53372,5
28724,53375,5
28724,53384,5
28725,53385,5
28721,53388,4
28727,53387,5
28716,53393,5
28722,53403,5
28729,53397,5
28725,53405,4
28734,53410,5
28733,53423,6
28747,53432,4
28743,53434,4
28745,53444,5
28748,53445,5
28746,53452,5
28750,53447,5
28756,53466,4
28760,53467,5
28765,53469,5
28757,53482,5
28769,53485,5
28766,53490,4
28771,53501,5
28782,53508,5
28783,53499,5
28784,53503,5
28780,53504,4
28778,53505,5
28785,53505,5
28780,53504,5
28782,53504,5
28778,53510,4
28786,53511,5
28782,53508,5
28787,53510,6
28789,53516,3
28801,53536,4
28799,53533,5
28801,53540,5
28810,53558,5
28812,53562,4
28814,53570,5
28808,53578,5
28823,53574,5
28819,53587,5
28830,53600,4
28824,53611,5
28843,53621,5
28844,53629,5
28852,53644,5
28855,53663,4
28860,53669,5
28872,53687,5
28875,53698,5
28890,53703,5
28891,53716,5
28904,53724,4
28897,53736,5
28908,53740,5
28900,53727,6
28905,53728,3
28913,53740,5
28916,53744,5
28919,53747,5
28916,53747,4
28914,53753,5
28923,53763,5
28919,53761,5
28913,53750,5
28915,53751,4
28918,53753,5
28918,53761,5
28910,53758,5
28917,53764,5
28919,53753,4
28920,53767,5
28924,53776,5
28927,53789,5
28931,53778,5
28933,53793,4
28938,53804,6
28942,53796,4
28933,53804,5
28938,53810,5
28944,53814,4
28951,53818,5
28947,53838,5
28954,53835,5
28966,53847,4
28965,53857,5
28976,53891,5
28989,53880,5
28992,53898,5
28995,53905,4
29008,53946,5
29017,53940,5
29021,53945,5
29025,53950,5
29017,53961,4
29035,53960,5
29029,53968,5
29035,53961,5
29030,53980,5
29027,53966,4
29025,53969,5
29032,53967,6
29026,53973,4
29033,53973,5
29030,53977,4
29029,53980,5
29037,53974,5
29039,53984,5
29026,53987,4
29038,53992,5
29042,54007,5
29056,54016,5
29056,54008,5
29051,54030,4
29065,54026,5
29059,54029,5
29066,54033,5
29066,54033,5
29066,54031,4
29058,54043,5
29066,54036,5
29067,54035,5
29072,54039,5
29076,54047,4
29079,54060,5
29077,54059,5
29085,54076,6
29087,54073,4
29083,54081,4
29089,54083,5
29084,54076,5
29081,54076,5
29077,54074,4
29083,54068,4
29083,54068,5
29082,54064,5
29080,54054,5
29075,54062,4
29080,54047,5
29075,54054,5
29070,54049,5
29077,54049,5
29078,54057,4
29075,54047,5
29073,54061,5
29076,54057,5
29077,54065,5
29069,54055,5
29068,54058,4
29072,54061,5
29080,54059,5
29074,54061,5
29067,54054,4
29075,54056,5
29072,54056,5
29072,54044,5
29069,54048,4
29070,54045,4
29067,54039,5
29065,54043,5
29058,54027,5
29067,54032,4
29068,54028,5
29055,54039,5
29072,54046,5
29062,54051,5
29059,54038,4
29055,54032,5
29054,54026,5
29057,54017,5
29054,54024,5
29049,54018,4
29057,54027,6
29051,54018,4
29053,54018,5
29047,54024,5
29054,54010,4
29047,54011,5
29034,53989,5
29028,53976,5
29035,53986,5
29019,53976,4
29021,53958,5
29009,53960,5
29011,53946,5
29001,53934,4
29008,53945,5
28995,53937,5
29003,53933,5
29003,53932,5
28996,53926,4
29000,53921,5
28992,53928,5
28995,53917,5
28993,53907,5
29001,53909,4
28988,53907,5
28983,53902,6
28986,53893,4
28998,53883,5
28988,53893,4
28983,53898,5
28982,53896,5
28994,53889,5
28980,53883,5
28972,53874,4
28978,53873,5
28962,53861,5
28971,53875,5
28969,53868,4
28957,53857,5
28963,53852,5
28961,53859,5
28959,53858,5
28955,53858,4
28965,53844,6
28958,53864,4
28966,53854,5
28961,53859,5
28958,53834,4
28967,53854,5
28955,53857,5
28963,53851,5
28961,53843,5
28951,53842,4
28960,53842,5
28962,53838,5
28953,53857,5
28952,53833,5
28944,53829,4
28949,53836,5
28941,53840,5
28945,53832,5
28938,53828,4
28940,53817,4
28931,53828,5
28941,53811,5
28936,53810,5
28929,53809,4
28938,53805,5
28928,53803,5
28937,53802,5
28936,53801,5
28923,53799,5
28937,53795,4
28928,53800,5
28926,53799,5
28920,53793,5
28925,53793,4
28923,53784,5
28919,53780,5
28918,53769,5
28905,53773,5
28906,53754,4
28907,53758,5
28909,53765,5
28906,53757,5
28898,53751,4
28898,53734,4
28893,53726,5
28890,53723,5
28870,53703,5
28876,53704,4
28868,53687,5
28869,53685,5
28870,53674,5
28860,53677,5
28867,53675,4
28861,53665,6
28861,53669,4
28859,53669,5
28846,53660,5
28856,53661,4
28846,53661,5
28847,53648,5
28840,53643,5
28837,53637,5
28833,53633,4
28842,53619,5
28840,53623,5
28827,53612,5
28828,53611,5
28826,53614,4
28829,53614,5
28828,53610,5
28828,53610,5
28822,53611,4
28824,53604,5
28829,53601,5
28818,53601,5
28821,53598,5
28814,53587,4
28815,53593,5
28813,53581,5
28806,53585,5
28818,53578,5
28809,53572,4
28806,53565,5
28801,53560,5
28799,53557,5
28799,53561,5
28807,53552,4
28796,53556,5
28799,53548,5
28809,53548,5
28804,53568,5
28800,53546,4
28797,53554,5
28789,53555,5
28804,53549,5
28793,53546,5
28792,53546,4
28791,53545,5
28796,53557,5
28796,53546,6
28798,53546,3
28789,53544,5
28793,53541,5
28787,53536,5
28791,53542,5
28789,53541,4
28795,53545,5
28798,53539,5
28802,53545,5
28782,53545,5
28793,53552,4
28801,53548,5
28795,53560,5
28792,53554,5
28801,53558,5
28799,53549,4
28804,53549,5
28781,53545,5
28798,53548,5
28791,53552,4
28802,53544,5
28799,53542,4
28795,53547,5
28792,53536,5
28792,53545,6
28812,53543,3
28794,53533,5
28800,53542,5
28789,53549,5
28804,53541,4
28794,53542,5
28795,53554,5
28802,53555,5
28810,53552,5
28802,53558,4
28807,53551,5
28804,53558,5
28810,53556,5
28797,53562,5
28808,53565,4
28818,53571,5
28810,53562,5
28810,53577,5
28820,53588,4
28811,53582,4
28809,53563,6
28819,53588,4
28812,53587,5
28820,53591,4
28827,53584,7
28819,53586,3
28815,53588,5
28819,53602,5
28826,53605,4
28826,53603,5
28830,53599,5
28827,53606,5
28827,53621,5
28832,53616,4
28829,53611,5
28837,53615,5
28835,53625,5
28837,53614,5
28836,53623,4
28838,53623,5
28839,53626,5
28843,53613,5
28835,53620,5
28833,53613,4
28836,53620,5
28832,53621,6
28836,53621,4
28837,53622,4
28845,53628,5
28831,53621,5
28828,53624,5
28835,53616,5
28837,53606,4
28838,53612,5
28833,53618,5
28832,53610,5
28830,53611,5
28827,53609,4
28827,53611,5
28833,53596,5
28822,53601,5
28819,53598,5
28828,53596,4
28822,53595,5
28829,53585,5
28823,53595,5
28827,53597,5
28826,53598,4
28831,53603,5
28833,53603,5
28826,53611,6
28827,53607,3
28833,53612,5
28837,53606,5
28834,53602,5
28831,53598,5
28832,53598,4
28835,53605,5
28827,53611,5
28830,53597,5
28825,53595,5
28823,53590,4
28815,53586,5
28817,53574,5
28814,53572,5
28811,53583,5
28822,53592,4
28820,53587,5
28820,53596,5
28825,53599,5
28827,53602,5
28833,53605,5
28832,53604,4
28826,53608,5
28821,53604,5
28826,53607,6
28829,53618,3
28830,53608,5
28830,53615,5
28831,53622,5
28838,53638,4
28851,53655,5
28861,53663,5
28845,53653,5
28846,53643,5
28840,53630,4
28822,53611,5
28821,53614,5
28816,53583,10
28803,53565,9
28794,53550,5
28710,53375,8
28710,53375,5
28686,53292,5
28651,53216,8
28577,53124,5
28539,53048,5
28514,53007,5
28485,52945,8
28470,52927,5
28430,52852,5
28407,52826,8
28408,52797,5
28407,52773,5
28389,52776,5
28353,52695,8
28353,52695,5
28282,52666,5
28322,52660,8
28334,52671,5
28328,52661,5
28314,52642,8
28321,52625,5
28331,52638,5
28327,52647,5
28348,52667,8
28330,52664,5
28329,52653,5
28356,52699,8
28356,52699,5
28384,52727,5
28381,52752,5
28404,52802,8
28413,52799,5
28429,52824,5
28453,52859,8
28473,52880,5
28484,52897,5
28479,52916,5
28497,52942,8
28573,53074,9
28573,53074,8
28581,53093,5
28587,53102,5
28574,53131,8
28601,53154,5
28615,53175,5
28615,53187,5
28638,53216,8
28648,53220,5
28644,53237,5
28687,53312,8
28687,53312,5
28684,53299,5
28694,53314,5
28699,53312,8
28685,53332,5
28688,53319,5
28696,53308,8
28690,53334,5
28704,53337,5
28714,53321,5
28720,53335,8
28716,53352,5
28761,53439,5
28761,53439,8
28773,53456,5
28768,53459,5
28764,53458,8
28767,53472,5
28771,53462,5
28773,53496,5
28784,53454,8
28776,53423,5
28767,53446,5
28769,53451,8
28769,53451,5
28770,53446,5
28774,53462,5
28780,53449,8
28772,53458,5
28779,53455,5
28785,53478,8
28791,53476,5
28779,53487,5
28788,53478,8
28790,53501,5
28811,53516,5
28802,53513,5
28818,53550,8
28818,53550,5
28820,53548,5
28833,53565,8
28840,53563,5
28830,53571,5
28816,53567,5
28825,53560,8
28825,53561,5
28835,53566,5
28838,53571,8
28824,53555,5
28833,53557,5
28840,53583,8
28840,53583,5
28867,53600,5
28877,53593,5
28854,53601,8
28818,53590,5
28844,53585,5
28836,53580,8
28838,53581,5
28837,53579,5
28840,53582,5
28832,53574,8
28837,53577,5
28844,53588,5
28848,53597,8
28848,53597,5
28802,53590,5
28833,53591,6
28843,53599,0
28846,53595,3
28848,53593,5
28844,53602,5
28846,53595,5
28853,53594,4
28841,53594,5
28841,53591,5
28836,53600,5
28845,53593,5
28844,53592,4
28844,53607,5
28851,53596,5
28848,53598,5
28839,53592,4
28843,53583,4
28838,53583,5
28841,53582,5
28824,53585,5
28832,53578,4
28832,53582,5
28833,53576,5
28830,53580,5
28836,53589,5
28835,53580,5
28842,53578,4
28843,53575,5
28843,53580,5
28839,53575,5
28841,53581,4
28853,53578,5
28836,53579,5
28834,53566,5
28830,53572,8
28836,53570,1
28813,53568,5
28826,53569,5
28834,53566,5
28829,53571,5
28825,53563,4
28823,53552,5
28829,53553,5
28826,53544,5
28821,53546,4
28822,53546,5
28812,53533,5
28810,53518,5
28809,53531,5
28809,53534,4
28803,53524,6
28814,53505,4
28801,53521,5
28806,53530,5
28815,53529,4
28809,53528,5
28812,53528,5
28808,53528,5
28801,53534,5
28807,53532,4
28799,53516,5
28808,53501,5
28794,53504,5
28787,53513,5
28780,53489,4
28792,53489,5
28781,53485,5
28778,53496,5
28782,53481,4
28777,53485,4
28779,53474,5
28779,53494,5
28782,53488,5
28783,53483,4
28784,53483,5
28792,53489,5
28781,53494,5
28793,53491,5
28784,53484,4
28783,53480,5
28777,53480,5
28777,53477,5
28779,53477,5
28781,53469,4
28772,53473,5
28775,53462,5
28770,53465,5
28771,53465,5
28773,53463,4
28772,53461,5
28776,53469,5
28779,53458,5
28775,53469,5
28772,53464,4
28773,53457,5
28774,53464,5
28769,53457,6
28769,53458,3
28768,53459,5
28764,53452,5
28770,53451,5
28767,53466,5
28765,53450,4
28759,53453,5
28766,53449,5
28753,53448,5
28770,53453,5
28774,53447,4
28770,53454,5
28765,53451,5
28758,53442,5
28763,53449,5
28762,53443,4
28766,53445,5
28765,53445,5
28763,53443,5
28766,53445,4
28760,53442,5
28762,53430,4
28757,53437,5
28757,53436,5
28749,53426,6
28749,53430,3
28748,53416,5
28753,53417,5
28745,53414,5
28740,53404,4
28739,53406,5
28739,53407,5
28738,53406,5
28742,53406,5
28742,53398,4
28738,53399,5
28748,53406,5
28743,53408,5
28748,53409,5
28747,53410,4
28744,53399,5
28742,53394,5
28736,53409,5
28745,53408,5
28741,53411,4
28744,53401,6
28748,53403,4
28739,53401,5
28737,53403,4
28744,53406,7
28731,53403,3
28738,53395,5
28744,53406,5
28742,53392,4
28741,53402,5
28736,53407,5
28735,53406,5
28747,53402,5
28737,53402,4
28742,53398,5
28742,53404,5
28739,53396,5
28731,53394,5
28720,53398,4
28741,53391,5
28736,53391,5
28739,53390,5
28726,53391,5
28738,53396,4
28743,53401,5
28743,53400,6
28741,53391,4
28734,53405,4
28739,53395,5
28745,53401,5
28752,53392,5
28734,53392,5
28744,53397,4
28745,53405,5
28752,53403,5
28741,53404,5
28739,53402,5
28743,53399,4
28748,53402,5
28739,53395,5
28744,53393,5
28734,53392,5
28746,53394,4
28734,53395,5
28731,53385,5
28737,53390,5
28735,53379,5
28732,53386,4
28732,53382,5
28731,53391,5
28723,53381,6
28725,53387,3
28729,53382,4
28732,53383,5
28739,53377,5
28743,53392,5
28733,53384,4
28727,53386,5
28732,53381,5
28729,53377,5
28728,53381,5
28723,53371,4
28728,53382,5
28725,53367,5
28714,53356,5
28713,53355,5
28715,53376,4
28713,53350,5
28718,53359,5
28721,53353,5
28719,53368,5
28719,53361,5
28728,53377,4
28728,53368,5
28723,53371,5
28718,53371,6
28731,53369,3
28719,53363,5
28723,53370,5
28725,53361,5
28719,53373,4
28723,53374,5
28719,53367,5
28722,53361,5
28714,53367,5
28721,53367,4
28721,53367,5
28722,53361,5
28719,53367,5
28721,53364,5
28727,53367,4
28731,53376,5
28733,53371,5
28722,53371,5
28724,53382,5
28734,53375,4
28731,53379,6
28726,53374,4
28731,53364,5
28727,53371,4
28722,53366,4
28727,53377,5
28731,53379,5
28736,53369,5
28728,53387,4
28734,53385,5
28735,53401,5
28747,53402,5
28738,53401,5
28744,53403,4
28743,53401,5
28747,53401,5
28750,53419,5
28748,53413,5
28751,53404,4
28748,53401,5
28751,53407,5
28740,53422,5
28745,53407,5
28750,53416,4
28750,53403,5
28748,53405,6
28756,53414,4
28740,53412,5
28752,53413,4
28757,53411,5
28740,53416,5
28746,53415,5
28751,53415,4
28740,53415,5
28756,53414,5
28753,53422,5
28751,53417,5
28759,53420,4
28747,53416,5
28760,53425,5
28755,53424,5
28764,53437,5
28761,53430,4
28752,53426,5
28758,53428,5
28760,53432,5
28755,53423,5
28751,53424,4
28756,53423,5
28758,53420,5
28744,53415,6
28746,53412,4
28750,53415,4
28747,53418,5
28748,53417,5
28747,53419,5
28753,53411,4
28750,53415,4
28742,53418,5
28742,53411,5
28745,53411,5
28744,53406,4
28737,53405,5
28735,53396,5
28743,53399,5
28741,53397,5
28739,53404,4
28734,53403,5
28745,53408,5
28739,53400,5
28747,53402,5
28736,53407,5
28748,53416,4
28754,53417,5
28751,53417,5
28751,53408,5
28757,53422,4
28750,53425,5
28753,53419,5
28767,53414,5
28756,53414,4
28745,53415,4
28750,53410,5
28762,53414,5
28751,53411,5
28760,53412,4
28751,53408,5
28750,53420,5
28752,53426,5
28746,53423,5
28757,53425,4
28749,53421,5
28755,53427,5
28762,53430,5
28759,53434,5
28759,53420,4
28757,53434,6
28754,53431,4
28759,53434,5
28756,53424,5
28770,53434,4
28766,53437,5
28765,53431,5
28755,53429,5
28765,53441,5
28771,53433,4
28756,53431,5
28768,53446,5
28764,53436,5
28760,53431,4
28767,53436,5
28767,53456,5
28757,53435,5
28756,53439,5
28755,53447,4
28765,53452,5
28771,53436,5
28766,53445,5
28758,53442,5
28764,53445,4
28765,53449,5
28770,53448,6
28763,53448,4
28771,53451,5
28771,53456,4
28769,53450,5
28768,53446,5
28770,53452,5
28774,53452,5
28769,53447,4
28763,53439,5
28754,53437,5
28759,53443,5
28763,53437,4
28764,53444,4
28765,53439,5
28764,53441,5
28774,53456,5
28772,53454,4
28770,53451,5
28769,53458,5
28776,53470,5
28765,53457,5
28776,53454,4
28775,53458,5
28781,53468,5
28765,53464,5
28773,53466,5
28772,53469,4
28771,53462,5
28771,53478,5
28788,53475,5
28784,53468,5
28780,53486,4
28781,53480,5
28795,53486,5
28790,53494,5
28791,53507,4
28804,53508,4
28801,53504,5
28798,53510,5
28805,53514,5
28805,53507,4
28814,53510,5
28807,53531,5
28805,53523,5
28806,53539,5
28805,53530,5
28818,53534,4
28813,53530,5
28814,53537,5
28818,53545,5
28814,53547,4
28821,53554,5
28824,53564,5
28832,53572,5
28829,53578,5
28838,53586,4
28851,53590,5
28850,53610,5
28853,53624,5
28866,53635,5
28869,53634,4
28859,53632,5
28866,53645,5
28863,53650,5
28876,53650,4
28885,53658,5
28880,53656,5
28873,53665,5
28882,53668,5
28886,53671,4
28876,53677,6
28886,53675,4
28892,53680,5
28898,53694,5
28900,53697,4
28912,53709,5
28909,53722,5
28908,53725,5
28918,53727,5
28918,53738,4
28922,53740,5
28923,53746,5
28915,53745,5
28929,53750,5
28921,53745,4
28929,53748,5
28911,53752,5
28916,53746,5
28923,53748,4
28917,53737,4
28898,53725,5
28911,53724,5
28917,53730,6
28909,53727,3
28904,53733,5
28907,53732,6
28915,53731,4
28921,53730,5
28924,53729,4
28908,53737,5
28921,53732,5
28918,53734,5
28943,53738,5
28924,53727,4
28912,53745,5
28910,53726,5
28917,53723,5
28908,53724,5
28912,53720,4
28907,53715,5
28912,53725,5
28906,53725,5
28905,53723,5
28911,53726,4
28902,53713,5
28902,53716,5
28903,53716,5
28912,53721,3
28905,53707,5
28912,53726,5
28908,53723,5
28911,53717,5
28908,53701,4
28910,53708,5
28898,53717,5
28895,53707,5
28900,53714,5
28896,53706,4
28903,53704,5
28902,53719,5
28909,53720,5
28903,53705,5
28896,53707,4
28900,53712,5
28901,53720,5
28898,53714,5
28901,53709,5
28902,53706,5
28903,53710,4
28900,53704,5
28904,53708,5
28910,53706,6
28898,53703,3
28898,53705,5
28901,53703,5
28897,53699,5
28900,53709,4
28887,53693,5
28901,53693,5
28884,53705,5
28892,53684,5
28891,53693,4
28884,53690,5
28893,53680,5
28884,53695,5
28894,53687,5
28891,53682,4
28890,53677,5
28881,53677,5
28884,53677,5
28877,53673,5
28879,53666,4
28870,53665,6
28868,53675,4
28870,53666,5
28868,53658,5
28873,53651,6
28865,53655,3
28872,53657,5
28869,53652,5
28871,53634,4
28861,53639,5
28860,53643,5
28861,53627,5
28859,53622,5
28853,53619,4
28841,53618,5
28842,53602,5
28844,53604,5
28851,53602,5
28844,53611,4
28844,53610,5
28851,53613,5
28845,53617,5
28851,53612,5
28856,53616,4
28848,53617,5
28845,53611,6
28850,53607,4
28847,53602,5
28841,53601,4
28836,53597,5
28840,53586,5
28838,53588,5
28839,53590,4
28829,53591,5
28832,53585,5
28832,53591,5
28840,53584,5
28844,53599,4
28830,53590,5
28835,53585,5
28838,53601,5
28837,53599,5
28843,53600,4
28843,53594,5
28834,53586,5
28830,53587,5
28843,53573,5
28829,53574,4
28830,53562,5
28815,53559,5
28821,53555,6
28811,53545,4
28809,53554,4
28820,53555,5
28824,53559,5
28821,53549,5
28812,53559,4
