RED,IR,EKG,TIME
46104,92529,10
46103,92574,9
46122,92547,5
46118,92549,8
46117,92482,5
46100,92544,5
46102,92523,8
46040,92431,5
46040,92431,5
46044,92436,5
46031,92411,8
46006,92396,5
46008,92399,5
46027,92408,8
46037,92438,5
46058,92496,5
46108,92531,5
46113,92553,8
46110,92528,5
46080,92501,5
46153,92637,8
46153,92637,5
46153,92636,5
46175,92667,8
46194,92722,5
46226,92771,5
46217,92753,5
46189,92697,8
46149,92663,5
46113,92590,5
46103,92560,8
46101,92603,5
46147,92688,5
46193,92733,5
46272,92891,8
46272,92891,5
46322,92881,5
46291,92890,8
46257,92895,5
46249,92811,5
46222,92777,8
46244,92838,5
46274,92890,5
46301,92952,5
46334,92985,8
46304,92911,5
46255,92841,5
46352,93022,8
46352,93022,5
46323,93030,5
46329,92993,5
46336,92997,8
46346,93007,5
46360,93036,5
46371,93048,8
46395,93078,5
46404,93118,5
46438,93138,8
46448,93167,5
46438,93166,5
46454,93169,5
46451,93171,8
46451,93171,5
46443,93174,5
46448,93164,8
46427,93149,5
46434,93119,5
46414,93111,5
46429,93106,8
46418,93079,5
46372,93059,5
46355,93025,8
46348,92995,5
46334,92966,5
46313,92927,5
46231,92832,8
46231,92832,5
46241,92775,5
46228,92804,8
46237,92828,5
46220,92841,5
46220,92838,8
46221,92844,5
46262,92845,5
46235,92846,5
46282,92866,13
46282,92866,5
46277,92862,8
46257,92863,5
46277,92853,5
46256,92842,5
46244,92837,8
46258,92849,5
46304,92877,5
46313,92940,8
46313,92940,5
46335,92973,5
46341,92990,8
46388,93007,5
46372,93034,5
46378,93039,5
46398,93074,3
46404,93092,0
46423,93134,4
46436,93148,5
46449,93168,5
46450,93154,4
46462,93199,5
46469,93216,5
46491,93237,5
46502,93208,5
46507,93255,4
46511,93253,5
46510,93278,5
46515,93271,5
46532,93301,5
46537,93324,4
46553,93342,5
46562,93371,5
46563,93368,5
46578,93373,5
46578,93368,4
46575,93406,5
46566,93363,5
46566,93366,5
46575,93363,5
46566,93377,5
46553,93338,4
46544,93308,5
46527,93299,5
46514,93281,4
46514,93266,5
46496,93250,5
46493,93232,5
46486,93209,5
46477,93199,4
46469,93190,5
46463,93181,5
46447,93158,5
46441,93150,5
46443,93142,4
46439,93135,5
46436,93126,5
46436,93129,5
46435,93135,5
46436,93127,4
46436,93125,5
46433,93123,5
46427,93115,5
46426,93116,4
46426,93113,4
46430,93109,6
46430,93106,4
46422,93104,5
46423,93097,4
46410,93099,5
46414,93084,5
46409,93083,5
46404,93075,5
46402,93067,4
46397,93058,5
46400,93057,5
46390,93049,5
46387,93047,5
46383,93037,4
46380,93036,5
46382,93033,5
46373,93022,5
46366,93013,5
46365,93011,4
46357,93000,5
46348,92982,5
46336,92965,5
46325,92940,4
46306,92908,4
46292,92881,5
46273,92858,5
46265,92841,5
46246,92824,4
46243,92826,5
46235,92839,5
46284,92966,5
46372,93071,5
46383,93081,4
46404,93127,5
46413,93142,5
46424,93133,5
46415,93144,5
46424,93143,4
46414,93136,5
46424,93132,5
46425,93136,5
46422,93142,5
46433,93156,4
46423,93126,5
46414,93117,5
46396,93106,5
46380,93089,5
46382,93080,4
46362,93048,5
46355,93035,5
46348,93046,5
46347,93042,4
46358,93042,5
46349,93044,5
46348,93046,5
46358,93046,5
46361,93055,4
46363,93071,5
46378,93068,5
46379,93095,5
46393,93105,5
46398,93123,4
46414,93121,5
46415,93145,5
46432,93170,5
46440,93179,5
46452,93193,4
46466,93206,5
46456,93228,5
46482,93240,5
46483,93264,4
46497,93275,5
46472,93291,4
46504,93291,5
46513,93299,5
46526,93312,4
46496,93325,5
46538,93335,5
46549,93333,5
46548,93354,5
46555,93352,4
46552,93359,5
46557,93355,5
46548,93356,5
46583,93353,5
46542,93347,4
46537,93342,5
46534,93346,5
46577,93343,5
46535,93328,5
46522,93321,4
46525,93306,5
46540,93312,6
46516,93300,4
46510,93301,4
46503,93304,4
46506,93288,5
46504,93290,5
46503,93289,5
46496,93293,4
46500,93276,5
46509,93293,5
46513,93304,5
46521,93305,5
46524,93287,4
46523,93327,5
46526,93335,5
46526,93342,5
46545,93320,5
46550,93371,4
46552,93373,5
46551,93378,5
46563,93404,5
46568,93386,5
46575,93395,4
46581,93418,5
46590,93454,5
46589,93427,6
46585,93430,3
46588,93431,4
46590,93474,5
46586,93444,5
46594,93453,5
46604,93454,4
46598,93467,5
46603,93460,5
46604,93464,5
46615,93468,5
46611,93463,4
46611,93466,5
46607,93472,5
46610,93476,5
46612,93464,5
46610,93460,4
46596,93457,5
46601,93453,5
46607,93450,5
46599,93441,5
46598,93445,5
46600,93455,4
46602,93441,5
46591,93440,5
46595,93436,6
46596,93442,3
46592,93428,5
46586,93440,5
46586,93428,5
46577,93421,4
46579,93420,5
46575,93403,5
46562,93390,5
46557,93359,5
46537,93339,4
46518,93330,5
46499,93309,5
46488,93289,5
46479,93280,5
46479,93261,4
46465,93263,5
46462,93256,5
46469,93262,5
46485,93270,5
46477,93271,4
46483,93278,6
46490,93276,4
46489,93292,5
46489,93303,4
46506,93311,5
46508,93317,5
46503,93316,5
46506,93320,5
46506,93311,4
46505,93303,5
46482,93283,5
46470,93255,5
46460,93239,5
46447,93215,4
46435,93201,5
46419,93187,5
46423,93182,5
46425,93182,5
46423,93182,4
46427,93188,5
46434,93202,5
46435,93222,5
46452,93226,5
46464,93252,4
46479,93261,5
46491,93291,6
46499,93301,4
46506,93310,4
46524,93338,5
46533,93358,5
46540,93380,5
46555,93397,5
46579,93416,4
46587,93440,5
46595,93473,5
46617,93474,5
46630,93497,5
46628,93511,4
46635,93515,5
46646,93524,5
46645,93533,5
46646,93540,5
46664,93551,4
46668,93571,5
46684,93579,5
46689,93585,5
46698,93598,5
46695,93598,4
46690,93589,5
46694,93580,5
46679,93583,6
46678,93583,3
46681,93583,5
46678,93580,5
46646,93570,5
46669,93573,5
46670,93570,4
46667,93560,5
46637,93552,5
46665,93545,5
46662,93549,5
46659,93555,4
46652,93565,5
46664,93557,5
46660,93550,5
46654,93556,5
46686,93559,4
46663,93556,5
46666,93561,5
46657,93565,5
46703,93570,4
46672,93574,5
46682,93594,4
46686,93602,5
46717,93617,5
46692,93627,4
46707,93627,5
46713,93643,5
46731,93641,5
46713,93659,5
46725,93664,4
46725,93661,5
46733,93661,5
46737,93673,5
46742,93683,5
46735,93668,4
46729,93643,5
46734,93666,5
46727,93665,5
46727,93656,5
46710,93607,4
46706,93630,5
46700,93610,5
46688,93601,5
46674,93579,4
46655,93558,4
46648,93542,6
46639,93523,4
46626,93544,5
46618,93501,4
46614,93491,5
46612,93483,5
46620,93515,5
46608,93479,5
46611,93482,4
46604,93478,5
46612,93508,5
46613,93488,5
46613,93495,5
46614,93491,4
46621,93498,5
46615,93497,5
46609,93487,5
46602,93470,5
46598,93443,4
46577,93426,5
46560,93412,5
46548,93370,5
46529,93351,4
46528,93341,4
46514,93325,5
46509,93324,6
46507,93330,4
46513,93326,4
46518,93337,5
46522,93353,5
46526,93365,5
46544,93379,5
46554,93388,4
46564,93401,5
46569,93412,5
46571,93430,5
46586,93446,5
46588,93461,4
46607,93473,5
46618,93486,5
46627,93503,5
46630,93513,5
46639,93522,4
46627,93524,5
46646,93534,5
46650,93533,5
46647,93546,5
46650,93546,4
46657,93547,5
46663,93551,5
46661,93553,5
46669,93553,4
46666,93559,5
46669,93560,5
46665,93559,5
46661,93562,5
46672,93555,4
46672,93564,5
46666,93556,5
46648,93547,5
46650,93536,5
46644,93521,4
46640,93503,5
46628,93494,5
46617,93485,5
46613,93479,5
46613,93473,4
46614,93482,5
46618,93481,5
46619,93492,5
46616,93490,4
46630,93499,5
46629,93508,4
46626,93504,5
46634,93510,5
46638,93511,4
46649,93523,5
46654,93530,5
46659,93554,5
46664,93550,5
46666,93570,4
46678,93578,5
46693,93590,5
46699,93605,5
46699,93613,5
46696,93606,4
46697,93616,5
46697,93628,5
46705,93622,5
46720,93624,6
46708,93621,3
46709,93616,5
46695,93602,5
46693,93591,5
46683,93577,4
46669,93569,4
46672,93557,6
46661,93544,4
46643,93526,5
46636,93530,4
46633,93517,5
46646,93523,5
46641,93533,5
46630,93533,5
46659,93545,4
46656,93547,5
46661,93558,5
46635,93571,5
46669,93570,5
46668,93567,4
46678,93571,5
46651,93564,5
46663,93545,5
46650,93530,5
46635,93505,4
46642,93483,5
46601,93452,5
46592,93426,5
46571,93410,4
46610,93412,5
46570,93400,5
46579,93419,5
46572,93412,5
46610,93407,4
46581,93429,5
46580,93441,5
46591,93448,5
46607,93461,5
46608,93459,4
46617,93470,5
46616,93472,5
46624,93481,5
46641,93500,5
46641,93514,4
46653,93523,5
46664,93517,5
46667,93551,5
46679,93564,5
46676,93570,4
46683,93545,5
46696,93581,5
46684,93583,5
46696,93599,5
46701,93571,4
46701,93592,5
46706,93591,5
46707,93600,5
46714,93618,4
46719,93610,5
46710,93597,5
46711,93589,5
46708,93626,5
46703,93586,4
46703,93570,5
46693,93563,5
46684,93590,5
46673,93543,5
46671,93540,4
46655,93509,5
46646,93514,5
46642,93491,5
46637,93486,5
46633,93473,4
46630,93474,5
46625,93465,5
46627,93460,5
46622,93455,4
46616,93447,6
46618,93440,4
46608,93443,5
46613,93438,5
46616,93435,4
46609,93437,5
46612,93438,5
46617,93444,5
46623,93444,5
46620,93450,4
46626,93447,5
46635,93456,5
46628,93457,5
46631,93460,5
46637,93458,4
46636,93458,5
46626,93459,5
46626,93435,5
46600,93430,5
46599,93426,4
46594,93392,5
46572,93389,5
46571,93363,4
46556,93329,4
46531,93326,5
46531,93301,5
46528,93305,5
46528,93309,5
46521,93304,4
46519,93292,5
46521,93294,5
46519,93292,5
46515,93301,5
46528,93307,4
46531,93308,5
46540,93318,5
46534,93312,5
46525,93298,5
46515,93275,4
46499,93260,5
46483,93221,5
46456,93191,5
46443,93183,5
46438,93157,4
46442,93156,5
46428,93151,5
46422,93138,6
46420,93128,3
46421,93132,5
46415,93133,5
46427,93148,5
46431,93151,5
46428,93151,4
46435,93148,5
46435,93160,5
46432,93164,5
46443,93165,5
46453,93167,4
46452,93184,5
46458,93194,5
46460,93193,5
46466,93193,5
46459,93208,4
46469,93209,5
46479,93216,5
46480,93221,5
46484,93225,5
46487,93223,5
46487,93238,4
46493,93234,5
46487,93252,5
46490,93242,6
46495,93257,3
46497,93253,5
46504,93255,5
46499,93242,5
46499,93248,4
46495,93242,5
46494,93232,5
46493,93224,5
46483,93223,5
46461,93225,4
46471,93211,5
46460,93183,5
46457,93176,5
46419,93170,5
46435,93158,4
46440,93151,5
46436,93150,5
46399,93140,5
46418,93138,5
46428,93137,4
46427,93136,6
46422,93130,4
46419,93138,5
46418,93145,4
46422,93138,5
46466,93157,5
46436,93160,5
46442,93161,5
46450,93177,4
46492,93188,5
46462,93188,5
46458,93195,5
46471,93205,5
46492,93211,4
46483,93227,5
46485,93234,5
46492,93254,5
46509,93257,5
46507,93259,4
46500,93260,5
46512,93261,5
46504,93251,5
46507,93257,5
46501,93254,4
46497,93236,5
46484,93200,6
46480,93204,4
46460,93193,4
46446,93158,5
46411,93089,5
46397,93102,5
46388,93073,5
46375,93058,4
46356,93046,5
46359,93030,5
46355,93033,5
46359,93051,5
46370,93086,4
46369,93072,5
46368,93070,5
46382,93079,5
46389,93134,5
46415,93098,4
46410,93112,5
46414,93125,5
46417,93151,5
46417,93128,5
46409,93124,4
46403,93105,5
46388,93098,5
46382,93072,6
46353,93047,3
46352,93033,5
46345,93023,5
46340,93025,5
46349,93027,5
46339,93024,4
46342,93026,5
46345,93020,5
46348,93022,5
46347,93040,5
46356,93039,4
46360,93062,5
46372,93056,5
46382,93078,5
46386,93084,5
46380,93085,4
46406,93092,5
46397,93110,5
46403,93118,5
46423,93136,5
46423,93137,5
46431,93154,4
46431,93155,5
46431,93161,5
46444,93169,6
46448,93175,3
46441,93172,5
46451,93192,5
46460,93195,5
46457,93191,4
46467,93190,5
46464,93201,5
46465,93200,5
46470,93215,5
46469,93216,4
46465,93213,5
46471,93221,5
46465,93204,5
46463,93217,5
46469,93208,4
46462,93209,5
46469,93204,5
46460,93203,5
46459,93189,5
46448,93185,4
46446,93177,6
46450,93171,4
46442,93174,5
46437,93164,4
46439,93164,5
46435,93162,5
46440,93155,5
46427,93154,5
46432,93144,4
46424,93143,5
46427,93152,5
46422,93146,5
46423,93153,5
46425,93160,4
46438,93171,5
46429,93173,5
46446,93179,5
46446,93174,5
46447,93177,4
46451,93181,5
46443,93187,5
46458,93194,5
46450,93202,4
46461,93203,4
46465,93210,5
46474,93216,6
46463,93208,4
46473,93221,4
46478,93224,5
46477,93214,5
46462,93223,5
46460,93213,5
46462,93207,4
46465,93204,5
46450,93181,5
46425,93163,5
46416,93135,5
46403,93118,4
46386,93104,5
46380,93083,5
46367,93076,5
46360,93044,5
46325,93037,4
46352,93037,5
46357,93040,5
46357,93056,5
46329,93060,5
46371,93074,4
46359,93076,5
46383,93080,5
46365,93090,5
46388,93109,4
46401,93122,5
46407,93127,5
46429,93131,5
46422,93144,5
46414,93135,4
46399,93123,5
46429,93104,5
46377,93089,5
46363,93062,5
46350,93054,4
46383,93060,5
46353,93057,5
46358,93058,5
46364,93062,5
46370,93049,4
46368,93062,5
46367,93066,5
46378,93080,5
46375,93079,4
46379,93094,5
46389,93110,4
46396,93117,5
46411,93110,5
46421,93155,4
46421,93161,5
46427,93173,5
46437,93157,5
46450,93199,5
46456,93209,4
46467,93220,5
46467,93222,5
46477,93246,5
46482,93262,5
46489,93260,4
46498,93296,5
46500,93283,5
46506,93284,5
46510,93296,5
46518,93362,4
46528,93337,5
46532,93334,5
46540,93332,5
46541,93377,4
46540,93340,4
46544,93341,6
46534,93342,4
46544,93351,5
46535,93344,4
46541,93335,5
46544,93345,5
46532,93337,5
46530,93324,5
46533,93320,4
46522,93309,5
46524,93313,5
46516,93309,5
46518,93310,5
46508,93295,4
46513,93296,5
46510,93298,5
46509,93297,5
46510,93285,5
46505,93289,4
46493,93290,5
46508,93292,5
46503,93295,5
46509,93297,4
46517,93301,4
46517,93309,5
46519,93314,6
46525,93311,4
46521,93325,4
46526,93317,5
46525,93324,5
46527,93330,5
46532,93330,5
46519,93326,4
46529,93329,5
46526,93335,5
46528,93330,5
46536,93341,5
46527,93330,4
46521,93335,5
46526,93333,5
46517,93330,5
46521,93322,5
46519,93319,4
46510,93313,5
46500,93313,5
46505,93302,5
46505,93295,5
46503,93288,4
46500,93286,5
46491,93270,5
46473,93261,5
46474,93251,4
46469,93255,5
46467,93233,5
46460,93228,5
46446,93222,9
46450,93221,0
46445,93183,5
46433,93187,5
46412,93177,5
46395,93151,5
46379,93117,4
46366,93105,5
46347,93084,5
46342,93061,5
46340,93070,5
46348,93080,4
46357,93081,5
46353,93100,5
46368,93112,5
46354,93098,4
46331,93069,6
46332,93091,4
46341,93090,5
46338,93092,5
46338,93089,4
46343,93102,5
46345,93098,5
46342,93103,5
46351,93101,5
46340,93089,4
46336,93078,5
46318,93062,5
46314,93043,5
46308,93020,5
46280,93004,4
46292,92996,5
46287,93011,5
46282,93006,5
46280,93006,5
46293,93007,4
46269,93009,5
46292,93021,5
46290,93024,5
46307,93027,4
46280,93047,5
46311,93055,6
46319,93074,4
46332,93080,5
46307,93106,4
46356,93116,5
46354,93125,5
46370,93147,5
46387,93173,5
46394,93204,4
46402,93219,5
46421,93249,5
46463,93268,5
46457,93294,5
46469,93321,4
46486,93335,5
46533,93368,5
46505,93393,5
46525,93405,5
46521,93421,4
46554,93433,5
46544,93434,5
46544,93457,6
46553,93465,3
46555,93457,5
46540,93444,5
46544,93455,5
46546,93478,5
46556,93451,4
46531,93427,5
46508,93391,5
46492,93380,5
46484,93355,5
46479,93380,4
46489,93397,5
46491,93429,5
46472,93347,5
46426,93324,5
46408,93329,4
46430,93361,5
46442,93390,5
46461,93433,5
46485,93482,5
46487,93477,5
46471,93507,4
46478,93487,5
46502,93514,5
46521,93557,6
46520,93574,3
46471,93469,5
46447,93432,5
46451,93466,5
46476,93540,4
46515,93580,5
46508,93591,5
46504,93577,5
46508,93592,5
46504,93603,4
46530,93643,5
46531,93627,5
46481,93551,5
46404,93412,5
46331,93334,4
46351,93396,5
46405,93521,5
46457,93578,5
46420,93472,5
46285,93249,4
46164,93071,6
46102,93005,4
46139,93105,5
46268,93364,4
46398,93517,7
46297,93279,3
46086,92959,5
46009,92911,5
46023,92924,4
46056,93068,5
46196,93284,5
46306,93458,5
46378,93570,5
46407,93588,4
46341,93459,5
46281,93406,5
46306,93446,5
46328,93466,5
46341,93486,4
46359,93550,5
46396,93599,5
46448,93706,5
46487,93741,5
46438,93634,4
46357,93531,5
46338,93520,6
46315,93493,4
46299,93484,4
46315,93507,5
46300,93493,5
46284,93469,5
46239,93376,5
46182,93314,4
46177,93311,5
46137,93241,5
46167,93337,5
46247,93479,5
46341,93590,4
46284,93447,5
46180,93275,5
46116,93232,5
46154,93333,5
46259,93511,4
46416,93761,5
46455,93737,5
46322,93518,5
46242,93425,5
46255,93467,4
46311,93559,5
46358,93633,5
46361,93615,6
46315,93552,3
46306,93546,5
46341,93631,5
46447,93809,5
46532,93927,5
46543,93929,4
46575,94019,5
46654,94145,5
46644,94096,5
46522,93864,5
46342,93542,4
46211,93372,5
46211,93435,5
46281,93553,5
46343,93653,5
46356,93631,4
46336,93609,5
46313,93589,5
46338,93677,5
46433,93812,4
46392,93697,5
46238,93454,4
46186,93415,5
46237,93520,5
46323,93683,6
46404,93789,3
46418,93842,5
46436,93836,5
46412,93766,5
46371,93719,4
46298,93636,5
46321,93659,5
46369,93747,5
46425,93834,5
46443,93926,4
46539,94062,5
46595,94098,5
46577,94072,5
46571,94030,5
46560,94076,4
46597,94140,5
46608,94132,5
46622,94105,5
46570,94076,4
46567,94097,4
46600,94169,6
46685,94217,4
46639,94202,5
46621,94196,4
46603,94128,5
46554,94048,5
46527,94042,5
46550,94076,5
46566,94099,4
46576,94133,5
46599,94172,5
46599,94144,5
46570,94101,5
46552,94047,4
46528,94009,5
46502,94001,5
46530,94071,5
46569,94083,5
46595,94145,4
46606,94169,5
46619,94177,5
46596,94128,5
46581,94129,4
46560,94090,4
46530,94026,5
46498,94009,6
46511,94014,4
46547,94064,4
46568,94113,5
46575,94156,5
46539,94042,5
46487,93973,5
46472,93962,4
46498,94040,5
46527,94074,5
46578,94129,5
46573,94120,5
46559,94095,4
46550,94079,5
46572,94157,5
46637,94258,5
46691,94342,5
46694,94310,4
46634,94207,5
46586,94131,5
46587,94148,5
46629,94218,5
46671,94311,4
46723,94378,5
46687,94277,5
46586,94128,6
46572,94117,3
46595,94203,5
46667,94295,5
46695,94340,5
46713,94389,5
46755,94435,4
46768,94459,5
46774,94461,5
46785,94489,5
46799,94525,5
46803,94517,4
46784,94495,5
46791,94485,5
46775,94489,5
46765,94456,5
46746,94423,4
46726,94385,5
46716,94365,5
46699,94347,5
46700,94357,4
46713,94380,5
46732,94418,4
46745,94456,5
46779,94494,5
46793,94518,4
46794,94492,5
46776,94465,5
46755,94442,5
46757,94442,5
46756,94454,4
46772,94486,5
46784,94509,5
46805,94535,5
46817,94545,5
46822,94556,4
46816,94553,5
46815,94550,5
46811,94527,5
46802,94514,5
46795,94498,4
46774,94485,5
46763,94478,5
46771,94466,5
46770,94457,4
46765,94450,4
46753,94450,6
46752,94436,4
46742,94422,5
46739,94414,4
46735,94409,5
46726,94404,5
46729,94405,5
46725,94409,5
46734,94426,4
46729,94409,5
46727,94410,5
46729,94393,5
46714,94377,5
46694,94365,4
46685,94341,5
46667,94300,5
46651,94269,5
46641,94259,5
46637,94260,4
46636,94241,5
46625,94244,5
46630,94254,5
46635,94244,4
46633,94254,5
46634,94252,5
46635,94254,6
46642,94255,4
46645,94261,4
46658,94270,5
46655,94287,5
46654,94296,5
46675,94314,5
46681,94317,4
46686,94317,5
46659,94324,5
46682,94327,5
46693,94338,5
46692,94335,4
46663,94345,5
46700,94348,5
46698,94349,5
46696,94346,5
46698,94360,4
46705,94357,5
46708,94352,5
46709,94347,5
46723,94354,5
46696,94355,4
46696,94351,5
46698,94341,5
46729,94322,5
46680,94314,4
46671,94300,5
46658,94290,5
46678,94278,5
46649,94249,5
46638,94243,4
46626,94221,5
46616,94207,5
46595,94194,5
46598,94181,5
46593,94168,4
46586,94144,5
46571,94151,5
46563,94126,5
46561,94134,5
46549,94099,4
46546,94121,5
46542,94107,5
46534,94084,5
46538,94044,4
46525,94067,6
46517,94065,4
46519,94059,5
46510,94053,5
46512,94049,4
46502,94045,5
46505,94026,5
46490,94057,5
46483,94016,5
46483,93992,4
46471,93972,5
46453,94005,5
46449,93960,5
46449,93958,5
46448,93949,4
46441,93972,5
46445,93939,5
46443,93946,5
46436,93962,5
46445,93980,4
46456,93982,5
46457,93986,5
46458,93983,5
46451,93972,4
46448,93954,5
46432,93943,6
46427,93935,4
46413,93888,5
46388,93875,4
46381,93851,5
46373,93855,5
46369,93852,5
46367,93847,5
46372,93848,4
46363,93838,5
46370,93839,5
46361,93842,5
46361,93826,5
46364,93829,4
46359,93826,5
46366,93833,5
46361,93832,5
46368,93834,5
46368,93838,4
46370,93826,5
46371,93847,5
46373,93849,6
46371,93844,6
46373,93861,2
46387,93862,5
46381,93862,5
46384,93870,5
46392,93886,4
46393,93884,5
46385,93882,5
46392,93887,5
46398,93889,5
46391,93894,4
46393,93898,5
46401,93897,5
46400,93904,5
46409,93906,5
46408,93914,4
46403,93902,5
46405,93905,5
46399,93898,5
46391,93884,4
46387,93870,5
46365,93848,4
46362,93833,5
46350,93827,5
46343,93796,6
46338,93787,3
46318,93783,5
46327,93777,5
46304,93761,5
46298,93752,4
46283,93729,5
46285,93733,5
46279,93729,5
46268,93716,5
46269,93705,4
46271,93708,5
46269,93695,5
46262,93704,5
46262,93709,5
46267,93703,4
46269,93705,5
46269,93696,5
46266,93716,5
46266,93690,4
46261,93694,4
46244,93678,6
46238,93676,4
46233,93642,5
46213,93628,4
46194,93590,7
46173,93555,3
46162,93538,5
46150,93535,5
46149,93511,4
46138,93499,5
46135,93501,5
46134,93492,5
46133,93495,5
46141,93494,4
46134,93508,5
46156,93524,5
46134,93532,5
46167,93544,5
46167,93561,4
46165,93548,5
46134,93541,5
46155,93548,5
46153,93533,4
46134,93504,4
46102,93481,5
46126,93497,6
46125,93501,4
46125,93508,4
46146,93511,5
46125,93522,5
46129,93526,5
46133,93523,5
46171,93541,4
46151,93536,5
46160,93552,5
46160,93555,5
46201,93563,5
46170,93573,4
46170,93589,5
46185,93594,5
46198,93604,5
46197,93622,5
46207,93634,4
46210,93641,5
46215,93648,5
46218,93672,5
46227,93679,5
46224,93688,4
46250,93682,5
46252,93712,5
46266,93722,6
46272,93723,3
46271,93705,5
46282,93738,5
46279,93750,5
46293,93772,5
46295,93746,4
46299,93768,5
46304,93777,5
46293,93776,5
46291,93793,5
46295,93775,4
46294,93771,5
46291,93776,5
46281,93797,5
46293,93761,5
46282,93752,4
46273,93738,5
46272,93772,5
46268,93735,5
46258,93724,4
46259,93721,6
46259,93736,4
46251,93722,5
46243,93710,5
46251,93698,6
46245,93701,3
46238,93697,5
46241,93710,5
46236,93721,5
46251,93703,4
46248,93706,5
46251,93718,5
46257,93717,5
46253,93721,5
46259,93731,4
46258,93735,5
46268,93742,5
46273,93737,5
46270,93731,5
46270,93738,4
46263,93730,5
46259,93743,5
46261,93730,5
46250,93731,4
46255,93715,5
46235,93687,6
46222,93668,4
46189,93627,5
46178,93607,4
46160,93591,5
46156,93584,5
46150,93573,5
46133,93572,5
46142,93567,4
46141,93571,5
46130,93569,5
46136,93563,5
46133,93569,5
46143,93590,4
46156,93610,5
46163,93621,5
46178,93647,5
46192,93653,5
46195,93672,4
46209,93672,5
46201,93670,5
46197,93647,5
46184,93632,4
46172,93626,5
46152,93601,5
46139,93572,6
46150,93587,4
46148,93590,4
46146,93605,5
46158,93596,5
46152,93601,5
46157,93604,5
46167,93623,4
46166,93625,5
46170,93628,5
46185,93642,5
46183,93639,5
46185,93650,4
46190,93663,5
46197,93669,5
46205,93679,5
46213,93695,4
46216,93701,4
46223,93715,5
46238,93714,5
46241,93734,5
46257,93734,5
46253,93762,4
46261,93760,5
46259,93774,5
46272,93781,6
46270,93794,3
46282,93795,5
46285,93811,5
46298,93810,5
46298,93821,5
46310,93837,4
46301,93830,5
46306,93840,5
46310,93847,5
46312,93837,5
46313,93840,4
46321,93844,5
46318,93853,5
46319,93852,5
46302,93842,4
46323,93840,4
46313,93833,5
46319,93830,5
46283,93831,5
46313,93829,4
46307,93838,6
46302,93833,4
46263,93826,5
46300,93815,5
46304,93822,4
46291,93813,5
46291,93807,5
46285,93823,5
46301,93820,5
46303,93816,4
46323,93828,5
46305,93828,5
46315,93843,5
46315,93853,5
46358,93859,4
46324,93860,5
46331,93868,5
46328,93877,5
46351,93878,4
46330,93881,5
46331,93884,5
46341,93896,5
46357,93898,5
46357,93908,4
46354,93909,5
46354,93904,6
46346,93888,4
46344,93908,5
46346,93914,4
46350,93908,5
46355,93884,5
46360,93921,5
46348,93920,5
46356,93920,4
46348,93897,5
46359,93937,5
46364,93931,5
46360,93928,5
46365,93949,4
46360,93938,5
46367,93939,5
46356,93939,5
46367,93969,4
46354,93917,5
46332,93900,5
46316,93875,5
46305,93891,5
46288,93836,4
46278,93829,5
46277,93818,5
46279,93844,6
46279,93835,4
46290,93854,4
46300,93873,5
46316,93908,5
46338,93915,5
46347,93938,5
46353,93974,4
46373,93994,5
46397,94022,5
46410,94046,5
46414,94071,5
46431,94078,4
46424,94082,5
46408,94068,5
46405,94051,5
46393,94040,4
46378,94018,5
46374,93997,5
46372,94006,5
46373,93996,5
46373,94004,5
46365,93997,4
46371,93981,5
46356,93975,5
46364,93974,5
46367,93986,4
46375,93997,5
46377,93998,5
46379,94005,5
46385,94017,5
46378,94024,4
46398,94032,5
46400,94041,5
46403,94066,5
46414,94068,4
46419,94086,4
46433,94090,5
46442,94104,5
46441,94112,5
46442,94123,4
46455,94132,5
46452,94128,5
46451,94121,5
46454,94130,5
46460,94126,4
46452,94131,6
46463,94145,4
46471,94155,5
46469,94156,5
46473,94150,4
46480,94159,5
46477,94162,5
46480,94162,5
46472,94148,5
46470,94145,4
46465,94149,5
46469,94146,5
46458,94143,5
46470,94130,4
46460,94134,4
46448,94117,5
46446,94122,5
46450,94115,5
46443,94117,4
46433,94107,5
46433,94106,5
46432,94087,5
46429,94084,5
46412,94088,4
46425,94075,5
46409,94078,5
46415,94081,5
46414,94084,5
46424,94088,4
46418,94082,5
46414,94084,5
46412,94091,5
46430,94099,5
46416,94107,4
46432,94092,5
46435,94101,5
46426,94104,5
46427,94114,4
46433,94114,4
46439,94122,5
46433,94111,5
46434,94123,5
46433,94122,4
46423,94119,5
46442,94122,5
46437,94126,5
46434,94124,5
46402,94117,4
46427,94101,5
46413,94096,5
46416,94095,5
46373,94074,5
46402,94056,4
46380,94027,5
46370,94009,5
46340,93983,5
46329,93968,5
46324,93957,4
46310,93930,5
46316,93923,5
46290,93915,5
46270,93905,4
46275,93894,5
46303,93882,5
46267,93875,5
46255,93863,5
46256,93859,4
46288,93875,6
46267,93881,4
46271,93886,5
46274,93886,5
46287,93889,6
46265,93875,3
46249,93846,5
46244,93846,5
46232,93822,5
46215,93800,4
46204,93794,5
46211,93789,5
46209,93770,5
46210,93803,5
46209,93796,4
46200,93787,5
46209,93769,5
46213,93800,5
46219,93819,4
46230,93845,5
46241,93847,5
46245,93862,5
46257,93875,5
46267,93899,4
46282,93943,5
46301,93940,6
46314,93968,4
46324,93980,5
46335,94044,4
46350,94018,5
46361,94046,5
46370,94069,5
46395,94114,5
46397,94100,4
46404,94113,5
46428,94141,5
46432,94164,5
46448,94175,5
46462,94201,4
46471,94210,5
46474,94226,5
46482,94229,5
46490,94231,4
46499,94241,6
46497,94259,4
46497,94245,5
46497,94257,5
46504,94240,4
46496,94239,5
46484,94230,5
46490,94222,6
46481,94219,4
46482,94211,4
46483,94226,5
46481,94223,5
46483,94221,5
46479,94225,5
46487,94226,4
46488,94220,5
46481,94228,5
46479,94219,5
46487,94221,4
46487,94245,4
46493,94246,5
46498,94248,5
46501,94262,5
46510,94266,4
46506,94278,5
46525,94284,5
46532,94294,5
46544,94314,5
46550,94332,5
46555,94343,4
46561,94350,5
46570,94346,5
46568,94370,6
46586,94380,3
46585,94380,5
46589,94391,5
46591,94391,5
46589,94391,5
46586,94393,4
46584,94387,5
46584,94374,5
46576,94386,5
46578,94362,4
46568,94370,4
46575,94352,5
46563,94353,5
46552,94340,5
46557,94349,4
46562,94342,5
46561,94339,5
46545,94336,5
46543,94334,5
46538,94315,4
46535,94308,6
46524,94282,4
46513,94263,5
46497,94260,5
46491,94237,4
46486,94237,5
46477,94220,5
46470,94210,5
46460,94214,5
46474,94210,4
46468,94214,5
46469,94212,5
46466,94203,5
46472,94207,4
46470,94218,5
46473,94225,5
46481,94235,5
46480,94230,5
46470,94221,4
46481,94206,5
46464,94200,5
46457,94197,5
46433,94157,5
46421,94132,4
46419,94150,5
46411,94134,6
46429,94135,4
46417,94125,5
46413,94133,4
46398,94118,5
46420,94135,5
46417,94136,5
46429,94144,5
46409,94165,4
46450,94170,5
46450,94184,5
46457,94195,5
46441,94212,4
46479,94216,5
46490,94239,5
46492,94252,5
46517,94269,5
46526,94267,4
46522,94282,5
46525,94305,5
46567,94318,5
46549,94318,5
46554,94316,4
46560,94327,5
46586,94334,5
46572,94349,6
46569,94351,4
46574,94357,4
46589,94366,5
46583,94371,5
46583,94381,5
46580,94378,4
46577,94360,4
46578,94357,5
46571,94364,5
46568,94360,5
46570,94322,4
46561,94342,5
46552,94328,5
46556,94313,5
46539,94266,5
46533,94305,4
46535,94298,5
46538,94298,5
46534,94263,5
46529,94292,5
46529,94287,5
46527,94293,4
46527,94299,5
46526,94285,5
46522,94274,5
46521,94283,4
46529,94331,5
46532,94295,5
46543,94310,5
46538,94310,4
46541,94341,4
46551,94323,5
46562,94345,5
46564,94354,5
46567,94370,4
46577,94359,5
46584,94376,5
46580,94377,5
46596,94392,5
46598,94396,4
46595,94403,5
46609,94396,5
46596,94399,5
46592,94393,5
46593,94387,4
46586,94377,6
46586,94359,4
46565,94348,5
46559,94325,5
46544,94313,4
46533,94307,5
46532,94293,5
46527,94286,5
46523,94274,4
46524,94282,5
46517,94269,5
46516,94283,5
46523,94289,5
46513,94280,4
46520,94294,5
46536,94304,5
46539,94296,5
46533,94303,5
46526,94304,4
46527,94294,5
46521,94270,5
46507,94252,5
46497,94240,5
46482,94204,4
46451,94186,5
46445,94168,6
46449,94171,4
46444,94160,5
46450,94157,4
46446,94159,5
46444,94164,5
46443,94157,5
46454,94164,4
46448,94181,5
46457,94185,5
46465,94188,5
46479,94194,5
46480,94213,4
46482,94213,5
46487,94235,5
46498,94239,5
46497,94251,5
46513,94255,4
46510,94272,5
46525,94293,5
46534,94292,5
46542,94298,5
46537,94300,4
46539,94308,5
46553,94311,5
46555,94322,5
46555,94327,5
46561,94337,4
46558,94329,5
46560,94341,5
46570,94350,5
46561,94336,4
46564,94335,5
46555,94332,5
46563,94328,5
46552,94320,5
46550,94311,4
46547,94318,5
46537,94301,5
46529,94283,5
46520,94280,5
46518,94264,4
46513,94256,5
46509,94258,5
46502,94257,5
46504,94252,5
46503,94252,5
46507,94248,4
46500,94262,5
46504,94255,5
46505,94254,4
46512,94252,4
46518,94258,5
46481,94260,5
46514,94272,5
46520,94271,4
46515,94286,5
46497,94290,5
46537,94300,5
46529,94302,5
46533,94302,4
46505,94302,5
46546,94314,5
46548,94322,5
46554,94318,5
46544,94307,4
46535,94294,5
46524,94282,5
46524,94278,5
46548,94263,5
46496,94260,4
46497,94248,6
46483,94232,4
46523,94231,5
46480,94218,4
46473,94217,4
46474,94209,5
46484,94205,5
46466,94212,5
46471,94223,4
46471,94230,5
46493,94238,5
46491,94251,5
46476,94248,5
46466,94222,4
46463,94182,5
46442,94187,5
46440,94164,5
46422,94130,5
46387,94055,4
46377,94078,5
46368,94075,5
46364,94063,5
46359,94029,5
46359,94069,4
46359,94062,5
46346,94045,5
46348,94064,5
46348,94042,4
46350,94040,4
46343,94043,5
46348,94075,5
46342,94041,5
46352,94049,4
46352,94054,5
46356,94100,5
46361,94083,5
46370,94083,5
46386,94106,4
46393,94149,5
46404,94132,5
46403,94149,5
46405,94139,5
46397,94139,4
46400,94138,5
46414,94151,5
46403,94149,5
46381,94138,5
46396,94144,4
46397,94151,5
46394,94141,5
46388,94142,5
46393,94151,4
46402,94152,5
46407,94174,5
46411,94178,5
46409,94187,5
46418,94186,4
46420,94190,5
46420,94185,5
46411,94182,5
46406,94178,5
46420,94177,4
46411,94170,5
46404,94158,5
46390,94166,5
46393,94155,5
46391,94148,4
46385,94138,6
46369,94126,4
46366,94118,5
46368,94115,5
46377,94125,6
46365,94132,3
46369,94125,5
46365,94128,5
46368,94132,4
46381,94145,5
46395,94161,5
46402,94167,5
46407,94176,5
46407,94200,4
46420,94197,5
46428,94204,5
46417,94197,5
46414,94180,5
46402,94175,4
46399,94170,5
46382,94151,5
46358,94127,5
46352,94120,5
46338,94105,4
46337,94096,5
46340,94108,6
46348,94125,4
46361,94144,5
46371,94167,4
46386,94177,5
46388,94190,5
46384,94175,5
46380,94183,4
46384,94196,5
46389,94203,5
46397,94204,5
46371,94183,5
46366,94163,4
46362,94178,5
46386,94189,5
46378,94175,5
46365,94180,5
46368,94176,4
46370,94174,5
46373,94193,5
46377,94196,5
46388,94207,5
46384,94215,4
46396,94220,5
46405,94228,5
46410,94242,6
46415,94254,3
46426,94257,4
46424,94269,5
46436,94281,5
46443,94278,5
46442,94286,4
46445,94290,5
46437,94297,5
46446,94297,5
46437,94297,5
46454,94309,4
46456,94304,5
46455,94315,5
46435,94318,5
46466,94323,5
46463,94325,4
46477,94343,5
46453,94343,5
46481,94351,5
46482,94353,5
46480,94360,5
46487,94345,4
46482,94347,5
46480,94344,5
46483,94353,6
46514,94359,3
46480,94355,5
46481,94347,5
46474,94336,5
46505,94336,4
46466,94330,5
46462,94322,5
46458,94314,5
46477,94306,5
46451,94308,4
46450,94291,5
46438,94294,5
46451,94280,5
46444,94288,5
46435,94277,4
46433,94287,5
46434,94264,5
46438,94278,5
46436,94287,5
46438,94287,4
46434,94265,6
46447,94296,4
46444,94292,5
46451,94299,4
46462,94270,5
46451,94303,5
46451,94304,5
46441,94292,5
46431,94292,4
46435,94275,9
46414,94261,1
46386,94235,5
46388,94238,5
46372,94185,4
46360,94159,5
46347,94149,5
46346,94174,5
46330,94127,5
46326,94122,4
46321,94117,5
46312,94116,5
46300,94104,5
46319,94103,5
46319,94124,4
46328,94139,5
46339,94145,6
46343,94156,4
46355,94161,4
46347,94177,5
46364,94168,5
46352,94166,5
46346,94142,5
46343,94129,4
46324,94109,5
46312,94101,5
46316,94093,5
46314,94100,5
46314,94103,4
46308,94094,5
46307,94099,5
46311,94091,5
46326,94106,5
46323,94119,4
46323,94122,5
46342,94129,5
46337,94153,5
46351,94164,5
46352,94163,4
46360,94178,5
46368,94188,5
46373,94202,6
46376,94211,3
46392,94224,5
46390,94231,5
46402,94245,5
46416,94257,5
46421,94269,4
46421,94282,5
46427,94286,5
46438,94294,5
46430,94300,5
46439,94309,4
46447,94321,5
46449,94311,5
46461,94321,5
46457,94316,5
46458,94335,4
46454,94322,5
46460,94323,5
46448,94322,5
46455,94310,4
46440,94313,5
46444,94309,4
46444,94302,5
46437,94299,5
46437,94282,4
46434,94276,5
46410,94265,5
46411,94256,5
46400,94247,5
46403,94232,4
46395,94225,5
46395,94229,5
46385,94226,5
46388,94226,5
46381,94219,4
46387,94213,5
46377,94217,5
46386,94217,5
46388,94223,5
46391,94226,4
46393,94231,5
46397,94249,5
46404,94257,5
46413,94270,4
46418,94297,4
46427,94307,6
46448,94333,4
46470,94365,5
46464,94385,4
46479,94397,5
46496,94419,5
46510,94440,5
46515,94446,5
46515,94449,4
46510,94459,5
46519,94468,5
46518,94466,5
46528,94479,5
46514,94488,4
46529,94495,5
46538,94503,5
46539,94510,5
46515,94506,5
46541,94510,4
46538,94518,5
46537,94504,5
46503,94494,5
46529,94500,4
46525,94502,5
46526,94493,5
46509,94472,6
46504,94457,4
46491,94436,4
46469,94416,5
46485,94412,5
46468,94424,5
46475,94439,5
46473,94438,4
46510,94436,5
46471,94427,5
46466,94430,5
46466,94427,5
46495,94428,4
46480,94448,5
46479,94450,5
46493,94474,5
46518,94486,5
46509,94499,4
46516,94498,5
46522,94513,5
46512,94473,5
46502,94468,5
46495,94474,4
46484,94452,5
46460,94397,5
46473,94440,5
46485,94446,4
46490,94474,5
46502,94439,5
46501,94495,5
46505,94494,5
46519,94513,4
46526,94528,5
46540,94537,5
46540,94552,5
46553,94574,5
46569,94610,4
46572,94601,5
46586,94602,5
46593,94614,5
46585,94670,5
46605,94632,4
46606,94649,5
46619,94668,5
46624,94699,5
46621,94689,4
46626,94692,6
46642,94713,4
46646,94706,5
46638,94714,5
46644,94706,4
46649,94720,5
46644,94721,5
46640,94710,5
46645,94718,5
46652,94720,4
46647,94724,5
46659,94734,5
46665,94733,5
46663,94744,5
46664,94736,4
46657,94738,5
46657,94731,5
46657,94740,5
46654,94739,5
46663,94724,4
46646,94721,5
46644,94711,5
46644,94700,5
46635,94695,4
46629,94694,5
46624,94693,6
46617,94683,4
46620,94676,5
46626,94675,4
46612,94668,5
46619,94662,5
46603,94657,5
46613,94662,5
46615,94654,4
46608,94652,5
46604,94660,5
46612,94663,5
46612,94669,5
46616,94679,4
46610,94676,5
46618,94676,5
46608,94667,5
46621,94668,4
46624,94667,4
46610,94668,5
46613,94660,5
46605,94653,5
46603,94649,4
46607,94637,5
46594,94624,5
46584,94629,5
46590,94623,5
46583,94613,4
46585,94606,5
46576,94600,5
46575,94582,5
46563,94579,5
46558,94577,4
46555,94563,5
46554,94555,5
46542,94557,5
46531,94541,5
46536,94539,4
46529,94535,5
46525,94526,5
46517,94520,5
46511,94487,4
46495,94483,4
46479,94458,5
46478,94434,5
46448,94403,5
46434,94375,5
46406,94345,4
46395,94305,5
46373,94281,5
46364,94268,5
46352,94259,4
46346,94247,5
46339,94241,5
46350,94262,5
46362,94265,5
46367,94278,4
46369,94278,5
46367,94280,5
46379,94296,5
46383,94319,5
46389,94323,4
46388,94316,5
46388,94326,5
46394,94321,5
46383,94317,4
46357,94295,5
46371,94281,5
46351,94266,4
46339,94248,5
46296,94221,4
46323,94221,7
46318,94212,3
46332,94226,5
46315,94213,5
46322,94208,4
46323,94209,5
46321,94214,5
46348,94211,5
46333,94226,5
46337,94242,4
46343,94245,5
46387,94260,5
46354,94278,5
46361,94284,5
46373,94292,4
46412,94302,5
46390,94311,5
46388,94327,5
46396,94338,4
46421,94352,5
46406,94356,5
46413,94365,6
46414,94366,4
46426,94367,4
46428,94376,5
46432,94391,5
46436,94394,5
46437,94382,5
46450,94402,4
46449,94431,5
46462,94440,5
46463,94410,5
46475,94444,5
46468,94443,4
46465,94450,5
46464,94427,5
46465,94444,5
46465,94436,5
46454,94431,4
46458,94460,5
46444,94425,5
46446,94420,5
46444,94411,5
46434,94432,4
46433,94410,5
46430,94392,5
46421,94388,6
46421,94422,3
46421,94387,5
46418,94381,5
46418,94387,5
46413,94395,5
46422,94383,4
46424,94385,5
46425,94390,5
46417,94390,5
46418,94398,5
46425,94389,4
46427,94404,5
46435,94409,5
46437,94414,5
46436,94418,5
46440,94430,4
46443,94430,5
46431,94423,5
46446,94430,5
46444,94431,4
46444,94432,6
46445,94431,4
46442,94427,5
46453,94436,5
46440,94431,6
46454,94430,3
46450,94427,5
46442,94417,5
46438,94421,5
46438,94421,4
46440,94425,5
46440,94421,5
46431,94416,5
46438,94414,5
46438,94420,4
46431,94416,5
46440,94406,5
46430,94404,5
46430,94404,4
46419,94406,4
46419,94405,5
46420,94412,5
46418,94392,5
46416,94395,4
46419,94383,5
46424,94390,6
46420,94393,4
46414,94373,5
46398,94371,4
46399,94360,5
46384,94333,5
46367,94315,5
46350,94288,5
46337,94274,4
46328,94254,5
46308,94239,5
46304,94234,5
46300,94213,5
46294,94205,4
46300,94207,5
46304,94224,5
46312,94241,5
46318,94235,4
46314,94248,4
46320,94251,5
46323,94262,5
46338,94289,5
46337,94293,4
46347,94288,5
46345,94291,5
46341,94298,6
46344,94277,4
46321,94277,4
46325,94253,5
46312,94236,5
46299,94208,5
46297,94215,5
46297,94222,4
46305,94223,5
46299,94233,5
46311,94240,5
46307,94251,5
46316,94256,4
46324,94264,5
46326,94271,5
46338,94287,5
46352,94301,4
46368,94325,5
46365,94332,5
46375,94359,5
46399,94363,5
46403,94381,5
46420,94408,4
46415,94422,5
46433,94435,5
46451,94467,6
46463,94477,3
46434,94492,5
46485,94506,5
46495,94521,5
46500,94541,5
46487,94548,4
46525,94565,5
46525,94575,5
46525,94584,5
46551,94580,4
46533,94583,4
46544,94588,5
46541,94595,5
46559,94584,5
46534,94588,4
46529,94573,5
46521,94572,5
46555,94555,5
46525,94554,5
46507,94536,4
46504,94534,6
46507,94520,6
46493,94514,3
46492,94516,5
46487,94518,4
46493,94516,5
46488,94513,5
46498,94517,5
46488,94521,5
46491,94499,4
46494,94513,5
46496,94512,5
46489,94514,5
46486,94482,4
46500,94525,4
46503,94537,5
46506,94545,5
46507,94525,5
46512,94556,4
46510,94553,5
46518,94562,5
46518,94575,5
46521,94561,5
46529,94570,4
46528,94583,5
46532,94618,6
46539,94592,4
46542,94598,5
46543,94600,4
46547,94627,5
46532,94591,5
46537,94590,5
46531,94588,5
46532,94590,4
46521,94564,5
46516,94546,5
46504,94535,5
46500,94520,4
46492,94508,5
46480,94507,5
46471,94501,5
46470,94484,5
46467,94480,4
46464,94483,5
46471,94487,5
46471,94479,5
46459,94487,5
46464,94483,4
46473,94494,5
46478,94489,5
46472,94492,6
46465,94486,4
46458,94483,4
46449,94468,5
46443,94437,5
46431,94433,5
46420,94405,5
46406,94379,4
46396,94371,5
46398,94374,5
46390,94367,5
46391,94363,4
46381,94354,5
46390,94366,5
46382,94364,5
46394,94371,5
46402,94368,4
46401,94386,5
46412,94385,5
46407,94400,5
46414,94408,5
46424,94412,5
46433,94426,4
46435,94430,5
46439,94435,5
46443,94438,5
46446,94463,4
46452,94459,5
46452,94467,5
46458,94460,5
46462,94466,4
46454,94462,4
46441,94455,5
46450,94452,5
46446,94453,5
46445,94446,4
46436,94433,5
46440,94435,5
46445,94451,5
46442,94455,5
46438,94460,4
46443,94453,5
46433,94440,5
46427,94422,5
46405,94388,5
46387,94368,4
46383,94362,6
46360,94335,4
46359,94344,5
46357,94335,5
46358,94337,4
46356,94334,5
46359,94334,5
46345,94314,5
46345,94318,4
46329,94302,4
46326,94275,5
46304,94258,5
46292,94251,5
46304,94241,4
46291,94248,5
46310,94261,5
46295,94241,5
46281,94242,5
46274,94231,4
46281,94223,5
46304,94282,5
46341,94354,5
46368,94391,5
46379,94416,4
46395,94438,5
46388,94435,6
46354,94425,4
46361,94396,5
46352,94371,4
46326,94328,5
46277,94316,5
46303,94314,5
46269,94220,4
46132,94009,5
46002,93878,5
45996,93847,5
45994,93871,5
46025,93922,4
46049,93947,5
45985,93814,5
45877,93651,5
45819,93603,5
45866,93644,4
45878,93738,5
45954,93850,5
46017,93966,5
46049,93927,5
45970,93859,4
45929,93778,5
45886,93710,5
45885,93711,5
45834,93670,5
45807,93623,4
45798,93612,5
45788,93620,5
45787,93619,5
45771,93612,4
45767,93598,5
45716,93464,5
45637,93386,5
45642,93406,5
45665,93466,4
45696,93490,5
45685,93479,5
45648,93419,5
45614,93366,5
45603,93361,4
45653,93461,5
45702,93551,5
45713,93544,5
45676,93489,5
45598,93339,5
45540,93277,4
45550,93316,5
45609,93454,5
45656,93489,5
45664,93490,4
45656,93478,5
45644,93502,5
45641,93437,5
45640,93463,4
45625,93424,5
45582,93379,5
45562,93358,5
45576,93359,5
45581,93380,4
45606,93449,5
45653,93507,5
45684,93556,5
45656,93494,5
45624,93441,4
45603,93435,5
45615,93437,5
45621,93432,5
45610,93436,5
45598,93409,4
45569,93371,6
45568,93387,4
45581,93388,5
45592,93414,4
45618,93469,4
45645,93522,5
45669,93556,5
45681,93584,5
45707,93626,4
45728,93657,5
45755,93679,5
45775,93731,5
45802,93772,5
45813,93789,4
45832,93808,5
45837,93822,5
45837,93834,5
45851,93845,5
45867,93874,4
45884,93908,5
45911,93938,5
45930,93961,6
45943,93993,4
45957,93999,4
45974,94031,5
45981,94032,5
45988,94036,5
45974,94028,4
45972,94019,4
45969,94002,5
45967,94001,5
45975,94011,5
45975,94033,4
45976,94056,5
45999,94063,5
46012,94082,5
46025,94112,5
46045,94130,4
46050,94143,5
46056,94151,5
46051,94133,5
46039,94118,5
46023,94087,5
46013,94067,4
45994,94054,5
45974,94017,5
45967,94006,6
45964,94002,3
45963,93993,5
45963,93998,5
45969,93999,5
45960,93997,4
45966,94006,4
45958,94000,5
45965,94004,5
45963,93996,5
45960,94003,4
45967,94026,5
45979,94022,5
45979,94029,5
45986,94030,5
45981,94041,4
45987,94056,5
45997,94052,5
46005,94063,5
46005,94071,5
46006,94082,4
46016,94079,6
46020,94094,4
46024,94101,5
46023,94106,5
46027,94107,6
46035,94119,3
46049,94133,5
46048,94134,5
46025,94137,4
46050,94141,5
46045,94137,5
46050,94134,5
46016,94144,5
46040,94129,4
46024,94112,5
46024,94107,5
45993,94105,5
46013,94090,5
46003,94071,4
45998,94061,5
45996,94043,5
45975,94031,5
45959,94024,5
45960,94015,4
45991,94008,5
45952,93992,6
45936,93982,4
45932,93975,5
45971,93962,4
45918,93968,5
45932,93962,5
45929,93961,5
45933,93965,4
45919,93952,5
45923,93963,5
45932,93968,5
45938,93974,5
45937,93983,4
45943,93991,5
45935,93996,5
45939,93984,5
45951,94003,5
45948,94018,4
45961,94038,5
45968,94001,5
45973,94044,5
45977,94052,5
45981,94066,4
45979,94039,5
45989,94072,5
45984,94073,6
45978,94064,4
45986,94066,4
45974,94057,5
45957,94036,5
45958,94020,5
45937,94032,4
45911,93964,5
45897,93921,5
45874,93895,5
45847,93895,5
45836,93844,4
45821,93822,5
45809,93817,5
45822,93828,5
45826,93837,5
45839,93850,4
45824,93842,5
45835,93861,5
45834,93861,5
45839,93876,5
45853,93887,5
45862,93905,4
45870,93915,5
45874,93909,5
45878,93927,6
45873,93915,3
45863,93897,5
45852,93875,5
45836,93871,5
45824,93834,4
45811,93842,5
45819,93844,5
45821,93846,5
45824,93854,5
45818,93842,4
45820,93851,5
45830,93871,5
45841,93867,5
45840,93874,5
45846,93894,4
45857,93917,5
45860,93935,5
45887,93959,5
45903,93973,5
45922,94006,4
45922,94017,6
45932,94026,4
45934,94040,5
45959,94056,4
45946,94079,4
45964,94100,5
45978,94103,5
45988,94116,5
46010,94152,4
46017,94169,5
46030,94192,5
46037,94194,5
46033,94196,5
46033,94193,4
46031,94182,5
46022,94193,5
46022,94187,5
46028,94208,5
46031,94214,4
46056,94244,5
46056,94251,5
46068,94270,5
46070,94277,5
46073,94272,4
46075,94281,5
46082,94284,6
46076,94284,4
46071,94274,4
46070,94268,5
46061,94261,5
46056,94262,5
46062,94258,5
46056,94260,4
46058,94260,5
46052,94269,5
46061,94255,5
46068,94262,5
46069,94262,4
46055,94256,5
46062,94254,5
46047,94240,5
46047,94223,5
46047,94241,4
46051,94236,5
46047,94235,5
46051,94242,5
46044,94235,5
46047,94234,4
46051,94242,5
46054,94250,5
46058,94247,6
46051,94245,3
46062,94248,5
46052,94249,5
46062,94257,5
46064,94252,5
46054,94246,4
46035,94236,5
46053,94236,5
46030,94212,5
46030,94196,5
45996,94171,4
46004,94155,5
45994,94132,5
45971,94114,6
45925,94094,4
45943,94077,4
45937,94061,5
45927,94049,5
45934,94040,5
45923,94043,5
45916,94030,5
45918,94040,4
45952,94038,5
45929,94051,5
45938,94071,4
45939,94079,5
45982,94083,5
45962,94095,5
45960,94099,5
45971,94114,4
45985,94114,5
45970,94107,5
45962,94101,5
45954,94089,5
45945,94081,4
45938,94062,5
45938,94072,5
45940,94073,5
45946,94074,5
45955,94100,4
45969,94114,5
45954,94128,5
45986,94126,5
46002,94174,4
46009,94198,4
46028,94213,6
46030,94207,4
46049,94261,5
46068,94297,4
46081,94314,5
46094,94327,5
46101,94331,5
46100,94333,5
46109,94345,4
46114,94395,5
46118,94384,5
46128,94383,5
46126,94393,5
46139,94452,4
46156,94440,5
46165,94451,5
46176,94452,5
46177,94502,5
46189,94500,4
46194,94510,5
46200,94514,5
46210,94522,5
46221,94549,4
46225,94552,4
46211,94534,5
46218,94528,6
46220,94524,4
46210,94512,4
46211,94516,5
46209,94529,5
46220,94545,5
46237,94560,5
46235,94559,4
46232,94557,5
46229,94559,5
46230,94554,5
46220,94546,5
46217,94540,4
46216,94539,5
46213,94539,5
46213,94547,5
46210,94535,5
46214,94543,4
46220,94556,5
46223,94556,5
46228,94555,5
46212,94543,5
46213,94544,4
46203,94534,5
46210,94532,5
46205,94524,5
46219,94551,4
46215,94546,5
46215,94546,5
46218,94554,5
46219,94552,5
46223,94560,4
46222,94554,5
46212,94559,5
46227,94562,5
46229,94548,5
46218,94546,4
46217,94536,5
46208,94533,5
46219,94520,5
46217,94530,5
46216,94517,4
46198,94506,5
46198,94498,5
46188,94495,5
46187,94485,4
46182,94477,6
46180,94471,4
46173,94457,5
46162,94465,5
46172,94465,4
46160,94461,5
46160,94448,5
46147,94434,5
46151,94439,5
46143,94428,4
46131,94421,5
46130,94413,5
46124,94405,5
46119,94395,5
46094,94376,4
46089,94350,5
46068,94324,5
46042,94279,5
46013,94239,5
45989,94219,4
45984,94189,5
45962,94171,5
45958,94158,5
45956,94158,4
45963,94167,5
45953,94163,6
45955,94168,4
45949,94171,5
45958,94184,4
45958,94179,5
45961,94185,5
45968,94183,5
45967,94191,5
45971,94192,4
45967,94193,5
45954,94197,5
45965,94187,5
45956,94172,5
45941,94151,4
45900,94131,5
45916,94114,5
45901,94096,5
45887,94091,4
45858,94087,4
45901,94085,5
45896,94086,5
45898,94080,6
45902,94087,3
45900,94090,5
45897,94096,5
45907,94102,5
45946,94101,5
45922,94127,4
45929,94136,5
45945,94139,5
45991,94164,5
45957,94178,5
45962,94180,4
45973,94205,5
45991,94209,5
45985,94230,5
46007,94235,5
46002,94236,4
46012,94263,5
46006,94273,5
46026,94280,5
46026,94280,4
46028,94268,5
46035,94282,4
46024,94291,5
46030,94298,5
46036,94273,6
46035,94306,3
46043,94308,5
46048,94302,5
46042,94281,5
46049,94316,4
46037,94306,5
46038,94295,5
46036,94299,5
46039,94288,5
46026,94288,4
46026,94280,5
46021,94298,5
46010,94249,5
46006,94248,5
45993,94237,4
45991,94274,5
45987,94234,5
45990,94235,5
45991,94224,4
45985,94225,5
45977,94215,6
45973,94221,4
45983,94212,5
45987,94227,4
45979,94216,7
45984,94219,3
45986,94219,5
45988,94222,5
45986,94229,4
45986,94233,5
45988,94222,5
45998,94242,5
46001,94231,5
45991,94245,4
45992,94244,5
45994,94247,5
45987,94245,5
45991,94245,5
45990,94246,4
45992,94233,5
45979,94238,5
45984,94233,5
45978,94220,4
45973,94223,5
45977,94217,5
45976,94215,6
45967,94203,4
45957,94200,4
45959,94201,5
45960,94199,5
45953,94195,5
45952,94172,5
45941,94173,4
45933,94176,5
45946,94169,5
45936,94168,5
45934,94157,5
45928,94167,4
45914,94144,5
45924,94138,5
45915,94142,5
45912,94134,5
45917,94146,4
45918,94131,5
45914,94131,5
45914,94138,5
45917,94134,5
45910,94132,4
45918,94141,5
45910,94140,5
45913,94140,6
45915,94146,3
45920,94140,5
45909,94145,5
45909,94145,5
45898,94137,5
45906,94128,4
45897,94131,5
45893,94124,5
45894,94120,5
45888,94104,5
45874,94104,4
45871,94071,5
45861,94051,5
45844,94036,5
45832,94015,4
45808,93993,4
45807,93999,5
45815,94011,5
45825,94018,5
45819,94014,4
45818,94013,6
45820,94019,4
45829,94036,5
45823,94028,5
45827,94035,6
45837,94034,3
45840,94041,5
45844,94066,5
45857,94075,5
45854,94071,4
45844,94062,5
45864,94068,5
45848,94052,5
45842,94037,5
45820,94024,4
45808,93997,5
45798,93974,5
45771,93956,5
45776,93946,4
45768,93943,4
45766,93935,5
45739,93938,5
45773,93939,5
45773,93950,4
45784,93955,5
45754,93958,6
45802,93983,4
45810,94006,5
45816,94010,4
45831,94035,5
45845,94051,5
45852,94056,5
45862,94083,5
45901,94089,4
45882,94107,5
45886,94123,5
45893,94133,5
45943,94159,5
45918,94168,4
45918,94183,5
45934,94196,5
45952,94197,5
45940,94212,4
45958,94221,4
45947,94221,5
45967,94228,5
45959,94227,5
45971,94250,4
45976,94248,5
45978,94233,5
45971,94249,6
45980,94255,4
45967,94256,4
45974,94220,5
45979,94246,5
45963,94239,5
45960,94242,5
45961,94203,4
45963,94224,5
45949,94219,5
45953,94224,5
45939,94212,5
45936,94204,4
45944,94206,5
45943,94205,5
45941,94224,5
45929,94198,4
45940,94207,4
45934,94199,5
45947,94245,5
45937,94200,5
45940,94211,5
45943,94206,4
45954,94242,5
45952,94222,5
45958,94236,6
45955,94226,3
45967,94251,5
45972,94257,5
45975,94257,5
45977,94262,5
45974,94254,4
45988,94270,5
45988,94265,5
45984,94269,5
45982,94271,5
45984,94261,4
45983,94265,5
45980,94263,5
45972,94254,5
45968,94249,4
45970,94249,5
45956,94230,5
45951,94213,5
45944,94209,5
45936,94192,4
45918,94173,6
45909,94158,4
45912,94149,5
45898,94145,5
45899,94143,4
45894,94120,5
45888,94106,5
45888,94102,5
45874,94114,5
45872,94108,4
45883,94116,5
45878,94126,5
45879,94119,5
45884,94128,5
45890,94133,4
45892,94134,5
45879,94119,5
45885,94120,5
45884,94114,4
45867,94104,5
45862,94071,5
45833,94054,5
45823,94037,5
45810,94006,4
45799,93982,5
45788,93967,6
45786,93965,4
45779,93957,5
45768,93942,4
45770,93947,5
45779,93957,5
45775,93957,5
45788,93964,5
45799,93979,4
45803,93992,5
45812,93996,5
45811,94025,5
45822,94037,5
45837,94042,4
45839,94048,5
45845,94068,5
45851,94077,5
45859,94089,4
45877,94096,5
45873,94101,5
45886,94119,5
45894,94125,5
45897,94134,4
45898,94146,5
45903,94148,5
45905,94148,6
45909,94165,4
45912,94164,4
45915,94164,5
45909,94166,5
45923,94165,8
45911,94165,2
45926,94163,4
45914,94149,5
45904,94151,5
45910,94149,5
45900,94133,5
45895,94124,4
45893,94123,5
45885,94112,5
45878,94104,5
45868,94098,4
45879,94093,5
45866,94102,5
45882,94095,5
45850,94104,5
45879,94115,5
45880,94110,4
45880,94117,5
45835,94120,5
45886,94120,5
45889,94120,4
45898,94145,5
45883,94147,5
45913,94149,5
45917,94174,5
45925,94174,4
45945,94195,5
45941,94208,5
45942,94217,5
45963,94235,5
45994,94244,4
45962,94261,5
45984,94271,5
45986,94287,5
46018,94286,4
46001,94294,5
45999,94306,5
46009,94304,5
46012,94316,5
46018,94323,4
46017,94332,6
46011,94326,4
46009,94320,5
46007,94321,5
46003,94318,4
45998,94301,5
45981,94252,5
45975,94272,5
45970,94250,5
45952,94241,4
45949,94202,5
45926,94230,5
45929,94224,5
45927,94211,4
45925,94195,4
45921,94212,5
45920,94206,5
45922,94215,5
45928,94234,4
45941,94229,5
45937,94239,5
45942,94258,5
45957,94308,5
45961,94263,4
45958,94271,5
45952,94262,6
45946,94285,4
45940,94244,5
45925,94214,4
45899,94181,5
45885,94172,5
45870,94151,5
45874,94145,5
45877,94139,4
45878,94163,5
45881,94160,5
45885,94183,5
45896,94186,4
45907,94225,4
45924,94239,5
45938,94269,5
45951,94285,5
45970,94324,4
46000,94350,5
46010,94377,5
46024,94397,5
46040,94425,5
46055,94438,4
46060,94461,5
46078,94476,5
46084,94482,5
46102,94497,5
46106,94519,4
46118,94536,5
46114,94542,5
46119,94543,5
46125,94538,5
46126,94543,4
46120,94550,5
46133,94551,5
46138,94559,5
46137,94563,4
46136,94576,4
46140,94563,5
46139,94562,5
46139,94553,5
46138,94549,4
46127,94545,6
46122,94533,4
46111,94523,5
46103,94511,5
46094,94502,6
46073,94470,3
46068,94460,5
46062,94439,5
46056,94430,5
46053,94435,4
46064,94419,5
46051,94426,5
46048,94415,5
46047,94413,5
46038,94416,4
46045,94411,5
46050,94419,5
46057,94414,5
46043,94427,4
46054,94424,4
46058,94429,5
46058,94433,5
46072,94445,5
46069,94443,4
46071,94441,5
46074,94444,6
46071,94440,4
46071,94438,5
46057,94444,4
46057,94422,7
46045,94399,3
46033,94392,5
46030,94377,5
46016,94362,4
46019,94360,5
46002,94328,5
45997,94327,5
45997,94307,5
45984,94307,4
45977,94307,5
45966,94302,5
45965,94291,5
45967,94297,4
45969,94301,4
45968,94311,5
45986,94314,5
45978,94311,5
45970,94302,4
45962,94283,5
45948,94256,5
45930,94238,6
45913,94208,4
45876,94171,4
45871,94152,5
45877,94141,5
45862,94121,5
45816,94116,5
45842,94113,4
45852,94095,5
45834,94100,5
45813,94093,5
45842,94093,5
45843,94090,4
45840,94090,5
45856,94090,5
45848,94104,5
45847,94108,4
45854,94120,5
45895,94119,5
45861,94133,5
45863,94126,5
45873,94147,5
45921,94156,4
45886,94158,5
45893,94170,5
45905,94175,6
45906,94176,3
45896,94179,5
45904,94178,5
45899,94180,5
45911,94186,5
45910,94192,4
45914,94180,5
45910,94197,5
45911,94175,5
45911,94198,5
45910,94183,4
45902,94182,5
45897,94148,5
45886,94171,5
45892,94171,4
45887,94163,5
45879,94126,5
45890,94144,5
45863,94127,5
45865,94114,4
45852,94127,6
45848,94103,4
45847,94106,5
45846,94089,5
45833,94140,6
45848,94097,3
45838,94089,5
45833,94081,5
45823,94102,5
45818,94076,4
45829,94077,5
45830,94084,5
45827,94098,5
45827,94087,5
45835,94102,4
45839,94100,5
45839,94103,5
45844,94116,5
45849,94103,4
45847,94110,5
45846,94119,5
45845,94113,5
45850,94112,5
45852,94122,4
45851,94117,5
45840,94110,6
45846,94115,4
45827,94100,5
45810,94066,4
45791,94040,5
45783,94012,5
45761,93986,5
45739,93975,5
45728,93953,4
45721,93950,5
45720,93942,5
45728,93946,5
45731,93963,4
45746,93986,4
45742,93983,5
45754,94003,5
45764,94008,5
45769,94024,4
45779,94042,5
45788,94048,5
45797,94068,5
45808,94079,5
45793,94072,4
45788,94048,5
45775,94037,5
45772,94011,6
45759,93997,4
45746,93990,4
45738,93985,5
45742,93993,5
45741,93969,5
45744,93977,5
45739,93967,4
45738,93962,5
45730,93981,5
45748,93984,5
45740,93982,4
45755,93999,4
45763,94001,5
45758,94009,5
45769,94019,5
45769,94031,4
45779,94029,5
45785,94046,5
45784,94050,5
45798,94048,5
45804,94065,5
45811,94067,4
45810,94089,5
45813,94086,5
45816,94091,6
45830,94100,3
45819,94109,5
45832,94111,5
45841,94114,5
45838,94124,5
45845,94134,4
45863,94143,5
45853,94145,5
45863,94163,5
45860,94167,4
45865,94164,4
45877,94171,5
45871,94161,5
45861,94164,5
45861,94149,4
45863,94153,5
45859,94148,5
45852,94146,5
45857,94133,5
45846,94130,4
45839,94132,6
45837,94130,4
45837,94110,5
45835,94104,5
45830,94105,4
45801,94103,5
45828,94096,5
45813,94090,5
45812,94085,5
45780,94083,4
45817,94093,5
45815,94088,5
45805,94088,5
45787,94086,4
45823,94092,5
45816,94097,5
45818,94092,5
45829,94102,5
45827,94112,4
45825,94106,5
45835,94106,5
45866,94122,5
45829,94121,5
45840,94127,4
45830,94127,5
45873,94126,6
45846,94124,4
45840,94129,5
45845,94126,4
45854,94120,5
45830,94111,5
45824,94100,5
45815,94086,5
45794,94049,4
45776,94023,5
45762,94008,5
45743,93979,5
45722,93943,4
45722,93940,5
45715,93938,5
45703,93933,5
45704,93892,5
45702,93925,4
45703,93939,5
45710,93936,5
45714,93911,5
45723,93940,5
45721,93958,4
45730,93963,5
45738,93991,5
45743,94001,6
45756,94005,4
45756,94009,4
45762,94057,5
45765,94019,5
45753,94006,5
45753,93994,5
45744,94028,4
45735,93987,5
45727,93967,5
45725,93969,5
45734,93995,4
45726,93993,5
45733,93989,5
45737,93992,5
45737,93991,5
45741,94000,4
45738,94013,5
45757,94028,5
45753,94023,5
45763,94037,5
45776,94047,5
45786,94059,4
45786,94074,5
45799,94090,5
45804,94099,5
45805,94121,4
45822,94127,5
45827,94141,5
45835,94157,5
45847,94159,4
45860,94190,4
45864,94192,5
45866,94198,5
45885,94203,5
45882,94222,4
45890,94229,5
45900,94233,5
45914,94258,5
45919,94275,5
45930,94281,4
45934,94300,5
45945,94312,5
45954,94313,5
45950,94323,5
45949,94324,4
45951,94326,6
45954,94331,4
45956,94336,5
45949,94344,5
45960,94342,4
45957,94336,5
45960,94347,5
45957,94343,5
45966,94351,4
45966,94348,4
45966,94350,5
45968,94349,5
45966,94357,5
45967,94357,4
45959,94353,5
45959,94351,5
45968,94352,5
45966,94361,5
45965,94358,4
45972,94364,5
45972,94367,5
45973,94372,5
45967,94377,6
45974,94368,3
45980,94372,5
45978,94368,5
45972,94378,5
45975,94385,5
45972,94375,4
45978,94393,5
45975,94391,5
45982,94404,5
45991,94398,4
45992,94424,4
46004,94419,5
45998,94428,5
46012,94443,5
46014,94440,4
46013,94448,5
46013,94448,5
46016,94458,5
46010,94457,5
46004,94446,4
46003,94438,5
45996,94419,5
45987,94412,5
45965,94393,5
45966,94381,4
45951,94367,5
45942,94368,5
45943,94351,5
45936,94358,5
45932,94361,4
45938,94371,5
45923,94379,5
45952,94374,5
45950,94372,4
45954,94384,5
45931,94393,5
45956,94384,5
45950,94384,5
45956,94397,4
45932,94396,5
45961,94401,5
45956,94404,5
45966,94394,5
45964,94391,4
45951,94368,5
45932,94360,4
45925,94340,5
45934,94315,5
45885,94293,5
45897,94298,3
45898,94298,5
45930,94296,5
45886,94282,5
45873,94280,4
45880,94276,5
45882,94275,5
45888,94289,5
45882,94285,4
45897,94292,5
45898,94293,5
45907,94306,5
45906,94318,5
45916,94334,4
45922,94334,5
45936,94358,5
45945,94380,5
45942,94387,5
45961,94369,4
45968,94412,5
45973,94430,6
45989,94432,4
45987,94404,5
45986,94448,4
45985,94447,5
45993,94456,5
45989,94469,5
45991,94465,5
45999,94473,4
46010,94489,5
46018,94518,5
46014,94484,5
46021,94485,4
46012,94487,5
46017,94518,5
46010,94485,5
46012,94492,5
46010,94487,4
46012,94505,5
46012,94482,5
46009,94486,5
46006,94477,5
45998,94475,4
45997,94461,5
46002,94468,5
45992,94454,6
45991,94458,4
45986,94453,4
45986,94429,5
45982,94446,5
45981,94436,5
45966,94435,4
45974,94425,4
45970,94439,5
45968,94428,5
45972,94427,5
45976,94441,4
45972,94444,5
45972,94449,5
45990,94444,5
45993,94458,5
45995,94462,4
45997,94469,5
46006,94486,5
46004,94484,5
46011,94489,5
46003,94492,5
46005,94490,4
46013,94503,5
46022,94502,5
46007,94505,6
46020,94510,3
46012,94501,5
46019,94517,5
46010,94507,5
46011,94504,4
45996,94495,4
46010,94494,5
46003,94498,5
46002,94484,5
45996,94481,4
45997,94477,5
46000,94482,5
45992,94481,5
45997,94471,5
45986,94474,4
45990,94470,5
45984,94456,5
45979,94446,5
45965,94413,5
45955,94411,4
45933,94393,6
45916,94363,4
45907,94363,5
45899,94352,5
45894,94339,4
45890,94329,5
45890,94330,5
45891,94330,5
45888,94328,4
45897,94345,4
45895,94348,5
45903,94348,5
45907,94351,5
45910,94352,4
45920,94361,5
45918,94372,5
45931,94385,5
45932,94380,5
45923,94375,4
45917,94371,5
45913,94363,5
45899,94349,5
45898,94329,5
45892,94323,4
45880,94306,5
45881,94315,6
45883,94316,4
45882,94321,5
45883,94311,4
45885,94316,5
45885,94315,5
45894,94341,5
45900,94351,4
45917,94360,5
45935,94371,5
45927,94389,5
45926,94408,5
45957,94420,4
45955,94439,5
45976,94449,5
45955,94455,5
45989,94480,5
45998,94482,4
46007,94501,5
45999,94510,5
46019,94533,5
46034,94540,5
46038,94546,4
46060,94560,5
46052,94567,5
46052,94576,6
46060,94578,4
46102,94575,4
46070,94591,5
46063,94582,5
46068,94583,5
46111,94595,4
46071,94587,5
46069,94582,5
46067,94584,5
46076,94571,5
46048,94571,4
46050,94559,5
46047,94549,5
46040,94531,5
46039,94521,5
46027,94505,4
46026,94509,5
46013,94477,5
46013,94500,5
46020,94505,5
46012,94501,5
46021,94484,4
46020,94509,5
46019,94498,5
46014,94501,5
46018,94478,4
46017,94503,5
46017,94516,5
46026,94520,5
46024,94525,4
46031,94531,5
46033,94538,5
46036,94540,5
46046,94579,5
46056,94550,4
46042,94546,5
46050,94537,5
46049,94585,5
46052,94550,5
46049,94553,4
46050,94549,5
46038,94559,5
46039,94551,5
46051,94544,5
46046,94534,4
46039,94522,6
46026,94510,4
46029,94513,5
46009,94493,4
46007,94480,4
45986,94451,5
45975,94433,5
45957,94410,5
45946,94396,4
45940,94373,5
45922,94357,5
45915,94348,5
45907,94342,5
45908,94340,4
45912,94332,5
45903,94327,5
45902,94324,5
45895,94324,5
45912,94334,4
45897,94329,5
45909,94344,5
45914,94344,5
45912,94353,5
45920,94346,4
45913,94339,5
45912,94335,6
45903,94325,4
45890,94299,4
45876,94282,5
45866,94257,5
45853,94240,5
45843,94222,5
45833,94214,4
45827,94214,5
45816,94204,5
45830,94202,5
45823,94194,5
45822,94212,4
45826,94205,5
45820,94212,5
45836,94228,5
45838,94232,5
45845,94239,4
45854,94250,5
45864,94268,5
45871,94283,5
45879,94281,5
45884,94298,4
45892,94318,5
45912,94325,5
45903,94331,5
45923,94346,4
45925,94350,5
45930,94363,5
45922,94368,5
45939,94375,5
45939,94380,4
45943,94384,5
45946,94384,5
45956,94397,5
45954,94384,5
45949,94396,4
45951,94394,5
45950,94395,5
45954,94391,5
45946,94401,5
45954,94385,4
45943,94387,5
45939,94377,5
45932,94370,5
45931,94363,4
45917,94351,5
45920,94351,4
45925,94346,5
45918,94335,5
45913,94352,4
45906,94335,5
45909,94339,5
45921,94345,5
45916,94347,5
45920,94351,4
45913,94342,5
45912,94344,5
45910,94346,5
45921,94348,5
45904,94361,4
45935,94365,5
45933,94379,5
45936,94385,5
45920,94394,5
45953,94403,4
45965,94413,5
45960,94420,5
45944,94427,5
45977,94444,4
45980,94434,4
45985,94445,6
45996,94457,4
45995,94473,5
45993,94471,4
45994,94461,5
46027,94463,5
45978,94445,5
45971,94438,5
45966,94413,4
45990,94400,5
45935,94386,5
45930,94364,5
45919,94350,5
45915,94336,4
45894,94317,5
45891,94329,5
45900,94340,5
45910,94347,5
45910,94367,4
45911,94365,5
45912,94378,5
45929,94356,5
45933,94392,4
45949,94408,5
45941,94412,5
45947,94387,5
45952,94419,5
45943,94414,4
45930,94395,5
45923,94349,5
45920,94372,5
45898,94349,5
45882,94316,4
45864,94310,5
45858,94296,5
45850,94286,5
45850,94287,5
45848,94323,4
45856,94285,5
45852,94283,5
45855,94290,5
45868,94350,5
45878,94328,4
45884,94342,5
45902,94363,5
45900,94383,5
45909,94370,5
45910,94385,4
45921,94387,5
45919,94394,5
45930,94402,5
45930,94428,4
45950,94456,5
45968,94472,5
45977,94487,5
45995,94508,5
46000,94542,4
46021,94567,5
46030,94558,5
46015,94540,5
46001,94524,5
45992,94515,4
45997,94527,5
46014,94550,5
46025,94560,5
46015,94537,4
45997,94525,4
46000,94525,5
45980,94510,4
45971,94497,5
45962,94459,4
45940,94422,6
45918,94421,3
45927,94431,5
45935,94449,5
45933,94439,4
45928,94416,5
45910,94420,5
45917,94412,5
45897,94377,5
45863,94331,4
45829,94283,5
45798,94235,5
45789,94251,5
45802,94282,9
45824,94297,0
45845,94310,5
45868,94368,5
45863,94360,5
45853,94341,4
45852,94344,4
45863,94361,5
45883,94376,6
45876,94384,4
45871,94364,4
45876,94368,5
45871,94370,5
45872,94370,5
45870,94369,5
45854,94366,4
45838,94325,5
45826,94295,5
45804,94287,5
45807,94293,5
45806,94301,4
45815,94302,5
45816,94289,5
45790,94251,5
45777,94242,5
45781,94251,4
45784,94260,5
45791,94287,5
45805,94288,5
45789,94268,5
45782,94273,4
45777,94260,5
45782,94261,5
45796,94278,6
45799,94289,3
45796,94303,5
45790,94269,5
45758,94236,5
45754,94210,5
45739,94185,4
45720,94175,5
45706,94167,5
45711,94169,5
45706,94179,5
45705,94167,4
45701,94154,5
45689,94139,5
45681,94149,5
45680,94143,5
45690,94149,4
45683,94148,5
45691,94140,5
45684,94133,5
45680,94145,4
45665,94156,6
45704,94180,4
45695,94170,5
45688,94144,5
45658,94161,6
45702,94185,3
45717,94212,5
45739,94242,5
45739,94204,5
45700,94167,4
45701,94163,5
45697,94177,5
45741,94194,5
45716,94200,5
45715,94182,4
45708,94182,5
45747,94188,5
45719,94226,5
45744,94238,4
45738,94229,4
45746,94223,5
45738,94238,5
45747,94260,5
45750,94271,4
45751,94266,5
45741,94262,6
45729,94236,4
45717,94218,5
45708,94194,4
45704,94231,5
45722,94252,5
45725,94256,5
45718,94209,5
45705,94224,4
45701,94206,5
45698,94224,5
45705,94203,5
45719,94250,5
45726,94253,4
45727,94255,5
45730,94276,5
45731,94267,5
45744,94277,4
45745,94292,4
45758,94334,5
45760,94312,5
45765,94317,5
45768,94324,4
45773,94350,5
45772,94324,5
45769,94321,6
45766,94330,4
45783,94340,4
45776,94330,5
45770,94323,5
45773,94332,5
45775,94335,5
45785,94344,4
45779,94346,5
45793,94339,5
45783,94349,5
45792,94354,5
45789,94351,4
45792,94349,5
45791,94346,5
45783,94336,5
45767,94326,4
45759,94289,5
45734,94263,5
45713,94228,5
45693,94202,5
45666,94182,5
45649,94147,4
45641,94133,5
45631,94115,5
45615,94092,6
45619,94097,3
45627,94117,5
45616,94110,5
45627,94114,5
45629,94119,5
45627,94126,4
45630,94124,5
45642,94151,5
45661,94163,5
45667,94171,5
45670,94182,4
45660,94173,5
45666,94183,5
45655,94160,5
45633,94134,4
45630,94130,5
45615,94107,5
45594,94080,5
45595,94073,5
45601,94073,4
45588,94075,6
45590,94081,4
45607,94069,5
45592,94079,5
45593,94080,4
45594,94088,5
45604,94093,5
45606,94116,5
45618,94113,5
45618,94131,4
45639,94135,5
45635,94142,5
45633,94164,5
45640,94165,4
45650,94178,4
45660,94196,5
45673,94194,5
45680,94209,5
45677,94225,4
45686,94221,5
45705,94237,5
45699,94246,5
45711,94255,5
45711,94271,4
45715,94264,5
45723,94269,6
45714,94290,4
45733,94283,5
45724,94296,4
45730,94295,5
45745,94310,5
45736,94307,5
45747,94312,5
45753,94315,4
45744,94327,5
45750,94317,5
45747,94310,5
45742,94322,4
45749,94307,5
45752,94305,5
45751,94306,5
45736,94305,5
45743,94300,4
45727,94302,5
45721,94291,5
45708,94292,5
45723,94288,5
45717,94281,4
45714,94277,5
45685,94270,5
45713,94269,6
45704,94264,4
45703,94260,4
45682,94262,5
45716,94275,5
45711,94276,5
45715,94269,4
45733,94272,4
45712,94283,5
45712,94274,5
45719,94276,5
45755,94290,4
45720,94287,5
45729,94290,5
45727,94291,5
45759,94290,5
45728,94299,4
45720,94294,5
45731,94291,5
45743,94299,5
45728,94290,5
45719,94281,5
45712,94289,4
45719,94279,5
45717,94278,5
45712,94281,5
45706,94273,4
45713,94242,5
45700,94263,5
45696,94249,5
45696,94247,4
45696,94219,4
45693,94255,5
45680,94243,5
45685,94240,5
45687,94219,4
45684,94234,5
45677,94229,5
45672,94222,5
45666,94227,5
45654,94187,4
45647,94174,5
45637,94144,5
45607,94162,5
45588,94090,5
45576,94061,4
45554,94031,6
45557,94053,4
45544,94027,5
45546,94033,5
45548,94035,4
45553,94056,5
45559,94048,5
45563,94063,5
45562,94051,4
45574,94061,5
45572,94076,5
45579,94088,5
45586,94094,5
45592,94099,4
45603,94105,5
45600,94117,5
45597,94120,5
45592,94107,5
45592,94095,4
45581,94076,5
45562,94054,5
45555,94046,5
45544,94034,5
45527,94008,4
45533,94008,5
45534,93998,6
45534,94004,4
45530,94000,5
45532,94008,4
45524,94009,5
45536,94005,5
45544,94021,5
45549,94040,4
45550,94046,5
45567,94065,5
45581,94078,5
45583,94087,5
45589,94102,4
45602,94118,5
45606,94123,5
45619,94137,5
45619,94148,5
45637,94171,4
45648,94186,5
45650,94198,5
45668,94211,5
45669,94217,5
45678,94234,4
45687,94249,5
45701,94269,5
45702,94276,5
45708,94284,4
45716,94307,4
45721,94312,5
45734,94318,5
45736,94316,5
45736,94328,4
45744,94332,5
45745,94331,5
45742,94325,5
45741,94319,5
45737,94323,4
45740,94318,5
45735,94331,5
45734,94308,5
45730,94321,5
45728,94318,4
45728,94306,5
45714,94308,5
45722,94305,5
45723,94305,5
45716,94295,5
45718,94303,4
45711,94291,5
45702,94290,5
45703,94290,4
45704,94286,4
45707,94282,5
45708,94279,5
45697,94278,5
45708,94283,4
45709,94285,5
45698,94288,5
45720,94286,5
45709,94285,5
45715,94286,4
45721,94302,5
45717,94295,5
45719,94298,5
45720,94290,5
45707,94294,4
45720,94301,5
45708,94295,5
45716,94285,5
45686,94291,5
45701,94274,4
45705,94267,6
45697,94272,4
45661,94253,5
45687,94254,4
45676,94247,5
45682,94228,5
45655,94233,5
45657,94232,5
45659,94224,4
45657,94208,5
45663,94191,5
45633,94192,5
45623,94171,5
45619,94160,4
45640,94157,5
45610,94139,5
45591,94127,5
45584,94110,5
45597,94089,4
45559,94072,5
45548,94049,5
45530,94029,6
45534,94009,4
45505,93988,4
45492,93975,5
45489,93975,5
45487,93967,5
45502,94004,4
45504,94003,5
45500,93998,5
45517,93987,5
45507,94008,5
45502,94008,4
45502,94010,5
45505,93962,5
45509,94005,5
45512,94011,5
45509,94022,4
45513,94003,5
45505,94007,5
45507,94018,5
45498,94008,5
45488,94011,5
45485,93984,4
45474,93967,5
45462,93948,5
45448,93962,6
45436,93928,3
45436,93919,5
45431,93910,5
45433,93939,5
45431,93908,4
45426,93918,5
45432,93923,5
45432,93930,5
45436,93943,5
45438,93942,4
45447,93943,5
45458,93956,5
45452,93973,5
45461,93981,5
45471,93985,4
45476,94005,5
45494,94025,5
45499,94043,5
45507,94059,5
45510,94077,4
45527,94098,6
45529,94103,4
45547,94119,5
45548,94145,4
45560,94155,7
45573,94170,3
45574,94171,5
45576,94189,5
45580,94200,4
45599,94204,8
45594,94227,2
45606,94230,5
45613,94252,5
45617,94248,4
45621,94256,5
45620,94280,5
45629,94268,5
45626,94280,5
45632,94282,4
45626,94279,5
45626,94282,5
45618,94270,5
45625,94277,4
45626,94294,4
45640,94314,5
45639,94328,6
45664,94350,4
45661,94349,4
45676,94372,5
45684,94396,5
45696,94407,5
45720,94444,5
45737,94472,4
45743,94496,5
45743,94489,5
45737,94490,5
45732,94475,5
45730,94473,4
45725,94463,5
45707,94433,5
45685,94415,5
45669,94406,5
45677,94410,4
45680,94425,5
45674,94442,5
45694,94489,5
45711,94502,5
45689,94499,4
45692,94517,5
45714,94534,5
45721,94557,6
45733,94588,3
45731,94592,5
45705,94534,5
45658,94494,5
45637,94471,5
45619,94451,4
45616,94440,5
45633,94461,5
45610,94425,5
45578,94394,5
45557,94377,4
45561,94413,5
45609,94483,5
45632,94522,5
45634,94511,5
45613,94487,4
45555,94409,5
45505,94388,5
45525,94441,5
45530,94423,4
45513,94417,6
45503,94425,4
45527,94441,5
45530,94490,5
45548,94503,6
45489,94465,3
45480,94430,5
45475,94409,5
45461,94388,5
45414,94392,4
45417,94337,5
45373,94279,5
45332,94238,5
45278,94204,5
45308,94237,4
45356,94307,5
45340,94265,5
45299,94194,5
45272,94198,5
45275,94219,4
45285,94216,5
45309,94217,5
45285,94225,5
45267,94202,4
45223,94136,5
45208,94077,6
45154,94057,4
45146,94045,5
45138,94052,4
45126,94018,5
45093,93999,5
45094,94034,5
45117,94056,5
45135,94092,4
45171,94154,5
45187,94163,5
45163,94142,5
45146,94090,5
45134,94102,4
45126,94085,5
45133,94090,5
45152,94107,5
45173,94181,4
45207,94238,4
45229,94275,5
45235,94279,5
45266,94331,5
45278,94368,4
45294,94369,5
45316,94438,5
45348,94476,6
45383,94536,4
45386,94533,4
45370,94561,5
45386,94530,5
45403,94562,5
45415,94585,5
45433,94621,4
45447,94611,5
45449,94633,5
45465,94667,5
45486,94711,5
45499,94713,4
45522,94752,5
45539,94781,5
45550,94798,5
45568,94803,4
45570,94811,4
45573,94818,5
45589,94837,5
45593,94849,5
45602,94862,5
45621,94871,4
45624,94888,5
45631,94897,5
45638,94903,5
45639,94903,4
45644,94906,5
45647,94915,5
45642,94927,5
45645,94919,5
45651,94937,4
45664,94933,5
45661,94940,5
45670,94951,5
45664,94958,5
45681,94959,4
45686,94962,5
45687,94965,5
45677,94955,5
45673,94949,4
45672,94940,5
45664,94930,5
45661,94927,5
45657,94923,5
45649,94916,4
45633,94893,6
45625,94871,4
45604,94832,5
45590,94823,5
45572,94798,4
45554,94788,5
45551,94760,5
45545,94752,5
45540,94731,5
45528,94737,4
45515,94712,5
45519,94710,5
45513,94714,5
45516,94710,5
45517,94705,4
45507,94689,5
45506,94692,5
45503,94692,5
45516,94690,4
45510,94700,5
45494,94681,5
45497,94668,5
45491,94653,5
45469,94637,4
45453,94611,5
45437,94586,6
45420,94570,4
45406,94549,5
45391,94529,4
45397,94530,5
45383,94531,5
45393,94521,5
45378,94516,5
45394,94518,4
45385,94526,5
45398,94536,5
45397,94540,5
45414,94556,4
45418,94563,4
45421,94580,5
45434,94595,5
45433,94584,5
45450,94611,4
45447,94625,5
45463,94636,5
45474,94644,5
45481,94665,5
45495,94673,4
45497,94685,5
45499,94692,5
45498,94698,5
45519,94704,5
45527,94716,4
45527,94720,5
45502,94721,5
45532,94727,5
45525,94725,5
45533,94722,4
45494,94720,5
45524,94730,5
45523,94725,5
45530,94731,4
45503,94718,5
45517,94709,5
45509,94697,5
45507,94688,5
45511,94681,4
45485,94665,5
45482,94657,5
45477,94644,5
45511,94645,5
45465,94634,5
45472,94640,4
45466,94630,5
45500,94633,5
45469,94634,5
45472,94642,4
45478,94649,5
45482,94655,5
45484,94656,5
45488,94670,5
45492,94682,4
45511,94701,5
45520,94730,5
45547,94763,5
45555,94766,4
45570,94765,5
45573,94802,5
45582,94817,5
45595,94833,5
45596,94807,4
45604,94846,5
45605,94865,5
45616,94864,5
45618,94855,5
45618,94872,4
45615,94864,6
45613,94861,4
45600,94866,5
45601,94840,5
45587,94830,4
45576,94817,5
45572,94835,5
45562,94794,5
45557,94780,5
45556,94783,4
45558,94813,5
45554,94782,5
45557,94781,5
45565,94789,4
45559,94792,5
45557,94787,5
45562,94795,5
45572,94800,5
45566,94789,4
45562,94777,5
45558,94768,5
45547,94762,5
45530,94731,5
45512,94707,4
45495,94664,5
45472,94642,5
45440,94600,5
45418,94578,5
45417,94553,4
45410,94548,5
45401,94540,5
45391,94536,5
45388,94531,4
45402,94530,4
45412,94551,5
45410,94552,5
45404,94558,5
45424,94567,4
45422,94580,5
45430,94593,5
45434,94603,5
45449,94601,5
45444,94621,4
45457,94625,5
45463,94634,5
45471,94646,5
45492,94658,5
45492,94670,3
45505,94682,5
45506,94703,5
45510,94709,5
45525,94731,5
45538,94746,4
45540,94758,5
45555,94771,5
45561,94780,5
45553,94771,4
45557,94782,4
45564,94789,5
45567,94772,5
45553,94772,5
45558,94765,4
45551,94766,5
45550,94745,5
45539,94747,5
45537,94743,5
45529,94727,4
45516,94713,6
45505,94705,4
45503,94695,5
45504,94682,5
45481,94677,6
45488,94658,3
45480,94645,5
45484,94646,5
45469,94647,5
45477,94645,4
45468,94630,5
45465,94635,5
45460,94634,5
45473,94625,4
45468,94636,5
45476,94630,5
45467,94624,5
45475,94645,5
45475,94636,4
45476,94628,5
45469,94624,5
45466,94617,5
45452,94613,5
45456,94607,4
45443,94593,5
45440,94581,6
45427,94553,4
45419,94538,5
45399,94526,4
45381,94514,5
45385,94503,5
45375,94485,5
45365,94469,5
45350,94465,4
45368,94464,5
45360,94454,5
45333,94461,5
45358,94470,4
45362,94481,5
45364,94484,5
45333,94478,5
45358,94479,5
45365,94473,4
45345,94460,5
45316,94430,5
45326,94412,5
45317,94389,5
45301,94365,4
45302,94344,5
45278,94341,5
45281,94329,6
45275,94336,4
45306,94325,4
45260,94318,5
45265,94325,5
45272,94331,5
45303,94333,4
45276,94344,4
45281,94352,5
45289,94362,5
45312,94370,5
45303,94379,4
45311,94402,5
45332,94407,5
45332,94411,5
45331,94426,5
45338,94438,4
45340,94443,5
45353,94430,5
45353,94461,5
45353,94458,5
45362,94469,5
45363,94436,4
45364,94469,5
45355,94475,5
45357,94469,6
45371,94456,3
45362,94473,5
45361,94465,5
45358,94473,5
45355,94486,4
45358,94460,4
45366,94470,5
45355,94459,5
45349,94491,5
45348,94451,4
45343,94452,5
45341,94452,5
45344,94473,5
45339,94436,5
45323,94427,4
45317,94413,5
45315,94417,5
45311,94394,5
45316,94386,5
45310,94392,4
45306,94372,6
45287,94365,5
45296,94361,4
45288,94373,5
45292,94363,4
45294,94376,5
45289,94373,5
45300,94381,5
45294,94383,4
45311,94380,5
45316,94395,5
45306,94407,5
45320,94405,5
45328,94423,4
45325,94423,5
45330,94431,5
45339,94428,5
45340,94451,5
45346,94441,4
45343,94444,5
45349,94446,5
45345,94450,5
45342,94446,5
45344,94441,4
45337,94421,5
45326,94402,6
45304,94370,4
45278,94344,5
45259,94301,4
45239,94281,5
45224,94267,5
45210,94248,5
45204,94232,4
45191,94217,5
45190,94216,5
45196,94224,5
45192,94229,5
45201,94228,4
45204,94236,5
45210,94256,5
45217,94272,5
45242,94284,5
45243,94313,4
45261,94321,5
45258,94326,5
45261,94328,5
45255,94310,5
45249,94292,4
45236,94292,5
45234,94283,5
45209,94248,6
45211,94229,3
45199,94234,4
45201,94234,5
45205,94226,5
45189,94230,5
45195,94228,4
45200,94225,5
45207,94239,5
45213,94241,5
45220,94256,5
45219,94259,4
45217,94269,5
45227,94273,5
45234,94281,5
45239,94288,5
45249,94286,4
45246,94307,5
45259,94315,5
45266,94325,5
45274,94334,5
45282,94338,5
45298,94341,4
45286,94355,5
45301,94361,5
45299,94367,4
45305,94362,5
45301,94369,5
45300,94376,5
45305,94370,5
45306,94394,4
45318,94398,5
45303,94398,5
45314,94403,5
45320,94400,5
45290,94395,4
45321,94399,5
45307,94397,5
45318,94393,5
45283,94392,5
45309,94394,4
45318,94390,5
45309,94377,5
45285,94369,5
45300,94358,5
45296,94361,4
45290,94358,6
45305,94356,4
45295,94350,5
45284,94358,4
45281,94340,5
45317,94335,5
45268,94339,5
45275,94323,5
45273,94328,4
45306,94329,5
45270,94324,5
45276,94331,5
45274,94323,5
45280,94336,4
45275,94334,5
45270,94338,5
45272,94334,5
45278,94334,5
45280,94333,4
45268,94334,5
45281,94341,5
45277,94318,5
45280,94338,4
45283,94343,4
45283,94341,5
45275,94305,6
45280,94338,4
45275,94341,4
45279,94336,5
45271,94320,5
45273,94324,5
45264,94329,5
45256,94330,4
45250,94331,5
45260,94322,5
45251,94306,5
45246,94308,5
45246,94343,4
45243,94300,5
45235,94295,5
45247,94295,5
45242,94316,5
45232,94288,4
45227,94279,5
45233,94269,5
45217,94261,5
45214,94248,5
45209,94249,4
45208,94227,5
45197,94209,5
45175,94187,5
45149,94150,4
45122,94105,5
45101,94072,5
45073,94049,5
45067,94027,5
45060,94034,4
45067,94037,5
45080,94042,5
45085,94046,5
45076,94058,5
45084,94057,4
45087,94064,5
45094,94071,5
45098,94082,5
45107,94090,5
45121,94103,4
45124,94122,5
45127,94129,5
45135,94151,5
45139,94143,4
45133,94141,6
45141,94129,4
45120,94110,5
45111,94098,5
45104,94082,4
45086,94070,5
45084,94043,5
45068,94050,5
45073,94040,5
45069,94045,4
45063,94048,5
45079,94045,5
45078,94050,5
45090,94059,5
45085,94083,4
45085,94078,5
45106,94095,5
45113,94111,5
45122,94119,4
45137,94139,4
45154,94170,5
45167,94177,5
45170,94197,5
45190,94216,4
45210,94232,5
45222,94265,6
45243,94295,4
45249,94316,5
45276,94352,4
45291,94388,5
45306,94403,5
45325,94418,5
45327,94433,5
45336,94441,4
45340,94461,5
45342,94479,5
45357,94482,5
45368,94491,5
45365,94495,4
45367,94498,5
45364,94516,5
45376,94508,5
45380,94508,4
45378,94522,4
45381,94541,5
45393,94546,5
45405,94571,5
45397,94557,4
45398,94560,5
45405,94569,5
45403,94557,5
45396,94550,5
45391,94553,4
45398,94554,5
45385,94536,5
45366,94524,5
45375,94526,5
45381,94527,4
45358,94496,5
45353,94494,5
45368,94508,5
45366,94538,5
45380,94558,4
45375,94560,5
45399,94554,5
45390,94568,5
45399,94567,4
45362,94545,5
45359,94508,5
45349,94476,5
45324,94447,5
45305,94487,5
45349,94527,4
45369,94546,5
45361,94537,5
45386,94549,5
45391,94583,4
45378,94572,5
45381,94569,5
45424,94585,5
45403,94614,5
45413,94634,4
45431,94641,5
45456,94655,5
45428,94650,5
45419,94657,4
45419,94639,4
45422,94642,5
45405,94649,5
45424,94666,5
45424,94664,4
45411,94626,5
45392,94615,6
45399,94631,4
45405,94655,5
45414,94646,4
45421,94695,7
45443,94711,3
45437,94690,5
45432,94657,5
45433,94690,4
45426,94695,5
45431,94708,5
45441,94710,5
45468,94737,5
45457,94742,4
45444,94709,5
45430,94723,5
45437,94708,5
45452,94730,4
45459,94743,5
45472,94802,5
45484,94781,5
45481,94805,5
45500,94810,4
45510,94844,5
45516,94826,5
45513,94821,6
45498,94812,4
45510,94810,4
45503,94802,5
45501,94784,5
45485,94782,5
45481,94776,5
45469,94750,4
45457,94726,5
45445,94719,5
45455,94721,5
45450,94715,5
45444,94717,4
45438,94708,5
45442,94725,5
45447,94723,5
45448,94722,4
45456,94746,5
45472,94762,5
45481,94772,5
45483,94797,5
45500,94806,5
45511,94822,4
45518,94844,5
45533,94862,5
45541,94871,6
45550,94887,3
45560,94905,5
45572,94913,5
45577,94942,5
45590,94955,5
45600,94971,4
45611,94982,5
45622,94998,5
45622,94994,5
45632,95008,4
45635,95017,4
45639,95028,5
45645,95030,5
45644,95041,5
45644,95048,4
45665,95056,5
45658,95054,5
45660,95060,5
45661,95072,5
45667,95077,4
45672,95074,6
45672,95080,4
45670,95084,5
45668,95065,5
45669,95059,6
45664,95059,3
45663,95077,5
45654,95059,5
45662,95062,5
45657,95050,4
45666,95043,5
45652,95046,5
45654,95036,5
45649,95023,4
45643,95009,5
45635,95006,5
45627,95005,5
45637,95001,5
45631,94995,4
45639,95004,5
45639,95016,5
45641,95006,5
45648,95013,5
45644,95012,4
45636,95008,5
45645,95001,6
45633,95001,4
45640,94999,5
45628,95001,4
45631,94996,5
45629,94994,5
45633,94990,5
45622,94992,4
45629,94984,4
45626,94987,5
45615,94970,5
45611,94979,5
45609,94967,4
45621,94962,5
45613,94959,5
45608,94953,5
45583,94939,5
45595,94930,4
45592,94920,5
45589,94918,5
45561,94913,5
45577,94912,5
45573,94902,4
45569,94903,5
45529,94892,5
45557,94874,6
45545,94858,4
45530,94844,4
45501,94820,5
45512,94813,5
45496,94787,5
45498,94783,4
45497,94769,5
45464,94759,5
45468,94758,5
45464,94749,5
45494,94744,4
45449,94728,5
45461,94737,5
45465,94747,5
45496,94755,5
45472,94773,4
45488,94787,5
45496,94802,5
45504,94798,5
45503,94814,5
45501,94805,5
45494,94789,4
45480,94753,5
45471,94747,5
45451,94736,6
45445,94726,3
45426,94651,5
45402,94659,5
45377,94609,5
45358,94590,4
45355,94543,5
45353,94575,5
45345,94565,5
45311,94526,5
45302,94502,4
45312,94526,5
45342,94564,5
45367,94595,9
45383,94662,1
45416,94698,4
45432,94704,5
45429,94703,5
45407,94706,5
45410,94690,5
45437,94724,4
45458,94774,6
45492,94848,4
45524,94861,5
45530,94870,4
45533,94858,5
45509,94843,5
45509,94823,5
45518,94861,5
45547,94888,4
45557,94922,5
45581,94956,5
45586,94961,5
45591,94969,5
45578,94936,4
45551,94910,5
45546,94920,5
45558,94922,5
45563,94920,5
45549,94918,4
45550,94916,5
45560,94917,5
45549,94904,5
45519,94858,5
45495,94830,4
45504,94839,5
45518,94876,6
45533,94897,4
45539,94910,4
45536,94897,5
45536,94888,5
45523,94892,5
45535,94909,5
45552,94933,4
45582,94960,5
45578,94980,5
45595,94982,5
45581,94964,5
45572,94952,4
45560,94936,5
45546,94910,5
45555,94908,5
45553,94925,5
45558,94937,4
45561,94938,5
45571,94949,5
45575,94956,5
45570,94948,5
45564,94938,4
45572,94935,5
45561,94935,5
45560,94930,5
45559,94922,4
45544,94907,5
45536,94888,5
45520,94866,5
45511,94851,5
45490,94838,4
45495,94813,5
45475,94794,5
45471,94785,5
45459,94779,5
45473,94786,4
45458,94795,5
45471,94799,5
45472,94808,5
45471,94805,5
45476,94822,4
45480,94819,5
45477,94805,5
45479,94802,5
45477,94797,4
45461,94783,6
45453,94763,4
45441,94744,5
45422,94719,5
45417,94696,4
45392,94669,5
45385,94648,5
45370,94634,5
45357,94610,5
45352,94610,4
45355,94610,5
45351,94611,5
45356,94623,5
45365,94629,5
45384,94650,4
45394,94660,5
45402,94685,5
45405,94684,5
45406,94676,4
45391,94684,4
45412,94698,5
45416,94700,5
45422,94703,5
45401,94711,4
45435,94728,5
45436,94737,6
45444,94730,4
45417,94752,5
45470,94776,4
45464,94774,5
45471,94785,5
45476,94805,5
45498,94802,5
45488,94806,4
45491,94814,5
45508,94794,5
45487,94796,5
45467,94781,5
45479,94781,4
45517,94787,5
45479,94785,5
45472,94784,5
45468,94780,4
45495,94763,5
45454,94753,5
45435,94724,5
45429,94709,5
45422,94697,4
45411,94690,5
45415,94697,5
45421,94710,5
45430,94701,5
45424,94708,4
45415,94710,5
45415,94701,5
45417,94670,5
45412,94701,5
45419,94699,4
45417,94717,5
45432,94686,5
45444,94737,5
45454,94754,4
45451,94764,4
45465,94779,5
45462,94779,5
45477,94787,5
45481,94795,4
45483,94814,5
45483,94796,5
45481,94788,5
45465,94777,5
45462,94805,5
45456,94774,4
45461,94765,5
45442,94749,5
45433,94765,5
45426,94732,4
45426,94720,5
45417,94708,5
45420,94704,5
45415,94714,5
45425,94723,4
45427,94726,5
45422,94724,5
45419,94713,5
45425,94723,4
45436,94732,4
45435,94733,5
45437,94744,5
45443,94727,5
45440,94716,4
45421,94702,5
45411,94693,5
45406,94672,5
45385,94644,5
45364,94613,4
45349,94606,6
45350,94599,4
45350,94601,5
45344,94598,5
45354,94609,4
45358,94605,5
45361,94616,5
45362,94621,5
45373,94623,5
45379,94636,4
45376,94648,5
45392,94655,5
45403,94662,5
45404,94669,4
45410,94679,5
45420,94675,5
45421,94693,5
45422,94702,5
45435,94723,4
45440,94723,5
45443,94741,5
45456,94749,5
45466,94755,5
45469,94759,4
45469,94770,5
45483,94793,5
45485,94793,5
45496,94794,5
45485,94798,4
45491,94789,5
45497,94804,5
45495,94796,5
45492,94791,4
45492,94786,4
45502,94792,5
45490,94799,5
45480,94779,5
45484,94780,4
45486,94776,5
45474,94765,5
45455,94755,5
45470,94755,5
45461,94739,5
45456,94742,4
45461,94741,5
45453,94733,5
45454,94730,6
45460,94736,3
45453,94728,5
45467,94739,5
45459,94756,5
45461,94735,5
45461,94753,4
45459,94758,5
45479,94750,5
45476,94759,5
45473,94764,4
45479,94756,5
45467,94755,5
45469,94758,5
45477,94760,5
45475,94763,4
45467,94748,5
45464,94747,5
45457,94739,5
45458,94726,5
45433,94708,4
45432,94688,6
45399,94687,4
45402,94670,5
45406,94656,5
45401,94644,6
45371,94637,3
45399,94636,5
45385,94626,5
45381,94631,4
45361,94634,8
45392,94629,5
45394,94634,5
45383,94642,5
45397,94653,8
45397,94644,5
45392,94657,5
45404,94650,8
45411,94623,5
45372,94604,5
45372,94598,5
45352,94571,8
45356,94521,5
45314,94523,5
45303,94495,8
45303,94495,5
45307,94506,5
45314,94524,8
45310,94508,5
45321,94498,5
45311,94496,5
45332,94495,8
45338,94514,5
45303,94511,5
45313,94509,8
45325,94478,5
45329,94513,5
45329,94520,5
45335,94530,8
45335,94530,5
45332,94484,5
45329,94527,8
45335,94534,5
45334,94530,5
45313,94564,8
45311,94536,5
45331,94524,5
45329,94521,5
45343,94566,8
45335,94525,5
45330,94521,5
45332,94502,8
45332,94502,5
45324,94511,5
45325,94498,5
45306,94488,8
45295,94480,5
45291,94479,5
45285,94472,8
45287,94471,5
45283,94455,5
45284,94435,8
45275,94434,5
45264,94426,5
45259,94401,5
45259,94401,8
45261,94409,5
45253,94414,5
45262,94423,8
45263,94426,5
45271,94428,5
45276,94455,5
45280,94416,8
45268,94424,5
45276,94444,5
45293,94476,8
45293,94476,5
45290,94495,5
45289,94487,8
45295,94479,5
45302,94476,5
45309,94490,5
45307,94493,8
45298,94474,5
45300,94474,5
45290,94472,8
45291,94457,5
45281,94435,5
45261,94414,5
45162,94268,8
45162,94268,5
45154,94249,5
45141,94249,8
45151,94237,5
45130,94230,5
45120,94221,8
45144,94240,5
45149,94248,5
45149,94263,5
45161,94270,8
45156,94281,5
45172,94291,5
45199,94332,8
45199,94332,5
45215,94331,5
45187,94290,5
45142,94281,8
45139,94262,5
45137,94237,5
45130,94215,8
45124,94211,5
45115,94192,5
45110,94193,8
45107,94181,5
45108,94188,5
45112,94196,10
45112,94196,9
45113,94191,5
45111,94199,8
45120,94209,5
45118,94215,5
45126,94215,5
45167,94287,8
45167,94287,5
45139,94276,5
45175,94300,8
45185,94311,5
45199,94319,5
45162,94326,8
45198,94307,5
45197,94338,5
45208,94348,5
45224,94364,8
45215,94366,5
45224,94365,5
45231,94360,8
45231,94360,2
45263,94364,1
45263,94364,3
45223,94368,6
45230,94369,4
45221,94379,5
45232,94364,5
45208,94356,4
45214,94351,5
45200,94347,5
45198,94332,5
45204,94324,5
45196,94336,7
45189,94316,2
45189,94287,5
45179,94314,5
45187,94315,5
45178,94304,4
45179,94267,5
45177,94306,5
45179,94299,5
45177,94303,4
45177,94259,5
45181,94300,5
45184,94307,5
45183,94311,5
45193,94329,4
45185,94320,5
45194,94321,6
45196,94335,4
45195,94371,5
45204,94340,4
45205,94342,5
45207,94345,5
45210,94382,5
45201,94341,5
45206,94346,4
45207,94347,5
45204,94366,5
45211,94350,5
45211,94342,4
45202,94350,4
45206,94335,5
45202,94335,5
45195,94322,5
45191,94325,4
45188,94314,5
45184,94315,5
45181,94297,5
45170,94290,5
45165,94282,4
45153,94264,5
45127,94231,5
45111,94207,6
45092,94183,4
45091,94160,4
45067,94137,5
45062,94138,5
45053,94132,5
45052,94132,5
45063,94133,4
45067,94149,5
45065,94157,5
45079,94169,5
45076,94167,4
45076,94171,5
45081,94180,5
45099,94196,5
45109,94214,5
45110,94220,4
45115,94227,5
45128,94232,5
45132,94228,5
45128,94234,5
45122,94220,5
45106,94224,4
45105,94210,5
45106,94207,5
45106,94204,5
45109,94223,4
45121,94232,5
45126,94234,5
45126,94230,5
45134,94248,5
45141,94266,4
45144,94282,5
45158,94302,5
45173,94316,5
45180,94339,4
45191,94354,5
45211,94376,5
45228,94403,5
45249,94440,5
45264,94461,4
45284,94493,5
45303,94518,5
45323,94551,5
45333,94584,5
45352,94598,4
45364,94628,6
45367,94629,4
45386,94668,5
45401,94690,5
45405,94699,4
45412,94696,5
45417,94706,5
45435,94730,5
45445,94750,4
45453,94753,4
45445,94753,5
45449,94771,5
45456,94777,5
45463,94782,4
