RED,IR,EKG,TIME
61013,119089,9
60993,119073,5
61004,119104,8
61004,119104,5
61024,119147,5
61048,119173,5
61054,119182,8
61070,119205,5
61083,119199,5
61083,119229,8
61071,119221,5
61083,119233,5
61080,119210,8
61081,119189,5
61059,119170,5
61049,119162,5
61039,119135,8
61039,119135,5
61037,119129,5
61040,119143,8
61056,119148,5
61044,119147,5
61012,119124,5
61033,119132,8
61037,119131,5
61045,119161,5
61005,119149,8
61050,119164,5
61051,119174,5
61060,119178,8
61060,119178,5
61087,119164,5
61058,119160,5
61020,119159,8
61047,119161,5
61088,119159,5
61050,119165,8
61050,119158,5
61055,119167,5
61097,119162,5
61053,119164,8
61065,119182,5
61052,119182,5
61074,119209,8
61074,119209,5
61063,119215,5
61090,119222,8
61089,119242,5
61092,119215,5
61105,119234,5
61097,119229,8
61100,119235,5
61116,119203,5
61087,119237,8
61081,119218,5
61078,119216,5
61065,119183,5
61083,119240,8
61083,119240,5
61102,119310,5
61100,119260,8
61105,119286,5
61112,119292,5
61138,119308,5
61119,119308,8
61083,119345,5
61091,119328,5
61106,119320,8
61112,119344,5
61118,119359,5
61170,119442,8
61170,119442,5
61177,119410,5
61201,119499,10
61225,119548,9
61261,119599,5
61423,119891,8
61423,119891,5
61386,119872,5
61385,119852,8
61373,119832,5
61367,119813,5
61339,119781,5
61326,119742,8
61327,119772,5
61349,119811,5
61362,119832,8
61356,119815,5
61357,119820,5
61389,119861,5
61437,119937,8
61437,119937,5
61470,119997,5
61517,120068,8
61518,120027,5
61443,119862,5
61354,119727,8
61315,119677,5
61326,119704,5
61333,119766,5
61406,119855,8
61448,119884,4
61410,119826,1
61381,119790,4
61334,119724,4
61304,119653,5
61305,119691,5
61379,119798,5
61453,119931,5
61538,120078,4
61626,120212,5
61692,120319,5
61714,120348,5
61710,120310,4
61628,120153,4
61508,119940,5
61361,119696,5
61254,119560,5
61285,119654,4
61393,119856,5
61481,119942,5
61460,119902,5
61407,119769,5
61246,119466,4
61056,119122,6
60818,118702,4
60619,118432,5
60606,118470,5
60714,118647,4
60752,118689,5
60757,118686,5
60758,118690,5
60778,118697,5
60807,118771,4
60887,118918,5
60968,119053,5
61030,119171,5
61109,119295,4
61216,119471,5
61310,119645,5
61405,119804,5
61516,120024,5
61606,120100,4
61563,120014,5
61492,119916,5
61433,119840,5
61440,119872,5
61508,119981,4
61529,119969,5
61399,119748,6
61281,119506,4
61172,119363,5
61234,119535,4
61341,119767,5
61419,119785,5
61374,119702,5
61352,119711,5
61405,119802,4
61480,119941,5
61586,120145,5
61720,120358,5
61847,120487,4
61845,120533,5
61864,120582,5
61898,120644,5
61999,120725,5
62000,120802,4
62032,120854,5
62051,120900,5
62109,120943,5
62123,121009,5
62158,121074,4
62181,121098,5
62195,121138,5
62215,121164,5
62213,121174,5
62214,121166,4
62205,121144,5
62216,121178,5
62214,121162,5
62207,121165,4
62213,121125,4
62205,121157,5
62205,121158,5
62214,121167,5
62210,121127,4
62204,121131,5
62178,121095,5
62160,121055,5
62138,121031,5
62134,121032,4
62118,121011,5
62133,120999,5
62128,121053,5
62139,121007,5
62138,121018,5
62137,121028,4
62159,121089,5
62162,121050,5
62156,121050,5
62147,121043,4
62162,121072,5
62180,121084,5
62192,121100,5
62197,121114,4
62210,121123,4
62230,121148,5
62215,121148,5
62222,121134,5
62222,121145,4
62222,121131,5
62195,121098,5
62187,121066,5
62169,121052,5
62170,121053,4
62158,121034,5
62147,121017,6
62130,121003,4
62131,120998,5
62141,120998,4
62140,121005,7
62141,121015,3
62140,121022,5
62144,121021,5
62137,121014,4
62147,120995,5
62139,120995,5
62143,120997,5
62140,121001,4
62150,121008,4
62163,121020,5
62153,121013,5
62150,121021,5
62158,121012,4
62151,121007,5
62155,121009,5
62161,120997,5
62154,120981,5
62140,120966,4
62140,120961,5
62124,120947,5
62114,120928,6
62101,120911,4
62096,120893,4
62084,120887,5
62079,120873,5
62082,120875,5
62078,120870,5
62091,120871,4
62088,120887,5
62092,120890,5
62092,120893,5
62097,120895,4
62094,120912,4
62121,120924,5
62125,120943,5
62129,120928,5
62118,120918,4
62099,120887,5
62079,120866,5
62061,120837,5
62042,120799,5
62001,120727,5
61959,120668,5
61945,120647,4
61921,120628,5
61909,120610,6
61907,120593,3
61898,120593,5
61907,120597,5
61902,120598,5
61918,120602,5
61911,120599,4
61921,120611,5
61921,120592,5
61913,120600,5
61911,120581,4
61914,120584,4
61913,120569,5
61901,120559,5
61896,120562,5
61910,120579,4
61913,120590,5
61915,120608,5
61930,120614,5
61936,120618,5
61933,120615,4
61952,120621,6
61944,120633,4
61961,120639,5
61938,120643,5
61953,120635,6
61971,120664,3
61969,120670,5
61929,120640,5
61944,120635,5
61950,120627,4
61947,120620,5
61897,120612,5
61923,120599,5
61930,120592,4
61915,120572,5
61905,120567,5
61894,120547,5
61884,120530,5
61887,120534,4
61934,120536,5
61878,120542,5
61881,120538,5
61875,120534,5
61930,120535,4
61871,120544,5
61883,120538,6
61875,120538,4
61907,120527,5
61874,120529,4
61880,120534,5
61874,120541,5
61884,120528,5
61871,120523,5
61874,120525,4
61866,120514,5
61854,120477,5
61852,120491,5
61837,120474,4
61826,120471,5
61830,120416,5
61823,120451,5
61815,120424,5
61811,120414,4
61800,120357,5
61783,120396,5
61788,120381,5
61773,120359,5
61764,120373,4
61774,120367,5
61770,120359,5
61765,120374,6
61791,120437,4
61797,120397,4
61803,120401,5
61784,120377,5
61750,120382,5
61732,120306,5
61729,120272,4
61686,120214,5
61643,120156,5
61614,120090,5
61602,120076,4
61587,120058,5
61580,120061,5
61584,120063,5
61583,120054,5
61582,120050,4
61580,120040,5
61574,120037,5
61567,120024,5
61562,120028,5
61569,120021,5
61573,120028,4
61568,120016,5
61569,120007,5
61562,120019,6
61567,120021,3
61571,120016,5
61578,120018,5
61572,120022,5
61580,120034,5
61575,120018,4
61581,120017,5
61574,120011,5
61554,120006,5
61566,120002,4
61566,119999,5
61572,119997,5
61548,119977,5
61569,120004,5
61579,120003,4
61567,119984,5
61569,119995,5
61572,120001,5
61566,119998,5
61546,119985,4
61540,119973,6
61540,119953,4
61529,119944,5
61523,119933,5
61505,119908,4
61499,119900,5
61493,119892,5
61484,119893,5
61500,119873,4
61491,119886,4
61495,119896,5
61488,119876,5
61491,119874,5
61485,119878,4
61483,119871,5
61489,119873,5
61478,119872,5
61499,119887,5
61506,119890,4
61506,119900,5
61515,119911,5
61526,119918,5
61519,119921,5
61524,119925,4
61518,119928,5
61523,119926,6
61512,119924,4
61505,119920,5
61506,119905,4
61508,119895,5
61489,119866,5
61480,119845,5
61458,119833,4
61447,119811,4
61430,119791,5
61427,119762,5
61398,119746,5
61391,119716,4
61386,119706,5
61402,119734,5
61422,119769,5
61462,119828,5
61479,119849,4
61494,119867,5
61489,119877,5
61494,119851,5
61478,119847,5
61494,119858,4
61475,119846,5
61444,119793,5
61439,119777,6
61431,119786,4
61409,119783,4
61432,119774,5
61435,119778,5
61436,119769,5
61387,119770,4
61435,119753,4
61437,119770,5
61450,119779,5
61419,119778,5
61452,119792,4
61464,119801,5
61465,119794,5
61487,119815,5
61462,119813,5
61468,119798,4
61477,119820,5
61519,119829,5
61492,119835,5
61497,119838,5
61501,119844,5
61533,119846,4
61522,119868,5
61512,119877,5
61513,119871,5
61537,119885,4
61535,119901,5
61543,119913,5
61542,119921,5
61563,119926,4
61562,119952,4
61567,119957,5
61574,119969,5
61577,119943,5
61578,119964,4
61569,119950,5
61569,119952,5
61568,119912,5
61570,119960,5
61559,119946,4
61561,119933,5
61555,119919,5
61561,119937,5
61556,119930,5
61561,119941,4
61554,119960,6
61546,119938,4
61551,119943,5
61553,119939,5
61555,119983,4
61554,119944,5
61558,119947,5
61566,119958,5
61563,119996,4
61577,119985,5
61583,119998,5
61598,120007,5
61606,120031,5
61610,120037,4
61630,120059,5
61637,120052,5
61637,120062,5
61643,120072,5
61647,120080,4
61643,120091,5
61652,120101,5
61661,120102,5
61662,120110,5
61668,120121,4
61673,120124,5
61659,120117,6
61676,120115,4
61650,120094,5
61645,120093,4
61625,120053,5
61604,120014,5
61578,119985,5
61568,119955,4
61561,119942,5
61549,119923,5
61539,119912,5
61524,119887,5
61505,119850,4
61489,119822,5
61477,119820,5
61481,119825,5
61513,119859,5
61537,119913,4
61563,119950,5
61589,119994,5
61605,120003,5
61622,120038,5
61630,120045,4
61625,120010,5
61607,120001,5
61592,119989,5
61572,119933,5
61530,119874,4
61497,119857,5
61512,119852,5
61501,119838,5
61504,119846,4
61497,119839,5
61493,119846,5
61494,119845,5
61506,119860,5
61527,119902,4
61542,119915,5
61555,119915,5
61553,119920,5
61558,119939,5
61570,119948,4
61568,119947,5
61575,119959,5
61581,119969,5
61597,119985,5
61610,119998,5
61619,120012,4
61637,120044,5
61644,120059,5
61658,120083,5
61666,120100,4
61680,120118,5
61684,120129,5
61696,120132,5
61705,120150,4
61718,120169,5
61731,120192,5
61729,120203,5
61746,120233,5
61762,120233,4
61767,120256,5
61772,120266,5
61775,120255,5
61767,120252,5
61763,120260,4
61769,120262,5
61777,120251,6
61777,120259,4
61766,120249,5
61761,120268,4
61766,120265,7
61755,120265,3
61772,120271,5
61774,120276,4
61780,120281,4
61758,120292,5
61785,120288,5
61782,120277,5
61788,120284,4
61746,120295,5
61792,120294,5
61787,120308,5
61797,120320,5
61795,120335,4
61807,120342,5
61816,120354,5
61826,120359,5
61853,120372,5
61841,120383,4
61837,120394,5
61844,120386,5
61881,120380,6
61839,120376,4
61842,120385,4
61844,120397,5
61872,120399,5
61845,120416,5
61859,120418,4
61861,120416,4
61857,120427,5
61853,120408,5
61841,120385,5
61829,120372,4
61804,120333,5
61788,120315,5
61787,120302,5
61765,120280,5
61746,120223,4
61746,120252,5
61734,120243,5
61738,120233,5
61725,120173,5
61704,120185,5
61694,120165,4
61688,120164,5
61703,120200,5
61725,120248,6
61755,120278,3
61773,120292,5
61789,120365,5
61787,120311,5
61778,120299,4
61784,120299,4
61783,120353,5
61743,120248,5
61722,120202,5
61703,120207,4
61715,120217,5
61708,120201,5
61714,120205,5
61727,120222,5
61730,120246,4
61758,120274,5
61782,120314,5
61805,120346,5
61823,120387,5
61850,120425,4
61859,120452,6
61884,120490,4
61892,120513,5
61913,120542,5
61934,120576,6
61959,120607,3
61978,120636,5
61989,120673,5
62028,120725,4
62061,120791,4
62077,120829,5
62097,120857,5
62105,120884,5
62131,120916,4
62137,120922,5
62134,120943,5
62165,120951,5
62181,120981,5
62194,121013,4
62209,121050,5
62241,121072,5
62236,121065,5
62205,121021,5
62175,120960,4
62155,120914,5
62139,120912,6
62155,120932,4
62171,120967,5
62191,121003,4
62212,121046,5
62224,121057,5
62255,121099,5
62253,121082,4
62220,121012,4
62164,120935,5
62143,120904,5
62144,120909,5
62162,120934,4
62197,121012,9
62256,121096,1
62297,121140,5
62301,121141,5
62276,121136,4
62278,121114,5
62288,121161,5
62335,121229,5
62389,121316,5
62425,121380,4
62443,121404,5
62440,121403,5
62443,121396,6
62436,121401,4
62445,121406,4
62462,121453,5
62492,121469,5
62463,121401,5
62454,121373,4
62439,121360,4
62449,121399,5
62490,121463,5
62534,121556,5
62571,121583,4
62569,121589,5
62580,121610,5
62588,121621,5
62590,121633,5
62607,121640,4
62610,121667,5
62637,121703,5
62643,121719,5
62636,121705,5
62622,121694,5
62622,121693,4
62624,121685,5
62582,121608,5
62551,121555,6
62526,121532,3
62531,121529,5
62526,121536,5
62530,121573,5
62595,121636,4
62625,121668,4
62606,121642,5
62570,121665,5
62621,121684,5
62631,121685,4
62625,121684,5
62607,121714,5
62645,121706,5
62621,121672,5
62611,121652,4
62583,121587,5
62546,121539,5
62504,121482,5
62500,121476,5
62550,121502,4
62542,121536,6
62556,121575,4
62597,121623,5
62673,121675,5
62657,121706,4
62674,121743,5
62688,121780,5
62751,121814,5
62736,121849,4
62765,121887,4
62800,121937,5
62838,122006,5
62863,122061,5
62899,122103,4
62923,122150,5
62947,122164,5
62982,122246,5
63016,122279,5
63034,122308,4
63054,122285,5
63064,122357,5
63073,122374,5
63094,122390,5
63097,122354,4
63108,122432,5
63126,122434,6
63116,122420,4
63125,122431,5
63128,122434,4
63123,122419,5
63128,122417,5
63131,122458,5
63125,122415,4
63119,122426,4
63115,122412,5
63114,122441,5
63104,122390,5
63081,122360,4
63064,122328,5
63041,122314,5
63018,122262,5
63001,122224,5
62980,122191,4
62972,122189,5
62982,122215,5
63016,122231,5
63011,122255,5
63017,122263,4
63007,122232,5
62991,122186,5
62931,122082,6
62798,121851,4
62655,121608,4
62566,121469,5
62552,121470,5
62588,121550,5
62654,121664,4
62732,121796,4
62783,121850,5
62758,121784,5
62590,121440,5
62283,120904,4
62035,120527,5
61951,120427,5
61972,120495,5
62030,120584,5
62105,120711,4
62193,120856,5
62235,120896,5
62171,120742,5
62071,120603,5
61991,120501,5
62010,120539,4
62068,120616,5
62114,120704,5
62179,120804,5
62238,120940,4
62297,121025,5
62333,121081,5
62383,121182,5
62475,121327,4
62514,121363,5
62473,121290,5
62441,121260,5
62440,121227,5
62354,121053,4
62248,120923,5
62174,120775,5
62042,120552,5
61927,120375,5
61897,120351,4
61951,120455,5
62064,120643,5
62139,120748,5
62136,120738,5
62173,120851,4
62269,120979,6
62319,121034,4
62274,120934,5
62205,120818,5
62169,120797,4
62194,120872,5
62251,120944,5
62266,120953,5
62239,120861,4
62151,120712,5
62085,120641,5
62104,120669,5
62140,120727,5
62161,120756,4
62186,120817,5
62249,120920,5
62317,121008,5
62328,121007,5
62317,121021,4
62354,121090,5
62400,121144,5
62406,121145,5
62349,121029,5
62245,120875,4
62183,120770,5
62189,120818,6
62237,120887,4
62247,120892,5
62242,120905,4
62284,120969,5
62318,121044,5
62357,121094,5
62348,121093,4
62355,121066,5
62356,121077,5
62381,121137,5
62398,121247,5
62507,121352,4
62559,121423,5
62601,121519,5
62626,121615,5
62715,121695,5
62744,121727,4
62751,121722,5
62756,121709,5
62738,121690,5
62735,121696,5
62750,121708,4
62793,121726,5
62764,121741,5
62766,121744,5
62774,121756,5
62825,121764,4
62781,121776,5
62784,121775,5
62787,121790,5
62823,121807,4
62812,121825,5
62820,121838,5
62825,121842,5
62823,121844,5
62820,121835,4
62818,121822,5
62804,121805,5
62800,121762,5
62794,121801,5
62812,121814,4
62816,121822,5
62823,121777,5
62808,121807,5
62791,121764,5
62779,121746,5
62761,121697,4
62742,121681,5
62704,121620,5
62658,121575,5
62645,121570,4
62626,121529,5
62622,121504,5
62614,121486,5
62595,121502,4
62582,121433,5
62568,121410,5
62558,121413,5
62554,121441,5
62557,121370,4
62541,121356,5
62512,121321,5
62513,121325,5
62493,121288,5
62497,121283,4
62501,121273,5
62491,121272,5
62503,121277,4
62491,121272,5
62497,121275,4
62495,121266,6
62501,121263,4
62502,121261,5
62497,121267,5
62498,121274,4
62517,121279,5
62519,121309,5
62526,121314,5
62542,121362,4
62554,121356,5
62546,121348,5
62554,121349,5
62551,121338,5
62537,121315,4
62515,121299,5
62490,121259,5
62486,121257,5
62460,121220,5
62450,121192,4
62435,121156,5
62416,121140,5
62408,121140,6
62400,121128,4
62400,121126,4
62388,121121,5
62387,121122,5
62389,121097,5
62366,121079,5
62356,121063,4
62345,121054,5
62343,121056,5
62348,121053,5
62335,121032,4
62328,121035,5
62341,121045,5
62342,121062,5
62351,121063,5
62325,121000,4
62287,120926,5
62238,120877,5
62221,120855,5
62212,120826,5
62213,120830,5
62206,120811,4
62199,120816,5
62201,120811,5
62193,120790,6
62169,120773,3
62159,120746,5
62137,120725,5
62125,120698,5
62107,120677,5
62105,120671,4
62111,120669,5
62113,120677,5
62120,120687,5
62137,120729,4
62158,120745,5
62167,120760,5
62158,120748,5
62160,120739,5
62152,120704,4
62129,120678,5
62101,120645,5
62073,120588,5
62027,120512,5
61994,120473,4
61972,120426,6
61956,120404,4
61943,120380,5
61931,120362,5
61925,120334,6
61911,120316,3
61914,120309,5
61902,120308,5
61900,120287,4
61888,120274,4
61881,120263,5
61877,120249,5
61868,120237,5
61859,120213,4
61832,120201,5
61852,120197,5
61845,120193,5
61850,120195,5
61808,120183,4
61835,120166,5
61830,120143,5
61817,120133,5
61775,120118,5
61796,120111,4
61798,120095,5
61807,120101,6
61804,120090,4
61793,120083,5
61786,120083,4
61804,120099,5
61842,120092,5
61790,120081,5
61789,120075,4
61780,120043,4
61810,120023,5
61746,120003,5
61739,119977,5
61720,119962,4
61725,119948,5
61702,119925,5
61686,119911,5
61677,119916,5
61694,119912,4
61694,119907,5
61690,119931,5
61695,119931,5
61685,119886,5
61689,119922,4
61689,119929,5
61697,119931,5
61689,119884,6
61683,119927,4
61691,119926,4
61689,119934,5
61694,119907,5
61707,119963,5
61730,119980,4
61724,119994,4
61737,120023,5
61735,120007,5
61751,120017,5
61757,120044,4
61771,120104,5
61782,120067,5
61774,120071,5
61793,120084,5
61791,120130,4
61794,120077,5
61787,120078,5
61783,120063,5
61765,120068,5
61736,120013,5
61723,119984,4
61716,119962,5
61707,119955,5
61703,119941,6
61685,119923,3
61680,119915,5
61686,119913,5
61696,119941,5
61717,119984,4
61753,120046,5
61797,120105,5
61830,120160,5
61850,120176,5
61861,120200,4
61865,120219,5
61870,120199,5
61851,120184,5
61853,120185,5
61825,120131,4
61784,120073,5
61761,120044,5
61765,120036,5
61760,120035,5
61757,120038,4
61759,120038,6
61768,120038,4
61766,120032,5
61755,120004,5
61750,119988,4
61739,119975,7
61744,119981,3
61755,120012,5
61779,120049,4
61807,120104,5
61832,120144,5
61859,120189,5
61880,120205,5
61893,120217,4
61881,120220,5
61880,120184,5
61866,120174,5
61874,120185,5
61886,120203,4
61909,120248,5
61928,120285,5
61949,120325,5
61975,120368,5
61996,120405,4
62018,120433,5
62037,120466,6
62052,120493,4
62076,120524,5
62097,120560,4
62118,120615,5
62152,120637,5
62132,120603,5
62115,120576,4
62103,120552,5
62083,120528,5
62079,120518,5
62086,120522,5
62085,120542,4
62101,120558,5
62112,120576,5
62129,120579,5
62136,120597,5
62128,120603,4
62136,120591,5
62140,120596,5
62132,120579,5
62123,120563,5
62109,120547,4
62087,120510,5
62082,120489,5
62062,120469,6
62059,120459,4
62055,120458,4
62062,120462,5
62065,120482,5
62080,120489,5
62088,120496,4
62096,120505,5
62104,120526,5
62090,120519,5
62090,120514,5
62087,120500,4
62080,120501,5
62041,120487,5
62061,120476,5
62039,120441,5
62026,120412,4
61974,120391,5
61998,120381,5
61988,120377,5
62003,120385,5
61991,120421,5
62030,120428,4
62019,120426,5
62027,120426,5
62039,120427,5
62027,120428,4
62049,120457,5
62077,120508,5
62148,120540,5
62083,120502,4
62048,120451,5
62050,120447,5
62081,120452,5
62037,120435,5
62056,120482,4
62088,120525,5
62106,120506,5
62072,120488,5
62053,120462,5
62044,120442,4
62030,120408,5
62000,120351,5
61951,120287,5
61927,120214,5
61861,120082,4
61756,119899,6
61621,119697,4
61569,119626,5
61586,119599,4
61620,119717,4
61667,119767,5
61660,119767,5
61648,119716,5
61606,119664,4
61599,119653,5
61623,119706,5
61672,119817,5
61717,119864,5
61694,119780,4
61621,119647,5
61562,119626,5
61553,119562,5
61556,119543,5
61476,119406,4
61391,119289,5
61374,119262,5
61443,119378,5
61542,119559,5
61655,119736,4
61692,119779,5
61704,119802,6
61694,119754,4
61655,119709,4
61652,119723,4
61683,119768,5
61684,119732,5
61641,119669,5
61634,119675,4
61670,119770,5
61741,119900,5
61834,120051,5
61914,120161,5
61966,120227,4
61978,120267,5
61991,120271,5
61993,120267,5
61997,120287,5
62012,120312,4
62042,120369,5
62085,120453,5
62140,120542,5
62189,120606,5
62230,120682,4
62266,120733,5
62300,120786,5
62334,120830,5
62350,120860,4
62353,120848,4
62341,120813,5
62328,120806,5
62322,120804,5
62334,120821,4
62319,120783,5
62278,120727,5
62250,120668,5
62230,120653,5
62220,120636,4
62229,120650,5
62230,120668,5
62242,120655,5
62233,120662,5
62237,120661,4
62224,120655,5
62234,120656,5
62236,120661,5
62223,120650,5
62232,120650,5
62223,120642,4
62216,120641,5
62218,120627,5
62205,120613,4
62196,120605,4
62202,120615,5
62222,120643,5
62240,120663,5
62249,120670,4
62252,120684,5
62258,120683,5
62245,120669,5
62226,120635,5
62223,120626,4
62203,120598,5
62165,120527,5
62136,120498,5
62127,120483,5
62118,120469,4
62121,120462,5
62113,120469,5
62112,120459,5
62117,120472,5
62120,120474,4
62126,120497,6
62144,120509,3
62153,120517,5
62159,120528,4
62156,120518,4
62163,120535,5
62177,120540,5
62174,120529,5
62172,120527,4
62161,120520,5
62181,120541,5
62181,120548,5
62166,120544,5
62183,120551,4
62196,120559,5
62195,120565,5
62158,120562,5
62207,120586,5
62217,120591,4
62219,120601,5
62181,120600,5
62217,120588,6
62212,120585,4
62217,120582,4
62193,120576,5
62203,120568,5
62203,120547,5
62197,120533,4
62205,120523,4
62186,120530,5
62179,120517,5
62164,120499,5
62205,120478,4
62143,120463,5
62141,120453,5
62126,120428,5
62157,120434,5
62125,120433,4
62128,120427,5
62123,120435,5
62135,120440,5
62132,120460,5
62140,120453,5
62144,120464,4
62146,120465,5
62148,120496,5
62161,120500,6
62175,120509,3
62182,120501,5
62193,120558,5
62220,120586,5
62220,120599,4
62228,120575,4
62246,120628,5
62254,120650,5
62260,120669,5
62276,120671,4
62269,120700,5
62287,120716,5
62298,120737,5
62311,120781,5
62325,120789,4
62344,120810,5
62359,120839,5
62365,120904,5
62382,120890,5
62386,120877,4
62378,120870,6
62345,120865,4
62303,120752,5
62269,120701,5
62263,120695,6
62261,120710,3
62275,120721,5
62299,120765,5
62319,120788,4
62321,120772,4
62291,120703,5
62219,120566,5
62133,120456,5
62089,120379,4
62068,120368,5
62079,120399,5
62090,120413,5
62051,120327,5
61934,120112,4
61787,119918,5
61748,119901,5
61784,119965,5
61845,120060,5
61932,120211,4
62030,120363,5
62074,120391,6
61970,120152,4
61706,119676,5
61451,119287,4
61359,119171,5
61352,119162,5
61389,119236,5
61456,119343,4
61459,119277,4
61325,119055,5
61278,118999,5
61277,119016,5
61281,119039,4
61331,119138,5
61441,119326,5
61523,119441,5
61576,119546,5
61654,119675,4
61708,119736,5
61720,119775,5
61766,119852,5
61837,119955,5
61855,119936,4
61758,119746,5
61635,119505,5
61435,119176,6
61315,119004,4
61341,119089,4
61441,119264,5
61563,119489,5
61701,119694,5
61756,119756,4
61760,119763,5
61762,119778,5
61814,119873,5
61897,120021,5
61968,120131,4
62067,120278,5
62131,120405,5
62173,120465,5
62223,120536,5
62252,120596,4
62284,120636,5
62304,120699,5
62340,120732,5
62330,120727,5
62314,120701,5
62318,120706,4
62343,120736,5
62378,120809,5
62429,120893,6
62476,120966,3
62518,121037,5
62562,121117,5
62609,121173,5
62629,121207,4
62621,121201,5
62635,121220,5
62644,121245,5
62667,121279,5
62687,121304,4
62691,121336,5
62709,121362,5
62737,121397,5
62753,121427,5
62754,121436,4
62770,121456,5
62784,121475,5
62796,121480,5
62767,121465,5
62784,121446,4
62776,121427,6
62774,121446,4
62747,121446,5
62779,121448,5
62772,121431,4
62772,121444,5
62764,121421,5
62772,121413,5
62777,121419,4
62768,121415,5
62792,121400,5
62766,121400,5
62754,121385,5
62754,121374,4
62784,121352,5
62721,121324,5
62700,121308,5
62689,121286,5
62713,121263,4
62671,121257,5
62659,121256,5
62660,121239,5
62665,121237,5
62655,121239,4
62650,121232,5
62651,121230,6
62651,121206,4
62645,121222,5
62646,121210,4
62643,121211,5
62653,121207,5
62671,121257,5
62676,121270,4
62684,121263,5
62682,121229,5
62692,121270,5
62669,121239,5
62642,121203,4
62629,121169,5
62614,121137,5
62569,121062,5
62534,121019,5
62518,121042,4
62503,120977,5
62500,120970,5
62497,120964,5
62505,121008,5
62494,120951,4
62496,120952,5
62497,120953,5
62499,120995,6
62501,120979,4
62516,120970,4
62520,120983,5
62514,120992,5
62526,120979,5
62528,120986,4
62524,120980,5
62534,120981,5
62529,120975,5
62536,120982,5
62532,120991,4
62541,120999,5
62544,120987,5
62539,120991,5
62547,120998,5
62537,120995,4
62538,120991,5
62547,120976,6
62524,120958,4
62531,120947,5
62522,120941,5
62506,120924,4
62501,120909,5
62496,120891,5
62480,120871,5
62463,120841,4
62442,120828,5
62436,120806,5
62415,120785,5
62410,120771,4
62404,120755,5
62408,120757,5
62403,120753,5
62394,120745,5
62401,120742,4
62401,120727,5
62396,120729,5
62395,120726,5
62392,120735,5
62393,120725,4
62394,120722,5
62393,120710,5
62387,120709,5
62390,120698,5
62394,120712,4
62399,120720,6
62390,120714,4
62399,120719,5
62402,120714,5
62409,120735,4
62409,120729,5
62408,120738,5
62411,120738,5
62399,120736,4
62399,120724,5
62400,120723,5
62396,120716,5
62389,120697,5
62382,120694,4
62377,120674,5
62358,120671,5
62363,120670,5
62358,120674,5
62365,120684,4
62368,120676,5
62367,120682,5
62370,120682,5
62377,120692,5
62382,120690,4
62373,120694,5
62392,120713,6
62404,120746,4
62412,120732,5
62399,120730,4
62398,120718,5
62385,120711,5
62363,120670,5
62337,120633,4
62318,120600,5
62281,120551,5
62247,120487,5
62235,120455,5
62210,120453,4
62201,120434,5
62199,120414,5
62194,120402,5
62178,120380,5
62160,120353,4
62136,120355,5
62149,120339,5
62131,120300,5
62118,120270,5
62071,120233,4
62065,120183,5
62031,120109,5
61998,120089,5
61950,120065,5
61988,120068,4
62002,120078,5
62006,120095,5
61989,120094,5
62003,120071,4
61975,120019,5
61912,119916,5
61912,119866,5
61866,119841,5
61872,119853,4
61873,119868,5
61932,119875,5
61877,119860,5
61865,119831,5
61828,119777,4
61842,119730,5
61778,119695,5
61760,119644,5
61733,119605,5
61738,119604,5
61721,119595,4
61703,119570,5
61667,119477,5
61623,119394,5
61554,119295,4
61496,119198,5
61478,119184,5
61512,119206,5
61550,119313,4
61572,119345,5
61552,119297,5
61530,119216,5
61538,119284,5
61568,119338,4
61590,119373,5
61615,119402,5
61651,119462,5
61679,119511,5
61700,119554,4
61748,119658,5
61787,119691,5
61825,119763,4
61884,119826,5
61908,119923,4
61928,119908,6
61956,119949,3
61954,119943,5
61954,119964,5
61949,119934,4
61955,119936,5
61963,119947,5
61967,119975,5
61972,119956,4
61975,119967,5
61974,119978,5
61978,119977,5
61971,119972,5
61978,119973,4
61973,119960,5
61965,119959,5
61971,119970,5
61990,119991,5
61997,119997,4
61994,119984,5
61977,119955,5
61955,119929,6
61945,119917,4
61927,119893,4
61910,119855,5
61869,119795,5
61834,119738,5
61805,119699,5
61791,119683,4
61785,119673,5
61789,119671,5
61777,119668,5
61786,119677,4
61780,119668,5
61786,119662,5
61791,119672,5
61784,119667,5
61776,119655,4
61777,119648,5
61773,119643,5
61768,119651,5
61771,119647,5
61770,119648,5
61778,119648,4
61765,119662,5
61781,119658,5
61792,119670,6
61795,119674,3
61792,119671,5
61793,119678,5
61799,119673,5
61795,119676,5
61801,119679,4
61803,119687,5
61812,119669,5
61809,119687,5
61818,119722,4
61817,119704,5
61805,119705,5
61820,119701,5
61813,119679,5
61795,119680,4
61793,119671,5
61800,119665,5
61789,119666,5
61780,119648,5
61778,119635,4
61761,119632,6
61757,119612,4
61746,119596,5
61738,119586,5
61739,119583,6
61737,119574,3
61731,119573,5
61727,119580,5
61727,119564,5
61721,119551,4
61719,119552,5
61722,119569,5
61726,119565,5
61726,119570,4
61746,119589,4
61755,119602,5
61768,119620,5
61779,119633,5
61775,119635,4
61784,119649,5
61790,119659,5
61784,119648,5
61789,119656,5
61785,119662,4
61785,119658,5
61769,119649,6
61771,119636,4
61771,119633,5
61752,119611,4
61711,119585,5
61732,119561,5
61695,119528,5
61673,119486,5
61618,119452,4
61644,119424,5
61623,119394,5
61606,119358,5
61573,119319,4
61567,119286,4
61560,119261,5
61559,119282,5
61600,119304,5
61596,119353,4
61633,119396,5
61651,119429,5
61710,119436,5
61678,119471,5
61688,119460,4
61658,119449,5
61694,119435,5
61653,119427,6
61625,119376,4
61605,119331,4
61604,119318,5
61594,119329,5
61602,119335,5
61597,119330,5
61599,119309,4
61601,119333,5
61607,119339,5
61615,119346,5
61614,119325,4
61617,119383,4
61637,119392,5
61642,119393,5
61651,119361,5
61657,119417,4
61660,119420,5
61656,119404,5
61646,119398,5
61649,119417,5
61664,119424,5
61686,119431,4
61671,119489,5
61686,119461,5
61705,119476,6
61716,119489,3
61717,119545,5
61721,119512,5
61729,119519,5
61739,119538,5
61741,119575,4
61742,119549,5
61752,119566,5
61763,119579,5
61769,119584,4
61773,119586,4
61770,119581,5
61768,119561,5
61757,119565,5
61762,119565,4
61756,119551,5
61749,119556,5
61742,119542,5
61745,119548,5
61737,119539,4
61738,119526,6
61731,119521,4
61725,119532,5
61729,119517,5
61719,119516,4
61719,119523,5
61731,119525,5
61729,119531,5
61729,119541,5
61734,119545,4
61739,119543,5
61732,119552,5
61733,119547,5
61750,119558,4
61749,119562,5
61748,119571,5
61763,119582,5
61770,119585,5
61775,119593,4
61778,119618,5
61792,119618,5
61789,119617,5
61796,119630,5
61791,119632,4
61796,119631,5
61792,119626,6
61791,119620,4
61798,119615,5
61788,119610,4
61782,119596,5
61762,119578,5
61757,119562,5
61754,119551,5
61734,119520,4
61708,119488,5
61693,119453,5
61682,119438,5
61672,119418,4
61665,119399,5
61642,119369,5
61622,119345,5
61616,119339,5
61628,119360,4
61652,119394,5
61671,119436,5
61708,119473,5
61724,119498,5
61732,119524,4
61755,119534,5
61753,119547,5
61746,119514,6
61737,119500,4
61730,119492,4
61693,119432,5
61662,119393,5
61658,119383,5
61653,119380,5
61653,119381,4
61656,119387,5
61668,119391,5
61672,119400,5
61674,119412,4
61690,119436,5
61706,119463,5
61713,119472,5
61717,119476,5
61734,119489,4
61735,119493,5
61745,119508,5
61762,119524,5
61756,119524,5
61766,119534,5
61771,119541,4
61777,119553,5
61766,119558,5
61795,119583,5
61794,119584,4
61804,119593,5
61773,119615,5
61822,119620,5
61823,119621,5
61821,119634,4
61804,119640,5
61840,119649,5
61838,119648,5
61854,119655,4
61836,119668,5
61854,119652,5
61868,119674,5
61863,119670,5
61886,119658,4
61855,119669,5
61861,119660,5
61853,119660,5
61889,119650,5
61843,119636,4
61830,119635,6
61832,119622,4
61850,119603,5
61816,119597,5
61807,119595,4
61811,119586,5
61813,119587,5
61801,119578,5
61792,119567,5
61788,119564,4
61782,119540,5
61790,119566,5
61787,119567,5
61800,119573,4
61804,119543,5
61807,119586,5
61803,119587,5
61807,119592,5
61820,119558,4
61818,119613,5
61831,119616,5
61832,119623,5
61830,119615,5
61827,119610,4
61828,119621,5
61842,119612,6
61834,119653,4
61833,119619,5
61822,119607,4
61818,119607,5
61833,119650,5
61821,119609,5
61820,119601,5
61813,119609,4
61814,119611,8
61812,119588,2
61807,119580,5
61797,119573,4
61805,119556,5
61769,119519,5
61758,119498,5
61742,119467,5
61718,119443,4
61701,119410,5
61680,119380,5
61667,119348,5
61647,119326,5
61633,119316,4
61622,119293,5
61602,119253,5
61586,119222,5
61574,119208,5
61573,119201,4
61572,119222,5
61603,119245,5
61606,119276,5
61641,119321,4
61667,119353,4
61679,119369,5
61678,119391,5
61686,119411,5
61696,119399,4
61672,119369,5
61675,119369,5
61662,119337,5
61620,119273,5
61598,119240,4
61586,119221,5
61587,119223,5
61577,119207,5
61581,119202,5
61574,119199,5
61576,119204,4
61588,119221,5
61579,119228,5
61598,119245,5
61612,119259,4
61624,119273,5
61639,119297,5
61642,119300,5
61653,119323,4
61652,119323,4
61653,119322,5
61662,119334,5
61677,119352,5
61685,119364,4
61687,119367,5
61688,119380,5
61705,119385,5
61697,119388,5
61707,119394,4
61712,119406,5
61720,119413,5
61736,119430,5
61735,119442,5
61753,119458,4
61737,119469,6
61755,119466,4
61757,119477,5
61756,119469,5
61768,119484,4
61764,119485,5
61751,119470,5
61760,119465,5
61755,119483,5
61767,119495,4
61763,119485,5
61750,119479,5
61754,119477,5
61748,119480,4
61751,119470,5
61748,119470,5
61756,119471,5
61754,119479,5
61755,119465,4
61757,119485,5
61761,119491,5
61766,119501,6
61774,119503,4
61777,119504,4
61789,119519,5
61796,119522,5
61799,119533,5
61786,119550,5
61811,119568,4
61820,119578,5
61833,119603,5
61808,119619,5
61846,119630,4
61864,119659,4
61889,119673,5
61842,119680,5
61897,119706,5
61898,119699,4
61901,119704,5
61898,119696,5
61907,119698,5
61905,119707,5
61915,119709,5
61945,119714,4
61921,119735,5
61928,119735,5
61933,119751,6
61985,119756,3
61942,119767,5
61941,119780,5
61946,119793,5
61993,119798,5
61962,119806,4
61947,119796,5
61948,119796,5
61978,119811,5
61959,119806,4
61959,119808,4
61959,119819,5
61968,119785,5
61947,119776,5
61955,119757,4
61925,119729,5
61916,119674,5
61916,119719,5
61937,119756,5
61964,119808,4
61999,119798,6
61996,119822,4
61917,119679,5
61825,119525,5
61775,119431,6
61727,119355,3
61648,119207,5
61554,119054,5
61496,118996,5
61450,118888,4
61437,118872,5
61449,118908,5
61477,118992,5
61499,118977,4
61473,118916,4
61423,118822,5
61405,118838,5
61462,118929,5
61522,119025,4
61610,119176,5
61684,119294,5
61727,119340,5
61735,119341,5
61703,119278,4
61695,119263,5
61709,119311,6
61759,119372,4
61802,119434,5
61789,119375,4
61656,119111,5
61492,118861,5
61412,118781,5
61415,118780,5
61452,118854,4
61513,118988,5
61606,119131,5
61623,119094,5
61450,118714,4
61121,118149,4
60903,117845,5
60902,117862,5
60979,118019,5
61075,118173,4
61149,118293,5
61176,118320,5
61078,118064,5
60879,117703,5
60728,117467,4
60585,117135,5
60399,116833,5
60301,116713,6
60311,116727,4
60296,116686,4
60308,116729,5
60336,116784,5
60362,116815,5
60365,116801,5
60291,116655,4
60230,116553,5
60224,116562,5
60271,116649,5
60314,116732,4
60385,116868,4
60506,117068,5
60489,116999,5
60393,116813,5
60312,116692,4
60275,116610,5
60216,116499,5
60174,116423,5
60137,116369,5
60173,116457,5
60212,116495,4
60241,116538,5
60277,116637,5
60345,116749,6
60334,116703,3
60225,116494,5
60103,116267,5
60035,116158,5
59960,116033,5
59962,116075,4
60027,116189,5
60043,116162,5
59925,115915,5
59718,115509,4
59512,115179,4
59474,115180,5
59523,115233,5
59542,115317,5
59638,115469,4
59677,115513,5
59690,115513,5
59632,115412,5
59566,115301,5
59570,115342,4
59658,115508,6
59731,115653,4
59775,115697,5
59771,115681,5
59716,115573,4
59633,115418,5
59598,115401,5
59672,115563,5
59811,115807,5
59848,115835,4
59823,115765,5
59814,115763,5
59839,115811,5
59844,115912,4
59889,115876,4
59815,115760,5
59778,115699,5
59747,115759,5
59830,115788,4
59769,115666,5
59749,115681,5
59869,115921,5
60006,116152,5
60112,116309,4
60178,116411,5
60268,116548,6
60325,116701,4
60429,116888,5
60531,117067,4
60687,117270,5
60717,117372,5
60773,117475,5
60862,117618,5
60955,117709,4
60972,117802,5
61034,117913,5
61134,118057,5
61213,118193,4
61284,118317,5
61351,118446,5
61410,118561,5
61470,118603,5
61515,118724,4
61556,118790,5
61572,118776,5
61540,118706,5
61536,118734,5
61533,118747,4
61532,118738,5
61532,118715,5
61547,118777,6
61568,118818,4
61586,118842,4
61599,118883,5
61622,118900,5
61647,118921,5
61662,118956,5
61663,119009,4
61672,118983,5
61687,119002,5
61702,119016,5
61699,119080,4
61713,119030,5
61717,119035,5
61732,119060,5
61740,119104,5
61744,119088,4
61747,119088,5
61751,119118,5
61766,119122,5
61765,119131,5
61768,119119,5
61759,119126,4
61762,119125,5
61759,119124,5
61757,119123,5
61757,119120,4
61761,119128,5
61753,119119,5
61763,119123,5
61763,119117,5
61771,119135,4
61768,119155,5
61780,119163,5
61787,119172,5
61792,119187,4
61799,119198,5
61817,119208,5
61808,119211,5
61812,119214,5
61801,119183,4
61782,119165,5
61764,119119,5
61743,119111,5
61726,119058,5
61676,118992,4
61657,118946,6
61638,118927,4
61629,118909,5
61621,118883,5
61602,118875,4
61600,118854,5
61593,118860,5
61602,118866,5
61598,118864,5
61603,118875,4
61614,118875,5
61619,118876,5
61625,118882,5
61619,118893,4
61628,118900,5
61633,118894,5
61635,118899,5
61638,118910,5
61637,118917,4
61641,118919,5
61652,118920,5
61644,118925,5
61656,118924,5
61659,118937,4
61662,118947,5
61668,118946,6
61676,118951,4
61670,118955,5
61675,118969,4
61693,118976,5
61684,118964,5
61674,118962,5
61671,118972,5
61669,118962,4
61662,118953,5
61673,118953,5
61668,118940,5
61666,118928,4
61654,118920,5
61639,118894,5
61636,118885,5
61632,118882,5
61623,118868,4
61622,118881,5
61623,118879,5
61627,118874,5
61626,118859,5
61615,118866,4
61620,118866,5
61619,118866,5
61618,118871,5
61625,118872,5
61618,118862,4
61618,118843,5
61612,118847,5
61612,118845,5
61614,118843,4
61611,118840,4
61585,118830,5
61603,118818,5
61597,118819,5
61589,118807,4
61549,118790,5
61579,118792,5
61573,118769,5
61568,118769,5
61519,118761,4
61550,118751,5
61544,118736,5
61543,118726,5
61543,118721,5
61533,118703,5
61526,118703,4
61526,118699,5
61573,118718,5
61547,118721,5
61538,118712,4
61520,118692,5
61551,118677,5
61481,118637,5
61467,118616,4
61448,118583,4
61434,118519,5
61385,118490,5
61372,118451,5
61357,118438,4
61358,118428,5
61355,118427,5
61352,118414,5
61346,118417,5
61344,118387,4
61351,118418,5
61358,118423,5
61360,118431,5
61362,118393,5
61362,118431,4
61376,118440,11
61376,118440,4
61379,118455,5
61371,118465,4
61389,118464,5
61395,118465,5
61388,118464,5
61394,118510,4
61398,118476,4
61397,118482,5
61404,118505,5
61423,118566,5
61417,118519,4
61408,118516,5
61430,118535,5
61423,118541,5
61420,118507,5
61416,118510,4
61421,118505,5
61401,118498,5
61400,118480,6
61395,118480,4
61396,118471,4
61390,118454,5
61371,118445,5
61363,118414,5
61352,118405,5
61339,118402,4
61334,118385,5
61340,118383,5
61326,118385,5
61328,118368,4
61306,118359,4
61307,118348,5
61301,118344,5
61304,118324,5
61303,118341,4
61302,118329,5
61299,118323,5
61296,118315,5
61295,118329,5
61298,118322,5
61297,118323,4
61300,118326,5
61293,118317,5
61286,118303,6
61285,118295,3
61268,118289,5
61254,118280,5
61253,118259,5
61242,118242,5
61232,118212,4
61208,118196,5
61200,118182,5
61194,118176,5
61193,118158,4
61184,118131,4
61176,118117,5
61155,118101,5
61172,118117,5
61176,118158,4
61210,118184,5
61211,118200,5
61234,118225,5
61229,118222,5
61233,118213,4
61219,118201,6
61212,118214,4
61212,118194,5
61186,118126,5
61161,118103,6
61154,118104,3
61158,118097,5
61153,118101,5
61156,118097,5
61146,118082,4
61155,118094,5
61155,118090,5
61169,118109,5
61162,118114,4
61174,118119,5
61174,118113,5
61171,118108,5
61172,118114,5
61177,118127,4
61182,118120,5
61177,118136,5
61192,118145,5
61192,118158,5
61197,118165,4
61209,118163,5
61215,118189,6
61230,118207,4
61231,118207,5
61228,118210,4
61236,118217,5
61252,118227,5
61252,118257,5
61264,118264,5
61274,118271,4
61280,118287,5
61293,118308,5
61301,118311,5
61305,118322,4
61284,118326,5
61302,118328,5
61296,118316,5
61304,118337,5
61264,118329,4
61305,118320,5
61298,118317,5
61299,118313,5
61263,118318,5
61284,118309,4
61284,118295,5
61280,118294,5
61299,118299,6
61282,118295,4
61275,118293,4
61277,118297,5
61321,118298,5
61275,118293,5
61265,118290,4
61287,118294,4
61324,118304,5
61289,118315,5
61298,118320,5
61303,118329,4
61324,118334,5
61310,118350,5
61310,118349,5
61307,118349,5
61307,118341,4
61307,118348,5
61310,118348,5
61314,118368,5
61313,118337,5
61327,118364,5
61330,118382,4
61329,118371,5
61310,118330,5
61321,118351,6
61302,118338,3
61295,118321,5
61274,118273,5
61265,118266,5
61235,118234,4
61207,118203,4
61191,118191,5
61171,118148,5
61167,118134,5
61152,118117,4
61139,118135,5
61124,118073,5
61115,118057,5
61126,118067,5
61145,118129,4
61169,118133,5
61191,118175,5
61226,118216,5
61242,118257,5
61252,118266,4
61261,118286,6
61263,118262,4
61246,118247,5
61228,118230,5
61223,118221,4
61197,118158,5
61164,118122,5
61174,118134,5
61178,118149,4
61183,118163,4
61188,118166,5
61189,118169,5
61185,118165,5
61196,118168,4
61199,118174,5
61200,118183,5
61209,118197,5
61220,118207,5
61235,118224,4
61232,118225,5
61241,118240,5
61242,118242,5
61260,118249,5
61255,118258,4
61260,118261,5
61269,118288,6
61271,118288,4
61284,118300,5
61282,118302,4
61297,118319,5
61302,118311,5
61300,118325,5
61303,118335,4
61309,118331,5
61318,118343,5
61328,118371,5
61335,118379,5
61340,118379,4
61352,118395,5
61347,118390,5
61360,118405,5
61354,118408,5
61350,118395,4
61363,118395,5
61344,118403,5
61348,118411,5
61341,118402,5
61346,118383,4
61340,118385,5
61328,118374,5
61315,118363,6
61325,118361,4
61320,118361,4
61322,118361,5
61318,118358,5
61324,118358,5
61324,118364,4
61321,118362,5
61324,118366,5
61324,118373,5
61329,118373,5
61339,118389,4
61327,118387,5
61336,118385,5
61339,118401,5
61341,118395,5
61347,118403,4
61341,118413,5
61355,118411,5
61357,118419,5
61360,118427,5
61356,118422,5
61363,118429,4
61361,118429,5
61360,118441,5
61356,118437,4
61367,118433,4
61369,118434,5
61357,118438,5
61354,118426,5
61349,118427,4
61358,118427,5
61357,118424,5
61331,118412,5
61351,118417,5
61337,118402,4
61346,118395,5
61313,118395,5
61331,118387,5
61330,118378,5
61325,118364,4
61263,118343,5
61291,118313,5
61277,118297,5
61263,118263,5
61233,118244,4
61224,118217,6
61218,118206,4
61214,118189,5
61233,118155,4
61174,118131,4
61165,118115,5
61166,118124,5
61226,118140,5
61204,118160,4
61217,118212,5
61239,118252,5
61290,118275,5
61279,118287,5
61282,118313,4
61288,118321,5
61300,118310,5
61263,118274,5
61252,118244,5
61238,118232,4
61214,118165,5
61188,118145,5
61181,118144,5
61180,118139,5
61182,118102,4
61191,118142,5
61186,118138,6
61177,118128,4
61187,118095,4
61184,118156,5
61195,118156,5
61209,118170,5
61209,118189,5
61216,118192,4
61219,118204,5
61236,118205,5
61232,118248,5
61241,118233,5
61253,118229,4
61260,118256,5
61262,118306,5
61279,118279,5
61291,118298,5
61282,118301,4
61295,118336,5
61304,118318,5
61299,118326,5
61310,118318,5
61313,118336,4
61321,118328,5
61325,118334,5
61325,118344,5
61339,118354,4
61348,118365,5
61345,118360,5
61343,118373,5
61349,118381,5
61350,118385,4
61343,118378,5
61347,118383,5
61340,118382,5
61342,118373,5
61341,118374,4
61328,118364,5
61337,118352,5
61327,118349,5
61326,118345,5
61321,118346,4
61325,118349,5
61318,118347,5
61320,118353,5
61321,118350,4
61324,118349,6
61323,118351,4
61317,118346,5
61323,118350,5
61332,118361,4
61337,118374,5
61336,118369,5
61347,118387,5
61349,118392,5
61354,118382,4
61347,118385,5
61363,118394,5
61371,118403,5
61363,118420,5
61366,118416,4
61376,118425,5
61373,118438,5
61383,118431,5
61387,118450,5
61381,118458,4
61391,118454,5
61392,118456,5
61396,118465,5
61397,118479,4
61390,118475,5
61396,118480,5
61397,118472,5
61391,118464,5
61393,118460,4
61381,118463,5
61372,118451,5
61376,118426,5
61352,118412,5
61355,118405,4
61338,118375,5
61321,118352,5
61313,118332,5
61295,118319,5
61284,118303,4
61274,118290,5
61276,118286,5
61263,118272,5
61254,118250,5
61239,118233,4
61238,118234,5
61247,118230,5
61255,118245,6
61261,118264,3
61284,118304,5
61304,118358,5
61316,118366,5
61343,118404,5
61347,118416,4
61359,118425,5
61340,118403,5
61333,118377,5
61327,118384,5
61314,118352,4
61292,118314,5
61293,118319,5
61295,118313,5
61263,118308,5
61287,118315,4
61298,118333,5
61303,118337,5
61279,118356,5
61320,118368,4
61334,118382,6
61349,118409,4
61336,118430,5
61374,118440,5
61400,118498,6
61426,118521,3
61451,118539,5
61447,118563,5
61457,118587,5
61474,118614,4
61525,118631,5
61498,118651,5
61516,118694,5
61541,118717,5
61609,118765,4
61591,118815,5
61612,118832,5
61619,118864,5
61662,118908,4
61685,118967,4
61722,119011,5
61725,119029,10
61748,119041,4
61754,119084,5
61764,119087,6
61766,119089,4
61748,119024,5
61720,118990,4
61695,118957,5
61698,118963,5
61697,118924,5
61701,118987,5
61703,118989,4
61704,118985,5
61668,118875,5
61585,118769,5
61535,118682,5
61508,118668,4
61513,118708,5
61539,118724,5
61577,118779,5
61619,118866,4
61663,118954,4
61631,118832,5
61596,118791,5
61601,118817,5
61616,118856,4
61627,118859,5
61650,118881,5
61676,118918,6
61692,118946,4
61646,118828,4
61540,118644,5
61439,118472,5
61353,118349,5
61334,118334,5
61381,118423,4
61438,118521,5
61462,118511,5
61380,118390,5
61344,118331,5
61359,118366,4
61345,118319,5
61298,118256,5
61326,118328,5
61395,118444,4
61442,118522,5
61405,118383,5
61270,118112,5
61006,117663,5
60797,117355,5
60711,117229,4
60688,117205,5
60693,117189,5
60624,117042,6
60473,116751,3
60380,116632,5
60436,116777,5
60541,116975,5
60655,117156,5
60712,117186,4
60597,116969,5
60425,116671,5
60322,116466,5
60182,116208,4
60079,116022,4
59961,115798,5
59858,115632,5
59842,115640,5
59856,115653,4
59897,115753,5
59918,115748,5
59868,115673,5
59865,115670,5
59852,115646,4
59767,115450,6
59689,115332,4
59701,115387,5
59770,115524,5
59819,115585,4
59784,115516,5
59811,115593,5
59880,115672,5
59768,115414,5
59582,115119,4
59540,115083,5
59536,115046,5
59505,115022,5
59554,115129,4
59654,115306,5
59681,115330,5
59714,115435,5
59831,115663,5
59881,115633,4
59670,115237,5
59525,115031,5
59515,115025,5
59461,114888,5
59395,114784,4
59439,114900,5
59518,115019,6
59455,114859,4
59323,114631,5
59215,114415,4
59118,114301,5
59098,114284,5
59114,114291,5
59152,114401,5
59219,114476,4
59160,114328,5
59101,114284,5
59115,114286,5
59066,114209,4
59100,114294,5
59158,114381,5
59158,114334,5
59018,114072,5
58940,113994,4
58951,114008,5
58925,114023,5
59004,114133,5
59051,114167,5
58959,113980,4
58788,113762,5
58786,113726,5
58842,113857,6
58948,114001,4
58998,114088,4
58995,114047,5
58889,113839,5
58804,113730,5
58807,113711,4
58841,113875,4
59012,114195,5
59122,114298,5
59109,114206,5
59018,114140,4
59032,114158,5
58964,113997,5
58855,113720,5
58651,113423,5
58595,113378,4
58690,113584,5
58825,113778,5
58859,113861,5
58930,113955,5
58853,113784,5
58779,113663,4
58764,113687,5
58786,113740,5
58850,113845,5
58876,113876,4
58919,113999,5
58969,114082,5
58965,114058,5
58981,114052,4
59017,114152,5
59070,114289,5
59193,114500,5
59329,114768,5
59434,114925,4
59464,114940,5
59471,114946,5
59474,114977,5
59439,114915,5
59462,114956,4
59509,115064,5
59575,115230,5
59619,115245,5
59620,115230,5
59646,115284,4
59686,115407,6
59769,115511,4
59850,115669,5
59913,115758,5
59907,115738,4
59889,115693,5
59884,115691,5
59891,115711,5
59908,115756,4
59958,115828,5
60005,115924,5
60055,116027,5
60110,116115,5
60153,116184,4
60193,116257,5
60223,116330,5
60270,116398,5
60299,116457,5
60333,116515,4
60356,116550,5
60375,116561,5
60373,116587,5
60394,116599,5
60396,116599,4
60374,116591,5
60369,116556,6
60358,116538,4
60338,116489,4
60294,116428,4
60265,116390,5
60251,116352,5
60225,116319,5
60217,116303,4
60201,116283,5
60206,116265,5
60188,116266,5
60195,116274,5
60194,116260,4
60159,116206,5
60140,116171,5
60112,116129,5
60103,116119,5
60106,116108,4
60084,116072,5
60057,116023,5
60051,116024,5
60054,116012,5
60041,115985,4
60030,115981,5
60047,115992,5
60059,116028,5
60064,116041,4
60074,116072,5
60086,116060,5
60061,116011,5
60015,115923,5
59961,115846,4
59942,115805,5
59923,115798,5
59928,115808,5
59932,115823,5
59933,115816,4
59942,115826,5
59944,115855,5
59963,115876,5
59981,115909,5
59996,115940,4
60028,115982,5
60050,116010,5
60058,116034,5
60052,115996,5
60009,115916,5
59953,115839,4
59930,115801,5
59919,115772,5
59901,115762,4
59891,115735,5
59888,115744,5
59901,115765,5
59906,115759,5
59895,115757,4
59898,115760,5
59907,115775,5
59928,115803,5
59953,115850,5
59964,115883,4
59994,115910,5
60016,115961,5
60036,115998,5
60043,116033,5
60088,116077,4
60111,116113,5
60124,116140,5
60107,116172,5
60168,116188,4
60178,116213,4
60191,116253,6
60195,116284,4
60235,116303,5
60241,116331,4
60266,116353,5
60296,116376,5
60289,116394,5
60295,116411,5
60305,116415,4
60346,116409,5
60310,116431,5
60318,116430,5
60316,116423,5
60347,116421,4
60322,116436,5
60322,116434,5
60311,116420,5
60325,116429,5
60304,116412,4
60309,116411,5
60303,116401,5
60299,116375,5
60294,116389,4
60288,116397,4
60301,116389,5
60290,116364,5
60287,116394,5
60292,116392,4
60292,116389,5
60288,116352,5
60291,116404,5
60297,116406,5
60294,116402,4
60300,116397,5
60303,116417,5
60295,116412,5
60304,116424,5
60313,116458,4
60319,116435,5
60333,116452,5
60317,116460,5
60328,116506,5
60312,116446,4
60311,116446,4
60312,116435,5
60297,116460,5
60299,116415,6
60292,116413,3
60289,116408,5
60273,116406,5
60278,116400,5
60278,116396,4
60282,116404,5
60294,116442,5
60315,116465,5
60327,116475,5
60332,116485,4
60332,116492,5
60326,116477,5
60315,116468,5
60317,116472,5
60306,116422,4
60265,116378,5
60250,116345,5
60241,116332,5
60219,116310,4
60223,116316,4
60223,116316,6
60217,116298,4
60207,116307,5
60212,116286,4
60191,116249,7
60166,116218,3
60131,116139,5
60091,116075,5
60069,116028,4
60055,116020,5
60060,116031,5
60078,116054,5
60106,116114,5
60122,116146,4
60131,116149,5
60125,116120,5
60068,116006,5
59986,115870,5
59932,115791,4
59921,115773,5
59921,115786,5
59926,115789,5
59924,115767,4
59910,115746,5
59887,115714,5
59860,115681,6
59881,115711,4
59917,115764,4
59956,115838,5
60004,115927,5
60036,115949,5
59981,115832,5
59860,115593,4
59753,115447,5
59719,115418,5
59745,115460,5
59788,115551,5
59850,115668,4
59935,115814,5
60007,115926,5
60029,115944,5
59973,115844,5
59920,115766,4
59906,115749,5
59908,115754,5
59917,115788,5
59949,115830,5
59935,115804,4
59915,115767,5
59921,115791,5
59953,115851,6
59994,115920,3
60016,115965,5
60022,115969,5
60046,116004,5
60083,116084,5
60131,116158,4
60168,116223,5
60212,116298,5
60247,116353,5
60265,116385,5
60290,116425,4
60311,116467,5
60310,116482,5
60307,116472,5
60302,116466,4
60298,116452,4
60285,116451,5
60300,116439,5
60291,116432,5
60275,116416,4
60240,116410,6
60284,116425,4
60310,116455,5
60326,116497,5
60307,116511,6
60350,116526,3
60356,116528,5
60342,116512,5
60347,116495,5
60344,116509,4
60333,116476,5
60302,116435,5
60325,116416,5
60282,116404,8
60275,116403,1
60281,116408,5
60309,116409,5
60273,116398,5
60284,116396,4
60285,116412,5
60308,116419,5
60303,116435,5
60310,116452,5
60315,116457,4
60331,116476,5
60330,116477,6
60339,116481,4
60333,116491,5
60353,116482,4
60351,116516,5
60355,116523,5
60360,116539,5
60378,116508,5
60379,116553,4
60393,116578,5
60396,116593,5
60406,116566,5
60409,116600,5
60424,116621,4
60422,116627,5
60430,116657,5
60432,116634,5
60431,116641,4
60437,116652,5
60430,116682,5
60431,116645,5
60439,116638,5
60433,116631,4
60425,116684,5
60427,116632,5
60430,116631,6
60422,116619,4
60420,116639,4
60413,116620,5
60409,116613,5
60420,116619,5
60412,116609,5
60422,116618,4
60419,116622,5
60426,116624,5
60424,116623,5
60420,116622,4
60422,116638,4
60422,116628,5
60418,116633,5
60422,116630,5
60425,116628,4
60426,116638,5
60430,116654,5
60439,116646,5
60429,116658,5
60440,116666,5
60448,116675,4
60448,116681,5
60454,116684,5
60454,116699,6
60455,116703,3
60470,116718,5
60471,116712,5
60471,116717,5
60474,116721,5
60463,116719,4
60477,116732,5
60478,116734,5
60480,116747,5
60474,116750,4
60484,116736,4
60479,116743,5
60470,116741,5
60475,116727,5
60461,116736,4
60460,116724,5
60451,116702,5
60437,116685,5
60420,116650,5
60401,116616,4
60392,116594,6
60394,116592,4
60375,116563,5
60353,116535,5
60341,116514,4
60330,116507,5
60335,116521,5
60360,116555,5
60387,116612,5
60417,116651,4
60445,116691,5
60457,116725,5
60481,116753,5
60505,116789,4
60517,116813,5
60522,116802,5
60519,116818,5
60521,116816,5
60506,116783,4
60482,116755,5
60481,116763,5
60486,116776,5
60492,116768,5
60501,116781,4
60505,116778,5
60507,116795,6
60515,116812,4
60529,116835,5
60542,116849,4
60550,116871,5
60568,116899,5
60579,116930,5
60595,116944,4
60614,116974,4
60621,116980,5
60623,116989,5
60637,117004,5
60640,117010,4
60643,117020,5
60650,117030,5
60655,117039,5
60651,117063,5
60666,117081,4
60676,117075,5
60689,117102,5
60665,117122,5
60702,117131,5
60719,117130,4
60713,117148,5
60678,117146,5
60722,117150,5
60742,117170,5
60741,117175,4
60718,117175,5
60740,117182,5
60748,117171,5
60743,117181,4
60770,117178,4
60742,117165,5
60740,117168,5
60744,117172,5
60780,117160,4
60741,117166,5
60731,117157,5
60733,117148,5
60755,117145,5
60719,117133,4
60706,117128,5
60711,117122,5
60724,117130,5
60701,117108,5
60692,117113,5
60700,117114,4
60706,117096,5
60696,117104,5
60707,117125,5
60703,117119,4
60706,117085,5
60716,117134,5
60714,117140,5
60715,117154,4
60734,117103,5
60729,117163,5
60726,117157,5
60722,117166,5
60735,117157,4
60722,117164,5
60726,117157,5
60723,117152,5
60719,117167,5
60714,117127,4
60697,117115,5
60692,117100,5
60683,117143,5
60675,117078,5
60667,117051,4
60649,117031,6
60645,117046,4
60621,116994,5
60613,116970,5
60601,116952,4
60592,116942,5
60586,116928,5
60582,116908,5
60570,116907,4
60565,116890,5
60563,116887,5
60559,116884,5
60560,116904,5
60584,116931,4
60592,116942,5
60602,116959,5
60616,116972,5
60625,116989,5
60614,116966,4
60600,116961,5
60601,116959,5
60586,116926,5
60570,116893,5
60559,116876,4
60553,116882,5
60551,116878,5
60555,116881,5
60551,116879,4
60560,116877,4
60557,116886,5
60559,116883,5
60566,116886,5
60565,116890,4
60576,116903,5
60569,116902,5
60584,116924,5
60586,116917,5
60593,116921,4
60584,116928,5
60587,116926,5
60585,116917,5
60580,116930,5
60593,116935,4
60596,116944,5
60605,116949,5
60596,116953,5
60601,116945,5
60609,116942,4
60609,116939,5
60603,116948,5
60610,116946,5
60611,116955,4
60614,116962,4
60612,116953,5
60618,116974,5
60619,116969,5
60624,116964,4
60616,116974,5
60618,116960,5
60606,116943,5
60598,116947,5
60601,116937,4
60590,116929,5
60588,116913,5
60581,116907,5
60570,116884,5
60554,116884,4
60561,116875,6
60566,116877,4
60551,116877,5
60556,116867,5
60549,116856,6
60552,116860,3
60555,116865,5
60548,116860,5
60551,116880,4
60554,116870,4
60553,116881,5
60556,116889,5
60561,116878,5
60568,116890,4
60557,116892,5
60578,116899,5
60569,116909,5
60569,116903,5
60561,116900,4
60571,116904,5
60570,116894,5
60571,116901,5
60565,116896,5
60547,116889,4
60568,116888,5
60558,116886,6
60563,116879,4
60526,116887,5
60563,116895,4
60556,116896,5
60562,116881,5
60522,116887,5
60562,116881,4
60555,116885,4
60556,116871,5
60546,116880,5
60547,116862,5
60542,116866,4
60535,116854,5
60565,116846,5
60522,116828,5
60509,116812,5
60489,116790,4
60527,116771,5
60472,116758,5
60456,116724,5
60442,116708,5
60473,116687,4
60421,116670,5
60410,116648,5
60393,116619,6
60384,116589,4
60371,116575,4
60369,116566,5
60358,116560,5
60356,116541,5
60365,116576,4
60378,116611,4
60401,116632,5
60395,116595,5
60401,116645,5
60401,116642,4
60404,116620,5
60390,116579,5
60384,116616,5
60375,116592,5
60360,116563,4
60357,116541,5
60369,116573,5
60363,116581,5
60375,116590,5
60386,116643,5
60402,116630,4
60408,116650,5
60433,116674,5
60445,116754,6
60469,116737,3
60489,116768,5
60506,116799,5
60517,116844,5
60533,116846,4
60555,116876,4
60577,116888,5
60585,116924,5
60598,116946,5
60614,116969,4
60617,116990,5
60640,117010,5
60651,117026,5
60658,117036,5
60667,117057,4
60686,117067,5
60690,117088,5
60703,117087,5
60704,117121,5
60719,117120,4
60726,117138,6
60730,117147,4
60732,117166,5
60738,117155,5
60742,117164,4
60744,117162,5
60737,117149,5
60733,117156,5
60743,117157,4
60736,117152,4
60729,117145,5
60736,117142,5
60729,117137,5
60727,117133,4
60726,117150,5
60731,117145,5
60736,117143,5
60734,117148,5
60740,117143,4
60731,117147,5
60740,117153,5
60749,117153,5
60733,117174,5
60744,117165,4
60752,117177,5
60763,117171,6
60771,117187,4
60765,117191,5
60772,117198,4
60775,117208,5
60767,117211,5
60776,117219,5
60783,117219,4
60803,117249,4
60807,117247,5
60812,117246,5
60820,117255,5
60822,117256,4
60815,117264,5
60810,117264,5
60816,117258,5
60811,117258,5
60822,117259,4
60822,117254,5
60812,117258,5
60804,117237,5
60797,117218,5
60778,117201,4
60766,117189,5
60762,117166,5
60735,117160,6
60733,117142,4
60721,117117,4
60713,117118,5
60712,117110,5
60704,117103,5
60707,117096,4
60702,117091,4
60692,117074,5
60692,117078,5
60690,117072,5
60701,117088,4
60711,117090,5
60724,117113,5
60710,117114,5
60711,117111,5
60708,117110,4
60699,117089,5
60684,117046,5
60678,117038,5
60654,117007,5
60630,116960,5
60601,116925,4
60600,116928,5
60587,116913,5
60585,116911,5
60559,116904,6
60579,116901,3
60575,116884,5
60577,116888,5
60546,116889,4
60584,116902,4
60576,116878,5
60578,116884,5
60560,116888,5
60580,116882,4
60582,116871,5
60584,116868,5
60604,116878,5
60588,116886,5
60580,116879,4
60585,116889,5
60631,116898,5
60589,116906,5
60593,116900,5
60597,116898,4
60637,116909,6
60598,116905,4
60607,116911,5
60596,116903,5
60607,116903,4
60589,116902,5
60603,116910,5
60589,116900,5
60577,116868,4
60588,116878,4
60575,116865,5
60560,116842,5
60558,116804,5
60551,116839,4
60546,116810,5
60528,116796,5
60517,116733,5
60512,116767,5
60511,116770,4
60512,116764,5
60512,116741,5
60516,116769,5
60520,116764,5
60512,116781,4
60520,116790,5
60519,116775,6
60527,116775,4
60522,116776,5
60513,116812,4
60513,116766,5
60524,116777,5
60521,116772,5
60524,116819,4
60538,116795,4
60539,116806,5
60547,116816,5
60564,116841,5
60564,116837,4
60556,116831,5
60563,116835,5
60555,116822,5
60555,116815,5
60546,116807,4
60540,116801,5
60531,116789,5
60526,116778,5
60528,116774,5
60526,116771,4
60520,116775,5
60515,116767,5
60518,116765,6
60509,116756,4
60502,116750,4
60507,116741,5
60491,116737,5
60503,116754,5
60507,116754,5
60506,116743,4
60500,116750,5
60502,116741,5
60492,116733,5
60483,116714,4
60466,116692,5
60461,116659,5
60419,116597,5
60398,116553,5
60385,116526,4
60363,116506,5
60362,116498,5
60352,116487,5
60350,116484,5
60349,116473,5
60342,116467,4
60350,116464,5
60340,116474,5
60338,116466,5
60342,116462,4
60340,116454,5
60336,116450,5
60317,116429,5
60316,116411,5
60312,116393,4
60306,116381,5
60273,116323,5
60247,116282,5
60226,116251,4
60208,116232,5
60206,116223,5
60208,116212,5
60206,116217,5
60216,116224,4
60223,116235,5
60223,116222,5
60192,116200,5
60162,116136,5
60133,116082,4
60091,116023,6
60063,115965,4
60053,115960,5
60043,115926,5
60033,115923,4
60029,115932,5
60036,115931,5
60040,115930,5
60037,115940,5
60037,115929,4
60012,115900,5
60011,115883,5
60018,115914,5
60011,115901,4
60018,115913,5
60011,115896,5
59981,115839,5
59956,115803,5
59946,115787,4
59946,115804,5
59965,115826,5
59984,115874,5
59998,115886,5
60009,115894,4
60011,115916,5
60030,115931,5
60047,115971,5
60068,115999,5
60085,116043,4
60084,116062,5
60113,116080,5
60122,116101,5
60126,116108,5
60096,116112,4
60143,116130,5
60143,116149,5
60165,116163,5
60128,116180,4
60172,116188,5
60169,116181,5
60178,116193,5
60179,116189,5
60181,116195,4
60183,116197,5
60189,116210,5
60239,116240,5
60220,116264,5
60231,116276,4
60231,116274,5
60271,116251,5
60210,116251,5
60208,116252,5
60205,116230,4
60214,116197,5
60174,116184,5
60178,116188,5
60179,116195,5
60189,116189,4
60177,116198,5
60188,116196,5
60182,116209,5
60188,116191,4
60191,116211,5
60198,116222,5
60196,116231,5
60193,116193,5
60205,116229,4
60199,116225,5
60208,116224,4
60199,116194,5
60198,116220,5
60197,116223,5
60207,116227,3
60206,116258,5
60212,116240,5
60232,116268,5
60231,116276,4
60230,116326,5
60244,116295,5
60256,116306,5
60250,116320,5
60265,116369,4
60262,116318,5
60276,116344,5
60274,116349,5
60263,116359,4
60265,116332,5
60261,116326,5
60265,116310,5
60253,116307,5
60239,116308,4
60241,116290,5
60236,116284,6
60240,116281,4
60224,116263,5
60215,116265,4
60209,116240,7
60216,116249,3
60209,116245,5
60214,116240,5
60204,116241,4
60208,116250,5
60212,116245,5
60210,116258,5
60219,116267,5
60217,116278,4
60228,116275,5
60227,116283,5
60231,116299,5
60232,116295,4
60244,116305,5
60246,116309,5
60257,116328,5
60260,116327,5
60254,116337,4
60265,116342,5
60268,116349,5
60276,116346,6
60274,116345,4
60275,116357,4
60270,116346,5
60269,116340,5
60265,116338,5
60267,116330,5
60255,116319,4
60230,116292,5
60217,116261,5
60200,116239,5
60194,116224,5
60176,116201,4
60168,116201,5
60162,116186,5
60168,116182,5
60156,116179,4
60154,116153,5
60150,116168,5
60153,116177,5
60166,116204,5
60197,116240,5
60221,116266,4
60220,116291,5
60236,116302,5
60235,116300,6
60222,116275,3
60232,116275,5
60219,116253,5
60185,116212,5
60161,116171,5
60164,116186,4
60167,116187,5
60165,116174,5
60165,116167,5
60169,116182,5
60158,116185,4
60173,116192,5
60180,116199,5
60176,116201,5
60185,116203,4
60187,116205,5
60194,116213,5
60198,116220,5
60202,116221,5
60213,116230,4
60209,116239,6
60221,116252,4
60221,116257,5
60239,116281,5
60248,116287,6
60253,116309,3
60258,116317,5
60256,116336,5
60277,116328,5
60274,116345,4
60278,116350,5
60275,116368,5
60303,116378,5
60294,116386,5
60301,116374,4
60266,116396,5
60311,116400,5
60314,116405,5
60321,116414,4
60270,116413,5
60318,116411,5
60315,116418,5
60322,116407,5
60317,116412,4
60321,116415,5
60316,116409,6
60318,116410,4
60354,116414,5
60306,116413,4
60309,116398,5
60301,116401,5
60345,116393,5
60311,116399,5
60300,116391,4
60308,116400,5
60335,116401,5
60308,116415,5
60309,116411,5
60306,116415,4
60329,116431,5
60318,116429,5
60330,116433,5
60334,116453,4
60321,116416,5
60329,116455,5
60328,116443,5
60337,116460,5
60333,116419,4
60336,116449,5
60337,116452,5
60341,116461,6
60344,116423,4
60337,116469,4
60342,116465,5
60334,116460,5
60334,116455,5
60319,116442,5
60312,116414,4
60297,116402,5
60295,116422,5
60281,116362,5
60260,116338,5
60238,116319,4
60245,116359,5
60233,116295,5
60228,116280,5
60214,116265,4
60200,116262,5
60192,116231,5
60177,116225,5
60184,116240,5
60203,116268,5
60225,116305,4
60249,116338,5
60259,116367,5
60276,116384,6
60296,116394,3
60285,116386,5
60274,116380,5
60272,116373,5
60263,116345,5
60232,116314,4
60226,116304,5
60231,116303,5
60233,116320,5
60236,116325,5
60239,116331,4
60245,116330,5
60239,116325,5
60254,116349,5
60262,116367,4
60261,116369,5
60267,116387,5
60272,116383,5
60273,116376,5
60269,116363,4
60252,116331,6
60242,116325,4
60208,116291,5
60184,116249,5
60186,116246,4
60187,116264,5
60197,116271,5
60202,116259,5
60167,116195,5
60087,116033,4
59987,115870,5
59932,115807,5
59932,115813,5
59959,115854,5
59994,115921,4
60036,115986,5
60075,116082,5
60148,116191,5
60203,116271,4
60184,116210,5
60130,116123,5
60096,116070,5
60081,116060,5
60099,116086,4
60126,116120,5
60135,116151,6
60133,116115,4
60083,116038,5
60041,115976,4
60040,115974,5
60054,116028,5
60088,116066,5
60121,116137,5
60160,116211,4
60194,116255,5
60229,116307,5
60241,116342,5
60226,116298,5
60207,116268,4
60220,116302,5
60223,116307,5
60232,116303,5
60228,116301,9
60243,116342,0
60261,116383,5
60304,116416,5
60342,116496,5
60364,116544,4
60397,116609,5
60415,116650,5
60418,116650,6
60431,116661,4
60430,116667,4
60431,116667,5
60441,116669,5
60448,116693,5
60460,116742,5
60483,116759,4
60504,116788,5
60502,116795,5
60495,116808,5
60520,116809,5
60510,116816,4
60503,116805,5
60469,116787,5
60490,116784,5
60475,116755,4
60468,116745,5
60419,116712,5
60440,116701,5
60430,116676,5
60429,116670,5
60411,116643,4
60402,116640,5
60400,116631,5
60417,116633,5
60454,116663,4
60434,116688,5
60446,116708,5
60461,116725,5
60508,116744,5
60471,116750,4
60460,116724,5
60454,116720,5
60476,116703,5
60432,116669,5
60409,116634,4
60400,116629,5
60409,116617,5
60402,116633,5
60404,116630,4
60405,116643,5
60404,116611,5
60405,116635,5
60411,116635,5
60409,116658,4
60419,116627,6
60435,116672,4
60425,116667,5
60427,116664,5
60433,116632,4
60429,116671,5
60433,116670,5
60434,116683,5
60449,116692,5
60450,116708,4
60464,116718,5
60461,116735,5
60478,116777,5
60473,116733,5
60476,116731,4
60470,116733,5
60471,116785,5
60469,116739,5
60477,116741,4
60481,116737,5
60482,116768,5
60481,116753,5
60483,116757,5
60486,116749,4
60477,116768,5
60479,116749,6
60464,116736,4
60474,116735,5
60470,116732,4
60471,116735,5
60462,116727,5
60466,116724,5
60459,116727,5
60456,116726,4
60460,116737,5
60462,116730,5
60471,116746,5
60475,116753,5
60463,116757,4
60481,116773,5
60469,116776,5
60480,116773,5
60482,116783,4
60480,116779,5
60486,116794,5
60492,116796,5
60504,116821,5
60508,116817,4
60514,116834,5
60518,116846,5
60526,116855,5
60529,116861,5
60538,116870,4
60538,116870,5
60544,116875,5
60550,116883,5
60549,116883,5
60555,116888,4
60555,116892,5
60565,116904,5
60554,116923,5
60569,116940,5
60570,116944,4
60573,116945,5
60569,116939,5
60572,116937,5
60573,116934,4
60571,116937,5
60564,116932,4
60567,116937,5
60569,116935,5
60564,116947,5
60567,116935,3
60560,116927,5
60553,116909,5
60556,116908,5
60549,116887,4
60529,116865,5
60515,116861,5
60520,116849,5
60515,116854,5
60521,116844,4
60514,116839,5
60514,116824,5
60485,116809,5
60487,116796,5
60493,116804,4
60489,116808,5
60501,116834,5
60525,116880,5
60554,116915,4
60574,116951,4
60600,116991,6
60608,117009,4
60613,116996,5
60602,116987,4
60594,116986,7
60576,116953,3
60554,116908,5
60531,116868,5
60525,116865,4
60526,116859,5
60525,116871,5
60523,116865,5
60519,116853,5
60508,116821,4
60495,116818,5
60498,116824,5
60522,116847,5
60519,116874,5
60534,116885,4
60544,116900,5
60544,116898,5
60488,116815,5
60473,116761,4
60452,116724,5
60410,116642,5
60328,116562,6
60339,116495,4
60321,116484,4
60333,116513,5
60362,116593,5
60451,116705,5
60500,116777,5
60501,116759,4
60427,116527,5
60161,116074,5
59878,115589,5
59738,115385,5
59793,115426,4
59852,115648,5
59990,115919,5
60127,116144,5
60269,116291,5
60227,116242,4
60175,116155,5
60118,116039,5
60070,115931,5
59991,115805,5
59926,115726,4
59932,115752,5
59972,115820,5
59995,115827,6
59972,115797,3
59963,115810,5
60015,115843,5
59990,115825,5
59960,115784,5
60006,115880,4
60057,115891,5
60056,115914,5
60028,115871,5
60003,115797,5
59921,115672,4
59866,115554,5
59755,115349,5
59656,115193,5
59631,115190,5
59643,115208,4
59726,115368,5
59815,115503,5
59813,115525,5
59745,115340,4
59701,115239,5
59658,115203,4
59692,115320,5
59782,115468,5
59862,115541,6
59835,115480,3
59746,115361,5
59711,115264,5
59640,115151,5
59588,115090,4
59593,115119,5
59654,115248,5
59756,115434,5
59872,115651,5
59888,115592,4
59804,115448,5
59783,115432,5
59814,115486,5
59836,115537,5
59888,115631,4
59925,115704,5
59950,115690,5
59856,115482,5
59672,115138,4
59533,114953,5
59508,114899,6
59502,114897,4
59543,114969,5
59621,115112,4
59731,115334,5
59869,115589,5
59940,115642,5
59806,115397,5
59610,115039,4
59486,114862,5
59473,114889,5
59518,114951,5
59529,114952,5
59535,114966,4
59514,114863,5
59391,114666,5
59361,114667,5
59399,114700,5
59368,114650,4
59340,114607,5
59365,114659,5
59382,114655,5
59354,114627,4
59317,114531,5
59232,114371,5
59133,114194,6
59102,114209,4
59246,114491,4
59403,114697,5
59380,114585,5
59167,114181,5
59035,114007,5
59066,114091,4
59152,114262,5
59200,114283,5
59116,114098,5
59022,113983,5
58989,113902,4
58875,113664,5
58753,113483,5
58791,113623,5
58910,113788,5
58882,113678,4
58797,113543,5
58730,113428,5
58677,113321,5
58650,113325,5
58720,113478,4
58823,113642,5
58822,113588,5
58765,113523,6
58823,113665,3
58948,113866,5
58978,113879,5
58920,113787,5
58914,113791,5
58906,113774,4
58850,113641,5
58723,113418,5
58687,113394,5
58743,113500,5
58787,113549,4
58776,113552,5
58808,113616,5
58791,113505,5
58675,113352,5
58650,113347,4
58691,113420,5
58765,113570,5
58853,113690,5
58868,113762,4
58948,113876,6
58912,113732,4
58695,113322,5
58489,113057,5
58448,112936,4
58416,112904,5
58430,112950,5
58499,113142,5
58654,113373,5
58703,113400,4
58594,113155,5
58427,112832,5
58316,112707,5
58356,112813,5
58405,112878,4
58488,112936,5
58427,112883,5
58399,112872,5
58429,112930,5
58518,113023,4
58580,113240,5
58707,113469,5
58713,113384,5
58589,113164,4
58511,113075,5
58531,113116,6
58557,113142,4
58580,113184,5
58645,113312,4
58714,113470,5
58791,113570,5
58822,113626,5
58855,113679,5
58832,113644,4
58846,113685,5
58901,113772,5
59015,114019,5
59128,114225,5
59228,114375,4
59276,114444,5
59303,114474,5
59268,114415,5
59231,114371,5
59249,114436,4
59288,114478,5
59366,114627,5
59458,114803,5
59551,114995,4
59619,115079,5
59677,115171,5
59724,115254,6
59754,115328,4
59773,115333,4
59792,115356,5
59785,115325,5
59766,115308,5
59745,115229,5
59718,115185,4
59685,115144,5
59672,115132,5
59672,115129,5
59682,115121,5
59682,115130,4
59683,115137,5
59686,115148,5
59706,115176,5
59713,115179,5
59719,115207,4
59725,115222,5
59726,115232,5
59734,115243,5
59747,115259,5
59755,115255,4
59761,115262,5
59757,115274,5
59764,115276,5
59769,115291,4
59773,115295,5
59779,115306,5
59782,115307,5
59777,115304,5
59783,115305,4
59777,115302,5
59772,115288,5
59775,115296,5
59763,115273,5
59756,115259,4
59746,115257,5
59742,115230,5
59730,115225,5
59722,115211,5
59715,115195,4
59713,115182,5
59705,115180,5
59705,115165,5
59695,115155,4
59699,115179,6
59706,115188,4
59713,115194,5
59712,115185,5
59714,115168,4
59689,115152,5
59681,115123,5
59675,115124,5
59660,115092,5
59646,115046,7
59608,115017,2
59605,115003,5
59600,115000,5
59597,114993,5
59598,114997,4
59596,114988,5
59599,114993,5
59597,115008,5
59606,115000,5
59598,115008,4
59610,115012,5
59609,115005,5
59614,115015,5
59618,115024,4
59614,115027,5
59627,115026,6
59625,115024,4
59616,115024,5
59622,115030,4
59634,115027,5
59627,115039,5
59638,115041,5
59644,115061,5
59650,115048,4
59650,115064,5
59663,115085,5
59656,115083,5
59670,115082,5
59658,115085,4
59674,115090,5
59679,115110,5
59666,115101,5
59675,115102,5
59685,115111,4
59681,115113,5
59678,115106,5
59680,115107,5
59681,115106,4
59654,115092,5
59676,115089,5
59662,115081,5
59660,115067,5
59619,115072,4
59649,115071,5
59655,115067,5
59656,115076,5
59628,115062,5
59657,115059,4
59648,115067,5
59650,115057,5
59660,115054,5
59645,115053,5
59638,115060,4
59653,115054,5
59697,115062,5
59665,115073,5
59663,115070,4
59662,115077,4
59701,115085,5
59669,115089,5
59668,115090,5
59671,115099,5
59682,115095,4
59669,115101,5
59664,115090,5
59665,115078,5
59657,115073,4
59658,115077,5
59647,115057,5
59642,115041,5
59626,114986,5
59597,114991,4
59589,114963,5
59584,114956,5
59576,114913,5
59571,114931,5
59564,114921,4
59559,114909,5
59540,114870,5
59534,114893,5
59549,114909,4
59568,114948,4
59579,115003,6
59593,114978,4
59604,115005,5
59614,115010,4
59593,115037,7
59591,114995,3
59599,114981,5
59593,114964,5
59567,114951,4
59552,114916,5
59554,114926,5
59550,114917,5
59556,114929,5
59558,114911,4
59550,114907,5
59552,114905,5
59557,114913,5
59553,114919,5
59553,114926,4
59562,114924,5
59568,114924,5
59563,114926,5
59571,114926,4
59574,114932,4
59570,114930,5
59578,114927,6
59570,114940,4
59583,114942,4
59580,114950,5
59588,114952,5
59588,114956,5
59590,114963,5
59602,114965,4
59598,114973,5
59610,114976,5
59618,114982,5
59620,114995,5
59626,114997,4
59617,114999,5
59630,115010,5
59632,115011,5
59633,115009,5
59639,115023,4
59636,115018,5
59646,115016,5
59634,115004,5
59638,115013,5
59642,115017,4
59631,115012,5
59629,115014,5
59640,115004,6
59641,115007,3
59634,115015,5
59631,115004,5
59633,114998,5
59625,114999,5
59627,114993,4
59622,115007,5
59625,114997,5
59620,115000,5
59632,115010,5
59623,115005,4
59635,115007,5
59637,115026,5
59643,115018,5
59645,115028,5
59637,115046,4
59645,115041,5
59652,115052,5
59654,115053,5
59656,115065,4
59656,115056,5
59663,115065,4
59674,115070,5
59678,115079,5
59669,115083,6
59676,115091,3
59672,115093,5
59671,115075,5
59685,115087,5
59685,115089,4
59683,115091,5
59684,115088,5
59675,115080,5
59680,115080,5
59670,115070,4
59676,115075,5
59667,115060,5
59665,115064,5
59654,115051,5
59649,115036,4
59630,115021,5
59619,114985,5
59609,114975,5
59590,114941,4
59579,114922,4
59559,114901,6
59549,114891,4
59539,114869,5
59537,114848,4
59523,114834,5
59497,114835,5
59520,114851,5
59551,114878,5
59567,114910,4
59551,114940,5
59599,114969,5
59613,114998,5
59630,115024,5
59611,115038,4
59661,115046,5
59647,115033,5
59626,115007,5
59629,115005,5
59613,114976,4
59572,114916,5
59559,114876,5
59596,114883,5
59552,114881,4
59555,114881,4
59551,114880,5
59589,114877,6
59559,114883,4
59563,114886,4
59566,114903,5
59579,114920,5
59575,114922,5
59582,114921,5
59583,114940,4
59604,114932,5
59599,114945,5
59602,114957,5
59613,114955,5
59604,114929,4
59617,114981,5
59621,114981,5
59632,115004,5
59637,114962,5
59641,115014,4
59652,115034,5
59658,115034,5
59664,115002,5
59664,115042,5
59657,115045,4
59677,115044,5
59680,115085,5
59687,115072,6
59681,115074,3
59684,115074,5
59685,115137,5
59701,115096,5
59694,115088,5
59692,115086,4
59682,115117,5
59680,115079,5
59690,115076,5
59688,115075,5
59681,115077,4
59678,115064,5
59674,115044,5
59672,115049,5
59673,115044,5
59670,115041,4
59665,115038,5
59664,115026,5
59662,115026,5
59656,115029,4
59652,115029,5
59648,115025,4
59650,115024,5
59648,115014,5
59648,115021,4
59651,115026,5
59650,115025,5
59661,115034,5
59662,115041,5
59670,115040,4
59663,115050,5
59673,115057,5
59670,115046,5
59668,115042,5
59671,115055,4
59675,115058,5
59673,115058,5
59681,115069,5
59670,115055,5
59683,115072,4
59688,115078,5
59673,115077,5
59690,115074,5
59682,115078,4
59683,115070,5
59675,115069,6
59671,115068,4
59681,115075,5
59677,115079,4
59679,115089,5
59680,115078,5
59677,115065,5
59679,115062,5
59667,115060,4
59671,115031,5
59655,115037,5
59641,115019,5
59634,114999,5
59626,114984,4
59620,114962,5
59607,114943,5
59585,114927,5
59568,114897,5
59562,114885,4
59546,114869,5
59548,114853,5
59530,114823,5
59509,114798,4
59493,114786,5
59491,114773,5
59494,114779,6
59502,114787,4
59517,114818,4
59532,114839,5
59552,114876,5
59560,114895,5
59573,114910,5
59583,114917,4
59573,114902,5
59562,114889,5
59558,114876,5
59550,114860,5
59524,114809,4
59498,114792,5
59492,114784,5
59491,114775,5
59481,114766,5
59485,114761,4
59491,114762,5
59484,114758,5
59491,114768,5
59496,114779,5
59504,114796,4
59507,114806,5
59504,114805,5
59518,114816,5
59533,114828,4
59535,114835,5
59534,114845,5
59525,114861,5
59549,114861,5
59557,114877,4
59563,114888,5
59532,114901,5
59579,114906,5
59590,114923,5
59592,114932,4
59552,114923,5
59597,114936,5
59596,114951,5
59611,114946,5
59615,114953,4
59606,114947,5
59605,114945,5
59612,114948,5
59649,114961,4
59605,114956,6
59606,114947,4
59613,114947,5
59639,114942,5
59588,114936,4
59591,114930,5
59576,114926,5
59591,114917,5
59568,114900,5
59561,114886,4
59564,114874,5
59555,114880,5
59550,114891,5
59561,114895,5
59559,114902,4
59568,114881,5
59588,114934,5
59595,114940,5
59594,114954,5
59597,114927,4
59601,114971,5
59609,114979,5
59612,114995,5
59625,114978,4
59635,115021,5
59637,115037,6
59645,115043,4
59655,115086,5
59675,115096,4
59683,115099,5
59691,115122,5
59704,115193,5
59720,115165,5
59735,115192,4
59745,115204,5
59751,115265,5
59766,115252,5
59765,115266,5
59782,115291,4
59785,115320,5
59797,115314,5
59810,115328,5
59816,115336,5
59827,115363,4
59832,115365,5
59838,115391,5
59855,115404,5
59869,115432,4
59872,115446,5
59890,115482,5
59907,115511,5
59927,115529,5
59934,115542,4
59940,115557,5
59951,115569,5
59951,115571,5
59948,115573,5
59950,115574,4
59951,115562,5
59943,115564,5
59954,115569,5
59960,115568,5
59951,115575,4
59967,115579,5
59961,115579,5
59960,115584,5
59964,115582,4
59968,115602,4
59983,115626,5
59988,115625,5
59986,115621,5
59992,115618,10
59981,115593,4
59964,115569,5
59955,115554,5
59943,115525,4
59906,115479,5
59891,115442,5
59877,115442,5
59875,115432,5
59874,115425,4
59877,115423,5
59874,115430,5
59879,115443,5
59878,115435,5
59894,115458,4
59899,115463,5
59912,115478,5
59925,115486,5
59927,115496,4
59923,115500,4
59926,115505,6
59930,115503,4
59942,115514,5
59948,115518,4
59951,115523,7
59950,115530,3
59955,115540,5
59967,115555,5
59977,115562,4
59981,115572,5
59985,115580,5
59984,115578,5
59988,115581,5
59998,115587,4
59989,115591,5
59986,115581,5
59994,115582,5
59994,115574,5
59990,115566,4
59980,115568,5
59996,115553,5
59978,115554,5
59973,115554,4
59961,115537,4
59961,115522,5
59966,115509,6
59941,115494,4
59941,115502,4
59932,115488,5
59930,115481,5
59943,115482,5
59939,115486,5
59937,115491,4
59937,115493,5
59948,115503,5
59949,115498,5
59947,115512,5
59930,115509,4
59960,115518,5
59964,115532,5
59969,115535,5
59934,115549,5
59990,115575,4
60005,115572,5
59998,115586,5
59966,115591,5
60006,115595,5
60015,115601,4
60009,115587,5
60004,115574,5
59989,115576,6
59994,115591,3
59989,115588,5
60033,115578,5
59976,115548,5
59953,115519,5
59931,115498,4
59964,115480,5
59910,115453,5
59886,115416,5
59856,115345,5
59840,115280,4
59775,115217,5
59761,115190,5
59757,115195,5
59771,115200,5
59732,115135,4
59656,114986,5
59588,114856,5
59527,114741,5
59494,114750,4
59489,114731,5
59474,114689,4
59451,114602,5
59452,114682,5
59468,114703,6
59463,114668,3
59415,114557,5
59391,114560,5
59383,114540,5
59401,114578,4
59425,114630,5
59447,114672,5
59461,114677,5
59466,114688,5
59489,114775,4
59509,114784,5
59552,114830,5
59550,114821,5
59523,114828,5
59503,114713,4
59492,114709,5
59524,114762,5
59564,114887,5
59631,114976,4
59700,115090,4
59727,115097,6
59647,114937,4
59541,114768,5
59504,114726,4
59532,114781,5
59577,114833,5
59589,114877,5
59595,114846,5
59530,114703,4
59432,114536,5
59376,114460,5
59351,114420,5
59352,114439,5
59389,114512,4
59421,114555,5
59409,114544,5
59422,114555,5
59423,114533,5
59378,114444,4
59324,114382,5
59334,114407,5
59375,114496,5
59458,114618,4
59496,114664,4
59471,114625,5
59428,114521,6
59332,114381,4
59289,114352,4
59338,114427,5
59388,114522,5
59398,114497,5
59303,114260,5
59146,113992,4
59037,113824,5
58972,113736,5
58973,113744,5
58963,113709,5
58961,113685,4
58949,113656,5
58917,113613,5
58916,113618,5
58963,113723,5
59026,113824,4
59060,113835,5
58998,113715,5
58936,113594,5
58854,113454,5
58814,113436,4
58859,113510,5
58889,113552,5
58915,113620,6
58977,113744,3
59031,113821,5
59049,113848,5
59019,113781,5
58946,113645,5
58881,113522,4
58872,113549,5
58906,113575,5
58892,113537,5
58860,113488,5
58843,113472,4
58855,113512,5
58903,113611,5
59002,113793,5
59065,113894,5
59072,113876,4
59049,113874,5
59066,113905,5
59058,113859,5
59013,113769,4
58964,113682,5
58917,113613,4
58915,113635,5
58963,113714,5
58989,113734,4
58944,113621,5
58884,113522,5
58865,113511,5
58879,113529,5
58893,113549,4
58908,113573,5
58940,113656,5
58983,113767,5
59044,113852,5
59094,113918,4
59080,113894,5
59080,113878,5
59091,113923,5
59124,113968,5
59109,114024,4
59180,114065,5
59215,114129,5
59251,114198,5
59234,114240,5
59311,114298,4
59341,114347,6
59342,114351,4
59347,114381,5
59366,114394,4
59384,114421,5
59390,114432,5
59425,114442,5
59401,114456,5
59420,114481,4
59421,114492,5
59477,114489,5
59438,114496,5
59432,114499,5
59442,114504,4
59477,114515,5
59448,114512,5
59440,114513,5
59444,114518,5
59454,114518,4
59459,114520,5
59461,114530,5
59459,114531,5
59464,114518,5
59463,114542,4
59480,114549,5
59481,114546,6
59482,114521,4
59482,114560,4
59480,114544,5
59476,114547,5
59469,114489,5
59458,114525,5
59457,114526,4
59450,114513,5
59448,114501,5
59438,114496,5
59438,114489,5
59436,114474,4
59435,114514,5
59429,114464,5
59418,114459,5
59423,114470,5
59430,114534,4
59431,114476,5
59435,114474,5
59428,114459,5
59411,114458,5
59398,114416,4
59397,114401,5
59375,114364,5
59334,114324,5
59315,114296,4
59312,114274,5
59307,114290,5
59302,114269,5
59291,114258,5
59300,114247,4
59290,114244,5
59293,114255,5
59299,114241,5
59286,114239,5
59295,114244,4
59306,114236,5
59303,114244,5
59305,114253,5
59295,114247,5
59308,114246,4
59297,114241,5
59300,114246,5
59306,114250,5
59309,114252,4
59305,114250,5
59316,114274,4
59313,114267,5
59318,114263,5
59312,114260,4
59324,114275,5
59329,114284,5
59332,114279,5
59326,114281,5
59340,114305,4
59345,114315,5
59342,114304,5
59346,114309,5
59341,114312,5
59344,114309,4
59341,114289,5
59335,114287,5
59335,114277,5
59325,114278,5
59321,114264,4
59303,114247,5
59306,114254,5
59312,114254,5
59299,114250,4
59292,114249,4
59290,114248,6
59292,114238,4
59302,114248,5
59292,114259,4
59303,114241,5
59300,114238,5
59294,114252,5
59297,114241,5
59290,114246,4
59293,114240,5
59296,114220,5
59281,114218,5
59280,114206,5
59267,114196,4
59260,114183,5
59250,114177,5
59239,114163,5
59229,114130,5
59224,114130,4
59222,114114,5
59209,114097,5
59202,114084,5
59198,114071,4
59195,114088,4
59214,114116,5
59239,114162,5
59261,114186,5
59269,114213,4
59279,114217,5
59283,114204,5
59269,114212,5
59276,114212,5
59270,114190,4
59233,114153,5
59240,114140,5
59234,114148,5
59238,114156,5
59229,114175,4
59245,114168,5
59230,114163,5
59244,114163,5
59250,114172,5
59260,114188,4
59228,114191,5
59274,114207,5
59280,114216,5
59274,114217,5
59249,114224,4
59285,114233,5
59296,114246,5
59301,114261,5
59290,114265,4
59307,114279,5
59316,114301,5
59342,114328,5
59383,114358,5
59359,114363,4
59365,114375,5
59372,114384,5
59425,114392,5
59390,114415,5
59406,114434,4
59419,114443,5
59452,114459,5
59428,114473,5
59449,114492,5
59454,114504,4
59467,114514,6
59457,114512,4
59453,114507,5
59452,114517,4
59463,114511,6
59466,114540,3
59465,114548,5
59471,114536,5
59466,114500,4
59466,114534,5
59466,114541,5
59471,114547,5
59464,114504,5
59469,114535,4
59463,114540,5
59474,114543,5
59467,114544,5
59463,114537,5
59472,114539,4
59471,114550,5
59467,114597,5
59480,114569,5
59481,114586,5
59486,114599,4
59499,114646,5
59499,114617,6
59511,114617,4
59500,114627,4
59508,114648,4
59502,114626,5
59503,114616,5
59500,114617,5
59493,114602,4
59471,114570,5
59469,114555,5
59451,114530,5
59445,114516,5
59439,114513,4
59437,114501,5
59427,114497,5
59419,114495,5
59423,114486,5
59432,114505,9
59449,114535,0
59459,114561,5
59475,114579,5
59481,114575,5
59486,114600,4
59487,114578,5
59481,114590,5
59486,114589,6
59473,114566,3
59438,114511,4
59434,114496,5
59422,114499,5
59432,114501,5
59439,114500,4
59438,114497,5
59433,114498,5
59441,114504,5
59439,114515,5
59446,114507,4
59454,114512,5
59451,114520,5
59454,114521,5
59467,114531,5
59468,114538,4
59462,114535,5
59468,114538,5
59465,114540,5
59475,114556,5
59478,114548,5
59486,114563,4
59487,114573,5
59493,114572,5
59499,114590,6
59510,114603,3
59513,114603,5
59516,114617,5
59513,114615,5
59529,114630,4
59522,114625,5
59529,114628,5
59526,114646,5
59530,114630,5
59537,114642,4
59542,114650,5
59544,114650,5
59538,114638,5
59529,114644,5
59536,114643,4
59543,114648,5
59528,114645,5
59537,114636,5
59532,114631,5
59520,114618,4
59525,114611,6
59520,114609,4
59505,114600,5
59506,114603,4
59506,114604,4
59509,114603,5
59500,114592,5
59499,114590,5
59495,114589,4
59494,114579,5
59504,114582,5
59498,114587,5
59502,114581,5
59504,114585,4
59497,114588,5
59516,114589,5
59495,114586,5
59493,114591,5
59504,114595,4
59507,114587,5
59506,114592,5
59494,114589,5
59502,114596,5
59513,114604,4
59513,114600,5
59476,114583,6
59506,114588,4
59510,114592,4
59496,114588,4
59462,114578,5
59491,114559,5
59483,114547,5
59464,114532,4
59438,114515,5
59431,114479,5
59422,114449,5
59407,114433,5
59426,114422,4
59382,114405,5
59385,114379,5
59374,114372,5
59403,114359,5
59338,114340,4
59348,114352,5
59373,114365,5
59418,114396,5
59409,114437,5
59421,114458,4
59428,114474,5
59449,114498,5
59446,114485,6
59429,114478,3
59426,114471,4
59423,114451,5
59407,114415,5
59374,114375,5
59375,114376,4
59364,114327,5
59369,114375,5
59375,114381,5
59378,114380,5
59385,114348,4
59395,114399,5
59390,114408,5
59399,114429,5
59407,114428,5
59423,114466,4
59434,114472,5
59443,114493,5
59449,114535,5
59451,114512,5
59469,114535,5
59470,114553,4
59477,114623,5
59497,114593,5
59509,114608,4
59523,114628,4
59539,114689,5
59541,114671,5
59540,114687,5
59558,114700,4
59571,114728,5
59581,114747,5
59597,114766,5
59619,114797,5
59637,114846,4
59659,114864,5
59676,114917,5
59692,114935,5
59699,114962,5
59714,114968,4
59711,114965,5
59714,114971,5
59721,114981,5
59724,114991,5
59730,115005,4
59721,114986,6
59729,114996,4
59723,115000,5
59727,115002,4
59730,115014,4
59744,115008,5
59738,115015,5
59748,115008,5
59746,115020,4
59743,115026,5
59740,115027,5
59751,115039,5
59761,115055,5
59763,115064,4
59782,115080,5
59782,115098,5
59788,115119,5
59811,115149,5
59824,115177,4
59838,115188,5
59848,115214,5
59860,115220,5
59860,115233,5
59864,115227,4
59865,115243,5
59869,115252,6
59873,115260,4
59874,115265,4
59868,115264,4
59875,115245,5
59875,115249,5
59866,115247,5
59851,115226,4
59839,115216,5
59825,115196,5
59824,115185,5
59815,115179,5
59804,115176,4
59791,115150,5
59782,115138,5
59780,115134,5
59772,115116,5
59775,115118,4
59762,115105,5
59760,115088,5
59752,115065,5
59746,115061,5
59752,115083,4
59752,115074,5
59750,115069,5
59752,115064,5
59748,115053,4
59725,115040,5
59712,115014,5
59705,115005,5
59695,114961,5
59668,114923,4
59643,114913,5
59635,114888,5
59636,114885,5
59632,114881,5
59628,114868,4
59625,114874,5
59624,114867,5
59632,114872,5
59637,114880,5
59631,114886,4
59647,114888,5
59649,114896,5
59639,114891,5
59643,114896,5
59639,114889,5
59637,114885,4
59645,114890,5
59611,114889,5
59647,114906,4
59657,114909,4
59665,114917,5
59625,114928,5
59676,114938,5
59681,114954,4
59687,114955,5
59664,114954,5
59690,114969,5
59704,114964,5
59705,114983,4
59720,114984,5
59704,114997,5
59722,114997,5
59713,115009,5
59765,115017,4
59734,115023,5
59727,115028,5
59729,115034,5
59763,115044,5
59732,115040,4
59738,115042,10
59742,115039,5
59751,115052,5
59737,115058,5
59778,115112,8
59778,115112,5
59775,115132,5
59796,115119,5
59811,115168,8
59813,115192,5
59815,115171,5
59830,115151,8
59845,115212,5
59871,115221,5
59863,115227,5
59856,115221,8
59865,115260,5
59877,115264,5
59909,115310,8
59909,115310,5
59909,115393,5
59918,115328,8
59915,115282,5
59924,115326,5
59951,115357,5
59938,115311,8
59913,115325,5
59904,115330,5
59925,115339,8
59924,115324,5
59936,115337,5
59927,115339,5
59923,115318,8
59923,115318,5
59925,115313,5
59927,115329,8
59927,115322,5
59922,115319,5
59890,115321,8
59906,115287,5
59893,115270,5
59884,115266,5
59874,115239,8
59866,115211,5
59855,115220,5
59852,115205,8
59852,115205,5
59854,115209,5
59851,115206,5
59834,115204,8
59850,115211,5
59863,115227,5
59857,115262,8
59863,115245,5
59854,115192,5
59852,115192,8
59855,115193,5
59759,115060,5
59759,115060,5
59746,115053,8
59733,115022,5
59711,115014,5
59720,114999,8
59724,115000,5
59715,114991,5
59720,114945,5
59722,114967,8
59734,115006,5
59744,115017,5
59725,115009,8
59725,115009,5
59734,115009,5
59736,114985,8
59728,114990,5
59727,114987,5
59733,115004,5
59733,115010,8
59742,115008,5
59732,115010,5
59732,114998,8
59724,114972,5
59695,114935,5
59672,114895,5
59634,114821,8
59634,114821,5
59612,114764,5
59550,114626,8
59465,114507,5
59395,114429,5
59392,114398,8
59369,114375,5
59355,114361,5
59374,114402,5
59403,114446,8
59401,114443,5
59413,114449,5
58998,113673,8
58998,113673,5
59021,113673,5
58921,113600,5
58878,113501,8
58847,113390,5
58742,113191,5
58594,113017,8
58629,113048,5
58694,113124,5
58613,112919,8
58442,112672,5
58373,112524,5
58349,112530,5
58603,112959,8
58603,112959,5
58569,112792,5
58390,112540,8
58291,112387,5
58227,112304,5
58273,112293,5
58126,112079,8
58010,111882,5
57989,111833,5
57973,111806,8
57949,111816,5
58011,111973,5
58311,112459,8
58311,112459,5
58301,112444,5
58319,112523,2
58386,112589,3
58421,112661,5
58437,112642,4
58432,112696,5
58456,112744,5
58502,112805,5
58513,112797,5
58541,112863,4
58522,112842,6
58511,112796,4
58486,112766,5
58478,112753,5
58487,112772,4
58497,112800,5
58533,112900,5
58575,112943,5
58626,113032,4
58661,113074,8
58667,113125,2
58680,113115,5
58692,113134,5
58713,113180,4
58736,113248,5
58770,113289,5
58808,113346,5
58840,113401,5
58869,113470,4
58908,113522,5
58942,113566,5
58977,113622,5
58996,113671,5
59023,113721,4
59057,113763,5
59079,113797,6
59096,113831,4
59114,113850,5
59134,113888,4
59145,113897,5
59144,113900,5
59148,113910,5
59156,113912,4
59156,113909,5
59153,113907,5
59158,113922,5
59163,113919,5
59170,113930,4
59159,113921,5
59156,113915,5
59167,113913,5
59153,113918,5
59154,113913,4
59156,113919,5
59163,113929,5
59169,113927,5
59160,113937,5
59172,113933,4
59176,113949,5
59185,113963,5
59194,113970,6
59199,113977,3
59196,113994,4
59207,114000,5
59215,113994,5
59209,113993,5
59203,113996,4
59220,114010,5
59213,114004,5
59215,114002,5
59218,113995,5
59215,113992,4
59210,113988,5
59192,113982,5
59196,113970,5
59193,113968,5
59179,113959,4
59174,113952,5
59182,113959,5
59186,113966,5
59188,113966,5
59195,113965,5
59179,113976,4
59191,113977,5
59178,113957,5
59182,113961,5
59184,113945,4
59151,113902,5
59122,113860,5
59091,113801,5
59064,113757,4
59053,113741,5
59042,113729,5
59028,113698,5
59005,113670,5
59005,113667,4
59002,113666,5
59002,113667,5
59002,113673,5
58999,113678,5
59008,113686,4
59012,113690,5
59022,113697,5
59026,113705,5
59036,113702,5
59040,113706,4
59049,113723,6
59051,113726,4
59039,113731,5
59054,113727,4
59060,113742,4
59063,113743,5
59058,113752,5
59039,113763,5
59069,113766,4
59081,113778,5
59084,113790,5
59044,113791,5
59101,113806,5
59104,113817,4
59103,113826,5
59073,113818,5
59111,113818,5
59118,113831,5
59125,113843,4
59127,113846,5
59123,113830,5
59125,113829,5
59122,113817,5
59160,113816,4
59115,113812,5
59122,113821,6
59108,113818,4
59155,113804,4
59089,113791,4
59096,113788,5
59094,113785,5
59106,113785,5
59096,113777,4
59082,113789,5
59079,113786,5
59095,113789,5
59097,113786,5
59098,113783,4
59100,113793,5
59098,113777,5
59111,113823,5
59111,113817,5
59125,113828,4
59123,113795,5
59136,113848,5
59133,113858,5
59129,113862,5
59143,113822,4
59138,113863,5
59146,113864,5
59141,113861,5
59139,113869,4
59139,113854,4
59142,113846,5
59130,113852,5
59135,113887,5
59126,113843,4
59121,113835,5
59100,113821,5
59109,113859,5
59097,113807,5
59098,113797,4
59091,113781,5
59084,113800,5
59087,113769,5
59083,113783,5
59102,113812,4
59118,113832,5
59120,113829,5
59134,113837,5
59119,113826,5
59113,113815,5
59107,113812,4
59107,113794,5
59084,113761,5
59057,113720,4
59055,113719,4
59061,113729,5
59060,113729,5
59066,113732,5
59059,113725,4
59058,113709,5
59052,113702,5
59050,113712,5
59059,113718,5
59057,113714,4
59051,113714,5
59067,113722,5
59069,113725,5
59070,113732,5
59078,113748,4
59084,113760,5
59097,113760,5
59086,113759,5
59095,113772,5
59097,113775,4
59107,113797,6
59108,113802,4
59127,113820,5
59135,113831,4
59139,113833,4
59145,113848,5
59153,113854,5
59158,113869,5
59151,113864,4
59171,113881,5
59181,113901,5
59182,113902,5
59172,113899,5
59185,113907,4
59176,113905,5
59173,113891,5
59170,113894,5
59171,113887,5
59165,113890,4
59165,113886,5
59168,113888,5
59177,113883,5
59159,113875,5
59158,113874,4
59163,113878,5
59156,113874,5
59163,113877,5
59150,113874,4
59153,113867,4
59157,113864,5
59157,113885,5
59159,113882,5
59176,113908,4
59182,113919,5
59200,113953,5
59208,113964,5
59229,113995,5
59237,114033,4
59264,114059,5
59280,114084,5
59302,114112,5
59306,114134,5
59321,114147,4
59323,114155,5
59328,114176,5
59330,114170,5
59333,114168,5
59329,114166,4
59327,114170,5
59327,114174,5
59330,114172,5
59331,114167,4
59332,114176,4
59332,114178,5
59320,114172,5
59322,114172,5
59285,114139,4
59308,114144,5
59301,114135,5
59290,114124,5
59251,114113,5
59276,114122,4
59279,114092,5
59263,114084,5
59212,114077,5
59268,114099,5
59287,114124,4
59312,114169,6
59346,114211,4
59378,114278,5
59398,114304,5
59412,114338,6
59464,114349,3
59419,114342,5
59426,114342,5
59425,114351,5
59465,114317,4
59393,114270,5
59378,114269,5
59381,114272,5
59404,114267,4
59376,114256,5
59383,114266,5
59375,114265,5
59399,114273,5
59384,114271,4
59396,114281,5
59406,114284,5
59396,114254,5
59406,114276,5
59404,114282,4
59397,114281,5
59404,114244,6
59394,114253,4
59398,114260,5
59406,114253,4
59403,114210,5
59408,114252,5
59399,114266,5
59407,114250,5
59392,114262,4
59398,114255,5
59414,114261,5
59396,114259,5
59402,114300,4
59410,114273,5
59412,114282,5
59420,114285,5
59416,114323,5
59420,114289,4
59422,114279,5
59420,114275,5
59421,114302,5
59417,114269,5
59412,114268,4
59412,114255,5
59406,114272,5
59406,114242,6
59405,114240,4
59397,114233,4
59393,114235,5
59379,114219,5
59389,114224,5
59389,114213,5
59382,114218,4
59375,114209,5
59381,114209,5
59378,114211,5
59375,114208,4
59377,114200,5
59366,114193,5
59368,114204,5
59367,114199,5
59374,114202,4
59373,114198,5
59375,114210,5
59379,114204,5
59378,114218,5
59378,114223,5
59399,114234,4
59398,114233,5
59405,114248,5
59401,114250,6
59403,114249,3
59399,114247,5
59403,114252,5
59407,114246,5
59396,114242,5
59397,114242,4
59396,114226,5
59386,114219,5
59383,114198,5
59367,114187,4
59355,114172,4
59330,114138,5
59313,114113,5
