RED,IR,EKG,TIME
31564,71149,9
31561,71137,5
31553,71108,5
31501,71003,8
31501,71003,5
31544,71011,5
31543,71036,5
31527,71085,8
31557,71121,5
31580,71151,5
31595,71184,8
31625,71237,5
31649,71284,5
31673,71356,5
31715,71438,8
31750,71481,5
31744,71452,5
31393,70716,8
31393,70716,5
31324,70633,5
31304,70544,8
31267,70442,5
31211,70296,5
31130,70097,5
31011,69824,8
30897,69555,5
30776,69308,5
30676,69088,8
30592,68892,5
30517,68729,5
30479,68635,5
30369,68378,8
30369,68378,5
30377,68437,5
30384,68445,8
30397,68409,5
30373,68387,5
30378,68345,8
30365,68302,5
30340,68276,5
30317,68238,5
30305,68163,13
30305,68163,5
30290,68129,8
30271,68102,5
30278,68106,5
30289,68116,5
30304,68119,8
30318,68188,5
30327,68223,5
30340,68222,8
30340,68222,5
30335,68226,5
30342,68244,8
30378,68343,5
30424,68432,5
30474,68503,5
30501,68561,8
30488,68558,5
30502,68547,5
30493,68535,8
30475,68505,5
30484,68496,5
30449,68462,5
30345,68208,8
30345,68208,5
30329,68184,5
30310,68148,8
30308,68081,5
30263,68031,5
30222,67977,8
30224,67954,5
30218,67923,5
30209,67904,5
30190,67878,8
30169,67845,5
30163,67847,5
30081,67637,8
30081,67637,5
30104,67590,5
30077,67578,5
30033,67574,8
30054,67604,5
30083,67645,5
30111,67721,8
30157,67808,5
30196,67895,5
30241,67994,8
30294,68099,5
30360,68237,5
30485,68469,10
30485,68469,9
30471,68421,5
30448,68388,8
30448,68382,5
30454,68376,5
30494,68477,7
30494,68477,0
30494,68477,3
30540,68573,5
30595,68695,5
30639,68788,5
30650,68813,4
30670,68844,5
30679,68903,5
30736,69028,5
30830,69256,5
30964,69570,4
31150,70005,5
31353,70449,5
31565,70898,5
31771,71315,5
31945,71689,4
32130,72072,5
32308,72413,5
32486,72828,5
32684,73219,5
32863,73562,4
33008,73883,5
33164,74197,5
33301,74499,5
33464,74850,5
33680,75310,4
33929,75799,5
34162,76221,5
34364,76630,5
34567,76998,5
34696,77219,4
34752,77317,5
34793,77424,5
34870,77580,5
34952,77753,4
35038,77914,4
35128,78115,5
35255,78376,5
35436,78726,5
35641,79083,4
35821,79432,5
36000,79759,5
36199,80183,5
36430,80659,5
36713,81220,4
36979,81720,5
37238,82237,4
37523,82154,5
37756,82597,5
37978,83060,6
38241,83573,3
38497,84030,5
38702,84430,5
38912,84854,5
39090,85202,4
39286,85574,5
39504,85904,5
39623,86117,5
39694,86246,5
39790,86435,4
39922,86713,5
40084,86985,5
40203,87188,5
40299,87354,5
40375,87504,4
40442,87625,5
40521,87768,5
40606,87928,5
40673,88017,4
40677,88048,5
40664,88008,6
40635,87971,4
40591,87913,5
40551,87860,4
40555,87867,7
40557,87888,3
40578,87917,5
40589,87937,5
40578,87907,4
40500,87748,5
40420,87625,5
40348,87514,5
40292,87443,5
40258,87373,4
40233,87309,5
40188,87229,5
40182,87243,5
40200,87250,5
40194,87233,4
40176,87200,5
40136,87116,5
40060,86963,5
39971,86811,5
39893,86641,4
39774,86409,5
39627,86095,6
39420,85714,4
39192,85259,4
38958,84807,4
38735,84386,5
38528,84007,5
38379,83752,5
38257,83526,4
38125,83253,5
37965,82941,5
37804,82642,5
37643,82337,5
37472,81958,4
37186,81385,5
36827,80644,5
36441,79908,5
36069,79201,5
35753,78595,4
35473,78085,5
35229,77620,5
35023,77188,5
34799,76720,5
34549,76216,4
34287,75706,5
34082,75257,5
33851,74785,6
33614,74255,4
33357,73743,4
33136,73272,5
32939,72868,5
32777,72512,5
32603,72171,4
32459,71833,4
32317,71508,5
32168,71209,5
32042,70906,5
31923,70686,4
31828,70446,5
31717,70221,5
31622,70010,5
31542,69799,5
31449,69572,4
31351,69340,5
31260,69115,5
31166,68917,5
31100,68740,5
31028,68552,5
30952,68379,4
30899,68219,5
30838,68076,5
30768,67936,7
30733,67859,2
30709,67800,5
30704,67771,5
30686,67727,5
30656,67669,5
30637,67608,4
30605,67544,5
30582,67465,5
30553,67397,5
30517,67344,5
30509,67303,4
30493,67260,5
30471,67205,5
30437,67140,5
30404,67081,4
30392,67038,5
30374,67010,5
30374,66982,5
30368,66987,5
30390,67026,4
30395,67079,6
30436,67155,4
30482,67254,5
30540,67382,5
30609,67519,6
30669,67656,3
30746,67814,5
30818,67967,5
30892,68133,5
30992,68359,4
31123,68615,5
31240,68867,5
31353,69114,5
31482,69371,5
31613,69648,4
31730,69920,5
31849,70163,5
31942,70328,5
32011,70459,5
32071,70576,4
32129,70718,5
32217,70899,5
32312,71103,5
32403,71314,4
32502,71485,5
32571,71663,6
32652,71815,4
32732,71977,5
32809,72132,4
32888,72284,5
32969,72450,5
33047,72630,5
33165,72841,5
33279,73092,4
33382,73309,5
33493,73534,5
33606,73761,5
33719,73986,5
33833,74251,4
33989,74544,5
34144,74850,5
34290,75146,5
34385,75296,5
34422,75347,4
34436,75378,5
34445,75402,5
34439,75401,5
34440,75372,5
34424,75335,4
34384,75273,5
34390,75301,6
34424,75384,4
34463,75423,4
34497,75517,4
34520,75555,5
34485,75467,5
34411,75321,5
34318,75103,4
34201,74927,5
34148,74875,5
34110,74809,5
34080,74759,5
34057,74716,4
34047,74707,5
34035,74690,5
33998,74632,5
33981,74582,5
33936,74501,4
33876,74376,5
33840,74301,5
33825,74287,5
33844,74330,5
33893,74425,4
33958,74548,5
34038,74703,5
34124,74868,6
34196,75008,4
34252,75118,4
34328,75259,5
34419,75440,5
34506,75600,5
34560,75685,5
34586,75763,4
34620,75795,5
34623,75828,5
34643,75838,5
34610,75774,4
34558,75655,5
34496,75554,5
34436,75453,5
34380,75357,5
34329,75234,4
34263,75126,5
34221,75065,5
34185,74977,5
34116,74834,5
34017,74653,5
33930,74481,4
33838,74306,5
33743,74083,5
33596,73802,5
33447,73494,4
33287,73175,5
33151,72928,5
33051,72735,5
32985,72595,5
32916,72474,4
32883,72408,5
32867,72404,5
32898,72464,5
32913,72482,5
32917,72480,4
32885,72417,5
32854,72362,5
32824,72292,5
32792,72221,4
32752,72163,4
32752,72147,5
32755,72175,5
32761,72172,5
32770,72192,4
32768,72170,6
32754,72123,4
32713,72077,5
32691,71994,5
32650,71913,4
32610,71833,5
32578,71760,5
32541,71668,5
32486,71560,5
32432,71439,4
32373,71302,5
32306,71166,5
32244,71039,5
32171,70874,5
32068,70655,4
31943,70362,5
31810,70089,5
31681,69837,5
31589,69665,5
31531,69552,4
31494,69467,5
31473,69414,5
31456,69367,5
31447,69350,4
31430,69336,4
31432,69327,6
31445,69345,4
31455,69364,5
31466,69378,4
31462,69354,5
31441,69323,5
31447,69340,5
31484,69425,5
31537,69533,4
31596,69664,5
31672,69817,5
31740,69970,5
31818,70128,5
31895,70311,4
31983,70476,5
32055,70633,5
32126,70760,5
32187,70861,5
32223,70934,4
32238,70962,5
32252,71004,5
32302,71126,5
32378,71290,5
32472,71471,4
32533,71604,5
32563,71645,6
32553,71644,4
32535,71611,4
32509,71555,4
32475,71485,5
32441,71421,5
32433,71416,5
32426,71395,4
32397,71321,5
32319,71170,5
32263,71060,6
32247,71035,4
32255,71066,4
32295,71169,5
32351,71261,5
32396,71355,5
32425,71406,5
32451,71462,4
32478,71533,5
32506,71573,5
32532,71615,5
32565,71700,5
32606,71796,4
32721,72042,5
32921,72516,5
33221,73167,5
33561,73902,5
33953,74658,4
34358,75491,5
34736,76242,5
35122,76987,5
35487,77671,5
35833,78325,4
36210,79014,5
36557,79722,5
37036,80695,5
37565,81650,4
38046,82602,5
38533,83581,5
39045,84465,5
39383,85023,5
39659,85579,4
39960,86163,5
40313,86825,5
40614,87417,5
40981,88120,5
41356,88856,5
41774,89596,4
42206,90443,5
42728,91386,5
43239,92300,5
43635,93012,4
43965,93575,5
44268,94101,5
44509,94489,5
44598,94581,5
44547,94496,4
44455,94352,5
44372,94228,5
44185,93927,5
43981,93579,5
43825,93363,4
43769,93392,5
43789,93479,5
43765,93406,5
43715,93395,4
43700,93393,5
43819,93775,5
44104,94285,5
44386,94734,5
44597,95109,4
44899,95682,6
45288,96353,4
45676,97044,5
46113,97877,5
46655,98834,4
47128,99063,5
47696,100075,5
48372,101384,5
49393,103676,5
52206,111244,4
58327,121076,5
63350,128267,5
66178,132400,5
67029,134006,5
68952,137234,4
71238,140634,5
73406,143989,5
75018,146228,5
76662,148565,5
77964,149805,4
78595,150477,5
78662,150405,5
78436,150144,5
78863,150937,4
79504,151725,5
79575,151593,5
78828,150473,5
78176,149458,5
77598,148604,4
77778,149284,5
79198,151823,5
81288,155318,5
83218,157923,5
83067,158529,4
82824,158404,5
83066,159356,5
85985,164610,5
91019,171656,5
94336,175738,4
95724,177365,5
95979,177697,5
95286,176219,5
93552,173707,5
92124,171503,4
90905,169704,5
90003,168261,5
89145,166678,6
87771,164456,4
86353,162528,4
85606,161355,5
84464,159401,5
82581,156402,5
80188,152925,4
78096,149985,4
76548,148014,5
75765,147104,5
76239,149066,5
78021,152472,4
81600,158222,5
85189,163257,5
86942,165166,5
86301,162939,5
84404,159754,4
81752,155751,5
79495,152390,5
77246,148764,5
74741,145206,5
73053,143304,5
71601,141244,4
70721,140311,5
70510,139954,5
70152,139264,6
69265,137707,3
67781,135238,5
66281,132833,5
65069,131043,5
64881,130077,5
63614,128078,4
62729,126677,5
62009,125563,5
61651,125097,5
61362,124474,4
60882,123799,4
60873,123821,5
60848,123785,5
61003,123926,5
60416,122651,4
59870,122183,5
60412,123244,5
61547,125465,5
62774,127394,5
63989,129657,4
65759,132390,6
66648,133573,4
66934,133801,5
67078,134102,5
67117,133965,6
66278,132290,3
65364,131000,5
65046,130622,5
64854,130361,5
64847,130383,4
64852,130552,5
65308,131444,5
65823,132508,5
67606,136382,5
72007,144213,4
77484,152950,5
82315,160004,5
85765,166026,5
87765,167966,5
88951,169896,4
90702,172980,5
93859,178445,5
98017,184750,5
101495,189077,4
104135,195099,5
110005,204295,6
116612,213953,4
121593,222175,5
127540,231510,4
133445,239910,5
137485,246556,5
140928,250578,5
143322,252976,5
145092,254924,4
146540,255950,5
146663,255602,5
145634,254302,5
143278,250543,5
139703,243922,4
134483,234428,5
129913,228684,5
129034,230579,5
132686,237171,5
134224,240436,4
134251,240163,5
132503,236326,5
131172,229284,5
129517,222916,5
129342,220041,4
129731,217092,5
129624,212960,6
128900,209080,4
128093,206239,4
128135,204421,4
125005,198938,5
118204,187983,5
108666,174959,5
102997,165428,4
98454,161250,5
99051,162973,5
103429,167980,5
108795,173777,5
114173,182313,4
121751,191669,5
126654,198985,5
128289,201021,5
124591,197151,5
118163,187274,4
109793,172286,5
102445,160099,5
97505,152964,5
95153,147438,5
92887,144562,4
91626,140787,5
90615,140192,5
89836,139544,6
89593,139525,4
89251,138633,4
89228,140802,5
89553,142535,5
90185,144915,5
90949,147689,4
91261,150030,4
91186,152379,5
90332,154862,5
89886,157868,5
89643,159862,4
89354,162221,5
89667,164664,5
90743,167643,5
91906,169959,5
93660,174115,4
96063,178713,5
98787,183584,5
101446,187458,5
104017,192220,5
106847,197591,5
110352,202911,4
113248,208752,5
115570,213581,5
116524,217223,6
117868,221303,3
118898,224252,5
119878,227492,5
120962,230284,5
121922,232338,5
122769,234370,4
123730,236648,5
124026,237776,5
124156,238917,5
123934,239442,4
123927,240041,4
123688,239922,5
122558,238564,5
121407,236758,5
120192,234528,4
118528,230873,5
115539,224729,5
111484,216542,5
107105,208394,5
103698,202194,4
99690,195020,6
96952,190826,4
95318,186858,5
94268,185199,5
93819,184333,4
93442,183341,5
92212,181261,5
91394,180274,5
91967,181455,5
92656,182409,4
93536,184067,5
94406,185186,5
94222,184592,5
93795,183884,5
93707,183837,4
95027,186448,5
97339,190349,5
99539,193881,5
100892,195798,4
101556,196571,4
101755,196750,5
101886,197378,5
102720,198950,5
103778,200824,4
104506,202145,5
105006,203306,6
105442,204222,4
106294,205892,5
107915,208720,4
110034,211869,5
111558,214403,5
112823,215994,5
114341,218675,5
116446,222219,4
118567,226187,5
120474,228874,5
122080,230972,5
123219,231508,5
123780,231711,4
124463,231619,5
124550,230723,5
124354,229141,5
123970,227478,5
123725,226582,4
123142,225396,5
122040,223628,5
121012,222074,5
119815,220389,4
119049,218962,4
117892,217799,5
116718,215939,6
114942,213236,4
112503,209929,4
111101,208219,5
110538,206107,5
112179,203271,5
112203,194137,5
107204,173517,4
88372,147456,5
65536,106160,5
54278,86950,5
46548,76417,5
43867,70985,4
39111,62960,5
40240,65738,5
38182,67132,5
39181,66420,5
37360,65240,4
35943,63729,5
35056,63134,5
33954,62878,5
33264,62519,5
32813,61765,4
34503,61343,5
32697,61437,5
33716,62195,5
34126,63017,4
36762,63196,4
34552,63424,5
35147,64054,5
35691,64361,5
36939,64385,4
36164,64213,5
36386,64298,5
36535,64436,5
36799,64459,5
36615,64768,4
36698,64850,5
36741,64827,5
36808,63184,5
36765,64639,5
36662,64313,4
36303,63694,5
35640,60668,5
35051,62438,5
34478,62019,5
33964,61675,5
33789,59874,4
33787,61203,5
33362,60620,5
32817,60105,5
32412,60780,4
32056,59223,5
31711,58864,5
31296,58340,5
30786,60333,4
30484,57247,4
30055,56771,5
29720,56375,5
29393,57814,5
29157,55560,4
28899,55128,5
28633,54669,5
28394,54882,5
28202,54096,5
28083,54004,4
27976,53855,5
27849,53714,5
27711,53469,5
27534,53263,5
27376,53122,4
27246,53054,6
27151,53001,4
26919,52762,5
26666,52665,5
26595,52561,4
26493,52402,5
26407,52225,5
26355,52106,5
26336,51963,5
26296,51823,4
26270,51728,5
26165,51620,5
26045,51501,5
25934,51432,4
25816,51332,4
25691,51183,5
25593,51018,5
25577,50935,5
25590,50955,4
25617,51052,5
25618,51119,5
25684,51211,5
25820,51420,7
26020,51727,2
26205,52036,5
26412,52380,6
26571,52612,4
26729,52916,5
27103,53427,4
27635,54216,5
28264,54787,5
28761,55326,5
29231,55939,5
29987,56795,4
30606,57874,5
31204,58843,5
31936,60013,5
32343,60728,5
32935,61358,4
33455,62194,5
33957,62797,5
34350,63403,5
34712,63862,5
35182,64499,4
35550,64685,5
36056,64968,5
36617,65318,5
37087,65529,4
37480,65627,5
37820,65920,5
38006,66225,5
38719,66609,5
39720,67219,4
40602,67532,5
41117,67883,5
41543,68237,5
41868,68515,5
42056,68716,4
42189,68885,5
42173,68890,5
42130,68832,5
42200,68807,5
42266,68690,4
42599,68756,5
43136,68952,5
43640,69047,5
44015,69163,5
44252,69396,4
44624,69982,5
46097,71579,5
46450,72015,5
45932,72529,5
45306,72706,4
44938,73224,5
44639,74505,5
44366,75050,5
43829,74946,4
42162,74932,5
43197,75058,5
42929,75234,5
42825,75484,5
40690,75554,4
42442,75517,5
42521,75734,5
42637,75990,5
40868,76152,5
42716,76277,4
42866,76555,5
43202,77107,5
44202,77947,5
44197,78600,5
44684,78989,4
44817,78846,6
47010,79256,4
45637,79465,5
45983,79711,5
46393,80228,6
48631,80704,3
47512,81171,5
48021,81625,5
48442,81977,5
49354,81544,4
48164,81797,5
48370,82154,5
48532,82483,5
48711,82328,4
48673,82679,4
48144,82446,5
47735,81998,5
47183,79984,5
46747,80342,4
46906,79428,5
46773,79199,5
46478,77004,5
46164,78743,5
45816,77830,4
45500,76607,5
44739,74269,6
43702,73882,4
42609,72836,5
41867,71990,4
41158,72321,7
40653,70396,3
40339,69664,5
39867,68979,5
39481,70591,4
39234,67746,5
38964,67379,5
38902,67294,5
38848,68684,5
38700,67210,4
38647,67122,5
38629,67295,5
38770,68079,5
39100,68124,4
39433,68335,4
39502,68212,5
39690,68429,5
40001,68870,5
40364,69527,4
40714,70161,5
40884,70721,5
41172,70871,6
41325,70862,4
41397,71098,4
41576,71300,5
41669,71476,5
41749,71595,5
41872,71923,5
42021,72229,4
42186,72600,5
42493,73058,5
42822,73542,5
43133,74075,5
43666,74782,4
44166,75615,5
44620,76323,5
45057,77186,5
45583,77960,5
46219,78985,4
46693,79813,5
47176,80484,5
47547,81109,5
47772,81510,5
48106,81972,4
48409,82417,5
48755,82965,5
49141,83475,6
49491,84030,3
50004,84720,5
50399,85380,5
50829,86015,5
51160,86533,5
51472,87102,4
51764,87691,5
52091,88322,5
52434,88902,5
52745,89497,5
53021,90093,4
53286,90629,5
53497,91024,5
53547,91088,5
53677,91354,5
53734,91688,4
53970,92119,5
54272,92689,5
54671,93409,5
55041,94131,5
55401,94819,5
55673,95227,4
55867,95506,5
55958,95621,5
56011,95542,6
55930,95287,3
55818,95079,5
55764,94949,5
55755,94991,5
55904,95332,4
56235,95921,5
56683,96843,5
57353,98107,5
58120,99522,5
59000,100585,4
59785,102151,5
60711,103619,5
61451,104866,5
62095,106113,5
62929,107565,4
63913,109536,5
65405,112132,5
67194,114562,5
67733,116442,5
68861,117986,4
69962,120260,6
71436,122891,4
73407,125846,5
75460,128926,5
77451,131689,4
78244,133990,5
81200,136738,5
82968,139603,5
84034,142503,4
84296,145444,4
87724,148495,5
89335,150734,5
90777,153320,5
91261,155733,4
93708,158199,5
95083,160669,5
96289,163018,5
98200,165414,5
98757,166855,4
99163,168718,5
100112,170624,5
102240,172074,5
101519,172776,5
101713,172957,4
101813,173216,5
102974,173590,6
102239,173801,4
102318,174006,5
102347,174166,4
102641,174350,5
102151,174120,5
101706,173378,5
100996,171996,5
99584,169047,4
97460,166073,5
95244,162689,5
93293,159641,5
91707,155846,4
90298,154510,4
89114,152501,5
88044,150569,5
87104,147626,5
86407,147901,4
86041,147488,5
86162,147769,5
86570,148527,5
87375,150410,5
88576,152831,4
90486,156459,5
92679,161341,5
94572,163533,6
96000,166044,4
97111,168111,4
98040,171278,5
98777,171015,5
99387,172072,5
100158,173325,5
101122,175675,4
102209,176717,5
103150,178452,5
104088,180130,5
105140,182009,5
106141,183084,4
107062,184710,5
107987,186221,5
108973,188061,5
110152,190157,4
111319,192291,4
112408,194208,5
113446,196098,5
114520,197890,5
115489,198947,5
115914,200594,4
116826,202292,5
117716,204079,5
118619,206175,6
119518,207997,3
120366,209706,5
121176,211467,5
122082,213242,5
122927,214421,5
123663,215909,4
124335,217166,5
124962,218296,5
125650,219599,5
126483,221141,5
127364,222736,4
127964,223931,5
128523,224901,5
129003,225822,5
129431,226777,5
129806,227608,4
130293,228683,5
130919,229944,5
131518,230421,5
131190,231184,4
131398,231614,5
131612,232146,4
131867,232894,5
132000,233333,5
132173,233813,4
132294,234027,5
132457,234372,5
132733,234945,5
133129,235727,5
133473,236166,4
133726,236516,5
133929,237002,5
134137,237595,5
134376,238221,5
134602,238750,4
134795,239180,5
134874,239401,5
134951,239583,5
134951,239656,5
134974,239703,4
134975,239734,5
134945,239859,5
134911,239800,5
134923,239769,5
134930,239814,4
134908,239754,6
134930,239817,4
134970,239980,5
135005,240226,4
135112,240316,4
135143,240417,5
135213,240498,5
135269,240621,5
135248,240596,4
135191,240415,5
135223,240381,5
135203,240305,5
135159,240180,5
135138,240074,4
135056,239812,5
134926,239572,5
134888,239546,5
134911,239516,5
134931,239455,4
134803,239126,5
134718,238826,5
134404,238507,5
134440,238089,5
134166,237480,4
133793,236444,5
132589,234758,6
132309,232563,4
131355,230203,5
130302,227873,4
128452,225950,5
128831,224728,5
128553,223979,5
128398,223533,4
128101,223306,5
128567,223573,5
129167,224440,5
129663,225096,5
130611,225734,4
130443,226288,5
130291,226498,5
130242,226270,5
130451,225853,5
128619,224841,4
128515,224345,5
127972,222501,5
128139,221918,5
127283,221422,5
127074,220975,4
126678,220567,5
126602,220188,5
126307,219971,5
125914,219518,5
125394,219052,4
124957,218135,5
124503,217826,5
124028,216863,5
123641,215939,5
123300,214483,4
123038,214800,5
122913,214681,5
122814,214676,5
122610,213576,4
122382,214235,5
122183,214044,5
122052,213847,5
121977,213898,5
121938,213779,4
121963,214041,5
122035,214546,5
121990,216104,5
121962,216100,5
121864,216694,5
121746,217029,4
121601,217948,5
121499,216982,5
121503,216780,5
120668,215956,4
120221,215958,5
119838,215209,5
119524,214794,5
119064,214408,5
118661,214151,4
118358,213621,5
118109,213207,5
117767,212853,5
117286,212869,5
116541,212626,4
116361,212699,5
116150,212634,5
115741,212491,5
115162,212029,4
114311,211900,5
115021,212403,5
114918,213062,5
114617,213523,5
114360,214024,4
114225,214576,6
114487,215432,4
114428,216154,5
114752,216822,5
114730,217357,4
114492,217481,5
114552,218029,5
114798,218697,5
114934,218921,5
114804,219012,9
114590,218983,0
114331,219012,5
114450,219096,5
114327,219131,5
114493,219379,4
114725,219592,5
115197,220356,5
115663,220906,5
116002,221577,4
116733,222365,4
117433,223319,5
118377,224402,5
118996,225226,5
119776,226099,4
120585,227033,5
121138,227494,6
121438,227961,4
121813,228299,5
122410,228951,4
122884,229458,5
123384,229482,5
123965,230022,5
124476,230622,5
124728,230832,4
125047,231094,5
125366,231153,5
125808,231610,5
126335,231826,5
126501,231873,4
126795,232011,5
127164,232112,5
127308,232187,5
127617,232321,5
127833,232421,4
128193,232759,5
128660,233397,5
129194,234044,5
129534,234332,4
130041,234578,4
130206,234537,5
130173,234216,5
130368,234302,5
130486,234143,4
130245,233733,5
129979,233298,5
129821,233055,5
129881,233023,5
130059,232982,4
129886,232557,5
129721,232192,5
129760,232094,5
129811,231938,5
129478,231389,4
129177,230971,5
129032,230737,5
129004,230583,5
128619,230176,5
128571,229676,5
128410,229430,4
128555,229484,5
128301,229540,5
128843,229739,6
129311,230301,3
129930,230985,5
130126,231667,5
131060,232125,5
131352,232236,4
130555,232007,4
130485,231762,5
130421,231487,5
130170,231054,5
129965,230702,4
130503,230810,5
130199,230838,5
130443,230976,5
130667,230946,5
131291,230804,4
130944,230846,5
131372,230978,5
131881,231268,5
132773,231842,5
133445,232816,4
134478,233682,6
135196,234284,4
135854,234786,5
136663,235837,5
137806,237282,6
138922,237627,3
139403,237694,5
140327,238778,5
141317,239765,5
142216,240293,4
142586,239778,5
142587,239489,5
142548,238774,5
142586,238532,4
142905,237963,4
143115,238391,5
143623,238494,5
143959,238392,5
144115,238154,4
144096,237808,5
144458,237757,5
144068,236827,5
143882,237011,5
143375,235480,4
143076,235127,5
142883,234889,6
142862,235195,4
142633,234397,5
142537,234290,4
142402,234047,5
142253,234060,5
142055,233582,5
141948,233268,5
141705,232901,4
141553,232718,5
141409,232472,5
141191,232265,5
141176,232236,5
141164,232197,4
141129,232153,5
141063,232068,5
141091,232120,5
141092,232136,4
141107,232103,4
140960,231946,5
140948,231992,5
140938,231936,5
140947,231927,4
140954,231918,5
140909,231863,5
140967,231960,6
140994,231988,4
141018,232091,4
141146,232266,5
141287,232459,5
141338,232505,5
141290,232437,5
141155,232257,4
141032,232135,5
140873,231975,5
140633,231685,5
140349,231356,5
140017,230991,4
139640,230513,5
139401,230222,5
139269,230054,5
138964,229612,5
138587,229205,4
138230,228799,5
137853,228422,5
137317,227633,5
136381,226459,5
135500,225193,4
134547,224088,5
133757,223040,5
132835,221914,6
131998,220912,3
131213,219936,5
130396,218782,5
129519,217667,5
128906,216938,5
127889,215452,4
126058,212879,5
123820,210765,5
121733,208273,5
120002,205998,5
117288,202087,4
113267,196821,5
109343,190711,5
104166,184254,5
98682,177080,5
92778,169828,4
87976,162987,5
83479,157660,5
79252,151099,5
73336,141177,5
67396,133745,5
63971,128959,4
62379,126328,5
60909,124243,5
59293,121142,6
55584,114648,3
51731,109540,5
48716,104765,5
46789,99739,5
43846,94521,4
41258,90372,5
38729,85077,5
36146,79867,5
34577,77094,5
33604,74835,4
32924,73255,5
32358,71981,5
32827,71317,5
32720,71055,5
32696,71085,4
32770,71289,5
32907,71691,5
33082,72181,5
33253,72745,5
33535,73396,4
33766,73983,6
33831,74089,4
33886,74413,5
34131,74976,5
34319,75460,4
34550,76141,5
34875,76938,5
35212,77917,5
35748,79279,4
36229,80332,4
36392,80497,5
36533,81138,5
37215,82865,5
38169,84952,4
39311,87376,5
40553,90135,5
42091,93295,5
43805,96650,5
45684,99810,4
46949,101216,5
47275,101517,5
47366,101697,5
47040,100934,5
46276,99445,4
45343,97691,5
44387,95962,6
43508,94320,4
42689,92951,5
42107,92086,4
41860,91735,5
41808,91645,5
41841,91807,5
41949,92032,5
42082,92259,4
42166,92444,5
42280,92712,5
42409,92958,5
42525,93196,4
42625,93435,4
42736,93626,5
42832,93803,5
42901,93929,5
42936,94049,4
42978,94067,5
43037,94164,5
43100,94316,5
43195,94540,5
43338,94828,4
43576,95333,5
43860,95925,5
44155,96533,6
44416,97074,4
44689,97636,4
44947,98104,5
45190,98631,5
45439,99143,5
45701,99648,5
45961,100172,4
46279,100836,5
46602,101489,5
46926,102104,5
47269,102776,5
47605,103389,4
47872,103891,5
48089,104251,5
48279,104585,5
48548,105133,5
48945,105824,4
49183,106143,5
48407,106060,5
48309,105809,5
48133,105461,5
47950,105129,4
47876,105036,5
47883,105014,5
47909,104962,5
47825,104843,4
47809,104753,5
47878,104849,5
47844,104762,5
47832,104725,5
47769,104525,4
47578,104147,5
47524,104006,5
47471,103878,5
47400,103847,5
47453,104083,4
47509,104168,5
47517,104104,5
47457,103991,5
47323,103769,5
47301,103936,4
47520,104332,5
47535,104445,5
47550,104472,5
47571,104726,5
47719,105072,5
47951,105515,4
48335,106460,5
48631,106698,5
48403,105968,4
47991,105165,5
47757,104440,5
47458,103891,5
47360,103626,5
47430,103239,4
47358,102907,5
46748,101715,5
46647,101391,5
46594,101356,5
46708,101582,4
46742,101623,5
46790,101700,5
46950,102038,5
47172,102585,5
47608,103346,4
47693,103501,5
47939,104002,5
48146,104338,5
48200,104375,5
48139,104317,4
48026,104092,6
47851,103707,4
47517,103049,5
47248,102599,5
47027,102204,4
46974,102076,5
46935,102095,5
46999,102180,5
47131,102576,4
47276,102759,4
47440,103228,5
47668,103686,5
47884,104069,5
48180,104693,4
48725,105632,5
49186,106456,5
49792,107476,5
50330,108385,5
50749,109271,4
51265,110134,5
51746,110882,5
52057,111430,5
52324,111974,5
52527,112153,4
52599,112155,5
52668,112315,6
52816,112513,4
52856,112614,5
52880,112672,4
53018,112976,5
53392,113567,5
53705,114288,5
54032,114819,5
54237,114620,4
54275,114466,5
53777,113673,5
53135,112576,5
52399,111318,4
51649,110021,4
51053,109121,5
50747,108656,5
50665,108567,5
50719,108629,4
50712,108679,5
50704,108663,5
50653,108551,5
50602,108412,5
50532,108256,4
50339,107918,5
50186,107680,5
50036,107387,5
49958,107390,5
49980,107391,4
50054,107587,5
50169,107839,5
50304,107909,5
50380,108054,5
50396,108147,4
50423,108300,5
50485,108399,5
50612,108594,5
50651,108690,5
50623,108659,4
50519,108388,5
50434,108248,5
50066,107741,5
49792,107415,4
49532,106935,4
49197,106532,5
48896,106015,5
48485,105270,5
48017,104450,5
47393,103394,4
46748,102222,5
46125,101185,5
45555,100179,5
44993,99171,4
44501,98166,5
43919,97614,5
43405,96685,5
42886,95547,5
42349,94405,4
41810,93178,5
41192,91993,5
40667,90923,5
40148,89860,5
39689,88868,4
39304,88009,5
38925,87202,5
38623,86551,5
38309,85844,5
38016,85205,4
37726,84436,5
37348,83559,7
36985,82770,3
36618,81861,5
36256,81625,5
35901,80791,4
35581,80123,5
35326,79572,5
35142,79204,4
34931,78752,5
34722,78282,5
34540,77991,5
34430,77747,5
34322,77506,4
34259,77374,5
34226,77290,5
34164,77192,5
34138,77144,5
34101,77055,4
34028,76928,5
33974,76793,5
33939,76681,5
33884,76584,5
33889,76578,4
33929,76672,5
34005,76876,6
34160,77177,4
34302,77465,5
34411,77699,4
34513,77920,7
34627,78160,3
34742,78402,5
34833,78629,5
34923,78796,4
34990,78962,5
35076,79109,5
35147,79259,5
35209,79369,4
35236,79393,5
35240,79435,5
35293,79529,5
35348,79638,5
35435,79840,4
35544,80077,5
35644,80259,5
35713,80346,5
35714,80345,5
35695,80275,4
35661,80163,5
35625,80055,5
35597,79980,6
35599,79981,4
35638,80060,4
35677,80129,5
35687,80118,5
35691,80141,5
35729,80206,5
35757,80219,4
35762,80221,5
35712,80127,5
35699,80178,5
35787,80334,5
35864,80539,4
35949,80739,5
36032,80870,5
36079,81038,5
36186,81156,4
36161,81157,4
36162,81087,5
36012,80861,5
35881,80678,5
35832,80657,5
35758,80525,4
35666,80399,5
35557,80242,5
35614,80377,6
35659,80507,3
35804,80833,5
35985,81266,5
36236,81742,5
36422,82254,5
36706,82774,4
36879,83091,5
37079,83483,5
37145,83647,5
37175,83628,5
37127,83529,4
37040,83378,5
37019,83301,5
36990,83303,5
36993,83315,5
36997,83235,4
36937,83176,5
36974,83253,5
36961,83216,5
37000,83258,4
37048,83348,6
37102,83500,4
37159,83603,5
37196,83617,5
37230,83750,6
37248,83742,3
37262,83749,5
37292,83794,5
37337,83892,5
37415,84050,4
37485,84178,5
37566,84326,5
37615,84402,5
37632,84449,5
37656,84479,4
37658,84509,5
37648,84482,5
37663,84507,5
37684,84523,5
37694,84568,4
37694,84582,5
37716,84610,5
37717,84571,5
37679,84556,5
37673,84494,4
37645,84457,6
37606,84371,4
37589,84314,5
37554,84260,4
37523,84214,4
37552,84269,5
37583,84339,5
37612,84400,5
37632,84434,4
37683,84563,5
37704,84657,5
37768,84764,5
37825,84860,5
37873,84947,4
37922,85029,5
37887,85035,5
37862,85026,5
37876,85091,5
37898,85142,4
37956,85217,5
37990,85282,5
38038,85434,5
38087,85547,5
38128,85651,4
37649,84643,5
37637,84643,6
37647,84695,4
37696,84842,5
37738,84933,4
37753,85003,5
37789,85056,5
37838,85232,5
37878,85239,4
37832,85448,4
37973,85700,5
38145,86036,5
38278,86314,5
38398,86588,4
38526,86822,5
38640,87189,5
38813,87624,5
39070,88211,5
39392,88872,4
39667,89557,5
39984,90343,5
40384,91285,5
40763,92159,5
41249,93240,4
41964,94710,5
42854,96721,5
44053,99198,6
45527,101542,4
46869,104124,4
47974,106090,5
49043,108084,5
49928,109763,5
50905,111393,5
52275,113355,4
53042,114585,5
53759,115747,5
54159,115315,5
53796,114706,4
53826,114899,4
53652,114595,5
53355,114413,5
52723,113697,5
52114,112770,4
51266,111541,5
50877,111187,5
50836,110859,5
50329,110292,5
50134,109607,5
49595,108631,4
48954,107505,5
48432,106435,5
47844,105430,6
47446,104790,3
47306,104486,5
47191,104168,5
46812,103237,5
46168,102039,5
45594,100788,4
44972,99738,5
44747,99492,5
44746,99413,5
44588,99126,5
44280,98521,4
43721,97545,5
43181,97008,5
42603,96049,5
42105,95306,4
41708,94621,4
41358,94044,5
41050,93594,5
40756,93283,5
40435,92749,4
40098,92354,6
39905,92051,4
39720,91879,5
39625,91701,5
39290,91375,4
39078,91247,5
39043,91266,5
39012,91293,5
38905,91283,5
38750,91088,4
38613,90886,5
38490,90662,5
38325,90353,5
38088,90016,5
37916,89650,4
37675,89196,5
37492,88810,5
37235,88242,5
37028,87836,5
36908,87512,4
36798,87299,5
36718,87080,5
36686,87040,5
36662,86930,4
36602,86728,4
36412,86254,6
36180,85555,4
35852,84707,5
35489,83623,4
35090,82458,5
34821,81706,5
34774,82084,5
34753,81947,5
34757,81873,4
34827,81906,5
34798,81835,5
34765,81788,5
34791,81738,5
34738,81552,4
34674,81364,5
34636,81210,5
34612,81102,5
34578,80914,5
34509,80715,4
34478,80570,5
34427,80372,5
34395,80238,5
34333,80040,5
34272,79884,4
34203,79732,5
34117,79490,6
34048,79270,4
33977,79073,4
33900,78879,4
33854,78760,5
33817,78661,5
33783,78572,5
33694,78354,4
33646,78237,5
33580,78076,5
33414,77963,5
33426,77930,5
33377,77829,4
33342,77755,5
33313,77689,5
33296,77646,5
33252,77603,5
33252,77622,4
33217,77622,5
33186,77596,5
33167,77542,5
33156,77520,5
33105,77413,4
33058,77357,5
33015,77302,5
33005,77292,5
33018,77333,5
33032,77330,4
33020,77314,5
33022,77336,5
33018,77295,5
32986,77241,4
32982,77192,4
32955,77164,5
32931,77138,5
32912,77079,5
32883,76982,4
32832,76866,5
32788,76755,5
32767,76666,5
33514,76564,5
33501,76522,4
33503,76492,5
33507,76481,5
33469,76442,5
33486,76418,5
33500,76417,5
33492,76437,4
33511,76466,5
33526,76494,5
33556,76538,5
33565,76539,4
33567,76502,5
33557,76490,5
33556,76470,5
33552,76460,5
33545,76432,4
33502,76336,5
33468,76248,5
33437,76172,5
33421,76136,4
33416,76080,4
33384,76030,5
33383,76045,5
33427,76147,5
33495,76311,4
33605,76568,5
33733,76869,5
33874,77199,5
34059,77568,5
34243,77981,4
34426,78313,6
34560,78607,4
34709,78887,5
34791,79025,5
34869,79120,4
34902,79157,5
34914,79166,5
34922,79202,5
34976,79262,5
35025,79361,4
35095,79486,5
35202,79703,5
35322,79916,5
35453,80148,5
35602,80396,4
35681,80498,5
35695,80519,5
35731,80618,5
35797,80789,4
35947,81080,4
36087,81389,5
36278,81773,5
36456,82093,5
36663,82457,4
36843,82848,5
37019,83234,6
37242,83662,4
37449,84087,5
37644,84478,4
37856,84979,5
38077,85439,5
38311,85932,5
38569,86493,5
38815,86961,4
39027,87373,5
39181,87669,5
39281,87830,5
39279,87815,5
39268,87756,4
39192,87579,5
39059,87307,5
38937,87065,5
38812,86803,5
38711,86574,4
38619,86401,5
38539,86223,5
38429,85978,5
38311,85720,4
38201,85459,4
38106,85279,5
38055,85155,5
37981,84996,5
37886,84756,4
37771,84516,5
37673,84322,5
37615,84217,5
37577,84108,5
37567,84081,4
37563,84105,5
37586,84187,5
37614,84217,5
37603,84206,5
37599,84221,4
37644,84295,5
37685,84395,5
37705,84427,5
37720,84489,5
37762,84609,4
37830,84756,4
37894,84907,5
37972,85110,5
38067,85270,5
38128,85405,4
38168,85488,5
38196,85559,5
38221,85644,5
38236,85675,4
38238,85672,4
38247,85707,5
38248,85743,5
38264,85770,9
38280,85806,0
38292,85804,5
38277,85823,5
38284,85851,5
38300,85877,5
38297,85870,4
38274,85840,5
38260,85801,5
38228,85759,5
38227,85749,5
38212,85735,4
38183,85664,6
38113,85562,4
38091,85526,5
38059,85437,5
37993,85287,6
37921,85156,3
37862,85060,5
37830,84998,5
37811,85001,5
37825,85058,4
37855,85154,5
37882,85205,5
37883,85169,5
37860,85130,4
37822,85066,4
37804,85016,5
37765,84957,5
37749,84920,5
37730,84840,4
37694,84771,5
37641,84702,5
37616,84674,5
37624,84666,5
37605,84615,4
37575,84543,5
37550,84504,6
37525,84461,4
37520,84440,5
37462,84308,4
37402,84155,5
37314,83978,5
37236,83844,5
37185,83729,5
37144,83647,4
37088,83484,5
37022,83386,5
36999,83314,5
36945,83218,5
36883,83097,4
36843,82998,5
36786,82862,5
36707,82689,5
36621,82526,4
36532,82355,4
36460,82204,5
36406,82133,5
36366,82064,5
36283,81909,4
36194,81757,5
36128,81621,5
36074,81500,6
36029,81453,4
35989,81391,4
35959,81341,5
35944,81301,5
35937,81331,5
35937,81387,5
35990,81492,4
35977,81452,5
35955,81450,5
35954,81499,5
35964,81515,5
35982,81576,4
35996,81632,5
36002,81679,5
36037,81722,5
36041,81711,5
36050,81712,4
36055,81729,5
36047,81762,5
36061,81800,5
36083,81852,5
36151,81965,4
36184,82108,5
36226,82215,5
36270,82281,6
36301,82323,3
36304,82352,5
36303,82363,5
36297,82336,5
36292,82292,5
36277,82301,4
36295,82327,5
36304,82356,5
36327,82407,5
36361,82498,5
36387,82545,4
36397,82565,5
36403,82541,5
36397,82539,5
36379,82511,5
36365,82477,4
36348,82409,5
36326,82405,5
36329,82398,5
36316,82367,5
36318,82391,5
36336,82401,4
36351,82433,5
36347,82458,5
36360,82489,6
36380,82503,3
36394,82523,5
36400,82520,5
36402,82556,5
36400,82523,4
36404,82510,5
36418,82535,5
36420,82547,5
36431,82539,5
36405,82473,4
36371,82409,5
36345,82368,5
36340,82339,5
36319,82288,5
36290,82207,4
36274,82167,5
36262,82139,5
36239,82097,5
36206,82017,5
36159,81889,4
36100,81762,6
36049,81661,4
36012,81567,5
35960,81473,5
35932,81404,4
35888,81304,5
35840,81209,5
35773,81014,5
35661,80748,4
35566,80560,5
35511,80483,5
35501,80432,5
35491,80406,5
35509,80454,4
35554,80555,5
35594,80637,5
35651,80759,5
35752,80982,5
35881,81229,4
35989,81436,5
36118,81689,5
36255,82040,5
36467,82519,5
36796,83216,4
37139,83906,5
37535,84751,6
38001,85690,4
38429,86616,5
38964,87698,4
39615,88942,5
40110,89820,5
40512,90486,5
40744,90827,5
40856,90986,4
40846,90987,5
40782,90757,5
40554,90243,5
40225,89644,4
39967,89226,4
39869,89069,5
39853,89088,5
39869,89150,5
39880,89153,4
39868,89160,5
39860,89126,5
39852,89108,5
39832,89065,5
39814,88992,4
39780,88902,5
39695,88722,5
39590,88508,6
39461,88237,4
39288,87877,4
39109,87530,5
38954,87274,5
38856,87097,5
38775,86921,5
38711,86857,4
38656,86776,5
38595,86687,5
38525,86564,5
38458,86499,5
38419,86418,4
38383,86342,5
38329,86269,5
38306,86224,5
38311,86242,4
38312,86251,4
38323,86279,5
38321,86256,5
38313,86270,5
38326,86274,5
38308,86272,4
38328,86286,5
38351,86324,5
38377,86382,6
38366,86389,3
38387,86353,5
38353,86277,5
38316,86189,5
38208,86027,5
38113,85759,4
37988,85496,5
37872,85236,5
37731,84981,5
37623,84796,5
37558,84639,4
37509,84534,5
37504,84454,5
37465,84406,5
37413,84297,5
37409,84282,4
37452,84332,5
37447,84372,5
37467,84442,5
37506,84496,4
37539,84523,6
37552,84564,4
37583,84616,5
37603,84663,5
37647,84725,4
37662,84744,5
37676,84773,5
37700,84838,5
37727,84895,5
37766,85005,4
37802,85084,5
37827,85109,5
37830,85084,5
37807,85036,5
37787,85016,4
37773,84991,5
37738,84899,5
37684,84787,5
37574,84553,5
37455,84329,4
37389,84210,5
37344,84109,5
37308,84061,5
37281,83989,5
37235,83910,4
37169,83735,6
37054,83473,4
36904,83191,5
36817,83032,4
36733,82820,5
36673,82677,5
36587,82508,5
36498,82286,5
36386,82009,4
36293,81793,5
36200,81583,5
36108,81400,5
36046,81256,5
36002,81196,4
35970,81105,5
35949,81026,5
35909,80932,5
35846,80765,5
35770,80599,4
35691,80442,5
35641,80360,5
35617,80280,5
35580,80164,5
35521,80061,4
35497,79986,5
35474,79912,6
35460,79890,4
35447,79841,5
35410,79779,4
35382,79703,5
35344,79600,5
35324,79548,5
35306,79514,4
35288,79456,5
35272,79378,5
35246,79327,5
35235,79297,5
35231,79310,4
35244,79336,5
35271,79401,5
35293,79470,5
35326,79521,5
35354,79580,4
35359,79632,5
35385,79656,5
35392,79678,5
35412,79684,5
35395,79680,4
35383,79639,5
35375,79626,5
35366,79573,5
35329,79487,5
35309,79419,4
35317,79446,5
35364,79530,5
35428,79700,5
35515,79895,4
35668,80198,4
35831,80549,5
36033,80985,5
36249,81410,5
36465,81862,4
36684,82306,5
36907,82768,5
37107,83188,5
37299,83552,5
37449,83879,4
37601,84242,5
37816,84737,5
38121,85358,5
38467,86070,5
38771,86659,5
39130,87446,4
39566,88248,5
39887,88824,5
40108,89199,5
40271,89558,4
40408,89815,5
40473,89961,5
40565,90157,5
40667,90402,5
40834,90709,4
40961,90922,5
40988,90958,5
40989,91000,5
41042,91103,4
41048,91080,4
41013,91017,5
40913,90764,5
40751,90432,5
40568,90075,4
40411,89798,5
40276,89527,5
40172,89318,5
40110,89224,5
40091,89179,4
40061,89204,6
40110,89238,4
40117,89250,5
40117,89244,5
40050,89132,4
39953,88885,5
39881,88771,5
39902,88801,5
39972,88896,5
40058,89040,4
40133,89180,5
40227,89320,5
40344,89456,5
40385,89574,5
40445,89646,4
40465,89683,5
40518,89698,5
40500,89752,5
40558,89838,4
40622,89968,4
40710,90111,5
40791,90290,5
40897,90487,5
40962,90635,4
41041,90801,5
41161,91055,5
41326,91356,5
41464,91619,5
41557,91753,4
41630,91882,5
41678,92073,5
41794,92302,5
41893,92496,5
41986,92706,4
42101,92940,5
42219,93204,5
42336,93413,5
42434,93603,5
42499,93758,4
42549,93848,5
42567,93918,5
42545,93863,5
42543,93854,5
42558,93936,4
42622,94110,5
42694,94226,5
42705,94197,6
42618,94046,3
42555,93958,4
42483,93812,5
42394,93647,5
42295,93484,5
42211,93348,4
42160,93273,5
42112,93148,5
42019,92972,5
41914,92780,5
41823,92653,4
41772,92557,5
41732,92484,5
41675,92367,5
41528,92038,5
41293,91619,4
41099,91265,5
40950,90991,5
40835,90759,5
40767,90669,5
40733,90638,5
40739,90601,6
40726,90599,3
40706,90587,5
40691,90554,6
40646,90461,3
40583,90347,5
40531,90250,5
40469,90134,5
40405,90022,4
40350,89929,5
40307,89860,5
40284,89822,5
40248,89770,5
40196,89646,4
40124,89551,5
40132,89579,5
40164,89644,5
40190,89668,5
40149,89575,4
40098,89474,5
40074,89451,5
40058,89441,5
40064,89454,5
40080,89480,4
40088,89502,6
40107,89539,4
40137,89633,5
40180,89719,5
40241,89844,6
40320,89994,3
40401,90136,5
40461,90228,5
40498,90297,5
40523,90372,4
40576,90493,5
40661,90666,5
40757,90850,5
40833,90996,4
40914,91144,5
40972,91276,5
41050,91444,5
41118,91588,5
41192,91719,4
41246,91815,5
41293,91931,5
41356,92048,5
41405,92141,5
41457,92230,4
41502,92352,5
41615,92557,6
41733,92759,4
41855,92965,5
41966,93184,4
42087,93397,5
42227,93697,5
42401,94028,5
42564,94361,5
42752,94731,4
42941,95112,5
43087,95408,5
43194,95647,5
43277,95817,5
43372,95982,4
43438,96084,5
43466,96161,5
43495,96246,5
43539,96381,4
43538,96353,5
43544,96405,5
43536,96454,5
43572,96522,5
43608,96633,4
43640,96772,5
43652,96830,5
43655,96836,6
43669,96955,4
43740,97173,4
43784,97368,5
43809,97442,5
43830,97569,5
43871,97710,5
43904,97819,4
43893,97876,5
43914,97956,5
43941,98038,5
43941,97986,5
43889,97917,4
43850,97870,5
43796,97739,5
43729,97536,5
43506,97040,5
43149,96276,4
42661,95316,5
42051,94099,5
41462,93003,5
40987,92085,5
40702,91512,4
40552,91285,5
40561,91333,5
40635,91422,6
40707,91562,3
40791,91601,5
40710,91441,5
40618,91214,5
40500,90943,5
40327,90552,4
40164,90254,5
39985,89915,5
39850,89633,5
39735,89378,5
39622,89168,4
39546,89010,5
39480,88846,5
39412,88721,5
39344,88537,5
39253,88361,4
39189,88200,5
39121,88078,5
39065,87946,5
39028,87864,4
38989,87775,5
38960,87694,4
38927,87611,5
38894,87530,5
38873,87469,6
38818,87346,3
38738,87200,5
38673,87057,5
38619,86914,5
38532,86733,4
38459,86582,5
38368,86378,5
38262,86147,5
38147,85916,5
38050,85706,4
37974,85531,5
37886,85344,5
37806,85217,5
37785,85153,5
37742,85041,4
37689,84937,5
37637,84827,5
37591,84708,5
37550,84627,5
37510,84544,4
37471,84447,6
37404,84317,4
37353,84198,5
37315,84123,4
37272,84047,4
37246,83962,5
37211,83916,5
37191,83865,5
37165,83803,4
37151,83771,5
37139,83750,5
37124,83718,5
37121,83721,5
37122,83723,4
37107,83695,5
37101,83676,5
37085,83640,5
37061,83610,5
37047,83562,4
37022,83545,5
37017,83553,5
37019,83559,5
37018,83558,5
37018,83548,4
37039,83595,5
37082,83700,6
37148,83842,4
37214,83988,5
37274,84107,4
37331,84215,5
37373,84292,5
37404,84347,5
37412,84348,4
37396,84322,4
37388,84309,5
37377,84288,5
37372,84256,5
37364,84259,4
37367,84302,5
37388,84334,5
37439,84392,5
37459,84462,5
37492,84540,4
37529,84601,5
37557,84638,5
37564,84648,5
37552,84585,5
37482,84401,4
37374,84155,5
37262,83888,5
37142,83645,6
37051,83456,4
36999,83368,4
36994,83297,5
36933,83188,5
36899,83096,5
36882,83006,5
36830,82875,4
36775,82734,5
36691,82557,5
36614,82391,5
36552,82247,4
36483,82103,4
36445,81998,5
36418,81935,5
36384,81878,5
36393,81842,4
36396,81825,5
36415,81851,5
36422,81910,5
36471,81949,5
36500,81987,5
36536,82047,4
36555,82086,5
36605,82179,5
36666,82288,5
36726,82400,4
36786,82461,5
36805,82518,5
36856,82613,5
36899,82711,5
36982,82796,4
36987,82841,5
36993,82823,5
36980,82774,5
36976,82719,5
36934,82668,4
36915,82631,5
36892,82578,5
36880,82537,5
36852,82501,4
36833,82456,4
36825,82430,5
36815,82397,5
36801,82377,5
36780,82341,4
36775,82331,6
36780,82298,4
36778,82324,5
36778,82309,5
36770,82305,4
36765,82266,5
36760,82286,5
36765,82279,5
36767,82315,5
36782,82340,4
36792,82347,5
36790,82338,5
36770,82323,5
36768,82313,5
36745,82267,4
36732,82221,5
36703,82174,5
36686,82156,5
36649,82076,5
36618,82043,4
36596,81991,5
36568,81973,5
36570,81981,5
36568,81984,4
36568,81992,4
36573,82018,5
36572,82032,5
36590,82055,5
36596,82096,4
36604,82133,5
36630,82167,5
36636,82201,5
36643,82212,5
36647,82216,4
36637,82222,5
36644,82220,5
36638,82212,5
36632,82200,5
36619,82180,4
36611,82155,5
36596,82113,5
36573,82074,5
36557,82054,5
36544,82029,4
36544,82014,5
36529,81996,5
36524,81998,5
36519,81987,5
36512,81983,4
36504,81975,5
36514,81968,6
36504,81960,4
36489,81946,4
36504,81967,4
36504,81985,5
36516,82009,5
36536,82041,5
36542,82071,4
36552,82104,5
36567,82149,5
36590,82180,5
36604,82203,5
36616,82244,4
36645,82295,5
36656,82332,5
36671,82373,5
36698,82420,5
36711,82456,4
36734,82493,5
36741,82514,5
36750,82530,5
36759,82542,5
36752,82554,4
36762,82560,5
36767,82575,5
36768,82566,5
36760,82568,5
36761,82563,4
36766,82573,5
36764,82576,5
36780,82575,5
36771,82592,4
36785,82610,4
36790,82621,5
36801,82668,5
36827,82709,5
36833,82726,4
36844,82729,5
36853,82754,5
36864,82786,5
36896,82849,5
36929,82901,4
36951,82972,5
36996,83046,5
37026,83127,5
37063,83203,5
37104,83273,5
37136,83325,4
37151,83364,5
37162,83391,5
37170,83419,5
37175,83435,4
37195,83472,5
37208,83494,5
37225,83541,5
37250,83577,5
37265,83624,4
37292,83675,5
37322,83723,5
37339,83769,5
37342,83821,4
37385,83882,4
37399,83910,5
37417,83957,5
37419,84015,5
37462,84050,4
37489,84110,5
37502,84140,5
37516,84157,5
37518,84158,5
37513,84169,4
37523,84192,6
37551,84196,4
37531,84205,5
37533,84213,5
37539,84224,4
37580,84236,5
37554,84257,5
37554,84246,5
37558,84255,5
37572,84259,4
37553,84263,5
37549,84263,5
37562,84272,5
37573,84291,5
37567,84307,4
37585,84322,5
37592,84347,5
37615,84380,5
37641,84439,4
37648,84453,4
37652,84454,5
37650,84421,6
37632,84418,4
37624,84419,4
37628,84409,5
37634,84368,5
37607,84350,5
37595,84336,5
37587,84314,4
37573,84287,5
37551,84242,5
37532,84222,5
37524,84187,5
37506,84161,4
37477,84095,5
37466,84068,5
37456,84063,5
37455,84078,5
37457,84036,4
37452,84035,5
37441,84024,5
37443,84029,5
37441,84028,5
37439,83986,4
37412,83919,5
37375,83842,5
37336,83768,6
37313,83734,3
37295,83704,4
37299,83702,5
37293,83699,5
37292,83700,5
37290,83690,4
37284,83653,5
37256,83599,5
37227,83561,9
37218,83530,1
37219,83546,4
37195,83509,5
37199,83503,5
37202,83509,5
37225,83551,5
37230,83565,4
37242,83598,5
37252,83625,5
37272,83670,5
37304,83739,5
37337,83812,5
37382,83905,4
37412,83974,5
37432,84034,5
37479,84110,6
37531,84234,3
37579,84338,5
37630,84467,5
37683,84556,5
37721,84631,4
37772,84747,4
37836,84879,5
37918,85047,5
38017,85240,5
38128,85484,4
38234,85698,5
38309,85806,5
38328,85841,5
38357,85897,5
38399,85993,4
38449,86114,5
38515,86243,5
38584,86402,5
38628,86470,5
38674,86564,4
38745,86718,6
38823,86864,4
38885,86983,5
38945,87072,5
38946,87051,6
38908,86990,3
38893,86945,5
38875,86926,5
38867,86898,5
38842,86871,4
38841,86872,5
38859,86899,5
38892,86942,5
38928,87012,4
38986,87105,4
39046,87238,5
39135,87418,5
39225,87575,5
39308,87749,4
39409,87956,5
39525,88143,5
39603,88307,5
39717,88517,5
39801,88635,4
39863,88742,5
39962,88831,6
39993,88895,4
40051,89024,5
40121,89105,4
40167,89184,5
40200,89241,5
40229,89286,5
40276,89392,5
40352,89547,4
40431,89680,5
40471,89700,5
40500,89741,5
40510,89735,5
40482,89701,4
40491,89670,5
40480,89645,5
40489,89669,5
40514,89736,5
40554,89761,4
40561,89760,5
40548,89754,5
40545,89794,5
40591,89881,4
40668,89991,5
40685,89996,5
40683,89987,6
40648,89976,4
40667,90024,4
40710,90092,5
40793,90193,5
40781,90238,5
40800,90298,5
40859,90422,4
40937,90549,5
40942,90589,5
40981,90643,5
40996,90684,5
41038,90750,4
41091,90836,5
41135,90978,5
41254,91183,5
41305,91219,5
41299,91205,4
41263,91118,5
41202,91007,5
41169,90921,5
41167,90944,5
41166,90970,4
41177,90983,5
41183,91004,5
41217,91077,6
41226,91076,3
41191,90964,5
41101,90779,5
41012,90622,5
40961,90492,5
40898,90398,4
40866,90360,5
40837,90278,5
40819,90228,5
40798,90192,5
40757,90179,4
40738,90087,5
40702,90034,5
40698,90015,5
40678,90014,5
40670,89967,4
40646,89929,5
40620,89865,5
40588,89818,5
40560,89747,5
40527,89705,5
40510,89658,4
40491,89611,5
40473,89572,5
40444,89512,5
40408,89439,4
40360,89341,5
40314,89221,5
40261,89113,5
40188,88974,4
40146,88883,5
40113,88820,5
40101,88801,5
40091,88767,5
40073,88717,4
40048,88642,5
40011,88574,5
39977,88524,5
39967,88512,5
39957,88472,4
39926,88375,5
39888,88307,5
39877,88300,5
39899,88338,5
39912,88368,4
39932,88398,6
39975,88464,4
39956,88442,5
39908,88326,5
39860,88227,4
39822,88148,5
39791,88124,5
39790,88128,5
39780,88064,5
39734,87993,4
39715,87931,5
39685,87853,5
39646,87780,5
39621,87729,4
39594,87649,4
39579,87611,5
39563,87585,5
39548,87536,5
39523,87467,4
39474,87358,5
39438,87294,5
39430,87276,5
39445,87318,5
39503,87443,4
39589,87645,5
39678,87826,6
39748,88009,4
39868,88231,5
39960,88425,4
40059,88631,5
40174,88888,5
40338,89260,5
40609,89836,5
40892,90465,4
41234,91178,5
41625,91964,5
41949,92540,5
42119,92857,5
42212,93018,4
42293,93202,5
42401,93422,5
42500,93611,5
42613,93906,4
42864,94433,4
43138,94931,5
43345,95321,5
43504,95616,5
43645,95878,4
43769,96169,5
43946,96515,5
44166,96928,6
44416,97488,4
44722,98118,4
45010,98702,5
45254,98597,5
45538,99089,5
45679,99259,5
45573,98970,4
45296,98432,5
45068,97966,5
44868,97623,5
44722,97389,5
44645,97303,4
44662,97324,5
44741,97480,5
44856,97662,5
44852,97572,5
44700,97199,4
44438,96700,5
44230,96333,5
44137,96128,5
44081,96052,5
44062,96024,4
44042,95975,5
44062,95974,5
44046,96050,5
44110,96171,4
44149,96221,5
44184,96263,5
44221,96386,5
44306,96585,5
44432,96853,4
44605,97178,5
44760,97489,5
44932,97851,5
45106,98217,5
45288,98499,4
45415,98764,5
45469,98918,5
45608,99248,5
45832,99702,5
46143,100347,4
46453,101001,5
46826,101708,5
47164,102407,5
47579,103167,5
47909,103797,5
48205,104351,4
48468,104888,5
48676,105305,5
48832,105617,4
48915,105601,4
49017,105789,5
49090,105868,5
49192,106019,5
48447,106065,4
48426,106078,5
48370,105909,5
48266,105741,5
48205,105649,5
48194,105621,4
48162,105552,5
48161,105566,5
48168,105689,5
48272,105940,5
48423,106183,4
48514,106341,5
48539,106366,5
48480,106234,5
48364,106004,5
48234,105791,4
48153,105621,6
48104,105586,4
48130,105635,5
48183,105737,5
48261,105885,4
48364,106079,5
48516,106381,5
48613,106448,5
48533,106311,4
48465,106194,4
48417,106095,5
48394,106062,5
48424,106157,5
48461,106204,4
48419,106083,5
48275,105780,5
48019,105254,5
47749,104776,5
47621,104546,4
47510,104318,5
47400,104095,5
47307,103914,5
47231,103766,5
47183,103630,4
47137,103556,5
47106,103466,6
47076,103424,4
47078,103410,5
47078,103390,4
47058,103353,5
47098,103410,5
47124,103474,5
47145,103481,5
47152,103461,4
47158,103467,5
47146,103478,5
47150,103460,5
47131,103390,4
47094,103337,4
47086,103330,5
47075,103311,5
47138,103432,5
47117,103396,4
47132,103522,5
47231,103717,5
47248,103711,5
47185,103582,5
47129,103488,4
47104,103467,5
47002,103449,5
47073,103620,5
47171,103802,5
47251,103941,4
47301,104113,5
47375,104279,5
47456,104413,5
47540,104569,5
47617,104718,4
47666,104789,5
47690,104852,5
47752,104956,5
47780,105011,5
47814,105068,4
47882,105192,5
47962,105313,5
48054,105493,5
48215,105790,5
48343,106010,5
48412,106104,4
48442,106154,5
48447,106167,5
48477,106212,6
48496,106203,3
48461,106162,5
48450,106167,5
48480,106193,5
48509,106256,4
48537,106318,5
48515,106363,5
48602,106455,5
48622,106499,5
48599,106387,4
48492,106327,5
48610,106511,5
48739,106711,5
48789,106770,5
48793,106769,4
48789,106779,5
48713,106655,5
48616,106456,5
48526,106209,5
48305,105856,4
48078,105485,6
47862,105104,4
47703,104827,5
47537,104624,4
47445,104468,6
47327,104262,3
47144,103926,5
46939,103621,5
46552,102745,4
46264,102572,5
46237,102527,5
46238,102512,5
46236,102505,5
46237,102504,4
46256,102524,5
46308,102627,5
46324,102671,5
46324,102660,5
46313,102568,4
46284,102538,5
46256,102442,5
46207,102331,5
46185,102248,5
46165,102237,4
46228,102320,5
46299,102426,6
46445,102692,4
46592,102912,5
46820,103310,4
47145,103942,5
47621,104863,5
48134,105719,5
48719,106759,5
49397,108023,4
50246,109547,5
51131,111024,5
51991,112420,5
52656,113359,4
53074,114111,5
53514,114698,5
53992,115031,5
54386,115546,5
54814,116279,4
55161,116761,5
55387,116938,5
55492,117077,5
55499,116968,5
55355,116736,6
55183,116508,3
55034,116302,5
54918,116139,6
54812,115972,4
54635,115729,4
54398,115362,5
54122,114987,5
53915,114690,5
53632,114258,5
53375,113860,4
53060,113434,5
52779,112992,5
52361,112293,5
51886,111501,5
51436,110755,4
51048,110149,5
50773,109686,5
50527,109235,5
50245,108724,4
49924,108175,5
49586,107624,5
49289,107128,5
49093,106812,5
48894,106475,5
48656,106047,4
48320,105671,5
48076,105338,5
47812,104912,6
47524,104314,3
47021,103268,5
46313,101920,5
45722,100744,5
45164,99769,5
44781,99006,4
44412,98306,5
44064,97665,5
43744,97539,5
43397,96862,5
43089,96167,4
42789,95526,5
42559,95040,5
42435,94777,5
42340,94569,5
42305,94436,4
42231,94276,5
42187,94149,5
42125,93992,5
42039,93740,4
41902,93424,6
41819,93214,4
41749,92975,5
41654,92720,5
41541,92441,6
41501,92286,3
41457,92148,5
41433,92048,5
41398,91953,5
41372,91852,4
41329,91710,5
41247,91512,5
41160,91279,5
41039,91008,5
40908,90695,4
40782,90384,5
40668,90020,5
40515,89683,5
40406,89404,5
40314,89253,4
40286,89173,5
40232,88995,5
40112,88708,5
39949,88346,5
39820,88108,4
39690,87807,6
39543,87460,4
39310,86971,5
39079,86459,4
38857,85971,4
38697,85665,5
38569,85436,5
38477,85185,5
38365,84967,4
38272,84829,5
38183,84702,5
38112,84516,5
38018,84390,5
37966,84283,4
37920,84191,5
37881,84179,5
37896,84217,5
37938,84352,5
38080,84598,4
38159,84784,5
38237,84950,5
38255,84899,5
38157,84707,5
38039,84582,4
37931,84346,5
37732,83857,6
37428,83236,4
37153,82706,5
36947,82268,4
36820,82018,5
36712,81783,5
36606,82187,5
36526,82008,4
36455,81877,4
36424,81751,5
36362,81617,5
36293,81462,5
36241,81344,4
36207,81197,5
36139,81011,5
36042,80768,5
35931,80483,5
35803,80162,4
35641,79840,5
35516,79562,5
35413,79334,5
35330,79186,5
35261,79010,4
35191,78804,5
35102,78617,5
35019,78435,6
34926,78190,4
34887,78062,4
34848,78008,5
34852,78018,5
34867,78002,5
34850,77966,5
34812,77878,4
34753,77764,5
34702,77675,5
34686,77681,5
34749,77835,4
34865,78095,4
35002,78426,5
35135,78734,5
35319,79145,5
35517,79614,4
35736,80121,5
36001,80688,5
36289,81309,5
36618,82011,5
36970,82773,5
37343,83517,4
37657,84192,5
38006,84893,5
38352,85571,5
38656,86152,4
38911,86657,5
39164,87145,5
39428,87635,5
39658,88125,5
39910,88635,4
40139,89104,5
40389,89623,5
40618,90060,5
40807,90428,5
40992,90809,4
41170,91164,5
41344,91490,5
41462,91737,5
41582,91987,4
41668,92109,4
41717,92235,5
41769,92332,5
41828,92432,5
41877,92533,4
41902,92610,6
41935,92636,4
41951,92671,5
41975,92706,5
42013,92770,4
42039,92826,5
42058,92851,5
42079,92883,5
42082,92868,5
42063,92840,4
42066,92852,5
42080,92880,5
42106,92928,5
42124,92965,5
42129,92955,4
42112,92907,5
42089,92820,5
42045,92762,5
42021,92687,5
41983,92618,4
41947,92535,5
41909,92445,5
41881,92373,5
41856,92283,4
41742,92021,4
41577,91694,6
41414,91368,4
41299,91172,5
41257,91097,4
41270,91128,5
41331,91256,5
41419,91413,5
41522,91592,5
41563,91681,4
41637,91832,5
41723,91988,5
41769,92052,5
41790,92094,5
41800,92098,4
41768,92053,5
41728,91968,5
41702,91928,5
41672,91889,5
41659,91879,4
41637,91839,5
41599,91786,5
41577,91741,5
41537,91697,5
41507,91617,4
41469,91572,5
41473,91587,6
41457,91598,4
41497,91597,4
41482,91598,4
41468,91560,5
41386,91469,5
41401,91462,5
41402,91490,4
41430,91525,5
41448,91578,5
41468,91622,5
41494,91722,5
41561,91888,4
41694,92109,5
41805,92370,5
41947,92620,5
42054,92849,5
42169,93002,4
42175,93080,5
42238,93236,5
42313,93387,5
42387,93387,5
42373,93431,4
42403,93537,5
42365,93596,5
42369,93740,5
42478,93986,5
42617,94236,4
42689,94405,5
42727,94454,5
42757,94572,5
42867,94824,4
42987,95092,4
43080,95261,5
43104,95356,5
43110,95404,5
43138,95461,4
43153,95498,5
43122,95515,5
43083,95455,5
43067,95435,5
43026,95373,4
42957,95283,5
42958,95301,5
42968,95334,5
43003,95446,5
43052,95501,5
43046,95508,4
43067,95571,5
43119,95687,5
43103,95622,5
43074,95574,4
43054,95508,5
43011,95446,5
42979,95394,5
42948,95326,5
42919,95284,4
42913,95285,5
42903,95274,5
42896,95245,5
42873,95199,4
42848,95181,4
42841,95167,5
42838,95164,5
42833,95186,5
42851,95208,4
42856,95239,5
42876,95278,5
42893,95341,5
42907,95371,5
42916,95396,4
42915,95396,6
42924,95395,4
42908,95388,5
42864,95284,5
42820,95209,4
42776,95139,5
42750,95067,5
42718,95004,5
42677,94904,5
42614,94785,4
42547,94651,5
42494,94545,5
42438,94441,5
42398,94337,5
42342,94232,4
42311,94144,5
42266,94043,5
42218,93969,5
42189,93928,5
42150,93816,4
42080,93694,5
42039,93578,5
41999,93468,5
41936,93355,4
41884,93224,5
41819,93092,5
41775,92992,5
41726,92887,5
41675,92794,4
41628,92681,5
41574,92554,5
41545,92478,5
41509,92423,5
41478,92347,4
41457,92291,5
41429,92241,5
41413,92195,5
41376,92111,5
41340,92028,4
41313,91992,5
41304,91960,5
41270,91893,5
41261,91889,5
41274,91892,4
41252,91855,5
41231,91795,5
41197,91727,6
41185,91690,4
41150,91639,4
41121,91546,5
41081,91477,5
41049,91408,5
41014,91353,4
41000,91298,5
40977,91265,5
40954,91215,5
40939,91179,5
40926,91137,4
40901,91090,5
40883,91032,5
40872,91011,5
40861,90985,5
40841,90932,4
40821,90874,5
40799,90827,5
40777,90776,5
40760,90726,5
40720,90690,5
40713,90626,4
40679,90564,5
40663,90522,5
40616,90487,6
40628,90467,3
40604,90424,5
40591,90387,5
40544,90326,5
40545,90280,5
40529,90239,4
40509,90210,5
40518,90199,5
40495,90162,5
40494,90155,4
40489,90134,5
40497,90110,5
40465,90071,5
40441,90028,5
40407,89993,4
40422,89957,5
40386,89938,5
40377,89896,5
40359,89866,5
40359,89834,4
40339,89797,6
40322,89771,4
40302,89733,5
40287,89697,5
40276,89669,6
40261,89638,3
40249,89605,5
40231,89548,5
40221,89527,5
40202,89501,4
40188,89468,5
40179,89424,5
40159,89423,5
40144,89394,5
40140,89374,4
40110,89268,5
40075,89211,5
40065,89198,5
40039,89131,4
39981,89061,4
39938,88948,5
39894,88847,5
39858,88768,5
39827,88728,4
39811,88637,5
39773,88576,6
39746,88525,4
39734,88479,5
39705,88422,4
39696,88386,5
39689,88357,5
39679,88359,5
39672,88318,5
39660,88311,4
39649,88294,9
39644,88270,1
39625,88243,5
39617,88222,5
39613,88198,4
39605,88184,5
39596,88179,5
39595,88182,5
39595,88173,5
39591,88164,4
39586,88167,5
39584,88166,5
39591,88170,5
39599,88172,4
39591,88187,4
39591,88182,5
39601,88188,6
39597,88199,4
39611,88198,4
39617,88232,5
39622,88240,5
39628,88252,5
39635,88267,5
39645,88278,4
39647,88274,5
39655,88288,5
39661,88319,5
39670,88338,5
39675,88355,4
39692,88384,5
39698,88396,5
39693,88409,5
39699,88419,5
39714,88436,4
39719,88459,5
39727,88479,5
39736,88495,5
39742,88514,5
39753,88546,4
39770,88569,5
39775,88570,5
39776,88589,6
39782,88602,3
39788,88597,4
39786,88612,5
39780,88587,5
39762,88552,5
39761,88563,4
39760,88551,5
39741,88511,5
39742,88538,5
39776,88573,5
39775,88579,4
39774,88579,5
39762,88560,5
39771,88578,5
39781,88601,5
39794,88633,4
39805,88668,5
39823,88693,5
39851,88742,5
39861,88779,5
39899,88840,5
39926,88890,4
39941,88953,5
39969,88997,5
39998,89060,6
40031,89102,3
40050,89152,5
40059,89175,5
40081,89197,5
40071,89199,4
40071,89188,4
40068,89165,5
40058,89139,5
40049,89116,5
40030,89061,4
40015,89044,5
40011,89033,5
40011,89035,5
40015,89032,5
40002,89011,4
39981,88984,5
39986,88964,5
39966,88925,5
39954,88886,5
39912,88832,4
39901,88754,6
39872,88691,4
39843,88628,5
39783,88558,5
39773,88475,4
39733,88408,5
39727,88383,5
39732,88375,5
39725,88397,5
39744,88434,4
39760,88445,5
39784,88458,5
39776,88471,5
39792,88505,5
39812,88534,4
39852,88596,5
39845,88606,5
39845,88584,5
39837,88556,4
39826,88524,5
39796,88456,5
39748,88362,5
39701,88279,5
39672,88207,4
39654,88185,5
39650,88190,6
39665,88192,4
39663,88184,5
39663,88164,4
39634,88126,5
39634,88104,5
39600,88006,5
39579,87979,5
39587,88011,4
39598,87997,5
39572,87942,5
39559,87933,5
39560,87927,5
39532,87859,4
39493,87793,5
39460,87723,5
39457,87696,5
39439,87658,5
39433,87642,4
39406,87559,5
39360,87464,5
39310,87356,5
39268,87270,4
39229,87164,5
39205,87127,5
39219,87168,6
39248,87216,4
39269,87273,4
39287,87286,5
39267,87254,5
39271,87190,5
39209,87112,5
39174,87003,4
39124,86882,5
39076,86783,5
39048,86723,5
39057,86735,5
39079,86766,4
39101,86799,5
39127,86827,5
39143,86858,5
39158,86850,5
39125,86760,4
39069,86627,5
39015,86499,5
38958,86413,5
38936,86364,5
38927,86328,4
38916,86321,5
38920,86330,5
38922,86323,5
38915,86297,4
38898,86271,4
38883,86225,5
38870,86198,5
38865,86184,5
38873,86167,4
38838,86095,5
38768,85926,5
38663,85723,5
38569,85528,5
38505,85398,4
38474,85319,5
38439,85269,5
38399,85179,5
38375,85143,5
38363,85123,4
38387,85166,5
38427,85246,5
38477,85346,5
38532,85452,5
38587,85577,5
38656,85697,4
38717,85836,5
38819,86035,5
38935,86266,5
39079,86540,4
39274,86898,5
39441,87216,5
39573,87440,5
39677,87623,4
39742,87717,4
39851,87966,5
40045,88361,5
40256,88768,5
40471,89222,4
40725,89732,5
40956,90203,5
41210,90732,5
41389,91089,5
41528,91353,4
41616,91525,5
41655,91555,5
41665,91615,5
41694,91705,5
41709,91780,4
41713,91797,6
41675,91748,4
41647,91675,5
41583,91547,5
41497,91387,4
41428,91273,5
41353,91108,5
41271,90907,5
41150,90667,5
41028,90435,4
40929,90214,5
40823,89951,5
40654,89515,5
40369,88844,4
40047,88128,4
39711,87395,5
39327,86537,5
38873,85622,5
38524,84887,4
38285,84477,5
38147,84096,5
38023,83803,5
37859,83482,5
37655,83072,4
37506,82739,5
37358,82439,6
37237,82204,4
37141,81974,5
37035,81752,4
36928,81529,5
36814,81322,5
36745,81137,5
36646,81008,5
36616,80928,4
36569,80841,5
36528,80761,5
36466,80678,5
36414,80570,5
36392,80510,4
36377,80471,5
36368,80467,5
36367,80496,5
36364,80459,4
36326,80375,4
36262,80300,5
36271,80313,5
36250,80272,5
36167,80074,4
36061,79890,5
35966,79735,5
35908,79630,5
35878,79525,5
35853,79501,4
35817,79499,5
35833,79550,5
35854,79602,5
35887,79678,5
35907,79735,4
35920,79772,5
35966,79875,5
36006,79951,5
36033,80015,5
36045,80032,4
36045,80077,5
36060,80069,5
36059,80058,5
36038,79986,5
35993,79856,4
35899,79640,5
35786,79392,5
35692,79172,5
35617,79044,5
35587,78995,4
35570,78968,5
35559,78958,5
35564,78973,5
35589,79046,4
35649,79204,5
35778,79499,5
35947,79937,5
36197,80485,5
36473,81106,4
36757,81737,5
37015,82296,5
37259,82793,5
37452,83190,5
37596,83504,4
37737,83809,5
37880,84131,5
38048,84504,5
38203,84862,5
38350,85211,4
38480,85499,6
38558,85689,4
38615,85814,5
38654,85902,5
38655,85933,6
38661,85963,3
38661,85935,5
38614,85833,5
38559,85724,5
38509,85604,4
38454,85500,5
38423,85453,5
38400,85404,5
38393,85390,4
38382,85390,5
38399,85393,5
38391,85383,5
38380,85346,5
38351,85310,4
38351,85315,5
38377,85371,5
38388,85385,5
38406,85437,5
38438,85518,4
38469,85561,5
38477,85564,6
38456,85537,4
38463,85536,5
38455,85484,4
38414,85419,5
38414,85422,5
38435,85472,5
38491,85599,5
38548,85748,4
38626,85907,5
38680,86035,5
38734,86141,5
38767,86223,5
38802,86275,4
38816,86308,5
38829,86352,5
38857,86408,5
38867,86440,4
38859,86434,5
38837,86385,5
38804,86343,5
38787,86317,5
38792,86345,4
38802,86379,5
38802,86415,5
38842,86542,6
38912,86709,4
38983,86897,4
39041,87076,5
39127,87301,5
39279,87683,5
39474,88153,5
39692,88677,4
39905,89170,5
40124,89661,5
40325,90090,5
40449,90385,5
40552,90621,4
40612,90783,5
40644,90924,5
40686,91019,5
40691,91080,5
40686,91153,4
40681,91214,5
40690,91193,5
40669,91179,5
40634,91197,5
40645,91333,4
40688,91407,5
40732,91436,5
40694,91400,6
40677,91379,3
40682,91397,5
40613,91241,5
40513,91028,5
40421,90770,5
40283,90549,4
40316,90712,5
40489,91057,5
40697,91434,5
40809,91670,5
40743,91766,4
40755,91687,5
40676,91490,5
40756,91650,5
40872,91838,5
40940,91934,4
40867,91907,5
40909,92024,5
40980,92206,5
40956,92268,5
41044,92667,5
41162,92356,4
40915,92106,5
40779,91859,5
40689,91435,6
40463,90934,3
40322,90470,5
40178,90014,5
40079,89672,5
39872,89325,4
39747,89007,5
39575,88498,5
39342,87940,5
39093,87499,5
38903,87144,4
38793,86917,5
38654,86707,5
38608,86570,5
38571,86507,5
38579,86615,4
38584,86700,5
38532,86598,5
38452,86651,6
38511,86842,4
38523,86979,4
38434,86913,6
38419,86928,4
38363,86922,5
38318,86882,5
38282,86770,4
38214,86595,5
38082,86494,5
38067,86482,5
38049,86476,4
38044,86494,4
38016,86484,5
38011,86472,5
37937,86374,5
37838,86105,4
37645,85619,5
37423,85120,5
37199,84579,5
36948,83984,5
36715,83536,4
36609,83338,5
36566,83211,5
36537,83203,5
36571,83274,5
36598,83325,4
36618,83326,5
36585,83231,6
36527,83056,4
36442,82843,5
36359,82621,4
36229,82322,5
36125,82073,5
36069,81942,5
36041,81868,5
36042,81854,4
36052,81854,5
36074,81888,5
36090,81915,5
36112,81933,4
36127,81916,4
36132,81865,5
36123,81815,5
36106,81768,5
36102,81718,4
36070,81634,5
36048,81574,5
36046,81517,5
36039,81506,5
36045,81491,4
36052,81474,5
36056,81437,5
36040,81380,6
36025,81335,4
36020,81303,4
36012,81287,5
36021,81285,5
36031,81256,5
36045,81243,5
36051,81212,4
36031,81150,5
36021,81101,5
36020,81077,5
36018,81044,5
36005,81005,4
35994,80961,5
35985,80934,5
35973,80894,5
35965,80851,5
35964,80804,4
35951,80753,5
35932,80708,5
35913,80645,5
35914,80600,5
35888,80529,4
35852,80414,5
35831,80350,5
35795,80275,6
35810,80267,3
35828,80283,5
35848,80280,5
35834,80209,5
35831,80205,5
35849,80203,4
35856,80154,5
35850,80137,5
35860,80119,5
35863,80146,5
35871,80133,4
35875,80120,5
35880,80160,5
35915,80136,5
35910,80103,5
35916,80079,4
35923,80099,5
35965,80127,5
35990,80140,5
36020,80192,5
36044,80221,5
36042,80222,4
36073,80212,5
36104,80177,5
36104,80057,4
36060,79915,5
36046,79769,5
35996,79660,5
35994,79570,5
35967,79525,4
35968,79495,5
35967,79444,5
35968,79393,5
35993,79415,5
36036,79387,4
36001,79264,5
35962,79110,5
35914,78881,5
35828,78609,5
35734,78355,4
35682,78176,5
35647,78077,5
35694,78103,5
35716,78093,5
35739,78039,4
35736,77999,6
35731,77972,4
35722,77931,5
35746,77977,5
35826,78195,4
35953,78432,5
36042,78616,5
36141,78823,5
36233,78987,4
36345,79219,5
36451,79474,5
36658,79928,5
36952,80601,5
37402,81579,4
37849,82588,5
38300,83566,5
38678,84328,5
38994,84998,5
39307,85640,4
39552,86166,5
39796,86645,5
39968,86933,5
40093,87168,5
40169,87246,4
40234,87351,5
40357,87597,7
40522,87890,3
40676,88143,5
40770,88315,4
40879,88514,5
40997,88722,5
41102,88874,5
41130,88842,5
41164,88876,4
41225,88956,5
41283,89037,5
41411,89238,5
41544,89488,4
41715,89835,5
41871,90104,5
41978,90292,5
42104,90608,5
42346,91144,4
42668,91755,5
42933,92241,5
43219,92762,5
43448,93154,5
43716,93569,4
43889,93907,5
44061,94157,5
44285,94541,5
44537,94979,5
44792,95365,4
45004,95675,5
45106,95868,5
45306,96179,5
45439,96462,5
45592,96723,4
45762,96988,5
45903,97210,5
46027,97424,5
46129,97560,5
46215,97692,4
46330,97860,5
46483,98203,5
46721,98641,5
46957,98511,4
47206,98916,5
47401,99277,5
47593,99695,5
47879,100158,5
48091,100514,5
48304,100936,4
48613,101505,5
48914,102025,5
49176,102467,5
49419,102847,4
49572,103203,5
49857,103735,5
49988,104026,5
50137,104320,5
50154,104357,4
50196,104476,5
50285,104750,5
50415,104982,5
50505,105188,5
50715,105587,4
50961,105969,5
51162,106468,5
51339,106776,5
51568,107194,5
51786,107516,4
51935,107921,5
52187,108482,5
52328,108736,5
52504,109176,4
52741,109584,5
53010,110024,4
53141,110341,5
53365,110655,5
53606,111018,4
53827,111389,5
54081,111801,5
54308,112073,5
54402,112210,5
54441,112098,4
54516,112194,5
54659,112413,5
54997,112875,5
55311,113264,5
55472,113426,4
55595,113526,5
55653,113601,5
55869,113876,5
56125,114173,5
56310,114319,4
56323,114220,5
56387,114288,5
56522,114440,5
56734,114788,5
57041,114708,4
57292,115097,6
57430,115296,4
57568,115471,5
57712,115583,4
57705,115623,4
57749,115712,5
57817,115796,5
57914,115944,5
58001,116072,4
58066,116141,5
57920,115875,5
57799,115664,5
57764,115543,5
57691,115418,4
57577,115166,5
57529,114996,5
57536,115009,5
57553,114984,5
57540,114905,4
57486,114748,5
57392,114526,5
57216,114116,5
57008,113722,5
56871,113418,4
56762,113232,5
56672,113054,5
56539,112715,5
56376,112498,5
56263,112222,4
56114,111907,5
55954,111599,5
55817,111337,5
55776,111260,4
55768,111190,4
55820,111228,5
55798,111202,5
55788,111107,5
55785,111111,4
55848,111186,5
55938,111352,5
56102,111576,5
56222,111732,5
56385,111969,5
56574,112265,4
56838,112653,5
57058,112979,5
57298,113369,6
57532,113690,3
57729,113991,5
57966,114388,5
58300,114994,5
58738,115663,5
59103,116082,4
59334,116401,5
59396,116511,5
59647,116915,5
59754,117032,5
59720,116958,4
59662,116880,5
59622,116832,5
59580,116750,5
59557,116713,4
59630,116844,4
59817,117191,5
60083,117658,5
60365,118136,5
60706,118734,4
61008,119189,6
61250,119542,4
61398,119779,5
61516,119935,5
61604,120123,6
61775,120356,3
61944,120615,5
62035,120758,5
62137,120911,5
62242,121048,4
62399,121363,5
62540,121565,5
62639,121679,5
62776,121945,5
62893,122130,4
62966,122274,5
63054,122422,5
63110,122478,5
63115,122471,5
63155,122516,4
63122,122420,5
62998,122189,5
62813,121836,5
62495,121265,4
62118,120572,4
61731,119983,6
61490,119600,4
61278,119297,5
61191,119112,4
61124,118952,7
61055,118847,3
61004,118765,5
60930,118619,5
60776,118275,4
60530,117919,5
60384,117674,5
60231,117354,5
60076,117133,5
59985,116969,4
59897,116764,5
59777,116535,5
59611,116275,5
59495,116041,5
59451,115991,4
59489,116054,5
59555,116176,5
59608,116198,5
59535,116071,5
59530,116130,4
59689,116398,5
59812,116522,6
59831,116500,4
59838,116536,4
59886,116656,4
59971,116767,5
60040,116888,5
60174,117107,5
60378,117530,4
60727,118033,5
61062,118630,5
61462,119229,5
61819,119886,5
62276,120619,4
62875,121650,5
63449,122559,5
63926,123354,5
64387,124007,5
64726,124598,4
65037,125163,5
65411,125852,5
65764,126413,5
65243,126709,5
65280,126729,4
65293,126711,5
65182,126538,5
65159,126500,6
65174,126499,4
65110,126329,4
64969,126234,5
64874,126180,5
64961,126371,5
65118,126613,4
65253,126870,4
65470,127247,5
65913,128049,5
66571,129157,5
67252,130362,4
68148,131726,5
68819,132069,5
69325,132764,5
69919,133893,5
70791,135263,4
71481,136002,5
71824,136490,5
72431,137597,5
73458,139344,5
74709,141202,5
76035,143118,4
77249,144488,5
77989,145706,5
78713,146491,6
79291,147080,3
79533,146873,5
79885,147219,5
80258,147155,5
80100,146883,8
80416,146844,1
80759,146730,5
80809,146820,5
81072,146942,5
81308,146775,4
81459,146561,4
81250,146088,5
81038,145652,5
80751,145129,5
80235,144464,4
79913,144134,5
79901,144191,5
80008,144472,5
80299,145014,5
80864,146009,4
81525,147220,6
82159,148239,4
81799,148139,5
81905,148604,5
82145,149250,4
82687,150255,5
83306,151492,5
84523,153718,5
86206,156422,5
87723,158637,4
88527,159978,5
89267,161280,5
89390,161740,5
89430,161953,5
89076,161649,4
88264,160604,5
87348,159557,5
86474,158323,5
85496,157055,4
84448,155715,4
83509,154652,5
82856,153810,5
82191,152990,5
81642,152191,4
81084,151499,5
80714,150998,6
80172,150270,4
79785,149713,5
79374,149152,4
79068,148666,5
78654,148082,5
78267,147464,5
77875,146800,5
77565,146347,4
77319,145968,5
77071,145515,5
76699,144900,5
76342,144301,5
75891,143514,4
75345,142614,5
74809,141660,5
74103,140460,5
73465,139382,5
73032,138646,4
72716,138125,5
72396,137503,5
72060,136944,5
71786,136424,4
71472,135825,4
71074,135077,5
70677,134394,6
70240,133669,4
69871,133077,4
69543,132429,5
69198,131882,5
69037,131662,5
68933,131414,5
68710,130958,4
68416,131102,5
68104,130580,5
67844,130104,5
67593,129706,5
67396,129346,4
67183,129010,5
67003,128652,5
66731,128154,5
66468,127668,5
66165,127160,4
65877,126639,5
65657,126265,5
65510,126009,5
66210,126044,5
66272,126099,4
66288,126078,5
66259,126020,5
66226,125935,6
66179,125829,3
66162,125804,5
66179,125778,5
66157,125690,5
66016,125341,5
65683,124773,4
65246,123900,5
64637,122753,5
63995,121625,5
63421,120674,5
63098,119994,4
62856,119567,5
62711,119230,5
62515,118826,5
62310,118327,5
61943,117611,4
61666,117091,5
61511,116732,5
61335,116470,5
61288,116366,5
61302,116396,5
61377,116470,4
61444,116650,5
61606,116879,5
61719,117040,5
61800,117133,4
61815,117130,5
61796,117091,5
61780,117033,5
61690,116810,4
61555,116566,5
61439,116320,5
61282,116061,5
61188,115843,5
61112,115674,4
61008,115452,5
60914,115240,5
60738,114861,5
60628,114698,5
60522,114454,4
60344,114817,5
60204,114562,5
60144,114508,5
60131,114417,5
60047,114214,4
59903,114006,6
59785,113752,4
59664,113516,5
59567,113352,5
59493,113251,4
59429,113110,5
59368,113007,5
59322,112912,5
59258,112822,5
59190,112645,4
59101,112501,5
59005,112332,5
58862,112031,5
58684,111676,4
58475,111319,5
58295,110985,5
58126,110699,5
57998,110443,5
57894,110225,4
57742,109913,5
57569,109579,5
57356,109208,5
57144,108795,5
56955,108440,4
56757,108072,5
56541,107686,6
56399,107435,4
56330,107329,5
56300,107256,4
56273,107211,5
56275,107200,5
56275,107202,5
56293,107209,5
56308,107279,4
56378,107384,5
56439,107488,5
56499,107586,5
56556,107711,4
56636,107830,4
56692,107936,5
56760,108065,5
56830,108198,5
56904,108303,4
56941,108374,5
56969,108425,5
57006,108512,5
57061,108598,5
57126,108697,4
57169,108787,5
57215,108870,5
57277,108975,5
57363,109111,5
57468,109279,4
57554,109439,5
57651,109617,5
57770,109795,5
57855,109942,5
57875,109946,4
57905,110029,5
58022,110254,5
58135,110415,5
58189,110493,5
58228,110573,4
58281,110640,5
58319,110697,5
58339,110722,5
58348,110747,4
58363,110766,4
58384,110807,5
58419,110863,5
58457,110943,5
58517,111034,5
58571,111147,4
58638,111240,5
58708,111381,5
58793,111509,5
58871,111671,4
58956,111794,5
59023,111907,5
59102,112044,5
59173,112157,5
59218,112228,4
59259,112303,5
59283,112329,5
59271,112310,5
59233,112230,5
59186,112148,4
59138,112051,5
59086,111969,5
59046,111910,5
59028,111867,5
58991,111815,4
58943,111760,5
58921,111710,5
58903,111677,5
58890,111655,4
58860,111603,5
58813,111573,4
58826,111557,5
58809,111531,5
58795,111522,4
58756,111510,5
58784,111500,5
58781,111478,5
58745,111433,5
58702,111390,4
58691,111350,5
58675,111311,5
58648,111277,5
58645,111244,5
58593,111172,4
58550,111089,5
58502,111028,5
58513,110986,5
58487,110993,5
58483,110992,4
58493,111004,5
58528,111026,6
58484,110969,4
58422,110894,5
58451,110951,4
58485,110973,7
58457,110916,3
58379,110770,5
58285,110631,4
58219,110506,4
58162,110419,5
58106,110331,5
58045,110227,5
58008,110143,4
57970,110114,5
57930,110012,5
57856,109883,5
57757,109658,5
57632,109453,4
57490,109162,5
57289,108774,5
57070,108388,5
56891,108060,5
56733,107768,4
56584,107527,5
56484,107380,5
56423,107243,6
56392,107194,4
56395,107189,4
56398,107253,5
56421,107241,5
56408,107223,5
56391,107192,5
56388,107198,4
56379,107158,5
56387,107183,5
56425,107247,5
56482,107326,4
56521,107393,4
56565,107457,5
56600,107538,5
56642,107600,5
56680,107652,4
56704,107715,5
56753,107781,5
56796,107883,5
56854,107975,5
56930,108114,5
57016,108283,4
57097,108403,5
57146,108497,5
57199,108583,6
57253,108681,3
57298,108743,5
57313,108751,5
57305,108708,5
57296,108687,5
57285,108662,4
57269,108609,5
57246,108565,5
57208,108512,5
57173,108446,5
57128,108332,4
57020,108120,5
56934,107971,5
56929,107955,5
56891,107832,4
56789,107666,4
56700,107497,5
56585,107295,5
56530,107185,5
56485,107126,4
56489,107126,6
56515,107168,4
56548,107234,5
56602,107302,5
56659,107393,6
56720,107496,3
56803,107635,5
56853,107715,5
56881,107755,5
56904,107798,4
56922,107822,5
56922,107820,5
56918,107814,5
56930,107854,5
56999,107981,4
57084,108149,5
57194,108330,5
57299,108507,5
57368,108592,5
57393,108623,4
57398,108634,5
57394,108629,5
57404,108640,5
57449,108735,4
57495,108806,5
57500,108808,6
57506,108814,4
57532,108894,5
57607,109016,4
57679,109132,5
57746,109233,5
57820,109375,5
57919,109558,5
58077,109827,4
58260,110165,5
58508,110586,5
58765,111028,5
58973,111344,5
59128,111617,4
59250,111821,5
59395,112068,5
59531,112306,5
59683,112563,5
59893,112943,4
60104,113252,5
60260,113499,5
60396,113761,5
60563,114004,5
60682,114192,4
60781,114331,5
60863,114501,6
60957,114613,4
61067,114825,4
61266,115192,5
61441,115507,5
61628,115709,5
61723,115834,5
61804,115991,4
61861,116059,5
61865,116051,5
61820,115952,5
61763,115844,5
61778,115858,4
61809,115972,5
61950,116225,5
62130,116505,5
62364,116821,5
62512,117181,4
62743,117558,5
63002,117968,5
63152,118106,5
63046,117944,5
62920,117728,4
62776,117529,5
62754,117475,5
62712,117427,6
62716,117466,4
62758,117512,4
62818,117583,5
62881,117727,5
63027,117953,5
63185,118193,4
63259,118250,5
63340,118432,5
63482,118669,5
63604,118876,5
63863,119282,4
64164,119723,5
64301,119894,5
64381,120018,5
64472,120182,5
64721,120603,4
65150,121318,5
65537,121920,6
65974,122648,4
66406,123272,5
66677,123685,5
66857,123933,4
66938,124054,5
66990,124060,5
66973,124046,6
67014,124071,3
66941,123854,5
66582,123171,5
66233,122615,5
65875,122011,4
65545,121544,4
65359,121246,5
65124,120789,5
64685,120036,5
64108,119040,4
63278,117682,5
62425,116251,5
61502,114714,5
60441,112930,5
59293,110957,4
57950,108567,5
56427,106025,5
54962,103435,5
53538,100936,5
52134,98543,4
51061,96606,6
49915,95138,4
48965,93488,5
49013,92121,5
48342,90821,4
47811,89803,5
47437,89068,5
47123,88399,5
46793,87758,5
46482,87100,4
46238,86639,5
46100,86371,5
46056,86280,5
46089,86302,4
46125,86378,4
46212,86507,5
46283,86645,5
46341,86746,5
46420,86881,4
46462,86957,5
46495,87005,5
46564,87120,5
46675,87327,5
46789,87532,4
46925,87789,5
47102,88137,6
47368,88666,4
47678,89187,5
47915,89586,4
48137,89990,5
48365,90424,5
48535,90664,5
48649,90886,5
48808,91193,4
49101,91799,5
49632,92816,5
50358,94044,5
50970,95078,5
51494,95975,4
51968,96823,5
52409,97577,5
52709,98103,5
53040,98688,4
53400,99344,4
53818,100081,5
54265,100892,5
54739,101711,5
54993,102096,4
55086,102233,5
55084,102213,5
55032,102192,6
55138,102478,4
55287,102752,4
55454,103039,5
55602,103348,5
55873,103931,5
56243,104625,5
56714,105531,4
57260,106610,5
57914,107837,5
58514,108937,5
59069,110008,5
59487,110768,4
59834,111441,5
60188,112044,5
60307,112415,5
60454,112850,5
60678,113309,4
60914,113742,5
61161,114429,5
61530,115146,5
61880,115200,5
61998,115345,4
61980,115407,5
62023,115542,5
62194,115887,5
62335,116161,4
62381,116376,5
62459,116538,5
62675,117004,5
62853,117215,5
62909,117297,4
62841,117059,5
62773,117011,5
62787,116869,5
62815,117078,5
63036,117396,4
63063,117518,5
63016,117422,5
62825,117109,5
62414,116452,5
61938,115768,4
61551,115234,5
61451,115146,5
61483,115126,5
61393,114947,5
61411,114941,5
61637,115336,4
61959,115720,5
62275,116177,5
62664,116808,4
63268,117723,5
64165,119191,5
65230,121047,5
66617,123346,5
67406,126187,4
69322,129660,5
71667,133657,5
73872,136447,5
75597,139450,5
77114,142234,4
78601,144722,5
79396,145864,5
79285,145483,5
78732,144660,5
78016,143525,4
77355,142578,5
76746,141703,5
76208,140878,5
75671,139825,5
74838,138292,4
73878,136725,6
73034,135388,4
72470,134532,5
72121,133908,5
71964,133754,4
72144,134095,5
72462,134684,5
72970,135561,5
73485,136403,4
73883,137028,5
74190,137539,5
74434,137906,5
74535,138033,5
74498,137932,4
74391,137762,5
74324,137657,5
74294,137572,5
74096,137120,5
73612,136257,4
72942,134955,5
72132,133542,5
71401,132222,5
70712,130983,5
70156,129987,4
69743,129335,5
69502,128931,6
69346,128597,4
68918,127574,5
67611,124985,4
65973,121950,5
64542,119189,5
63468,117365,5
62981,116498,5
62756,116114,4
62800,116192,5
63006,116559,5
63205,116819,5
63315,116960,4
63364,117005,5
63420,117084,5
63503,117210,5
63576,117362,5
63735,117627,4
63877,117781,5
63878,117711,5
63800,117607,5
63791,117533,5
63695,117346,4
63647,117221,5
63482,116855,5
63198,116310,5
62908,115785,5
62703,115372,4
62543,115052,5
62318,114614,5
61975,114596,5
61447,113676,5
61025,112848,4
60623,112150,5
60308,111582,5
60056,111185,5
59899,110853,4
59674,110415,4
59384,109859,5
59081,109319,5
58855,108904,5
58625,108497,4
58488,108289,5
58465,108244,5
58439,108179,5
58346,107999,5
58202,107652,5
57943,107183,3
57680,106713,5
57411,106258,5
57196,105841,5
57028,105565,4
56854,105262,5
56531,104812,5
56278,104387,5
56030,103949,10
55790,103500,9
55551,103102,5
55409,102890,8
55365,102781,5
55374,102847,5
55417,102918,8
56144,104141,5
56144,104141,5
56349,104463,5
56508,104740,8
56668,105107,5
56986,105592,5
57305,106196,8
57650,106833,5
58046,107523,5
58488,108289,8
58659,108544,5
58874,108957,5
59154,109456,5
61041,112882,8
61041,112882,5
61644,113898,5
62166,114758,8
62500,115249,5
62604,115408,5
62621,115459,5
62603,115435,8
62596,115443,5
62598,115449,5
62565,115357,8
62495,115283,5
62479,115306,5
64098,118209,8
64098,118209,5
64065,118195,5
64218,118580,5
64597,119257,8
64932,119928,5
65264,120448,5
65600,121132,8
66174,122176,5
66686,123014,5
67167,123911,5
67691,124806,8
68240,125749,5
68602,126257,5
69478,127786,8
69478,127786,5
69687,128147,5
69819,128347,8
69898,128389,5
69953,128544,5
70253,129078,5
70645,129803,8
71152,130665,5
71609,131435,5
71931,131263,8
72353,132021,5
72819,132844,5
73375,133846,5
76752,139287,8
76752,139287,5
77395,140392,5
78167,141567,8
79113,142982,5
80091,144447,5
81031,145877,8
82113,147502,5
82541,148392,5
83566,150045,5
84571,151473,8
85400,152663,5
86251,154120,5
90856,160639,8
90856,160639,5
92009,162196,5
92975,163252,5
93597,164010,8
94175,164070,5
94723,164691,5
95157,165171,8
95511,165648,5
95902,166188,5
96420,166972,8
97037,167808,5
97641,168626,5
98124,169196,5
99598,171975,8
99598,171975,5
99992,172426,5
100137,172570,8
100125,172411,5
99971,172083,5
99475,171112,5
98631,169553,8
97898,168358,5
97326,167340,5
96644,166071,8
95969,164900,5
95506,164162,5
93266,160262,8
93266,160262,5
92856,159447,5
92372,158580,5
91842,157621,8
91185,156381,5
90425,155080,5
89805,153982,8
89368,153107,5
88885,152084,5
88251,150932,5
87667,149972,8
85865,147347,5
85865,147347,5
85654,146951,8
85519,146634,5
85411,146353,5
85225,146020,8
85158,145900,5
85056,145790,5
85011,145465,4
84652,144843,2
84593,144611,3
84486,144431,5
84388,144148,5
84195,143860,5
84157,143746,4
84207,143793,5
84325,143927,5
84451,144096,6
84503,144173,4
84591,144252,4
84613,144276,5
84645,144275,5
84688,144358,5
84849,144521,5
84885,144633,4
84944,144742,5
85013,144767,5
85055,144804,5
85128,144896,5
85222,145031,4
85263,145041,5
85317,145103,5
85330,145083,5
85358,145065,5
85385,145089,4
85429,145139,5
85645,145428,5
85797,145525,5
85739,145466,5
85792,145548,4
85900,145674,5
85893,145626,5
85736,145360,6
85622,145153,3
85481,144903,5
85313,144636,5
85152,144383,5
85039,144220,8
84858,143888,1
84651,143517,5
84407,143142,5
84208,142830,5
84042,142512,5
83905,142264,4
83814,142117,5
83701,141949,5
83570,141699,5
83409,141428,5
83248,141141,4
83098,140902,5
82948,140627,5
82772,140335,5
82680,140191,4
82576,140023,5
82446,139818,4
82322,139615,5
82156,139343,5
82028,139179,4
81980,139095,5
81871,138886,5
82391,138766,5
82287,138533,5
81886,137792,4
81656,137484,5
81593,137412,5
81509,137175,5
81223,136679,5
81007,136369,4
80855,136083,5
80691,135796,5
80596,135658,5
80528,135517,5
80491,135458,4
80439,135339,5
80366,135177,5
80264,135044,5
80162,134846,5
80013,134589,4
79852,134300,6
79679,134008,4
79505,133707,5
79317,133420,4
79182,133198,4
79116,133110,5
79083,133032,5
79032,132955,5
79028,132952,4
79044,132963,5
79081,133027,5
79095,133058,5
79095,133026,5
79065,132978,4
79017,132932,5
79056,132991,5
79062,132972,5
79022,132881,5
78939,132760,4
78858,132625,5
78782,132497,5
78727,132371,5
78613,132206,5
78519,132057,4
78414,131890,5
78337,131760,6
78277,131664,4
78242,131613,5
78208,131528,4
78159,131445,5
78097,131355,5
78042,131249,5
77995,131159,4
77943,131087,5
77936,131071,5
77951,131749,5
77928,131687,5
77851,131573,4
77798,131478,5
77763,131428,5
77721,131366,5
77687,131296,5
77647,131217,4
77602,131154,5
77579,131104,5
77553,131070,5
77576,131116,5
77597,131150,4
77596,131121,5
77613,131199,5
77724,131339,5
77616,131100,5
77533,131027,4
77585,131119,5
77634,131159,5
77559,130986,5
77486,130923,5
77473,130897,4
77462,130886,5
77488,130921,5
77485,130945,5
77523,130971,4
77547,131011,5
77576,131074,5
77601,131163,5
77685,131232,5
77741,131320,4
77793,131415,5
77874,131513,5
77918,131599,5
77954,131649,5
77985,131690,5
78026,131720,4
78018,131744,5
78028,131782,5
78067,131838,5
78135,131908,4
78157,131986,5
78204,132066,5
78260,132129,5
78263,132094,5
78262,132144,4
78282,132159,5
78293,132191,5
78313,132219,5
78358,132312,4
78405,132359,4
78418,132420,5
78479,132477,5
78520,132547,5
78544,132598,4
78584,132662,5
78619,132704,5
78667,132781,5
78726,132886,5
78794,133017,4
78872,133087,6
78912,133199,4
78967,133261,5
78983,133286,5
78997,133334,4
79026,133372,5
79064,133408,5
79097,133450,5
79120,133535,5
79140,133525,4
79153,133550,5
79186,133593,5
79227,133706,5
79284,133768,5
79336,133839,4
79384,133911,5
79460,134065,5
79568,134224,5
79678,134391,4
79736,134471,4
79771,134511,5
79795,134547,5
79818,134599,5
79872,134684,4
79936,134788,5
80020,134934,6
80116,135092,4
80201,135221,5
80308,135436,4
80473,135694,5
80483,135599,5
80265,135300,5
80332,135451,5
80464,135652,4
80461,135579,5
80365,135463,5
80378,135483,5
80387,135499,5
80420,135545,4
80456,135617,5
80491,135663,5
80501,135683,5
80521,135702,5
80520,135740,4
80563,135796,5
80625,135901,5
80694,136013,5
80761,136125,4
80821,136235,4
80893,136341,5
80950,136428,5
81007,136534,5
81095,136667,4
81188,136827,5
81269,137005,5
81387,137163,5
81459,137299,5
81548,137427,4
81649,137597,5
81773,137819,5
81867,137892,5
81877,137945,5
81971,138102,4
82105,138324,5
82268,138582,5
82408,138800,5
82559,138980,5
82696,139198,5
82825,139397,4
82930,139552,5
83022,139706,5
83112,139856,6
83213,140000,3
83318,140197,5
83464,140434,5
83624,140700,5
83779,140944,4
83915,141167,4
84077,141429,5
84242,141705,5
84403,142027,5
84563,142236,4
84678,142441,5
84774,142580,5
84827,142650,5
84876,142712,5
84917,142804,4
84985,142921,5
85065,143064,5
85148,143181,5
85191,143265,5
85240,143342,4
85299,143423,6
85372,143573,4
85481,143743,5
85552,143848,5
85579,143883,6
85610,143925,3
85669,144028,5
85747,144161,5
85811,144248,5
85831,144301,4
85881,144357,5
85907,144379,5
85925,144414,5
85950,144526,4
86076,144716,4
86205,144903,5
86316,145108,5
86489,145504,5
86808,145912,4
86845,145843,5
86601,145525,5
86696,145737,5
86824,145883,5
86749,145737,4
86639,145600,5
86685,145617,6
86658,145631,4
86670,145652,5
86679,145669,4
86726,145672,5
86676,145639,5
86670,145653,5
86705,145683,5
86748,145758,4
86816,145880,5
86922,146066,5
87048,146265,5
87199,146490,5
87324,146714,4
87439,146867,5
87507,146960,5
87529,146960,5
87527,146988,4
87519,146954,4
87511,146957,5
87516,146912,5
87516,146978,5
87550,147037,4
87606,147149,5
87659,147158,5
87597,147035,6
87567,147047,4
87594,147065,4
87606,147118,5
87605,147076,5
87605,147070,5
87604,147100,5
87619,147156,4
87632,147127,5
87635,147140,5
87648,147155,5
87682,147264,5
87768,147382,4
87872,147572,5
87989,147087,5
88094,147249,5
88193,147397,5
88240,147450,4
88237,147420,5
88197,147368,5
88130,147233,5
88015,147028,5
87887,146814,4
87761,146616,5
87657,146457,5
87563,146286,6
87452,146083,3
87320,145877,5
87214,145711,5
87130,145608,5
87097,145560,5
87138,145631,4
87229,145779,5
87333,145952,5
87476,146174,5
87662,146495,5
87883,146844,4
88100,147188,5
88340,147592,5
88630,148093,5
88976,148644,5
89327,149213,4
89711,149864,5
90106,150541,5
90475,151108,5
90825,151678,5
91200,152281,5
91552,152851,4
91908,153410,5
92190,153815,5
92327,154008,6
92389,154090,3
92362,153975,5
92239,153814,5
92279,153938,5
92418,154119,4
92197,153637,5
91942,153352,5
91972,153435,5
92010,153377,5
91669,152731,4
91324,152232,5
91080,151799,5
90794,151364,5
90696,151255,5
90628,151098,4
90489,150866,5
90349,150654,5
90283,150580,5
90227,150470,5
90204,150448,4
90353,150700,6
90468,150806,4
90435,150748,5
90495,150829,5
90529,150853,4
90467,150675,5
90357,150494,5
90324,150430,5
90244,150263,4
90111,150035,4
90008,149883,5
90024,149941,5
90086,150061,5
90316,150419,4
90678,150966,5
91030,151396,5
91008,151246,5
91031,151360,5
91302,151825,4
91661,152359,5
91852,152552,5
91897,152647,5
91942,152640,5
92063,152886,4
92420,153473,5
92845,154112,6
93162,154477,4
93355,154633,5
93264,154303,4
92817,153574,5
92434,152894,5
91951,152112,5
91674,151740,5
91564,151673,4
91618,151732,5
91592,151641,5
91510,151526,5
91500,151545,4
91554,151514,4
91401,151187,5
91139,150743,5
90795,150057,5
90145,149000,4
89512,147979,5
89050,147317,5
88786,146890,5
88655,146778,5
88611,146667,4
88469,146358,5
88242,145913,5
88057,145684,6
87934,145532,4
87947,145579,4
88075,145770,5
88194,145982,5
88323,146189,5
88446,146353,5
88509,146442,4
88476,146326,5
88296,146037,5
88214,145936,5
88142,145701,5
87819,145176,4
87552,144821,5
87450,144730,5
87390,144519,5
87206,144298,4
87117,144151,4
87009,143960,6
86869,143689,4
86624,143302,5
86434,142992,5
86253,142699,4
86086,142411,5
85903,142115,5
85758,141850,6
85602,141598,3
85407,141311,5
85252,141020,5
85150,140879,5
85120,140844,5
85126,140858,4
85102,140796,5
85032,140683,5
84952,140541,5
84880,140420,5
84765,140217,4
84636,140012,5
84503,139780,5
84375,139603,5
84315,139532,5
84303,139516,4
84275,139472,5
84249,139424,5
84223,139385,5
84150,139259,4
84073,139129,5
83983,139019,4
83963,138999,5
83979,139016,5
83990,139053,4
84035,139130,5
84058,139151,5
84051,139116,5
84015,139071,5
83989,139035,4
83948,138984,5
83947,138981,5
83997,139100,5
84128,139324,5
84265,139561,4
84429,139817,5
84614,140111,5
84761,140316,5
84849,140479,5
84935,140614,4
84953,140618,5
84883,140467,5
84769,140266,5
84674,140143,5
84606,140055,4
84567,140005,6
84510,139872,4
84425,139702,5
84308,139556,5
84241,139450,4
84191,139390,5
84167,139335,5
84089,139199,5
84011,139091,4
84034,139151,5
83996,138993,5
83719,138532,5
83495,138201,5
83433,138130,4
83266,137809,5
83050,137476,5
82894,137255,5
82807,137153,5
82792,137112,4
82737,137015,5
82676,136921,5
82607,136810,5
82563,136728,5
82530,136678,4
82509,136681,5
82564,136753,6
82593,136812,4
82616,136834,5
82606,136813,4
82595,136778,5
82562,136715,5
82508,136613,5
82442,136529,5
82406,136462,4
82372,136427,5
82371,136427,5
82376,136435,5
82406,136488,4
82444,136583,5
82545,136726,5
82573,136746,5
82613,136781,5
82648,136856,4
82693,136911,5
82713,136940,5
82817,137149,5
83134,137734,5
83555,138399,4
83979,139093,5
84270,139547,5
84607,140064,5
84996,140754,5
85554,141689,4
86092,142583,5
86748,143590,5
87580,145048,5
88761,147031,5
89890,148772,4
90663,149837,5
91210,150782,5
91905,152006,5
92908,153609,5
93819,155182,4
95052,157272,5
96435,159420,5
97789,161484,5
99050,163629,4
99868,165852,5
101450,167710,5
103194,170447,5
105080,173404,5
106877,176153,5
108615,178796,4
110305,181360,5
112187,183774,5
114091,186474,5
115432,188585,4
116217,190581,5
118092,193348,5
119962,196004,5
121410,197980,5
122842,199286,4
124154,201140,5
125564,203305,5
126849,205090,5
127836,206257,5
128459,207160,4
129161,208236,5
129931,209259,5
130845,210626,5
131592,211676,5
131281,212253,4
131875,213149,5
132243,213187,5
132719,213814,5
133183,214453,4
133836,215421,6
134617,216552,4
135351,217518,5
136009,218627,5
136819,219800,4
137535,221054,5
138431,222284,5
139338,223640,5
