RED,IR,EKG,TIME
33467,64845,12
33450,64801,5
33436,64782,5
33429,64771,5
33429,64759,8
33421,64751,5
33424,64759,5
33417,64763,8
33432,64765,5
33440,64794,5
33441,64807,5
33507,64914,8
33507,64914,5
33501,64938,5
33523,64934,8
33512,64913,5
33507,64912,5
33497,64889,8
33492,64879,5
33488,64872,5
33499,64873,5
33476,64861,8
33474,64834,5
33468,64849,5
33480,64832,8
33480,64832,5
33475,64865,5
33470,64863,5
33469,64839,8
33470,64815,5
33473,64851,5
33506,64845,8
33497,64855,5
33466,64850,5
33470,64845,8
33483,64851,5
33469,64850,5
33479,64852,5
33463,64844,8
33463,64844,5
33474,64791,5
33469,64825,8
33475,64839,5
33476,64850,5
33451,64847,5
33445,64852,8
33470,64849,5
33466,64844,5
33467,64849,8
33471,64838,5
33465,64830,5
33467,64837,5
33460,64819,8
33460,64819,5
33467,64810,5
33460,64810,8
33439,64801,5
33448,64807,5
33443,64790,8
33438,64811,5
33448,64808,5
33435,64777,5
33435,64785,8
33438,64790,5
33442,64797,5
33442,64797,8
33449,64805,5
33452,64803,5
33435,64805,5
33455,64816,8
33458,64813,5
33456,64828,5
33459,64796,8
33457,64798,5
33462,64832,5
33471,64839,8
33471,64839,5
33472,64851,5
33472,64849,5
33461,64837,8
33460,64841,5
33479,64846,5
33479,64854,8
33472,64848,5
33471,64834,5
33468,64821,5
33463,64834,8
33480,64822,5
33473,64832,5
33460,64821,8
33460,64821,5
33454,64801,5
33454,64819,8
33460,64812,5
33457,64820,5
33449,64811,5
33440,64803,8
33451,64812,5
33454,64805,5
33447,64804,8
33443,64815,5
33440,64796,5
33451,64787,5
33416,64744,8
33416,64744,5
33444,64709,5
33394,64693,6
33350,64675,1
33359,64641,4
33347,64623,4
33345,64613,5
33345,64619,5
33341,64618,5
33340,64616,5
33344,64626,4
33344,64635,5
33357,64635,5
33362,64655,5
33375,64661,5
33385,64696,4
33391,64710,5
33411,64727,5
33415,64746,5
33409,64739,4
33394,64726,5
33394,64720,5
33404,64723,5
33394,64711,5
33387,64703,4
33392,64702,5
33382,64697,5
33393,64696,5
33393,64692,5
33389,64689,4
33394,64693,5
33391,64685,5
33385,64686,5
33389,64689,5
33385,64695,4
33392,64699,5
33393,64694,5
33391,64703,5
33396,64704,4
33401,64697,5
33394,64697,4
33391,64706,5
33393,64710,5
33390,64699,4
33401,64697,5
33385,64701,5
33393,64698,5
33388,64701,5
33394,64692,4
33393,64698,5
33385,64689,5
33389,64698,5
33382,64686,5
33391,64695,4
33392,64696,5
33393,64697,5
33389,64689,5
33394,64690,5
33389,64696,4
33389,64693,5
33387,64674,5
33383,64681,5
33382,64676,5
33383,64675,4
33385,64677,6
33380,64684,4
33382,64676,5
33387,64678,4
33381,64682,5
33382,64675,5
33380,64670,5
33382,64663,5
33372,64658,4
33364,64668,5
33364,64657,5
33371,64672,5
33377,64672,5
33380,64669,8
33371,64664,1
33373,64670,5
33384,64670,5
33387,64676,5
33385,64684,4
33392,64689,5
33392,64698,5
33399,64700,6
33403,64703,4
33403,64717,4
33404,64707,5
33405,64713,5
33409,64728,5
33403,64729,4
33411,64721,4
33423,64724,5
33413,64723,5
33405,64717,5
33402,64733,4
33405,64724,5
33406,64721,5
33399,64730,5
33398,64721,5
33403,64722,4
33410,64720,5
33401,64708,5
33391,64707,5
33389,64710,5
33391,64699,5
33396,64697,4
33393,64698,5
33397,64695,5
33393,64699,6
33389,64680,3
33391,64697,5
33389,64691,5
33382,64683,5
33384,64679,5
33385,64681,4
33386,64682,5
33375,64670,5
33372,64663,5
33380,64649,4
33357,64646,4
33357,64618,5
33354,64605,5
33340,64592,5
33322,64560,4
33314,64558,5
33313,64549,5
33308,64532,5
33301,64531,5
33305,64538,4
33293,64533,6
33298,64531,4
33305,64544,5
33314,64557,5
33313,64570,6
33325,64573,3
33336,64609,5
33352,64624,5
33352,64643,5
33360,64640,4
33359,64648,5
33364,64637,5
33347,64618,5
33346,64617,5
33341,64598,4
33330,64586,5
33329,64587,5
33333,64589,5
33332,64579,4
33328,64583,5
33334,64584,5
33336,64593,5
33336,64588,5
33331,64582,4
33337,64597,5
33340,64602,6
33340,64603,4
33345,64608,5
33348,64618,4
33343,64619,5
33359,64614,5
33354,64620,5
33359,64632,5
33357,64623,4
33355,64626,5
33353,64627,5
33361,64634,5
33358,64630,5
33361,64620,4
33364,64626,5
33360,64618,5
33348,64624,5
33353,64619,4
33352,64619,4
33350,64620,5
33355,64615,5
33347,64621,5
33353,64620,4
33345,64609,5
33347,64610,5
33348,64609,6
33341,64606,4
33332,64598,4
33335,64594,5
33328,64575,5
33332,64574,5
33330,64583,5
33329,64569,4
33325,64564,5
33312,64563,5
33321,64565,5
33314,64560,5
33317,64557,4
33320,64552,5
33321,64557,5
33328,64565,5
33318,64562,5
33334,64570,4
33334,64579,5
33331,64598,5
33335,64596,5
33337,64600,5
33342,64604,4
33340,64605,5
33342,64611,5
33344,64622,6
33360,64626,3
33366,64625,5
33360,64633,5
33366,64644,5
33370,64652,5
33369,64639,4
33366,64645,5
33367,64651,5
33374,64643,5
33367,64644,5
33366,64645,4
33366,64642,5
33367,64640,5
33364,64646,5
33361,64632,5
33357,64635,4
33347,64631,5
33362,64620,5
33350,64629,5
33350,64616,4
33350,64622,5
33342,64611,4
33340,64604,5
33344,64599,5
33343,64599,4
33335,64603,5
33340,64598,5
33342,64600,5
33335,64585,5
33344,64595,4
33329,64583,5
33326,64595,5
33327,64585,5
33322,64571,5
33314,64577,4
33326,64561,5
33314,64551,5
33308,64526,5
33290,64508,5
33289,64492,4
33275,64479,5
33267,64470,5
33246,64456,5
33245,64445,5
33253,64433,4
33247,64437,6
33245,64442,4
33252,64448,5
33256,64450,4
33262,64457,4
33272,64474,5
33274,64482,5
33280,64493,5
33287,64518,4
33304,64522,5
33300,64538,5
33308,64535,5
33302,64534,5
33299,64515,4
33287,64512,5
33279,64491,5
33268,64488,5
33279,64477,5
33273,64473,4
33276,64474,5
33280,64474,5
33275,64479,5
33278,64483,5
33282,64493,4
33283,64500,5
33280,64496,6
33289,64504,4
33289,64511,5
33293,64523,4
33300,64522,5
33310,64520,5
33307,64536,5
33308,64542,4
33320,64546,5
33311,64544,5
33317,64544,5
33314,64543,5
33316,64553,4
33322,64547,5
33312,64548,5
33318,64538,5
33306,64554,5
33316,64540,4
33311,64539,5
33321,64549,5
33317,64550,5
33314,64543,5
33312,64551,4
33311,64545,5
33311,64548,5
33311,64545,5
33312,64542,5
33313,64526,4
33306,64523,5
33309,64534,5
33302,64523,5
33292,64512,4
33299,64525,5
33301,64518,5
33298,64514,5
33285,64506,5
33284,64506,4
33292,64498,5
33294,64507,5
33300,64512,5
33303,64515,5
33300,64516,4
33296,64524,5
33304,64535,5
33307,64538,5
33314,64548,5
33325,64560,5
33327,64562,4
33336,64578,5
33336,64586,5
33356,64600,5
33349,64611,4
33349,64631,5
33356,64628,5
33356,64634,5
33362,64630,4
33361,64640,4
33367,64646,5
33367,64652,5
33375,64658,5
33363,64652,4
33369,64655,5
33367,64657,5
33372,64656,5
33369,64647,5
33363,64641,4
33370,64643,5
33367,64646,5
33367,64645,5
33364,64639,5
33363,64629,4
33364,64624,6
33360,64627,4
33360,64629,5
33362,64629,5
33353,64625,4
33351,64622,5
33356,64619,5
33351,64613,5
33351,64616,5
33343,64607,4
33345,64614,5
33342,64593,5
33336,64595,5
33323,64571,4
33318,64559,5
33308,64549,5
33304,64525,5
33298,64521,5
33290,64508,4
33278,64497,5
33276,64482,5
33275,64478,5
33276,64477,5
33284,64480,4
33274,64487,5
33279,64502,6
33282,64504,4
33298,64521,5
33303,64530,4
33313,64560,5
33320,64567,5
33327,64590,5
33335,64591,5
33332,64584,4
33320,64568,5
33326,64572,5
33314,64567,5
33313,64543,4
33305,64546,4
33317,64553,5
33315,64544,5
33314,64545,5
33302,64552,4
33321,64564,5
33324,64575,5
33326,64568,5
33325,64578,5
33338,64588,4
33341,64598,5
33347,64599,5
33353,64620,5
33348,64622,5
33359,64639,4
33363,64636,5
33376,64653,5
33370,64657,5
33374,64639,5
33371,64647,4
33374,64651,5
33370,64641,5
33372,64647,5
33377,64656,5
33373,64652,4
33364,64653,5
33369,64652,5
33373,64646,5
33369,64653,4
33381,64646,5
33377,64657,5
33377,64657,5
33367,64640,5
33375,64650,6
33370,64645,3
33372,64638,5
33368,64629,5
33365,64641,5
33365,64640,4
33361,64628,5
33357,64635,5
33363,64621,5
33354,64629,5
33351,64615,4
33346,64629,5
33359,64624,5
33363,64618,5
33353,64624,5
33353,64634,4
33360,64639,5
33372,64643,5
33377,64666,5
33389,64677,4
33387,64685,4
33396,64702,6
33404,64718,4
33413,64740,5
33421,64737,4
33423,64759,7
33435,64771,3
33446,64784,5
33443,64795,5
33452,64800,4
33448,64801,5
33464,64814,5
33453,64816,5
33455,64821,5
33459,64818,4
33466,64814,5
33460,64825,5
33457,64826,5
33454,64811,5
33472,64825,4
33462,64810,5
33461,64808,5
33460,64805,5
33453,64798,4
33446,64784,4
33438,64771,5
33433,64771,6
33421,64749,4
33407,64727,4
33400,64710,5
33395,64709,5
33399,64699,5
33389,64692,5
33390,64700,4
33386,64702,5
33391,64710,5
33409,64718,5
33406,64730,5
33415,64741,4
33429,64750,5
33439,64766,5
33447,64782,5
33449,64790,5
33450,64798,4
33451,64785,5
33430,64763,5
33427,64765,5
33427,64749,5
33427,64749,4
33418,64736,5
33412,64734,5
33418,64741,6
33413,64735,3
33421,64745,5
33426,64751,5
33428,64756,5
33433,64754,7
33436,64766,2
33427,64768,5
33441,64778,5
33445,64785,5
33447,64791,5
33455,64801,4
33459,64803,5
33462,64807,5
33460,64810,5
33455,64813,5
33455,64811,4
33462,64809,5
33460,64815,5
33463,64818,5
33466,64807,5
33463,64814,5
33464,64811,4
33456,64808,5
33464,64817,5
33465,64820,6
33472,64822,3
33461,64824,5
33466,64821,5
33470,64826,5
33463,64816,4
33467,64818,5
33471,64822,5
33456,64816,5
33465,64817,5
33465,64813,4
33464,64817,5
33457,64815,5
33453,64813,5
33456,64803,5
33453,64810,4
33451,64813,5
33456,64809,5
33461,64812,5
33469,64808,5
33458,64809,4
33464,64822,6
33466,64823,4
33465,64832,5
33468,64843,4
33483,64851,4
33482,64866,5
33493,64882,5
33510,64891,5
33515,64916,4
33518,64927,5
33520,64937,5
33544,64952,5
33534,64959,5
33547,64977,4
33552,64985,5
33561,64996,5
33567,65002,5
33577,65016,5
33577,65020,4
33577,65016,5
33581,65025,5
33570,65016,5
33575,65022,5
33577,65011,4
33564,65009,5
33561,64996,6
33560,64996,4
33548,64969,5
33541,64969,4
33539,64957,5
33526,64950,5
33517,64937,5
33525,64934,4
33526,64939,4
33530,64938,5
33536,64956,5
33533,64965,5
33546,64978,4
33554,64984,5
33562,65011,5
33579,65032,5
33596,65069,5
33608,65080,4
33603,65098,5
33610,65075,5
33588,65061,5
33586,65048,5
33579,65046,4
33573,65033,5
33572,65023,5
33571,65017,6
33567,65015,4
33564,65012,4
33568,65011,5
33568,65013,5
33567,65016,5
33573,65021,4
33581,65023,4
33578,65031,5
33583,65025,5
33581,65037,5
33580,65043,4
33588,65046,5
33595,65046,5
33582,65046,5
33595,65053,5
33592,65058,4
33595,65052,5
33594,65059,5
33596,65057,5
33598,65062,5
33598,65061,5
33600,65061,4
33588,65057,5
33590,65062,5
33590,65060,5
33596,65066,4
33607,65065,5
33603,65076,5
33595,65068,5
33605,65072,5
33602,65076,4
33597,65067,5
33601,65071,5
33601,65080,5
33604,65070,4
33594,65071,5
33605,65078,5
33605,65079,5
33603,65080,5
33602,65075,4
33595,65066,5
33594,65068,5
33590,65063,5
33594,65056,5
33586,65063,4
33585,65064,6
33584,65046,4
33580,65052,5
33591,65064,5
33591,65074,4
33605,65077,5
33608,65074,5
33603,65089,5
33611,65095,5
33608,65100,4
33608,65111,5
33622,65104,5
33623,65120,5
33625,65123,4
33624,65130,5
33633,65150,5
33636,65144,5
33628,65146,5
33642,65151,4
33645,65153,5
33638,65154,5
33640,65150,5
33638,65142,5
33631,65137,4
33637,65134,5
33629,65135,6
33625,65120,4
33613,65110,5
33617,65105,4
33606,65094,5
33610,65091,5
33597,65088,5
33599,65085,5
33599,65087,4
33599,65082,5
33603,65085,5
33600,65099,5
33603,65111,4
33614,65115,4
33622,65137,5
33628,65140,5
33643,65156,5
33646,65154,4
33637,65141,5
33617,65127,5
33616,65111,5
33618,65108,5
33601,65102,4
33605,65087,5
33599,65079,5
33599,65072,5
33583,65064,5
33606,65058,4
33588,65051,5
33588,65052,5
33585,65049,5
33591,65037,5
33576,65041,4
33575,65036,5
33580,65043,5
33592,65043,5
33583,65047,4
33592,65050,4
33584,65048,5
33594,65039,5
33580,65040,5
33581,65039,4
33575,65035,5
33575,65029,5
33581,65038,5
33579,65041,5
33581,65039,5
33569,65025,4
33572,65023,5
33566,65018,5
33575,65019,5
33574,65022,4
33575,65027,5
33567,65029,5
33565,65022,5
33575,65022,5
33567,65016,4
33569,65014,5
33562,65011,5
33557,65018,5
33565,65008,5
33560,65003,4
33557,65001,5
33556,64997,5
33551,64986,5
33544,64978,4
33540,64976,5
33532,64969,5
33536,64946,5
33520,64947,5
33527,64934,4
33517,64943,6
33515,64939,4
33523,64932,5
33510,64931,5
33511,64916,4
33518,64925,5
33514,64919,5
33511,64923,5
33517,64929,5
33509,64924,4
33505,64920,5
33513,64930,5
33516,64939,5
33514,64936,5
33520,64940,4
33517,64936,5
33519,64940,5
33520,64940,5
33526,64945,4
33515,64946,4
33516,64937,5
33513,64938,5
33524,64954,5
33523,64946,4
33526,64945,5
33518,64946,6
33517,64943,4
33516,64935,5
33510,64942,4
33520,64938,5
33518,64939,5
33511,64935,5
33512,64926,5
33514,64929,4
33514,64928,5
33508,64930,5
33512,64915,5
33496,64906,5
33502,64907,4
33497,64896,5
33492,64873,5
33479,64861,5
33475,64845,5
33455,64816,4
33435,64781,5
33419,64760,5
33400,64724,6
33387,64696,3
33379,64680,5
33368,64664,5
33360,64649,5
33361,64651,5
33359,64648,4
33360,64653,5
33372,64662,5
33370,64680,5
33379,64689,5
33399,64711,4
33401,64727,5
33410,64760,5
33418,64785,5
33436,64805,5
33452,64809,4
33444,64802,5
33436,64787,5
33440,64787,5
33439,64786,5
33436,64776,5
33425,64763,4
33428,64756,5
33425,64760,5
33426,64762,6
33419,64757,3
33424,64762,5
33419,64760,5
33425,64762,5
33428,64769,4
33418,64759,5
33420,64761,5
33430,64766,5
33432,64764,5
33423,64762,4
33428,64763,5
33432,64774,5
33434,64763,5
33421,64771,5
33436,64769,4
33433,64780,5
33438,64774,5
33426,64766,5
33433,64780,5
33440,64765,4
33437,64773,6
33433,64763,4
33431,64760,5
33432,64775,4
33435,64773,6
33447,64770,3
33436,64771,5
33439,64778,5
33439,64772,4
33440,64771,5
33435,64775,5
33437,64772,5
33431,64774,5
33440,64766,4
33427,64771,5
33427,64767,5
33432,64769,5
33433,64765,5
33431,64772,4
33422,64758,5
33427,64742,5
33417,64744,5
33417,64757,5
33424,64755,4
33420,64752,5
33418,64744,6
33419,64749,4
33412,64736,5
33420,64744,4
33420,64736,5
33422,64746,5
33429,64754,5
33422,64752,4
33424,64768,5
33428,64764,5
33429,64777,5
33433,64774,5
33432,64785,4
33431,64778,5
33431,64776,5
33435,64787,5
33435,64789,5
33443,64785,4
33436,64785,5
33444,64792,5
33438,64801,5
33442,64792,5
33447,64797,4
33441,64797,5
33449,64794,5
33440,64795,6
33447,64791,4
33445,64798,4
33442,64789,5
33446,64794,5
33435,64783,5
33433,64781,4
33433,64775,4
33431,64782,5
33431,64775,5
33428,64775,5
33433,64774,4
33434,64774,5
33424,64767,5
33422,64770,5
33421,64756,5
33420,64757,4
33428,64759,5
33422,64757,5
33416,64760,5
33418,64765,5
33423,64753,5
33421,64753,4
33417,64756,5
33424,64757,5
33415,64750,6
33410,64752,3
33412,64737,5
33412,64739,5
33413,64746,5
33410,64753,5
33409,64747,4
33419,64745,5
33408,64749,5
33414,64751,5
33416,64743,4
33416,64752,5
33411,64744,5
33408,64744,5
33417,64735,5
33413,64740,4
33409,64738,5
33412,64725,10
33398,64715,5
33388,64704,4
33380,64683,6
33371,64668,4
33355,64643,5
33340,64612,5
33328,64592,4
33313,64565,5
33298,64541,5
33305,64539,5
33296,64523,5
33292,64526,4
33283,64528,5
33295,64528,5
33299,64536,5
33313,64546,4
33317,64566,4
33326,64587,5
33339,64610,5
33357,64649,5
33369,64663,4
33380,64680,5
33378,64670,5
33376,64658,5
33358,64652,5
33363,64653,4
33355,64644,5
33359,64643,6
33361,64639,4
33358,64636,5
33363,64640,4
33357,64642,5
33348,64637,5
33360,64638,5
33362,64649,5
33361,64644,4
33367,64657,5
33371,64654,5
33373,64664,5
33369,64667,4
33378,64678,4
33377,64675,5
33381,64668,5
33381,64676,5
33379,64675,4
33369,64677,5
33378,64669,5
33384,64673,5
33371,64672,5
33383,64668,4
33372,64663,5
33380,64662,5
33376,64657,6
33382,64669,4
33374,64656,4
33369,64655,5
33369,64653,5
33378,64658,5
33376,64660,5
33374,64664,4
33370,64653,5
33376,64656,5
33370,64643,5
33365,64651,5
33359,64645,4
33363,64629,5
33358,64633,5
33352,64632,5
33352,64629,4
33352,64613,5
33343,64623,5
33351,64609,5
33341,64617,5
33347,64609,5
33345,64604,4
33345,64600,5
33346,64601,5
33345,64604,5
33349,64610,4
33343,64611,5
33348,64624,5
33346,64616,5
33355,64621,5
33357,64634,4
33358,64635,5
33364,64653,5
33366,64658,5
33372,64670,5
33375,64666,4
33380,64680,5
33383,64674,5
33390,64686,5
33389,64688,4
33385,64690,4
33383,64691,5
33387,64692,5
33393,64693,5
33387,64699,4
33386,64692,6
33395,64695,4
33382,64695,5
33383,64687,5
33386,64691,4
33384,64676,5
33389,64687,5
33385,64685,5
33381,64674,5
33386,64670,4
33378,64667,5
33373,64672,5
33372,64671,5
33362,64661,5
33368,64656,4
33369,64645,5
33376,64644,5
33369,64654,5
33364,64635,5
33358,64636,4
33357,64644,5
33356,64640,5
33363,64626,5
33361,64634,4
33357,64635,5
33353,64616,6
33353,64622,4
33344,64612,5
33340,64593,4
33320,64584,5
33320,64558,5
33305,64541,5
33297,64522,5
33283,64509,4
33279,64494,5
33271,64482,5
33277,64481,5
33269,64470,5
33272,64480,4
33276,64482,5
33281,64491,5
33282,64511,5
33279,64507,5
33292,64520,4
33295,64542,5
33310,64557,5
33319,64576,5
33330,64589,4
33338,64607,4
33341,64604,5
33326,64585,5
33326,64563,5
33320,64566,4
33314,64550,5
33315,64549,5
33301,64532,5
33301,64530,5
33295,64527,4
33307,64535,5
33304,64536,5
33307,64537,5
33311,64547,5
33309,64546,4
33315,64556,5
33322,64562,5
33324,64580,5
33328,64579,5
33326,64576,4
33332,64592,5
33338,64599,5
33336,64601,5
33334,64591,5
33334,64610,4
33343,64599,5
33345,64595,5
33350,64598,5
33340,64611,4
33338,64603,5
33342,64599,5
33341,64601,5
33340,64592,5
33328,64595,4
33335,64596,5
33340,64592,5
33337,64594,5
33345,64595,5
33337,64585,4
33334,64582,5
33322,64580,5
33327,64588,5
33326,64572,5
33320,64573,4
33319,64569,5
33319,64556,4
33314,64559,5
33314,64560,5
33319,64552,5
33305,64556,3
33316,64543,5
33310,64544,5
33323,64538,4
33304,64544,5
33305,64544,5
33316,64547,5
33324,64557,5
33320,64560,4
33322,64566,5
33330,64571,5
33334,64583,5
33335,64587,5
33345,64610,4
33348,64621,5
33358,64626,5
33361,64642,5
33362,64640,5
33365,64645,4
33372,64658,5
33381,64669,6
33376,64672,4
33383,64673,5
33391,64680,4
33383,64680,5
33395,64685,5
33393,64680,5
33386,64676,4
33386,64677,4
33387,64682,5
33391,64690,5
33388,64685,5
33385,64685,4
33381,64672,5
33388,64676,5
33382,64674,5
33372,64673,5
33379,64667,4
33377,64664,5
33375,64664,5
33365,64659,5
33368,64649,5
33378,64645,4
33368,64655,5
33371,64646,5
33364,64645,6
33361,64639,4
33364,64642,4
33352,64633,5
33360,64622,5
33346,64617,5
33342,64605,5
33335,64593,4
33325,64577,5
33314,64563,5
33313,64545,5
33303,64530,4
33300,64520,4
33296,64513,5
33295,64511,5
33294,64516,5
33295,64523,4
33307,64531,5
33304,64548,5
33313,64558,5
33324,64571,5
33324,64594,5
33337,64612,4
33352,64649,5
33367,64664,5
33381,64675,6
33385,64692,3
33385,64682,5
33370,64666,5
33369,64660,5
33366,64655,5
33372,64653,4
33364,64648,5
33372,64662,5
33377,64661,5
33381,64669,5
33382,64673,4
33385,64692,5
33395,64697,5
33396,64709,5
33416,64728,4
33425,64726,5
33420,64748,5
33428,64758,5
33425,64772,5
33441,64784,4
33449,64784,6
33451,64787,4
33449,64795,5
33445,64791,5
33455,64802,6
33454,64804,3
33450,64803,5
33459,64809,5
33455,64806,5
33458,64805,4
33459,64818,5
33468,64817,5
33470,64817,5
33467,64817,5
33462,64826,4
33464,64823,5
33464,64810,5
33458,64819,5
33454,64812,4
33463,64809,4
33460,64805,5
33450,64802,5
33447,64799,5
33448,64797,4
33438,64794,5
33445,64793,6
33441,64779,4
33445,64778,5
33440,64773,4
33428,64769,5
33433,64768,5
33441,64767,5
33434,64783,5
33434,64776,4
33441,64789,5
33443,64789,5
33448,64799,5
33452,64798,5
33455,64808,4
33460,64828,5
33467,64827,5
33464,64840,5
33480,64854,5
33485,64868,4
33490,64877,5
33493,64893,5
33506,64895,5
33508,64902,4
33509,64911,5
33516,64918,5
33505,64925,6
33521,64928,4
33519,64930,4
33522,64932,5
33523,64934,5
33516,64933,5
33517,64936,5
33533,64938,4
33521,64941,5
33521,64928,5
33517,64927,5
33521,64917,5
33502,64903,4
33494,64892,5
33488,64882,5
33483,64856,5
33479,64849,5
33471,64837,4
33465,64831,5
33453,64822,5
33464,64822,5
33457,64817,5
33462,64827,4
33455,64825,5
33473,64848,5
33480,64860,6
33478,64871,3
33482,64870,5
33485,64893,5
33501,64904,5
33504,64915,5
33502,64918,4
33509,64906,5
33499,64884,5
33493,64869,5
33486,64875,5
33476,64854,4
33466,64843,5
33464,64833,5
33465,64845,5
33466,64835,5
33469,64843,4
33472,64845,5
33475,64849,5
33479,64858,5
33482,64868,5
33488,64865,5
33489,64866,4
33488,64880,5
33490,64887,5
33496,64897,4
33499,64893,4
33503,64894,5
33506,64901,5
33509,64902,5
33508,64908,4
33509,64896,5
33504,64904,5
33511,64907,5
33512,64900,5
33514,64909,4
33515,64912,5
33506,64903,5
33515,64908,5
33515,64907,5
33518,64919,4
33522,64910,5
33509,64908,5
33515,64919,5
33510,64911,5
33511,64910,4
33500,64911,6
33514,64903,4
33505,64903,5
33509,64902,5
33505,64896,4
33503,64898,5
33501,64889,5
33496,64893,5
33499,64885,4
33493,64882,8
33498,64875,2
33489,64890,5
33489,64888,5
33496,64896,4
33504,64902,5
33507,64904,5
33513,64920,5
33513,64926,5
33518,64932,4
33531,64951,5
33522,64957,5
33532,64962,5
33537,64980,5
33549,64984,4
33547,64987,5
33561,65003,6
33564,65006,4
33562,65006,5
33567,65021,4
33578,65023,5
33583,65029,5
33579,65029,5
33578,65034,4
33586,65034,4
33581,65025,5
33571,65019,5
33571,65014,5
33562,64999,4
33558,64993,5
33561,64997,5
33547,64992,5
33538,64968,5
33537,64976,4
33539,64972,5
33537,64977,5
33543,64983,5
33542,64977,5
33550,64992,4
33553,64994,5
33558,64999,5
33565,65022,5
33564,65027,5
33579,65035,4
33585,65042,5
33571,65030,5
33562,65017,5
33559,65021,5
33566,65001,4
33551,64990,5
33554,64994,5
33552,64998,5
33552,64997,4
33557,64993,5
33550,65004,5
33564,65004,5
33555,65007,5
33562,65006,4
33568,65017,5
33571,65023,5
33571,65035,5
33584,65030,5
33586,65045,5
33585,65043,4
33589,65048,5
33591,65060,5
33588,65063,5
33591,65061,4
33603,65067,5
33592,65072,5
33597,65077,5
33608,65082,5
33614,65078,4
33605,65083,5
33610,65078,5
33611,65089,5
33620,65092,4
33616,65106,4
33618,65109,5
33621,65117,5
33622,65114,5
33620,65123,4
33626,65122,5
33627,65114,5
33622,65119,5
33615,65116,5
33621,65112,4
33622,65119,6
33622,65110,4
33624,65112,5
33621,65118,5
33629,65115,4
33616,65098,5
33626,65110,5
33617,65112,5
33609,65116,5
33620,65113,4
33622,65110,5
33619,65114,5
33612,65119,5
33610,65117,5
33623,65123,4
33625,65133,5
33623,65136,5
33637,65149,5
33631,65150,4
33648,65158,4
33650,65158,5
33648,65172,5
33656,65188,5
33657,65189,4
33657,65190,5
33663,65197,5
33669,65190,5
33661,65195,5
33664,65206,4
33665,65196,5
33657,65194,5
33653,65193,5
33656,65187,5
33653,65179,4
33643,65178,5
33641,65173,5
33643,65161,5
33645,65160,5
33634,65148,4
33636,65145,5
33626,65148,5
33642,65149,5
33628,65156,5
33639,65164,4
33646,65172,5
33654,65173,5
33654,65195,6
33660,65188,3
33655,65169,5
33641,65161,5
33642,65170,5
33635,65157,5
33635,65144,4
33628,65152,5
33628,65140,5
33629,65126,5
33619,65131,5
33621,65127,4
33618,65121,5
33618,65122,5
33625,65124,5
33611,65106,5
33610,65108,4
33614,65107,5
33611,65113,5
33615,65103,5
33615,65110,5
33623,65111,5
33615,65111,4
33620,65114,5
33611,65108,5
33616,65111,6
33611,65104,3
33614,65100,5
33619,65110,5
33616,65107,5
33607,65111,4
33624,65106,5
33617,65108,5
33610,65116,5
33607,65108,5
33618,65115,4
33607,65108,5
33623,65099,5
33615,65100,5
33608,65112,5
33624,65101,4
33613,65097,5
33608,65099,5
33612,65091,5
33604,65088,5
33608,65101,4
33605,65085,6
33606,65078,4
33601,65079,5
33592,65068,5
33586,65065,6
33586,65059,3
33585,65048,5
33575,65038,5
33571,65037,4
33569,65027,4
33578,65026,5
33568,65024,5
33569,65033,5
33569,65023,4
33569,65026,5
33565,65020,5
33563,65033,5
33571,65030,5
33568,65030,4
33558,65033,5
33563,65023,5
33572,65027,5
33561,65029,5
33573,65033,4
33571,65040,5
33579,65046,6
33561,65049,4
33577,65044,5
33580,65046,4
33571,65046,5
33571,65047,5
33573,65046,5
33573,65048,5
33574,65045,4
33579,65043,5
33584,65042,5
33565,65033,5
33569,65037,4
33564,65028,4
33568,65021,5
33561,65010,5
33543,64995,5
33548,64976,4
33524,64958,5
33512,64927,5
33491,64899,5
33489,64870,5
33472,64856,4
33457,64835,5
33450,64814,5
33452,64819,6
33451,64829,4
33454,64828,4
33458,64839,5
33467,64844,5
33470,64856,5
33476,64876,5
33480,64888,4
33503,64905,5
33506,64928,5
33519,64948,5
33515,64928,5
33501,64916,4
33503,64908,5
33492,64902,5
33490,64893,5
33483,64893,4
33484,64881,5
33485,64877,5
33476,64860,5
33482,64871,5
33485,64865,5
33476,64864,4
33480,64859,5
33466,64862,5
33483,64863,6
33474,64860,3
33476,64861,5
33476,64865,5
33477,64869,5
33474,64858,5
33479,64863,4
33476,64863,5
33475,64855,5
33476,64861,5
33485,64853,5
33475,64867,4
33475,64860,5
33478,64864,5
33480,64854,5
33489,64867,5
33480,64861,4
33475,64848,5
33475,64851,5
33474,64858,5
33474,64868,4
33486,64861,6
33484,64860,4
33477,64854,5
33478,64858,5
33469,64851,4
33468,64852,5
33469,64844,5
33472,64847,5
33467,64846,5
33467,64843,4
33464,64838,5
33465,64837,5
33466,64846,5
33458,64833,5
33463,64837,4
33468,64832,5
33452,64834,5
33463,64822,5
33453,64814,5
33448,64816,4
33451,64808,5
33448,64808,5
33449,64807,5
33443,64815,4
33437,64819,4
33458,64820,6
33449,64814,4
33451,64828,5
33460,64826,4
33465,64825,5
33464,64832,5
33462,64843,5
33466,64846,5
33463,64851,4
33471,64854,5
33479,64846,5
33473,64858,5
33470,64873,5
33475,64861,4
33477,64863,5
33477,64858,5
33467,64868,5
33486,64867,5
33477,64871,4
33470,64861,5
33480,64860,5
33478,64852,5
33481,64852,5
33473,64862,4
33475,64863,5
33477,64857,6
33481,64867,4
33479,64866,4
33483,64875,5
33480,64864,5
33475,64867,5
33476,64864,5
33467,64860,4
33484,64868,5
33482,64872,5
33486,64871,5
33488,64884,5
33492,64881,4
33489,64878,5
33479,64883,5
33490,64871,5
33481,64864,5
33470,64858,4
33465,64832,5
33455,64812,5
33434,64799,5
33423,64763,5
33402,64740,4
33402,64710,5
33375,64688,5
33360,64675,5
33368,64661,4
33365,64665,4
33368,64679,5
33381,64698,5
33395,64709,5
33403,64735,4
33425,64758,5
33428,64778,5
33433,64810,5
33462,64851,5
33477,64884,4
33497,64896,5
33487,64880,5
33472,64874,5
33476,64871,5
33485,64873,4
33475,64857,5
33473,64854,5
33469,64848,5
33471,64846,5
33462,64841,5
33475,64839,4
33465,64835,5
33459,64835,5
33460,64841,5
33462,64839,4
33478,64841,5
33467,64840,5
33467,64845,5
33467,64845,4
33471,64843,4
33469,64848,5
33472,64834,5
33469,64833,5
33465,64834,4
33466,64841,5
33465,64836,5
33466,64835,5
33466,64829,5
33456,64824,4
33463,64820,5
33460,64814,5
33459,64823,5
33461,64819,5
33456,64816,4
33459,64819,6
33457,64821,4
33458,64823,5
33449,64804,5
33449,64805,4
33449,64799,5
33446,64802,5
33446,64805,5
33448,64810,5
33447,64799,4
33448,64798,5
33447,64792,5
33444,64792,5
33439,64785,4
33429,64775,5
33430,64773,5
33420,64750,5
33418,64746,5
33418,64750,4
33412,64743,5
33408,64747,5
33422,64746,10
33419,64745,4
33421,64753,5
33414,64750,6
33423,64749,4
33421,64759,5
33420,64767,4
33425,64764,5
33424,64765,5
33421,64772,5
33427,64777,5
33431,64778,4
33445,64785,5
33449,64789,5
33446,64806,5
33452,64807,5
33455,64814,4
33454,64815,5
33446,64811,5
33445,64809,5
33456,64805,4
33445,64806,5
33446,64811,5
33453,64801,5
33445,64801,5
33444,64797,4
33444,64805,5
33442,64801,5
33436,64791,5
33439,64789,5
33438,64793,4
33439,64783,5
33438,64780,5
33433,64780,5
33436,64774,5
33418,64765,4
33428,64768,5
33422,64761,5
33420,64753,5
33408,64754,5
33417,64745,4
33413,64742,5
33418,64748,5
33405,64743,5
33408,64729,4
33401,64731,4
33405,64735,4
33407,64729,5
33397,64723,5
33398,64710,6
33396,64703,3
33376,64690,5
33376,64670,5
33360,64648,5
33343,64617,4
33336,64597,5
33328,64591,5
33314,64565,5
33316,64564,5
33303,64549,4
33302,64543,5
33303,64539,5
33303,64539,5
33311,64550,5
33312,64562,4
33315,64581,5
33329,64598,5
33341,64611,5
33343,64634,5
33361,64658,4
33362,64674,6
33367,64684,4
33377,64681,5
33371,64663,4
33362,64659,6
33357,64651,3
33355,64642,5
33354,64636,5
33338,64617,4
33348,64629,5
33352,64628,5
33352,64627,5
33359,64624,5
33353,64626,4
33348,64625,5
33350,64635,5
33362,64625,5
33348,64627,5
33364,64629,4
33354,64642,5
33354,64643,5
33361,64634,5
33364,64637,5
33361,64642,4
33370,64637,5
33364,64641,6
33362,64633,4
33357,64640,5
33365,64634,4
33365,64633,5
33357,64639,5
33357,64635,5
33353,64632,4
33359,64634,4
33349,64638,5
33357,64634,5
33354,64631,5
33359,64650,4
33359,64648,5
33367,64650,5
33364,64636,5
33363,64642,5
33359,64644,4
33358,64633,5
33365,64636,5
33370,64635,5
33364,64640,5
33364,64636,4
33364,64651,5
33354,64646,5
33361,64644,6
33359,64636,4
33363,64648,4
33359,64639,5
33359,64641,5
33361,64636,5
33361,64641,5
33367,64657,4
33367,64666,5
33382,64672,5
33382,64676,5
33385,64687,4
33383,64695,5
33394,64709,5
33402,64714,5
33401,64709,5
33401,64719,4
33395,64723,5
33412,64724,5
33405,64733,5
33419,64743,5
33412,64745,5
33433,64751,4
33417,64760,5
33419,64752,5
33420,64757,6
33421,64756,3
33427,64764,5
33428,64767,5
33419,64767,5
33430,64760,5
33418,64752,4
33423,64755,5
33415,64748,5
33430,64758,5
33413,64754,4
33419,64740,4
33403,64733,5
33403,64739,5
33411,64726,5
33407,64727,4
33406,64721,5
33408,64735,5
33399,64730,5
33402,64720,5
33406,64715,4
33397,64716,6
33396,64712,4
33392,64711,5
33388,64702,5
33384,64684,4
33371,64681,5
33363,64658,5
33360,64637,5
33344,64613,5
33329,64598,4
33324,64582,5
33318,64576,5
33318,64562,5
33311,64569,5
33322,64561,4
33311,64570,5
33326,64575,5
33324,64591,5
33334,64605,4
33349,64615,4
33352,64632,5
33358,64656,5
33365,64674,5
33382,64689,4
33388,64709,5
33391,64709,6
33391,64695,4
33382,64692,5
33379,64686,4
33378,64675,5
33371,64663,5
33372,64681,5
33376,64680,5
33380,64692,4
33381,64699,5
33392,64702,5
33394,64719,5
33399,64708,5
33399,64714,4
33398,64717,5
33407,64726,5
33406,64738,5
33411,64761,5
33432,64761,4
33428,64776,5
33440,64777,5
33439,64776,5
33437,64802,4
33441,64795,5
33451,64806,5
33453,64815,6
33455,64810,4
33460,64812,4
33442,64816,5
33455,64806,5
33448,64795,5
33443,64787,5
33437,64798,4
33444,64816,5
33452,64815,5
33450,64818,5
33460,64820,5
33458,64819,4
33465,64820,5
33451,64828,5
33466,64825,5
33454,64820,5
33458,64818,4
33456,64805,5
33450,64810,5
33438,64799,5
33444,64787,5
33430,64796,4
33439,64776,5
33433,64783,5
33428,64783,6
33420,64785,3
33441,64789,5
33446,64804,5
33444,64818,5
33456,64827,5
33468,64830,4
33471,64851,5
33471,64851,5
33477,64860,5
33469,64844,5
33475,64864,4
33478,64873,5
33486,64882,5
33489,64887,5
33493,64911,5
33507,64911,4
33508,64913,5
33518,64927,5
33510,64932,5
33513,64919,5
33511,64920,5
33516,64923,4
33508,64917,5
33511,64905,5
33499,64908,4
33501,64904,4
33496,64904,5
33494,64895,5
33494,64900,5
33486,64901,4
33495,64893,5
33489,64891,5
33492,64875,5
33482,64869,5
33472,64864,4
33478,64863,5
33473,64860,5
33472,64859,5
33469,64851,5
33465,64850,4
33462,64836,5
33461,64829,5
33442,64807,5
33433,64792,5
33423,64766,4
33408,64748,6
33419,64741,4
33409,64734,5
33411,64728,5
33407,64741,4
33398,64733,5
33416,64733,5
33420,64751,5
33425,64760,4
33433,64777,4
33438,64785,5
33452,64805,5
33455,64825,5
33462,64839,4
33465,64847,5
33471,64856,5
33460,64828,5
33456,64823,5
33452,64817,4
33434,64800,5
33435,64794,5
33440,64796,5
33443,64798,5
33433,64793,4
33440,64794,5
33435,64804,6
33443,64800,4
33436,64799,5
33446,64801,4
33453,64799,5
33446,64808,5
33459,64814,5
33465,64818,5
33461,64824,4
33464,64825,5
33472,64835,5
33473,64828,5
33468,64841,4
33472,64844,5
33470,64844,5
33465,64835,5
33469,64838,5
33466,64841,4
33460,64833,5
33467,64839,5
33471,64835,5
33472,64841,5
33478,64838,4
33472,64845,5
33465,64849,5
33472,64846,5
33472,64838,5
33465,64842,4
33471,64831,5
33465,64831,5
33455,64828,5
33459,64829,5
33454,64824,4
33461,64824,5
33463,64823,5
33455,64815,5
33447,64803,5
33447,64809,4
33445,64804,5
33444,64808,5
33454,64811,5
33455,64800,4
33447,64805,5
33452,64807,5
33452,64808,5
33455,64820,5
33472,64832,5
33467,64847,4
33463,64853,5
33473,64854,5
33481,64868,5
33483,64878,4
33484,64883,5
33498,64886,5
33502,64900,5
33504,64902,5
33504,64915,4
33508,64917,5
33522,64920,5
33514,64937,5
33529,64932,5
33524,64941,4
33522,64934,5
33531,64937,5
33536,64944,5
33524,64943,4
33533,64954,4
33527,64952,5
33530,64943,5
33532,64935,5
33517,64948,4
33526,64929,6
33519,64936,4
33510,64926,5
33507,64929,5
33495,64911,4
33494,64884,5
33490,64885,5
33474,64865,5
33468,64856,5
33469,64835,4
33461,64833,5
33457,64825,5
33457,64818,5
33457,64816,5
33454,64822,4
33465,64825,5
33472,64836,5
33472,64851,5
33474,64867,5
33481,64876,4
33487,64895,5
33505,64926,6
33515,64923,4
33517,64947,4
33519,64941,4
33509,64933,5
33512,64923,5
33504,64919,5
33502,64910,4
33495,64896,5
33491,64896,5
33499,64894,5
33498,64886,5
33498,64890,4
33493,64893,9
33494,64892,1
33499,64895,5
33501,64907,5
33492,64916,4
33509,64911,5
33501,64917,5
33513,64925,5
33518,64927,5
33516,64937,4
33529,64939,5
33534,64943,5
33531,64947,6
33527,64955,4
33530,64954,4
33524,64943,5
33523,64948,5
33530,64956,5
33533,64956,4
33529,64957,5
33537,64958,5
33529,64952,5
33537,64954,5
33538,64969,4
33532,64966,5
33536,64970,5
33540,64964,5
33534,64965,5
33541,64960,4
33540,64954,5
33528,64943,5
33527,64954,5
33532,64953,5
33528,64964,5
33523,64950,4
33523,64946,5
33515,64940,5
33531,64945,6
33522,64936,3
33514,64939,5
33513,64939,5
33516,64928,5
33516,64930,4
33512,64937,4
33521,64940,5
33524,64954,5
33526,64952,5
33527,64967,4
33543,64970,5
33540,64978,5
33537,64979,5
33547,64988,5
33550,65003,4
33563,65003,5
33567,65019,5
33573,65019,5
33566,65041,5
33573,65036,4
33577,65045,6
33586,65055,4
33584,65053,5
33591,65053,5
33587,65055,6
33594,65062,3
33590,65065,5
33593,65066,5
33590,65067,5
33583,65055,4
33587,65057,5
33573,65050,5
33570,65034,5
33568,65025,4
33564,65012,4
33549,64992,5
33546,64982,5
33529,64965,5
33525,64953,4
33526,64945,5
33509,64941,5
33521,64941,5
33528,64939,5
33527,64951,4
33526,64967,5
33540,64981,6
33548,64993,4
33549,65011,5
33563,65025,4
33579,65046,5
33580,65069,5
33586,65075,5
33585,65059,5
33570,65039,4
33576,65031,5
33568,65023,5
33559,65023,5
33557,65011,5
33570,65014,4
33565,65012,5
33563,65017,5
33565,65015,5
33569,65020,4
33572,65017,5
33568,65022,5
33566,65032,5
33585,65039,5
33572,65036,4
33585,65045,5
33594,65054,5
33587,65068,6
33595,65075,4
33591,65078,4
33609,65094,5
33614,65086,5
33611,65086,5
33615,65106,5
33611,65102,4
33615,65108,5
33621,65115,5
33620,65117,5
33620,65129,5
33620,65116,4
33631,65136,5
33628,65141,5
33633,65140,5
33651,65160,4
33643,65167,4
33646,65178,5
33647,65178,5
33651,65183,5
33643,65172,5
33641,65173,4
33635,65159,5
33636,65175,5
33634,65155,6
33626,65148,3
33639,65149,5
33633,65155,5
33631,65138,5
33615,65136,5
33616,65131,4
33611,65124,5
33612,65125,5
33613,65127,5
33616,65140,5
33623,65138,4
33621,65138,5
33625,65147,5
33624,65151,5
33625,65159,5
33631,65149,4
33633,65160,5
33642,65162,5
33625,65162,5
33636,65155,4
33623,65158,5
33627,65152,4
33628,65142,5
33622,65154,5
33623,65155,4
33632,65148,5
33629,65164,5
33629,65156,5
33633,65153,5
33633,65149,4
33628,65160,5
33618,65139,5
33611,65134,5
33620,65120,5
33597,65091,4
33583,65080,5
33583,65067,5
33578,65068,5
33561,65051,5
33562,65032,4
33552,65017,5
33545,65003,5
33542,65008,5
33540,65000,5
33540,64989,4
33543,64995,6
33542,64996,4
33545,65004,5
33546,65016,4
33563,65030,4
33557,65047,5
33573,65059,5
33570,65063,5
33589,65059,4
33566,65052,5
33572,65028,5
33567,65027,5
33549,65013,5
33542,65000,4
33546,64994,5
33536,64978,5
33540,64973,5
33523,64975,5
33531,64959,4
33538,64964,5
33526,64953,5
33522,64949,5
33520,64958,5
33530,64944,4
33525,64950,5
33523,64956,6
33519,64953,4
33517,64952,5
33532,64945,4
33521,64954,5
33517,64951,5
33520,64947,5
33519,64951,4
33522,64947,5
33522,64946,5
33532,64937,5
33518,64939,5
33523,64930,4
33517,64936,5
33517,64931,5
33505,64935,5
33513,64926,5
33519,64934,4
33511,64932,5
33517,64930,5
33517,64932,5
33517,64928,5
33517,64920,4
33504,64925,5
33512,64918,5
33494,64923,5
33497,64914,5
33507,64909,4
33500,64900,5
33487,64904,5
33504,64899,5
33493,64893,5
33481,64890,4
33475,64872,5
33475,64869,5
33476,64867,5
33470,64866,4
33471,64859,5
33466,64865,5
33476,64852,5
33466,64856,5
33476,64861,4
33479,64868,5
33467,64862,5
33477,64861,5
33479,64866,5
33482,64869,5
33476,64884,4
33484,64882,5
33491,64894,5
33478,64899,5
33505,64904,4
33500,64909,5
33504,64907,5
33497,64903,5
33505,64912,5
33507,64919,4
33505,64919,5
33513,64925,5
33512,64924,5
33515,64919,4
33505,64916,4
33506,64935,5
33511,64929,5
33512,64931,5
33513,64926,4
33506,64925,5
33501,64930,5
33512,64919,5
33500,64921,5
33507,64923,4
33499,64914,6
33499,64916,4
33507,64918,5
33501,64908,5
33495,64899,4
33495,64903,5
33481,64894,5
33483,64894,5
33479,64898,5
33484,64892,4
33485,64884,5
33482,64878,5
33486,64881,5
33488,64867,5
33482,64878,4
33473,64882,5
33477,64870,5
33482,64866,5
33482,64872,4
33474,64866,5
33475,64870,5
33480,64874,5
33471,64864,5
33470,64862,4
33475,64868,5
33467,64865,5
33467,64854,5
33476,64859,5
33468,64860,4
33466,64849,5
33462,64855,5
33457,64842,5
33457,64822,5
33441,64800,4
33429,64777,5
33410,64745,5
33394,64707,5
33376,64681,5
33359,64642,4
33347,64638,5
33334,64614,5
33332,64606,5
33328,64592,4
33324,64600,4
33330,64600,5
33331,64607,5
33348,64626,6
33346,64650,3
33366,64672,5
33379,64696,5
33392,64719,5
33411,64757,5
33424,64779,4
33424,64779,5
33416,64770,5
33422,64767,5
33425,64763,5
33416,64754,4
33418,64764,5
33413,64754,5
33410,64753,5
33418,64759,5
33408,64745,4
33414,64758,5
33427,64757,5
33414,64753,5
33417,64756,5
33419,64757,5
33421,64764,4
33419,64769,5
33420,64777,5
33429,64777,6
33431,64768,3
33426,64774,5
33427,64779,5
33439,64783,5
33429,64782,4
33432,64773,5
33431,64775,5
33431,64781,5
33424,64777,5
33422,64773,4
33430,64761,5
33418,64759,5
33421,64767,5
33422,64762,5
33426,64764,4
33427,64756,5
33426,64775,5
33422,64768,5
33430,64758,5
33432,64767,4
33422,64757,6
33415,64745,4
33414,64752,5
33411,64742,5
33417,64745,6
33407,64737,3
33412,64735,5
33400,64742,5
33407,64743,4
33410,64736,4
33408,64735,5
33397,64732,5
33394,64724,5
33398,64724,4
33401,64720,5
33398,64720,5
33400,64721,5
33392,64716,5
33395,64725,4
33401,64721,5
33394,64726,5
33403,64732,5
33410,64746,5
33420,64742,4
33421,64758,5
33421,64753,6
33420,64770,4
33429,64764,5
33427,64774,4
33436,64778,5
33425,64780,5
33438,64784,5
33438,64793,5
33433,64803,4
33443,64794,5
33438,64789,5
33437,64788,5
33435,64790,4
33441,64792,4
33438,64789,5
33437,64788,5
33446,64790,5
33441,64792,4
33435,64772,5
33437,64769,5
33439,64772,5
33419,64774,5
33420,64766,4
33418,64765,5
33415,64760,5
33404,64725,11
33404,64725,3
33401,64715,5
33388,64697,5
33370,64675,5
33376,64657,5
33359,64636,4
33338,64624,5
33333,64596,5
33332,64584,5
33316,64579,5
33315,64560,4
33304,64555,5
33305,64554,5
33312,64556,5
33313,64572,4
33324,64582,5
33327,64586,5
33332,64595,5
33338,64604,5
33347,64626,5
33355,64641,4
33366,64666,5
33372,64678,5
33378,64670,6
33366,64670,3
33368,64647,5
33357,64637,5
33347,64628,5
33346,64615,5
33338,64612,4
33332,64609,5
33338,64602,5
33341,64603,5
33342,64613,5
33335,64615,4
33347,64606,5
33347,64611,5
33347,64625,5
33347,64621,4
33345,64626,4
33353,64637,5
33352,64645,5
33352,64637,5
33366,64650,4
33366,64659,6
33373,64656,4
33370,64655,5
33364,64659,5
33368,64649,4
33368,64661,5
33367,64659,5
33366,64655,5
33371,64647,5
33363,64656,4
33359,64650,5
33356,64643,5
33358,64639,5
33354,64644,5
33360,64637,4
33367,64645,5
33364,64642,5
33362,64648,5
33362,64632,5
33352,64639,4
33362,64627,5
33351,64625,5
33352,64637,5
33349,64617,4
33340,64612,4
33352,64602,6
33331,64591,4
33339,64592,5
33325,64587,4
33334,64581,5
33330,64584,5
33325,64585,5
33335,64579,5
33331,64583,4
33328,64584,5
33329,64582,5
33334,64593,5
33338,64597,5
33335,64604,4
33340,64610,5
33343,64609,5
33346,64624,5
33343,64624,5
33351,64632,4
33363,64638,5
33359,64645,5
33366,64647,5
33362,64646,5
33369,64659,4
33373,64668,5
33373,64660,6
33369,64672,4
33367,64667,4
33372,64675,4
33369,64671,5
33378,64675,5
33381,64667,5
33372,64670,4
33361,64655,5
33358,64654,5
33358,64647,5
33361,64652,5
33363,64644,4
33367,64649,5
33367,64642,5
33363,64645,5
33364,64639,5
33359,64647,4
33357,64641,5
33362,64626,5
33365,64635,5
33360,64641,5
33363,64641,4
33355,64627,5
33351,64635,5
33348,64619,5
33344,64628,5
33352,64619,4
33345,64616,5
33346,64612,5
33335,64603,5
33340,64607,4
33328,64580,4
33326,64581,5
33315,64557,5
33305,64544,5
33289,64523,4
33289,64504,5
33275,64489,5
33267,64466,5
33262,64461,5
33261,64462,4
33258,64457,5
33265,64445,5
33261,64462,5
33261,64471,5
33265,64474,5
33269,64495,4
33286,64523,5
33292,64518,5
33305,64541,5
33312,64568,4
33324,64598,5
33333,64598,5
33336,64591,5
33326,64577,5
33312,64569,4
33316,64568,5
33309,64549,5
33306,64542,5
33309,64544,4
33315,64543,5
33304,64536,5
33313,64549,5
33315,64551,5
33310,64563,4
33315,64562,5
33323,64565,5
33325,64573,5
33334,64578,5
33329,64602,4
33345,64600,6
33343,64615,4
33356,64628,5
33355,64631,5
33362,64636,4
33359,64641,5
33370,64643,5
33360,64642,5
33357,64639,5
33363,64646,4
33359,64645,5
33360,64645,5
33372,64639,5
33360,64638,5
33364,64640,4
33365,64633,5
33355,64635,5
33361,64643,5
33356,64632,4
33361,64635,5
33353,64626,5
33349,64628,5
33360,64630,5
33350,64613,4
33344,64615,5
33350,64609,6
33340,64605,4
33339,64612,5
33347,64601,4
33343,64601,5
33342,64597,5
33332,64593,5
33329,64580,5
33338,64592,4
33334,64588,5
33336,64591,5
33336,64588,5
33330,64597,5
33340,64602,4
33335,64610,5
33342,64608,5
33341,64618,5
33360,64630,4
33356,64632,4
33356,64648,5
33371,64653,5
33374,64672,5
33380,64675,4
33381,64682,5
33393,64694,5
33388,64703,5
33397,64706,5
33400,64711,4
33398,64711,5
33402,64713,5
33403,64721,5
33403,64719,5
33405,64717,4
33411,64716,5
33403,64727,5
33401,64717,5
33397,64718,5
33402,64704,4
33401,64711,5
33404,64702,5
33395,64711,5
33391,64704,5
33402,64701,4
33391,64702,5
33388,64700,5
33383,64695,5
33400,64692,5
33392,64691,3
33390,64695,5
33386,64685,5
33376,64681,5
33394,64684,4
33378,64683,5
33380,64678,5
33378,64672,5
33374,64667,5
33373,64647,4
33362,64640,5
33347,64628,5
33340,64601,5
33337,64593,5
33329,64578,4
33318,64565,5
33316,64563,5
33311,64562,5
33315,64559,5
33318,64567,4
33330,64574,6
33322,64585,4
33343,64593,5
33343,64612,5
33351,64626,6
33358,64653,3
33377,64668,5
33380,64684,5
33387,64701,4
33384,64692,5
33388,64681,5
33380,64662,5
33375,64671,5
33369,64663,4
33372,64647,5
33370,64657,5
33365,64656,5
33370,64659,5
33379,64654,4
33370,64656,5
33367,64675,5
33377,64682,5
33390,64691,5
33393,64702,4
33400,64707,5
33407,64726,6
33416,64736,4
33420,64742,5
33426,64736,4
33428,64749,5
33433,64762,5
33429,64769,5
33431,64763,5
33431,64763,4
33438,64779,5
33434,64766,5
33438,64776,5
33434,64770,4
33432,64774,5
33431,64768,5
33437,64770,5
33439,64765,5
33444,64756,4
33427,64774,5
33428,64772,5
33429,64769,5
33430,64761,5
33442,64767,4
33424,64760,5
33429,64763,5
33422,64760,6
33424,64749,4
33420,64753,4
33424,64751,5
33426,64753,5
33421,64749,5
33422,64745,5
33415,64741,4
33412,64735,5
33410,64736,5
33418,64738,5
33420,64740,4
33415,64735,4
33428,64752,5
33422,64743,5
33424,64753,5
33432,64767,4
33435,64774,5
33441,64788,5
33448,64795,5
33446,64806,5
33464,64821,5
33462,64832,4
33469,64831,5
33479,64858,5
33484,64854,6
33493,64868,3
33493,64877,5
33493,64888,5
33499,64882,5
33496,64890,5
33500,64893,4
33498,64884,5
33509,64892,5
33504,64896,5
33493,64889,5
33487,64878,4
33488,64877,5
33483,64865,5
33486,64863,5
33475,64843,4
33460,64833,4
33456,64838,5
33464,64830,5
33456,64838,5
33460,64829,4
33460,64831,6
33463,64839,4
33470,64846,5
33478,64852,5
33477,64864,6
33487,64876,3
33494,64891,5
33497,64907,5
33501,64905,5
33512,64915,4
33503,64914,5
33500,64886,5
33475,64872,5
33481,64865,5
33470,64843,4
33477,64839,5
33474,64845,5
33470,64850,5
33474,64857,5
33482,64851,4
33477,64857,5
33487,64868,5
33486,64877,5
33492,64885,4
33489,64884,4
33499,64888,6
33502,64903,4
33502,64903,5
33508,64905,4
33507,64915,5
33512,64929,5
33518,64940,5
33527,64941,5
33532,64945,4
33535,64959,5
33528,64962,5
33550,64968,5
33539,64975,5
33546,64966,4
33532,64962,5
33544,64972,5
33538,64964,5
33534,64978,5
33550,64978,4
33548,64988,5
33552,64979,5
33558,64985,5
33560,64994,5
33546,64995,4
33552,64981,5
33558,64990,6
33561,64981,4
33553,64987,4
33552,64989,5
33549,64982,5
33553,64980,5
33549,64977,5
33544,64975,4
33536,64977,5
33537,64969,5
33535,64972,5
33539,64981,5
33540,64983,4
33545,64980,9
33556,64992,1
33537,64995,5
33557,64997,5
33555,65000,4
33564,65016,5
33570,65032,5
33574,65046,5
33583,65054,5
33589,65055,4
33591,65067,5
33601,65078,5
33596,65090,6
33606,65094,3
33605,65095,4
33609,65107,5
33611,65117,5
33608,65105,5
33618,65107,4
33607,65098,5
33606,65101,5
33599,65085,5
33601,65069,5
33591,65069,4
33585,65062,5
33577,65050,5
33572,65050,5
33574,65036,5
33566,65039,4
33566,65033,5
33566,65029,5
33579,65046,5
33582,65047,5
33575,65055,5
33587,65073,4
33602,65079,5
33606,65097,5
33603,65110,4
33609,65107,4
33612,65094,5
33607,65075,5
33587,65073,5
33598,65074,4
33585,65063,5
33590,65062,5
33584,65068,5
33586,65067,5
33591,65063,4
33592,65060,5
33590,65067,5
33598,65059,5
33585,65061,5
33589,65076,4
33596,65081,5
33596,65082,5
33601,65090,5
33599,65087,5
33610,65094,4
33617,65098,6
33618,65102,4
33608,65116,5
33619,65113,5
33625,65114,4
33618,65120,5
33628,65127,5
33631,65128,5
33627,65127,4
33629,65131,4
33630,65131,5
33636,65133,5
33638,65135,5
33637,65150,4
33643,65159,5
33650,65171,5
33654,65166,5
33653,65172,5
33646,65177,4
33657,65183,5
33658,65183,5
33657,65186,5
33664,65203,5
33661,65196,4
33660,65208,5
33660,65209,6
33664,65204,4
33661,65202,5
33661,65203,4
33664,65203,5
33674,65198,5
33649,65190,5
33661,65185,4
33653,65190,4
33660,65196,5
33663,65196,5
33656,65184,5
33663,65195,4
33665,65200,5
33662,65199,5
33666,65202,5
33661,65209,5
33668,65204,4
33674,65210,5
33665,65205,5
33670,65211,5
33670,65217,5
33670,65224,4
33672,65228,5
33667,65217,5
33674,65225,5
33668,65224,5
33666,65221,4
33677,65217,5
33667,65217,5
33660,65213,5
33659,65206,5
33655,65190,4
33653,65196,5
33644,65176,5
33643,65167,5
33632,65154,4
33622,65136,5
33612,65119,5
33604,65114,5
33606,65099,5
33601,65092,4
33601,65105,5
33606,65104,5
33594,65101,5
33600,65108,5
33611,65116,5
33604,65114,4
33618,65128,5
33623,65138,5
33631,65137,5
33611,65129,4
33604,65100,5
33607,65100,5
33596,65086,5
33594,65090,5
33589,65082,4
33590,65068,5
33591,65075,5
33582,65058,5
33587,65057,5
33577,65048,4
33575,65033,5
33572,65042,5
33574,65041,5
33564,65041,4
33566,65023,5
33573,65029,5
33565,65048,5
33562,65039,5
33574,65036,4
33564,65025,6
33566,65027,4
33564,65033,5
33573,65033,5
33562,65028,4
33563,65024,5
33566,65031,5
33562,65033,5
33554,65024,5
33568,65023,4
33558,65019,5
33562,65026,5
33559,65012,5
33565,65022,5
33566,65027,4
33560,65021,5
33567,65026,5
33567,65010,5
33557,65012,5
33554,65016,4
33558,65003,5
33549,65007,6
33552,65009,4
33548,64996,4
33549,65000,5
33548,64996,5
33541,64992,5
33538,64976,5
33538,64978,4
33529,64959,5
33524,64953,5
33530,64950,5
33519,64941,5
33521,64943,4
33510,64938,5
33519,64942,5
33514,64936,5
33506,64935,5
33511,64941,4
33516,64943,5
33518,64945,5
33518,64944,5
33513,64951,5
33523,64953,4
33523,64962,5
33516,64957,5
33520,64949,6
33526,64962,3
33532,64967,4
33532,64974,5
33538,64974,5
33535,64982,5
33541,64981,4
33541,64978,5
33532,64983,5
33540,64989,5
33548,64980,5
33539,64973,4
33541,64978,5
33536,64982,5
33543,64981,5
33541,64979,5
33526,64980,4
33532,64975,5
33535,64977,5
33537,64967,5
33532,64980,5
33534,64971,5
33537,64984,4
33538,64985,5
33527,64971,5
33533,64967,6
33544,64975,3
33524,64973,5
33529,64973,5
33534,64974,5
33528,64975,4
33529,64953,5
33511,64944,5
33504,64933,5
33489,64901,5
33480,64882,4
33471,64856,5
33454,64824,5
33436,64796,5
33420,64775,5
33408,64743,4
33407,64729,5
33393,64726,5
33406,64730,5
33404,64743,5
33413,64757,4
33430,64771,6
33434,64806,4
33446,64836,5
33463,64856,5
33471,64877,4
33494,64900,5
33508,64933,5
33524,64948,5
33525,64961,4
33525,64951,4
33516,64937,5
33520,64933,5
33494,64922,5
33500,64908,4
33490,64906,5
33492,64900,5
33486,64888,5
33491,64882,5
33482,64890,4
33491,64895,5
33496,64893,5
33485,64881,5
33490,64885,5
33485,64889,4
33493,64889,5
33482,64877,6
33487,64883,4
33489,64879,5
33494,64868,4
33476,64867,5
33478,64868,5
33480,64868,5
33485,64868,5
33481,64864,4
33478,64862,5
33477,64862,5
33468,64852,5
33479,64848,4
33472,64844,4
33472,64851,5
33466,64839,5
33473,64844,5
33459,64844,4
33464,64840,5
33473,64843,5
33468,64844,5
33463,64839,5
33463,64835,4
33463,64831,5
33452,64825,5
33462,64827,6
33459,64819,4
33445,64822,4
33453,64815,5
33450,64809,5
33448,64816,5
33440,64811,5
33446,64802,4
33433,64789,5
33429,64785,5
33435,64793,5
33426,64785,5
33429,64773,4
33426,64784,5
33437,64784,5
33422,64771,5
33423,64776,4
33432,64777,4
33423,64782,5
33434,64779,5
33434,64781,5
33438,64794,5
33431,64794,4
33435,64791,5
33446,64804,5
33442,64813,6
33448,64811,3
33452,64812,5
33451,64816,5
33452,64811,5
33452,64820,5
33455,64821,4
33449,64818,5
33456,64815,5
33452,64822,5
33455,64820,5
33449,64812,4
33449,64816,5
33453,64809,5
33452,64805,5
33446,64811,5
33446,64806,4
33448,64806,5
33443,64801,5
33439,64803,5
33438,64796,4
33438,64796,6
33442,64797,4
33437,64783,5
33440,64787,5
33432,64779,4
33429,64776,5
33429,64773,5
33431,64771,5
33428,64765,5
33414,64753,4
33401,64745,5
33403,64716,5
33382,64708,5
33383,64678,5
33365,64657,4
33349,64633,5
33339,64609,5
33325,64585,5
33314,64580,5
33315,64585,4
33321,64572,5
33311,64575,5
33318,64580,5
33322,64590,5
33334,64603,4
33340,64614,6
33349,64640,4
33368,64667,5
33372,64691,4
33383,64705,5
33393,64734,5
33421,64759,5
33425,64762,5
33414,64756,4
33411,64732,5
33398,64718,5
33393,64709,5
33386,64699,5
33384,64693,4
33374,64682,5
33368,64663,5
33371,64668,5
33372,64656,5
33366,64663,4
33370,64659,5
33372,64661,5
33379,64661,5
33374,64681,5
33371,64670,4
33374,64682,5
33379,64677,6
33382,64685,4
33385,64689,4
33379,64702,4
33387,64688,5
33386,64685,5
33388,64694,5
33380,64687,4
33386,64680,5
33381,64687,5
33375,64679,5
33374,64682,5
33375,64684,4
33371,64678,5
33373,64675,5
33370,64673,5
33368,64671,5
33378,64670,4
33374,64683,5
33390,64682,5
33373,64670,5
33371,64678,5
33374,64668,4
33373,64661,5
33369,64652,5
33374,64661,5
33359,64655,6
33365,64649,3
33355,64639,5
33352,64641,5
33359,64631,5
33359,64634,4
33350,64612,4
33342,64614,5
33345,64619,5
33351,64615,5
33344,64625,4
33348,64626,5
33352,64632,5
33356,64628,5
33351,64639,5
33355,64638,4
33366,64646,5
33369,64648,5
33362,64666,5
33370,64675,5
33376,64673,5
33384,64679,4
33384,64693,5
33381,64701,5
33387,64701,5
33384,64701,4
33391,64707,5
33390,64707,5
33398,64710,5
33395,64717,5
33397,64710,4
33397,64717,5
33399,64706,5
33394,64706,5
33389,64699,4
33393,64701,5
33382,64690,5
33384,64692,5
33380,64683,5
33379,64686,4
33376,64681,5
33378,64687,5
33376,64681,5
33372,64670,5
33379,64682,4
33375,64674,6
33371,64664,4
33364,64658,5
33377,64656,5
33370,64667,4
33367,64657,5
33368,64656,5
33363,64657,5
33364,64648,5
33365,64646,4
33357,64650,5
33358,64651,5
33357,64647,5
33363,64638,5
33347,64647,4
33353,64643,5
33361,64639,5
33352,64635,5
33358,64644,4
33362,64642,5
33361,64641,5
33350,64644,5
33357,64627,5
33346,64635,4
33348,64624,5
33341,64621,5
33345,64610,5
33328,64588,5
33322,64572,4
33308,64550,5
33296,64523,5
33278,64502,5
33271,64480,5
33257,64462,4
33250,64454,5
33244,64440,5
33237,64432,5
33235,64418,5
33241,64433,4
33243,64432,5
33244,64445,5
33257,64458,5
33258,64479,5
33269,64494,4
33279,64514,5
33289,64528,5
33299,64545,6
33308,64551,3
33298,64540,5
33303,64521,5
33292,64508,5
33286,64511,5
33277,64498,4
33275,64488,5
33280,64493,5
33271,64491,5
33281,64491,5
33282,64496,4
33281,64508,5
33283,64520,5
33287,64523,5
33291,64524,5
33304,64533,4
33311,64543,5
33305,64561,5
33310,64570,5
33327,64566,5
33328,64578,5
33330,64585,4
33333,64586,5
33331,64593,5
33338,64603,6
33349,64614,3
33344,64608,5
33338,64604,5
33354,64605,5
33345,64612,4
33342,64608,5
33340,64605,5
33340,64599,5
33338,64604,5
33341,64596,4
33337,64611,5
33341,64608,5
33340,64600,5
33328,64604,5
33338,64608,4
33337,64593,5
33328,64579,5
33320,64585,5
33323,64580,5
33325,64579,4
33318,64588,6
33326,64563,4
33321,64572,5
33317,64565,5
33319,64569,6
33326,64560,3
33316,64567,5
33321,64559,5
33329,64568,4
33327,64571,5
33328,64572,5
33326,64601,5
33340,64597,5
33345,64607,4
33349,64619,5
33356,64631,5
33365,64644,5
33373,64660,5
33373,64686,4
33387,64689,5
33407,64720,5
33412,64713,5
33409,64724,5
33413,64737,4
33420,64738,5
33418,64734,6
33425,64750,4
33431,64754,5
33433,64754,4
33436,64773,5
33432,64769,5
33437,64776,5
33435,64777,4
33433,64775,4
33436,64770,5
33435,64774,5
33437,64783,5
33434,64787,4
33427,64778,5
33425,64759,5
33425,64755,5
33420,64748,5
33406,64731,4
33403,64735,5
33407,64712,5
33396,64702,5
33392,64699,5
33389,64690,4
33383,64682,5
33377,64676,5
33372,64658,6
33368,64643,4
33351,64630,4
33354,64608,5
33333,64608,5
33340,64606,5
33340,64615,5
33350,64622,4
33352,64628,5
33349,64643,5
33355,64654,5
33365,64670,4
33380,64688,4
33384,64696,5
33402,64714,5
33404,64721,5
33405,64733,4
33401,64715,5
33388,64711,5
33383,64699,5
33379,64682,5
33383,64668,5
33376,64682,4
33377,64678,5
33374,64681,5
33380,64685,6
33385,64689,3
33387,64701,5
33396,64705,5
33397,64703,5
33408,64721,5
33408,64731,4
33413,64739,5
33408,64744,5
33414,64757,5
33421,64753,5
33414,64765,4
33428,64768,5
33432,64770,5
33431,64776,5
33436,64776,4
33432,64770,4
33428,64767,5
33432,64767,5
33425,64766,5
33424,64769,4
33433,64762,6
33429,64755,4
33426,64759,5
33427,64758,5
33427,64757,4
33423,64759,5
33428,64761,5
33423,64761,5
33426,64749,5
33424,64747,4
33417,64747,5
33420,64739,5
33418,64745,5
33409,64731,5
33416,64729,4
33404,64732,5
33407,64720,5
33399,64724,5
33395,64715,5
33394,64709,4
33392,64721,5
33399,64722,5
33401,64718,5
33404,64725,4
33408,64734,5
33416,64739,6
33421,64757,4
33423,64761,5
33435,64774,4
33445,64800,5
33446,64808,5
33459,64818,5
33458,64834,5
33472,64836,4
33478,64864,5
33484,64865,5
33493,64877,5
33492,64885,5
33491,64886,4
33505,64900,5
33497,64900,5
33500,64903,5
33495,64899,5
33504,64903,4
33504,64901,5
33503,64904,5
33497,64902,5
33493,64899,5
33500,64896,4
33504,64891,5
33505,64891,6
33497,64886,4
33496,64889,4
33496,64885,5
33495,64881,5
33483,64879,5
33480,64864,5
33479,64857,4
33480,64850,5
33464,64832,5
33454,64817,5
33444,64798,5
33434,64779,4
33428,64754,5
33410,64747,5
33410,64732,5
33396,64717,5
33396,64719,4
33401,64707,5
33402,64711,5
33399,64720,5
33410,64736,5
33417,64747,4
33417,64764,5
33424,64777,5
33438,64792,5
33448,64806,4
33458,64826,4
33465,64843,5
33473,64856,5
33473,64859,5
33477,64857,4
33465,64838,5
33448,64824,5
33446,64814,5
33446,64805,5
33437,64812,4
33446,64800,5
33440,64799,5
33444,64796,5
33447,64821,5
33448,64822,4
33455,64823,5
33458,64831,5
33472,64849,5
33473,64857,5
33487,64875,5
33492,64876,4
33499,64893,5
33500,64908,5
33502,64912,5
33506,64920,4
33511,64916,5
33519,64919,5
33526,64927,5
33527,64929,4
33516,64925,4
33509,64925,5
33515,64921,5
33511,64917,5
33516,64918,4
33511,64917,5
33506,64914,5
33505,64917,5
33521,64918,5
33513,64916,4
33507,64912,5
33509,64910,5
33510,64921,5
33503,64909,5
33510,64907,4
33506,64907,6
33502,64902,4
33499,64899,5
33493,64897,5
33494,64886,4
33494,64886,5
33495,64880,5
33496,64879,5
33481,64878,5
33494,64869,4
33484,64881,5
33483,64879,5
33489,64879,5
33498,64879,4
33487,64889,4
33496,64907,5
33501,64921,5
33507,64921,5
33519,64939,4
33524,64942,5
33523,64959,5
33533,64967,5
33551,64979,5
33542,64992,4
33550,64990,5
33550,65004,6
33554,65006,4
33561,65007,5
33563,65017,4
33569,65033,5
33571,65030,5
33573,65034,5
33564,65028,5
33571,65033,4
33568,65034,5
33572,65032,5
33569,65020,5
33559,65005,5
33555,65000,4
33548,64984,5
33542,64969,5
33531,64950,5
33524,64941,4
33519,64931,5
33512,64921,5
33501,64910,5
33498,64911,5
33498,64910,4
33507,64919,5
33517,64928,5
33515,64936,5
33517,64954,5
33527,64969,4
33550,64992,5
33559,65008,5
33566,65029,5
33578,65048,5
33581,65049,4
33568,65032,5
33558,65017,5
33563,65011,5
33550,64996,5
33545,64999,4
33551,64986,9
33549,64982,1
33551,64990,5
33543,64988,4
33549,64994,4
33558,65004,5
33555,65003,5
33560,65016,5
33562,65021,5
33564,65021,4
33576,65029,5
33571,65027,5
33573,65032,5
33582,65031,4
33573,65044,5
33599,65048,5
33591,65047,5
33580,65053,5
33590,65058,4
33593,65062,5
33599,65071,5
33591,65081,5
33604,65085,5
33598,65073,4
33597,65073,5
33595,65070,5
33590,65061,5
33598,65073,5
33604,65089,4
33605,65091,6
33609,65093,4
33607,65091,5
33614,65100,4
33604,65103,6
33597,65092,3
33594,65082,5
33605,65092,5
33600,65088,4
33602,65099,5
33596,65093,5
33594,65090,5
33601,65100,5
33604,65086,4
33599,65081,5
33588,65067,5
33593,65073,5
33586,65090,5
33597,65096,4
33597,65085,5
33603,65090,5
33604,65091,5
33611,65105,5
33605,65127,4
33620,65116,5
33621,65132,6
33624,65138,4
33618,65144,5
33634,65147,4
33631,65147,5
33629,65166,5
33631,65168,5
33640,65167,4
33642,65168,5
33637,65178,5
33647,65166,5
33647,65181,5
33643,65176,4
33637,65178,5
33640,65184,5
33649,65164,5
33629,65157,5
33629,65157,4
33631,65147,5
33629,65140,5
33622,65122,5
33607,65109,5
33611,65098,4
33598,65093,5
33582,65090,5
33587,65075,6
33583,65073,4
33588,65077,4
33583,65082,5
33590,65084,5
33596,65088,5
33594,65102,5
33604,65119,4
33608,65124,5
33602,65135,5
33624,65146,5
33630,65148,4
33614,65135,5
33616,65107,5
33606,65106,5
33594,65083,5
33590,65075,4
33586,65062,5
33579,65053,5
33568,65050,5
33572,65044,5
33566,65036,5
33565,65026,4
33558,65028,5
33561,65017,5
33562,65014,6
33554,65009,3
33563,65020,5
33561,65018,5
33562,65020,5
33568,65025,5
33572,65026,4
33573,65022,5
33569,65028,5
33563,65024,5
33570,65031,4
33570,65028,4
33563,65030,5
33565,65024,5
33556,65015,5
33559,65019,4
33553,65007,5
33556,65011,5
33572,65015,5
33555,65013,5
33558,65020,4
33551,65009,6
33554,65006,4
33547,64998,5
33553,65004,5
33549,65000,4
33551,64993,5
33547,65005,5
33552,64996,5
33545,64986,5
33547,64988,4
33540,64991,5
33543,64979,5
33540,64989,5
33538,64981,5
33534,64970,4
33536,64963,5
33521,64950,5
33513,64938,5
33507,64932,4
33506,64926,4
33504,64916,5
33502,64926,5
33513,64917,5
33495,64923,4
33509,64929,5
33513,64936,6
33522,64937,4
33517,64946,5
33527,64952,4
33517,64952,5
33521,64955,5
33523,64967,5
33527,64967,5
33530,64970,4
33528,64969,5
33537,64975,5
33534,64970,5
33540,64969,5
33532,64985,4
33543,64976,5
33537,64973,5
33541,64969,5
33533,64977,5
33537,64971,4
33539,64974,5
33530,64974,5
33533,64972,5
33524,64954,4
33523,64959,5
33523,64949,5
33526,64953,6
33522,64954,4
33523,64947,4
33512,64939,5
33519,64947,5
33515,64927,5
33506,64932,5
33517,64937,4
33507,64926,5
33500,64923,5
33505,64921,5
33499,64922,5
33500,64914,4
33501,64912,5
33494,64908,5
33503,64899,5
33493,64898,5
33487,64906,4
33487,64889,5
33489,64887,5
33493,64889,5
33481,64889,5
33488,64878,4
33487,64885,5
33480,64886,5
33481,64882,6
33483,64871,3
33481,64873,5
33478,64870,5
33479,64867,5
33481,64863,5
33468,64861,4
33474,64853,5
33476,64848,5
33464,64840,5
33453,64837,5
33443,64804,4
33423,64771,5
33403,64737,5
33384,64696,5
33368,64652,5
33347,64620,4
33323,64589,5
33321,64567,5
33300,64559,5
33302,64560,5
33307,64557,5
33310,64565,4
33313,64576,5
33313,64589,5
33328,64605,4
33338,64616,4
33350,64646,5
33374,64680,5
33393,64720,5
33410,64748,4
33422,64765,5
33428,64779,5
33421,64763,5
33415,64765,5
33421,64754,4
33415,64748,5
33408,64741,5
33406,64737,5
33405,64737,5
33405,64723,4
33395,64728,5
33398,64735,5
33398,64733,5
33402,64721,5
33408,64742,4
33409,64736,6
33416,64744,4
33414,64750,5
33417,64765,5
33426,64763,4
33427,64759,5
33425,64768,5
33429,64771,5
33422,64774,4
33428,64778,4
33428,64773,5
33435,64778,5
33438,64784,5
33439,64782,4
33432,64773,5
33425,64788,5
33433,64778,5
33437,64782,5
33428,64772,4
33435,64766,5
33439,64769,5
33433,64779,5
33431,64784,5
33426,64787,4
33440,64777,5
33437,64772,6
33426,64764,4
33431,64768,5
33424,64770,4
33432,64766,5
33426,64762,5
33417,64760,5
33418,64761,5
33420,64742,4
33411,64742,5
33414,64743,5
33415,64739,5
33412,64744,4
33413,64753,4
33404,64741,5
33407,64744,5
33415,64757,5
33415,64765,4
33423,64772,5
33421,64780,5
33420,64778,5
33432,64787,5
33429,64793,4
33445,64793,5
33437,64796,5
33437,64817,5
33449,64810,5
33445,64820,4
33446,64814,5
33455,64813,5
33455,64809,5
33452,64809,5
33458,64827,4
33450,64810,5
33453,64823,5
33456,64813,5
33455,64818,5
33450,64807,4
33450,64809,5
33433,64804,5
33440,64794,5
33438,64794,4
33437,64772,4
33435,64783,5
33431,64778,5
33429,64783,5
33420,64766,5
33422,64766,4
33418,64762,5
33416,64763,5
33415,64745,5
33414,64750,4
33414,64748,5
33410,64740,5
33405,64736,5
33404,64738,5
33406,64724,4
33398,64728,5
33404,64734,5
33395,64726,5
33397,64715,5
33389,64714,4
33384,64707,5
33380,64678,5
33377,64660,5
33367,64640,5
33334,64624,4
33328,64597,5
33315,64574,5
33311,64560,5
33304,64550,4
33292,64539,6
33291,64536,4
33295,64546,5
33292,64541,5
33305,64546,4
33314,64564,5
33307,64575,5
33323,64582,5
33329,64609,5
33341,64633,4
33359,64647,5
33368,64672,5
33380,64700,5
33388,64703,5
33384,64699,4
33387,64694,5
33374,64673,5
33364,64662,5
33371,64666,5
33350,64634,4
33342,64630,5
33354,64630,6
33356,64625,4
33343,64636,4
33348,64631,4
33350,64637,5
33360,64644,5
33353,64653,5
33366,64648,4
33358,64657,5
33367,64666,5
33380,64681,5
33383,64679,5
33386,64686,4
33388,64695,5
33393,64691,5
33390,64702,5
33393,64708,5
33389,64696,4
33391,64697,5
33397,64705,5
33388,64702,5
33394,64691,5
33393,64701,4
33386,64691,5
33386,64687,5
33381,64691,6
33380,64681,4
33382,64684,4
33383,64684,5
33388,64695,5
33385,64681,5
33391,64676,4
33372,64678,4
33370,64675,5
33370,64662,5
33368,64660,5
33356,64650,4
33356,64650,5
33363,64633,5
33353,64635,5
33349,64623,5
33347,64620,4
33348,64617,5
33344,64604,5
33335,64607,5
33342,64606,5
33337,64605,5
33342,64609,4
33345,64608,5
33336,64609,5
33339,64613,6
33354,64618,3
33352,64627,5
33350,64634,5
33359,64635,5
33366,64647,7
33368,64655,2
33377,64660,5
33375,64675,5
33375,64675,5
33386,64683,4
33386,64687,4
33386,64698,5
33388,64702,5
33387,64697,5
33386,64694,4
33384,64694,5
33385,64689,5
33387,64683,5
33396,64675,5
33382,64688,4
33370,64684,6
33372,64681,4
33374,64674,5
33373,64667,5
33365,64670,6
33368,64660,3
33366,64664,5
33362,64654,5
33371,64645,5
33363,64644,4
33361,64638,5
33366,64639,5
33364,64643,5
33349,64635,5
33357,64627,4
33348,64625,5
33355,64616,5
33346,64621,5
33341,64605,4
33338,64610,5
33345,64606,5
33334,64595,5
33347,64599,5
33338,64593,4
33339,64589,5
33329,64582,6
33330,64591,4
33328,64583,5
33330,64574,4
33327,64587,5
33332,64583,5
33318,64577,5
33319,64569,5
33316,64557,4
33301,64540,5
33300,64534,5
33298,64498,5
33276,64485,5
33265,64459,4
33257,64441,5
33235,64426,5
33224,64398,5
33219,64378,5
33213,64361,4
33214,64377,5
33201,64365,5
33209,64367,5
33215,64377,4
33212,64391,5
33223,64398,5
33238,64414,6
33247,64436,4
33243,64442,4
33263,64464,5
33271,64482,5
33277,64498,5
33282,64509,5
33285,64505,4
33273,64487,5
33278,64466,5
33273,64463,5
33263,64450,5
33254,64443,4
33247,64445,5
33244,64443,5
33248,64452,5
33253,64455,5
33253,64452,4
33259,64462,5
33258,64470,5
33274,64484,5
33277,64489,5
33288,64509,4
33296,64520,5
33298,64538,5
33304,64547,6
33313,64545,3
33321,64563,5
33329,64571,5
33328,64570,5
33327,64579,5
33327,64588,4
33339,64594,5
33332,64596,5
33337,64590,5
33337,64595,5
33342,64591,4
33334,64593,5
33336,64599,5
33336,64602,5
33334,64606,5
33346,64603,4
33346,64609,5
33340,64613,5
33341,64603,5
33334,64607,5
33342,64599,5
33330,64589,4
33330,64591,5
33334,64580,5
33326,64582,4
33332,64584,4
33325,64576,5
33332,64580,5
33326,64578,5
33331,64585,4
33325,64579,5
33322,64574,5
33323,64577,5
33323,64568,5
33322,64573,4
33326,64571,5
33330,64577,5
33328,64583,5
33334,64580,5
33341,64597,4
33351,64611,5
33352,64624,5
33352,64639,5
33364,64656,5
33374,64672,4
33384,64681,6
33391,64688,4
33396,64685,5
33390,64706,5
33389,64706,4
33396,64703,5
33397,64692,5
33399,64701,5
33389,64701,4
33396,64697,5
33394,64688,5
33395,64690,5
33394,64699,5
33392,64704,4
33383,64698,5
33391,64694,5
33389,64692,5
33384,64688,5
33382,64681,4
33372,64686,5
33376,64667,5
33378,64672,5
33368,64659,5
33360,64651,4
33350,64643,5
33354,64625,6
33343,64609,4
33338,64592,5
33327,64575,4
33317,64566,5
33311,64553,5
33310,64542,5
33303,64537,5
33296,64527,4
33290,64517,5
33293,64523,5
33301,64516,5
33300,64533,4
33305,64535,5
33307,64561,5
33320,64573,5
33329,64584,5
33339,64602,4
33353,64620,5
33357,64625,5
33360,64636,5
33361,64629,5
33346,64632,4
33340,64616,5
33340,64603,5
33333,64607,5
33329,64588,5
33329,64594,4
33335,64599,5
33341,64599,5
33343,64610,5
33344,64603,5
33346,64621,4
33347,64634,5
33361,64641,5
33364,64650,5
33378,64670,4
33376,64681,4
33397,64695,5
33393,64719,5
33406,64728,5
33405,64736,4
33417,64734,5
33419,64749,5
33418,64738,5
33420,64745,5
33424,64751,5
33419,64746,4
33425,64752,5
33427,64748,5
33425,64747,5
33426,64738,4
33417,64736,5
33416,64744,5
33412,64748,5
33418,64757,5
33423,64762,4
33421,64747,5
33417,64749,5
33419,64736,5
33416,64734,5
33415,64727,4
33412,64717,5
33397,64725,5
33403,64715,5
33399,64719,4
33404,64708,4
33396,64707,5
33402,64711,5
33392,64695,5
33382,64702,4
33394,64714,6
33396,64708,4
33400,64719,5
33408,64716,5
33407,64734,4
33411,64742,5
33421,64744,5
33420,64765,5
33432,64784,5
33439,64792,4
33452,64810,5
33458,64827,5
33464,64831,5
33472,64851,5
33484,64861,4
33491,64863,5
33494,64878,5
33484,64883,5
33483,64882,5
33477,64864,4
33480,64854,5
33461,64842,5
33467,64842,5
33462,64828,4
33450,64818,5
33446,64809,6
33432,64776,4
33428,64777,5
33413,64762,4
33400,64733,5
33395,64718,5
33379,64695,5
33365,64674,5
33362,64664,4
33348,64643,5
33340,64645,5
33336,64630,5
33344,64634,5
33341,64631,4
33344,64636,5
33353,64647,5
33360,64670,5
33371,64682,5
33390,64707,4
33393,64732,5
33405,64744,5
33419,64762,6
33424,64787,3
33426,64793,4
33430,64781,5
33416,64766,5
33394,64724,5
33395,64716,4
33384,64701,5
33365,64676,5
33364,64661,5
33348,64650,5
33348,64643,4
33340,64637,5
33345,64635,5
33353,64643,5
33343,64656,5
33356,64650,4
33356,64666,5
33362,64669,5
33358,64668,5
33368,64681,5
33376,64682,5
33371,64683,4
33369,64688,5
33377,64688,5
33375,64699,6
33382,64703,3
33374,64705,5
33381,64707,5
33382,64708,5
33387,64709,4
33395,64716,5
33401,64720,5
33396,64725,5
33394,64720,5
33415,64740,4
33414,64754,5
33419,64761,5
33422,64771,5
33428,64766,5
33422,64774,4
33430,64770,5
33424,64776,5
33436,64776,5
33442,64788,5
33442,64788,4
33433,64799,6
33444,64789,4
33441,64806,5
33441,64789,5
33447,64795,6
33433,64792,3
33439,64790,5
33438,64800,5
33440,64798,5
33449,64806,4
33446,64814,5
33452,64818,5
33448,64813,5
33450,64825,4
33464,64836,5
33470,64853,5
33473,64857,5
33480,64872,5
33482,64873,4
33482,64886,5
33489,64889,5
33502,64911,5
33499,64914,5
33509,64919,4
33514,64923,5
33513,64935,6
33524,64936,4
33525,64944,5
33523,64948,4
33517,64932,5
33513,64938,5
33506,64933,5
33516,64915,5
33503,64918,4
33504,64902,5
33497,64900,5
33498,64885,5
33492,64879,4
33487,64885,4
33484,64882,5
33487,64886,5
33491,64884,5
33497,64896,4
33508,64899,5
33498,64903,5
33502,64914,5
33518,64933,5
33509,64938,4
33522,64949,5
33530,64956,5
33529,64963,6
33524,64934,4
33516,64933,4
33520,64923,5
33513,64921,5
33507,64904,5
33503,64914,5
33509,64919,4
33509,64920,5
33504,64912,5
33512,64921,5
33515,64923,5
33512,64931,4
33523,64937,5
33523,64946,5
33524,64956,5
33524,64963,4
33539,64965,4
33550,64980,5
33536,64976,5
33547,64984,5
33557,64993,5
33553,64990,4
33556,64996,5
33555,65000,5
33558,65001,6
33562,65006,3
33560,65003,5
33566,65012,5
33577,65003,5
33560,64991,5
33564,64996,4
33548,64996,5
33552,64992,5
33549,65001,5
33562,64993,5
33554,65002,4
33561,64993,5
33564,64993,5
33555,65000,5
33558,65013,5
33569,65017,4
33571,65019,10
33576,65015,5
33573,65010,4
33574,65026,6
33582,65030,4
33575,65028,5
33575,65031,5
33574,65021,4
33576,65027,5
33575,65028,5
33564,65026,5
33576,65033,5
33572,65043,4
33584,65042,5
33587,65049,5
33583,65047,5
33592,65053,5
33598,65069,4
33598,65087,5
33599,65085,5
33605,65097,5
33609,65101,5
33604,65106,4
33618,65106,5
33613,65114,5
33617,65114,5
33616,65114,4
33617,65119,4
33623,65126,6
33621,65114,4
33607,65111,5
33612,65114,4
33611,65107,5
33620,65108,5
33609,65103,5
33610,65089,5
33598,65084,4
33588,65072,5
33591,65055,5
33587,65051,5
33581,65052,5
33582,65062,4
33580,65047,5
33576,65052,5
33585,65047,5
33587,65057,5
33590,65059,4
33592,65079,5
33594,65072,5
33595,65083,5
33605,65089,5
33595,65078,4
33592,65065,5
33579,65050,6
33587,65041,4
33576,65033,4
33572,65024,4
33569,65024,5
33568,65006,5
33568,65010,5
33568,65004,4
33563,65007,5
33562,64991,5
33549,64995,5
33549,64995,5
33544,64995,4
33550,64987,5
33555,64980,5
33551,64985,5
33552,64982,5
33554,64982,4
33552,64987,5
33554,64980,5
33548,64974,5
33547,64994,5
33546,64976,4
33551,64975,5
33545,64975,5
33540,64974,6
33539,64965,4
33537,64967,4
33544,64969,5
33533,64975,5
33541,64971,5
33542,64976,4
33542,64968,4
33540,64963,5
33537,64972,5
33542,64978,5
33531,64972,4
33536,64959,5
33538,64957,5
33538,64962,5
33525,64961,5
33529,64944,4
33517,64944,5
33525,64931,5
33518,64946,5
33521,64923,5
33511,64922,5
33508,64915,4
33505,64903,5
33502,64898,5
33490,64896,5
33490,64890,4
33492,64892,5
33488,64882,5
33483,64874,5
33485,64882,5
33487,64885,4
33485,64884,5
33489,64878,5
33491,64889,5
33487,64886,4
33494,64886,5
33494,64895,5
33500,64907,5
33501,64896,5
33504,64909,4
33499,64907,5
33495,64911,5
33505,64911,5
33502,64916,5
33501,64909,4
33498,64907,6
33505,64906,4
33499,64902,5
33502,64901,5
33501,64909,4
33498,64904,5
33495,64900,5
33499,64887,5
33497,64881,5
33487,64871,4
33487,64872,5
33471,64853,5
33456,64833,5
33448,64811,5
33436,64776,4
33416,64756,5
33398,64726,5
33395,64705,5
33389,64689,4
33388,64690,5
33374,64703,5
33385,64694,5
33385,64702,5
33389,64702,4
33396,64710,5
33399,64731,6
33412,64730,4
33407,64751,5
33421,64772,4
33431,64789,5
33442,64804,5
33452,64806,5
33439,64787,5
33434,64783,4
33433,64777,5
33421,64768,5
33426,64764,5
33416,64763,5
33410,64751,4
33415,64742,5
33420,64732,5
33407,64726,5
33401,64726,4
33405,64726,4
33407,64732,5
33408,64731,5
33409,64726,5
33412,64737,4
33412,64733,5
33415,64742,5
33415,64736,5
33409,64734,5
33416,64743,4
33409,64741,5
33422,64745,5
33410,64741,5
33417,64731,5
33409,64733,4
33417,64735,5
33418,64734,5
33413,64737,5
33411,64736,5
33404,64743,4
33421,64732,5
33415,64737,5
33417,64741,5
33413,64740,5
33417,64736,4
33416,64739,5
33410,64749,5
33413,64742,5
33421,64737,5
33407,64736,4
33408,64741,5
33406,64743,5
33422,64734,5
33416,64725,4
33411,64739,5
33409,64730,5
33405,64720,5
33404,64732,5
33408,64737,4
33407,64730,5
33402,64714,5
33403,64719,5
33396,64710,5
33403,64717,4
33396,64716,5
33394,64721,5
33402,64707,5
33404,64715,5
33404,64724,4
33396,64708,6
33405,64717,4
33407,64720,5
33404,64731,5
33411,64727,6
33412,64742,3
33411,64740,5
33423,64749,5
33415,64744,4
33415,64743,5
33418,64744,5
33421,64745,5
33424,64758,5
33414,64748,4
33414,64751,5
33421,64752,5
33414,64746,5
33417,64749,5
33410,64754,4
33422,64740,5
33408,64750,5
33422,64739,5
33421,64741,5
33416,64733,4
33406,64731,5
33421,64736,6
33402,64728,4
33402,64726,5
33403,64728,4
33410,64720,5
33404,64713,5
33402,64714,5
33395,64711,4
33392,64710,4
33390,64717,5
33390,64707,5
33392,64692,5
33387,64695,4
33386,64689,5
33379,64695,5
33384,64684,5
33371,64667,5
33376,64660,4
33356,64653,5
33345,64622,5
33336,64590,5
33316,64572,5
33300,64532,4
33288,64512,5
33267,64483,5
33259,64466,6
33263,64452,4
33252,64445,4
33256,64456,5
33253,64456,5
33268,64475,5
33274,64481,5
33280,64500,4
33290,64521,5
33308,64547,5
33320,64569,5
33339,64601,4
33354,64645,5
33380,64669,5
33376,64665,5
33371,64651,5
33353,64630,4
33345,64613,5
33322,64591,5
33302,64554,5
33301,64541,5
33292,64541,5
33289,64532,4
33288,64539,5
33289,64527,5
33294,64532,6
33286,64528,3
33282,64514,5
33277,64517,5
33278,64507,5
33280,64502,5
33268,64497,4
33276,64508,5
33280,64509,5
33284,64514,5
33280,64518,5
33287,64509,4
33284,64518,5
33281,64516,5
33289,64515,5
33289,64532,4
33304,64542,5
33305,64547,5
33317,64558,5
33312,64561,5
33310,64556,4
33312,64552,6
33308,64551,4
33300,64528,5
33299,64518,5
33289,64512,4
33273,64495,5
33264,64485,5
33266,64484,5
33252,64473,5
33249,64446,4
33245,64437,5
33236,64431,5
33239,64432,5
33240,64439,5
33242,64446,4
33239,64441,5
33256,64443,5
33251,64447,5
33250,64449,4
33245,64444,4
33259,64434,5
33247,64435,5
33241,64447,5
33251,64449,4
33254,64456,5
33254,64457,6
33275,64466,4
33273,64483,5
33284,64498,4
33278,64509,5
33289,64515,5
33300,64525,5
33309,64534,5
33313,64561,4
33317,64582,5
33329,64576,5
33336,64588,5
33339,64604,5
33345,64610,4
33355,64619,5
33357,64612,5
33362,64633,5
33369,64636,5
33362,64642,4
33368,64649,5
33368,64652,5
33365,64654,5
33379,64663,4
33376,64672,4
33386,64676,5
33387,64678,6
33386,64673,4
33383,64677,4
33380,64669,5
33389,64668,5
33380,64658,5
33369,64671,5
33371,64649,4
33363,64652,5
33354,64630,5
33353,64609,5
33344,64597,5
33336,64583,4
33319,64571,5
33317,64554,5
33316,64553,5
33309,64554,5
33315,64547,4
33310,64549,5
33322,64556,5
33327,64570,5
33323,64580,5
33333,64593,4
33334,64601,5
33348,64621,5
33352,64626,6
33361,64656,3
33378,64673,5
33383,64691,5
33392,64703,5
33396,64692,5
33386,64676,4
33373,64657,5
33373,64651,5
33358,64632,5
33358,64617,5
33351,64612,4
33348,64608,5
33350,64602,5
33347,64611,5
33346,64607,5
33345,64607,4
33350,64609,5
33360,64606,5
33353,64610,5
33358,64615,5
33350,64619,5
33355,64623,4
33365,64629,5
33362,64625,5
33364,64639,4
33363,64638,4
33360,64643,5
33371,64649,5
33370,64645,5
33368,64641,7
33365,64645,2
33374,64635,5
33372,64642,5
33366,64638,5
33364,64636,4
33362,64638,5
33365,64639,5
33369,64641,5
33367,64640,5
33359,64628,4
33358,64626,5
33364,64634,5
33362,64624,5
33359,64625,5
33351,64622,4
33356,64624,6
33355,64626,4
33355,64619,5
33355,64608,5
33350,64607,4
33345,64610,5
33345,64599,5
33339,64600,5
33352,64602,4
33342,64605,4
33348,64613,5
33342,64618,5
33354,64619,5
33359,64621,4
33357,64626,5
33356,64637,5
33360,64647,5
33371,64653,5
33377,64655,4
33385,64674,5
33384,64680,5
33389,64684,5
33397,64691,5
33393,64706,4
33398,64711,5
33410,64719,6
33417,64726,4
33420,64736,5
33411,64744,4
33419,64744,5
33418,64743,5
33422,64746,5
33419,64745,5
33428,64738,4
33421,64742,5
33421,64740,5
33420,64741,5
33422,64745,4
33429,64740,5
33415,64742,5
33437,64745,5
33426,64742,5
33416,64745,4
33424,64739,5
33425,64740,5
33416,64734,5
33412,64734,5
33407,64735,4
33424,64735,5
33418,64729,5
33420,64738,5
33410,64742,5
33420,64728,4
33415,64729,5
33408,64729,5
33418,64730,5
33408,64717,5
33411,64727,4
33414,64728,5
33406,64724,5
33409,64717,5
33416,64729,4
33413,64729,4
33410,64727,5
33420,64733,5
33414,64732,5
33417,64725,4
33417,64730,5
33405,64726,5
33406,64720,5
33400,64711,5
33391,64684,5
33384,64684,4
33374,64667,5
33370,64644,5
33364,64628,5
33348,64618,4
33347,64600,5
33347,64597,5
33344,64599,5
33342,64598,5
33346,64604,4
33347,64628,5
33350,64623,5
33365,64643,5
33369,64659,5
33373,64672,4
33397,64691,5
33406,64715,5
33408,64738,5
33425,64754,4
33432,64765,4
33424,64750,5
33413,64736,5
33407,64732,5
33402,64717,4
33408,64715,6
33409,64707,4
33401,64709,5
33407,64707,5
33400,64720,4
33410,64719,5
33407,64725,5
33417,64736,5
33421,64744,5
33430,64759,4
33433,64763,5
33437,64781,5
33449,64800,5
33461,64799,5
33455,64808,4
33457,64808,5
33462,64803,5
33463,64814,5
33465,64811,5
33473,64817,4
33467,64818,5
33473,64813,6
33459,64821,4
33466,64815,4
33459,64818,5
33461,64814,5
33472,64815,5
33460,64804,5
33470,64813,4
33454,64809,5
33467,64815,5
33458,64813,5
33472,64813,5
33459,64818,4
33464,64813,5
33455,64805,5
33458,64797,5
33453,64806,5
33463,64802,4
33458,64808,5
33450,64797,5
33450,64805,5
33446,64797,5
33452,64801,4
33456,64789,5
33450,64790,5
33454,64786,6
33452,64797,3
33450,64790,4
33442,64790,5
33454,64806,5
33452,64812,5
33471,64821,4
33464,64831,5
33472,64850,5
33482,64850,5
33487,64858,5
33494,64871,4
33493,64889,5
33506,64901,5
33518,64912,5
33517,64918,5
33527,64927,4
33526,64940,5
33530,64943,5
33543,64967,5
33531,64959,5
33540,64958,5
33547,64961,4
33535,64964,5
33540,64968,5
33535,64954,6
33539,64965,3
33540,64968,5
33542,64971,5
33534,64959,5
33536,64964,4
33539,64964,4
33533,64968,5
33535,64963,5
33533,64963,5
33527,64952,4
33522,64938,5
33527,64934,5
33529,64943,5
33520,64926,5
33507,64920,4
33499,64891,5
33500,64877,5
33489,64866,5
33477,64853,5
33486,64844,4
33469,64845,6
33469,64838,4
33469,64848,5
33480,64844,5
33473,64850,6
33486,64862,3
33489,64873,5
33494,64889,5
33494,64903,5
33503,64914,4
33516,64932,5
33517,64946,5
33524,64946,5
33529,64932,4
33516,64922,5
33503,64911,5
33506,64900,5
33489,64889,5
33495,64885,4
33488,64878,5
33493,64887,5
33498,64885,5
33496,64889,5
33502,64889,4
33498,64900,5
33510,64921,6
33510,64914,4
33518,64922,5
33529,64943,4
33530,64954,5
33543,64964,5
33538,64970,5
33551,64978,5
33556,64986,4
33546,64989,5
33557,64989,5
33554,65000,5
33562,64996,5
33566,64998,4
33564,64995,5
33557,64991,5
33565,65004,5
33558,64994,4
33556,65004,5
33557,65002,5
33563,65000,5
33564,65007,5
33569,65013,4
33563,65005,5
33561,65003,5
33559,64995,6
33551,64995,4
33551,64994,4
33548,64984,5
33550,64984,5
33559,64988,5
33547,64981,5
33547,64980,4
33549,64983,5
33545,64978,5
33546,64975,5
33541,64973,5
33543,64967,4
33545,64971,5
33541,64970,5
33550,64975,5
33543,64970,4
33553,64995,4
33555,64985,5
33554,65006,5
33558,65007,5
33567,65027,5
33576,65041,4
33581,65044,5
33590,65061,5
33602,65075,6
33605,65085,3
33606,65100,5
33607,65109,5
33611,65115,5
33631,65115,5
33630,65132,4
33633,65140,5
33627,65143,5
33644,65143,5
33640,65150,5
33635,65154,4
33638,65146,5
33637,65151,5
33628,65132,5
33630,65133,5
33629,65117,4
33609,65105,5
33612,65097,5
33599,65090,5
33596,65070,4
33594,65074,5
33587,65063,4
33596,65068,5
33593,65076,5
33601,65071,4
33597,65061,5
33577,65037,5
33560,65003,5
33538,64962,5
33510,64943,4
33511,64928,5
33505,64920,5
33498,64914,5
33492,64901,5
33475,64877,4
33462,64864,5
33465,64854,5
33458,64838,5
33459,64840,5
33455,64840,4
33456,64827,5
33455,64829,5
33458,64844,5
33469,64859,5
33475,64859,4
33470,64878,6
33486,64892,4
33496,64894,5
33502,64913,4
33510,64930,4
33514,64951,5
33534,64966,5
33533,64975,5
33542,64983,4
33549,65007,5
33560,65005,5
33565,65026,5
33572,65020,5
33584,65032,4
33593,65052,5
33584,65055,5
33589,65061,5
33597,65070,5
33595,65071,4
33594,65074,5
33601,65082,5
33621,65091,5
33609,65107,5
33613,65102,4
33611,65102,5
33627,65114,6
33621,65104,4
33623,65114,5
33618,65115,4
33618,65116,5
33623,65116,5
33633,65115,5
33628,65126,4
33625,65122,5
33626,65127,5
33619,65125,5
33618,65124,5
33625,65118,4
33618,65111,5
33625,65124,5
33622,65123,5
33634,65134,5
33634,65134,4
33627,65135,5
33633,65148,5
33640,65167,5
33652,65170,5
33652,65171,4
33658,65188,5
33659,65202,5
33670,65208,5
33667,65212,5
33680,65224,4
33681,65247,5
33696,65245,5
33694,65259,5
33703,65263,5
33707,65278,4
33711,65279,5
33710,65284,5
33706,65279,5
33713,65278,4
33693,65274,5
33702,65268,5
33696,65253,5
33699,65247,5
33689,65242,4
33677,65227,5
33676,65214,5
33661,65210,5
33663,65199,5
33659,65206,5
33669,65201,4
33670,65204,5
33669,65217,5
33664,65208,5
33664,65220,4
33673,65220,5
33680,65227,5
33680,65240,5
33683,65237,5
33680,65233,4
33666,65210,5
33663,65205,5
33661,65207,5
33655,65190,4
33652,65184,4
33657,65191,5
33657,65182,5
33647,65166,5
33649,65170,4
33642,65161,5
33636,65165,10
33637,65152,5
33643,65158,4
33636,65158,6
33636,65157,4
33639,65166,5
33640,65161,5
33634,65157,4
33646,65158,5
33646,65162,5
33642,65152,5
33643,65152,5
33640,65157,4
33638,65151,5
33639,65141,5
33637,65145,5
33640,65143,5
33630,65135,4
33636,65142,5
33633,65132,5
33631,65136,5
33631,65140,4
33637,65140,4
33631,65146,5
33633,65136,5
33631,65140,5
33629,65127,4
33618,65131,5
33628,65127,6
33625,65130,4
33614,65123,5
33619,65117,4
33616,65114,5
33611,65111,5
33616,65104,5
33608,65099,5
33598,65086,4
33597,65078,5
33585,65074,5
33577,65057,5
33591,65058,5
33584,65050,4
33578,65033,5
33567,65038,5
33571,65032,5
33569,65027,5
33569,65028,4
33570,65022,5
33558,65024,5
33561,65029,5
33575,65038,3
33564,65028,5
33576,65034,5
33571,65040,5
33567,65031,5
33578,65044,4
33578,65045,5
33572,65044,5
33563,65055,5
33577,65047,5
33582,65038,4
33580,65044,5
33573,65047,5
33578,65046,5
33573,65043,5
33576,65040,4
33580,65035,5
33565,65040,5
33564,65038,5
33571,65039,5
33570,65028,5
33564,65023,4
33557,65016,5
33561,65016,5
33565,65021,6
33550,65007,3
33550,64999,5
33548,64991,5
33540,64983,5
33537,64967,4
33517,64938,5
33496,64915,5
33489,64881,5
33479,64849,5
33453,64817,4
33437,64785,5
33414,64746,5
33401,64730,5
33397,64723,5
33385,64714,4
33387,64704,5
33394,64713,5
33389,64727,5
33399,64732,5
33410,64744,4
33416,64764,6
33422,64779,4
33433,64806,5
33453,64829,5
33459,64847,6
33471,64865,3
33475,64867,5
33469,64856,5
33472,64856,4
33469,64851,4
33456,64836,5
33458,64838,5
33451,64827,5
33457,64824,4
33448,64812,5
33456,64819,5
33455,64824,5
33453,64814,5
33449,64824,4
33447,64820,5
33450,64810,5
33454,64813,5
33455,64814,5
33455,64823,4
33459,64815,5
33452,64819,6
33456,64816,4
33456,64817,5
33457,64817,4
33450,64819,5
33457,64817,5
33455,64812,5
33453,64823,5
33461,64826,4
33467,64828,5
33450,64826,5
33456,64822,5
33457,64819,4
33459,64813,4
33458,64821,5
33455,64820,5
33465,64824,5
33463,64827,4
33455,64821,5
33447,64830,5
33461,64817,5
33460,64819,5
33450,64820,4
33460,64820,5
33453,64819,5
33453,64815,6
33456,64821,4
33445,64819,4
33454,64808,5
33447,64812,5
33439,64799,5
33442,64792,5
33438,64797,4
33432,64788,5
33440,64782,5
33432,64782,5
33429,64776,5
33424,64779,4
33436,64780,5
33436,64786,5
33438,64790,5
33447,64790,4
33443,64797,5
33435,64792,5
33443,64800,5
33443,64807,5
33451,64804,5
33457,64813,4
33453,64818,5
33456,64825,5
33455,64831,6
33456,64836,3
33459,64845,5
33463,64845,5
33454,64838,5
33463,64828,5
33463,64839,4
33466,64845,5
33465,64838,5
33466,64838,5
33464,64826,5
33462,64834,4
33460,64828,5
33459,64824,5
33461,64823,5
33447,64832,4
33450,64814,4
33443,64815,5
33459,64818,5
33450,64812,5
33448,64816,4
33435,64795,6
33436,64791,4
33432,64773,5
33418,64763,5
33411,64735,4
33401,64722,5
33392,64691,5
33375,64673,5
33361,64656,5
33348,64633,4
33348,64628,5
33344,64618,5
33343,64622,5
33344,64631,5
33345,64630,4
33356,64651,5
33360,64666,5
33362,64671,5
33376,64692,5
33382,64709,4
33405,64719,5
33414,64753,5
33420,64766,5
33432,64790,4
33446,64792,4
33432,64781,6
33427,64763,4
33426,64754,5
33418,64742,4
33404,64735,5
33397,64721,5
33401,64710,5
33392,64708,5
33396,64708,4
33392,64704,5
33391,64697,5
33385,64698,5
33396,64699,5
33387,64708,4
33388,64710,5
33395,64702,5
33393,64715,5
33401,64712,5
33396,64710,4
33403,64709,5
33399,64716,5
33392,64712,5
33393,64719,5
33404,64727,4
33396,64710,5
33406,64711,6
33404,64712,4
33403,64719,4
33400,64711,5
33398,64711,5
33395,64702,5
33390,64707,5
33387,64698,4
33395,64706,5
33399,64700,5
33388,64707,5
33388,64698,5
33397,64702,4
33389,64703,5
33389,64693,5
33391,64691,5
33383,64694,5
33387,64682,4
33377,64681,5
33377,64676,5
33371,64676,5
33373,64678,5
33365,64674,4
33365,64661,5
33365,64650,5
33364,64659,6
33367,64661,4
33356,64650,4
33361,64654,5
33366,64660,5
33366,64659,5
33370,64668,4
33371,64673,5
33379,64667,5
33382,64673,5
33373,64679,5
33393,64694,4
33385,64694,5
33386,64698,10
33391,64712,5
33389,64716,5
33400,64712,5
33410,64744,8
33410,64744,5
33400,64733,5
33408,64743,8
33414,64757,5
33401,64735,5
33405,64724,5
33408,64726,8
33412,64739,5
33430,64725,5
33409,64730,8
33400,64714,5
33395,64716,5
33404,64715,5
33396,64715,8
33396,64715,5
33393,64737,5
33397,64704,8
33392,64675,5
33390,64702,5
33427,64702,8
33407,64700,5
33356,64692,5
33389,64691,5
33389,64695,8
33383,64703,5
33387,64695,5
33379,64692,8
33379,64692,5
33376,64640,5
33385,64685,8
33391,64679,5
33381,64695,5
33352,64689,5
33358,64692,8
33382,64690,5
33381,64690,5
33377,64690,8
33375,64691,5
33378,64674,5
33383,64682,5
33344,64620,8
33344,64620,5
33336,64598,5
33314,64572,8
33293,64549,5
33290,64539,5
33285,64518,5
33280,64512,8
33258,64492,5
33257,64435,5
33263,64462,8
33275,64469,5
33292,64535,5
33292,64535,8
33296,64555,5
33322,64586,5
33331,64613,5
33349,64621,8
33334,64618,5
33336,64595,5
33324,64545,8
33335,64554,5
33317,64579,5
33309,64569,5
33313,64566,8
33313,64566,5
33310,64572,5
33325,64561,8
33325,64578,5
33325,64588,5
33337,64604,8
33339,64605,5
33337,64600,5
33344,64594,5
33348,64608,8
33348,64626,5
33345,64619,5
33350,64623,8
33350,64623,5
33338,64605,5
33338,64606,5
33357,64610,8
33359,64611,5
33325,64610,5
33339,64598,8
33330,64597,5
33340,64606,5
33336,64610,8
33319,64602,5
33332,64596,5
33332,64597,5
33318,64569,8
33318,64569,5
33352,64572,5
33326,64574,8
33293,64580,5
33314,64564,5
33315,64561,5
33307,64564,8
33308,64560,5
33311,64555,5
33313,64562,8
33312,64563,5
33316,64567,5
33331,64580,8
33331,64580,5
33290,64593,5
33324,64596,5
33340,64604,13
33349,64627,5
33360,64626,8
