RED,IR,EKG,TIME
39046,83060,9
39059,83079,5
39054,83095,5
39065,83113,8
39070,83141,5
39090,83169,5
39088,83159,8
39099,83156,5
39098,83208,5
39121,83188,8
39121,83188,5
39125,83202,5
39126,83212,5
39121,83225,8
39128,83214,5
39132,83214,5
39129,83262,8
39127,83242,5
39128,83192,5
39125,83211,5
39135,83208,8
39118,83199,5
39118,83199,5
39115,83208,8
39109,83176,5
39094,83168,5
39100,83159,8
39092,83159,5
39090,83151,5
39085,83102,5
39075,83108,8
39081,83120,5
39085,83122,5
39074,83125,8
39074,83125,5
39072,83106,5
39073,83103,5
39069,83103,8
39064,83105,5
39071,83122,5
39067,83125,8
39063,83103,5
39068,83122,5
39076,83133,8
39084,83127,5
39082,83135,5
39076,83125,5
39064,83100,8
39064,83100,5
39071,83092,5
39075,83099,8
39079,83089,5
39052,83085,5
39045,83076,5
39054,83075,8
39052,83083,5
39043,83065,5
39031,83062,8
39028,83044,5
39028,83043,5
39019,83021,8
39019,83021,5
39043,83010,5
39009,83009,5
38984,83007,8
39003,82985,5
38993,82985,5
38986,82978,8
38990,82957,5
38970,82924,5
38961,82900,5
38946,82877,8
38939,82853,5
38905,82828,5
38923,82845,8
38923,82845,5
38906,82825,5
38917,82829,8
38931,82872,5
38927,82850,5
38936,82852,5
38933,82862,8
38948,82868,5
38962,82866,5
38943,82875,8
38939,82869,5
38933,82868,5
38913,82848,5
38889,82779,8
38889,82779,5
38895,82790,5
38890,82748,8
38861,82756,5
38892,82766,5
38931,82769,8
38899,82772,5
38880,82789,5
38893,82785,5
38914,82806,8
38913,82816,5
38944,82827,5
38948,82867,8
38948,82867,5
38952,82844,0
38956,82886,4
38971,82898,5
38966,82923,5
38975,82929,5
38975,82937,5
38988,82942,9
38979,82941,0
38991,82928,5
38998,82956,5
38990,82937,5
38989,82970,4
38993,82975,5
38996,82992,5
39005,82961,6
39009,82992,4
39009,82998,4
39021,83004,5
39019,82981,5
39009,82996,5
39014,83006,4
39009,83004,4
39014,83004,5
39003,82987,5
39002,82992,5
39000,82982,4
38998,83014,5
39004,82975,5
38994,82978,5
39001,82977,5
38999,83008,4
38998,82972,5
38993,82978,5
39000,82975,5
38990,82993,5
39000,82982,5
38997,82982,4
39001,82989,5
39009,82995,5
39011,83011,6
39013,83010,3
39018,83017,5
39025,83029,5
39029,83035,5
39027,83052,4
39029,83061,5
39038,83054,5
39049,83065,5
39054,83072,5
39048,83092,4
39055,83093,5
39055,83108,5
39056,83097,5
39063,83102,5
39061,83102,4
39064,83110,5
39076,83101,5
39064,83114,5
39070,83106,5
39070,83110,4
39068,83109,6
39073,83108,4
39058,83111,5
39065,83101,5
39061,83104,4
39062,83106,5
39053,83097,5
39057,83099,5
39054,83097,4
39051,83087,5
39042,83065,5
39034,83058,5
39027,83036,5
39013,83030,4
39013,83017,5
39009,83012,5
39007,83003,5
39003,83005,5
39012,83003,4
39000,82995,5
39007,83008,5
39004,83008,5
39002,83006,5
39004,83013,4
39017,83004,5
39006,83014,6
39016,83023,4
39015,83031,4
39017,83032,4
39013,83028,5
39022,83023,5
39008,83019,5
39007,83006,4
38998,82997,5
38986,82981,5
38991,82979,5
38992,82987,5
39000,82992,4
39000,83003,5
38997,83000,5
39002,83014,5
39012,83026,5
39017,83045,4
39032,83064,5
39043,83098,5
39063,83129,5
39073,83159,5
39102,83187,4
39105,83222,5
39124,83250,5
39139,83282,6
39144,83297,3
39159,83326,4
39171,83348,5
39185,83362,5
39196,83377,5
39192,83401,4
39202,83400,5
39199,83393,5
39203,83396,5
39201,83400,5
39199,83398,4
39201,83408,5
39191,83403,5
39203,83406,5
39202,83407,5
39204,83402,4
39174,83396,5
39188,83384,5
39188,83378,5
39191,83374,5
39161,83368,5
39181,83372,4
39176,83371,5
39179,83364,5
39194,83353,4
39166,83344,4
39174,83343,5
39168,83334,5
39198,83346,5
39176,83343,4
39179,83345,5
39165,83353,5
39211,83362,5
39169,83366,5
39183,83364,4
39177,83367,5
39199,83366,5
39184,83374,5
39181,83374,5
39190,83392,4
39204,83408,5
39200,83423,5
39209,83438,5
39219,83446,5
39226,83457,4
39233,83483,6
39243,83499,4
39248,83517,5
39257,83503,4
39263,83548,5
39273,83564,5
39279,83567,5
39268,83548,5
39284,83587,4
39281,83603,5
39288,83600,5
39292,83617,5
39278,83597,5
39276,83575,4
39259,83572,5
39267,83589,5
39255,83541,5
39250,83544,5
39243,83543,4
39243,83576,5
39254,83547,5
39250,83548,5
39258,83555,5
39256,83575,4
39256,83568,5
39257,83567,6
39264,83589,4
39270,83612,4
39285,83623,5
39292,83651,5
39301,83661,5
39310,83666,5
39296,83649,4
39290,83641,5
39281,83621,5
39280,83628,5
39273,83603,5
39273,83615,4
39278,83634,5
39278,83629,5
39278,83617,5
39257,83610,5
39270,83600,4
39269,83608,5
39278,83625,5
39291,83635,5
39294,83655,5
39312,83673,4
39315,83687,5
39319,83688,5
39317,83695,5
39314,83684,4
39321,83695,5
39329,83711,5
39337,83726,5
39340,83752,5
39361,83769,4
39371,83800,5
39370,83798,5
39369,83804,5
39371,83801,5
39376,83810,4
39376,83826,5
39393,83832,5
39400,83855,5
39400,83857,5
39397,83858,4
39398,83854,5
39399,83837,5
39387,83845,5
39382,83826,5
39388,83821,5
39392,83823,4
39381,83833,5
39374,83816,5
39375,83788,4
39368,83785,5
39360,83764,5
39338,83751,5
39333,83730,5
39330,83711,4
39327,83713,5
39325,83711,5
39330,83717,5
39321,83707,5
39320,83701,4
39314,83703,5
39312,83686,5
39302,83673,5
39304,83674,5
39313,83681,4
39305,83677,5
39327,83684,5
39322,83680,5
39329,83685,5
39315,83697,4
39320,83689,6
39328,83694,3
39335,83712,5
39326,83696,4
39336,83698,5
39321,83714,5
39322,83690,5
39316,83677,5
39309,83663,4
39314,83664,5
39303,83651,5
39304,83646,5
39290,83636,5
39298,83621,4
39287,83608,5
39287,83605,5
39259,83601,5
39292,83612,5
39287,83611,4
39289,83615,5
39260,83613,5
39294,83623,6
39300,83629,3
39294,83618,4
39270,83626,5
39293,83623,5
39282,83611,5
39275,83591,4
39274,83582,5
39257,83564,5
39250,83535,5
39246,83539,5
39286,83538,4
39245,83535,5
39254,83531,5
39245,83536,5
39293,83532,5
39251,83532,4
39258,83541,5
39256,83554,5
39288,83550,5
39270,83571,5
39271,83575,5
39278,83587,4
39287,83591,5
39287,83595,5
39284,83607,6
39297,83615,3
39297,83594,5
39305,83620,5
39292,83617,5
39306,83615,4
39294,83593,5
39288,83621,5
39301,83626,5
39305,83629,5
39314,83594,4
39305,83635,5
39298,83627,5
39296,83613,5
39297,83622,5
39293,83611,4
39283,83584,5
39270,83558,5
39264,83574,5
39253,83523,5
39239,83516,4
39241,83505,6
39239,83541,4
39236,83519,5
39241,83531,4
39248,83514,6
39233,83517,3
39225,83476,5
39197,83438,5
39186,83397,4
39174,83385,5
39177,83364,5
39176,83358,5
39164,83348,5
39150,83328,4
39138,83314,5
39147,83305,5
39142,83315,5
39147,83314,5
39145,83321,4
39159,83341,5
39171,83357,5
39176,83375,5
39185,83386,5
39181,83381,4
39186,83392,5
39182,83385,6
39187,83383,4
39180,83383,4
39182,83380,5
39175,83365,5
39166,83361,5
39157,83341,5
39155,83332,4
39146,83320,5
39144,83315,5
39138,83301,5
39134,83291,5
39141,83296,4
39129,83283,5
39137,83271,5
39122,83288,5
39135,83284,5
39134,83293,4
39139,83300,5
39146,83315,5
39152,83320,5
39155,83307,5
39146,83308,4
39138,83300,5
39128,83294,5
39134,83271,6
39117,83258,3
39124,83258,5
39115,83266,5
39126,83250,5
39128,83271,5
39129,83266,4
39128,83272,5
39142,83287,5
39135,83293,5
39149,83297,5
39148,83304,4
39146,83313,5
39158,83325,5
39158,83313,5
39155,83328,5
39161,83338,4
39156,83335,5
39165,83350,5
39164,83353,5
39171,83347,5
39178,83356,5
39169,83353,4
39172,83350,5
39172,83362,5
39177,83361,6
39185,83360,3
39186,83374,5
39179,83368,5
39181,83367,5
39174,83358,4
39172,83358,5
39184,83344,5
39162,83344,5
39168,83328,5
39170,83339,4
39155,83322,5
39150,83305,5
39150,83296,5
39136,83286,5
39138,83271,4
39123,83262,5
39122,83252,5
39114,83239,5
39095,83225,4
39107,83212,4
39094,83202,6
39089,83197,4
39059,83195,5
39092,83195,4
39078,83170,5
39083,83164,5
39041,83151,5
39076,83147,5
39075,83141,4
39068,83138,8
39062,83137,2
39058,83133,5
39060,83142,5
39070,83148,4
39090,83151,5
39080,83149,5
39064,83146,5
39069,83156,5
39108,83151,4
39077,83152,5
39079,83154,5
39074,83160,5
39102,83158,4
39071,83166,4
39078,83169,5
39079,83163,6
39076,83158,4
39073,83160,4
39072,83158,5
39060,83146,5
39068,83116,5
39057,83103,5
39034,83085,4
39021,83046,5
39005,82990,5
38986,82986,5
38972,82950,5
38968,82941,4
38955,82886,5
38949,82916,5
38946,82901,5
38933,82885,5
38932,82888,4
38932,82902,5
38938,82904,5
38947,82909,5
38960,82965,5
38971,82943,4
38980,82958,5
38978,82973,5
38984,83008,6
38980,82970,3
38981,82960,5
38972,82943,5
38970,82946,5
38952,82924,5
38945,82898,4
38936,82900,5
38939,82903,5
38946,82898,5
38948,82899,5
38945,82902,4
38942,82902,5
38953,82900,5
38950,82906,5
38952,82917,5
38962,82928,4
38962,82932,5
38967,82945,5
38975,82959,5
38979,82963,4
38989,82976,6
38990,82977,4
38994,82987,5
39001,83005,5
39004,83009,4
39007,83023,5
39016,83021,5
39014,83034,5
39014,83029,5
39016,83030,4
39023,83046,5
39024,83055,5
39031,83056,5
39037,83062,5
39030,83069,4
39036,83068,5
39036,83069,5
39040,83067,5
39045,83080,5
39041,83080,4
39034,83081,5
39033,83074,5
39037,83067,5
39032,83063,4
39042,83065,4
39037,83072,6
39032,83067,4
39022,83060,5
39028,83052,4
39020,83042,5
39010,83028,5
39009,83026,5
39010,83012,5
39003,83009,4
38999,83008,5
38995,82997,5
38995,83000,5
38989,82984,5
38995,82984,4
38986,82980,5
38989,82981,5
38991,82986,5
38991,82981,5
38987,82999,4
38992,83005,5
38994,83003,5
39004,83014,5
38997,83021,4
38994,83022,5
38998,83015,5
39008,83016,6
39006,83019,4
39010,83029,4
39001,83030,5
39015,83039,5
39013,83033,5
39010,83036,5
39022,83039,4
39025,83042,5
39014,83055,5
39014,83052,5
39026,83056,5
39016,83052,4
39013,83046,5
39015,83050,5
39015,83045,5
39014,83039,5
39007,83035,4
39009,83030,5
39006,83035,5
39005,83022,5
38998,83024,5
38990,83018,4
38996,83006,5
38993,82998,5
38982,82999,5
38949,82989,4
38972,82960,5
38957,82933,5
38936,82910,5
38897,82878,5
38923,82854,4
38900,82830,5
38904,82810,5
38889,82820,5
38892,82817,5
38894,82817,4
38899,82835,5
38919,82823,5
38905,82835,5
38903,82843,5
38907,82848,4
38948,82860,5
38919,82866,5
38926,82880,5
38931,82886,4
38960,82891,6
38931,82890,4
38941,82890,5
38934,82875,5
38931,82863,4
38920,82851,5
38901,82837,5
38899,82822,5
38896,82806,5
38895,82825,4
38898,82821,5
38895,82820,5
38902,82791,5
38902,82828,5
38903,82837,4
38912,82843,5
38913,82816,5
38912,82863,5
38925,82862,4
38938,82888,4
38929,82901,5
38950,82911,5
38951,82928,5
38966,82941,4
38973,82980,5
38976,82970,6
38989,82983,4
39001,82997,5
39005,83050,4
39012,83023,5
39012,83031,5
39012,83034,5
39013,83057,5
39010,83035,4
39014,83053,5
39027,83064,5
39033,83078,5
39042,83084,5
39042,83085,4
39039,83093,5
39050,83088,5
39053,83097,5
39048,83099,4
39051,83088,4
39043,83090,5
39035,83077,5
39042,83083,6
39039,83077,3
39037,83078,5
39023,83069,5
39020,83050,5
39027,83041,5
39016,83037,4
39007,83024,5
39009,83018,5
39006,83009,5
39000,83004,5
38998,82998,4
38988,82986,5
38987,82983,5
38986,82978,5
38987,82976,5
38978,82968,4
38978,82969,5
38980,82965,5
38984,82973,5
38980,82975,4
38986,82981,5
38991,82976,4
38981,82986,5
38987,82990,5
38990,82998,6
38993,82993,3
38996,82998,5
38996,83005,5
39000,82998,5
38993,82990,4
39004,82994,5
38990,82993,5
38992,82994,5
39002,82990,5
38989,82992,4
38983,82990,5
38993,82986,5
38998,82990,5
38987,82981,5
38981,82979,4
38983,82975,5
38973,82964,5
38980,82958,5
38969,82960,4
38975,82949,4
38972,82948,6
38965,82953,4
38970,82931,5
38954,82935,4
38959,82925,7
38947,82920,3
38940,82919,5
38940,82895,5
38942,82892,4
38932,82877,5
38922,82854,5
38917,82841,5
38894,82821,5
38892,82792,4
38877,82775,5
38865,82750,5
38851,82740,5
38847,82733,5
38856,82724,4
38845,82735,5
38847,82733,5
38849,82738,5
38857,82744,4
38852,82734,5
38863,82746,5
38865,82744,6
38868,82759,4
38873,82756,4
38868,82756,5
38859,82771,5
38872,82758,5
38871,82754,5
38872,82751,4
38841,82725,5
38848,82719,5
38846,82710,5
38833,82688,5
38803,82682,4
38832,82672,5
38825,82675,5
38823,82678,5
38809,82669,5
38813,82669,4
38823,82668,5
38835,82678,5
38850,82687,5
38843,82700,5
38850,82718,4
38855,82722,5
38897,82733,5
38868,82752,6
38876,82763,3
38891,82793,5
38918,82802,5
38905,82814,5
38910,82824,5
38914,82840,4
38932,82862,5
38929,82862,5
38937,82877,5
38941,82886,5
38937,82886,4
38947,82897,5
38947,82901,5
38955,82914,5
38956,82902,4
38965,82922,4
38973,82937,5
38968,82943,5
38972,82911,5
38975,82944,4
38970,82939,6
38965,82937,4
38964,82924,5
38963,82923,5
38962,82923,6
38945,82910,3
38951,82929,5
38947,82886,5
38932,82884,5
38937,82884,4
38934,82905,5
38923,82867,5
38924,82865,5
38925,82855,5
38920,82877,4
38920,82846,5
38917,82847,5
38919,82847,5
38918,82865,4
38913,82860,4
38924,82859,5
38912,82860,5
38925,82853,5
38911,82867,4
38919,82863,5
38920,82865,6
38921,82863,4
38925,82882,5
38926,82881,4
38935,82887,5
38926,82883,5
38924,82878,5
38935,82888,5
38938,82895,4
38930,82888,5
38939,82884,5
38931,82890,5
38941,82901,5
38926,82892,4
38940,82890,5
38939,82888,5
38936,82891,5
38944,82887,4
38926,82883,4
38929,82893,5
38927,82870,5
38928,82880,5
38926,82879,4
38929,82876,5
38916,82874,5
38926,82873,6
38916,82870,4
38919,82864,4
38915,82863,5
38913,82857,5
38912,82852,5
38910,82838,5
38905,82834,4
38907,82824,5
38879,82803,5
38873,82790,5
38873,82782,5
38876,82766,4
38871,82766,5
38863,82768,5
38865,82775,5
38862,82777,4
38871,82775,4
38872,82783,5
38885,82794,5
38878,82804,5
38877,82807,5
38887,82811,4
38900,82822,5
38892,82835,5
38905,82838,6
38903,82830,3
38912,82847,5
38909,82841,5
38907,82833,5
38901,82827,5
38891,82813,4
38891,82803,5
38875,82795,5
38882,82791,5
38892,82796,5
38887,82801,4
38881,82806,5
38884,82804,5
38888,82818,5
38895,82824,4
38900,82828,4
38901,82849,5
38915,82857,5
38923,82867,5
38938,82896,4
38940,82911,11
38955,82930,4
38972,82941,5
38972,82958,4
38993,82982,5
38988,82995,5
38994,83014,5
38994,83026,5
39016,83038,4
39019,83046,5
39031,83067,5
39011,83073,5
39041,83081,5
39040,83104,4
39044,83100,5
39023,83102,5
39047,83121,5
39051,83118,4
39066,83124,5
39045,83121,5
39061,83116,5
39058,83121,5
39062,83117,4
39078,83107,5
39053,83112,6
39051,83107,4
39047,83100,5
39078,83086,4
39035,83071,5
39029,83067,5
39021,83064,5
39054,83066,5
39030,83062,4
39018,83064,5
39020,83052,5
39033,83060,5
39026,83064,5
39030,83073,4
39030,83074,5
39030,83063,5
39030,83077,5
39028,83085,4
39029,83079,5
39037,83068,5
39039,83099,5
39039,83113,5
39049,83122,4
39055,83090,5
39050,83129,5
39060,83122,6
39064,83148,4
39067,83131,4
39065,83142,5
39078,83163,5
39070,83163,5
39082,83190,5
39087,83178,4
39091,83177,5
39088,83176,5
39086,83210,5
39075,83172,5
39083,83161,4
39066,83154,5
39067,83166,5
39054,83129,5
39051,83112,4
39048,83094,5
39045,83095,5
39046,83091,5
39039,83091,5
39038,83079,5
39030,83087,4
39031,83080,5
39033,83086,5
39028,83082,5
39033,83084,4
39034,83094,5
39035,83097,5
39042,83104,5
39036,83094,5
39042,83099,4
39050,83088,5
39040,83081,5
39025,83057,5
39018,83037,4
38997,83017,4
38994,82986,5
38983,82966,5
38975,82964,5
38963,82966,4
38968,82962,5
38973,82955,5
38970,82957,5
38968,82962,5
38970,82962,4
38978,82984,6
38977,82991,4
38992,83008,5
39002,83019,5
39011,83030,4
39020,83051,5
39027,83068,5
39037,83084,5
39044,83093,5
39052,83115,4
39057,83120,5
39069,83133,5
39076,83129,5
39071,83140,4
39080,83152,4
39080,83160,5
39089,83162,5
39086,83161,5
39082,83165,4
39089,83163,5
39087,83160,5
39080,83158,5
39086,83158,5
39085,83151,4
39078,83142,5
39068,83131,5
39071,83129,5
39059,83120,5
39060,83117,4
39051,83095,5
39053,83087,5
39035,83067,5
39035,83062,5
39021,83044,4
39017,83028,5
39012,83023,5
39018,83017,5
39015,83017,4
39004,83017,4
39013,83020,5
39014,83023,5
39007,83025,5
39017,83021,4
39011,83031,5
39023,83042,5
39021,83039,5
39022,83048,5
39031,83047,4
39031,83061,5
39039,83063,5
39036,83078,5
39047,83087,5
39049,83094,4
39052,83100,5
39055,83106,5
39066,83124,5
39076,83139,5
39070,83145,4
39076,83144,5
39072,83133,5
39073,83136,5
39053,83134,4
39064,83128,4
39059,83108,5
39050,83095,5
39015,83078,5
39038,83060,4
39021,83036,6
39018,83025,4
38980,83017,5
39000,83006,5
38996,83007,6
39006,83001,3
39023,83010,5
38997,83006,5
38998,82999,5
39003,83003,4
39039,83020,5
39015,83042,5
39020,83050,5
39025,83052,5
39059,83047,4
39029,83054,5
39022,83036,5
39013,83018,5
39019,83008,4
38995,82975,5
38990,82955,5
38969,82944,5
38970,82934,5
38970,82932,4
38963,82945,5
38969,82946,6
38968,82926,4
38970,82952,5
38984,82957,4
38986,82963,7
38999,82952,3
39003,82991,5
39009,82996,5
39021,83014,4
39022,83008,5
39031,83046,5
39036,83056,5
39048,83070,5
39058,83100,4
39050,83093,5
39059,83096,5
39064,83106,5
39070,83147,4
39067,83123,5
39072,83123,5
39064,83127,5
39066,83155,5
39069,83124,4
39072,83129,5
39071,83134,5
39063,83130,6
39078,83119,4
39067,83121,4
39062,83119,5
39069,83107,5
39064,83095,5
39064,83101,5
39056,83090,4
39052,83087,5
39055,83089,5
39050,83092,5
39047,83078,5
39044,83074,4
39041,83055,5
39033,83053,5
39035,83051,5
39029,83055,4
39041,83052,5
39027,83043,5
39035,83052,5
39025,83049,5
39033,83047,5
39021,83043,4
39018,83034,5
39026,83052,5
39031,83058,6
39035,83049,3
39040,83053,5
39042,83061,5
39050,83061,5
39043,83061,5
39047,83074,4
39044,83073,5
39043,83063,5
39055,83058,5
39038,83066,4
39044,83062,4
39029,83050,5
39029,83035,5
39018,83026,5
39016,83011,4
39004,82994,5
38998,82986,5
39003,82973,5
38991,82962,5
38988,82957,4
38987,82958,6
38989,82945,4
38988,82950,5
38988,82954,5
38994,82967,6
38994,82975,3
38996,82978,5
39001,82987,5
39010,82990,5
39007,82983,4
39002,82971,5
38989,82977,5
38998,82956,5
38990,82950,4
38981,82943,4
38976,82930,5
38983,82929,5
38985,82932,5
38974,82923,4
38974,82923,5
38972,82916,5
38975,82920,5
38975,82932,5
38972,82932,4
38972,82927,5
38975,82926,6
38983,82934,4
38980,82931,5
38986,82934,4
38987,82934,5
38978,82938,5
38984,82943,5
38987,82948,5
38992,82943,4
38984,82953,5
38994,82950,5
38990,82951,5
38993,82952,4
38986,82954,4
38986,82952,5
38992,82950,5
38995,82945,5
38991,82960,4
38968,82952,5
38983,82944,5
38994,82946,5
38995,82947,5
38958,82935,4
38988,82935,5
38983,82921,5
38970,82913,6
38943,82904,4
38960,82910,4
38960,82895,5
38961,82887,5
38964,82884,5
38954,82868,5
38945,82865,4
38935,82846,5
38960,82838,5
38930,82830,5
38920,82815,4
38919,82810,4
38939,82797,5
38911,82806,5
38912,82802,5
38914,82791,4
38916,82789,5
38906,82785,5
38903,82778,5
38900,82783,5
38911,82784,5
38910,82787,4
38909,82789,5
38904,82786,5
38915,82778,5
38913,82796,4
38903,82799,5
38920,82800,5
38912,82779,5
38912,82799,5
38919,82806,4
38914,82802,5
38918,82781,5
38908,82805,5
38901,82791,4
38899,82774,5
38881,82761,5
38866,82716,5
38855,82699,5
38840,82676,4
38829,82681,5
38819,82635,5
38818,82631,5
38816,82621,5
38811,82642,4
38810,82602,6
38798,82601,4
38798,82605,5
38822,82621,5
38817,82620,4
38826,82646,5
38831,82650,5
38845,82673,5
38842,82673,5
38843,82681,4
38854,82691,5
38849,82686,5
38836,82670,5
38837,82665,4
38827,82640,5
38816,82628,5
38810,82624,5
38809,82617,5
38822,82622,4
38814,82626,5
38816,82618,5
38812,82625,5
38816,82632,5
38825,82633,4
38833,82634,5
38826,82650,6
38834,82660,4
38841,82668,5
38846,82687,4
38842,82694,5
38847,82689,5
38856,82702,5
38864,82701,5
38860,82706,4
38856,82703,5
38875,82719,5
38871,82719,5
38872,82735,4
38880,82732,5
38877,82738,5
38883,82752,5
38885,82758,5
38889,82760,4
38898,82774,5
38907,82793,5
38909,82793,5
38903,82796,5
38907,82805,4
38920,82815,5
38925,82827,5
38921,82827,5
38914,82821,5
38919,82829,4
38916,82807,5
38912,82815,5
38914,82800,5
38906,82788,5
38900,82781,4
38885,82769,5
38884,82763,5
38883,82744,5
38882,82745,4
38879,82743,5
38878,82738,9
38884,82755,1
38877,82746,5
38871,82765,4
38877,82747,5
38880,82750,5
38877,82751,5
38887,82762,5
38877,82759,5
38876,82745,4
38879,82750,5
38879,82753,5
38874,82751,5
38879,82753,4
38878,82753,5
38884,82759,5
38885,82750,5
38881,82762,4
38880,82763,4
38892,82760,5
38879,82773,5
38889,82773,5
38891,82780,4
38887,82778,5
38889,82782,5
38897,82778,5
38895,82782,5
38890,82786,4
38881,82783,5
38867,82777,5
38883,82778,5
38884,82768,5
38874,82767,4
38860,82756,6
38879,82749,4
38860,82745,5
38862,82728,5
38824,82716,4
38844,82705,5
38839,82686,5
38830,82660,5
38812,82645,4
38801,82629,4
38794,82619,5
38784,82602,5
38811,82604,5
38796,82615,4
38797,82635,5
38807,82641,5
38840,82647,5
38821,82667,5
38828,82684,4
38840,82701,5
38867,82714,5
38848,82735,5
38852,82739,5
38856,82756,4
38868,82756,5
38865,82765,5
38885,82781,5
38872,82771,5
38881,82752,4
38870,82764,5
38859,82755,5
38857,82758,5
38853,82729,4
38846,82754,4
38860,82750,5
38863,82748,5
38862,82720,5
38870,82744,4
38856,82758,5
38859,82762,5
38876,82782,5
38875,82794,5
38880,82797,4
38888,82800,5
38895,82849,5
38892,82825,5
38912,82845,5
38918,82864,4
38918,82908,5
38936,82882,5
38942,82901,5
38931,82911,5
38939,82939,4
38950,82942,5
38953,82949,5
38960,82958,5
38975,82982,4
38979,82994,4
38974,83004,5
39002,83024,5
38998,83034,5
39009,83043,4
39017,83052,5
39008,83061,5
39026,83076,5
39019,83075,5
39026,83087,4
39031,83092,5
39024,83086,4
39023,83084,5
39027,83082,5
39024,83070,6
39025,83079,3
39025,83083,5
39013,83060,5
39018,83063,5
39022,83055,4
39007,83050,5
39000,83036,5
38999,83047,5
39000,83034,4
38994,83032,5
38998,83026,5
39000,83028,5
38997,83015,5
38989,83026,4
38989,83019,5
38992,83019,5
38998,83029,5
38997,83022,5
38992,83033,4
38992,83036,5
39002,83032,6
39010,83039,4
39001,83049,5
39006,83048,4
39020,83059,7
39010,83049,3
39006,83055,5
39018,83049,5
39003,83054,4
39008,83048,5
39009,83047,5
39015,83040,5
38999,83039,4
38998,83033,5
38996,83040,5
38999,83022,5
38997,83024,5
38990,83018,4
38981,83005,5
38988,83011,5
38989,83009,5
38976,82991,5
38974,82998,4
38966,82962,5
38961,82948,5
38951,82936,6
38941,82915,4
38926,82880,4
38911,82861,5
38900,82832,5
38887,82811,5
38874,82790,5
38864,82766,4
38851,82761,5
38853,82746,5
38843,82740,5
38846,82728,4
38844,82734,5
38855,82728,5
38845,82731,5
38851,82736,5
38843,82731,4
38848,82735,5
38845,82737,5
38845,82736,5
38841,82725,5
38846,82729,5
38847,82726,4
38842,82725,5
38819,82698,5
38824,82680,6
38807,82665,3
38806,82656,5
38784,82640,5
38797,82642,5
38804,82643,4
38799,82633,4
38762,82631,5
38790,82626,5
38795,82627,5
38796,82633,4
38786,82641,5
38800,82644,5
38810,82649,5
38815,82661,5
38842,82674,4
38833,82691,5
38835,82699,5
38834,82705,5
38877,82723,5
38846,82728,4
38853,82747,6
38860,82757,4
38894,82761,5
38873,82765,5
38875,82781,4
38874,82777,5
38891,82784,5
38895,82794,5
38881,82800,4
38893,82807,4
38890,82803,5
38895,82806,5
38899,82816,5
38893,82816,4
38901,82800,5
38906,82835,5
38898,82831,5
38901,82825,5
38898,82786,4
38900,82821,5
38901,82811,5
38898,82813,5
38903,82800,5
38894,82808,4
38887,82799,5
38885,82800,6
38882,82817,4
38871,82798,5
38869,82788,4
38877,82785,5
38877,82814,5
38870,82776,5
38868,82783,4
38869,82778,4
38867,82807,5
38864,82776,5
38866,82789,5
38869,82790,4
38876,82808,5
38881,82805,5
38882,82803,5
38876,82806,5
38891,82815,4
38888,82826,5
38888,82822,5
38886,82834,5
38894,82831,5
38891,82835,4
38892,82836,5
38892,82844,5
38896,82844,6
38902,82858,4
38900,82848,4
38904,82847,5
38901,82850,5
38910,82849,5
38893,82850,4
38899,82841,4
38898,82843,5
38900,82837,5
38892,82848,5
38897,82838,4
38885,82833,5
38893,82829,5
38897,82834,5
38885,82830,5
38898,82828,4
38879,82824,5
38881,82819,5
38876,82813,5
38878,82811,5
38883,82812,5
38883,82803,4
38872,82805,5
38871,82789,5
38867,82785,6
38857,82766,3
38853,82756,5
38845,82733,5
38836,82717,5
38820,82704,4
38823,82693,5
38821,82688,5
38810,82680,5
38811,82681,5
38813,82688,4
38822,82695,5
38824,82694,5
38818,82690,5
38819,82703,5
38823,82706,4
38828,82710,5
38824,82722,5
38836,82722,5
38844,82731,5
38841,82721,4
38842,82720,6
38838,82723,4
38833,82704,5
38826,82697,5
38819,82689,4
38809,82666,5
38807,82666,5
38791,82655,5
38802,82658,4
38815,82669,5
38803,82666,5
38804,82667,5
38813,82675,5
38816,82678,4
38819,82698,5
38826,82703,5
38838,82725,5
38844,82750,5
38855,82756,4
38869,82780,5
38876,82791,5
38894,82816,5
38896,82819,5
38897,82831,4
38920,82854,5
38912,82872,6
38925,82884,4
38923,82898,4
38939,82903,4
38948,82922,5
38954,82933,5
38939,82941,5
38966,82950,4
38962,82962,5
38960,82959,5
38936,82968,5
38978,82981,5
38981,82977,4
38975,82995,5
38955,82992,5
38989,82997,5
38981,82993,5
38991,83000,4
39002,82997,5
38979,82999,5
38985,82994,5
38977,82986,5
39008,82979,4
38973,82983,5
38969,82964,5
38966,82965,5
38989,82960,4
38958,82948,5
38957,82957,5
38958,82948,5
38962,82953,5
38942,82933,4
38942,82933,5
38944,82913,5
38941,82912,5
38943,82926,5
38942,82938,4
38951,82954,5
38962,82943,5
38969,82969,5
38972,82977,5
38981,82993,4
38987,82970,5
38992,83009,5
38982,82997,5
38978,82999,4
38982,82990,5
38995,83014,4
38996,83024,5
38989,83018,5
39007,83055,4
39002,83041,5
39007,83047,5
39006,83047,5
39000,83083,5
38995,83032,4
38995,83032,5
38992,83034,5
38992,83063,5
38989,83038,5
39001,83035,4
38998,83031,5
38992,83051,5
38998,83046,5
39004,83063,5
39008,83067,4
39006,83063,5
39011,83067,5
39015,83083,5
39021,83072,4
39019,83076,4
39014,83076,6
39011,83073,4
39006,83078,5
39000,83054,4
38993,83026,5
38981,83011,5
38975,82994,5
38964,82961,5
38943,82946,4
38946,82936,5
38939,82944,5
38942,82925,5
38934,82921,5
38934,82919,4
38942,82925,5
38943,82920,5
38936,82938,5
38947,82937,5
38955,82949,4
38961,82966,5
38967,82980,5
38971,82994,5
38983,83022,4
38991,83030,5
39016,83045,5
39010,83062,5
39011,83065,5
39022,83080,4
39031,83104,5
39031,83101,5
39043,83114,7
39042,83124,3
39046,83118,4
39040,83116,5
39042,83120,5
39043,83120,5
39050,83126,5
39055,83123,4
39045,83120,5
39046,83132,5
39044,83114,5
39044,83113,4
39042,83106,4
39038,83108,5
39035,83097,5
39033,83094,5
39027,83087,5
39020,83063,4
39008,83054,5
38999,83044,5
38996,83043,5
38986,83032,4
38996,83020,5
38989,83025,5
38992,83029,5
38991,83021,5
38981,83000,4
38984,83001,5
38985,82991,5
38972,82991,5
38980,82993,5
38983,83001,4
38984,83006,5
38981,82998,5
38974,82982,5
38989,83003,4
38992,83025,5
38994,83035,5
39004,83052,5
39016,83055,5
39007,83072,4
39013,83051,6
39002,83051,4
39013,83060,5
39014,83072,5
39014,83071,4
39001,83056,5
38999,83031,5
38987,83025,5
38987,83025,5
38971,83043,4
38998,83065,5
38998,83058,5
38994,83039,5
38963,83042,5
38999,83034,4
38999,83050,5
39008,83077,5
39022,83082,5
39017,83101,4
39027,83103,5
39029,83095,5
39045,83095,6
39047,83134,4
39049,83151,4
39049,83145,5
39082,83130,5
39044,83122,5
39028,83098,5
39013,83059,4
39025,83067,5
39010,83066,5
39012,83059,5
39003,83049,5
39008,83046,4
39005,83043,5
38994,83054,5
39014,83071,5
39006,83052,4
39008,83050,4
39011,83044,5
39004,83059,5
39017,83049,5
39028,83104,5
39040,83101,4
39046,83117,5
39039,83084,5
39043,83119,6
39050,83138,3
39065,83157,5
39065,83171,5
39074,83183,5
39083,83198,5
39075,83198,4
39076,83219,5
39070,83188,5
39086,83203,5
39090,83206,5
39087,83238,4
39081,83196,5
39076,83186,5
39075,83176,5
39071,83198,4
39068,83171,5
39066,83168,5
39059,83156,5
39056,83157,5
39059,83148,4
39041,83132,6
39037,83117,4
39036,83112,5
39035,83094,5
39026,83094,6
39028,83086,3
39024,83087,5
39023,83092,5
39028,83097,5
39027,83110,4
39014,83080,5
39015,83079,5
39013,83075,5
39024,83081,4
39023,83091,4
39032,83083,5
39027,83110,5
39027,83109,5
39029,83108,4
39035,83107,5
39037,83093,5
39041,83101,5
39028,83091,5
39020,83088,4
39017,83078,5
39012,83060,6
39014,83046,4
39001,83039,5
39003,83029,4
38996,83024,5
38989,83006,5
38977,83008,5
38982,83008,5
38993,83000,4
38987,83004,5
38987,83011,5
38988,83017,5
38989,83014,4
39001,83028,5
39001,83043,5
39000,83037,5
39010,83034,5
39002,83040,4
38998,83043,5
39000,83035,5
38989,83019,5
38984,83003,5
38983,82988,4
38966,82957,5
38963,82952,5
38967,82950,6
38955,82942,4
38954,82939,4
38960,82934,5
38954,82927,5
38942,82914,5
38940,82903,5
38952,82913,4
38945,82902,5
38947,82914,5
38941,82903,5
38947,82906,4
38954,82914,5
38940,82904,5
38952,82902,5
38949,82903,5
38944,82894,4
38953,82909,5
38947,82910,5
38950,82915,5
38954,82923,5
38954,82903,5
38952,82906,4
38952,82908,5
38968,82913,5
38959,82918,6
38957,82925,3
38961,82922,5
38960,82913,5
38948,82921,5
38956,82914,5
38951,82923,4
38945,82911,5
38950,82914,5
38944,82895,5
38940,82885,4
38942,82880,5
38910,82880,5
38935,82861,5
38924,82850,5
38914,82839,4
38877,82826,5
38899,82805,5
38896,82803,5
38880,82790,5
38867,82779,4
38883,82769,6
38872,82762,4
38867,82758,5
38881,82746,5
38870,82735,4
38862,82733,5
38860,82733,5
38895,82726,5
38862,82713,5
38853,82706,4
38846,82706,5
38881,82704,5
38847,82694,5
38839,82699,4
38841,82693,5
38859,82685,5
38852,82692,5
38836,82694,5
38850,82701,4
38851,82685,5
38845,82689,5
38845,82702,5
38856,82704,5
38858,82683,4
38846,82702,5
38849,82695,6
38838,82704,4
38839,82657,5
38831,82668,4
38817,82663,5
38813,82630,5
38802,82576,5
38783,82579,5
38774,82558,4
38759,82525,5
38747,82526,5
38743,82492,5
38733,82496,4
38728,82478,5
38734,82502,5
38719,82470,5
38736,82473,5
38736,82483,4
38743,82522,5
38753,82506,5
38750,82508,5
38761,82534,5
38765,82544,4
38765,82548,5
38773,82546,5
38773,82546,6
38767,82535,4
38762,82521,4
38762,82526,5
38740,82498,5
38745,82489,5
38738,82492,5
38743,82497,4
38744,82494,5
38734,82503,5
38749,82497,5
38733,82500,4
38744,82507,5
38753,82512,5
38754,82518,5
38762,82523,5
38772,82540,4
38777,82540,5
38780,82555,5
38783,82568,5
38786,82573,5
38797,82584,5
38795,82595,4
38801,82602,5
38804,82618,5
38815,82619,5
38817,82623,4
38809,82628,5
38826,82646,5
38821,82648,5
38823,82658,4
38829,82647,4
38831,82655,5
38834,82656,5
38836,82676,5
38832,82659,4
38847,82655,5
38836,82669,5
38826,82669,5
38837,82681,5
38840,82677,4
38838,82664,5
38831,82666,5
38831,82663,5
38829,82659,5
38821,82651,4
38817,82643,6
38813,82643,4
38812,82617,5
38809,82606,5
38804,82608,4
38798,82603,5
38792,82599,5
38792,82583,5
38799,82592,4
38782,82577,5
38782,82580,5
38779,82574,5
38770,82558,5
38772,82557,4
38779,82561,5
38772,82561,5
38779,82560,5
38776,82564,5
38780,82570,4
38777,82561,5
38778,82566,5
38780,82581,5
38789,82592,5
38795,82587,4
38791,82587,5
38787,82589,6
38793,82593,4
38798,82600,5
38795,82602,4
38798,82602,5
38795,82594,5
38797,82595,5
38793,82599,4
38793,82594,5
38789,82594,5
38796,82589,5
38782,82583,5
38791,82582,4
38794,82583,5
38787,82585,5
38768,82579,5
38791,82579,5
38783,82576,4
38782,82568,5
38741,82566,5
38770,82547,5
38772,82541,5
38766,82550,4
38728,82535,5
38750,82522,5
38738,82488,5
38730,82467,4
38724,82435,4
38695,82402,5
38672,82376,5
38659,82345,5
38685,82322,4
38649,82319,5
38645,82317,5
38644,82320,5
38671,82330,5
38648,82336,4
38659,82336,5
38654,82338,5
38678,82354,5
38678,82373,5
38674,82383,4
38689,82397,5
38699,82412,5
38699,82424,5
38703,82426,5
38703,82439,5
38712,82427,4
38707,82429,5
38691,82422,5
38694,82413,4
38690,82369,5
38680,82370,5
38674,82372,5
38672,82374,5
38672,82357,4
38667,82369,5
38660,82366,5
38668,82366,5
38672,82383,5
38664,82361,4
38680,82375,5
38683,82383,5
38676,82436,5
38694,82408,5
38699,82413,4
38709,82423,5
38702,82469,5
38715,82451,5
38722,82465,5
38733,82468,4
38737,82495,6
38741,82507,4
38747,82522,5
38761,82533,4
38772,82559,5
38781,82577,5
38785,82592,5
38794,82598,5
38799,82610,4
38810,82615,5
38805,82624,5
38805,82629,5
38812,82625,5
38814,82629,4
38808,82629,5
38807,82638,5
38812,82639,5
38800,82621,5
38806,82624,4
38799,82609,5
38790,82612,5
38793,82605,10
38784,82598,4
38784,82586,5
38778,82574,5
38781,82580,5
38779,82566,4
38761,82571,5
38766,82561,5
38763,82552,5
38770,82549,5
38757,82550,4
38763,82541,5
38761,82528,5
38752,82536,5
38757,82533,5
38755,82531,4
38748,82538,5
38754,82543,5
38756,82550,5
38767,82546,5
38767,82541,5
38767,82555,4
38761,82556,5
38763,82552,5
38776,82570,6
38773,82569,3
38771,82566,5
38775,82570,5
38782,82578,5
38782,82574,4
38781,82583,5
38775,82577,5
38777,82585,5
38786,82589,5
38792,82587,4
38790,82589,5
38783,82583,5
38783,82578,5
38786,82573,5
38781,82574,4
38785,82583,5
38782,82577,5
38781,82575,5
38772,82572,4
38771,82566,4
38771,82559,6
38758,82560,4
38766,82556,5
38763,82549,4
38766,82545,7
38753,82541,3
38755,82538,5
38747,82523,5
38745,82519,4
38741,82505,5
38733,82488,5
38716,82467,5
38711,82452,5
38698,82434,4
38689,82419,5
38684,82404,5
38674,82384,5
38674,82395,5
38674,82384,4
38667,82384,5
38677,82396,5
38678,82394,5
38674,82398,4
38654,82405,5
38688,82400,5
38681,82407,6
38689,82413,4
38663,82427,4
38698,82425,5
38693,82441,5
38691,82433,5
38674,82425,5
38687,82422,4
38688,82415,5
38673,82399,5
38688,82387,5
38669,82371,5
38664,82378,4
38655,82370,5
38697,82373,5
38673,82379,5
38674,82377,5
38671,82388,4
38709,82388,5
38685,82402,5
38698,82413,5
38695,82423,5
38705,82439,4
38704,82452,5
38713,82465,5
38729,82475,6
38727,82477,3
38726,82498,5
38743,82504,5
38739,82516,5
38757,82510,5
38758,82546,4
38766,82551,5
38776,82569,5
38771,82557,5
38777,82590,5
38793,82608,4
38789,82620,5
38794,82624,5
38809,82642,5
38813,82647,4
38818,82649,4
38823,82675,5
38817,82660,5
38809,82645,5
38811,82646,4
38812,82685,6
38812,82640,4
38803,82623,5
38794,82621,5
38799,82636,6
38790,82606,3
38778,82604,5
38791,82598,5
38784,82594,5
38769,82583,4
38779,82574,5
38776,82573,5
38765,82577,5
38772,82572,5
38766,82579,4
38777,82583,5
38773,82580,5
38774,82588,5
38772,82605,4
38789,82606,5
38792,82610,5
38789,82627,5
38794,82639,5
38801,82646,4
38803,82661,5
38810,82678,6
38826,82677,4
38819,82690,5
38829,82704,4
38829,82710,5
38842,82716,5
38840,82714,5
38842,82731,5
38847,82725,4
38832,82730,5
38837,82724,5
38840,82730,5
38833,82722,5
38832,82714,4
38835,82714,5
38827,82701,5
38829,82702,5
38825,82693,4
38818,82687,5
38821,82683,5
38817,82667,5
38803,82659,5
38805,82654,4
38801,82659,5
38796,82649,5
38791,82636,6
38793,82623,4
38789,82620,4
38786,82619,5
38784,82613,5
38776,82604,5
38772,82587,5
38765,82580,4
38757,82583,5
38753,82563,5
38741,82550,5
38731,82522,5
38724,82505,4
38716,82489,5
38704,82462,5
38692,82437,5
38689,82421,4
38675,82406,5
38677,82416,5
38678,82414,5
38674,82417,5
38684,82413,5
38678,82409,4
38680,82422,5
38681,82414,5
38680,82423,6
38686,82415,3
38673,82418,5
38677,82416,5
38675,82419,5
38683,82416,5
38669,82401,4
38669,82403,5
38664,82393,5
38657,82380,5
38654,82364,4
38649,82354,4
38637,82338,5
38626,82320,5
38631,82318,5
38619,82306,4
38623,82299,5
38622,82293,5
38621,82301,5
38621,82303,5
38620,82303,4
38625,82321,6
38627,82339,4
38644,82354,5
38658,82364,5
38670,82374,4
38640,82397,5
38675,82417,5
38696,82425,5
38693,82453,5
38686,82459,4
38718,82488,5
38726,82501,5
38729,82518,5
38745,82538,4
38758,82548,4
38754,82564,5
38756,82578,5
38803,82593,5
38776,82598,4
38782,82617,5
38784,82614,5
38821,82631,5
38799,82634,5
38794,82631,4
38799,82643,5
38811,82637,6
38806,82652,4
38808,82648,5
38799,82638,4
38802,82638,5
38798,82637,5
38790,82630,5
38785,82613,5
38781,82585,4
38775,82603,5
38776,82600,5
38777,82596,5
38773,82567,4
38777,82602,4
38773,82594,5
38770,82599,5
38777,82572,5
38779,82602,4
38781,82603,5
38781,82603,5
38788,82627,5
38782,82628,5
38795,82625,4
38796,82638,5
38796,82688,5
38811,82651,6
38810,82659,4
38816,82669,4
38819,82706,5
38815,82676,5
38821,82685,5
38826,82685,5
38823,82702,4
38830,82694,5
38822,82701,5
38825,82691,5
38830,82701,4
38822,82700,5
38823,82698,5
38835,82703,5
38828,82687,5
38825,82696,4
38827,82687,5
38828,82689,5
38823,82674,5
38820,82677,5
38809,82669,5
38813,82658,4
38804,82637,5
38788,82634,5
38778,82620,5
38781,82599,4
38768,82589,5
38760,82572,5
38753,82558,5
38752,82564,5
38750,82552,4
38740,82550,5
38751,82543,5
38742,82539,5
38741,82546,4
38741,82543,5
38750,82553,5
38748,82548,5
38755,82552,5
38758,82558,4
38756,82562,5
38760,82552,5
38749,82549,5
38748,82542,5
38736,82534,4
38726,82512,6
38725,82490,4
38711,82471,5
38701,82453,5
38699,82446,4
38694,82436,5
38686,82440,5
38691,82436,5
38692,82435,5
38695,82445,4
38708,82448,5
38708,82471,5
38722,82476,5
38728,82499,4
38731,82511,5
38738,82527,5
38750,82542,5
38756,82566,5
38765,82571,4
38768,82584,5
38774,82609,5
38782,82623,5
38787,82634,5
38794,82645,4
38809,82657,5
38817,82675,6
38827,82669,4
38825,82680,5
38824,82693,4
38826,82695,5
38829,82698,5
38833,82701,5
38841,82702,4
38836,82693,4
38836,82705,5
38833,82697,5
38832,82692,5
38833,82686,4
38823,82682,5
38825,82680,5
38821,82682,5
38820,82666,5
38816,82656,4
38800,82638,5
38796,82625,5
38784,82619,5
38795,82608,5
38781,82607,4
38781,82596,5
38779,82599,5
38768,82594,5
38781,82594,5
38781,82604,4
38780,82621,5
38754,82611,5
38786,82620,5
38786,82622,4
38797,82620,4
38760,82634,5
38805,82632,5
38799,82650,5
38804,82655,4
38809,82661,5
38823,82671,5
38831,82694,5
38827,82692,5
38862,82691,4
38834,82702,5
38840,82698,4
38837,82709,5
38872,82708,5
38840,82699,6
38832,82702,3
38821,82690,5
38836,82669,5
38815,82664,5
38811,82646,4
38794,82646,5
38802,82630,5
38801,82622,5
38785,82627,4
38793,82628,4
38793,82606,5
38794,82631,5
38790,82626,5
38795,82629,4
38807,82610,5
38799,82641,5
38808,82644,5
38795,82652,5
38791,82618,4
38793,82651,5
38796,82644,6
38791,82629,4
38781,82604,5
38766,82605,4
38766,82574,5
38751,82554,5
38747,82569,5
38737,82536,5
38741,82531,4
38739,82526,5
38734,82575,5
38737,82540,5
38751,82543,4
38755,82554,5
38750,82582,5
38761,82565,5
38776,82577,5
38777,82583,9
38788,82615,0
38786,82614,5
38800,82627,5
38804,82607,5
38802,82653,4
38815,82662,5
38824,82681,5
38836,82692,6
38835,82693,4
38839,82697,4
38844,82725,5
38852,82715,5
38850,82727,5
38854,82726,5
38859,82734,4
38851,82715,5
38855,82724,5
38847,82722,5
38859,82731,4
38848,82727,5
38845,82711,5
38843,82705,5
38828,82703,5
38831,82697,4
38839,82687,5
38841,82687,5
38830,82675,5
38822,82664,5
38815,82659,5
38805,82643,4
38802,82636,5
38792,82634,5
38798,82640,6
38801,82634,3
38791,82628,5
38801,82635,5
38803,82632,5
38810,82635,5
38808,82629,4
38806,82639,5
38799,82633,5
38808,82649,5
38820,82640,4
38815,82650,5
38821,82650,5
38832,82671,5
38828,82664,5
38838,82672,4
38826,82681,5
38823,82680,5
38834,82678,5
38826,82673,5
38824,82671,4
38824,82667,6
38820,82659,4
38813,82647,5
38813,82644,5
38810,82635,4
38801,82625,5
38801,82614,5
38790,82612,5
38795,82611,4
38787,82605,4
38787,82607,5
38790,82608,5
38791,82616,5
38799,82622,4
38807,82629,5
38802,82635,5
38808,82631,5
38806,82636,5
38803,82640,4
38810,82629,5
38800,82618,5
38795,82602,5
38784,82584,5
38785,82575,4
38759,82556,5
38765,82546,6
38761,82547,4
38764,82546,5
38763,82546,4
38759,82543,5
38757,82534,5
38755,82536,5
38747,82545,4
38768,82543,4
38764,82556,5
38768,82556,5
38751,82562,5
38780,82568,4
38775,82578,5
38787,82589,5
38753,82599,5
38793,82601,5
38795,82621,4
38808,82624,5
38802,82645,5
38820,82643,5
38822,82650,5
38821,82659,4
38846,82666,5
38829,82676,5
38837,82668,6
38838,82668,4
38875,82677,4
38832,82666,5
38831,82665,5
38834,82673,5
38857,82668,4
38832,82667,4
38830,82653,5
38819,82656,5
38829,82639,5
38815,82635,4
38816,82632,5
38809,82626,5
38803,82601,5
38796,82604,5
38794,82589,4
38785,82579,5
38774,82542,5
38781,82565,5
38783,82562,5
38772,82551,5
38773,82511,4
38769,82549,5
38776,82542,5
38760,82533,5
38763,82525,4
38760,82535,5
38768,82539,5
38771,82548,5
38767,82568,4
38767,82540,4
38772,82548,5
38770,82549,5
38771,82591,5
38763,82547,4
38768,82547,5
38758,82538,5
38765,82559,5
38758,82521,5
38753,82521,4
38749,82511,5
38740,82513,5
38737,82486,5
38734,82460,5
38721,82459,4
38707,82434,6
38711,82438,4
38702,82441,5
38707,82441,5
38711,82432,4
38700,82431,5
38714,82448,5
38713,82448,5
38711,82462,4
38718,82464,4
38722,82474,5
38725,82479,5
38728,82472,5
38724,82457,4
38719,82446,5
38708,82450,5
38710,82436,5
38693,82409,5
38695,82409,4
38696,82412,5
38694,82399,5
38692,82404,5
38690,82400,5
38693,82403,4
38683,82402,5
38688,82411,6
38693,82416,4
38696,82409,5
38697,82426,4
38698,82429,5
38710,82442,5
38707,82434,5
38709,82447,4
38722,82448,5
38717,82464,5
38719,82461,5
38715,82471,5
38726,82464,4
38717,82465,5
38723,82464,5
38722,82463,5
38726,82470,5
38724,82461,4
38721,82474,5
38727,82474,5
38728,82480,5
38728,82482,5
38735,82483,4
38737,82489,5
38740,82495,5
38735,82497,5
38739,82493,5
38737,82509,4
38741,82502,5
38740,82495,5
38739,82497,5
38735,82482,4
38729,82493,5
38727,82475,5
38720,82466,5
38719,82469,5
38722,82460,4
38720,82449,5
38718,82446,5
38713,82434,5
38701,82431,5
38705,82436,4
38706,82425,5
38698,82423,5
38698,82418,5
38686,82417,5
38695,82411,5
38683,82413,4
38683,82418,5
38697,82405,5
38687,82419,5
38695,82423,4
38690,82426,5
38695,82430,5
38705,82435,5
38712,82435,4
38710,82439,5
38706,82457,5
38712,82454,5
38717,82448,5
38692,82459,4
38728,82456,5
38724,82464,5
38717,82469,5
38690,82461,5
38711,82463,4
38720,82449,5
38718,82456,5
38692,82455,5
38719,82452,5
38723,82449,4
38709,82441,6
38726,82446,4
38706,82444,5
38708,82445,4
38710,82443,4
38731,82422,5
38696,82414,5
38690,82401,5
38677,82380,4
38689,82347,5
38635,82314,5
38624,82281,5
38613,82258,5
38626,82233,4
38598,82221,5
38592,82213,5
38591,82220,5
38604,82224,5
38602,82229,4
38606,82242,5
38597,82237,5
38610,82232,5
38619,82266,5
38622,82282,4
38627,82300,5
38641,82272,5
38644,82314,5
38648,82322,4
38653,82333,4
38650,82295,5
38658,82320,5
38650,82316,5
38638,82295,4
38635,82305,5
38619,82272,5
38612,82251,5
38617,82259,5
38617,82289,4
38613,82257,5
38611,82255,5
38618,82253,5
38609,82291,5
38613,82258,4
38621,82276,5
38628,82275,5
38623,82298,5
38638,82291,5
38641,82295,4
38649,82306,5
38638,82321,5
38646,82317,5
38652,82330,4
38653,82333,4
38662,82344,5
38670,82355,5
38675,82362,5
38681,82370,4
38679,82379,5
38687,82385,5
38688,82385,5
38685,82388,5
38692,82392,4
38697,82394,5
38694,82404,5
38695,82411,5
38698,82418,5
38702,82417,4
38712,82416,5
38706,82422,5
38706,82413,5
38703,82415,5
38700,82421,5
38700,82411,4
38703,82412,5
38694,82409,5
38693,82411,4
38698,82404,5
38687,82395,5
38692,82384,5
38688,82378,5
38684,82383,4
38686,82376,5
38676,82364,5
38674,82365,5
38673,82361,5
38669,82356,4
38667,82350,5
38666,82350,5
38669,82335,5
38665,82349,5
38662,82349,4
38661,82341,5
38669,82350,6
38661,82356,4
38671,82358,5
38667,82354,4
38664,82343,5
38669,82351,5
38672,82367,5
38670,82362,4
38676,82364,5
38681,82371,5
38681,82375,5
38677,82375,5
38676,82373,4
38670,82367,5
38678,82373,5
38675,82377,5
38675,82377,5
38678,82371,4
38679,82376,5
38676,82367,5
38667,82372,5
38676,82365,5
38669,82355,4
38675,82360,5
38674,82366,5
38672,82356,6
38671,82358,4
38667,82354,4
38675,82360,5
38665,82357,5
38665,82348,5
38667,82351,4
38656,82345,5
38659,82342,5
38662,82348,5
38650,82337,5
38652,82330,4
38660,82327,5
38651,82328,5
38651,82327,5
38651,82329,5
38649,82311,4
38638,82323,5
38657,82325,5
38650,82327,5
38645,82318,5
38615,82318,5
38637,82311,4
38637,82302,5
38629,82301,5
38602,82298,6
38622,82285,3
38620,82264,5
38609,82251,5
38594,82217,5
38586,82206,4
38572,82183,5
38572,82186,5
38603,82207,5
38581,82204,5
38584,82211,4
38592,82207,5
38633,82219,5
38591,82237,5
38605,82239,5
38605,82249,4
38627,82258,5
38616,82261,5
38615,82272,5
38618,82287,5
38632,82286,4
38637,82297,6
38638,82304,4
38638,82303,5
38643,82302,4
38640,82309,4
38634,82298,5
38633,82291,5
38623,82260,5
38623,82275,4
38624,82277,8
38609,82277,2
38626,82239,5
38619,82280,5
38622,82280,4
38627,82290,5
38626,82305,5
38641,82330,5
38648,82346,5
38654,82350,4
38674,82395,5
38680,82399,5
38694,82420,5
38704,82448,5
38715,82505,4
38727,82491,5
38730,82506,6
38746,82538,4
38756,82575,4
38769,82570,4
38778,82592,5
38788,82610,5
38791,82631,5
38799,82643,4
38814,82662,5
38808,82675,5
38816,82679,5
38831,82698,5
38823,82701,4
38831,82714,5
38847,82721,5
38836,82727,5
38845,82728,5
38843,82735,4
38848,82721,5
38845,82713,5
38837,82717,5
38828,82716,5
38828,82702,4
38821,82707,5
38827,82703,5
38812,82684,6
38810,82674,3
38815,82674,4
38806,82660,5
38802,82671,5
38805,82683,5
38819,82667,4
38806,82665,5
38801,82640,5
38798,82634,5
38786,82631,5
38791,82644,4
38798,82646,5
38785,82650,5
38788,82640,5
38802,82661,5
38802,82660,4
38805,82658,5
38801,82661,5
38808,82679,5
38812,82691,5
38812,82700,5
38826,82711,4
38838,82713,5
38841,82722,5
38838,82717,4
38827,82711,5
38826,82708,5
38834,82713,5
38825,82702,5
38825,82709,4
38835,82730,5
38838,82737,5
38838,82733,5
38834,82719,5
38832,82713,4
38815,82720,5
38830,82729,5
38823,82708,5
38831,82727,5
38827,82733,4
38835,82724,5
38831,82715,5
38824,82707,5
38809,82705,5
38810,82690,4
38806,82682,6
38810,82676,4
38812,82701,5
38815,82690,4
38814,82713,5
38818,82716,5
38824,82708,5
38817,82687,5
38804,82681,4
38793,82668,5
38801,82660,5
38792,82658,5
38805,82677,5
38794,82684,4
38805,82675,5
38799,82683,5
38804,82694,5
38813,82722,5
38830,82739,4
38830,82755,5
38838,82762,5
38856,82773,5
38857,82785,4
38850,82783,4
38822,82785,5
38849,82792,6
38860,82811,4
38873,82827,4
38849,82851,5
38883,82858,5
38889,82847,5
38886,82839,5
38852,82817,4
38858,82817,5
38852,82805,5
38839,82777,5
38850,82780,5
38842,82788,4
38849,82797,5
38854,82801,5
38886,82800,5
38852,82805,5
38856,82803,4
38853,82816,5
38898,82828,5
38872,82857,5
38895,82883,5
38891,82896,4
38918,82909,5
38909,82906,5
38910,82915,5
38920,82921,4
38916,82940,5
38931,82971,5
38943,82992,5
38959,83019,5
38965,83011,4
38965,83034,5
38966,83049,5
38988,83064,5
38987,83049,5
39003,83104,4
39005,83113,5
39012,83116,5
39011,83099,5
39010,83108,5
39013,83118,4
39016,83118,5
39018,83136,5
39007,83108,5
38999,83097,4
39005,83106,5
39002,83140,4
39005,83104,5
38997,83106,5
38996,83091,4
38994,83115,5
38996,83094,5
38983,83073,5
38992,83071,5
38987,83072,4
38987,83062,5
38979,83075,5
38990,83063,5
38983,83058,5
38968,83035,4
38964,83034,5
38979,83031,5
38976,83044,5
38984,83062,5
38979,83053,4
38971,83049,5
38978,83053,5
38974,83068,5
38999,83084,4
38982,83075,5
38986,83067,6
38974,83063,4
38989,83074,5
38999,83100,4
39010,83110,5
39009,83095,5
38995,83098,5
39003,83099,5
39002,83093,4
39004,83097,5
39001,83102,5
39003,83093,5
39004,83100,5
39001,83097,4
39002,83104,5
39008,83107,5
38999,83103,5
38995,83073,5
38982,83052,4
38973,83052,5
38968,83028,5
38966,83034,5
38970,83030,4
38966,83033,5
38967,83033,5
38969,83031,5
38970,83032,5
38957,83021,4
38963,83008,5
38958,83006,5
38950,82996,5
38947,82993,5
38950,82989,4
38946,82975,5
38943,82956,5
38933,82953,5
38926,82928,5
38912,82913,4
38905,82884,5
38893,82877,5
38885,82851,5
38874,82836,5
38871,82827,4
38871,82820,5
38863,82811,5
38861,82804,5
38861,82808,5
38875,82807,4
38866,82805,5
38872,82811,5
38876,82828,5
38877,82824,4
38874,82845,5
38889,82847,5
38888,82851,5
38895,82866,5
38905,82881,4
38915,82886,5
38910,82896,5
38917,82895,5
38912,82903,5
38916,82905,4
38926,82917,5
38927,82929,5
38930,82927,5
38936,82928,5
38939,82931,4
38940,82942,5
38950,82936,5
38935,82932,5
38942,82934,4
38930,82929,6
38934,82926,4
38913,82922,5
38932,82936,5
38936,82915,4
38927,82916,5
38899,82903,5
38921,82898,5
38914,82882,5
38905,82862,4
38866,82855,5
38896,82846,5
38889,82838,5
38893,82836,5
38888,82826,4
38890,82819,5
38878,82821,5
38884,82813,5
38907,82811,4
38879,82813,4
38881,82821,5
38878,82813,5
38917,82816,4
38884,82821,4
38885,82821,5
38888,82821,5
38904,82834,5
38888,82835,5
38897,82847,4
38901,82844,5
38897,82859,5
38902,82863,5
38908,82876,5
38914,82877,4
38913,82862,5
38916,82881,5
38917,82886,5
38917,82875,5
38910,82839,4
38902,82866,5
38902,82851,5
38885,82834,5
38887,82782,5
38881,82807,4
38861,82790,5
38852,82777,5
38848,82775,6
38854,82757,3
38844,82754,5
38839,82744,5
38843,82779,5
38842,82758,5
38839,82752,4
38845,82755,5
38847,82790,5
38841,82753,5
38850,82754,5
38845,82766,4
38846,82770,5
38849,82758,5
38842,82740,5
38835,82728,5
38832,82718,4
38820,82697,5
38811,82686,5
38799,82661,5
38793,82652,4
38790,82640,5
38786,82649,4
38785,82643,5
38786,82649,5
38789,82646,6
38800,82660,3
38807,82667,5
38809,82672,5
38810,82681,5
38808,82682,4
38809,82692,5
38833,82711,5
38833,82722,5
38843,82734,5
38851,82743,4
38856,82763,5
38857,82764,5
38868,82774,5
38872,82790,5
38881,82797,4
38884,82805,5
38893,82810,5
38886,82810,5
38888,82814,4
38878,82815,5
38884,82821,6
38899,82821,4
38897,82827,5
38895,82818,4
38887,82817,5
38889,82812,5
38888,82802,5
38879,82792,5
38879,82802,4
38877,82792,5
38876,82779,5
38875,82775,5
38867,82770,5
38864,82767,4
38865,82757,5
38858,82748,5
38844,82741,5
38847,82730,5
38846,82725,4
38837,82732,5
38850,82728,5
38846,82729,5
38842,82727,4
38838,82728,5
38843,82725,5
38848,82725,6
38845,82734,4
38846,82735,4
38852,82735,5
38857,82748,5
38853,82749,5
38864,82764,5
38870,82763,4
38871,82772,5
38874,82774,5
38877,82774,5
38867,82774,5
38881,82776,4
38869,82783,5
38872,82773,5
38869,82768,5
38858,82761,5
38861,82738,4
38849,82736,5
38846,82722,5
38836,82697,5
38824,82693,5
38820,82680,4
38809,82668,5
38814,82675,5
38814,82669,6
38811,82674,3
38808,82673,5
38810,82666,5
38807,82685,5
38806,82697,5
38832,82697,4
38835,82719,5
38834,82724,5
38817,82728,5
38846,82737,5
38850,82736,4
38844,82713,5
38798,82704,5
38823,82683,5
38816,82665,4
38805,82653,4
38796,82639,5
38799,82647,5
38807,82641,5
38808,82645,4
38860,82690,11
38860,82690,4
38837,82715,5
38837,82724,4
38846,82737,5
38876,82753,5
38863,82764,5
38870,82779,5
38874,82782,4
38883,82796,5
38875,82795,5
38886,82813,5
38894,82815,5
38892,82813,4
38900,82837,5
38903,82839,5
38902,82845,5
38908,82802,4
38906,82835,4
38905,82842,5
38910,82845,5
38910,82819,5
38911,82836,4
38902,82843,5
38910,82853,6
38906,82842,4
38917,82832,5
38903,82838,4
38899,82822,5
38892,82841,5
38896,82819,5
38880,82810,5
38873,82804,4
38884,82832,5
38881,82786,5
38867,82767,5
38858,82758,5
38869,82773,4
38868,82749,5
38856,82744,5
38853,82743,5
38838,82747,4
38852,82732,4
38849,82725,5
38845,82720,5
38840,82712,5
38843,82710,4
38830,82722,5
38834,82715,5
38844,82713,6
38835,82715,4
38841,82720,4
38840,82725,5
38851,82728,5
38852,82732,5
38849,82717,5
38852,82730,4
38846,82729,5
38849,82712,5
38841,82713,5
38832,82711,5
38833,82698,4
38816,82678,5
38800,82644,5
38795,82620,5
38779,82594,4
38767,82559,5
38739,82523,5
38732,82509,5
38729,82493,5
38717,82482,5
38709,82461,4
38702,82453,5
38702,82461,5
38696,82451,5
38703,82467,4
38712,82494,5
38732,82514,5
38741,82540,5
38748,82555,5
38758,82577,4
38765,82588,5
38764,82592,5
38767,82599,5
38762,82589,5
38763,82575,4
38746,82550,5
38738,82529,5
38710,82500,5
38711,82487,4
38715,82482,5
38706,82474,5
38716,82493,5
38709,82506,5
38722,82506,4
38720,82526,6
38734,82537,4
38744,82550,5
38743,82551,5
38754,82562,4
38755,82588,5
38766,82598,5
38768,82613,5
38773,82612,5
38784,82629,4
38783,82655,5
38790,82673,5
38808,82678,5
38817,82687,4
38824,82715,4
38824,82726,5
38824,82730,5
38840,82744,5
38855,82755,4
38847,82757,5
38845,82749,5
38835,82742,5
38844,82749,5
38844,82748,4
38840,82755,5
38835,82753,6
38844,82757,4
38845,82753,5
38844,82744,4
38839,82741,5
38838,82733,5
38827,82734,5
38836,82720,5
38828,82712,4
38823,82704,5
38794,82699,5
38820,82684,5
38795,82675,4
38798,82677,4
38774,82672,5
38802,82666,5
38804,82675,5
38797,82664,4
38784,82666,5
38795,82663,5
38801,82664,5
38806,82664,5
38824,82673,4
38807,82680,5
38800,82681,5
38809,82693,5
38851,82695,5
38809,82695,4
38815,82714,5
38816,82708,5
38842,82708,5
38821,82703,5
38823,82726,4
38836,82744,5
38854,82745,5
38853,82766,5
38854,82778,4
38854,82792,4
38858,82786,5
38859,82791,5
38857,82806,5
38863,82795,4
38860,82768,5
38864,82804,5
38867,82797,5
38854,82791,5
38858,82759,5
38846,82774,4
38836,82749,5
38827,82735,5
38819,82697,5
38798,82685,4
38788,82663,5
38783,82635,5
38770,82653,5
38757,82606,5
38750,82598,4
38756,82605,5
38749,82632,5
38749,82600,5
38757,82601,4
38761,82607,5
38762,82645,5
38769,82628,5
38785,82641,5
38773,82645,4
38779,82662,5
38782,82649,5
38786,82661,5
38781,82659,5
38782,82649,4
38777,82636,6
38773,82620,4
38764,82599,5
38754,82592,5
38749,82573,4
38737,82556,5
38732,82556,5
38730,82554,5
38733,82556,5
38723,82551,4
38728,82549,5
38728,82542,5
38732,82549,5
38736,82543,4
38735,82556,5
38730,82557,5
38744,82566,5
38744,82564,5
38737,82566,4
38739,82562,5
38749,82577,5
38746,82586,5
38749,82586,5
38760,82587,4
38759,82588,5
38766,82591,5
38761,82599,5
38770,82606,5
38768,82602,4
38764,82612,5
38775,82608,5
38763,82607,5
38776,82601,4
38767,82609,4
38770,82598,5
38777,82610,5
38768,82597,5
38771,82601,4
38764,82600,5
38767,82591,5
38769,82600,5
38758,82600,5
38757,82587,5
38754,82580,4
38750,82581,5
38751,82576,5
38746,82556,6
38738,82551,3
38728,82544,5
38727,82528,5
38722,82523,5
38719,82518,5
38718,82511,4
38713,82511,5
38712,82498,5
38711,82495,5
38701,82482,4
38708,82478,4
38697,82466,5
38702,82474,5
38703,82473,5
38699,82468,4
38688,82466,5
38694,82472,5
38698,82475,5
38694,82474,5
38699,82482,4
38706,82467,6
38701,82471,4
38700,82477,5
38698,82478,5
38703,82480,6
38695,82478,3
38701,82480,5
38703,82478,5
38701,82483,5
38703,82479,4
38710,82482,5
38714,82480,5
38706,82477,5
38699,82469,4
38708,82473,4
38695,82479,5
38703,82479,5
38674,82464,5
38693,82454,4
38691,82466,5
38694,82463,5
38656,82455,5
38680,82452,5
38690,82445,4
38673,82449,5
38660,82442,6
38673,82426,4
38672,82432,5
38666,82438,4
38684,82421,5
38673,82422,5
38667,82422,5
38665,82417,5
38689,82407,4
38665,82398,5
38658,82397,5
38656,82393,5
38674,82388,4
38641,82362,5
38643,82362,5
38634,82337,5
38629,82315,5
38612,82287,4
38590,82277,5
38584,82237,5
38577,82220,5
38566,82216,5
38570,82234,4
38574,82226,5
38576,82213,5
38574,82231,6
38571,82238,4
38576,82247,4
38587,82228,5
38594,82270,5
38589,82276,5
38597,82282,5
38613,82275,4
38611,82298,5
38616,82301,5
38614,82306,5
38610,82323,4
38616,82307,5
38608,82285,5
38605,82267,5
38588,82289,5
38575,82235,4
38573,82229,5
38567,82221,5
38574,82240,5
38572,82223,5
38570,82223,5
38568,82222,4
38573,82230,5
38577,82228,5
38582,82236,6
38586,82253,3
38593,82272,5
38604,82282,5
38607,82295,5
38627,82314,4
38623,82326,4
38628,82331,5
38631,82334,5
38642,82336,5
38644,82354,4
38654,82366,5
38657,82379,5
38663,82393,5
38665,82400,5
38680,82416,4
38682,82429,5
38691,82428,5
38690,82437,5
38693,82448,5
38697,82458,4
38698,82466,6
38700,82466,4
38699,82486,5
38714,82484,5
38701,82483,4
38719,82488,5
38710,82489,5
38719,82482,5
38704,82486,4
38706,82476,4
38707,82474,5
38701,82468,5
38705,82461,5
38695,82453,4
38692,82445,5
38690,82437,5
38686,82433,5
38685,82425,5
38683,82425,4
38683,82429,5
38682,82419,5
38669,82405,5
38674,82407,5
38668,82404,4
38672,82410,5
38674,82408,6
38676,82418,4
38666,82414,5
38676,82435,4
38681,82446,5
38687,82441,5
38681,82438,5
38691,82450,4
38693,82461,4
38699,82470,5
38702,82478,5
38712,82492,5
38707,82504,4
38716,82503,5
38724,82505,5
38719,82516,5
38718,82506,5
38722,82520,4
38723,82512,5
38716,82514,5
38716,82511,5
38716,82513,5
38725,82513,4
38721,82503,5
38710,82509,5
38713,82505,6
38704,82498,4
38714,82498,4
38712,82490,5
38704,82492,5
38703,82489,5
38693,82475,4
38697,82469,4
38692,82464,5
38685,82463,5
38680,82440,5
38671,82434,4
38669,82423,5
38658,82414,9
38654,82397,1
38646,82393,5
38617,82370,4
38636,82381,5
38646,82396,5
38653,82389,5
38613,82396,5
38645,82401,5
38650,82409,4
38662,82415,5
38634,82420,5
38662,82431,5
38662,82424,4
38672,82437,5
38674,82440,5
38678,82442,5
38674,82440,4
38669,82443,5
38705,82434,5
38671,82442,5
38658,82435,5
38661,82413,4
38695,82405,5
38652,82399,5
38643,82400,5
38644,82383,5
38649,82388,4
38642,82392,5
38633,82390,5
38647,82393,5
38644,82399,5
38641,82393,4
38658,82397,6
38651,82417,4
38657,82401,5
38671,82432,5
38669,82440,4
38684,82454,5
38687,82428,5
38693,82473,5
38692,82490,4
38704,82489,5
38708,82482,5
38723,82513,5
38722,82536,5
38733,82554,4
38729,82571,5
38741,82566,5
38737,82572,5
38757,82591,5
38753,82623,4
38758,82600,5
38764,82621,5
38759,82621,5
38765,82664,5
38762,82618,4
38773,82637,5
38774,82634,6
38775,82640,4
38780,82633,4
38777,82637,4
38773,82632,5
38778,82631,5
38768,82621,5
38766,82612,4
38758,82624,5
38772,82602,5
38766,82602,5
38760,82598,5
38759,82610,4
38763,82610,5
38770,82613,5
38758,82612,5
38762,82612,5
38765,82614,4
38768,82637,5
38767,82630,5
38779,82648,5
38773,82653,5
38791,82663,4
38793,82675,5
38792,82686,5
38800,82693,5
38796,82703,4
38810,82699,4
38815,82712,5
38811,82726,5
38813,82741,5
38828,82738,4
38827,82745,5
38822,82740,5
38822,82746,5
38835,82757,5
38834,82770,4
38830,82769,5
38831,82767,5
38833,82759,5
38828,82765,5
38829,82762,4
38833,82757,5
38824,82760,5
38834,82755,5
38819,82745,5
38826,82740,5
38815,82734,4
38813,82720,5
38806,82714,5
38801,82705,4
38806,82701,4
38804,82700,5
38792,82691,5
38786,82677,5
38783,82667,4
38771,82638,5
38769,82635,5
38757,82624,5
38760,82629,5
38754,82611,4
38750,82609,5
38752,82608,5
38754,82608,5
38747,82603,5
38747,82604,4
38752,82618,5
38754,82613,5
38767,82615,5
38750,82622,5
38748,82618,4
38759,82618,6
38757,82624,4
38756,82637,5
38760,82618,4
38764,82632,5
38758,82623,5
38753,82609,5
38746,82598,5
38746,82595,4
38733,82571,5
38722,82574,5
38716,82571,5
38730,82564,5
38727,82564,4
38724,82571,5
38735,82584,5
38731,82569,5
38736,82580,5
38744,82589,4
38734,82605,5
38751,82618,5
38768,82628,5
38762,82639,5
38760,82659,4
38790,82667,5
38797,82690,5
38811,82712,5
38788,82729,4
38817,82743,5
38842,82754,5
38833,82772,5
38852,82790,5
38851,82817,4
38865,82816,5
38870,82832,5
38904,82846,5
38879,82850,5
38877,82856,4
38882,82870,5
38930,82874,5
38895,82887,5
38893,82883,5
38897,82888,4
38924,82885,5
38908,82897,5
38902,82892,5
38898,82889,5
38910,82892,4
38900,82885,5
38901,82880,5
38883,82867,5
38878,82839,4
38882,82837,5
38866,82835,5
38862,82827,5
38858,82804,5
38864,82832,4
38865,82832,5
38867,82838,5
38869,82813,5
38863,82842,5
38867,82844,4
38873,82848,5
38877,82846,5
38873,82847,5
38875,82852,5
38876,82858,4
38876,82887,6
38882,82867,4
38880,82879,5
38892,82879,4
38892,82927,6
38899,82887,3
38904,82897,5
38900,82898,5
38907,82929,4
38908,82907,5
38911,82924,5
38923,82914,5
38916,82940,5
38915,82937,4
38928,82942,5
38926,82942,5
38918,82932,5
38905,82909,5
38901,82891,4
38890,82888,5
38886,82871,5
38876,82841,5
38855,82815,5
38848,82797,4
38834,82788,5
38835,82765,6
38824,82754,4
38820,82751,4
38808,82738,4
38801,82716,5
38804,82706,5
38802,82698,5
38800,82706,4
38799,82696,5
38786,82697,5
38797,82689,5
38793,82696,5
38800,82694,4
38788,82680,5
38783,82675,5
38788,82670,5
38788,82655,5
38759,82633,4
38762,82611,5
38750,82595,5
38730,82565,5
38725,82551,5
38717,82542,4
38726,82544,5
38724,82548,5
38727,82541,6
38725,82550,3
38734,82562,4
38736,82562,5
38745,82580,5
38758,82595,5
38755,82602,4
38769,82615,5
38771,82625,5
38778,82641,5
38785,82653,5
38792,82668,4
38790,82679,5
38794,82701,5
38805,82699,5
38820,82709,5
38825,82717,4
38818,82729,5
38838,82739,5
38836,82734,5
38833,82747,5
38837,82746,5
38837,82747,4
38846,82754,5
38854,82764,5
38852,82753,6
38851,82756,3
38842,82760,5
38843,82748,5
38836,82736,5
38836,82731,4
38837,82725,5
38833,82719,5
38828,82716,5
38826,82702,5
38820,82693,4
38813,82685,5
38807,82668,5
38806,82666,5
38795,82661,5
38793,82663,4
38792,82663,5
38795,82669,5
38799,82666,5
38798,82665,5
38796,82659,4
38808,82668,6
38797,82680,4
38805,82680,5
38810,82691,4
38813,82698,5
38788,82704,5
38824,82725,5
38832,82720,5
38839,82737,4
38815,82755,5
38850,82759,5
38851,82771,5
38848,82770,5
38831,82768,4
38859,82779,5
38856,82773,5
38853,82766,5
38864,82761,5
38829,82748,4
38834,82732,5
38823,82725,5
38861,82709,5
38820,82698,5
38813,82690,4
38803,82679,5
38835,82680,6
38803,82680,4
38803,82676,4
38802,82676,5
38806,82662,5
38801,82678,5
38810,82681,5
38817,82696,4
38809,82678,5
38815,82689,5
38813,82702,5
38818,82699,5
38807,82646,4
38804,82667,5
38794,82663,5
38792,82644,5
38779,82589,5
38783,82622,4
38778,82624,5
38778,82624,5
38777,82605,5
38776,82619,5
38772,82634,4
38782,82633,5
38784,82650,5
38779,82640,6
38790,82642,3
38792,82657,5
38803,82701,5
38808,82680,5
38818,82685,5
38819,82700,4
38823,82732,5
38824,82720,5
38845,82741,5
38847,82751,5
38855,82757,4
38855,82759,5
38856,82765,5
38865,82761,5
38866,82777,5
38863,82775,4
38870,82776,5
38870,82779,5
38868,82785,5
38870,82785,4
38871,82780,5
38865,82777,4
38865,82778,5
38860,82770,5
38856,82766,4
38860,82749,5
38855,82766,5
38852,82745,5
38857,82734,5
38854,82733,4
38837,82715,5
38838,82713,5
38824,82692,5
38826,82685,5
38821,82675,4
38823,82674,5
38809,82666,5
38813,82659,5
38811,82657,5
38801,82659,4
38804,82653,5
38802,82653,5
38808,82644,5
38808,82647,4
38807,82651,4
38808,82641,6
38803,82647,4
38801,82651,5
38808,82657,4
38807,82660,5
38813,82657,5
38808,82667,5
38805,82659,5
38809,82663,4
38807,82653,5
38802,82653,5
38801,82640,5
38806,82634,5
38795,82623,4
38779,82612,5
38784,82599,5
38775,82583,5
38757,82569,5
38750,82547,4
38749,82541,5
38739,82525,5
38739,82512,5
38729,82514,4
38739,82510,4
38735,82522,5
38732,82516,6
38732,82521,4
38741,82538,4
38752,82544,5
38754,82549,5
38747,82548,7
38758,82569,3
38749,82556,4
38755,82563,5
38748,82533,5
38737,82525,5
38728,82501,5
38710,82475,4
38700,82472,5
38707,82463,5
38703,82464,5
38709,82451,5
38694,82456,4
38696,82448,5
38701,82456,5
38706,82459,5
38699,82460,5
38704,82465,4
38712,82476,5
38710,82480,5
38724,82492,5
38717,82502,4
38728,82510,5
38734,82513,5
38714,82525,5
38748,82535,5
38743,82538,4
38748,82552,5
38719,82555,5
38755,82563,5
38762,82564,5
38760,82558,4
38730,82563,5
38762,82564,5
38760,82557,5
38758,82569,5
38765,82562,4
38763,82572,5
38757,82570,5
38769,82570,5
38788,82567,4
38763,82571,6
38757,82560,4
38766,82563,5
38796,82560,5
38761,82565,4
38758,82562,5
38761,82563,5
38769,82553,5
38760,82555,5
38746,82540,4
38750,82546,5
38750,82539,5
38744,82533,5
38740,82533,5
38736,82528,4
38730,82503,5
38726,82517,5
38733,82503,5
38725,82504,5
38721,82459,4
38715,82499,5
38714,82488,5
38711,82487,5
38709,82454,4
38717,82486,5
38722,82491,6
38719,82489,4
38724,82501,5
38710,82492,4
38719,82484,5
38714,82499,5
38719,82529,5
38720,82501,5
38725,82509,4
38732,82515,5
38727,82557,5
38730,82523,5
38741,82526,5
38734,82528,4
38733,82536,5
38733,82516,5
38725,82508,5
38721,82497,4
38712,82488,4
38700,82449,5
38682,82437,5
38683,82427,5
38666,82389,4
38645,82376,5
38640,82345,5
38628,82340,5
38638,82339,5
38631,82328,4
38630,82336,5
38632,82339,5
38632,82336,5
38636,82349,5
38633,82351,4
38643,82371,5
38654,82369,5
38657,82392,5
38658,82401,5
38663,82409,4
38672,82414,5
38666,82413,5
38677,82415,5
38665,82395,4
38661,82391,4
38653,82371,5
38643,82350,5
38630,82347,5
38630,82343,5
38635,82350,4
38632,82347,5
38628,82339,5
38635,82344,5
38635,82342,4
38629,82347,5
38633,82361,5
38642,82365,5
38655,82375,5
38648,82396,4
38668,82407,5
38672,82415,5
38680,82426,5
38688,82441,5
38700,82446,4
38701,82455,5
38698,82475,5
38712,82480,5
38722,82497,4
38718,82499,4
38726,82501,6
38730,82517,4
38719,82507,5
38727,82515,4
38729,82516,7
38731,82512,3
38748,82524,5
38731,82526,5
38745,82537,4
38745,82525,5
38747,82530,5
38747,82529,5
38738,82528,5
38742,82519,4
38742,82517,5
38727,82507,5
38722,82514,5
38726,82490,5
38721,82484,4
38719,82480,5
38706,82462,5
38707,82458,5
38697,82448,4
38696,82439,4
38692,82428,5
38684,82417,6
38672,82407,4
38669,82404,4
38666,82386,5
38671,82382,5
38661,82373,5
38666,82374,5
38664,82367,4
38655,82353,5
38651,82345,5
38650,82355,5
38637,82346,5
38646,82344,4
38639,82348,5
38649,82348,5
38615,82351,5
38645,82363,5
38648,82355,4
38657,82355,5
38620,82353,5
38659,82357,5
38652,82357,5
38643,82364,4
38640,82357,5
38655,82367,5
38653,82358,6
38643,82359,3
38661,82350,5
38649,82351,5
38640,82345,5
38648,82349,5
38666,82344,4
38640,82329,5
38631,82330,5
38633,82319,5
38657,82313,5
38634,82314,4
38625,82307,5
38617,82302,5
38628,82300,5
38606,82298,5
38605,82284,4
38612,82269,5
38600,82255,5
38588,82258,5
38597,82260,4
38584,82250,5
38593,82230,4
38580,82245,5
38584,82232,5
38577,82234,6
38576,82187,3
38566,82204,5
38561,82190,5
38539,82154,5
38532,82129,4
38519,82107,5
38509,82084,5
38493,82074,5
38495,82096,5
38500,82076,4
38502,82076,5
38508,82088,5
38505,82124,5
38505,82090,5
38519,82101,4
38512,82122,5
38513,82143,5
38522,82125,5
38531,82129,4
38537,82143,5
38535,82163,6
38549,82155,4
38553,82173,5
38551,82169,4
38559,82168,5
38552,82149,5
38537,82130,5
38532,82127,5
38519,82101,4
38510,82097,5
38503,82073,5
38503,82075,5
38499,82075,5
38502,82073,4
38498,82074,5
38505,82069,5
38494,82078,5
38505,82087,5
38512,82086,4
38524,82106,5
38513,82116,5
38531,82128,5
38534,82142,4
38550,82158,5
38559,82177,5
38559,82186,6
38567,82192,4
38577,82213,4
38583,82236,5
38585,82252,5
38602,82250,5
38600,82262,5
38608,82272,4
38616,82288,5
38620,82291,5
38625,82305,5
38621,82307,5
38627,82310,4
38635,82325,5
38645,82325,5
38635,82330,5
38642,82348,5
38644,82348,4
38643,82345,5
38643,82348,5
38652,82352,5
38652,82348,5
38644,82345,4
38648,82334,5
38641,82330,5
38644,82326,6
38643,82329,3
38636,82314,5
38629,82305,5
38620,82307,5
38623,82289,5
38623,82296,4
38613,82298,5
38622,82285,5
38617,82275,5
38614,82280,5
38614,82281,4
38613,82284,5
38617,82280,5
38612,82279,5
38613,82298,5
38619,82294,4
38623,82302,5
38618,82302,5
38624,82303,5
38620,82303,4
38629,82310,6
38626,82321,4
38639,82330,5
38637,82331,5
38646,82334,4
38640,82340,5
38645,82349,5
38648,82353,5
38652,82361,5
38660,82374,4
38655,82373,5
38663,82392,5
38661,82384,5
38665,82392,5
38660,82390,4
38667,82391,5
38662,82394,5
38669,82393,5
38651,82398,5
38668,82402,4
38663,82392,5
38659,82398,5
38632,82384,5
38662,82386,4
38651,82377,5
38639,82367,6
38610,82357,4
38627,82348,5
38634,82345,4
38628,82346,5
38634,82352,5
38628,82355,5
38632,82371,5
38639,82378,4
38671,82393,5
38653,82393,5
38656,82410,5
38667,82412,5
38697,82428,4
38671,82435,5
38676,82448,5
38683,82465,5
38701,82453,5
38683,82460,4
38685,82471,5
38690,82480,5
38694,82489,5
38695,82487,4
38688,82474,5
38680,82462,5
38673,82425,6
38648,82390,4
38642,82350,4
38622,82327,5
38614,82291,5
38619,82318,5
38637,82341,5
38644,82351,4
38634,82316,5
38628,82331,5
38625,82337,5
38642,82345,5
38648,82388,4
38667,82409,5
38687,82437,5
38690,82445,5
38693,82475,5
38687,82438,4
38687,82454,5
38707,82474,5
38730,82552,5
38731,82530,5
38733,82527,4
38730,82539,5
38728,82554,5
38751,82557,5
38757,82596,4
38770,82624,5
38781,82630,5
38773,82645,5
38783,82631,5
38772,82635,4
38779,82639,5
38781,82644,5
38789,82659,5
38802,82678,5
38810,82684,4
38803,82688,5
38801,82687,5
38799,82685,5
38796,82668,5
38782,82653,4
38784,82652,5
38777,82661,5
38786,82652,5
38787,82661,4
38789,82659,6
38791,82668,4
38789,82680,5
38798,82683,5
38802,82678,4
38800,82686,5
38811,82705,5
38798,82712,5
38812,82716,5
38813,82717,4
38815,82717,5
38826,82737,5
38824,82741,5
38837,82752,5
38832,82767,4
38846,82780,5
38851,82791,5
38850,82793,5
38861,82806,5
38854,82804,4
38856,82803,5
38867,82811,10
38863,82811,4
38869,82815,5
38875,82815,6
38871,82827,4
38863,82829,5
38870,82831,4
38862,82823,5
38861,82827,5
38860,82800,5
38849,82790,5
38837,82769,4
38825,82737,5
38813,82709,5
38798,82669,5
38791,82649,5
38775,82620,4
38764,82600,5
38744,82583,5
38742,82559,5
38734,82548,5
38722,82529,4
38722,82519,5
38713,82513,5
38724,82509,5
38715,82511,4
38719,82498,5
38712,82511,5
38719,82501,5
38715,82505,5
38717,82499,4
38723,82507,5
38711,82508,5
38716,82516,5
38722,82509,5
38726,82507,4
38713,82493,5
38700,82473,5
38700,82466,5
38699,82452,5
38684,82457,4
38690,82458,5
38692,82456,5
38691,82457,5
38699,82446,5
38696,82457,4
38688,82453,5
38702,82460,5
38697,82464,5
38701,82480,5
38683,82486,4
38715,82500,5
38724,82511,5
38725,82518,5
38702,82519,4
38739,82534,5
38741,82535,5
38751,82556,5
38747,82560,5
38767,82563,4
38771,82573,5
38769,82592,5
38798,82599,5
38774,82597,5
38786,82605,4
38791,82610,5
38822,82623,5
38792,82630,5
38790,82626,5
38796,82640,4
38818,82638,5
38797,82649,5
38812,82643,5
38798,82632,4
38808,82644,6
38806,82626,4
38798,82631,5
38792,82624,5
38800,82602,4
38786,82610,5
38778,82601,5
38778,82586,5
38779,82563,5
38764,82580,4
38764,82571,5
38766,82572,5
38760,82539,5
38767,82573,5
38755,82570,4
38773,82573,5
38758,82563,5
38768,82574,5
38768,82582,5
38767,82579,4
38769,82598,5
38774,82586,6
38768,82586,4
38771,82597,4
38777,82639,5
38781,82617,5
38785,82621,5
38792,82629,5
38795,82647,4
38794,82637,5
38798,82647,5
38804,82653,5
38801,82656,5
38814,82651,4
38816,82674,5
38825,82673,5
38816,82668,5
38819,82660,5
38810,82668,4
38811,82659,5
38809,82652,5
38802,82640,5
38793,82635,5
38797,82621,4
38779,82597,5
38775,82599,5
38768,82577,6
38761,82562,3
38754,82557,5
38751,82557,5
38749,82552,5
38756,82545,5
38755,82549,4
38749,82565,5
38746,82570,5
38756,82569,5
38761,82569,5
38756,82581,4
38773,82594,5
38776,82612,5
38777,82626,5
38770,82626,5
38782,82611,4
38772,82615,5
38766,82597,5
38760,82584,5
38761,82561,4
38740,82539,5
38736,82533,4
38736,82541,5
38743,82542,5
38739,82544,6
38739,82551,3
38750,82545,5
38749,82565,5
38748,82564,5
38754,82592,4
38764,82600,5
38774,82609,5
38782,82625,5
38784,82633,5
38791,82641,4
38801,82649,5
38807,82675,5
38808,82690,5
38824,82704,5
38833,82733,4
38849,82759,5
38856,82779,5
38853,82766,5
38864,82786,4
38862,82787,4
38867,82810,6
38887,82824,4
38883,82832,5
38892,82846,4
38901,82864,5
38908,82883,5
38916,82901,5
38921,82909,5
38925,82909,4
38928,82923,5
38937,82931,5
38928,82928,5
38923,82933,5
38926,82915,4
38918,82909,5
38918,82895,5
38910,82878,5
38903,82877,5
38891,82869,4
38895,82863,5
38894,82861,5
38887,82855,5
38885,82849,4
38895,82841,4
38882,82850,5
38871,82836,6
38883,82842,4
38885,82834,4
38889,82844,5
38865,82841,5
38889,82841,5
38884,82847,5
38896,82850,4
38874,82865,5
38907,82871,5
38909,82875,5
38908,82893,5
38894,82893,4
38922,82898,5
38916,82906,5
38924,82906,5
38944,82905,5
38918,82900,4
38919,82900,5
38912,82887,5
38935,82877,5
38901,82871,5
38899,82861,4
38895,82843,5
38914,82841,5
38882,82832,6
38885,82819,3
38872,82823,5
38886,82821,5
38881,82826,5
38878,82817,5
38883,82834,4
38882,82826,5
38888,82844,5
38897,82847,5
38897,82856,5
38898,82831,4
38896,82861,5
38892,82864,5
38895,82849,5
38886,82800,5
38882,82824,4
38872,82804,5
38856,82784,5
38851,82750,5
38859,82767,4
38847,82768,5
38849,82760,4
38843,82776,5
38846,82766,5
38837,82749,4
38851,82753,5
38852,82791,5
38845,82737,5
38840,82744,5
38849,82736,4
38853,82769,5
38846,82738,5
38844,82744,5
38842,82740,5
38847,82763,4
38858,82748,5
38859,82757,5
38860,82755,5
38867,82764,5
38867,82768,4
38864,82762,5
38865,82756,5
38864,82768,5
38861,82757,4
38868,82767,5
38864,82762,6
38862,82760,4
38864,82743,5
38851,82745,4
38851,82737,5
38853,82735,5
38843,82721,5
38846,82719,5
38833,82700,4
38834,82683,5
38821,82680,5
38814,82656,5
38802,82647,5
38808,82636,4
38799,82622,5
38788,82610,5
38790,82600,5
38782,82588,5
38780,82586,4
38773,82577,5
38774,82577,5
38762,82572,5
38764,82556,4
38758,82560,4
38762,82557,5
38764,82553,6
38761,82545,4
38767,82562,4
38767,82558,5
38758,82555,5
38768,82555,5
38767,82554,5
38762,82548,4
38765,82549,5
38762,82549,5
38764,82546,5
38756,82537,5
38765,82534,4
38755,82528,5
38750,82521,5
38739,82511,5
38740,82503,5
38736,82481,4
38724,82465,5
38716,82445,5
38714,82435,5
38696,82414,5
38686,82396,4
38695,82390,5
38681,82391,5
38688,82366,5
38666,82368,4
38674,82365,5
38678,82381,5
38678,82385,5
38673,82381,5
38689,82387,4
38687,82392,5
38691,82381,5
38690,82382,5
38687,82376,5
38679,82358,4
38664,82344,5
38654,82321,5
38648,82309,5
38636,82301,5
38629,82294,4
38638,82271,5
38629,82269,5
38626,82267,5
38626,82255,4
38622,82256,6
38622,82259,4
38621,82266,5
38623,82261,5
38633,82268,4
38634,82279,5
38630,82284,5
38627,82279,5
38636,82287,5
38644,82290,4
38644,82301,5
38625,82315,5
38652,82317,5
38660,82330,5
38662,82316,4
38631,82321,5
38663,82321,5
38665,82323,5
38661,82322,5
38665,82327,4
38653,82323,5
38667,82326,5
38657,82327,5
38692,82322,4
38662,82326,5
38658,82329,6
38659,82329,4
38695,82337,5
38666,82326,4
38655,82328,5
38652,82326,5
38660,82310,5
38657,82309,5
38649,82294,4
38637,82279,5
38640,82259,5
38633,82260,5
38608,82232,5
38616,82240,4
38609,82208,5
38609,82224,5
38610,82223,5
38605,82217,5
38596,82192,4
38594,82207,5
38595,82210,5
38603,82214,5
38600,82191,4
38598,82217,5
38607,82229,5
38611,82234,5
38617,82253,5
38615,82245,4
38624,82250,5
38625,82259,5
38626,82306,5
38627,82273,5
38641,82289,4
38640,82299,5
38642,82346,5
38638,82311,5
38649,82323,5
38658,82328,4
38650,82343,5
38657,82334,5
38659,82338,5
38663,82353,5
38663,82354,4
38663,82358,5
38665,82345,5
38663,82354,5
38668,82348,5
38660,82347,4
38663,82342,5
38652,82323,5
38642,82305,5
38633,82291,4
38622,82264,5
38606,82244,5
38594,82214,5
38582,82192,5
38574,82179,4
38566,82167,5
38566,82150,5
38549,82149,8
38549,82163,2
38572,82190,4
38583,82193,5
38582,82195,5
38577,82205,5
38586,82231,4
38597,82234,4
38605,82248,5
38626,82282,5
38618,82283,5
38627,82302,4
38627,82310,6
38642,82312,4
38628,82298,5
38616,82280,5
38614,82266,4
38615,82272,5
38602,82260,5
38605,82275,5
38618,82283,5
38616,82300,4
38627,82317,5
38635,82325,5
38631,82319,5
38631,82337,5
38640,82343,4
38648,82334,5
38642,82344,5
38650,82357,5
38645,82353,5
38658,82365,4
38673,82378,5
38667,82372,6
38669,82388,4
38668,82390,4
38674,82389,5
38676,82393,5
38676,82396,5
38684,82413,5
38689,82415,4
38696,82414,5
38687,82410,5
38701,82424,5
38692,82416,5
38692,82416,4
38698,82431,5
38696,82416,5
38701,82423,5
38694,82425,5
38693,82426,4
38706,82420,5
38712,82428,5
38706,82435,5
38701,82441,5
38706,82420,4
38698,82423,5
38702,82424,5
38699,82416,6
38688,82407,3
38688,82409,5
38684,82401,5
38676,82392,5
38681,82375,5
38663,82360,4
38665,82362,5
38656,82346,5
38651,82342,5
38644,82335,5
38651,82324,4
38651,82317,5
38649,82311,5
38625,82302,5
38643,82309,5
38638,82305,4
38638,82297,5
38609,82293,5
38642,82293,5
38632,82305,4
38636,82304,5
38628,82306,4
38636,82302,5
38636,82316,5
38638,82307,6
38660,82303,3
38637,82315,5
38647,82312,5
38647,82314,5
38679,82315,4
38649,82313,5
38641,82316,5
38650,82316,5
38668,82321,5
38648,82312,4
38639,82321,5
38649,82315,5
38650,82316,5
38636,82316,5
38644,82314,4
38645,82317,5
38642,82302,5
38638,82314,5
38634,82309,4
38624,82300,4
38634,82276,6
38616,82286,4
38616,82273,5
38612,82254,4
38602,82201,5
38592,82218,5
38578,82191,5
38567,82168,5
38562,82156,4
38546,82147,5
38545,82136,5
38548,82140,5
38553,82166,5
38541,82139,4
38548,82140,5
38545,82149,5
38552,82188,5
38561,82165,5
38557,82170,4
38572,82188,5
38569,82215,5
38579,82196,5
38577,82217,4
38585,82224,4
38594,82235,5
38596,82222,6
38591,82221,4
38574,82207,4
38575,82196,5
38576,82189,5
38562,82182,5
38565,82188,5
38577,82189,4
38571,82188,5
38572,82199,5
38573,82209,5
38576,82210,5
38589,82212,4
38590,82219,5
38586,82230,5
38599,82234,5
38606,82260,5
38610,82270,4
38621,82276,5
38630,82287,5
38628,82292,5
38631,82303,5
38642,82317,4
38642,82329,5
38652,82335,5
38656,82344,6
38661,82355,3
38670,82369,5
38675,82372,5
38682,82385,5
38676,82384,5
38685,82396,4
38692,82397,5
38683,82408,5
38694,82419,5
38695,82421,5
38697,82423,4
38705,82430,5
38702,82428,5
38700,82432,5
38708,82419,5
38696,82409,4
38694,82410,5
38696,82412,5
38692,82410,5
38695,82400,4
38685,82396,5
38676,82388,4
38672,82386,5
38679,82376,5
38676,82367,4
38667,82368,5
38663,82371,5
38666,82360,5
38660,82348,5
38659,82351,4
38659,82343,5
38660,82351,5
38652,82351,5
38658,82344,5
38662,82337,4
38654,82344,5
38654,82344,5
38662,82355,5
38661,82366,5
38660,82356,4
38675,82366,5
38676,82379,5
38673,82376,5
38671,82384,4
38666,82387,4
38676,82393,6
38684,82395,4
38685,82400,5
38688,82401,4
38682,82403,5
38681,82382,5
38676,82395,5
38678,82387,5
38682,82388,4
38681,82388,5
38676,82380,5
38680,82384,5
38675,82382,5
38667,82375,4
38676,82376,5
38672,82376,5
38674,82379,5
38651,82372,5
38665,82358,4
38667,82359,5
38653,82363,5
38622,82339,5
38662,82334,4
38653,82335,5
38646,82334,5
38620,82324,6
38639,82319,4
38639,82317,4
38640,82315,5
38651,82305,5
38638,82314,5
38637,82300,5
38629,82297,4
38650,82278,5
38622,82284,5
38623,82273,5
38605,82267,5
38639,82247,4
38595,82237,5
38587,82218,5
38578,82187,5
38586,82165,5
38560,82154,4
38551,82124,5
38537,82119,5
38526,82102,5
38533,82101,5
38532,82110,4
38538,82118,5
38522,82088,5
38539,82113,5
38540,82116,4
38537,82125,5
38545,82101,5
38538,82129,5
38543,82134,10
38551,82141,9
38551,82109,5
38544,82118,8
38544,82118,5
38558,82104,5
38533,82087,8
38493,82101,5
38508,82052,5
38500,82048,5
38498,82049,8
38497,82084,5
38502,82041,5
38495,82031,8
38504,82052,5
38505,82068,5
38531,82096,8
38531,82096,5
38483,82118,5
38531,82108,5
38541,82119,8
38543,82152,5
38544,82151,5
38561,82140,8
38561,82166,5
38575,82178,5
38587,82206,5
38584,82219,8
38590,82204,5
38604,82232,5
38617,82257,8
38617,82257,5
38623,82288,5
38622,82285,8
38614,82255,5
38613,82248,5
38627,82254,5
38627,82246,8
38626,82248,5
38582,82236,5
38607,82230,8
38599,82236,5
38605,82233,5
38586,82221,5
38578,82194,8
38578,82194,5
38575,82125,5
38543,82152,8
38569,82172,5
38558,82163,5
38535,82162,8
38550,82165,5
38563,82144,5
38557,82153,5
38564,82163,8
38572,82151,5
38565,82151,5
38571,82188,8
38571,82188,5
38582,82198,5
38586,82198,5
38584,82207,8
38587,82203,5
38589,82210,5
38595,82226,8
38593,82246,5
38603,82225,5
38599,82215,8
38595,82222,5
38604,82229,5
38591,82226,5
38591,82226,8
38593,82215,5
38582,82225,5
38593,82218,8
38585,82217,5
38595,82215,5
38587,82223,5
38581,82187,8
38588,82196,5
38593,82222,5
38583,82231,8
38583,82231,5
38599,82234,5
38596,82225,8
38593,82228,5
38577,82215,5
38583,82206,5
38584,82217,8
38570,82197,5
38542,82184,5
38562,82166,8
38555,82164,5
38555,82158,5
38522,82157,5
38563,82166,8
38563,82166,5
38575,82183,5
38575,82188,8
38611,82200,5
38569,82204,5
38562,82191,8
38580,82209,5
38626,82225,5
38595,82238,5
38590,82241,8
38582,82245,5
38598,82228,5
38577,82211,8
38577,82211,5
38609,82217,5
38601,82226,5
38561,82211,8
38579,82251,5
38594,82241,5
38597,82259,8
38608,82250,5
38614,82289,5
38617,82294,8
38628,82307,5
38641,82295,5
38685,82401,10
38685,82401,9
38680,82407,5
38678,82416,8
38692,82454,5
38708,82464,1
38722,82494,0
38694,82495,5
38704,82523,3
38728,82500,5
38730,82495,5
38728,82511,5
38732,82533,7
38743,82527,2
38728,82499,5
38735,82496,5
38744,82528,5
38753,82551,5
38753,82563,4
38769,82577,5
38766,82561,5
38736,82531,5
38741,82522,5
38727,82497,4
38735,82506,5
38734,82500,5
38720,82501,5
38713,82462,4
38700,82447,5
38694,82449,4
38697,82454,5
38714,82472,5
38714,82481,6
38728,82500,3
38734,82514,5
38722,82506,5
38725,82500,5
38738,82501,4
38734,82496,5
38731,82494,5
38741,82508,5
38742,82510,5
38746,82519,4
38749,82536,5
38759,82548,5
38752,82551,5
38760,82561,5
38764,82566,4
38760,82565,5
38770,82556,5
38775,82584,5
38778,82584,4
38784,82600,4
38776,82606,6
38784,82612,4
38778,82585,5
38771,82567,4
38766,82550,5
38750,82543,5
38755,82521,5
38743,82516,5
38729,82520,4
38742,82508,5
38734,82506,5
38726,82499,5
38728,82499,5
38720,82501,4
38721,82500,5
38724,82500,5
38729,82502,5
38738,82506,5
38730,82496,4
38733,82500,5
38732,82485,5
38721,82490,5
38724,82482,4
38720,82484,4
38712,82471,5
38714,82462,6
38706,82449,4
38701,82434,4
38676,82407,5
38675,82397,5
38684,82378,5
38670,82372,5
38671,82390,4
38664,82393,5
38679,82400,5
38685,82412,5
38690,82425,5
38693,82442,4
38698,82449,5
38705,82458,5
38708,82461,5
38720,82477,5
38725,82497,4
38736,82514,5
38749,82527,5
38759,82546,5
38763,82554,5
38765,82580,4
38758,82582,5
38770,82589,5
38770,82587,6
38774,82600,3
38754,82595,5
38778,82612,5
38790,82612,5
38776,82616,5
38750,82594,4
38778,82587,5
38771,82590,5
38769,82576,5
38759,82559,5
38756,82567,4
38770,82555,5
38764,82559,5
38783,82562,5
38758,82554,5
38759,82545,4
38754,82544,5
38777,82525,5
38752,82524,5
38745,82526,4
38739,82524,6
38760,82532,4
38753,82520,5
38747,82524,5
38747,82523,6
38756,82525,3
38751,82534,5
38749,82529,5
38753,82533,5
38750,82525,4
38757,82550,5
38759,82558,5
38766,82572,5
38774,82556,5
38779,82590,4
38794,82599,5
38797,82625,5
38806,82588,5
38809,82634,5
38805,82644,4
38813,82643,5
38804,82634,5
38808,82638,5
38808,82640,4
38807,82632,5
38799,82636,6
38794,82616,4
38796,82602,5
38779,82596,4
38780,82621,5
38783,82574,5
38786,82577,5
38774,82577,5
38774,82603,4
38770,82580,5
38784,82584,5
38782,82591,5
38775,82596,5
38783,82597,4
38787,82600,5
38788,82604,5
38785,82594,5
38787,82586,5
38778,82579,4
38775,82553,5
38752,82548,5
38747,82531,5
38748,82508,4
38736,82508,5
38739,82500,5
38740,82501,6
38731,82506,4
38733,82497,4
38738,82501,5
38742,82501,5
38745,82512,5
38741,82510,5
38750,82516,4
38745,82519,5
38760,82535,5
38765,82545,5
38768,82551,5
38775,82561,4
38779,82575,5
38787,82587,5
38782,82584,5
38784,82596,5
38786,82600,4
38794,82612,5
38802,82611,5
38804,82609,5
38792,82601,5
38796,82617,4
38801,82617,5
38800,82616,5
38794,82614,6
38799,82620,3
38796,82613,5
38805,82607,5
38791,82591,5
38785,82595,5
38783,82595,4
38781,82585,5
38790,82576,5
38774,82565,5
38779,82554,5
38755,82546,4
38758,82533,5
38754,82524,5
38742,82516,5
38736,82509,5
38737,82500,4
38746,82493,5
38738,82486,5
38736,82485,5
38745,82486,4
38736,82474,6
38725,82478,4
38729,82480,5
38736,82477,5
38741,82471,4
38738,82480,5
38739,82484,5
38736,82476,5
38736,82488,5
38738,82483,4
38737,82485,5
38746,82484,5
38749,82493,5
38739,82481,5
38734,82480,4
38726,82489,5
38732,82472,5
38731,82461,5
38723,82461,5
38719,82437,4
38702,82423,5
38709,82421,5
38701,82412,5
38694,82404,4
38699,82403,5
38691,82404,6
38689,82408,4
38697,82404,5
38691,82402,4
38705,82419,5
38675,82416,5
38711,82422,5
38710,82422,5
38712,82423,4
38686,82426,5
38699,82413,5
38698,82417,5
38687,82387,5
38646,82373,4
38680,82365,5
38669,82351,5
38674,82362,5
38670,82353,5
38671,82352,4
38665,82353,5
38677,82343,5
38707,82357,5
38673,82346,4
38674,82346,5
38674,82349,5
38709,82347,6
38669,82351,4
38676,82358,4
38673,82352,5
38692,82373,5
38679,82378,5
38693,82380,5
38700,82392,4
38702,82398,5
38709,82406,5
38707,82406,5
38717,82421,5
38713,82405,4
38712,82420,5
38721,82421,5
38709,82416,5
38717,82397,5
38718,82430,4
38714,82438,5
38714,82427,5
38717,82409,5
38719,82424,5
38707,82426,4
38720,82431,5
38701,82434,5
38708,82410,5
38693,82406,4
38701,82399,5
38697,82417,5
38682,82373,5
38680,82381,5
38681,82360,4
38673,82372,5
38664,82324,5
38656,82311,5
38656,82310,5
38638,82313,4
38633,82277,5
38629,82277,5
38634,82271,5
38627,82249,5
38628,82255,4
38623,82249,5
38620,82244,5
38623,82254,5
38619,82250,4
38620,82264,6
38626,82267,4
38634,82260,5
38629,82269,5
38637,82279,4
38633,82274,5
38643,82289,5
38642,82291,5
38640,82291,5
38638,82300,4
38643,82292,5
38634,82287,5
38632,82274,5
38622,82255,5
38608,82250,4
38610,82227,5
38598,82197,5
38581,82184,5
38574,82161,4
38570,82146,4
38562,82142,5
38548,82138,5
38554,82132,5
38551,82133,4
38550,82124,5
38546,82120,6
38554,82125,4
38559,82148,5
38563,82153,4
38569,82167,5
38579,82162,5
38585,82180,5
38582,82188,5
38593,82186,4
38577,82181,5
38580,82167,5
38579,82165,5
38560,82148,5
38556,82134,4
38555,82129,5
38552,82138,5
38553,82129,5
38553,82140,4
38555,82138,4
38553,82136,5
38561,82138,5
38561,82150,5
38566,82150,3
38566,82161,5
38570,82161,5
38579,82164,5
38581,82180,5
38580,82190,4
38590,82200,5
38601,82201,5
38592,82209,5
38608,82230,5
38613,82242,4
38610,82253,5
38624,82272,5
38621,82285,5
38626,82293,5
38643,82300,4
38649,82308,5
38651,82320,5
38660,82334,5
38664,82349,4
38673,82369,5
38685,82388,4
38684,82405,5
38691,82409,5
38692,82418,6
38704,82428,3
38711,82449,5
38705,82451,5
38708,82440,5
38703,82443,4
38706,82445,5
38703,82439,5
38695,82442,5
38701,82448,5
38709,82446,4
38704,82444,5
38684,82452,5
38708,82455,5
38704,82442,5
38711,82426,4
38666,82435,5
38702,82425,5
38707,82441,5
38695,82425,4
38699,82436,5
38704,82446,6
38705,82426,4
38698,82435,5
38719,82435,4
38695,82435,5
38703,82440,5
38686,82427,5
38724,82409,5
38684,82412,4
38690,82411,5
38693,82407,5
38712,82426,5
38693,82430,5
38704,82447,4
38713,82466,5
38722,82467,5
38713,82476,5
38723,82484,5
38722,82479,4
38713,82475,5
38718,82480,5
38714,82477,10
38708,82471,4
38691,82417,5
38695,82439,6
38700,82454,4
38704,82455,4
38696,82420,5
38692,82436,5
38689,82434,5
38674,82423,5
38666,82403,4
38667,82407,5
38671,82399,5
38656,82390,5
38656,82415,5
38649,82386,4
38666,82393,5
38672,82410,5
38673,82456,5
38679,82425,5
38694,82456,4
38696,82462,5
38713,82502,5
38711,82506,5
38714,82514,5
38723,82517,4
38732,82533,5
38735,82524,5
38728,82523,6
38731,82521,3
38721,82517,5
38719,82508,5
38718,82511,5
38717,82501,5
38716,82508,4
38711,82495,5
38714,82498,5
38719,82502,5
38716,82509,5
38708,82493,4
38718,82491,5
38717,82501,5
38721,82495,5
38721,82494,5
38723,82497,4
38717,82494,5
38719,82496,5
38724,82493,5
38731,82503,4
38727,82497,6
38731,82513,4
38731,82516,5
38735,82522,5
38739,82521,6
38754,82538,3
38751,82557,5
38753,82551,5
38768,82565,5
38770,82591,4
38783,82603,5
38785,82620,5
38787,82619,5
38797,82629,5
38800,82640,4
38807,82645,5
38816,82652,5
38817,82665,5
38815,82670,4
38820,82683,4
38815,82679,5
38819,82672,5
38819,82679,5
38818,82681,4
38823,82684,5
38823,82677,6
38828,82679,4
38814,82680,5
38820,82667,4
