RED,IR,EKG,TIME
26125,50149,10
26117,50151,9
26116,50152,5
26111,50145,8
26111,50145,5
26149,50152,5
26142,50149,8
26095,50154,5
26116,50147,5
26122,50156,5
26120,50156,8
26122,50157,5
26126,50155,5
26116,50142,8
26122,50145,5
26126,50152,5
26111,50131,8
26111,50131,5
26101,50142,5
26095,50142,5
26113,50141,8
26120,50135,5
26115,50152,5
26122,50148,8
26122,50138,5
26112,50151,5
26121,50144,5
26115,50148,8
26113,50127,5
26108,50118,5
26106,50110,8
26106,50110,5
26106,50115,5
26103,50129,8
26105,50128,5
26103,50107,5
26099,50113,5
26101,50109,8
26126,50110,5
26103,50114,5
26097,50108,8
26097,50112,5
26106,50109,5
26102,50099,5
26100,50095,8
26100,50095,5
26102,50073,5
26095,50077,8
26100,50099,5
26099,50095,5
26104,50088,8
26071,50093,5
26089,50097,5
26101,50097,5
26104,50111,8
26099,50116,5
26102,50086,5
26096,50100,8
26096,50100,5
26097,50091,5
26102,50098,5
26106,50103,8
26100,50103,5
26105,50092,5
26106,50101,8
26103,50105,5
26101,50126,5
26103,50104,8
26099,50088,5
26104,50104,5
26095,50111,5
26095,50111,8
26101,50112,5
26103,50111,5
26095,50110,8
26099,50112,5
26107,50111,5
26121,50156,5
26107,50129,8
26107,50098,5
26116,50118,5
26107,50120,8
26105,50110,5
26105,50110,5
26111,50112,8
26105,50120,5
26103,50119,5
26115,50118,5
26112,50117,8
26109,50126,5
26110,50120,5
26103,50105,8
26111,50118,5
26112,50110,5
26107,50122,5
26111,50131,8
26111,50131,5
26113,50122,5
26112,50132,8
26115,50121,5
26124,50124,5
26107,50122,8
26100,50110,5
26108,50110,5
26112,50110,3
26117,50111,2
26105,50102,4
26096,50123,4
26108,50114,4
26108,50107,6
26102,50106,4
26100,50109,5
26106,50116,4
26111,50106,5
26104,50116,5
26113,50105,5
26101,50111,5
26110,50114,4
26102,50117,5
26107,50115,5
26116,50109,5
26108,50118,5
26113,50123,4
26118,50124,5
26115,50131,5
26108,50117,5
26111,50119,5
26113,50127,4
26111,50133,5
26106,50122,5
26114,50118,5
26112,50123,4
26122,50122,4
26117,50135,5
26110,50133,6
26117,50132,4
26114,50135,4
26116,50130,5
26122,50134,5
26114,50131,5
26118,50129,5
26113,50127,4
26121,50125,5
26115,50130,5
26115,50126,5
26115,50119,5
26111,50123,4
26112,50120,5
26118,50123,5
26109,50112,5
26117,50120,5
26113,50125,4
26110,50115,5
26105,50126,5
26113,50120,5
26109,50136,5
26111,50131,4
26119,50124,5
26110,50130,5
26114,50126,6
26118,50135,3
26108,50125,5
26109,50131,5
26121,50134,5
26119,50134,5
26107,50135,4
26114,50133,5
26125,50132,5
26116,50132,5
26121,50142,5
26115,50135,4
26120,50141,5
26117,50133,5
26124,50126,5
26115,50136,5
26113,50128,4
26114,50135,5
26121,50130,5
26109,50128,5
26114,50126,4
26114,50129,5
26111,50130,4
26112,50125,5
26119,50130,5
26117,50135,6
26111,50127,3
26118,50131,5
26122,50140,5
26125,50147,5
26125,50140,4
26124,50140,5
26123,50147,5
26123,50144,5
26131,50146,5
26125,50137,4
26124,50138,5
26121,50137,5
26113,50124,5
26118,50128,5
26115,50127,4
26111,50117,5
26110,50117,5
26115,50110,5
26111,50113,4
26105,50120,4
26111,50121,6
26110,50121,4
26108,50123,5
26107,50114,4
26105,50127,5
26110,50120,5
26116,50117,5
26098,50121,5
26114,50121,4
26112,50111,5
26104,50118,5
26118,50112,5
26111,50125,5
26107,50114,4
26115,50125,5
26119,50127,5
26117,50122,5
26111,50120,5
26113,50128,4
26107,50125,5
26115,50127,5
26112,50124,5
26112,50135,4
26113,50134,4
26123,50134,5
26123,50141,6
26114,50134,4
26123,50135,4
26116,50134,5
26123,50135,5
26121,50125,5
26116,50129,5
26115,50137,4
26112,50130,5
26117,50126,5
26117,50123,5
26119,50134,5
26119,50130,4
26115,50130,5
26116,50136,5
26120,50132,5
26110,50120,5
26114,50128,4
26113,50131,5
26117,50128,5
26107,50128,5
26121,50128,5
26115,50127,4
26108,50126,5
26121,50131,5
26120,50129,6
26126,50143,3
26118,50138,5
26127,50141,5
26128,50138,5
26123,50143,5
26114,50130,4
26122,50141,5
26117,50143,5
26120,50147,5
26126,50136,5
26114,50144,4
26130,50147,5
26123,50146,5
26126,50140,5
26120,50143,5
26120,50144,4
26127,50144,5
26118,50151,5
26122,50149,5
26124,50146,4
26126,50146,5
26120,50147,4
26130,50140,5
26122,50140,5
26126,50142,4
26116,50139,5
26123,50139,5
26115,50135,5
26112,50134,5
26117,50135,4
26117,50130,5
26110,50134,5
26118,50135,5
26116,50128,5
26109,50134,4
26106,50134,5
26120,50131,5
26115,50133,5
26120,50122,5
26122,50141,4
26124,50147,5
26121,50137,5
26116,50140,5
26127,50148,4
26121,50140,4
26118,50134,6
26124,50145,4
26116,50131,5
26124,50134,4
26117,50134,5
26120,50126,5
26107,50123,5
26107,50122,5
26100,50115,4
26102,50104,5
26106,50104,5
26105,50109,5
26109,50108,5
26102,50099,4
26100,50109,5
26105,50109,5
26107,50107,5
26107,50103,5
26109,50103,4
26107,50101,5
26101,50109,5
26116,50110,5
26105,50107,4
26111,50111,4
26106,50120,5
26106,50113,6
26110,50104,4
26108,50110,4
26109,50115,5
26113,50109,5
26114,50118,5
26108,50108,5
26119,50110,4
26109,50113,5
26111,50117,5
26103,50112,5
26104,50105,5
26105,50115,4
26107,50115,9
26114,50111,1
26106,50108,5
26105,50107,5
26111,50113,4
26108,50112,5
26106,50113,5
26108,50109,5
26105,50109,5
26110,50111,4
26108,50105,5
26103,50111,5
26106,50104,5
26106,50100,4
26105,50111,5
26105,50101,5
26109,50109,5
26108,50112,5
26103,50110,4
26101,50104,5
26100,50104,5
26111,50112,5
26113,50118,5
26111,50113,4
26113,50116,5
26112,50110,5
26116,50121,5
26109,50116,5
26109,50115,4
26112,50122,5
26112,50124,5
26106,50121,5
26114,50116,4
26116,50120,5
26114,50117,4
26115,50126,5
26114,50109,5
26104,50125,4
26106,50118,5
26112,50125,5
26119,50130,5
26117,50136,5
26118,50131,4
26112,50138,5
26112,50125,5
26113,50130,5
26117,50140,5
26118,50134,4
26125,50128,5
26123,50134,5
26113,50127,5
26115,50127,5
26117,50133,4
26117,50133,5
26114,50130,5
26120,50128,5
26120,50127,4
26119,50142,5
26126,50134,6
26124,50146,4
26127,50147,5
26124,50145,4
26121,50149,5
26138,50153,5
26131,50154,5
26129,50147,5
26123,50159,4
26128,50147,5
26128,50146,5
26127,50150,5
26120,50148,5
26120,50141,4
26115,50131,5
26119,50129,5
26111,50124,5
26118,50128,5
26122,50127,4
26118,50138,5
26109,50134,5
26120,50142,6
26122,50138,3
26124,50142,4
26120,50143,5
26130,50143,5
26125,50138,5
26128,50144,4
26119,50143,5
26118,50136,5
26119,50134,5
26124,50138,5
26125,50150,4
26127,50145,5
26128,50152,5
26129,50161,5
26136,50150,5
26135,50157,4
26124,50144,5
26129,50154,5
26130,50156,5
26121,50157,5
26129,50151,5
26137,50161,4
26138,50168,5
26132,50165,5
26129,50162,6
26134,50165,3
26135,50156,5
26126,50172,5
26130,50164,5
26127,50157,4
26130,50159,5
26138,50168,5
26131,50162,5
26137,50166,5
26130,50169,4
26127,50164,5
26135,50151,5
26126,50160,5
26135,50164,5
26128,50169,4
26143,50170,5
26130,50175,5
26133,50171,5
26132,50176,5
26133,50176,4
26129,50172,6
26131,50172,4
26134,50181,5
26141,50173,4
26132,50176,7
26138,50171,3
26136,50185,5
26147,50185,5
26147,50189,4
26144,50194,5
26136,50186,5
26137,50182,5
26144,50186,5
26140,50175,4
26137,50175,5
26131,50181,5
26144,50172,5
26141,50177,5
26130,50178,4
26143,50183,5
26142,50175,5
26143,50186,5
26142,50174,5
26143,50186,4
26141,50181,5
26144,50177,6
26146,50178,4
26148,50187,4
26144,50189,5
26138,50188,5
26148,50187,5
26149,50197,5
26142,50194,4
26144,50192,5
26143,50184,5
26141,50183,5
26143,50175,5
26137,50179,4
26131,50173,5
26144,50169,5
26130,50162,5
26129,50163,5
26135,50163,4
26133,50161,5
26133,50153,5
26122,50156,5
26124,50159,5
26123,50156,4
26128,50161,5
26130,50158,5
26134,50163,6
26125,50168,3
26131,50165,5
26122,50160,5
26132,50161,5
26136,50168,5
26126,50166,4
26126,50153,5
26128,50167,5
26130,50157,5
26127,50162,5
26129,50168,4
26132,50161,5
26132,50158,5
26130,50163,5
26123,50161,5
26133,50169,4
26129,50174,5
26129,50172,5
26134,50173,5
26135,50176,4
26135,50169,5
26139,50166,4
26127,50163,5
26125,50166,5
26134,50165,7
26129,50161,2
26123,50162,5
26140,50153,5
26117,50156,5
26129,50157,4
26128,50154,5
26128,50157,5
26131,50152,5
26124,50166,5
26125,50160,4
26125,50169,5
26125,50160,5
26123,50164,5
26131,50165,5
26131,50157,4
26130,50166,5
26127,50163,5
26131,50161,5
26130,50156,4
26128,50170,4
26130,50172,6
26131,50171,4
26137,50173,5
26132,50174,4
26128,50186,5
26139,50181,5
26141,50188,5
26138,50181,5
26133,50186,4
26133,50182,5
26141,50185,5
26132,50180,5
26137,50175,5
26133,50186,4
26132,50176,5
26136,50176,5
26125,50177,5
26138,50171,5
26126,50171,4
26126,50166,5
26136,50172,5
26126,50174,5
26134,50161,5
26127,50171,4
26130,50179,5
26130,50177,6
26141,50177,4
26145,50178,4
26134,50178,5
26141,50194,5
26138,50184,5
26138,50180,5
26129,50177,4
26138,50171,5
26139,50163,5
26131,50171,5
26127,50161,5
26129,50149,4
26118,50152,5
26120,50148,5
26116,50147,5
26119,50139,5
26122,50149,4
26122,50147,5
26128,50142,5
26130,50149,5
26127,50160,5
26124,50161,4
26127,50155,5
26129,50164,5
26122,50161,6
26129,50162,3
26129,50150,5
26128,50159,5
26125,50168,5
26117,50165,5
26131,50157,4
26122,50156,5
26126,50162,5
26129,50157,5
26119,50159,5
26122,50154,4
26132,50162,5
26126,50166,5
26126,50168,5
26130,50170,5
26131,50163,4
26134,50170,5
26133,50165,5
26130,50165,5
26130,50169,5
26131,50174,5
26131,50163,4
26128,50164,5
26126,50161,5
26128,50164,4
26127,50164,4
26121,50158,5
26120,50152,5
26128,50145,5
26123,50145,4
26126,50149,5
26119,50152,5
26112,50156,5
26127,50155,5
26121,50153,4
26127,50149,5
26118,50150,5
26123,50158,5
26120,50152,5
26122,50146,4
26124,50162,5
26124,50157,5
26127,50160,5
26130,50152,5
26123,50149,4
26125,50152,6
26118,50145,4
26123,50151,5
26131,50144,4
26117,50161,4
26123,50155,5
26132,50150,5
26116,50143,5
26120,50152,4
26126,50142,5
26112,50149,5
26122,50143,5
26116,50140,5
26113,50146,4
26115,50138,5
26113,50139,5
26118,50129,5
26113,50132,5
26116,50131,4
26118,50139,5
26110,50132,5
26118,50136,5
26117,50136,5
26128,50148,4
26122,50145,5
26120,50147,6
26124,50146,4
26125,50148,4
26123,50139,4
26113,50152,5
26125,50152,5
26122,50153,5
26127,50151,4
26118,50146,5
26114,50137,5
26120,50134,5
26109,50128,5
26107,50114,4
26112,50111,5
26101,50115,5
26107,50117,5
26108,50114,5
26102,50110,4
26109,50111,5
26105,50114,5
26101,50115,5
26114,50120,5
26107,50117,4
26108,50124,5
26108,50130,5
26106,50127,5
26115,50125,5
26107,50132,4
26116,50120,5
26106,50128,5
26103,50124,5
26117,50127,4
26106,50125,5
26114,50126,5
26114,50130,5
26112,50114,5
26108,50117,4
26111,50121,5
26109,50121,5
26109,50110,5
26106,50116,5
26110,50123,4
26109,50111,5
26106,50113,5
26111,50116,5
26102,50113,5
26106,50100,5
26102,50099,4
26103,50100,5
26103,50096,5
26101,50100,5
26110,50102,4
26094,50098,5
26095,50093,5
26099,50103,5
26101,50104,4
26100,50095,5
26092,50089,5
26102,50093,5
26093,50090,5
26091,50094,4
26094,50093,5
26097,50094,5
26103,50092,5
26099,50095,5
26095,50098,4
26100,50089,5
26104,50102,5
26098,50096,5
26099,50092,5
26102,50098,4
26103,50106,6
26094,50101,4
26098,50091,5
26100,50102,5
26092,50109,4
26099,50096,7
26100,50086,3
26094,50091,5
26099,50096,4
26106,50089,4
26093,50086,5
26097,50095,5
26101,50089,5
26095,50086,4
26089,50087,5
26097,50091,5
26100,50092,5
26096,50089,5
26090,50085,4
26094,50088,5
26096,50088,5
26091,50082,5
26088,50090,4
26093,50080,4
26085,50072,5
26096,50080,5
26087,50077,5
26085,50076,5
26086,50074,4
26088,50070,5
26095,50076,5
26087,50065,5
26093,50075,5
26087,50072,4
26084,50083,5
26084,50072,5
26091,50080,5
26097,50081,4
26093,50089,5
26087,50079,5
26096,50084,5
26091,50084,5
26103,50077,5
26097,50085,4
26097,50088,5
26095,50089,5
26087,50085,6
26088,50082,3
26093,50078,5
26093,50085,5
26091,50074,5
26088,50062,5
26077,50054,4
26085,50064,5
26076,50046,5
26082,50052,5
26080,50061,5
26086,50059,4
26083,50067,5
26086,50062,5
26085,50060,5
26078,50058,4
26090,50054,5
26079,50063,5
26080,50052,5
26076,50065,5
26086,50062,4
26085,50063,6
26084,50069,4
26091,50061,5
26085,50057,5
26084,50058,6
26079,50056,3
26082,50065,5
26085,50056,5
26083,50058,5
26089,50064,4
26084,50063,5
26089,50068,5
26081,50073,5
26086,50071,5
26086,50068,4
26091,50070,5
26086,50079,5
26083,50072,5
26088,50072,4
26089,50073,4
26094,50069,5
26085,50073,5
26085,50070,5
26087,50061,4
26082,50065,5
26088,50055,6
26084,50063,4
26090,50066,5
26079,50059,4
26096,50063,5
26085,50068,5
26089,50070,5
26092,50066,5
26091,50072,4
26084,50067,5
26091,50069,5
26092,50069,5
26095,50073,5
26089,50078,4
26093,50069,5
26082,50073,5
26087,50067,5
26085,50073,4
26089,50077,4
26092,50075,5
26097,50067,5
26084,50078,5
26093,50079,4
26089,50078,5
26083,50063,5
26087,50073,6
26081,50070,4
26092,50072,4
26092,50073,5
26090,50073,5
26087,50074,5
26087,50073,5
26092,50077,4
26092,50065,5
26087,50075,5
26087,50078,5
26097,50070,5
26084,50072,4
26097,50080,5
26094,50078,5
26093,50077,5
26086,50069,5
26093,50076,4
26087,50075,5
26091,50081,5
26093,50073,5
26085,50074,5
26088,50073,4
26097,50068,5
26081,50062,5
26090,50064,6
26089,50066,3
26088,50065,5
26086,50066,5
26088,50065,5
26079,50070,5
26080,50055,4
26077,50053,5
26087,50057,5
26083,50058,5
26085,50059,5
26077,50056,4
26080,50064,5
26088,50065,5
26089,50070,5
26090,50069,5
26089,50076,4
26093,50074,5
26092,50079,5
26093,50082,5
26091,50075,4
26093,50063,6
26090,50063,4
26086,50061,5
26081,50053,5
26081,50055,4
26077,50045,5
26080,50049,5
26078,50041,5
26077,50052,5
26083,50053,4
26085,50052,5
26082,50057,5
26077,50052,5
26091,50053,5
26079,50061,4
26086,50059,5
26084,50062,5
26090,50060,5
26090,50071,5
26085,50070,4
26093,50065,5
26086,50072,5
26081,50063,5
26096,50067,4
26089,50071,4
26091,50075,6
26085,50069,4
26093,50075,5
26101,50086,4
26098,50086,5
26099,50084,5
26096,50080,5
26088,50081,5
26101,50098,4
26096,50079,5
26096,50088,5
26087,50077,5
26090,50085,5
26094,50068,4
26094,50083,5
26091,50080,5
26094,50069,5
26090,50075,5
26094,50083,4
26089,50090,5
26093,50086,5
26096,50084,5
26095,50082,4
26097,50076,4
26089,50077,5
26099,50077,6
26100,50079,4
26091,50079,4
26099,50078,5
26091,50081,5
26092,50083,5
26093,50088,5
26095,50073,4
26101,50099,5
26098,50089,5
26102,50089,5
26108,50097,5
26102,50082,4
26103,50089,5
26099,50094,5
26097,50085,5
26099,50093,5
26099,50083,4
26094,50085,5
26090,50088,5
26092,50089,5
26100,50088,5
26101,50084,4
26096,50070,5
26094,50082,5
26091,50089,6
26107,50084,3
26104,50081,5
26094,50083,5
26095,50079,5
26095,50086,5
26093,50078,4
26092,50076,5
26098,50070,5
26083,50075,5
26091,50076,5
26084,50069,4
26088,50074,5
26088,50070,5
26091,50070,5
26084,50071,5
26096,50074,4
26096,50084,5
26099,50082,5
26093,50081,5
26093,50080,5
26088,50075,5
26096,50078,4
26089,50072,5
26095,50075,5
26091,50071,4
26093,50078,4
26086,50069,5
26091,50082,5
26089,50076,5
26082,50068,4
26091,50058,5
26073,50053,5
26078,50055,5
26072,50041,5
26082,50051,4
26073,50044,5
26077,50045,5
26074,50046,5
26078,50040,5
26084,50050,4
26077,50049,5
26079,50045,5
26077,50047,5
26086,50048,5
26078,50044,4
26089,50051,6
26081,50053,4
26074,50051,5
26081,50057,5
26084,50057,4
26085,50061,5
26087,50055,5
26083,50054,5
26073,50055,4
26076,50052,5
26085,50060,5
26081,50053,5
26082,50058,5
26083,50054,4
26087,50053,5
26087,50051,5
26084,50048,5
26090,50054,5
26085,50051,4
26084,50059,5
26081,50059,5
26092,50056,5
26084,50057,5
26087,50074,4
26082,50064,5
26090,50064,6
26084,50073,4
26091,50060,5
26086,50069,4
26086,50067,5
26102,50072,5
26086,50065,5
26092,50064,4
26090,50069,5
26090,50065,5
26086,50068,5
26092,50063,5
26094,50074,4
26088,50068,5
26099,50072,5
26090,50078,5
26096,50077,5
26090,50076,4
26097,50078,5
26093,50072,5
26104,50082,5
26102,50089,5
26096,50083,4
26098,50084,5
26100,50087,5
26103,50085,5
26094,50097,5
26100,50092,4
26096,50095,5
26105,50091,5
26102,50097,5
26100,50093,4
26092,50076,4
26100,50087,5
26093,50082,5
26094,50081,5
26092,50080,4
26093,50085,5
26093,50083,5
26099,50075,5
26093,50082,5
26101,50087,4
26098,50082,5
26104,50078,5
26094,50084,5
26092,50084,5
26108,50081,5
26098,50093,4
26099,50095,5
26096,50093,5
26098,50097,5
26105,50090,4
26106,50097,5
26103,50094,5
26104,50091,5
26096,50090,5
26096,50087,4
26094,50076,5
26093,50079,5
26089,50086,5
26095,50068,4
26089,50075,5
26094,50071,5
26094,50068,5
26099,50078,5
26096,50081,4
26098,50082,5
26096,50079,5
26098,50078,5
26091,50088,5
26092,50088,4
26095,50092,6
26101,50097,4
26091,50095,5
26103,50091,5
26101,50088,4
26094,50089,5
26099,50091,5
26107,50095,5
26092,50095,5
26109,50097,4
26106,50090,5
26095,50090,5
26103,50101,5
26103,50096,4
26105,50101,4
26105,50102,5
26108,50096,5
26107,50109,5
26108,50104,4
26109,50102,5
26101,50097,5
26101,50103,6
26100,50099,4
26102,50105,4
26107,50090,5
26097,50103,5
26101,50107,5
26111,50108,5
26112,50108,4
26108,50105,5
26106,50107,5
26102,50109,5
26112,50103,5
26100,50108,4
26101,50108,5
26110,50102,5
26105,50097,5
26109,50105,4
26103,50103,4
26109,50120,5
26113,50116,5
26110,50119,5
26111,50117,10
26116,50120,4
26118,50133,5
26116,50132,6
26123,50121,3
26123,50131,5
26115,50128,5
26120,50130,5
26116,50145,5
26121,50139,4
26118,50136,5
26122,50139,5
26122,50138,5
26113,50139,5
26116,50142,4
26117,50136,5
26115,50138,5
26112,50138,5
26114,50132,5
26124,50136,4
26115,50132,5
26118,50134,5
26115,50134,5
26123,50137,4
26124,50139,6
26128,50141,4
26127,50150,5
26123,50151,5
26126,50153,6
26121,50155,3
26128,50152,5
26131,50155,5
26126,50148,5
26131,50146,4
26124,50152,5
26116,50141,5
26113,50131,5
26110,50137,5
26112,50138,4
26118,50136,5
26109,50138,5
26122,50127,5
26112,50139,5
26121,50144,4
26122,50150,5
26123,50146,5
26122,50148,5
26123,50149,4
26118,50162,4
26129,50152,6
26123,50152,4
26131,50158,5
26123,50152,4
26127,50153,5
26125,50155,5
26127,50162,5
26128,50163,5
26130,50164,4
26127,50159,5
26128,50160,5
26133,50161,5
26135,50163,5
26136,50166,4
26124,50170,5
26134,50160,5
26131,50163,5
26131,50170,5
26127,50168,4
26131,50163,5
26130,50162,5
26128,50168,5
26132,50162,4
26123,50166,4
26129,50164,5
26127,50165,6
26130,50172,4
26143,50172,4
26134,50169,5
26131,50165,5
26132,50157,5
26133,50157,5
26128,50161,4
26134,50157,5
26127,50160,5
26124,50171,5
26133,50169,5
26131,50171,4
26125,50171,5
26136,50176,5
26134,50178,5
26128,50184,5
26139,50191,4
26140,50184,5
26133,50182,5
26142,50176,5
26131,50179,5
26135,50176,4
26131,50176,5
26137,50178,5
26132,50171,6
26131,50167,3
26140,50166,5
26127,50169,5
26133,50177,5
26138,50174,5
26133,50180,4
26141,50181,5
26139,50177,5
26135,50177,5
26138,50184,5
26140,50178,4
26131,50176,5
26128,50163,5
26128,50178,5
26134,50174,5
26136,50176,4
26131,50172,5
26128,50176,5
26130,50177,5
26133,50178,5
26129,50163,5
26132,50164,4
26125,50153,5
26125,50163,5
26130,50149,4
26116,50156,4
26129,50156,5
26127,50149,5
26129,50152,5
26116,50155,4
26133,50163,5
26123,50157,5
26125,50157,5
26123,50159,5
26123,50166,4
26131,50163,5
26126,50151,5
26122,50158,5
26131,50167,5
26134,50166,4
26134,50159,5
26127,50158,5
26120,50163,5
26128,50158,5
26121,50155,4
26129,50169,6
26125,50157,4
26130,50167,5
26125,50164,4
26121,50163,4
26125,50164,5
26124,50162,5
26126,50159,5
26130,50158,4
26126,50159,5
26126,50166,5
26125,50160,5
26128,50163,5
26126,50162,4
26128,50160,5
26136,50161,5
26131,50157,5
26129,50161,5
26122,50158,4
26129,50147,5
26122,50149,5
26126,50157,5
26127,50156,5
26120,50150,4
26125,50150,5
26117,50146,6
26127,50158,4
26119,50157,5
26124,50159,4
26123,50152,5
26125,50158,5
26130,50155,5
26118,50159,4
26128,50157,5
26130,50167,5
26129,50153,5
26119,50165,5
26123,50160,4
26129,50161,5
26130,50152,5
26125,50156,5
26123,50152,5
26124,50149,4
26119,50145,5
26122,50150,5
26120,50154,5
26123,50144,5
26127,50143,4
26120,50144,5
26121,50147,5
26113,50151,6
26113,50138,4
26116,50145,4
26120,50146,5
26126,50152,5
26117,50155,5
26119,50145,4
26124,50154,4
26117,50149,5
26121,50147,5
26120,50149,5
26125,50158,4
26132,50151,5
26121,50143,5
26118,50141,5
26114,50141,5
26111,50138,4
26112,50120,5
26110,50133,5
26111,50128,5
26109,50123,5
26112,50121,5
26111,50122,4
26114,50121,5
26110,50117,5
26109,50132,5
26117,50128,4
26118,50126,5
26115,50126,5
26109,50116,5
26109,50130,4
26113,50127,4
26117,50130,5
26108,50133,5
26109,50119,5
26112,50133,4
26114,50120,5
26115,50135,5
26117,50130,5
26117,50137,5
26117,50138,4
26119,50140,5
26111,50133,5
26115,50124,5
26110,50128,5
26123,50124,4
26120,50128,6
26112,50130,4
26117,50132,5
26117,50127,5
26117,50139,4
26120,50123,5
26118,50132,5
26115,50135,5
26115,50131,5
26117,50126,4
26119,50125,5
26113,50133,5
26118,50148,5
26118,50125,4
26123,50127,5
26111,50132,5
26116,50118,5
26117,50127,5
26112,50133,4
26116,50123,5
26114,50127,5
26113,50132,5
26115,50126,5
26118,50130,4
26116,50134,5
26116,50137,6
26111,50131,4
26117,50139,5
26113,50132,4
26119,50137,5
26116,50127,5
26110,50134,5
26110,50130,5
26114,50137,4
26131,50138,5
26114,50129,5
26113,50136,5
26118,50132,4
26113,50126,4
26118,50127,5
26113,50123,5
26113,50118,5
26108,50121,4
26112,50118,5
26105,50111,5
26106,50116,5
26106,50117,5
26108,50120,4
26104,50113,5
26112,50118,5
26109,50119,5
26106,50117,5
26112,50119,4
26113,50127,5
26114,50123,5
26105,50114,5
26109,50119,5
26115,50125,4
26114,50134,5
26120,50138,5
26109,50132,5
26112,50121,4
26105,50128,4
26116,50121,5
26110,50122,5
26121,50119,5
26108,50115,4
26108,50112,5
26102,50112,5
26108,50103,5
26107,50104,5
26103,50108,5
26102,50108,4
26107,50103,5
26108,50100,5
26104,50101,5
26108,50097,4
26096,50098,5
26117,50111,5
26108,50100,5
26111,50117,5
26102,50107,4
26107,50108,5
26112,50101,5
26108,50111,5
26102,50116,5
26101,50111,4
26107,50115,5
26113,50118,5
26111,50110,5
26104,50106,4
26111,50122,5
26116,50119,6
26111,50117,4
26104,50112,5
26113,50111,4
26120,50117,7
26109,50121,3
26108,50122,5
26112,50126,5
26111,50124,4
26105,50116,5
26116,50123,5
26115,50125,5
26112,50119,5
26108,50124,4
26112,50126,5
26110,50124,5
26124,50119,5
26114,50117,5
26111,50127,4
26109,50122,5
26117,50121,5
26106,50115,5
26113,50115,4
26102,50118,5
26102,50114,5
26114,50109,6
26105,50116,4
26109,50113,4
26107,50116,5
26110,50117,5
26112,50116,5
26108,50116,5
26104,50119,4
26109,50118,5
26113,50121,5
26117,50115,5
26107,50113,5
26110,50118,4
26110,50109,5
26101,50117,5
26116,50123,5
26108,50111,5
26109,50117,4
26114,50121,5
26113,50123,5
26113,50122,5
26107,50122,5
26114,50112,4
26112,50121,5
26111,50126,5
26114,50125,6
26115,50117,3
26105,50122,5
26120,50119,5
26114,50111,5
26108,50118,5
26106,50121,4
26107,50125,5
26113,50120,5
26109,50119,5
26103,50115,5
26105,50123,4
26116,50110,5
26103,50108,5
26117,50120,5
26106,50117,5
26108,50111,4
26116,50113,5
26109,50123,5
26109,50111,5
26105,50108,5
26112,50107,5
26096,50098,4
26103,50094,5
26106,50099,5
26103,50098,6
26103,50096,3
26101,50097,5
26102,50100,5
26096,50102,5
26105,50102,4
26104,50107,5
26102,50115,5
26111,50109,5
26111,50113,8
26110,50108,1
26111,50110,5
26107,50115,5
26103,50118,5
26113,50111,5
26107,50120,4
26101,50103,5
26099,50109,5
26103,50097,5
26097,50092,5
26093,50088,4
26093,50086,6
26092,50086,4
26094,50081,5
26091,50077,4
26088,50078,4
26084,50078,5
26084,50070,5
26095,50073,5
26090,50080,4
26096,50075,5
26099,50086,5
26096,50077,5
26098,50082,5
26096,50087,4
26096,50083,5
26097,50085,5
26100,50093,5
26096,50082,5
26095,50094,4
26088,50089,5
26094,50089,5
26096,50083,5
26091,50085,5
26096,50085,4
26096,50087,5
26098,50086,6
26103,50083,4
26099,50070,4
26096,50079,4
26097,50084,5
26090,50086,5
26091,50081,5
26089,50079,4
26097,50081,5
26094,50084,5
26095,50079,5
26090,50085,5
26099,50088,4
26091,50081,5
26095,50084,5
26095,50081,5
26093,50079,5
26098,50076,4
26101,50087,5
26093,50083,5
26098,50083,5
26096,50086,5
26086,50085,4
26091,50089,5
26094,50082,5
26097,50083,6
26092,50081,4
26098,50081,4
26095,50084,5
26090,50092,5
26092,50085,5
26087,50087,4
26098,50090,5
26090,50089,5
26090,50078,5
26100,50084,5
26089,50084,4
26097,50085,5
26101,50086,5
26101,50093,5
26097,50087,5
26096,50085,4
26107,50085,5
26097,50097,5
26097,50091,5
26102,50091,5
26101,50089,5
26104,50092,4
26106,50089,5
26094,50091,5
26101,50087,5
26100,50096,4
26096,50085,5
26102,50093,5
26100,50080,5
26099,50088,4
26098,50086,4
26103,50087,5
26101,50088,5
26104,50083,5
26090,50084,4
26097,50087,5
26095,50084,5
26096,50083,5
26089,50081,5
26099,50081,4
26084,50083,5
26086,50083,5
26093,50078,5
26094,50071,5
26093,50077,4
26091,50080,6
26102,50078,4
26099,50088,5
26093,50083,5
26098,50079,4
26096,50089,5
26095,50086,5
26106,50086,5
26101,50087,5
26101,50083,4
26100,50090,5
26092,50090,5
26102,50084,5
26097,50086,4
26095,50093,5
26094,50085,5
26090,50083,5
26098,50075,5
26092,50078,4
26089,50071,5
26089,50067,5
26084,50069,5
26088,50062,5
26087,50060,4
26079,50053,5
26079,50048,6
26080,50043,4
26073,50046,5
26071,50042,4
26075,50044,5
26074,50039,5
26083,50036,5
26073,50051,5
26081,50065,4
26090,50068,5
26086,50057,5
26090,50064,5
26088,50065,4
26086,50066,5
26077,50056,5
26080,50060,5
26081,50064,5
26091,50054,4
26088,50057,5
26088,50066,5
26089,50067,5
26090,50062,5
26087,50072,4
26094,50072,5
26088,50074,5
26095,50078,6
26099,50081,4
26094,50085,4
26089,50088,5
26102,50098,5
26094,50097,5
26107,50103,5
26102,50093,4
26117,50098,5
26104,50096,5
26106,50098,5
26101,50092,4
26102,50093,4
26105,50097,5
26109,50098,5
26105,50109,5
26114,50107,4
26116,50113,5
26114,50121,5
26119,50106,5
26118,50128,5
26117,50117,5
26118,50115,4
26114,50122,5
26111,50124,5
26112,50125,5
26121,50122,4
26118,50125,5
26113,50128,5
26114,50130,5
26118,50137,5
26122,50141,4
26119,50149,5
26125,50148,5
26125,50146,5
26123,50147,5
26123,50141,4
26123,50143,5
26128,50145,5
26121,50137,5
26126,50137,4
26133,50141,5
26124,50133,5
26126,50139,5
26129,50137,5
26127,50134,4
26126,50143,6
26129,50138,4
26121,50141,5
26122,50154,5
26129,50157,4
26126,50154,5
26132,50164,5
26129,50154,5
26131,50153,5
26134,50166,4
26137,50175,5
26131,50176,5
26140,50166,5
26136,50171,5
26137,50172,4
26145,50172,5
26147,50178,5
26128,50162,5
26134,50163,4
26132,50163,4
26130,50162,5
26119,50151,5
26130,50148,5
26127,50147,4
26131,50151,5
26124,50154,6
26136,50155,4
26130,50165,5
26128,50162,4
26138,50162,5
26125,50158,5
26137,50164,5
26141,50177,5
26138,50169,4
26145,50174,5
26136,50186,5
26139,50180,5
26147,50185,5
26145,50187,4
26148,50194,5
26154,50195,5
26152,50192,5
26146,50202,4
26150,50201,4
26152,50196,5
26140,50185,5
26144,50187,5
26138,50190,4
26145,50192,5
26136,50190,5
26149,50200,5
26143,50198,5
26143,50200,4
26147,50207,5
26150,50211,5
26152,50215,5
26150,50221,5
26157,50210,4
26159,50223,5
26160,50218,5
26151,50226,5
26148,50214,5
26157,50217,4
26148,50217,5
26149,50217,5
26162,50218,5
26154,50215,5
26158,50226,5
26157,50229,4
26162,50243,5
26166,50246,5
26170,50253,6
26170,50251,3
26166,50249,5
26176,50255,5
26164,50260,5
26169,50251,4
26165,50250,5
26169,50260,5
26166,50254,5
26169,50263,5
26167,50246,4
26168,50246,5
26170,50244,5
26167,50250,5
26167,50252,5
26168,50241,4
26165,50245,5
26170,50246,5
26164,50257,5
26178,50250,5
26167,50250,4
26169,50245,6
26165,50256,4
26171,50256,5
26170,50261,4
26167,50250,6
26165,50250,3
26165,50249,5
26169,50244,5
26171,50250,4
26170,50251,5
26165,50243,5
26172,50244,5
26164,50250,5
26169,50243,4
26166,50231,5
26165,50239,5
26160,50237,5
26157,50228,5
26153,50222,4
26155,50215,5
26155,50220,5
26156,50216,5
26154,50221,5
26161,50219,4
26158,50229,5
26158,50225,6
26166,50235,4
26168,50234,4
26151,50224,4
26158,50234,5
26152,50237,5
26166,50235,5
26160,50241,4
26174,50239,5
26154,50227,5
26159,50245,5
26170,50239,5
26165,50238,4
26162,50239,5
26156,50231,5
26166,50241,5
26162,50228,5
26162,50238,4
26159,50234,5
26161,50246,5
26162,50240,5
26157,50241,5
26167,50242,4
26165,50248,5
26159,50241,5
26164,50234,6
26154,50242,4
26163,50241,4
26156,50238,5
26162,50232,5
26162,50233,5
26151,50234,4
26151,50235,5
26157,50233,5
26155,50235,5
26161,50237,5
26161,50235,4
26159,50236,5
26154,50244,5
26154,50243,5
26165,50241,5
26165,50237,4
26165,50239,5
26165,50238,5
26164,50243,5
26165,50240,5
26163,50240,5
26164,50246,4
26166,50251,5
26168,50235,5
26171,50248,6
26171,50244,3
26166,50245,5
26165,50240,5
26162,50240,5
26161,50240,4
26154,50235,4
26151,50227,5
26154,50235,5
26156,50230,5
26159,50236,4
26160,50229,5
26164,50237,5
26152,50243,5
26154,50236,5
26165,50247,4
26156,50237,5
26161,50256,5
26164,50252,5
26159,50240,5
26157,50246,4
26170,50245,6
26162,50233,4
26161,50230,5
26156,50228,5
26152,50225,4
26161,50229,5
26151,50232,5
26158,50228,5
26165,50233,4
26152,50224,4
26161,50224,5
26154,50227,5
26160,50224,5
26157,50225,4
26156,50224,5
26155,50219,5
26158,50233,5
26154,50230,5
26160,50228,4
26156,50236,5
26154,50230,5
26154,50224,5
26150,50226,5
26158,50224,4
26153,50231,5
26161,50222,11
26161,50222,4
26155,50226,4
26154,50221,5
26158,50233,5
26160,50236,5
26161,50229,5
26158,50238,4
26151,50228,5
26161,50232,5
26161,50221,5
26158,50232,4
26152,50218,5
26164,50215,5
26145,50220,5
26147,50218,5
26146,50222,4
26145,50224,5
26152,50220,5
26149,50211,5
26150,50203,5
26148,50208,4
26150,50211,5
26149,50200,5
26146,50203,6
26142,50205,4
26141,50199,4
26154,50207,5
26144,50198,5
26148,50209,5
26149,50196,5
26153,50201,4
26150,50206,5
26146,50216,5
26142,50207,5
26154,50215,4
26155,50212,4
26145,50209,5
26149,50211,5
26150,50208,5
26149,50207,4
26143,50218,5
26152,50208,5
26150,50212,5
26154,50212,5
26140,50205,5
26148,50210,4
26150,50208,5
26144,50206,5
26141,50198,5
26152,50203,4
26151,50207,5
26151,50204,5
26150,50216,5
26154,50216,5
26148,50209,4
26156,50226,5
26156,50223,5
26161,50237,5
26166,50234,4
26160,50239,4
26163,50235,5
26170,50248,5
26164,50240,5
26157,50243,4
26163,50240,5
26156,50238,5
26156,50227,5
26159,50225,5
26154,50217,4
26155,50224,6
26149,50216,4
26157,50211,5
26150,50204,5
26146,50203,4
26143,50212,5
26144,50205,5
26153,50202,5
26154,50209,5
26153,50209,4
26148,50213,5
26151,50220,5
26152,50219,5
26158,50217,5
26155,50219,4
26151,50228,5
26148,50221,5
26151,50226,5
26160,50226,4
26151,50221,5
26152,50221,5
26152,50216,5
26155,50218,5
26161,50216,4
26152,50213,5
26157,50216,6
26146,50212,4
26151,50221,5
26140,50203,4
26147,50211,5
26153,50217,5
26152,50217,5
26155,50210,5
26152,50213,4
26154,50212,5
26150,50210,5
26152,50199,5
26145,50201,5
26153,50205,4
26147,50215,5
26150,50215,5
26150,50208,5
26144,50210,4
26153,50220,4
26151,50219,5
26155,50208,5
26143,50210,5
26154,50218,4
26154,50209,5
26154,50214,5
26155,50214,5
26147,50209,5
26156,50214,4
26153,50207,5
26152,50205,5
26152,50208,5
26148,50210,5
26150,50214,4
26153,50210,5
26148,50215,5
26151,50218,5
26154,50214,5
26151,50222,4
26154,50213,5
26149,50207,5
26149,50206,5
26155,50216,4
26157,50218,4
26151,50221,5
26148,50218,5
26156,50214,5
26154,50208,5
26152,50208,4
26148,50203,5
26150,50197,5
26149,50208,5
26147,50196,4
26148,50206,5
26152,50207,5
26143,50198,5
26145,50203,5
26149,50203,4
26156,50213,5
26151,50214,5
26157,50219,5
26154,50206,5
26154,50219,4
26142,50213,5
26152,50223,5
26148,50216,5
26166,50222,4
26156,50217,4
26157,50216,5
26157,50218,5
26158,50221,5
26149,50221,4
26147,50213,6
26147,50200,4
26145,50197,5
26140,50197,5
26136,50197,4
26143,50200,5
26151,50193,5
26143,50194,5
26143,50199,5
26143,50189,4
26138,50189,5
26146,50191,5
26143,50190,5
26148,50196,5
26145,50205,4
26140,50203,5
26150,50213,5
26149,50201,5
26145,50204,5
26151,50204,4
26155,50200,5
26152,50213,5
26145,50215,5
26163,50207,4
26151,50208,5
26150,50210,6
26160,50209,4
26155,50211,5
26148,50210,4
26150,50198,5
26139,50199,5
26145,50200,5
26148,50198,5
26154,50205,4
26146,50200,5
26151,50214,5
26144,50211,5
26156,50216,5
26147,50216,4
26155,50219,5
26152,50202,5
26159,50215,5
26153,50209,5
26148,50207,4
26151,50202,5
26149,50217,5
26153,50210,6
26154,50218,3
26153,50211,5
26156,50212,5
26152,50209,5
26153,50215,5
26156,50219,4
26156,50215,5
26152,50224,5
26160,50220,5
26149,50217,5
26155,50213,4
26156,50207,5
26147,50203,5
26153,50213,5
26150,50211,5
26161,50228,4
26152,50220,5
26154,50220,5
26161,50227,5
26157,50225,5
26156,50230,5
26162,50235,4
26166,50237,5
26161,50250,5
26171,50250,6
26170,50246,3
26166,50254,5
26174,50257,5
26179,50248,5
26171,50254,4
26169,50252,5
26176,50256,5
26174,50244,5
26169,50253,5
26162,50241,4
26169,50247,5
26167,50248,5
26169,50251,5
26167,50247,5
26165,50244,4
26173,50241,5
26164,50245,5
26168,50244,5
26166,50249,5
26159,50241,4
26165,50245,6
26171,50239,4
26167,50241,5
26162,50244,5
26178,50229,6
26165,50238,3
26161,50240,5
26166,50245,5
26168,50241,4
26170,50244,5
26173,50250,5
26173,50249,5
26164,50251,5
26175,50250,4
26172,50260,5
26166,50256,5
26170,50252,5
26173,50254,5
26176,50246,4
26168,50235,5
26162,50239,5
26165,50229,5
26165,50232,5
26150,50219,4
26160,50223,5
26154,50222,6
26153,50213,4
26162,50211,5
26162,50213,4
26151,50219,5
26148,50221,5
26152,50225,5
26161,50221,4
26158,50219,5
26158,50222,5
26150,50230,5
26161,50223,5
26164,50216,4
26149,50224,5
26162,50226,5
26166,50223,5
26157,50229,5
26159,50220,4
26154,50217,5
26159,50218,5
26161,50207,5
26153,50215,5
26152,50220,4
26152,50222,5
26157,50220,5
26159,50225,6
26161,50226,4
26162,50215,4
26151,50217,5
26157,50224,5
26165,50219,5
26154,50217,4
26156,50225,4
26152,50206,5
26151,50209,5
26153,50212,5
26156,50215,4
26152,50220,5
26150,50217,5
26151,50221,5
26154,50212,5
26161,50213,4
26154,50223,5
26155,50215,5
26160,50216,5
26155,50224,5
26158,50221,5
26159,50217,4
26154,50225,5
26155,50220,5
26158,50213,6
26160,50217,3
26160,50217,5
26162,50224,5
26159,50231,5
26157,50225,4
26163,50219,4
26152,50216,5
26158,50217,5
26156,50227,5
26159,50228,4
26159,50217,5
26158,50223,5
26163,50232,5
26160,50224,5
26160,50230,4
26151,50229,5
26154,50232,5
26166,50228,5
26162,50221,5
26162,50221,4
26156,50230,6
26162,50233,4
26162,50237,5
26155,50232,5
26158,50235,4
26165,50232,5
26168,50225,5
26159,50224,5
26165,50234,5
26158,50231,4
26167,50233,5
26163,50233,5
26166,50233,5
26160,50227,4
26154,50228,5
26163,50225,5
26156,50217,5
26152,50220,5
26155,50219,4
26166,50214,5
26156,50211,5
26161,50216,5
26158,50224,5
26158,50213,4
26152,50215,5
26155,50216,6
26149,50222,4
26155,50215,5
26162,50226,4
26161,50219,5
26153,50221,5
26150,50224,5
26161,50227,5
26156,50228,4
26158,50221,5
26147,50216,5
26163,50217,5
26155,50221,4
26151,50216,4
26146,50211,5
26145,50209,5
26146,50198,5
26141,50206,4
26148,50200,5
26145,50197,5
26148,50197,5
26135,50196,5
26144,50202,4
26150,50205,5
26143,50203,5
26150,50211,6
26152,50206,4
26156,50216,4
26155,50229,5
26150,50217,5
26156,50210,5
26154,50216,5
26157,50219,4
26157,50224,5
26157,50218,5
26161,50224,5
26154,50224,4
26149,50226,4
26154,50229,9
26156,50234,1
26164,50231,5
26155,50249,4
26174,50231,5
26161,50232,5
26161,50220,5
26164,50233,5
26159,50229,5
26164,50230,4
26166,50234,5
26154,50231,5
26159,50237,5
26166,50237,4
26161,50248,5
26172,50241,5
26160,50247,5
26168,50255,5
26172,50261,4
26175,50260,5
26175,50254,5
26180,50252,5
26162,50250,4
26169,50243,4
26164,50250,5
26170,50257,5
26164,50245,5
26168,50245,4
26163,50254,5
26178,50260,5
26175,50271,5
26188,50284,5
26193,50288,4
26188,50284,6
26180,50283,4
26184,50281,5
26196,50289,5
26189,50301,4
26192,50295,5
26196,50306,5
26188,50308,5
26190,50317,5
26201,50327,4
26201,50327,5
26201,50328,5
26203,50319,5
26202,50323,5
26196,50320,4
26192,50313,5
26200,50314,5
26198,50319,5
26197,50310,4
26188,50312,5
26194,50303,5
26198,50304,5
26187,50309,5
26198,50308,4
26196,50311,5
26201,50316,6
26193,50313,4
26197,50310,5
26193,50306,4
26190,50306,5
26191,50307,5
26193,50307,5
26196,50328,5
26197,50314,4
26201,50327,5
26200,50328,5
26206,50333,5
26206,50336,5
26206,50340,4
26205,50338,5
26206,50335,5
26202,50320,5
26202,50312,4
26202,50305,5
26190,50314,5
26196,50323,5
26200,50312,5
26201,50316,4
26196,50315,5
26192,50316,5
26196,50310,5
26193,50315,5
26199,50322,4
26197,50318,5
26203,50326,5
26204,50331,5
26206,50327,5
26200,50336,4
26216,50330,5
26209,50348,5
26214,50346,5
26215,50342,5
26215,50344,4
26214,50351,5
26211,50349,5
26214,50344,5
26207,50342,4
26204,50331,4
26206,50340,5
26208,50354,5
26216,50352,5
26218,50360,5
26213,50364,4
26220,50365,5
26218,50371,5
26219,50379,5
26227,50381,4
26228,50378,5
26226,50371,5
26223,50370,5
26221,50373,5
26220,50368,4
26223,50372,5
26234,50369,5
26220,50367,5
26219,50374,5
26226,50382,4
26219,50371,5
26231,50384,5
26225,50397,5
26222,50396,4
26231,50390,4
26222,50392,5
26223,50384,5
26220,50385,5
26229,50387,4
26223,50390,6
26230,50399,4
26234,50412,5
26238,50411,5
26245,50408,4
26237,50417,5
26236,50420,5
26245,50413,5
26235,50421,5
26242,50415,4
26239,50411,5
26243,50417,5
26241,50412,5
26235,50416,5
26234,50399,4
26237,50408,5
26236,50417,5
26241,50402,5
26241,50405,5
26234,50420,4
26239,50405,5
26237,50405,5
26233,50402,4
26236,50414,4
26228,50410,5
26232,50400,5
26228,50413,5
26244,50400,5
26236,50397,4
26231,50390,5
26227,50392,5
26228,50399,5
26230,50399,5
26219,50396,4
26220,50389,5
26230,50390,5
26221,50370,5
26208,50372,5
26219,50362,4
26212,50352,5
26208,50347,5
26212,50352,5
26204,50344,5
26214,50358,4
26211,50358,5
26205,50354,5
26207,50367,6
26214,50358,3
26218,50357,5
26217,50357,5
26220,50361,5
26209,50360,5
26216,50376,4
26224,50357,5
26215,50368,5
26211,50365,5
26217,50368,5
26216,50376,4
26217,50371,5
26218,50365,5
26211,50372,5
26211,50376,5
26225,50374,4
26213,50385,5
26214,50376,5
26222,50379,5
26225,50384,5
26227,50389,5
26222,50395,4
26224,50397,5
26231,50399,5
26228,50397,6
26231,50394,3
26230,50393,5
26229,50390,5
26223,50382,5
26230,50388,4
26225,50387,5
26221,50385,5
26222,50386,5
26225,50385,5
26225,50384,4
26226,50388,5
26217,50380,5
26217,50390,5
26222,50381,5
26226,50390,4
26230,50386,5
26226,50397,5
26235,50400,5
26228,50393,5
26229,50394,4
26236,50395,6
26226,50392,4
26231,50391,5
26234,50400,4
26223,50399,6
26231,50395,3
26223,50397,5
26239,50390,5
26222,50407,4
26229,50391,5
26221,50393,5
26224,50384,5
26228,50391,5
26220,50383,4
26222,50373,5
26215,50376,5
26220,50380,5
26225,50370,5
26216,50382,4
26219,50374,5
26223,50375,5
26216,50371,5
26225,50380,5
26221,50376,4
26227,50377,5
26221,50373,6
26214,50383,4
26220,50382,4
26218,50376,4
26225,50378,5
26220,50370,5
26209,50353,5
26210,50359,4
26208,50347,5
26207,50344,5
26209,50333,5
26199,50336,5
26196,50333,4
26197,50341,5
26198,50343,5
26206,50338,5
26210,50345,5
26202,50340,4
26205,50347,5
26205,50350,5
26208,50344,5
26202,50347,5
26201,50346,4
26202,50341,5
26211,50347,5
26205,50351,6
26201,50347,4
26203,50347,4
26204,50342,5
26210,50338,5
26207,50346,5
26207,50339,4
26205,50344,5
26204,50343,5
26195,50346,5
26205,50350,5
26206,50346,4
26211,50347,5
26197,50352,5
26207,50350,5
26200,50338,5
26207,50351,4
26194,50349,5
26208,50342,5
26205,50341,5
26213,50344,5
26207,50350,5
26199,50344,4
26203,50343,5
26213,50343,5
26206,50335,6
26203,50335,3
26202,50341,5
26193,50335,5
26203,50339,5
26206,50345,4
26197,50331,5
26204,50335,5
26197,50342,5
26208,50336,5
26202,50341,4
26195,50341,5
26196,50326,5
26197,50330,5
26201,50334,5
26193,50333,4
26201,50330,5
26203,50332,5
26204,50332,5
26200,50329,5
26198,50335,4
26201,50334,6
26200,50335,4
26202,50334,5
26205,50331,5
26202,50330,4
26200,50323,5
26204,50319,5
26190,50319,5
26186,50319,4
26194,50313,4
26191,50309,5
26190,50310,5
26190,50318,5
26186,50310,4
26188,50308,5
26187,50313,5
26195,50322,5
26196,50319,5
26194,50325,4
26192,50316,5
26195,50322,5
26199,50321,5
26200,50325,5
26192,50322,4
26195,50320,5
26190,50314,6
26194,50317,4
26198,50313,5
26192,50303,4
26186,50300,5
26186,50297,5
26183,50280,5
26174,50286,4
26177,50287,4
26176,50281,5
26173,50283,5
26177,50269,5
26179,50281,4
26179,50282,5
26171,50277,5
26179,50277,5
26176,50270,5
26177,50276,4
26175,50287,5
26172,50275,5
26175,50288,5
26182,50286,5
26184,50279,4
26175,50282,5
26170,50282,5
26180,50288,6
26167,50271,4
26175,50283,4
26170,50279,5
26178,50288,5
26188,50283,5
26180,50286,5
26176,50286,4
26185,50282,5
26179,50289,5
26176,50290,5
26180,50284,4
26176,50294,5
26186,50291,5
26182,50296,5
26185,50297,5
26179,50285,4
26186,50287,5
26182,50288,5
26179,50286,5
26184,50283,5
26179,50278,5
26175,50279,4
26176,50285,5
26179,50285,5
26183,50288,5
26175,50289,4
26178,50277,5
26182,50287,5
26180,50281,5
26174,50285,5
26182,50285,4
26182,50293,5
26179,50293,5
26186,50295,5
26186,50290,4
26185,50292,5
26182,50300,5
26183,50300,5
26187,50301,5
26178,50296,4
26196,50302,5
26189,50304,5
26187,50302,5
26181,50300,5
26190,50305,4
26186,50296,6
26180,50290,4
26188,50296,5
26177,50293,5
26185,50295,4
26184,50294,7
26185,50284,3
26176,50286,5
26184,50278,5
26183,50285,4
26178,50278,5
26175,50278,5
26175,50271,5
26187,50267,4
26180,50289,4
26182,50280,5
26175,50285,5
26192,50284,5
26187,50299,4
26189,50298,5
26191,50310,5
26193,50312,5
26189,50299,5
26190,50302,4
26194,50299,5
26187,50302,6
26194,50301,4
26185,50302,5
26190,50292,4
26185,50287,5
26186,50276,5
26176,50271,5
26177,50266,5
26177,50267,4
26165,50269,5
26169,50253,5
26169,50251,5
26169,50267,4
26169,50262,4
26174,50257,5
26163,50263,5
26175,50257,5
26176,50267,4
26172,50266,5
26168,50263,5
26166,50266,5
26177,50275,5
26183,50276,4
26173,50269,5
26176,50280,5
26174,50268,5
26178,50283,5
26178,50280,4
26178,50279,5
26180,50284,5
26175,50282,5
26186,50279,5
26177,50284,4
26185,50287,5
26187,50290,5
26184,50283,5
26186,50281,4
26181,50281,4
26181,50283,5
26181,50280,5
26181,50272,5
26174,50279,4
26185,50274,5
26192,50284,5
26185,50286,5
26176,50272,5
26183,50284,5
26173,50275,4
26178,50279,5
26181,50277,5
26186,50271,5
26181,50278,4
26178,50280,5
26172,50276,5
26181,50272,5
26183,50284,5
26176,50279,4
26182,50271,5
26176,50278,5
26179,50272,5
26174,50271,5
26178,50275,4
26181,50278,5
26177,50276,5
26180,50280,5
26176,50285,4
26182,50280,5
26178,50278,5
26183,50281,5
26179,50280,5
26173,50274,4
26186,50276,6
26182,50279,3
26182,50278,5
26184,50287,5
26178,50277,4
26176,50291,5
26171,50288,5
26180,50285,5
26175,50291,5
26185,50288,4
26185,50286,5
26174,50277,5
26184,50285,5
26170,50281,5
26169,50276,4
26175,50272,5
26174,50273,5
26171,50271,5
26174,50266,4
26171,50259,5
26176,50264,5
26175,50261,6
26174,50261,4
26177,50261,4
26177,50270,5
26166,50271,5
26178,50275,5
26179,50288,5
26178,50277,4
26178,50279,5
26187,50283,5
26171,50289,5
26174,50281,5
26179,50284,4
26179,50285,5
26187,50287,5
26187,50288,5
26187,50287,5
26187,50275,4
26173,50269,5
26161,50272,5
26161,50255,5
26173,50261,5
26168,50256,4
26169,50253,5
26163,50237,5
26160,50245,6
26163,50246,3
26158,50233,5
26159,50241,5
26168,50242,5
26164,50242,5
26167,50242,4
26165,50252,5
26163,50245,5
26164,50243,5
26168,50250,5
26161,50255,4
26164,50242,5
26164,50249,5
26159,50249,5
26167,50250,5
26167,50245,4
26169,50249,5
26172,50242,5
26154,50252,5
26169,50244,5
26157,50240,5
26172,50246,4
26162,50248,5
26162,50241,5
26161,50250,6
26164,50244,3
26160,50255,5
26160,50248,5
26168,50249,5
26160,50248,4
26157,50247,5
26163,50247,5
26162,50245,5
26163,50239,5
26162,50245,4
26166,50240,5
26166,50239,5
26162,50234,5
26159,50243,5
26164,50245,4
26160,50244,5
26163,50236,5
26170,50243,5
26164,50243,5
26159,50240,4
26157,50228,6
26159,50237,4
26155,50228,5
26161,50232,4
26165,50237,5
26155,50224,5
26152,50239,5
26163,50237,5
26161,50236,4
26160,50238,5
26162,50231,5
26158,50232,5
26166,50244,5
26159,50244,4
26166,50247,5
26165,50238,5
26161,50237,5
26160,50244,5
26157,50243,4
26167,50242,5
26156,50241,5
26167,50238,5
26159,50238,5
26157,50231,4
26163,50239,5
26155,50243,6
26158,50238,4
26158,50231,4
26163,50225,4
26161,50245,5
26159,50239,5
26163,50231,5
26158,50235,4
26161,50227,5
26163,50246,5
26164,50235,5
26154,50241,5
26157,50234,4
26153,50229,5
26158,50231,5
26160,50232,5
26149,50235,5
26146,50220,4
26155,50231,5
26150,50225,5
26149,50224,5
26150,50217,5
26150,50222,4
26150,50222,5
26158,50224,5
26160,50231,6
26149,50235,3
26157,50232,4
26160,50239,5
26154,50247,5
26165,50245,5
26159,50241,4
26168,50245,5
26162,50234,5
26160,50244,5
26158,50231,5
26160,50230,4
26153,50224,5
26141,50226,5
26143,50203,5
26137,50181,5
26138,50173,4
26131,50152,5
26118,50155,5
26128,50159,5
26124,50159,5
26122,50168,5
26122,50167,4
26127,50175,5
26127,50174,5
26126,50175,5
26132,50161,4
26124,50165,5
26130,50162,5
26131,50161,5
26132,50168,4
26130,50160,5
26127,50162,5
26124,50166,5
26118,50164,5
26129,50158,4
26128,50165,5
26128,50166,5
26121,50159,5
26127,50168,5
26126,50166,4
26132,50175,5
26129,50174,5
26133,50183,5
26133,50188,5
26133,50186,4
26141,50192,6
26140,50197,4
26146,50204,5
26148,50205,5
26141,50207,4
26143,50195,5
26141,50194,5
26142,50204,5
26138,50189,4
26137,50190,5
26135,50193,5
26139,50190,5
26140,50190,5
26137,50200,4
26145,50189,5
26133,50189,5
26132,50190,5
26132,50191,5
26141,50185,4
26137,50189,5
26152,50203,5
26151,50206,5
26153,50219,5
26150,50215,4
26153,50214,5
26145,50217,6
26148,50221,4
26146,50220,5
26164,50216,4
26147,50212,5
26153,50218,5
26148,50221,5
26156,50210,4
26148,50211,4
26144,50223,5
26147,50225,5
26151,50223,5
26154,50221,4
26145,50222,5
26159,50223,5
26156,50220,5
26156,50217,5
26155,50225,4
26154,50217,5
26144,50218,5
26151,50204,5
26147,50211,5
26147,50204,4
26153,50218,5
26147,50226,5
26158,50228,6
26153,50230,4
26160,50243,4
26162,50240,5
26155,50245,5
26161,50246,5
26158,50246,4
26152,50244,4
26151,50234,5
26159,50220,5
26147,50211,5
26151,50212,4
26142,50216,5
26147,50211,5
26154,50212,5
26148,50206,5
26147,50220,4
26146,50208,5
26141,50198,5
26139,50192,5
26148,50197,5
26151,50212,5
26148,50202,4
26146,50206,5
26145,50211,5
26147,50212,5
26143,50208,4
26152,50208,5
26152,50211,5
26144,50223,5
26155,50203,5
26145,50207,4
26149,50220,5
26158,50216,5
26158,50226,5
26153,50225,4
26156,50231,5
26158,50235,5
26159,50233,5
26154,50231,5
26149,50215,4
26153,50223,5
26151,50220,5
26149,50222,5
26169,50232,5
26164,50241,4
26163,50246,6
26163,50236,4
26156,50231,5
26159,50220,5
26151,50237,4
26148,50233,5
26160,50230,5
26154,50243,5
26164,50236,5
26156,50252,4
26165,50233,5
26165,50245,5
26163,50244,5
26162,50245,4
26165,50247,4
26162,50252,5
26163,50240,5
26163,50260,5
26161,50254,4
26167,50270,5
26172,50275,5
26175,50276,5
26168,50273,5
26177,50277,4
26175,50270,5
26170,50267,6
26176,50269,4
26172,50278,5
26179,50297,4
26178,50278,5
26181,50279,5
26181,50281,5
26175,50282,5
26181,50282,4
26175,50279,5
26185,50277,5
26176,50277,5
26176,50283,4
26179,50278,4
26179,50274,5
26182,50277,5
26175,50271,5
26176,50262,9
26170,50278,0
26180,50280,5
26177,50264,5
26168,50274,5
26172,50280,4
26173,50285,5
26170,50285,5
26181,50281,5
26177,50286,5
26177,50284,4
26175,50276,5
26167,50270,5
26161,50266,5
26159,50260,5
26162,50260,4
26160,50255,5
26161,50254,5
26162,50259,5
26167,50255,4
26159,50264,4
26159,50254,5
26169,50253,5
26164,50251,5
26164,50251,4
26160,50263,5
26169,50261,5
26159,50268,5
26167,50269,5
26174,50276,5
26164,50275,4
26171,50281,5
26180,50282,5
26181,50278,5
26174,50285,4
26175,50287,5
26174,50284,5
26178,50283,5
26176,50281,5
26183,50283,4
26177,50284,5
26173,50296,5
26178,50288,5
26174,50276,5
26175,50296,4
26180,50279,5
26172,50278,5
26174,50274,5
26173,50274,4
26172,50278,5
26166,50276,6
26176,50280,4
26180,50284,5
26175,50278,4
26174,50282,7
26175,50284,3
26170,50273,5
26167,50267,5
26175,50274,4
26168,50274,5
26170,50265,5
26170,50269,5
26179,50283,5
26175,50273,4
26174,50283,5
26171,50286,5
26164,50274,5
26173,50278,5
26170,50273,4
26174,50263,5
26177,50263,5
26174,50269,5
26175,50270,4
26166,50270,5
26169,50270,5
26174,50266,6
26158,50261,4
26161,50254,4
26173,50250,5
26162,50251,5
26162,50261,5
26172,50252,5
26162,50253,4
26168,50255,5
26165,50254,5
26161,50257,5
26168,50261,5
26166,50254,4
26163,50262,5
26170,50261,5
26172,50261,5
26169,50253,5
26162,50255,4
26162,50263,5
26166,50248,5
26160,50250,5
26156,50237,5
26157,50240,4
26154,50225,5
26144,50217,5
26153,50212,6
26148,50208,3
26146,50215,5
26152,50208,5
26143,50204,5
26140,50217,5
26148,50215,4
26148,50217,5
26141,50220,5
26147,50223,5
26154,50229,5
26148,50233,4
26148,50230,5
26158,50229,5
26146,50224,5
26155,50225,5
26151,50225,4
26153,50221,5
26149,50219,5
26146,50214,5
26148,50215,4
26147,50221,5
26152,50214,4
26147,50228,5
26148,50219,5
26150,50218,6
26153,50212,3
26141,50223,5
26155,50210,5
26155,50217,5
26148,50215,4
26148,50215,5
26147,50214,5
26153,50217,5
26148,50220,5
26147,50214,4
26148,50212,5
26143,50224,5
26146,50213,5
26149,50205,5
26141,50212,4
26148,50218,5
26157,50205,5
26147,50213,5
26146,50212,5
26149,50209,4
26146,50207,6
26140,50204,4
26143,50202,5
26146,50216,4
26146,50209,5
26144,50211,5
26150,50217,5
26150,50212,5
26150,50221,4
26150,50214,5
26147,50214,5
26143,50208,5
26150,50206,5
26141,50210,4
26142,50205,5
26144,50214,5
26143,50207,5
26145,50206,5
26145,50206,4
26140,50198,5
26132,50200,5
26140,50202,5
26137,50199,5
26144,50192,4
26134,50194,5
26134,50200,6
26134,50200,4
26136,50201,4
26137,50202,5
26143,50203,5
26148,50207,5
26144,50207,5
26150,50207,4
26148,50215,5
26144,50218,5
26147,50217,5
26146,50208,5
26150,50217,4
26153,50216,5
26142,50205,5
26151,50211,5
26146,50209,5
26135,50204,4
26146,50193,5
26135,50194,5
26139,50179,5
26125,50179,5
26123,50165,4
26129,50173,5
26125,50177,5
26132,50177,6
26128,50170,3
26129,50171,5
26134,50175,5
26127,50179,5
26136,50184,5
26132,50179,4
26137,50183,5
26132,50180,5
26135,50185,5
26132,50179,5
26135,50184,4
26138,50188,5
26139,50184,5
26145,50191,5
26133,50184,5
26135,50180,4
26137,50183,5
26135,50189,5
26132,50184,5
26137,50177,5
26136,50185,5
26133,50182,4
26133,50182,5
26135,50178,5
26132,50185,4
26142,50187,4
26137,50179,5
26141,50184,5
26130,50183,5
26135,50188,4
26133,50185,5
26137,50192,5
26141,50194,5
26129,50197,5
26140,50190,4
26133,50193,5
26141,50193,5
26135,50197,5
26142,50195,5
26141,50190,4
26140,50192,5
26139,50194,5
26142,50188,5
26133,50196,5
26146,50194,4
26137,50190,6
26140,50192,4
26138,50201,5
26144,50196,4
26135,50189,4
26136,50200,5
26137,50204,5
26140,50196,5
26142,50198,4
26141,50207,5
26149,50201,5
26148,50210,5
26146,50199,5
26147,50209,4
26144,50210,5
26144,50209,5
26144,50211,5
26147,50207,5
26147,50201,4
26145,50196,5
26140,50192,5
26144,50201,5
26144,50184,5
26136,50192,4
26144,50186,5
26135,50191,6
26145,50197,4
26140,50196,5
26149,50197,4
26141,50198,5
26148,50197,5
26145,50205,5
26145,50207,4
26150,50206,5
26146,50213,5
26151,50217,5
26148,50212,5
26154,50219,4
26157,50212,5
26154,50214,5
26155,50217,5
26145,50207,5
26147,50208,4
26142,50203,5
26138,50192,5
26142,50193,5
26138,50183,5
26127,50182,4
26129,50184,5
26128,50185,5
26133,50184,5
26132,50181,5
26135,50180,4
26135,50179,5
26137,50186,5
26141,50176,5
26135,50179,4
26133,50177,5
26130,50181,5
26133,50179,5
26123,50194,5
26135,50187,4
26142,50187,5
26136,50184,5
26136,50190,5
26136,50177,5
26133,50194,4
26139,50180,5
26139,50194,5
26139,50183,5
26137,50193,5
26136,50187,5
26141,50184,4
26132,50197,5
26144,50189,5
26139,50193,5
26144,50187,4
26135,50184,5
26141,50187,5
26138,50184,5
26132,50190,4
26139,50180,4
26138,50177,5
26140,50182,5
26137,50187,5
26134,50179,4
26133,50175,5
26137,50180,5
26140,50182,5
26129,50177,5
26133,50185,4
26135,50177,5
26136,50174,5
26138,50178,5
26135,50178,5
26128,50170,4
26128,50176,6
26129,50169,4
26135,50173,5
26132,50185,5
26130,50184,4
26139,50185,5
26134,50175,5
26137,50181,5
26130,50178,4
26129,50180,4
26130,50181,5
26127,50183,5
26132,50181,5
26130,50181,4
26138,50185,5
26140,50184,5
26136,50188,5
26143,50193,5
26144,50199,4
26142,50193,5
26137,50193,5
26138,50197,5
26141,50193,5
26139,50203,4
26152,50190,5
26134,50182,5
26136,50189,5
26134,50194,5
26140,50184,4
26135,50189,5
26132,50191,5
26135,50190,5
26136,50185,4
26138,50183,4
26128,50178,5
26139,50185,5
26139,50185,5
26133,50179,4
26134,50176,5
26134,50185,5
26135,50192,5
26140,50190,5
26145,50187,4
26143,50201,5
26140,50190,5
26137,50206,5
26140,50195,5
26145,50217,4
26154,50220,5
26140,50203,5
26150,50204,5
26149,50203,5
26141,50194,4
26142,50197,5
26134,50185,5
26127,50189,5
26128,50180,5
26136,50185,4
26138,50178,5
26138,50184,5
26136,50183,5
26139,50182,4
26145,50180,5
26140,50187,5
26135,50187,5
26140,50178,5
26136,50190,4
26138,50192,5
26148,50183,4
26132,50189,5
26131,50194,5
26134,50194,6
26134,50188,3
26142,50197,5
26134,50192,5
26141,50196,5
26139,50194,4
26145,50191,5
26148,50193,5
26149,50190,5
26139,50188,8
26143,50198,1
26146,50191,5
26118,50196,5
26141,50194,5
26141,50195,4
26152,50199,5
26147,50202,5
26143,50201,5
26143,50198,5
26150,50201,4
26151,50193,5
26146,50207,6
26145,50206,4
26138,50196,5
26138,50208,4
26139,50197,7
26142,50195,3
26147,50200,5
26149,50201,5
26147,50208,4
26150,50206,5
26148,50203,5
26147,50209,5
26143,50211,5
26154,50210,4
26143,50200,5
26140,50198,5
26142,50202,5
26148,50206,4
26143,50200,4
26152,50207,5
26149,50196,5
26151,50213,5
26148,50202,4
26153,50201,5
26146,50212,5
26148,50214,6
26153,50211,4
26152,50212,4
26155,50210,5
26148,50212,5
26153,50217,5
26152,50224,5
26154,50218,4
26145,50219,5
26151,50223,5
26152,50219,5
26151,50212,5
26147,50214,4
26156,50213,5
26145,50207,5
26152,50210,5
26139,50203,4
26143,50199,4
26149,50204,5
26143,50206,5
26150,50201,5
26135,50202,5
26141,50198,4
26146,50197,5
26148,50201,5
26148,50203,6
26148,50210,3
26152,50209,5
26147,50217,5
26155,50207,5
26145,50206,5
26154,50211,4
26143,50225,5
26153,50205,5
26151,50215,5
26154,50214,5
26154,50206,4
26147,50206,5
26136,50196,5
26139,50199,5
26135,50190,5
26145,50187,4
26139,50183,5
26137,50181,5
26132,50184,5
26138,50183,4
26137,50190,6
26137,50182,4
26126,50186,5
26134,50176,5
26131,50178,6
26141,50173,3
26139,50181,5
26137,50182,5
26141,50186,5
26135,50192,4
26137,50187,5
26137,50189,5
26139,50170,5
26132,50172,5
26136,50174,4
26141,50180,5
26134,50179,5
26139,50181,5
26139,50174,5
26129,50182,4
26131,50168,5
26128,50166,5
26132,50180,5
26131,50182,4
26141,50189,4
26136,50192,6
26133,50192,4
26137,50190,5
26144,50192,4
26145,50192,5
26142,50194,5
26141,50186,5
26138,50181,5
26133,50183,4
26137,50189,5
26136,50188,5
26136,50192,5
26139,50183,5
26136,50192,4
26135,50197,5
26145,50194,5
26139,50205,5
26140,50199,5
26145,50202,4
26144,50202,5
26146,50204,5
26146,50205,5
26151,50204,4
26144,50214,4
26151,50214,5
26152,50211,6
26153,50226,4
26151,50213,4
26149,50216,5
26153,50217,5
26147,50214,5
26148,50214,5
26151,50217,4
26152,50223,5
26154,50220,5
26154,50224,5
26153,50217,5
26148,50216,4
26147,50210,5
26158,50220,5
26155,50215,5
26150,50216,5
26154,50214,4
26148,50211,5
26151,50217,5
26146,50217,5
26147,50213,5
26152,50218,4
26152,50217,5
26151,50215,5
26150,50208,6
26148,50212,3
26150,50207,5
26138,50209,5
26150,50209,5
26144,50217,5
26147,50214,4
26151,50220,5
26164,50231,5
26158,50224,5
26155,50234,5
26162,50235,4
26165,50239,5
26162,50230,5
26156,50235,5
26160,50235,5
26162,50236,4
26159,50244,5
26155,50230,5
26157,50216,5
26150,50220,5
26144,50216,5
26145,50214,4
26152,50202,5
26152,50199,5
26141,50184,4
26140,50204,5
26141,50210,5
26147,50214,5
26153,50212,5
26155,50215,4
26154,50231,5
26148,50215,5
26144,50227,5
26159,50229,5
26155,50228,4
26156,50229,5
26159,50221,5
26153,50232,5
26144,50229,5
26151,50230,4
26158,50224,5
26156,50223,5
26159,50225,5
26164,50222,5
26154,50230,4
26163,50231,6
26164,50243,4
26158,50241,5
26166,50247,4
26168,50250,4
26164,50247,5
26168,50256,5
26171,50265,5
26173,50269,4
26173,50256,5
26169,50258,5
26163,50257,5
26175,50257,5
26164,50258,4
26162,50262,5
26170,50262,5
26165,50259,5
26163,50261,5
26158,50250,4
26170,50250,5
26167,50247,5
26163,50253,5
26165,50258,5
26164,50252,4
26167,50258,5
26165,50257,6
26172,50274,4
26167,50278,5
26177,50278,4
26168,50267,5
26175,50277,5
26177,50266,5
26178,50269,4
26173,50273,5
26173,50273,5
26179,50270,5
26172,50273,5
26171,50277,4
26175,50271,5
26177,50263,5
26173,50277,5
26178,50266,5
26170,50277,4
26172,50269,5
26169,50266,5
26172,50259,5
26175,50266,5
26166,50260,4
26178,50261,5
26173,50258,5
26177,50257,5
26165,50255,5
26165,50264,4
26173,50267,5
26164,50260,5
26164,50270,5
26174,50267,4
26169,50261,5
26166,50265,5
26172,50270,5
26168,50265,5
26165,50261,4
26173,50267,5
26165,50258,5
26166,50254,5
26162,50250,5
26156,50248,4
26157,50239,5
26158,50227,5
26153,50235,5
26149,50222,5
26152,50230,5
26149,50234,4
26149,50232,5
26151,50234,5
26147,50241,5
26156,50240,4
26155,50232,5
26154,50242,5
26156,50244,5
26160,50251,4
26166,50242,4
26164,50242,5
26162,50248,5
26164,50244,5
26158,50253,4
26155,50257,5
26165,50245,5
26162,50241,5
26156,50245,5
26162,50234,4
26156,50248,5
26162,50241,5
26157,50242,5
26155,50241,5
26162,50245,4
26166,50239,6
26162,50240,4
26159,50241,5
26164,50242,5
26163,50238,4
26164,50247,5
26157,50242,5
26158,50236,5
26150,50238,5
26161,50231,4
26147,50233,5
26157,50228,5
26149,50223,5
26155,50226,4
26153,50238,5
26158,50233,5
26156,50238,5
26154,50229,5
26159,50232,4
26150,50241,5
26155,50231,5
26150,50242,5
26162,50239,5
26164,50245,4
26156,50232,5
26163,50240,5
26163,50242,5
26161,50244,5
26164,50247,4
26161,50234,5
26166,50239,5
26156,50248,5
26158,50246,5
26161,50243,4
26152,50234,5
26155,50234,5
26149,50244,5
26154,50234,4
26151,50233,4
26157,50239,5
26154,50231,5
26145,50232,5
26154,50232,4
26156,50233,4
26157,50238,5
26159,50240,5
26163,50234,5
26160,50236,3
26154,50246,5
26156,50245,5
26167,50246,5
26161,50247,5
26157,50249,4
26164,50242,5
26160,50240,5
26148,50231,5
26154,50221,5
26142,50217,4
26144,50215,5
26149,50213,5
26143,50208,5
26152,50217,4
26151,50218,4
26149,50218,5
26148,50220,5
26142,50210,5
26141,50211,4
26140,50213,6
26150,50216,4
26149,50218,5
26144,50224,5
26151,50218,6
26142,50228,3
26146,50223,5
26150,50218,5
26149,50212,5
26150,50222,4
26146,50226,5
26149,50218,5
26152,50226,5
26162,50232,5
26155,50214,4
26149,50214,5
26149,50222,5
26154,50221,5
26152,50227,5
26147,50217,4
26145,50225,5
26155,50218,5
26144,50221,5
26157,50216,4
26154,50222,5
26148,50218,6
26146,50215,4
26150,50216,5
26140,50207,4
26148,50218,7
26148,50217,3
26143,50209,5
26145,50215,5
26144,50214,4
26145,50207,5
26143,50209,5
26150,50214,5
26150,50215,5
26143,50217,4
26153,50211,5
26148,50219,5
26148,50216,5
26151,50213,5
26138,50213,4
26144,50211,5
26148,50216,5
26148,50218,5
26152,50231,4
26148,50218,4
26149,50218,5
26149,50208,11
26148,50215,3
26151,50219,5
26146,50215,5
26152,50212,5
26146,50214,5
26145,50204,4
26148,50211,5
26139,50211,5
26141,50207,5
26144,50207,5
26143,50198,4
26147,50206,5
26151,50210,5
26140,50212,5
26157,50207,5
26148,50215,4
26156,50218,5
26152,50223,5
26150,50225,5
26149,50220,5
26157,50221,4
26157,50219,5
26152,50220,5
26155,50221,6
26150,50216,3
26146,50207,5
26132,50200,5
26144,50195,5
26137,50191,5
26144,50195,4
26131,50195,5
26136,50187,5
26133,50194,5
26135,50192,5
26141,50181,4
26139,50191,5
26138,50193,5
26138,50189,5
26129,50186,5
26132,50185,4
26138,50190,5
26136,50183,5
26131,50189,5
26137,50188,5
26142,50187,5
26137,50185,4
26142,50192,5
26142,50184,5
26135,50185,6
26143,50182,3
26132,50197,5
26140,50196,5
26146,50200,5
26146,50196,4
26131,50195,5
26145,50195,5
26142,50196,5
26139,50192,5
26144,50207,4
26141,50193,5
26142,50190,5
26145,50197,5
26148,50193,5
26139,50192,4
26134,50188,5
26132,50183,5
26139,50190,5
26142,50190,5
26139,50189,4
26142,50185,6
26135,50182,4
26130,50187,5
26137,50186,4
26134,50178,4
26134,50185,5
26138,50185,5
26131,50190,5
26141,50188,4
26145,50191,5
26142,50193,5
26134,50195,5
26134,50183,5
26136,50191,4
26131,50187,5
26137,50193,5
26139,50182,5
26136,50185,5
26143,50193,4
26133,50195,5
26141,50197,5
26141,50189,5
26137,50195,5
26141,50197,4
26138,50206,5
26147,50199,6
26150,50198,4
26142,50204,5
26141,50204,4
26143,50201,5
26136,50194,5
26135,50199,5
26133,50193,4
26142,50193,5
26136,50191,5
26135,50188,5
26139,50194,5
26143,50181,4
26132,50186,5
26141,50192,5
26138,50187,5
26140,50183,5
26140,50182,4
26133,50189,5
26147,50185,5
26142,50193,5
26139,50193,5
26149,50193,4
26148,50208,5
26146,50203,5
26152,50200,6
26147,50202,4
26155,50204,4
26146,50199,5
26146,50200,5
26153,50199,5
26144,50206,4
26136,50197,4
26152,50201,5
26138,50194,5
26143,50188,5
26137,50191,4
26132,50189,5
26134,50177,5
26126,50180,5
26142,50181,5
26139,50174,4
26134,50178,5
26137,50182,5
26136,50179,5
26141,50183,5
26141,50188,5
26134,50184,4
26135,50187,5
26138,50186,5
26133,50192,5
26138,50188,4
26136,50184,5
26132,50192,5
26144,50188,5
26140,50186,4
26145,50192,4
26141,50194,5
26142,50183,5
26142,50186,5
26148,50189,4
26140,50195,5
26140,50193,5
26142,50183,5
26145,50201,5
26137,50198,4
26147,50185,5
26138,50195,5
26148,50189,5
26148,50191,5
26131,50194,4
26145,50188,6
26144,50187,4
26143,50190,5
26149,50186,5
26139,50189,4
26136,50189,5
26135,50183,5
26137,50187,5
26136,50183,5
26138,50185,4
26141,50176,5
26137,50192,5
26147,50183,5
26135,50187,4
26144,50193,5
26142,50186,5
26149,50187,5
26140,50183,5
26140,50192,4
26144,50199,5
26143,50196,5
26148,50195,5
26147,50202,5
26143,50197,4
26142,50189,5
26139,50195,6
26152,50197,4
26148,50197,5
26146,50196,4
26145,50199,5
26149,50194,5
26143,50196,5
26148,50190,5
26145,50204,4
26143,50191,5
26143,50198,5
26146,50207,5
26146,50201,4
26140,50200,4
26146,50202,5
26149,50200,5
26145,50198,5
26145,50190,4
26145,50190,5
26143,50185,5
26135,50181,5
26149,50183,5
26139,50180,4
26135,50181,5
26136,50188,5
26145,50193,5
26143,50187,5
26140,50196,4
26145,50188,5
26144,50196,5
26145,50197,5
26148,50200,5
26145,50200,4
26144,50192,5
26138,50193,5
26141,50189,5
26149,50201,5
26135,50196,4
26148,50196,5
26148,50203,5
26142,50192,5
26142,50198,4
26142,50194,5
26142,50178,5
26140,50182,5
26135,50170,5
26131,50168,5
26131,50168,4
26133,50163,5
26123,50159,5
26130,50169,5
26134,50166,4
26130,50172,5
26124,50166,5
26134,50173,5
26134,50169,5
26133,50180,4
26138,50168,5
26131,50174,5
26127,50175,5
26131,50172,5
26134,50164,4
26132,50167,5
26134,50169,5
26127,50170,5
26138,50180,4
26131,50176,4
26137,50173,5
26132,50168,5
26134,50170,5
26138,50166,4
26128,50163,6
26137,50180,4
26129,50168,5
26133,50176,5
26131,50175,4
26138,50179,5
26135,50180,5
26135,50191,5
26133,50176,5
26134,50184,4
26134,50181,5
26131,50176,5
26138,50168,5
26134,50178,5
26126,50176,4
26139,50171,5
26131,50175,5
26140,50163,5
26124,50166,4
26132,50162,4
26135,50175,5
26135,50171,5
26125,50172,4
26135,50161,4
26133,50181,5
26139,50176,5
26135,50176,5
26141,50182,5
26133,50174,4
26146,50180,5
26140,50183,5
26134,50170,5
26140,50178,5
26132,50178,4
26131,50179,5
26134,50180,5
26133,50180,5
26142,50186,5
26139,50185,4
26137,50196,5
26137,50194,5
26135,50183,5
26142,50187,5
26138,50187,4
26147,50186,5
26147,50195,5
26137,50182,6
26132,50182,3
26140,50191,4
26140,50196,5
26137,50194,5
26135,50191,5
26143,50183,4
26141,50186,5
26139,50188,5
26133,50185,5
26137,50187,5
26133,50173,4
26136,50170,5
26131,50180,5
26141,50178,5
26133,50173,5
26135,50172,4
26141,50174,5
26142,50176,5
26144,50183,5
26134,50188,5
26138,50180,5
26136,50187,4
26138,50188,5
26147,50187,5
26145,50199,6
26143,50188,3
26143,50194,5
26146,50192,5
26136,50183,5
26135,50193,4
26142,50190,5
26146,50181,5
26134,50176,5
26129,50162,5
26124,50162,4
26127,50157,5
26116,50145,5
26126,50149,5
26128,50154,5
26124,50150,4
26125,50150,5
26122,50152,5
26128,50148,5
26118,50158,5
26124,50151,4
26119,50162,6
26125,50161,4
26130,50152,5
26126,50149,5
26116,50139,6
26123,50140,3
26114,50133,5
26113,50145,5
26117,50139,4
26114,50141,4
26121,50146,5
26119,50144,5
26123,50150,5
26122,50142,4
26132,50155,5
26129,50152,5
26128,50165,5
26128,50158,5
26131,50160,4
26128,50160,5
26127,50162,5
26123,50169,5
26128,50155,5
26132,50162,4
26124,50158,5
26132,50172,6
26126,50168,4
26136,50170,5
26134,50179,4
26135,50174,5
26132,50175,5
26136,50169,5
26142,50177,4
26139,50180,4
26132,50181,5
26144,50181,5
26144,50191,5
26138,50189,4
26137,50197,5
26154,50192,5
26144,50188,5
26149,50199,5
26149,50205,4
26153,50199,5
26144,50198,5
26157,50202,5
26149,50213,5
26148,50215,4
26146,50219,5
26156,50228,5
26160,50227,6
26156,50223,4
26162,50223,4
26159,50217,5
26152,50224,5
26154,50222,5
26155,50218,5
26153,50222,4
26151,50222,5
26157,50215,5
26157,50217,5
26143,50212,4
26158,50214,5
26154,50207,9
26150,50206,1
26143,50214,5
26153,50216,4
26149,50237,5
26159,50212,5
26157,50216,5
26146,50207,5
26154,50213,5
26156,50210,4
26154,50213,5
26149,50205,5
26144,50206,6
26155,50223,3
26144,50210,5
26151,50216,5
26155,50217,5
26148,50215,5
26149,50205,4
26141,50204,5
26146,50187,5
26144,50190,5
26140,50190,4
26136,50192,4
26140,50186,5
26139,50199,5
26134,50201,5
26140,50195,4
26140,50199,5
26143,50196,5
26142,50204,5
26141,50191,5
26148,50200,4
26143,50199,6
26143,50207,4
26146,50214,5
26142,50205,5
26157,50216,4
26149,50210,5
26154,50204,5
26150,50207,5
26149,50213,5
26145,50204,4
26147,50204,5
26146,50201,5
26148,50209,5
26153,50208,4
26151,50206,4
26145,50208,5
26148,50207,5
26143,50205,5
26151,50196,4
26142,50202,5
26149,50221,5
26149,50207,5
26144,50211,5
26143,50212,4
26148,50205,5
26146,50200,6
26154,50203,4
26136,50200,5
26144,50206,4
26148,50203,5
26146,50202,5
26146,50207,5
26149,50201,5
26158,50205,4
26141,50202,5
26145,50209,5
26151,50216,5
26144,50214,5
26147,50212,4
26151,50217,5
26147,50222,5
26153,50229,5
26148,50227,4
26148,50227,4
26154,50226,5
26159,50228,5
26159,50232,5
26160,50224,4
26163,50228,5
26157,50224,5
26153,50223,6
26158,50237,4
26147,50232,4
26157,50229,5
26161,50229,5
26161,50224,5
26155,50226,5
26154,50224,4
26159,50220,5
26147,50219,5
26144,50220,5
26150,50214,5
26158,50217,4
26148,50217,5
26148,50215,5
26149,50221,5
26153,50222,4
26163,50230,4
26160,50230,5
26163,50223,5
26161,50231,5
26156,50225,5
26156,50223,4
26151,50229,5
26157,50228,5
26154,50229,5
26145,50215,4
26160,50218,5
26147,50220,5
26138,50217,5
26137,50210,5
26149,50203,4
26150,50214,5
26146,50210,5
26151,50216,5
26143,50208,5
26147,50215,4
26141,50216,5
26145,50206,5
26150,50211,5
26140,50208,5
26140,50209,4
26143,50206,5
26154,50212,5
26147,50211,5
26153,50213,4
26148,50229,6
26157,50221,4
26159,50235,5
26148,50235,5
26154,50223,4
26151,50218,5
26146,50214,5
26150,50212,5
26152,50217,5
26152,50216,4
26144,50210,5
26146,50202,5
26138,50188,5
26141,50212,5
26143,50199,4
26147,50210,5
26153,50206,5
26143,50211,5
26146,50213,5
26149,50199,4
26144,50211,5
26147,50212,5
26143,50211,5
26145,50205,4
26151,50204,4
26143,50198,6
26135,50193,4
26132,50168,5
26135,50177,4
26142,50192,5
26132,50190,5
26138,50182,5
26135,50200,5
26152,50195,4
26150,50199,5
26146,50195,5
26146,50195,5
26138,50196,5
26144,50199,4
26142,50192,5
26148,50200,5
26137,50182,5
26137,50179,5
26139,50183,4
26141,50186,5
26141,50184,5
26139,50179,5
26132,50181,4
26135,50169,4
26136,50181,5
26122,50166,5
26130,50160,5
26127,50161,4
26126,50168,5
26131,50173,5
26137,50182,5
26128,50180,5
26132,50177,4
26130,50179,5
26130,50170,5
26132,50173,5
26134,50178,5
26131,50180,4
26135,50178,5
26128,50169,5
26131,50165,5
26126,50165,5
26125,50158,4
26128,50153,5
26122,50149,5
26119,50139,5
26115,50147,5
26118,50141,4
26117,50142,5
26119,50141,5
26123,50140,5
26108,50140,4
26117,50152,5
26119,50146,5
26114,50140,5
26124,50157,5
26120,50158,4
26124,50155,5
26120,50151,5
26115,50144,5
26115,50143,5
26119,50147,4
26122,50161,5
26115,50148,5
26122,50153,5
26123,50157,5
26122,50156,4
26128,50160,5
26133,50156,5
26122,50165,5
26130,50156,4
26120,50163,5
26117,50153,4
26126,50148,5
26117,50153,5
26119,50156,4
26115,50155,5
26125,50157,5
26120,50167,5
26120,50154,5
26122,50160,4
26124,50158,5
26139,50162,5
26133,50163,5
26120,50168,5
26119,50164,4
26125,50169,5
26131,50151,5
26124,50161,5
26127,50157,5
26117,50161,4
26121,50166,5
26125,50162,6
26119,50162,4
26119,50163,4
26125,50156,4
26131,50157,5
26131,50151,5
26129,50163,5
26125,50171,4
26133,50179,5
26126,50181,5
26131,50174,5
26125,50176,5
26129,50179,4
26136,50171,5
26132,50160,5
26123,50167,5
26128,50169,5
26128,50164,4
26123,50173,5
26123,50163,5
26122,50167,5
26124,50173,5
26128,50166,4
26124,50168,5
26128,50169,5
26125,50172,6
26130,50163,4
26130,50168,4
26120,50171,5
26122,50170,5
26122,50179,5
26127,50170,4
26132,50175,5
26135,50178,5
26130,50173,5
26127,50167,5
26127,50168,4
26127,50169,5
26128,50155,5
26121,50157,5
26120,50144,5
26114,50143,4
26119,50149,5
26115,50153,5
26124,50151,5
26122,50151,5
26119,50151,5
26117,50147,4
26127,50160,5
26119,50156,5
26116,50159,5
26119,50150,4
26123,50154,5
26115,50155,5
26119,50144,5
26118,50148,4
26114,50153,5
26119,50147,5
26123,50151,5
26127,50162,5
26127,50159,4
26124,50162,5
26128,50160,5
26131,50159,5
26128,50159,5
26118,50161,4
26120,50164,5
26127,50160,5
26124,50164,5
26132,50166,5
26133,50171,4
26130,50172,6
26130,50172,4
26125,50168,5
26129,50171,5
26136,50171,4
26130,50176,5
26126,50171,5
26128,50165,5
26125,50171,4
26131,50170,5
26134,50168,5
26132,50170,5
26141,50171,5
26125,50170,4
26131,50169,5
26134,50157,5
26131,50174,5
26122,50160,5
26132,50167,4
26135,50166,5
26124,50165,5
26122,50168,5
26126,50164,5
26129,50162,4
26124,50167,5
26131,50169,6
26134,50170,4
26126,50167,5
26135,50174,4
26137,50176,5
26128,50181,5
26130,50189,5
26139,50181,4
26129,50175,5
26135,50181,5
26125,50181,5
26127,50172,5
26124,50168,4
26131,50165,5
26133,50168,5
26131,50156,5
26131,50160,5
26128,50156,4
26120,50157,5
26124,50153,5
26128,50152,5
26119,50153,5
26126,50167,4
26118,50163,5
26131,50150,5
26120,50148,6
26119,50157,4
26123,50170,4
26128,50172,5
26137,50173,5
26134,50173,5
26132,50177,4
26134,50165,4
26134,50176,5
26131,50174,5
26135,50176,5
26134,50167,4
26128,50161,5
26120,50151,5
26121,50153,5
26118,50150,5
26116,50147,4
26115,50152,5
26122,50150,5
26116,50155,5
26124,50148,5
26119,50150,5
26120,50139,4
26124,50154,5
26120,50150,5
26125,50146,6
26122,50158,3
26126,50158,5
26126,50153,5
26128,50151,5
26126,50145,4
26132,50148,4
26127,50147,5
26125,50155,5
26127,50158,5
26128,50155,4
26129,50160,5
26132,50166,5
26130,50162,5
26125,50162,5
26124,50159,4
26123,50167,5
26126,50168,5
26128,50172,5
26129,50165,5
26134,50171,4
26131,50160,6
26129,50175,4
26130,50168,5
26133,50169,5
26131,50164,4
26131,50169,7
26127,50169,3
26135,50168,5
26124,50171,4
26140,50170,4
26143,50177,5
26129,50177,5
26138,50171,5
26125,50176,4
26134,50169,5
26127,50173,5
26131,50168,5
26125,50174,5
26125,50167,4
26131,50171,5
26136,50174,5
26127,50178,5
26135,50178,5
26131,50173,4
26129,50178,5
26126,50172,6
26126,50169,4
26134,50181,5
26138,50173,4
26130,50177,5
26138,50175,5
26140,50182,5
26145,50184,4
26141,50181,4
26142,50179,5
26147,50172,5
26138,50185,5
26137,50182,4
26136,50179,5
26132,50186,5
26140,50187,5
26137,50179,5
26140,50184,4
26131,50179,5
26140,50182,5
26139,50183,5
26134,50189,5
26141,50176,4
26135,50166,5
26129,50175,5
26135,50174,6
26127,50177,4
26134,50177,4
26126,50169,5
26136,50173,5
26132,50175,5
26128,50181,4
26137,50178,4
26132,50178,5
26134,50180,5
26135,50183,5
26139,50181,4
26139,50187,5
26139,50181,5
26131,50186,5
26137,50197,5
26143,50199,4
26147,50196,5
26134,50190,5
26140,50189,5
26130,50174,5
26136,50171,5
26134,50156,4
26135,50156,5
26126,50162,5
26125,50150,5
26117,50149,4
26121,50151,5
26127,50149,5
26129,50158,5
26123,50154,5
26124,50155,4
26129,50149,5
26130,50157,5
26127,50154,5
26124,50157,4
26125,50151,5
26132,50159,5
26124,50149,5
26124,50151,5
26129,50157,4
26125,50151,5
26119,50148,5
26116,50153,5
26122,50148,5
26120,50148,4
26122,50148,6
26117,50153,4
26131,50153,5
26123,50148,5
26118,50148,4
26119,50148,5
26115,50154,5
26129,50156,5
26119,50156,5
26124,50156,4
26124,50150,5
26124,50147,5
26129,50148,5
26119,50149,4
26114,50153,5
26127,50154,5
26115,50152,5
26123,50151,5
26123,50144,4
26112,50145,5
26120,50152,5
26125,50152,5
26123,50150,5
26118,50147,4
26122,50145,5
26117,50144,6
26111,50145,4
26124,50151,5
26123,50145,4
26118,50150,5
26127,50152,5
26125,50153,5
26128,50157,5
26126,50157,4
26125,50151,5
26127,50151,5
26120,50160,5
26132,50158,4
26128,50153,5
26125,50167,5
26124,50161,5
26122,50160,5
26126,50159,4
26118,50154,5
26126,50157,5
26126,50159,5
26131,50169,5
26122,50169,4
26127,50159,5
26130,50156,5
26134,50163,5
26129,50153,5
26130,50158,4
26127,50158,5
26127,50163,5
26127,50157,5
26130,50156,5
26124,50157,4
26127,50156,5
26120,50157,5
26124,50154,5
26119,50156,4
26130,50154,5
26117,50154,5
26125,50157,5
26124,50148,5
26121,50138,4
26117,50135,5
26113,50141,5
26117,50140,5
26117,50135,5
26117,50138,5
26120,50131,4
26113,50139,5
26117,50146,5
26120,50145,5
26125,50150,4
26123,50156,5
26125,50162,5
26134,50169,5
26128,50161,5
26131,50158,4
26127,50160,5
26129,50169,5
26130,50165,5
26131,50159,4
26122,50157,4
26128,50150,5
26123,50147,5
26114,50151,5
26115,50140,4
26114,50144,5
26116,50142,6
26112,50137,4
26116,50133,5
26113,50133,4
26117,50130,7
26118,50149,3
26117,50147,5
26116,50146,5
26118,50145,4
26119,50139,5
26118,50140,5
26121,50149,5
26128,50136,5
26122,50146,4
26116,50146,5
26128,50147,5
26122,50156,5
26123,50142,4
26123,50148,4
26126,50153,5
26119,50141,5
26122,50138,5
26119,50144,4
26120,50150,5
26111,50142,5
26112,50144,6
26119,50155,4
26122,50149,4
26112,50150,5
26123,50151,5
26121,50146,5
26116,50153,5
26120,50148,4
26127,50144,5
26125,50150,5
26125,50143,5
26128,50150,5
26126,50148,4
26116,50152,5
26123,50152,5
26135,50151,5
26126,50146,4
26120,50155,4
26121,50161,5
26128,50154,5
26121,50165,5
26134,50167,5
26129,50173,4
26129,50172,5
26124,50173,5
26144,50160,6
26129,50164,3
26127,50169,5
26129,50166,5
26136,50176,5
26134,50184,5
26144,50186,4
26142,50179,5
26139,50187,5
26139,50185,5
26138,50187,5
26137,50180,4
26138,50189,5
26137,50188,5
26139,50184,5
26141,50195,4
26146,50181,4
26140,50192,5
26145,50187,5
26143,50191,5
26143,50181,4
26134,50178,6
26145,50184,4
26131,50182,5
26145,50180,5
26136,50187,6
26135,50179,3
26134,50188,5
26132,50190,5
26141,50184,5
26139,50184,4
26134,50189,5
26137,50179,5
26139,50184,5
26141,50186,5
26137,50180,4
26135,50187,5
26140,50187,5
26144,50193,5
26142,50195,4
26137,50187,4
26143,50201,5
26146,50199,5
26154,50194,5
26139,50192,4
26150,50195,5
26143,50200,6
26147,50201,4
26157,50195,5
26147,50198,4
26151,50185,5
26144,50191,5
26140,50189,5
26131,50182,5
26133,50173,4
26135,50183,5
26139,50183,5
26134,50175,5
26142,50185,5
26142,50190,4
26138,50189,5
26132,50199,5
26146,50195,5
26144,50192,5
26139,50200,4
26149,50195,5
26137,50207,5
26150,50204,5
26140,50201,4
26150,50206,5
26158,50209,5
26153,50210,6
26157,50196,4
26145,50206,4
26155,50209,5
26148,50205,5
26153,50203,5
26153,50204,5
26152,50205,4
26140,50205,5
26149,50210,5
26144,50210,5
26153,50208,5
26148,50200,4
26153,50203,5
26140,50209,5
26152,50203,5
26143,50206,5
26152,50202,4
26142,50207,5
26144,50204,5
26144,50201,5
26140,50205,5
26143,50207,4
26144,50206,5
26141,50211,5
26143,50201,6
26144,50209,3
26144,50211,5
26146,50208,5
26145,50202,5
26144,50209,5
26144,50203,4
26148,50215,5
26148,50211,5
26147,50215,5
26155,50229,5
26157,50226,4
26152,50225,5
26153,50228,5
26162,50227,5
26158,50239,5
26160,50227,4
26157,50233,5
26156,50232,5
26162,50221,5
26158,50223,4
26157,50226,6
26145,50222,4
26153,50227,5
26143,50224,5
26148,50213,4
26150,50216,5
26148,50205,5
26147,50215,5
26153,50214,5
26154,50217,4
26155,50214,5
26159,50220,5
26155,50219,5
26145,50214,5
26157,50230,4
26152,50225,5
26157,50232,5
26155,50233,5
26157,50230,5
26155,50231,4
26158,50227,5
26160,50232,5
26157,50222,5
26153,50224,4
26147,50221,5
26150,50220,6
26138,50213,4
26144,50208,5
26147,50210,4
26141,50202,5
26148,50204,5
26148,50213,5
26141,50211,5
26144,50214,4
26145,50208,5
26141,50210,5
26145,50213,5
26148,50216,5
26151,50209,4
26149,50217,5
26153,50213,5
26150,50211,5
26147,50206,5
26151,50220,4
26144,50217,5
26152,50220,5
26142,50207,5
26142,50209,4
26144,50208,4
26147,50207,5
26144,50205,6
26146,50210,4
26154,50211,4
26148,50204,5
26141,50210,5
26138,50214,5
26142,50206,5
26140,50208,4
26143,50213,5
26148,50203,5
26149,50208,5
26147,50209,5
26142,50205,4
26141,50201,5
26153,50207,5
26146,50207,5
26147,50209,5
26146,50205,9
26140,50198,0
26145,50202,5
26139,50204,5
26134,50198,5
26143,50197,4
26146,50200,5
26144,50208,5
26144,50206,5
26148,50205,4
26145,50204,5
26140,50202,5
26139,50210,5
26154,50213,5
26145,50210,4
26145,50210,5
26142,50216,5
26144,50220,5
26159,50212,5
26146,50209,4
26151,50221,5
26141,50221,5
26140,50216,5
26142,50214,5
26151,50213,4
26142,50212,5
26138,50193,5
26134,50204,5
26144,50202,4
26145,50204,5
26140,50205,4
26140,50202,5
26137,50200,5
26145,50201,4
26147,50204,5
26148,50204,5
26147,50203,5
26138,50204,5
26147,50204,4
26135,50208,5
26140,50202,5
26141,50211,5
26136,50212,5
26148,50213,4
26144,50200,5
26135,50199,5
26139,50189,5
26136,50183,5
26135,50183,4
26122,50185,5
26130,50179,5
26128,50183,5
26136,50177,5
26136,50188,4
26129,50186,6
26142,50182,4
26137,50187,5
26138,50178,4
26139,50191,5
26136,50190,5
26134,50194,5
26141,50190,5
26141,50191,4
26145,50190,5
26136,50181,5
26130,50185,5
26131,50188,5
26138,50184,4
26135,50190,5
26130,50196,5
26127,50195,5
26128,50192,5
26130,50193,4
26144,50190,5
26137,50192,5
26139,50190,5
26140,50187,5
26141,50202,4
26138,50193,5
26148,50187,5
26135,50194,5
26145,50181,4
26133,50190,5
26134,50187,5
26141,50187,5
26138,50191,5
26132,50190,4
26126,50180,5
26136,50178,5
26140,50192,5
26139,50190,5
26137,50178,4
26133,50190,5
26138,50173,5
26129,50182,5
26144,50189,5
26138,50187,4
26139,50190,5
26139,50193,5
26133,50188,5
26144,50192,5
26141,50195,4
26142,50196,5
26141,50197,5
26149,50200,5
26137,50195,4
26143,50192,5
26139,50199,5
26138,50198,5
26134,50191,5
26137,50195,4
26134,50191,5
26133,50193,5
26142,50191,5
26142,50189,5
26139,50182,4
26137,50193,5
26145,50190,5
26140,50195,5
26139,50196,5
26138,50189,4
26138,50188,6
26134,50199,4
26144,50200,5
26134,50188,5
26133,50198,6
26135,50195,3
26145,50191,5
26150,50196,5
26147,50195,4
26144,50194,5
26136,50187,5
26140,50188,5
26130,50173,5
26135,50171,4
26125,50171,5
26124,50181,5
26135,50165,5
26134,50163,5
26131,50170,4
26128,50168,5
26126,50172,5
26131,50174,5
26123,50160,5
26118,50158,4
26131,50167,5
26130,50163,6
26135,50167,4
26121,50168,5
26131,50171,4
26125,50181,5
26134,50167,5
26136,50164,5
26138,50168,4
26131,50171,5
26136,50165,5
26134,50166,5
26127,50174,5
26126,50174,4
26127,50170,5
26135,50162,5
26126,50169,5
26139,50171,5
26133,50176,4
26139,50167,5
26141,50173,5
26131,50177,5
26131,50175,5
26134,50175,4
26135,50169,5
26133,50175,5
26133,50174,6
26130,50169,4
26132,50174,4
26134,50168,5
26134,50177,5
26139,50174,5
26131,50180,4
26129,50175,5
26133,50177,5
26137,50178,5
26134,50178,5
26135,50182,4
26133,50189,5
26140,50185,5
26131,50183,5
26140,50180,5
26131,50178,4
26135,50180,5
26132,50181,5
26136,50185,5
26139,50184,5
26133,50184,5
26136,50183,4
26137,50187,5
26142,50194,5
26139,50187,6
26136,50186,3
26134,50178,5
26134,50181,5
26136,50187,5
26132,50181,4
26132,50180,5
26136,50172,5
26129,50176,5
26136,50172,5
26129,50175,4
26133,50177,5
26138,50171,5
26127,50171,5
26140,50176,5
26135,50171,4
26139,50180,5
26142,50180,5
26136,50185,5
26132,50189,5
26131,50179,4
26134,50182,6
26134,50190,4
26134,50188,5
26142,50177,5
26135,50178,4
26134,50178,5
26130,50166,5
26132,50170,5
26125,50164,4
26119,50163,5
26129,50146,5
26116,50147,5
26129,50152,5
26127,50154,4
26125,50147,5
26119,50153,5
26128,50149,5
26128,50157,5
26130,50163,4
26129,50154,5
26118,50147,5
26120,50141,9
26121,50145,5
26127,50149,5
26123,50158,5
26122,50157,8
26122,50157,5
26156,50154,5
26148,50157,5
26128,50154,8
26105,50159,5
26124,50155,5
26125,50165,8
26124,50168,5
26125,50157,5
26119,50160,8
26127,50166,5
26132,50163,5
26131,50165,5
26130,50163,8
26130,50163,5
26090,50171,5
26127,50172,8
26134,50168,5
26136,50170,5
26135,50166,5
26128,50160,8
26132,50173,5
26131,50168,5
26133,50187,8
26132,50178,5
26134,50171,5
26133,50176,8
26133,50176,5
26142,50179,5
26137,50190,5
26136,50198,8
26140,50157,5
26142,50174,5
26143,50184,8
26165,50181,5
26147,50183,5
26133,50188,5
26138,50182,8
26137,50179,5
26131,50187,5
26130,50181,8
26130,50181,5
26138,50157,5
26134,50156,5
26136,50170,8
26142,50183,5
26137,50178,5
26092,50171,8
26116,50170,5
26132,50162,5
26129,50158,8
26132,50167,5
26120,50157,5
26133,50161,5
26135,50155,8
26135,50155,5
26131,50169,5
26134,50166,8
26128,50167,5
26135,50173,5
26122,50175,5
26138,50181,8
26139,50209,5
26140,50185,5
26134,50170,8
26140,50179,5
26146,50181,5
26127,50162,8
26127,50162,5
26133,50168,5
26120,50154,5
26122,50150,8
26115,50148,5
26114,50140,5
26122,50157,8
26120,50114,5
26124,50123,5
26122,50147,5
26114,50135,8
26114,50135,5
26118,50147,5
26121,50143,8
26117,50138,5
26122,50136,5
26116,50138,8
26119,50148,5
26121,50134,5
26118,50101,5
26112,50126,8
26121,50136,5
26116,50133,5
26118,50148,8
26118,50148,5
26111,50127,5
26117,50136,5
26118,50135,8
26143,50137,5
26115,50137,5
26112,50127,8
26111,50143,5
26122,50141,5
26124,50142,8
26111,50135,5
26110,50131,5
26118,50138,5
26114,50134,8
26114,50134,5
26157,50132,5
26136,50131,8
26105,50131,5
26106,50128,5
26120,50142,5
26121,50144,8
26125,50145,5
26123,50132,5
26111,50128,8
26120,50136,5
26131,50145,5
26114,50138,5
26114,50138,4
26117,50139,5
26119,50142,5
26110,50138,4
26114,50146,4
26121,50149,5
26120,50141,5
26122,50149,5
26115,50142,4
26118,50134,5
26113,50143,5
26127,50140,5
26116,50136,5
26110,50142,4
26113,50144,5
26112,50141,5
26111,50141,5
26110,50131,5
26110,50135,4
26112,50124,6
26108,50123,4
26105,50126,5
26103,50126,5
26102,50128,4
26116,50116,5
26101,50118,5
26103,50131,5
26109,50134,5
26113,50123,7
26105,50122,2
26113,50131,5
26115,50122,5
26108,50132,4
26123,50144,5
26111,50138,5
26113,50133,5
26117,50141,5
26117,50143,4
26117,50148,5
26113,50136,5
26107,50126,5
26109,50131,5
26108,50115,4
26118,50107,5
26109,50113,6
26105,50098,4
26101,50104,5
26097,50097,4
26102,50106,5
26098,50100,5
26102,50097,5
26101,50094,5
26100,50093,4
26108,50096,5
26106,50098,5
26098,50100,5
26102,50096,4
26098,50104,5
26097,50093,5
26102,50099,5
26099,50094,5
26100,50092,4
26088,50099,5
26100,50092,5
26092,50095,5
26094,50097,5
26098,50093,4
26098,50096,5
26100,50104,5
26105,50087,5
26099,50095,5
26094,50101,4
26095,50099,5
26098,50088,5
26098,50090,5
26097,50093,5
26094,50096,4
26096,50095,5
26101,50092,5
26089,50092,5
26098,50103,4
26103,50093,5
26104,50099,5
26094,50091,5
26104,50091,5
26108,50105,4
26093,50106,6
26101,50101,4
26100,50099,5
26096,50102,5
26101,50107,6
26102,50105,3
26106,50102,5
26096,50118,5
26100,50112,5
26103,50116,4
26108,50121,5
26112,50111,5
26109,50124,5
26114,50124,5
26109,50127,4
26115,50129,5
26114,50133,5
26111,50124,5
26117,50128,4
26118,50140,5
26113,50137,5
26126,50146,5
26122,50148,5
26116,50141,4
26121,50146,5
26119,50142,6
26114,50154,4
26119,50145,5
26119,50143,4
26121,50152,7
26130,50155,3
26123,50154,5
26127,50148,5
26123,50152,4
26123,50146,5
26123,50150,5
26119,50136,5
26125,50143,5
26124,50145,4
26118,50150,5
26123,50150,5
26123,50150,5
26121,50145,4
26118,50151,5
26122,50153,5
26125,50140,5
26117,50146,5
26119,50140,4
26119,50146,5
26126,50147,5
26114,50146,6
26122,50144,4
26120,50143,4
26131,50150,5
26122,50155,5
26121,50156,5
26122,50163,5
26122,50165,4
26131,50166,5
26124,50166,5
26135,50166,5
26138,50169,5
26123,50173,4
26133,50172,5
26126,50164,5
26129,50154,5
26130,50152,4
26116,50153,4
26119,50145,5
26123,50152,5
26115,50154,5
26127,50145,5
26119,50147,4
26110,50150,5
26117,50154,5
26115,50151,6
26114,50144,3
26120,50142,5
26121,50144,5
26120,50147,5
26120,50143,5
26119,50148,4
26114,50150,5
26118,50149,5
26127,50150,5
26122,50150,5
26125,50155,4
26126,50157,5
26128,50161,5
26115,50166,5
26122,50156,4
26130,50151,4
26121,50151,5
26124,50152,5
26125,50154,5
26124,50152,4
26126,50163,6
26128,50168,4
26132,50165,5
26128,50178,5
26132,50175,6
26131,50184,3
26134,50182,5
26128,50172,5
26123,50176,5
26126,50162,4
26126,50166,5
26120,50157,5
26123,50163,5
26117,50171,5
26138,50170,4
26130,50167,5
26135,50172,5
26124,50167,5
26131,50182,4
26129,50183,4
26138,50189,5
26138,50187,5
26136,50182,5
26138,50186,4
26137,50196,5
26136,50192,6
26134,50185,4
26137,50190,5
26132,50184,4
26135,50188,5
26139,50178,5
26137,50190,5
26143,50178,5
26133,50193,4
26145,50184,5
26138,50189,5
26134,50197,5
26129,50196,5
26141,50182,4
26137,50182,5
26130,50185,5
26127,50178,5
26128,50174,4
26132,50180,4
26130,50189,5
26139,50197,5
26145,50188,5
26141,50193,4
26135,50182,5
26136,50185,5
26133,50193,6
26135,50193,4
26135,50176,4
26135,50182,5
26140,50185,5
26130,50186,5
26139,50178,5
26128,50180,4
26135,50180,5
26138,50176,5
26132,50183,5
26133,50179,5
26133,50183,4
26137,50186,5
26132,50182,5
26132,50172,5
26123,50170,5
26132,50165,4
26124,50167,5
26129,50170,5
26130,50178,5
26129,50179,5
26134,50175,4
26134,50188,5
26132,50191,5
26133,50188,6
26129,50193,3
26141,50195,5
26141,50195,5
26140,50187,5
26143,50192,5
26131,50191,4
26134,50186,5
26139,50197,5
26145,50198,5
26145,50207,5
26141,50208,4
26146,50206,5
26141,50209,5
26137,50204,5
26140,50196,5
26137,50198,4
26141,50195,5
26144,50207,5
26148,50223,5
26148,50228,4
26146,50215,6
26143,50212,4
26148,50210,5
26144,50213,5
26146,50217,4
26145,50210,5
26140,50214,5
26148,50218,5
26148,50214,5
26146,50208,4
26135,50209,5
26136,50204,5
26148,50206,5
