RED,IR,EKG,TIME
74077,139472,183834
74074,139484,0
76985,140210,3
76790,139960,5
76556,139603,5
76282,139230,4
75966,138786,5
75576,138236,5
75187,137672,5
74808,137160,5
74448,136647,4
74108,136137,5
73727,135578,5
73297,134952,5
72903,134374,4
72554,133899,5
72244,133475,6
71969,133061,4
71732,132746,5
71594,132573,4
71494,132386,5
71350,132210,5
71281,132095,5
71179,131952,5
71114,131863,4
71077,131816,5
71079,131822,5
71095,131834,5
71158,131917,5
71227,132016,4
71284,132082,5
71281,132057,5
71281,132064,5
71305,132099,4
71344,132143,4
71377,132189,5
71412,132237,5
71403,132241,5
71427,132258,4
71467,132309,5
71527,132394,5
71591,132481,6
71664,132595,4
71744,132709,4
71767,132721,5
71804,132783,5
71737,132782,5
71812,132759,5
71772,132688,4
71721,132606,5
71518,132477,9
71541,132346,1
71441,132197,5
71307,131978,4
71047,131759,5
71016,131520,5
70852,131273,5
70687,131020,4
70573,130787,4
70385,130537,5
70219,130299,5
70059,130057,5
70068,129900,5
69843,129731,4
69738,129570,5
69597,129334,5
69555,129078,6
69294,128842,3
69146,128611,5
68975,128324,5
68794,127944,5
68435,127365,5
68002,126680,4
67590,126004,5
67132,125219,5
66689,124579,5
66404,124204,5
66326,124131,4
66429,124249,5
66663,124679,5
66926,125030,5
67160,125323,5
67352,125419,4
67470,125625,5
67529,125633,5
67427,125434,5
67314,125245,4
67176,125015,6
67046,124785,4
66849,124449,5
66622,124168,5
66337,123589,4
65973,123010,5
65529,122278,5
64958,121443,5
64267,120208,5
63511,119001,4
62635,117555,5
61730,116207,5
60842,114732,5
59983,113361,5
59214,112809,4
58437,111481,5
57644,110094,5
56818,108651,5
55940,107147,4
54981,105562,5
54074,103999,5
53038,102249,5
52045,100517,5
51050,98844,4
50212,97326,5
49361,96299,6
48600,94853,4
48759,93676,5
48176,92580,4
47622,91493,5
47042,90347,5
46357,89140,5
45878,88222,5
45435,87372,4
45035,86629,5
44707,86003,5
44405,85457,5
44103,84891,5
43807,84309,4
43537,83761,5
43190,83056,5
42848,82309,5
42408,81527,4
42079,81471,5
41788,80855,5
41530,80361,5
41335,79903,5
41087,79387,4
40840,78881,5
40554,78288,5
40236,77717,6
39954,77171,4
39713,76693,4
39487,76261,5
39207,75751,5
38951,75266,5
38680,74708,5
38430,74205,4
38171,73633,5
37912,73119,5
37664,72673,5
37484,72330,4
37346,72001,4
37192,71679,5
37078,71402,5
36895,70979,5
36704,70596,4
36597,70353,5
36525,70224,5
36481,70125,5
36439,70009,5
36311,69644,5
36039,69033,4
35774,68527,5
35605,68201,5
35571,68126,5
35618,68275,4
35717,68448,5
35813,68589,5
35876,68720,5
35976,68930,5
36126,69261,4
36316,69631,5
36520,70036,5
36617,70264,5
36732,70500,5
36849,70749,4
36965,70965,5
37000,71015,5
36953,70942,5
36885,70813,4
36801,70644,5
36698,70426,5
36566,70140,5
36447,69935,5
36388,69828,4
36302,69702,6
36272,69591,4
36196,69427,5
36100,69197,5
35923,68911,4
35844,68654,5
35723,68407,5
35617,68161,5
35435,67918,5
35360,67633,4
35217,67359,5
35099,67129,5
35032,66952,5
34903,66728,5
34733,66423,4
34599,66032,5
34519,65743,5
34392,65540,5
34315,65347,4
34320,65978,5
34403,65987,5
34391,66050,5
34461,66182,5
34576,66423,4
34714,66603,5
34707,66661,7
34718,66705,3
34722,66749,5
34724,66731,4
34700,66678,5
34655,66581,5
34592,66442,5
34540,66299,5
34489,66223,4
34441,66127,5
34418,66061,5
34388,65968,5
34389,66043,5
34432,66080,4
34451,66099,5
34436,66064,5
34426,66056,5
34407,65989,4
34343,65853,5
34293,65753,5
34205,65557,5
34143,65414,5
34084,65260,4
34009,65136,5
33908,64868,5
33824,64675,5
33769,64558,5
33727,64496,4
33713,64426,5
33716,64413,5
33690,64391,5
33643,64282,5
33646,64317,4
33707,64435,5
33768,64537,5
33811,64633,5
33860,64696,5
33868,64734,4
33906,64827,5
33971,64946,5
34018,65055,5
34098,65214,4
34195,65439,5
34338,65721,5
34450,65949,5
34542,66110,5
34598,66254,5
34646,66357,4
34700,66440,5
34726,66514,5
34763,66569,5
34778,66609,4
34806,66650,5
34832,66726,5
34887,66817,5
34937,66915,5
34989,67016,4
35051,67139,5
35118,67297,5
35190,67417,5
35238,67523,5
35295,67618,4
35343,67715,5
35393,67817,5
35439,67894,5
35481,67992,4
35524,68072,5
35566,68166,5
35605,68242,5
35661,68357,5
35725,68470,4
35773,68599,6
35858,68763,4
35939,68933,5
36030,69095,5
36106,69252,4
36155,69343,5
36227,69485,5
36320,69698,5
36444,69926,5
36565,70154,4
36645,70295,5
36689,70391,5
36705,70375,5
36654,70254,5
36574,70099,4
36478,69894,5
36362,69682,5
36234,69451,5
36138,69272,4
36032,69088,5
35948,68919,5
35858,68751,6
35789,68605,4
35687,68432,4
35586,68224,5
35451,67987,5
35283,67647,5
35117,67358,5
34968,67096,4
34857,66917,5
34790,66784,5
34715,66638,5
34616,66452,5
34522,66303,4
34479,66237,5
34476,66244,5
34488,66261,5
34523,66318,5
34593,66453,4
34641,66566,5
34697,66640,5
34718,66666,5
34712,66587,5
34645,66423,4
34544,66209,5
34407,66024,5
34362,65900,6
34302,65781,3
34230,65609,5
34106,65437,5
34055,65282,5
33984,65127,5
33891,64943,4
33784,64742,5
33690,64570,5
33626,64459,5
33600,64404,5
33612,64360,4
33545,64264,5
33458,64083,5
33362,63870,5
33303,63664,5
33150,63440,4
33048,63215,5
32942,62993,5
32827,62670,5
32675,62365,4
33269,62005,6
33095,61602,4
32966,61365,5
32870,61148,5
32738,60876,6
32606,60592,3
32475,60287,5
32333,60020,5
32268,59882,5
32210,59745,4
32136,59502,5
31998,59244,5
31895,59059,5
31852,58954,5
31816,58835,4
31761,58768,5
31729,58706,5
31706,58655,5
31704,58661,5
31733,58710,4
31784,58788,5
31838,58899,5
31872,58988,5
31903,59031,4
31941,59103,5
31978,59234,6
32052,59400,4
32146,59561,5
32222,59732,4
32297,59881,5
32378,60092,5
32486,60354,5
32680,60762,5
32931,61286,4
33177,61831,5
33435,62340,5
33646,62759,5
33778,63031,5
33909,63321,4
34052,63642,5
34243,64024,5
34450,64444,5
34654,64830,5
34802,65093,4
34888,65294,5
34972,65402,5
35011,65453,5
35063,65572,4
35129,65729,5
35216,65914,5
35316,66099,6
35402,66277,4
35483,66423,4
35518,66477,5
35532,66498,5
35574,66592,5
35634,66675,5
35663,66734,4
35708,66811,5
35759,66870,5
35777,66949,5
35830,67017,5
35846,67072,4
35817,67018,5
35783,66957,5
35763,66912,5
35746,66894,5
35736,66900,4
35770,66947,5
35776,66964,5
35733,66871,5
35687,66781,5
35652,66723,4
35633,66683,5
35633,66672,5
35644,66670,6
35641,66659,3
35614,66610,5
35578,66514,5
35530,66437,5
35475,66299,5
35402,66144,4
35347,66056,5
35302,65943,5
35229,65765,5
35098,65513,5
34995,65301,4
34907,65114,5
34808,64935,5
34736,64791,5
34689,64712,5
34658,64623,4
34587,64455,5
34493,64256,5
34394,64048,5
34322,63871,4
34277,63786,5
34235,63698,4
34208,63613,5
34153,63500,5
34064,63278,4
33943,63061,5
33862,62905,5
33839,62871,5
33817,62825,5
33799,62756,4
33768,62707,5
33763,62708,5
33775,62731,5
33789,62749,5
33799,62747,4
33775,62687,5
33729,62574,5
33710,62525,5
33709,62526,5
33696,62508,4
33692,62472,5
33678,62432,5
33668,62427,5
33654,62421,4
33682,62440,4
33704,62456,6
33696,62449,6
33680,62431,3
33684,62402,4
33669,62347,5
33628,62282,5
33624,62235,5
33626,62290,5
33702,62456,4
33800,62641,5
33886,62712,5
33834,62622,5
33768,62495,5
33728,62442,4
33755,62455,5
33741,62465,5
33717,62422,5
33682,62365,5
33680,62367,4
33689,62429,5
33742,62554,5
33854,62786,5
33970,63041,4
34063,63195,4
34096,63256,5
34098,63286,6
34109,63328,4
34092,63330,4
34046,63284,5
34025,63328,5
34079,63426,5
34137,63575,5
34216,63733,4
34237,63812,5
34360,64076,5
34538,64405,5
34693,64701,5
34829,64930,4
34914,65161,5
35013,65344,5
35109,65546,5
35251,65820,5
35351,66000,4
35453,66173,5
35521,66317,5
35642,66551,5
35787,66782,5
35886,66923,4
35950,66996,5
35977,67043,5
35983,67019,5
35978,66993,4
36004,67017,5
36006,67015,5
36012,67020,5
36016,67010,5
36001,66963,4
35994,66962,5
36009,66965,5
36018,66971,5
36060,67075,5
36132,67173,4
36150,67198,5
36132,67175,5
36097,67103,5
36045,67016,5
36030,67012,4
36068,67098,5
36153,67287,5
36250,67442,5
36289,67514,4
36322,67551,5
36341,67607,4
36407,67758,5
36539,68064,5
36742,68459,4
36992,68966,5
37254,69435,5
37449,69739,5
37555,69920,5
37635,70075,4
37700,70187,5
37741,70250,5
37753,70235,5
37731,70203,5
37733,70172,4
37742,70200,5
37777,70292,5
37855,70411,5
37933,70560,5
38021,70708,4
38092,70845,5
38145,70927,5
38169,70960,5
38170,70954,4
38158,70924,4
38117,70846,6
38064,70730,4
38001,70645,5
37968,70569,4
37927,70478,5
37895,70433,5
37870,70359,5
37841,70303,5
37795,70229,4
37759,70158,5
37739,70109,5
37713,70089,5
37716,70090,5
37710,70102,4
37735,70126,5
37778,70216,5
37849,70375,5
37984,70615,5
38117,70845,4
38181,70972,5
38218,71067,5
38286,71219,5
38382,71429,4
38552,71759,4
38711,72020,5
38835,72240,5
38983,72527,5
39084,72715,4
39115,72758,5
39128,72806,5
39198,72948,5
39313,73179,5
39450,73385,4
39506,73495,5
39559,73597,5
39570,73652,5
39574,73629,5
39584,73647,4
39596,73697,5
39629,73767,5
39692,73869,5
39791,74048,5
39889,74227,5
39974,74386,4
40097,74595,5
40238,74811,5
40354,75014,5
40461,75195,4
40514,75327,5
40559,75401,5
40620,75513,5
40697,75615,4
40756,75751,5
40788,75829,5
40832,75915,5
40936,76024,5
40960,76120,4
41031,76259,5
41118,76384,5
41181,76445,5
41214,76546,5
41264,76610,4
41286,76657,5
41321,76695,5
41353,76745,5
41339,76725,5
41342,76735,4
41369,76749,5
41395,76825,5
41411,76875,5
41439,76894,5
41456,76907,5
41480,76957,4
41509,77009,5
41556,77099,5
41620,77217,4
41691,77339,5
41764,77460,5
41830,77581,5
41911,77756,5
41988,77919,4
42101,78090,5
42210,78265,5
42296,78417,5
42362,78475,5
42403,78516,4
42412,78528,5
42436,78567,5
42425,78552,5
42411,78557,5
42384,78525,4
42398,78559,5
42420,78579,6
42425,78586,4
42449,78625,5
42481,78680,4
42527,78770,7
42582,78861,3
42618,78914,5
42655,78940,4
42648,78896,5
42621,78852,5
42603,78818,5
42582,78777,5
42544,78708,4
42485,78593,5
42441,78526,5
42423,78524,5
42447,78575,5
42482,78635,4
42536,78773,5
42638,78929,5
42737,79113,5
42829,79240,5
42881,79318,4
42890,79349,5
42918,79369,5
42937,79395,6
42945,79422,4
42971,79491,4
43060,79684,5
43253,80053,5
43549,80586,5
43933,81288,4
44373,81996,4
44815,82052,5
45274,82810,5
45652,83400,5
45936,83904,4
46212,84344,5
46459,84873,5
46826,85517,5
47225,86242,5
47802,87189,4
48550,88562,5
49311,90106,5
49479,91811,5
50553,93622,5
51805,95681,5
53055,97758,4
54111,99428,5
54882,100089,5
55615,101201,6
56230,102215,3
56712,102745,5
56943,102901,5
56987,102935,5
56960,102860,4
56914,102804,4
57029,103041,5
57337,103623,5
57876,104505,5
58446,105357,4
58950,106194,5
59425,106905,5
59904,107650,5
60220,108149,5
60443,108504,4
60636,108778,5
60806,109016,5
60875,109130,5
60971,109327,5
61102,109543,4
61286,109859,6
61504,110254,4
61756,110653,5
61915,110884,5
62001,110999,6
61999,110986,3
62023,111043,5
62024,111033,5
61936,110866,4
61694,110469,4
61307,109732,5
60857,109024,5
60518,108516,5
60156,108109,4
60002,107785,5
59750,107352,5
59500,106922,5
59116,106409,5
58907,105964,4
58647,105570,5
58432,105230,5
58263,104953,5
58106,104790,5
58078,104748,4
58070,104751,5
58140,104770,6
58084,104761,4
58076,104741,5
58071,104694,4
58106,104653,5
58019,104625,5
58005,104615,5
57985,104587,4
58011,104613,4
58015,104682,5
58069,104776,5
58148,104892,5
58177,104899,4
58167,104908,5
58133,104878,5
58079,104787,5
58062,104715,5
58050,104748,4
58045,104729,5
58004,104666,5
57928,104448,5
57789,104276,5
57629,104021,4
57477,103791,5
57328,103520,5
57130,103206,6
56949,102950,4
56838,102776,4
56738,102593,5
56524,102186,5
56274,101810,5
56052,101456,4
55834,101187,4
55626,100806,5
55447,100510,5
55259,100268,5
55148,100148,4
55064,99990,5
54984,99893,5
54990,99942,5
55039,100029,5
55073,100072,4
55101,100135,5
55160,100252,5
55275,100437,5
55392,100626,5
55502,100814,5
55639,101038,4
55763,101253,5
55890,101448,5
56036,101717,6
56229,102030,3
56453,102415,5
56717,102839,5
56942,103176,5
57093,103409,5
57235,103595,4
57321,103782,5
57472,104018,5
57616,104272,5
57791,104558,4
57978,104869,5
58178,105167,5
58351,105457,5
58579,105808,5
58827,106200,4
59123,106629,5
59389,107023,5
59606,107364,5
59788,107680,5
59947,107941,4
60130,108224,6
60312,108540,4
60489,108751,5
60546,108803,5
60534,108757,4
60487,108705,5
60494,108707,5
60509,108754,5
60566,108850,5
60655,108973,4
60695,109015,5
60715,109067,5
60730,109068,5
60750,109088,4
60758,109103,5
60743,109075,5
60717,109019,5
60682,108985,5
60669,108972,4
60687,108988,5
60704,109022,5
60726,109048,5
60725,109065,5
60775,109148,4
60903,109374,5
61080,109647,6
61279,109961,4
61422,110121,5
61450,110186,4
61539,110321,5
61588,110377,5
61624,110444,5
61690,110538,5
61760,110667,4
61886,110863,5
62042,111117,5
62251,111446,5
62504,111843,4
62825,112434,4
63299,113065,5
63587,113482,5
63776,113767,5
63924,114003,4
64115,114279,5
64267,114471,5
64358,114609,5
64465,114800,5
64617,114503,4
64774,114750,5
64897,114916,5
64930,115003,6
64951,114977,4
64890,114865,4
64839,114820,5
64776,114788,5
64843,114806,5
64854,114830,5
64869,114855,4
64814,114853,5
64810,114714,5
64646,114485,5
64515,114281,4
64389,114103,4
64275,113908,5
64168,113801,6
64094,113682,4
64056,113512,4
63811,113213,5
63591,112915,5
63440,112653,5
63333,112421,5
63076,112152,5
62868,111814,4
62598,111414,5
62352,110983,5
62047,110554,5
61826,110218,4
61658,109964,5
61449,109659,5
61234,109353,5
61088,109140,5
60952,108955,4
60872,108808,5
60837,108806,5
60805,108802,5
60886,108931,5
61047,109129,4
61250,109536,5
61438,109814,5
61596,110053,5
61735,110230,4
61939,110646,5
62234,111107,5
62529,111537,5
62749,111912,5
62932,112165,4
63148,112506,6
63323,112778,4
63527,113175,5
63716,113374,5
63863,113602,4
64026,113851,5
64166,114124,5
64264,114246,5
64375,114427,5
64525,114655,4
64678,114929,5
64820,115125,5
64925,115293,5
65057,115506,4
65207,115754,4
65415,116127,5
65817,116800,5
65544,117636,5
66087,118498,4
66528,119122,5
66835,119597,5
67112,120006,5
67367,120365,5
67541,120641,4
67701,120940,5
67933,121308,7
68174,121709,3
68483,122198,5
68834,122740,4
69083,123104,5
69261,123382,5
69420,123615,5
69570,123861,5
69736,124135,4
69897,124384,5
70118,124698,5
70262,124906,5
70291,124913,5
70313,124964,4
70342,125027,5
70402,125125,5
70477,125202,5
70510,125242,4
70520,125245,5
70496,125198,5
70467,125161,5
70473,125213,5
70539,125324,4
70628,125458,5
70728,125607,5
70840,125802,5
70972,125959,5
71059,126061,4
71095,126091,5
71080,126087,5
71104,126111,5
71156,126217,5
71238,126336,4
71341,126524,5
71506,126755,5
71647,126946,5
71764,127134,5
71841,127227,4
71846,127200,5
71763,127088,5
71720,127049,5
71744,127124,4
71817,127274,5
71917,127406,5
71983,127506,5
72026,127581,5
72058,127626,5
72085,127629,4
72073,127598,5
72017,127541,5
71922,127365,5
71743,127067,4
71511,126728,5
71315,126422,5
71111,126108,5
70838,125713,5
70568,125291,4
70280,124871,5
70081,124578,5
69899,124321,5
69758,124084,5
69641,123920,4
69466,123645,5
69299,123399,5
69153,123210,5
69113,123162,4
69076,123133,4
69028,123030,5
68949,122895,5
68821,122696,5
68620,122490,4
68602,122391,6
68534,122288,3
68512,122241,5
68378,122160,5
68423,122115,4
68368,122034,5
68271,121900,5
68191,121844,5
68186,121785,5
68146,121688,4
68017,121520,5
67897,121231,5
67689,121037,5
67601,120922,5
67552,120795,4
67503,120587,5
67277,120365,5
67133,120171,5
67059,120026,4
67037,119925,4
66942,119857,5
66900,119821,6
66887,119797,4
66911,119828,4
66935,119890,5
66966,119947,5
66995,119966,5
67011,119958,5
67005,119989,4
66995,119971,5
66970,119931,5
66941,119816,5
66877,119819,5
66818,119726,4
66752,119621,5
66677,119451,5
66644,119503,5
66650,119520,5
66667,119567,5
66694,119610,4
66708,119638,5
66731,119657,5
66728,119655,5
66715,119720,4
66719,119636,5
66718,119640,5
66713,119641,6
66713,119701,3
66686,119570,5
66651,119519,5
66616,119475,5
66576,119441,5
66497,119322,4
66451,119262,5
66423,119240,5
66424,119245,5
66418,119227,5
66415,119238,4
66427,119250,5
66433,119288,5
66471,119352,5
66550,119494,5
66676,119694,4
66802,119905,5
66910,120054,5
66958,120101,5
66986,120143,5
67013,120160,5
67039,120199,4
67063,120242,5
67080,120252,5
67076,120260,6
67075,120264,3
67092,120297,5
67139,120358,5
67213,120476,5
67246,120537,4
67298,120599,5
67328,120665,5
67391,120766,5
67480,120893,5
67568,121030,4
67655,121144,5
67723,121280,5
67801,121377,5
67870,121496,5
67971,121661,4
68076,121816,5
68166,121949,5
68250,122067,5
68329,122186,5
68409,122309,4
68475,122417,6
68519,122465,4
68529,122489,5
68572,122561,4
68642,122668,5
68708,122791,5
68820,122959,5
68925,123125,5
69061,123345,4
69223,123568,5
69383,123839,5
69552,124082,5
69692,124248,5
69757,124378,4
69812,124446,5
69881,124565,5
70011,124779,5
70155,125002,5
70291,125192,4
70392,125320,5
70473,125454,5
70536,125539,5
70596,125628,5
70667,125737,4
70749,125870,5
70801,125942,6
70839,126001,4
70856,126027,4
70893,126070,4
70930,126104,5
70925,126094,5
70898,126027,5
70837,125931,4
70768,125835,5
70698,125696,5
70557,125532,5
70482,125402,5
70380,125266,4
70303,125171,5
70248,125083,5
70194,125027,5
70141,124940,5
70074,124848,4
69977,124691,5
69809,124533,5
69727,124357,5
69617,124189,5
69519,124027,4
69314,123870,5
69336,123793,5
69291,123704,6
69228,123607,3
69080,123494,4
69082,123402,5
69023,123303,5
68961,123214,5
68940,123148,4
68859,123080,5
68822,123027,5
68765,122933,5
68790,122840,5
68643,122757,4
68591,122687,5
68540,122608,5
68582,122553,5
68457,122493,5
68426,122455,4
68398,122396,5
68393,122339,5
68315,122283,5
68275,122237,5
68257,122201,5
68226,122122,4
68160,122074,5
68118,122009,5
68082,121966,4
68065,121891,4
68073,121951,5
68066,121938,5
68019,121871,5
67964,121694,4
67912,121700,5
67870,121663,5
67865,121629,5
67814,121552,5
67776,121515,4
67750,121468,5
67719,121426,5
67693,121462,5
67690,121360,5
67668,121353,4
67653,121335,5
67647,121422,5
67623,121304,5
67604,121253,5
67580,121229,4
67564,121264,6
67555,121203,4
67552,121184,5
67549,121193,4
67549,121215,4
67559,121204,5
67539,121185,5
67538,121176,5
67526,121170,4
67525,121169,5
67535,121179,5
67542,121194,5
67559,121218,5
67572,121260,4
67620,121325,5
67653,121359,5
67669,121395,5
67690,121432,5
67710,121455,4
67726,121490,5
67760,121536,5
67814,121641,5
67874,121715,5
67901,121749,4
67929,121802,5
67960,121851,6
68003,121918,4
68031,121958,4
68061,122004,4
68074,122031,5
68105,122063,5
68112,122086,5
68119,122097,4
68132,122117,5
68131,122111,5
68146,122129,5
68143,122137,5
68160,122144,4
68150,122135,5
68147,122143,5
68169,122174,5
68191,122211,5
68217,122254,4
68234,122280,5
68250,122301,5
68251,122300,5
68269,122341,5
68310,122407,4
68364,122471,5
68360,122468,5
68353,122461,6
68353,122455,4
68348,122463,4
68354,122455,5
68341,122434,5
68319,122429,5
68333,122433,4
68334,122434,5
68330,122433,5
68331,122429,5
68324,122422,5
68324,122421,4
68305,122404,5
68311,122393,5
68301,122373,5
68277,122349,5
68273,122345,4
68263,122331,5
68259,122333,5
68263,122325,5
68253,122322,5
68258,122334,5
68255,122323,4
68253,122328,5
68247,122329,5
68258,122336,5
68265,122335,4
68259,122333,5
68236,122315,5
68249,122320,5
68239,122303,4
68239,122301,4
68238,122305,5
68225,122301,5
68216,122283,5
68189,122280,4
68222,122286,5
68215,122288,5
68206,122266,5
68130,122262,5
68198,122265,4
68194,122253,5
68194,122257,5
68109,122252,5
68194,122256,5
68182,122248,4
68172,122226,6
68170,122228,4
68166,122225,5
68149,122222,5
68148,122198,4
68212,122186,8
68128,122176,2
68149,122176,5
68115,122165,4
68185,122139,4
68078,122101,5
68080,122109,5
68079,122130,5
68119,122124,4
68062,122086,5
68030,122061,5
68014,122034,5
68021,122047,5
68039,122075,4
68040,122076,5
68013,122031,5
67965,121922,5
67964,121965,5
67974,121987,4
67962,121950,5
67937,121845,6
67922,121897,4
67898,121868,5
67897,121865,4
67904,121818,4
67916,121923,5
67933,121931,5
67930,121937,5
67935,121994,4
67938,121953,5
67949,121954,5
67948,121953,5
67939,122043,4
67935,121957,5
67942,121949,5
67940,121950,5
67936,122020,5
67939,121942,4
67924,121922,5
67919,121905,5
67900,121900,5
67884,121868,5
67869,121842,4
67849,121816,5
67846,121801,5
67840,121799,5
67828,121785,5
67820,121775,4
67798,121743,5
67783,121708,5
67755,121686,5
67757,121680,5
67748,121674,4
67746,121668,5
67732,121646,5
67721,121629,5
67713,121612,4
67700,121596,5
67686,121581,5
67670,121540,5
67642,121506,5
67614,121448,4
67575,121413,5
67533,121354,5
67530,121341,5
67522,121362,5
67530,121358,5
67527,121354,4
67523,121330,5
67518,121346,5
67514,121348,5
67521,121355,4
67526,121358,5
67529,121350,5
67525,121359,5
67527,121361,5
67539,121362,4
67540,121366,5
67533,121355,5
67526,121372,5
67550,121406,4
67574,121437,5
67586,121446,5
67563,121401,5
67531,121365,5
67524,121364,4
67543,121386,5
67555,121394,6
67539,121375,4
67543,121373,5
67530,121365,4
67528,121362,7
67529,121369,3
67539,121383,5
67542,121379,5
67533,121356,4
67526,121344,5
67498,121308,5
67500,121292,5
67486,121306,5
67499,121301,4
67496,121310,5
67492,121303,5
67484,121287,5
67473,121264,4
67436,121203,4
67416,121171,5
67380,121111,5
67340,121059,5
67318,121016,4
67290,120995,5
67301,121003,5
67332,121061,6
67370,121108,4
67374,121104,4
67371,121110,5
67382,121134,5
67402,121150,5
67424,121197,5
67455,121227,4
67484,121271,5
67498,121317,5
67535,121350,5
67581,121424,5
67626,121487,4
67599,121545,5
67715,121612,5
67776,121725,5
67864,121865,4
67858,121973,4
68019,122075,5
68090,122183,5
68174,122318,5
68202,122443,5
68352,122560,4
68437,122698,5
68520,122810,5
68642,122912,6
68660,123002,3
68697,123048,5
68723,123093,5
68838,123114,5
68744,123145,5
68769,123173,4
68803,123218,5
68895,123251,5
68865,123325,5
68921,123437,5
69002,123531,4
69036,123548,5
68989,123505,5
68975,123494,5
68983,123509,4
69010,123503,4
69021,123548,5
69019,123564,5
69012,123547,5
69006,123448,4
69001,123540,6
69003,123527,4
69007,123548,5
69011,123455,5
68999,123529,6
68984,123504,3
68967,123473,5
68942,123435,5
68912,123404,5
68904,123385,4
68904,123384,5
68893,123454,5
68881,123358,5
68879,123356,5
68867,123341,4
68851,123431,5
68837,123293,5
68839,123291,5
68829,123280,5
68835,123346,4
68826,123280,5
68823,123275,5
68812,123257,5
68809,123267,4
68822,123256,5
68821,123268,6
68836,123297,4
68840,123263,5
68808,123223,4
68769,123167,5
68755,123146,5
68720,123115,5
68691,123041,5
68664,123009,4
68642,122991,5
68622,122948,5
68580,122889,5
68557,122843,5
68489,122727,4
68399,122575,5
68353,122486,5
68298,122394,5
68206,122246,5
68125,122140,4
68117,122129,5
68140,122147,5
68144,122131,5
68103,122066,4
68082,122008,4
67984,121846,5
67891,121655,6
67735,121402,4
67505,121021,4
67204,120556,5
66915,120111,5
66631,119652,5
66269,119104,5
65968,118676,4
65738,118321,5
65553,118080,5
65454,117947,5
65420,117899,5
65410,117885,4
65436,117940,5
65517,118060,5
65651,118273,5
65812,118532,5
65990,118796,4
66185,119077,5
66387,119395,5
66627,119743,5
66832,120069,5
67127,120567,4
67444,121032,5
67740,121465,5
68002,121866,6
68248,122247,3
68507,122654,5
68743,122989,5
68935,123272,5
69119,123516,5
69264,123741,4
69423,124004,5
69615,124293,5
69815,124579,5
69975,124837,5
70142,125057,4
70277,125251,5
70412,125461,5
70545,125673,5
70660,125832,5
70755,125975,4
70813,126046,5
70842,126102,5
70881,126158,5
70915,126196,4
70940,126265,5
70980,126315,4
70997,126346,5
71034,126425,5
71074,126467,4
71118,126542,5
71156,126606,5
71219,126688,5
71235,126766,5
71325,126862,4
71399,126968,5
71458,127056,5
71452,127169,5
71595,127239,5
71613,127275,4
71635,127331,5
71597,127416,5
71760,127505,5
71823,127609,5
71884,127699,4
71950,127793,5
72001,127876,5
72030,127916,5
72049,127935,5
72168,127986,4
72140,128101,6
72216,128197,4
72257,128247,5
72319,128162,4
72169,128134,5
72172,128140,5
72214,128203,5
72268,128216,5
72220,128228,4
72237,128255,5
72279,128300,5
72324,128362,5
72365,128448,5
72433,128551,4
72501,128650,5
72555,128659,5
72596,128792,5
72653,128874,5
72720,128977,4
72798,128989,5
72878,129212,5
72945,129327,5
73024,129430,5
73064,129435,4
73107,129545,5
73145,129606,6
73175,129652,4
73199,129759,4
73237,129760,5
73266,129804,5
73311,129887,5
73387,130104,5
73466,130103,4
73536,130215,5
73586,130270,5
73596,130379,5
73629,130338,5
73673,130415,4
73715,130467,5
73760,130563,5
73800,130599,5
73838,130661,5
73880,130719,4
73911,130767,5
73933,130812,5
73967,130850,5
74005,130909,5
74031,130952,4
74059,130993,5
74090,131062,5
74136,131117,5
74157,130420,4
74175,130459,4
74200,130479,5
74194,130496,5
74211,130499,5
74214,130521,4
74222,130531,5
74237,130554,5
74243,130565,5
74244,130569,5
74246,130562,4
74249,130561,5
74235,130546,5
74230,130537,5
74235,130564,5
74257,130581,4
74268,130581,5
74240,130516,5
74202,130466,5
74198,130478,5
74212,130509,5
74230,130520,4
74224,130498,5
74217,130504,5
74229,130512,4
74241,130536,4
74256,130560,5
74272,130576,5
74298,130603,5
74317,130623,4
74307,130624,5
74325,130627,5
74330,130640,5
74343,130667,5
74369,130698,4
74368,130709,5
74361,130695,5
74346,130654,5
74323,130628,5
74315,130624,4
74318,130630,5
74300,130623,5
74307,130602,5
74304,130612,5
74319,130630,4
74318,130645,6
74364,130699,4
74400,130775,5
74459,130871,4
74507,130921,4
74559,130985,5
74595,131065,5
74642,131107,5
74670,131180,4
74717,131252,5
74777,131327,5
74810,131360,5
74811,131355,5
74781,131337,4
74780,131305,5
74755,131284,5
74727,131270,5
74729,131261,5
74715,131250,4
74718,131237,5
74705,131251,5
74717,131255,5
74727,131273,5
74731,131270,4
74718,131268,5
74725,131256,5
74706,131244,5
74699,131243,5
74622,131237,4
74689,131220,5
74689,131225,5
74691,131210,5
74571,131203,4
74663,131160,5
74623,131130,5
74610,131119,5
74574,131134,5
74639,131143,4
74596,131074,5
74495,130911,5
74474,130822,5
74392,130816,5
74400,130817,4
74381,130776,6
74466,130759,4
74333,130730,5
74312,130684,5
74296,130659,4
74359,130651,5
74264,130654,5
74261,130636,5
74260,130622,5
74262,130605,4
74227,130595,5
74234,130589,5
74212,130569,5
74203,130504,4
74191,130540,4
74179,130528,5
74171,130529,5
74171,130434,5
74162,130510,4
74136,130468,5
74115,130444,5
74107,130332,5
74099,130413,5
74081,130394,4
74059,130371,6
74045,130363,4
73997,130283,5
73933,130208,5
73875,130123,6
73824,130124,3
73773,129945,5
73703,129847,5
73642,129756,5
73589,129796,4
73538,129601,5
73496,129556,5
73471,129506,5
73438,129523,4
73399,129422,4
73377,129372,5
73341,129325,5
73308,129276,5
73260,129201,4
73203,129116,5
73134,129001,5
73075,128923,5
73026,128858,5
72983,128789,4
72904,128688,5
72825,128559,6
72755,128464,4
72674,128341,5
72591,128240,4
72533,128142,7
72469,128066,3
72422,128009,5
72394,127955,5
72348,127892,4
72276,127756,5
72193,127647,5
72147,127597,5
72143,127597,4
72135,127578,4
72067,127481,5
71935,127252,5
71804,127068,5
71709,126979,4
71681,126932,5
71631,126851,5
71605,126813,5
71583,126806,5
71575,126788,4
71566,126789,5
71565,126778,5
71563,126778,6
71559,126781,4
71565,126764,4
71552,126755,5
71534,126711,5
71513,126684,5
71494,126663,5
71482,126642,4
71451,126615,5
71440,126594,5
71431,126572,5
71423,126552,4
71396,126516,4
71363,126467,5
71324,126417,5
71291,126367,5
71263,126334,4
71232,126275,5
71194,126223,5
71165,126190,5
71126,126111,5
71086,126069,5
71056,126027,4
71029,125978,5
70996,125921,5
70944,125868,6
70904,125818,3
70860,125747,5
70833,125702,5
70788,125643,5
70753,125587,5
70722,125545,4
70692,125496,5
70645,125432,5
70595,125367,5
70553,125295,5
70507,125239,4
70467,125178,5
70428,125119,5
70388,125067,5
70352,125020,4
70331,124990,5
70329,124982,5
70310,124959,5
70275,124897,5
70237,124855,4
70196,124791,6
70155,124724,4
70078,124670,5
70050,124575,5
70011,124503,6
69960,124441,3
69846,124388,5
69882,124335,5
69837,124254,5
69732,124092,4
69572,123994,5
69647,123981,5
69632,123960,5
69581,123835,5
69434,123606,4
69282,123429,5
69212,123338,5
69218,123337,5
69280,123327,4
69190,123291,5
69166,123244,5
69107,123142,5
69123,123032,5
68969,122963,4
68961,122968,5
68992,123009,6
69084,123083,4
69112,123200,5
69219,123376,4
69354,123557,5
69462,123672,5
69522,123774,5
69566,123840,5
69616,123899,4
69646,123886,5
69709,124045,5
69760,124137,5
69828,124209,5
69880,124218,4
69973,124450,5
70077,124634,5
70247,124867,5
70405,125035,4
70546,125308,4
70696,125522,5
70914,125884,5
71246,126404,5
71596,126909,4
72057,127597,5
72499,128229,5
72890,128899,6
73245,129346,4
73741,130138,4
74521,131386,5
75665,133180,5
76766,134724,5
77904,136356,5
79047,137961,4
80206,139737,5
81288,141224,5
82459,142931,5
83052,144699,5
84395,146689,4
85972,149049,5
88070,151222,5
90346,154196,5
92411,156905,4
94548,159578,4
96518,162057,5
98375,164531,5
99993,166658,5
102264,169395,5
104563,172270,4
106461,174736,5
108557,177275,5
110625,179929,6
112884,182476,3
114525,183969,5
115894,185558,5
116784,187210,5
118045,188781,5
119160,189994,4
120062,191049,5
121098,192418,5
122307,193766,5
123337,194964,5
124093,196059,4
125024,197217,5
125776,197390,5
126588,198381,5
127501,199338,4
128077,199722,4
128838,200613,5
129580,201261,5
130192,201677,5
130743,202194,4
131254,202729,6
130898,203022,4
131165,203322,5
131307,203579,5
131387,203667,4
131429,203702,5
131490,203716,5
131529,203716,5
131543,203688,5
131619,203734,4
131726,203719,5
131697,203630,5
131724,203651,5
131717,203634,5
131749,203674,4
131860,203743,5
131967,203795,5
132094,204259,5
132207,204415,4
132256,204474,4
132219,204509,5
132175,204405,5
132063,204319,5
131925,204230,4
131811,204121,5
131639,203952,6
131488,203826,4
131320,203645,5
131144,203475,4
130928,203239,5
130672,202948,5
130449,202717,5
130284,202578,5
130122,202440,4
129902,202253,5
129774,202160,5
129671,202084,5
129586,201997,5
129500,201930,4
129338,201794,5
129131,201574,5
128899,201393,5
128741,201236,4
128476,201079,4
128438,200993,5
128340,200937,5
128257,200875,5
127842,200768,4
127957,200556,5
127714,200324,5
127314,199888,6
126378,199423,4
126204,198742,4
125523,197998,5
124635,197054,5
123686,196167,5
123095,195400,5
122374,194631,4
121744,193910,5
121214,193062,5
120232,192186,5
119487,191275,5
118663,190290,4
118223,189435,5
117069,188326,5
116164,187393,5
115539,186711,4
115130,186089,4
114501,185547,5
114814,185106,5
114417,184600,5
113974,183999,5
113412,183377,4
112835,182684,5
112275,181997,5
111734,181192,5
111286,180832,4
110815,180302,5
110437,179865,5
110103,179933,5
109818,179827,5
109478,179376,4
109123,178965,5
108735,178316,5
108364,178065,5
108031,177706,5
107661,177236,5
107051,176525,4
106377,175650,5
105794,174878,5
105339,174318,4
104971,174036,4
104532,173252,5
104059,172610,5
103551,171995,5
102985,171401,4
102146,170126,6
101452,169225,4
100755,168343,5
100110,167530,5
99428,166493,4
98615,165429,5
97888,164426,5
97587,163242,5
96781,162742,5
96081,161766,4
95403,160912,5
94789,160067,5
94206,159247,5
93631,158483,5
93094,157758,4
92620,157099,5
92147,156436,5
91649,155752,5
91163,155048,4
90642,154371,4
90157,153722,5
89796,153255,5
89517,152905,5
89268,152563,4
88980,152181,5
88693,151749,6
88390,151357,4
88145,150971,5
87901,150633,4
87737,150433,5
87601,150258,5
87441,149982,5
87171,149576,5
86875,149157,4
86594,148760,5
86362,148456,5
86197,148214,5
86011,147931,5
85756,147560,4
85421,147089,5
85076,147242,5
84802,146891,5
84552,146514,4
84250,146059,4
83874,145472,5
83391,144724,5
82895,144004,5
82407,143299,4
81970,142582,5
81478,141889,5
81725,141373,5
81371,140854,5
81115,140462,4
80914,140166,5
80742,139921,5
80560,139643,5
80367,139352,5
80182,139119,4
80105,139027,5
80066,138981,5
80033,138946,5
79983,138864,5
79916,138775,4
79862,138691,5
79774,138560,5
79696,138431,5
79536,138177,4
79364,137913,4
79183,137641,5
79006,137372,5
78817,137085,5
78565,136756,5
78345,136427,4
78123,136107,5
77993,135915,5
77874,135749,5
77789,135614,4
77636,135364,5
77426,135036,5
77212,134726,5
77007,134448,5
76864,134246,4
76762,134106,5
76713,134044,5
76680,134032,5
76692,134033,5
76723,134107,4
76796,134227,5
76837,134389,5
77047,134642,5
77267,134991,4
77540,135411,4
77722,135852,6
78211,136457,4
78592,136973,5
78826,137284,4
78894,137549,7
79168,137796,3
79247,137885,5
79272,137951,5
79383,138097,4
79498,138363,5
79664,138612,5
79803,138843,5
80113,139186,5
80261,139583,8
80568,140087,1
80920,140654,5
81403,141153,5
81606,141626,5
81999,142213,4
82415,142873,5
82999,143714,5
83551,144612,5
84170,145551,5
84807,146475,4
85409,147299,5
85831,147918,6
86003,148174,4
86055,148211,4
85975,147984,5
85827,147854,5
85649,147571,5
85410,147218,5
85105,146624,4
84745,146177,5
84252,145431,5
83720,144648,5
83233,143908,5
82818,143361,4
82442,142821,5
82166,142433,5
81939,142177,5
81706,141778,5
81600,141646,4
81572,141639,5
81596,141819,5
81654,141782,5
81756,141957,5
81877,142130,4
82000,142388,5
82078,142392,5
82105,142459,6
82186,142571,3
82255,142680,5
82324,142767,5
82368,142831,5
82394,142852,5
82416,142887,4
82434,142906,5
82431,142906,5
82427,142910,5
82438,142917,5
82464,142989,4
82587,143176,5
82738,143429,5
82960,143764,5
83123,143974,5
83208,144080,4
83203,144069,5
83194,144064,5
83207,144085,5
83234,144128,5
83239,144128,5
83232,144097,4
83226,144089,5
83235,144143,5
83323,144269,6
83400,144368,3
83405,144350,5
83352,144292,5
83335,144277,5
83344,144280,4
83312,144201,5
83211,144050,5
83069,143836,5
82896,143565,5
82714,143288,4
82550,143055,5
82388,142827,5
82239,142633,5
82143,142494,5
82106,142480,4
82102,142453,5
82087,142456,5
82074,142398,5
81955,142192,5
81757,141895,4
81508,141503,6
81192,141035,4
80834,140517,5
80546,140143,4
80346,139863,4
80224,139696,5
80179,139660,5
80098,139508,5
79933,139252,4
79802,139051,5
79632,138801,5
79368,138370,5
79019,137863,5
78619,137236,4
78160,136563,5
77746,135966,5
77374,135443,5
77109,135116,5
77047,135092,4
77081,135164,5
77116,135210,5
77108,135180,5
77077,135140,5
77001,135004,4
76877,134822,5
76732,134621,6
76561,134335,4
76337,134010,4
76119,133682,4
75910,133388,5
75699,133091,5
75511,132817,5
75417,132731,4
75489,132887,5
75688,133200,5
75915,133523,5
76120,133850,5
76291,134142,4
76477,134351,5
76559,134453,5
76616,134538,5
76590,134638,5
76824,134870,4
76991,135123,5
77134,135316,5
77122,135449,5
77281,135517,5
77327,135590,4
77429,135783,5
77650,136174,5
77982,136650,6
78260,137065,3
78465,137314,4
78668,137469,5
78662,137581,5
78658,137545,5
78595,137407,4
78529,137112,5
78169,136745,5
77918,136375,5
77646,135945,5
77273,135277,4
76687,134447,5
76092,133573,5
75476,132621,5
74788,131566,5
74009,130460,4
73353,130204,5
72815,129407,5
72349,128644,5
71911,128007,5
71405,127193,5
70818,126292,4
70260,125380,5
69728,124615,5
69239,123820,5
68707,123035,4
68163,122103,5
67623,121323,5
67136,120544,5
66699,119801,5
66286,119146,4
65934,118526,5
65602,117992,5
65360,117623,5
65828,117404,4
65660,117041,5
65459,116689,5
65235,116364,5
65036,116140,5
64855,115743,4
64676,115485,5
64522,115203,5
64367,114941,5
64171,114634,5
64038,115156,4
63946,115005,6
63822,114799,4
63669,114579,5
63518,114310,5
63356,114051,4
63193,113762,5
62963,113390,5
62673,112881,5
62371,112410,4
62101,111948,4
61869,111618,5
61705,111378,5
61640,111288,5
61617,111271,4
61628,111305,5
61684,111405,5
61756,111532,5
61860,111693,5
62001,111936,4
62193,112259,5
62401,112585,5
62648,112957,5
62874,113339,5
63141,113760,4
63441,114245,5
63747,114717,6
64017,115147,4
64331,115651,5
64641,116150,4
64943,116605,5
65238,117075,5
65501,117453,5
65667,117690,4
65801,117895,4
65912,118058,5
65998,118216,5
66067,118299,5
66145,118435,4
66249,118627,5
66373,118804,5
66443,118903,5
66501,118982,5
66559,119087,4
66663,119246,5
66591,119268,5
66915,119707,5
67116,119999,5
67210,120090,4
67222,120136,5
67216,120145,5
67286,120232,5
67353,120373,5
67498,120575,4
67574,120737,5
67710,120931,5
67871,121197,5
68037,121451,4
68187,121685,4
68284,121827,5
68373,121948,5
68461,122075,5
68512,122150,4
68536,122174,5
68524,122145,5
68478,122085,5
68437,122010,5
68362,121910,4
68321,121823,5
68243,121713,5
68158,121562,5
68067,121427,5
67975,121287,5
67901,121193,4
67834,121084,5
67763,120979,5
67690,120868,5
67616,120731,4
67540,120609,5
67461,120502,5
67414,120438,5
67391,120425,5
67372,120374,4
67253,120243,5
67196,120059,5
67056,119847,5
66913,119618,4
66684,119383,5
66598,119114,5
66426,118864,5
66285,118628,5
66052,118360,4
65931,118069,5
65785,117871,5
65694,117740,5
65670,117653,5
65582,117579,4
65562,117558,6
65570,117562,4
65692,117616,5
65647,117728,5
65753,117890,4
65873,118066,5
66037,118178,5
66026,118262,5
66071,118359,5
66123,118424,4
66171,118444,5
66153,118456,5
66170,118486,5
66205,118542,4
66254,118563,4
66292,118679,5
66338,118727,5
66345,118739,5
66327,118636,4
66290,118649,5
66249,118566,5
66184,118480,6
66134,118303,4
66059,118293,4
66012,118210,5
65963,118152,5
65944,118117,5
65932,118112,5
65919,118101,4
65905,118062,5
65878,118088,5
65858,117985,5
65839,117962,5
65826,117933,4
65800,118008,5
65803,117891,5
65800,117866,5
65780,117878,4
65773,117889,4
65750,117797,5
65711,117733,5
65662,117631,5
65587,117539,4
65532,117451,5
65501,117411,5
65464,117339,5
65427,117285,5
65390,117224,4
65357,117180,5
65330,117131,5
65310,117114,5
65302,117102,5
65287,117072,4
65263,117022,5
65188,116912,5
65107,116745,5
64989,116550,5
64900,116417,4
64813,116285,5
64750,116173,5
64690,116114,5
64676,116106,4
64695,116135,4
64718,116154,5
64728,116167,5
64718,116146,5
64700,116105,4
64678,116073,5
64658,116050,4
64659,116052,5
64652,116060,5
64658,116043,6
64645,116036,3
64623,116016,5
64609,115989,5
64598,115959,5
64596,115962,4
64615,115998,5
64652,116089,5
64718,116175,5
64792,116261,5
64826,116326,4
64860,116358,5
64850,116355,5
64819,116299,5
64771,116208,4
64723,116139,4
64687,116071,5
64631,115980,5
64568,115882,5
64520,115817,4
64490,115777,5
64466,115753,6
64461,115739,4
64457,115745,5
64480,115792,4
64526,115879,7
64597,115967,3
64657,116056,5
64685,116092,5
64662,116036,4
64591,115910,5
64529,115836,5
64506,115814,5
64506,115827,5
64506,115813,4
64466,115771,5
64451,115733,5
64450,115741,5
64485,115818,5
64565,115914,4
64624,116020,5
64699,116135,5
64750,116208,5
64779,116226,4
64772,116225,5
64754,116185,5
64742,116168,6
64736,116171,4
64751,116169,4
64737,116158,5
64684,116071,5
64603,115922,5
64470,115756,5
64391,115584,4
64263,115352,5
64072,115045,5
63780,114676,5
63633,114364,5
63520,114214,4
63509,114201,5
63448,114255,5
63578,114323,5
63667,114472,5
63782,114659,4
63887,114857,5
64060,115122,5
64231,115369,5
64384,115617,5
64590,115829,4
64669,116041,5
64769,116194,5
64867,116347,6
65090,116598,5
65203,116910,3
65384,117207,5
65546,117472,5
65790,117761,5
65934,118080,4
66153,118440,5
66389,118795,5
66628,119129,5
66775,119326,5
66813,119375,4
66807,119334,5
66745,119199,5
66684,119164,5
66667,119152,5
66678,119190,4
66743,119217,5
66810,119420,5
66940,119640,5
67129,119949,5
67355,120196,5
67570,120628,4
67811,121010,5
68144,121580,5
68628,122407,6
69301,123514,3
70128,124733,5
70813,125754,5
71360,126659,5
71849,127290,4
72204,127844,5
72555,128412,5
72944,129108,5
73363,129665,5
73769,130291,4
74231,131076,5
74779,131202,5
75294,131902,5
75706,132479,5
76066,133033,4
76441,133572,5
76753,134025,5
76976,134335,5
77114,134471,4
77131,134502,4
77119,134479,6
77156,134564,4
77256,134713,5
77349,134851,4
77418,134943,5
77467,135023,5
77594,135267,5
77932,135844,5
78635,137020,4
79579,138506,5
80591,139973,5
81369,140962,5
81678,141346,5
81873,141669,4
82156,142142,5
81939,142856,5
82530,143751,5
83191,144692,5
83740,145462,4
84250,146226,5
84784,147037,5
85287,147721,5
85707,147630,5
86056,148175,4
86439,148765,5
86851,149362,6
87261,149972,4
87662,150591,4
88025,151089,4
88373,151577,5
88591,151911,5
88774,152150,5
88904,152322,4
88958,152401,5
88961,152384,5
88936,152337,5
88915,152322,5
88887,152276,4
88871,152258,5
88865,152264,5
88873,152253,5
88834,152169,5
88708,151939,4
88417,151464,5
87969,150764,5
87424,149982,5
86859,149157,5
86291,148367,4
85811,147726,5
85538,147335,5
85307,147019,6
85111,146737,3
84960,146549,4
84854,146438,5
84820,146414,5
84821,146425,5
84833,146476,4
84887,146584,5
84965,146694,5
85011,146770,5
85056,146839,5
85073,146854,4
85101,146914,5
85162,147024,5
85252,147177,5
85377,147366,5
85570,147686,4
85843,148089,5
86172,148599,5
86495,149066,5
86754,149447,5
86946,149752,5
87125,150015,4
87300,150319,5
87505,150638,5
87702,150939,4
87767,151151,4
87937,151305,5
87986,151391,5
88023,151463,5
87971,151602,4
88199,151761,5
88257,151857,5
88272,151900,5
88138,151971,5
88374,152137,4
88497,152302,5
88546,152381,5
88547,152316,5
88437,152185,5
88323,152036,4
88198,151864,5
88209,151710,5
88028,151686,5
88026,151674,5
88027,151634,4
88161,151651,6
88116,151813,4
88281,152048,5
88460,152295,5
88655,152514,4
88745,152672,5
88893,152894,5
89130,153247,5
89395,153531,4
89539,153729,5
89527,153692,5
89474,153613,5
89459,153489,5
89459,153572,4
89444,153552,5
89440,153520,5
89400,153309,5
89366,153421,5
89409,153518,4
89479,153597,5
89538,153595,5
89580,153708,5
89619,153713,5
89670,153791,4
89713,153965,5
89765,153918,6
89882,154072,4
90048,154348,5
90278,154848,4
90532,155048,5
90826,155508,5
91160,155974,5
91498,156593,4
91854,156933,4
92139,157361,5
92359,157658,5
92606,158067,5
92914,158455,4
93201,158893,5
93546,159419,5
93882,159833,5
94187,160261,5
94584,160820,4
95086,161585,5
95656,162359,5
96222,163091,5
96579,163588,5
96939,164085,4
97287,163907,5
97576,164306,5
97801,164586,5
98008,164924,5
98287,165325,4
98575,165721,5
98154,165997,5
98388,166327,5
98652,166692,4
98921,167051,4
99205,167417,5
99447,167742,5
99588,167943,5
99682,168050,4
99816,168230,5
100000,168502,5
100202,168796,5
100379,169005,5
100524,169221,4
100741,169475,5
100900,169694,5
101008,169842,5
101067,169919,5
101095,169924,5
101126,169971,4
101176,170071,5
101215,170091,5
101218,170082,5
101192,170034,4
101110,169882,5
101001,169768,5
100938,169695,5
100915,169663,4
100907,169663,4
100907,169617,5
100872,169607,5
100958,169738,5
101097,169957,4
101313,170272,5
101600,170671,5
101931,171136,5
102347,171753,5
102922,172536,4
103536,173397,5
104242,174355,5
104992,175307,5
105659,176260,5
106356,177130,4
106891,177826,6
107267,178173,4
107368,178223,5
107348,178184,5
107326,178125,4
107255,178013,5
107130,177861,5
107078,177799,5
107063,177787,5
107072,177817,4
107115,177880,5
107232,178082,5
107465,178410,5
107743,178803,4
108045,179241,5
108429,179746,5
108940,180426,5
109531,180665,5
110281,181659,4
111209,182950,5
112126,184161,5
113007,185436,5
114059,186774,5
115091,188103,4
115602,189512,5
116386,190672,5
117427,191689,5
118249,192607,5
119129,193601,4
119743,194671,5
120865,195515,5
121655,196470,5
122403,197306,5
122987,197493,4
123935,198517,5
124666,199512,5
125529,200532,5
126476,201371,4
126792,202128,4
127498,203060,5
128242,204057,5
129377,204911,5
129539,205708,5
129915,206068,4
130328,206648,5
131157,207408,5
130746,208179,5
131250,208868,3
131727,209473,5
132233,210014,5
132633,210744,5
133126,211472,5
133583,212085,4
134018,212437,5
134518,213237,5
135098,213412,5
135717,214163,5
136384,214524,4
137049,215720,5
137678,216401,5
138433,217471,5
139165,217724,4
139725,218945,4
140491,219704,5
141107,220420,5
141621,221117,5
142107,221673,4
142573,222288,6
142984,222807,4
143405,224114,5
143815,224009,5
144081,224420,6
144278,224689,3
144500,225714,5
144530,225088,5
144675,225316,5
144770,225633,4
144959,226162,5
145080,226059,5
145217,226303,5
145350,226460,5
145505,226663,4
145625,226722,5
145666,226738,5
145756,226832,5
145909,227296,5
146257,227492,4
146369,227599,5
146407,227613,5
146436,227720,5
146501,227826,4
146522,227871,5
146540,227917,6
146572,227961,4
146598,228008,5
146644,228065,4
146686,228124,7
146697,228165,3
146693,228177,5
146709,228223,5
146715,228236,4
146722,228233,5
146711,228243,5
146714,228277,5
146727,228279,5
146724,228285,4
146718,228254,5
146699,228242,5
146642,228210,5
146600,228187,5
146577,228209,4
146606,228204,5
146591,228163,5
146546,228111,5
146481,228045,4
146424,227993,4
146367,227945,5
146313,227903,6
146266,227857,4
146216,227816,4
146146,227758,5
146079,227699,5
146042,227687,5
146001,227636,5
145923,227539,4
145888,227500,5
145823,227461,5
145793,227408,5
145726,227351,5
145660,227289,4
145590,227196,5
145515,227112,5
145438,227015,5
145353,226921,5
145243,226824,4
145147,226706,5
145018,226563,5
144888,226424,5
144763,226262,5
144648,226126,4
144528,225974,5
144378,225795,5
144224,225623,6
144076,225442,3
143922,225260,5
143791,225128,5
143698,225046,5
143549,224853,5
143374,224640,4
143125,224352,5
142945,224137,5
142790,223950,5
142634,223795,5
142524,223643,4
142368,223463,5
142214,223292,5
142090,223144,5
141912,222944,5
141713,222740,4
141522,222572,5
141381,222427,5
141255,222196,5
140823,221974,4
140916,221792,5
140794,221655,4
140658,221457,5
139955,221224,5
140281,221028,6
140120,220834,3
140052,220782,5
139488,220783,5
140000,220723,5
139887,220621,4
139762,220489,5
139716,220377,5
139520,220234,5
139374,220066,5
139171,219833,4
139432,219614,5
138782,219432,5
138625,219229,9
138340,218936,1
138600,218564,4
137780,218253,5
137540,217985,5
137326,217730,5
137284,217462,4
136846,217176,4
136617,216908,6
136418,216648,4
136307,216440,5
136190,216407,4
136134,216339,5
136063,216236,5
135970,215797,5
135889,216042,5
135802,215954,4
135707,215831,5
135574,215189,5
135453,215526,5
135344,215397,5
135267,215287,5
135172,214964,4
135022,214986,5
134810,214747,5
134615,214503,5
134415,214542,4
134171,213981,5
133910,213693,5
133651,213415,5
133411,213607,5
133257,212954,4
133020,212748,5
132847,212543,6
132700,212660,4
132557,212177,4
132462,212092,5
132394,212001,5
132349,212003,5
132265,211810,5
132166,211725,4
132118,211632,5
132089,211620,5
132072,211570,5
132038,211535,5
132040,211552,4
132068,211565,5
132065,211564,5
132047,211544,5
132031,211523,5
132028,211514,4
132030,211514,5
132065,211572,5
132122,211629,5
132151,211644,5
132200,211721,4
132249,211747,5
132286,211816,5
132317,211825,6
132338,211834,3
132357,211855,4
132371,211839,5
132370,211837,5
132374,211831,5
132364,211796,4
132327,211745,5
132280,211688,5
132240,211643,5
132186,211574,5
132173,211547,4
132174,211526,5
132174,211551,5
132212,211597,5
132280,211678,5
132325,211715,4
132387,211797,5
132488,211933,5
132581,212022,5
132607,212045,5
132581,212019,5
132568,212025,4
132585,212035,5
132619,212090,5
132629,212115,4
132638,212107,4
132616,212105,5
132600,212082,5
132585,212075,5
132600,212095,4
132612,212126,5
132629,212136,5
132663,212207,5
132728,212286,5
132784,212364,4
132889,212509,5
133060,212727,5
133260,212956,5
133461,213201,5
133657,213432,4
133859,213686,5
134080,213932,5
134279,214176,5
134491,214419,5
134686,214668,4
134861,214872,6
135039,215081,4
135201,215292,5
135356,215482,4
135506,215653,4
135607,215795,5
135691,215873,5
135772,215983,5
135903,216053,4
135985,216121,5
136007,216139,5
135989,216106,5
135975,216069,5
135962,216061,4
135992,216067,5
135955,216115,5
136088,216152,5
136149,216225,5
136162,216220,4
135791,216174,5
136089,216102,5
136036,216034,5
135985,215963,5
135473,215888,4
135880,215826,5
135797,215698,6
135657,215524,4
135339,215373,5
135452,215298,4
135345,215185,5
135250,215079,5
135465,214978,5
135146,214960,4
135204,215048,5
135335,215226,5
135989,215426,5
135655,215618,5
135808,215791,4
135958,215979,5
136444,216209,5
136346,216444,5
136498,216619,5
136589,216713,5
136732,216773,4
136678,216806,5
136691,216809,5
136670,216807,6
136702,216606,3
136773,216936,5
136823,217013,5
136887,217105,5
136937,216751,5
136989,217270,4
137005,217301,5
137059,217415,5
137135,217035,5
137137,217546,4
137098,217524,4
137026,217456,5
136917,217440,5
136707,217086,5
136413,216781,4
136139,216498,5
135920,216757,5
135769,216197,5
135622,216100,5
135443,215876,4
135224,216128,5
135014,215475,5
134861,215343,5
134764,215296,5
134664,215345,5
134544,215081,4
134459,214961,5
134291,214793,5
134106,214628,5
133929,214453,4
133874,214431,5
133867,214447,5
133837,214405,5
133793,214422,4
133787,214428,4
133807,214510,5
133903,214652,5
133969,214723,5
134026,214838,4
134061,214875,5
134107,214913,5
134151,214968,5
134188,215000,5
134269,215102,4
134407,215247,5
134475,215312,5
134515,215375,5
134566,215419,5
134584,215446,4
134553,215419,6
134512,215389,4
134475,215364,5
134413,215307,5
134346,215238,4
134249,215137,5
134181,215101,5
134142,215080,5
134110,215083,5
134091,215076,4
134051,215081,5
134038,215106,5
134019,215118,5
134049,215157,4
134043,215162,5
134015,215131,5
134007,215128,5
134022,215130,5
134050,215151,4
134060,215148,5
134088,215187,5
134139,215242,5
134212,215310,4
134311,215429,4
134432,215566,5
134586,215683,5
134697,215782,5
134783,215882,5
134874,215965,4
135008,216062,5
135164,216214,5
135416,216420,5
135618,216652,5
135866,216872,4
136044,217052,5
136148,217148,5
136241,217203,5
136288,217228,4
136349,217285,4
136424,217369,5
136454,217386,5
136422,217333,5
136364,217251,5
136280,217131,4
136178,216994,5
136137,216912,5
136076,216822,6
136070,216785,3
136110,216770,5
136114,216727,5
136049,216610,5
135924,216472,5
135822,216326,4
135727,216193,5
135642,216038,5
135553,215901,5
135445,215776,5
135330,215705,4
135240,215582,5
135158,215505,5
134888,215432,5
135010,215329,4
134938,215259,4
134887,215219,5
134451,215151,5
134794,215093,5
134755,215059,4
134709,214992,6
134187,214932,4
134617,214877,5
134612,214890,5
134648,214943,6
134777,215015,3
134783,215097,5
134839,215159,5
134873,215190,5
135346,215281,4
135012,215392,5
135097,215482,5
135135,215549,5
135669,215607,5
135211,215664,4
135220,215695,5
135230,215732,5
135487,215876,5
135398,216010,5
135460,216091,4
135448,216082,5
135431,215987,5
135325,215983,5
135281,215936,4
135241,215940,5
135233,215630,6
135208,215944,4
135159,215869,5
135093,215802,4
135015,215260,5
134932,215640,5
134851,215548,5
134704,215354,5
134512,214888,4
134338,214966,5
134174,214829,5
134035,214752,5
133890,214860,5
133725,214471,4
133516,214280,5
133260,214030,5
132943,214165,5
132599,213336,5
132266,213052,4
132031,212789,5
131738,212797,5
131478,212242,5
131229,211992,4
131047,211817,4
130746,211639,5
130492,211324,6
130258,211091,4
129989,210805,4
129746,210527,5
129556,210351,5
129439,210264,5
129441,210333,5
129540,210479,4
129666,210702,5
129785,210865,5
129875,211019,5
129957,211138,5
130051,211293,4
130132,211410,5
130226,211551,5
130343,211691,5
130404,211762,5
130371,211696,4
130295,211617,5
130253,211585,5
130227,211586,5
130216,211556,5
130189,211518,4
130172,211500,5
130170,211520,5
130256,211640,6
130436,211873,3
130648,212132,5
130806,212286,5
130834,212304,5
130837,212270,5
130804,212211,4
130761,212155,5
130711,212086,5
130695,212043,5
130689,212054,5
130786,212190,4
130934,212375,5
131156,212640,5
131438,213010,5
131751,213389,5
132051,213714,4
132247,213892,5
132346,213961,5
132384,213976,5
132393,213963,5
132394,213984,5
132431,214023,4
132501,214092,5
132619,214196,5
132710,214263,6
132822,214366,3
132938,214479,5
133081,214620,5
133188,214701,5
133271,214764,4
133348,214821,5
133432,214916,5
133533,215015,5
133581,215042,5
133615,215048,4
133651,215069,5
133712,215105,5
133784,215153,5
133920,215294,5
134087,215451,4
134244,215567,5
134361,215638,5
134400,215606,5
134367,215547,5
134353,215498,4
134355,215452,6
134365,215419,4
134448,215441,5
134525,215557,4
134683,215686,4
135029,216037,5
135491,216567,5
135927,217022,5
136184,217321,4
136316,217460,5
136391,217533,5
136420,217535,5
136407,217481,5
136130,217451,4
136414,217448,5
136441,217440,5
136424,217424,5
135986,217427,5
136449,217432,4
136388,217324,5
136466,217395,5
136229,217590,5
137058,218178,5
137839,219169,4
138853,220327,5
140043,221504,6
140671,222322,4
141245,222980,5
141676,223435,4
142515,223688,5
142060,223800,7
142068,223738,3
141983,223670,4
142533,223830,4
142204,224108,5
142538,224483,5
142840,224874,5
143499,225493,4
143611,226058,5
143915,226418,5
144180,226998,5
144421,227180,5
144572,227712,4
144704,227984,5
144807,228211,5
144858,227792,5
144921,228474,5
144960,228533,4
144968,228545,5
144954,227854,5
144849,228484,6
144702,228364,4
144499,228174,5
144315,227946,4
144077,227887,5
143785,227529,5
143460,227131,4
143063,227190,4
142717,226289,5
142257,225725,5
141896,225283,5
141717,225688,4
141626,224951,5
141553,224842,5
141398,224604,5
141184,224628,5
140911,223882,4
140534,223386,5
140171,223020,5
140167,223153,5
140444,223355,5
140811,223723,5
141217,224145,4
141640,224537,5
141924,224733,5
142124,224771,5
142170,224642,4
142128,224550,5
142149,224560,5
142250,224686,5
142518,224970,4
142917,225288,4
143058,225454,5
143086,225179,5
143013,224964,5
142907,224680,4
142724,224271,5
142451,223834,5
142213,223365,5
141881,222730,5
141565,222121,4
141280,221614,5
141040,221079,5
140675,220068,5
140383,219681,5
140273,219320,4
140074,218849,6
139955,218610,4
139740,217920,5
139367,217236,5
138937,216460,4
138584,215758,5
138235,215109,5
137922,214714,5
137661,214390,5
137422,214012,4
137053,213593,5
136637,213097,5
136211,212463,5
135644,211619,4
134940,210691,4
134065,209557,5
133153,208517,5
132481,207780,5
132089,207313,4
131696,206823,5
131189,206227,5
130597,205518,5
129932,204845,5
129098,203608,4
128105,202390,5
127298,201435,6
126490,200458,4
125603,199279,5
124638,198046,4
123867,197098,5
123420,196601,5
123189,197009,5
123002,196791,5
122604,196254,4
121984,195481,5
121364,194584,5
120353,193415,5
119516,192303,4
118559,191026,4
117763,189930,5
117094,189083,5
116506,188339,5
115888,187493,4
114947,186191,5
113631,183940,5
112911,181894,5
111661,180239,5
110265,178481,4
109351,178044,5
108606,177076,5
107809,176085,5
107060,175174,5
106473,174478,4
106070,174045,5
105640,173839,5
105745,173788,5
105716,173827,5
105753,173935,4
104392,174196,5
106187,174616,5
106508,175113,5
106883,175760,5
105022,176056,4
107141,175968,5
106947,175779,5
106822,175662,5
105330,175537,4
106615,175513,5
106627,175581,5
106670,175666,5
107748,175738,5
106738,175841,5
106823,176003,4
106908,176131,5
109112,176221,5
106948,176238,5
106881,176142,4
106671,175866,5
107903,175499,5
106122,175232,5
105945,175035,5
105831,174937,4
106314,174977,5
106006,175301,5
106392,175798,5
106785,176265,5
107182,175985,4
107546,177184,5
107889,177628,5
108286,178169,5
108777,177122,4
109277,179503,4
109705,180068,5
110088,180522,5
110358,178723,5
110574,181104,4
110671,181213,6
110721,181311,4
110857,181388,5
111187,182078,5
111735,182827,4
112353,183641,5
112996,186100,5
113620,185311,5
114233,186073,5
114516,186380,4
114677,188820,5
114878,186898,5
115091,187184,5
115302,187420,5
115335,188430,4
115253,187281,5
115186,187220,5
115217,187289,5
115328,187682,4
115511,187721,4
115591,187816,5
115619,187864,6
115659,187933,4
115750,188102,4
115889,188300,5
116079,188628,5
116440,189173,5
116852,189738,5
117224,190242,4
117593,190782,5
118013,191375,5
118529,192093,5
119032,192762,5
119366,193197,4
119657,193603,5
119952,194030,5
120277,194484,5
120653,195007,5
121094,195623,4
121621,196305,5
122107,196942,5
122608,196864,5
123028,197414,5
123393,197897,4
123711,198310,5
123906,198574,5
124070,198787,6
124198,198980,3
124321,199164,5
124481,199406,5
124690,199704,5
124943,200054,5
125209,200389,4
125442,200733,5
125767,201208,5
126165,201757,5
126593,202325,5
126991,202869,4
127334,203339,5
127630,203765,5
127908,204136,5
128116,204411,5
128294,204703,4
128537,205047,5
128826,205468,5
129141,205897,5
129468,206363,5
129829,206872,5
130199,207346,4
130526,207807,5
130826,208223,5
131121,208634,6
130668,208995,3
130908,209299,5
131129,209569,5
131349,209870,5
131576,210178,4
131818,210517,5
132082,210850,5
132309,211167,5
132478,211431,5
132665,211696,4
132899,212061,5
133229,212553,5
133601,213088,5
133966,213041,5
134312,213525,4
134616,213967,5
134934,214402,5
135227,214782,5
135472,215093,5
135706,215395,4
135910,215658,6
136085,215876,4
136227,216090,5
136375,216284,4
136556,216546,4
136761,216844,5
136990,217177,5
136868,217454,5
137341,217684,4
137500,217926,5
137674,218166,5
136660,218470,5
138093,218814,5
138327,219163,4
138605,219564,5
137248,219962,5
139153,220342,5
139390,220675,5
139596,220979,4
139131,221272,5
139975,221559,5
140176,221845,5
140381,222156,5
141571,222508,4
140889,222908,5
141130,223273,6
141398,223648,4
143295,224013,5
141882,224365,4
142065,224666,5
142239,224928,5
143426,225157,5
142551,225399,4
142705,225625,5
142852,225866,5
143276,226049,5
143123,226239,5
143247,226423,4
143367,226595,5
143505,226131,5
143669,227068,5
143825,227283,5
143967,227500,4
144108,226380,5
144239,227890,5
144351,228073,5
144461,228231,5
144560,226847,4
144678,228553,5
144777,228731,5
144882,228916,6
145004,229200,4
145126,229299,4
145221,229469,5
145332,229036,5
145428,230506,5
145523,229352,4
145620,229509,4
145715,229684,5
145818,231488,5
145926,230018,5
146053,230180,4
146156,230368,5
146247,231201,5
146343,230668,5
146424,230797,5
146488,230919,4
146582,231152,5
146691,231196,5
146785,231339,5
146870,231475,5
146969,231627,5
147046,231712,4
147120,231828,5
147182,231907,5
147252,231997,6
147313,232079,3
147348,232156,5
147399,232226,5
147444,232290,5
147469,232342,4
146809,232399,4
146848,232454,5
146885,232521,5
146916,232607,5
146953,232670,4
146987,232744,5
147043,232872,5
147175,233080,5
147271,233241,5
147359,233370,4
147435,233490,5
147497,233548,5
147551,233628,5
147600,233711,5
147652,233795,4
147691,233847,6
147701,233869,4
147704,233867,5
147698,233865,5
147718,233912,4
147752,233942,5
147753,233962,5
147782,233997,5
147810,234040,5
147825,234081,4
147847,234147,5
147883,234214,5
147915,234261,5
147946,234311,4
147962,234320,5
147972,234358,5
148009,234404,5
148044,234473,5
148086,234539,4
148132,234622,5
148172,234682,5
148219,234734,5
148224,234785,5
148269,234835,4
148299,234888,5
148320,234943,6
148362,235042,4
148418,235135,5
148459,235184,4
148464,235231,5
148520,235307,5
148560,235393,5
148586,235447,5
148618,235486,4
148647,235544,5
148678,235605,5
148695,235650,5
148721,235693,4
148753,235742,4
148772,235762,5
148806,235821,5
148835,235861,5
148857,235906,4
148885,235940,5
148914,235985,5
148918,236011,5
148924,236033,5
148971,236125,4
149010,236179,5
149032,236219,5
149043,236260,6
149061,236293,4
148704,236334,4
149110,236365,5
149133,236436,5
149170,236470,5
148104,236538,5
149221,236594,4
149246,236654,5
149306,236751,5
147945,236819,5
149352,236863,4
149382,236906,4
149419,236970,5
149083,237027,5
149497,237110,5
149534,237169,4
149550,237215,10
150492,237242,5
149593,237276,5
149642,237360,5
149686,237433,4
151185,237521,5
149766,237611,5
149818,237682,5
149858,237764,4
150726,237852,5
149970,237941,5
150030,238017,5
150087,238063,5
150351,238116,4
150138,238120,5
150184,238191,5
150194,238209,5
150179,237561,5
150203,238289,4
150227,238350,5
150254,238432,5
150289,237305,5
150359,238661,4
150432,238772,5
150484,238859,5
150503,237572,5
150562,239026,5
150627,239107,5
150688,239191,5
150738,239487,4
150797,239371,5
150823,239428,5
150856,239466,4
150899,240730,5
150932,239581,5
150988,239657,5
151035,239714,5
151087,241209,4
151145,239891,5
151161,239947,5
151187,240004,5
151221,240632,5
151258,240131,4
151262,240176,5
151277,240238,5
151288,240386,5
151316,240341,4
151326,240392,4
151342,240441,5
151373,240487,5
151394,240570,5
151403,240611,4
151423,240660,5
151440,240708,6
151444,240738,4
151451,240748,5
151479,240791,4
151499,240852,5
151524,240902,5
151551,240964,5
151598,241029,5
151631,241055,4
151660,241103,5
151675,241150,5
151711,241194,5
151725,241232,5
151726,241236,4
151748,241257,5
151758,241288,5
151764,241299,5
151761,241303,5
151759,241307,4
151786,241307,5
151770,241323,5
151787,241348,5
151786,241365,4
151799,241385,5
151802,241406,5
151797,241413,5
151809,241433,5
151820,241446,4
151817,241456,5
151828,241467,5
151831,241484,5
151840,241485,5
151837,241494,4
151838,241507,5
151865,241557,5
151875,241593,5
151896,241622,5
151913,241624,4
151921,241654,5
151943,241690,5
151955,241700,5
151973,241734,5
151979,241741,4
151977,241743,5
151975,241762,5
152001,241790,5
152023,241843,5
152041,241873,4
152046,241901,5
152062,241940,5
152074,241974,5
152119,242023,4
152128,242108,5
152162,242151,5
152197,242209,5
152220,242247,5
152250,242300,4
152258,242317,5
152295,242367,5
152313,242401,5
152341,242415,5
152337,242437,4
152358,242447,5
152352,242446,5
152345,242449,5
152353,242448,5
152338,242445,4
152343,242436,5
152354,242466,4
152367,242504,5
152392,242574,4
152447,242632,5
152470,242680,3
152136,242741,5
152514,242805,5
152557,242853,4
152584,242877,5
151618,242918,5
152619,242925,5
152630,242914,5
152618,242926,4
151341,242927,5
152604,242924,5
152624,242942,5
152641,242955,5
152346,242991,4
152656,243002,5
152654,243010,5
152654,243028,5
153532,243034,5
152669,243048,4
152688,243080,5
152700,243106,6
154037,243143,4
152734,243153,5
152746,243181,4
152767,243198,5
153483,243222,5
152790,243260,5
152812,243278,4
152821,243298,4
153011,243305,5
152862,243346,5
152888,243376,5
152913,243423,4
152954,242838,5
152983,243531,5
152997,243559,5
153018,243599,5
153030,242503,4
153056,243664,5
153063,243677,5
153078,243682,5
153087,242475,5
153100,243736,4
153103,243766,5
153118,243778,5
153130,244108,6
153147,243841,4
153158,243867,4
153181,243880,5
153177,245059,5
153174,243886,5
153176,243885,4
153172,243887,4
153198,245143,5
153193,243917,5
153201,243920,5
153207,243941,4
153206,244410,5
153226,243998,5
153249,244038,5
153275,244081,5
153286,244164,4
153281,244119,5
153297,244145,5
153296,244158,5
153305,244166,5
153301,244161,5
153305,244178,4
153298,244188,5
153310,244188,5
153305,244184,6
153296,244190,3
153315,244217,5
153308,244214,5
153321,244217,5
153325,244219,5
153324,244239,4
153349,244289,5
153361,244317,5
153372,244357,5
153364,244332,4
153363,244333,5
153359,244329,5
153372,244345,5
153385,244366,5
153391,244351,4
153373,244358,5
153379,244369,5
153377,244380,5
153378,244376,5
153373,244376,4
153390,244409,6
153415,244465,4
153437,244513,5
153471,244573,5
153477,244600,4
153495,244629,5
153488,244653,5
153506,244667,5
153531,244698,5
153541,244723,4
153543,244742,5
153537,244755,5
153537,244782,5
153552,244772,4
153547,244790,4
153544,244800,5
153561,244826,5
153557,244829,5
153559,244855,4
153568,244882,5
153576,244900,5
153547,244917,5
153560,244930,5
153569,244937,4
153560,244967,5
153568,244970,6
153574,244999,4
153575,245005,5
153560,245019,4
153581,245065,5
153583,245090,5
153600,245122,5
153611,245149,5
153612,245191,4
153626,245225,5
153624,245230,5
153637,245254,5
153646,245301,4
153655,245323,4
153682,245421,5
153739,245484,5
153771,245542,5
153782,245588,4
153808,245629,5
153839,245659,5
153865,245695,5
153896,245746,5
153903,245784,4
153908,245231,5
153925,245289,5
153930,245282,6
153450,245306,4
153972,245334,4
153961,245350,5
153987,245369,5
153001,245388,5
154009,245396,5
154012,245411,4
154016,245411,5
152841,245430,5
154010,245444,5
154010,245443,5
154001,245427,4
154070,245422,5
153997,245422,5
153981,245412,5
153995,245416,4
154970,245429,5
153994,245441,5
154003,245475,5
154010,245489,5
155244,245496,5
154008,245507,4
154011,245527,5
154022,245539,5
154536,245578,6
154055,245604,3
154071,245629,5
154074,245656,5
154181,245613,5
154095,245739,5
154120,245776,4
154132,245806,5
154144,245087,5
154158,245869,5
154157,245884,5
154171,245921,4
154168,244830,5
154183,245916,5
154202,245958,5
154205,245995,4
154229,245240,4
154224,246050,5
154244,246098,5
154253,246103,5
154262,246660,4
154270,246166,6
154294,246184,4
154301,246198,5
154312,247394,5
154301,246217,4
154313,246237,5
154311,246258,5
154316,247165,5
154307,246234,5
154300,246246,4
154312,246273,5
154321,246622,5
154351,246397,5
154375,246455,5
154390,246494,4
154420,246551,5
154429,246587,5
154447,246599,5
154464,246623,4
154458,246649,4
154465,246646,5
154474,246646,5
154474,246647,5
154467,246651,4
154468,246658,5
154489,246661,6
154476,246669,4
154495,246681,5
154503,246716,4
154511,246715,5
154516,246742,5
154527,246744,5
154536,246760,5
154547,246766,4
154545,246776,5
154553,246790,5
154541,246797,5
154539,246794,5
154555,246804,4
154561,246822,5
154557,246835,5
154562,246869,5
154567,246894,5
154583,246914,4
154607,246956,5
154606,246961,5
154601,246980,5
154617,247010,4
154620,247036,5
154629,247060,5
154611,247081,6
154626,247115,4
154635,247107,4
154624,247126,5
154612,247113,5
154621,247112,5
154631,247110,5
154636,247137,4
154629,247133,5
154639,247128,5
154634,247128,5
154637,247123,5
154640,247126,4
154639,247140,5
154642,247143,5
154640,247147,5
154650,247154,5
154649,247143,4
154633,247145,5
154647,247160,5
154645,247150,5
154637,247146,5
154635,247141,4
154650,247141,5
154643,247166,5
154661,247164,5
154641,247167,4
154642,247185,5
154647,247186,5
154661,247187,5
154667,247205,5
154662,247202,4
154662,247207,5
154689,247258,5
154686,247254,5
154690,247264,5
154713,247270,4
154714,247279,5
154724,247309,5
154740,247338,5
154743,247358,5
154740,247365,4
154739,247378,5
154756,247386,5
154738,247394,5
154768,247424,4
154146,247443,5
154787,247432,4
154779,247430,5
154756,247430,5
153738,247421,4
154736,247404,5
154740,247400,5
154727,247405,5
153845,247411,5
154723,247422,7
154753,247457,2
154746,247476,5
155126,247464,5
154766,247495,5
154789,247527,4
154805,247555,5
155850,247565,5
154832,247584,5
154850,247628,5
154861,247637,4
155756,247628,5
154849,247607,5
154844,247611,5
154842,247610,4
155158,247617,4
154861,247610,6
154855,247608,4
154838,247621,5
154884,247371,4
154850,247621,5
154855,247632,5
154855,247636,5
154855,246846,5
154848,247635,4
154853,247649,5
154858,247650,5
154859,246577,5
154850,247639,5
154848,247630,5
154856,247638,4
154860,247306,5
154847,247635,5
154846,247630,5
154851,247640,4
154860,248363,5
154871,247682,5
154880,247704,6
154884,247713,4
154893,248864,4
154894,247735,5
154903,247761,5
154912,247779,5
154916,248468,4
154927,247805,4
154923,247800,5
154924,247800,5
154921,247986,5
154936,247801,4
154936,247805,5
154931,247836,5
154946,247842,5
154951,247847,5
154947,247834,4
154949,247837,5
154949,247851,5
154954,247836,5
154945,247843,5
154944,247828,4
154944,247828,4
154939,247819,5
154930,247819,5
154932,247807,5
154912,247794,3
154913,247793,5
154912,247784,5
154897,247754,5
154885,247752,4
154887,247755,4
154891,247752,5
154892,247750,5
154900,247757,5
154894,247745,4
154890,247748,5
154889,247772,5
154888,247755,5
154886,247766,5
154908,247761,4
154888,247755,5
154902,247754,5
154906,247744,5
154895,247752,5
154895,247764,4
154891,247792,6
154907,247790,4
154914,247800,5
154915,247818,5
154926,247826,6
154925,247833,3
154925,247836,5
154919,247832,5
154910,247804,5
154914,247810,4
154904,247815,5
154907,247797,5
154910,247792,5
154908,247819,4
154913,247830,5
154918,247808,5
154907,247797,5
154898,247812,5
154899,247822,4
154912,247848,5
154917,247875,5
154941,247896,5
154944,247937,5
154950,247950,4
154957,247973,5
154973,248004,6
154986,248007,4
155000,248020,5
154990,248022,4
154986,248015,5
154976,248002,5
154974,247987,5
154963,247970,5
154961,247947,4
154954,247928,5
154960,247935,5
154950,247926,5
154938,247911,4
154952,247893,4
154938,247899,5
154928,247888,5
154925,247883,5
154935,247879,4
154919,247864,5
154926,247874,5
154877,247869,5
154913,247872,5
154923,247855,4
154923,247858,5
154253,247843,5
154919,247845,6
154910,247835,4
154914,247843,4
153920,247826,5
154912,247827,5
154897,247807,5
154905,247819,5
154208,247817,4
154908,247837,5
154912,247853,5
154905,247857,5
155376,247870,4
154935,247905,4
154933,247912,5
154939,247923,5
155963,247921,5
154945,247938,4
154953,247924,5
154951,247926,5
155752,247926,5
154945,247927,5
154942,247912,5
154943,247919,4
155202,247910,5
154935,247917,5
154942,247902,6
154938,247909,3
154954,247555,5
154934,247908,5
154930,247895,5
154922,247892,5
154928,247049,4
154924,247878,5
154928,247877,5
154916,247876,5
154918,246838,5
154923,247882,4
154926,247877,5
154927,247900,5
154934,247793,5
154930,247915,4
154928,247920,5
154938,247905,5
154937,248726,5
154934,247927,5
154936,247930,4
154925,247942,6
154947,249083,4
154953,247962,5
154956,247991,5
154967,247998,6
154975,248572,3
154980,248025,5
154980,248039,5
154969,248057,5
154978,248177,4
154984,248068,5
154983,248071,5
154982,248077,5
154976,248079,5
154977,248078,4
154978,248082,5
154958,248071,5
154970,248067,5
154957,248058,4
154959,248055,4
154957,248057,5
154965,248079,5
154976,248096,5
154966,248106,4
154969,248123,5
154964,248134,6
154974,248149,4
154992,248155,5
154982,248175,4
154986,248160,5
154984,248167,5
154973,248151,5
154978,248133,5
154964,248118,4
154948,248102,5
154946,248085,5
154939,248064,5
154958,248075,5
154930,248063,4
154924,248053,5
154929,248059,5
154931,248058,5
154918,248044,4
154921,248028,4
154912,248030,5
154915,248044,5
154915,248025,5
154904,248022,4
154918,248025,5
154914,248028,5
154921,248017,6
154904,248018,4
154906,248020,4
154909,248035,5
154907,248016,5
154898,248012,5
154910,248016,5
154907,248012,4
154893,248009,5
154898,247999,5
154905,248009,5
154901,248001,5
154907,248013,4
154899,248011,5
154887,248027,5
154917,248032,5
154894,248046,5
154908,248040,4
154901,248017,5
154906,248025,5
154900,248019,5
154900,248010,5
154889,248009,4
154888,247996,5
154884,247992,5
154881,247989,6
154885,247979,3
154894,247978,5
154881,247968,5
154879,247957,5
154880,247938,5
154860,247929,4
154855,247929,5
154856,247920,5
154866,247914,5
154857,247909,5
154862,247910,4
154869,247910,5
154862,247913,5
154870,247928,5
154625,247925,5
154870,247914,4
154868,247932,5
154861,247908,5
154101,247921,5
154868,247925,4
154862,247905,5
154866,247907,4
153859,247911,5
154866,247917,5
154865,247921,4
154859,247924,5
154542,247934,5
154860,247939,5
154869,247945,5
154886,247944,4
155535,247940,5
154875,247925,5
154872,247921,5
154861,247929,5
155930,247913,4
154874,247935,5
154872,247932,5
154869,247939,5
155482,247944,5
154875,247943,4
154873,247938,5
154875,247929,5
155023,247938,5
154876,247941,4
154880,247939,4
154870,247954,6
154870,247456,4
154880,247968,5
154867,247969,4
154882,247968,5
154886,247068,5
154882,247998,5
154899,247991,5
154895,247986,4
154893,246947,5
154876,247942,5
154879,247914,5
154866,247905,5
154865,248111,4
154856,247883,5
154854,247882,5
154853,247874,5
154859,248812,5
154860,247875,4
154859,247861,5
154847,247862,5
154845,248906,5
154851,247877,5
154854,247864,4
154860,247864,5
154857,248268,6
154851,247867,4
154848,247850,4
154838,247847,4
154844,247909,5
154851,247873,5
154858,247857,5
154841,247848,4
154842,247858,5
154839,247808,5
154834,247808,5
154831,247810,5
154825,247821,4
154833,247816,5
154838,247834,5
154849,247844,5
154858,247856,5
154859,247859,4
154858,247871,5
154856,247857,5
154846,247854,5
154843,247846,5
154851,247842,4
154856,247824,5
154848,247818,5
154842,247808,5
154828,247817,4
154833,247812,4
154834,247793,5
154830,247803,5
154827,247785,5
154830,247764,4
154816,247766,5
154815,247771,5
154819,247739,5
154819,247755,5
154806,247771,4
154816,247755,5
154815,247748,5
154796,247737,5
154809,247727,5
154802,247734,4
154803,247733,5
154808,247742,5
154806,247737,5
154806,247745,5
154814,247746,5
154818,247743,4
154810,247747,5
154825,247758,5
154816,247758,5
154817,247772,4
154825,247768,5
154827,247770,5
154824,247787,5
154829,247793,4
154828,247776,4
154822,247777,5
154814,247773,5
154819,247767,5
154813,247771,4
154820,247781,5
154804,247763,5
154813,247769,5
154803,247768,5
154803,247778,4
154809,247769,5
154811,247796,5
154816,247792,5
154822,247828,5
154820,247817,4
154826,247824,6
154822,247820,4
154812,247819,5
154815,247813,5
154813,247799,4
154811,247787,5
154799,247784,5
154809,247775,5
154799,247776,4
154807,247769,4
154805,247777,5
154812,247772,5
154800,247765,5
154795,247768,4
154477,247776,5
154801,247768,5
154807,247767,5
154797,247766,5
153977,247748,4
154799,247756,5
154796,247743,5
154801,247746,10
153772,247744,4
154799,247762,5
154794,247760,5
154794,247753,5
154635,247757,5
154798,247753,4
154785,247746,5
154796,247746,5
155544,247751,5
154787,247770,5
154792,247753,4
154791,247779,5
155874,247773,5
154795,247787,5
154785,247775,4
154809,247793,5
155334,247789,5
154796,247790,5
154799,247795,5
154801,247800,4
154911,247791,4
154800,247807,5
154804,247812,5
154809,247813,6
154798,247218,3
154802,247821,5
154806,247803,5
154813,247817,5
154792,246871,5
154810,247808,4
154805,247805,4
154802,247800,5
154804,246936,5
154808,247810,5
154807,247808,4
154804,247807,5
154795,248165,5
154800,247800,5
154802,247799,4
154803,247817,4
154801,248838,5
154804,247816,5
154806,247821,5
154792,247821,4
154799,248742,6
154789,247823,4
154785,247824,5
154797,247836,5
154795,248160,6
154795,247853,3
154799,247832,5
154792,247840,5
154789,247883,5
154794,247871,4
154799,247863,5
154803,247852,5
154802,247871,5
154799,247875,5
154808,247898,4
154807,247900,5
154815,247910,5
154820,247924,5
154825,247944,4
154825,247964,4
154838,247965,5
154826,247967,5
154835,247964,5
154830,247942,4
154813,247945,5
154823,247936,6
154815,247923,4
154821,247913,5
154810,247897,4
154808,247890,5
154810,247898,5
154806,247895,5
154786,247876,5
154790,247877,4
154788,247842,5
154776,247855,5
154775,247841,5
154771,247837,5
154770,247821,4
154751,247813,5
154739,247809,5
154745,247808,5
154738,247797,4
154729,247784,4
154713,247769,5
154701,247767,5
154681,247743,5
154645,247709,4
154627,247664,5
154598,247633,5
154574,247614,6
154566,247604,4
154556,247606,4
154560,247598,5
154551,247590,5
154528,247576,5
154529,247581,5
154526,247574,4
154524,247581,5
154528,247589,5
154518,247579,5
154519,247577,5
154526,247607,4
154525,247579,5
154524,247599,5
154531,247603,5
154541,247608,5
154533,247638,4
154535,247630,5
154523,247644,5
154530,247637,5
154516,247641,5
154532,247626,4
154532,247624,5
154535,247620,5
154543,247627,6
154530,247616,3
154538,247623,5
154535,247608,5
154525,247608,5
154534,247628,5
154537,247619,4
154531,247637,5
154533,247641,5
154536,247623,5
154528,247650,5
154533,247631,4
154532,247630,5
154517,247624,5
153911,247607,5
154519,247597,5
154512,247605,4
154491,247580,5
153550,247583,5
154486,247558,5
154467,247564,4
154478,247569,6
153685,247582,4
154485,247611,5
154475,247611,5
154479,247621,6
154862,247640,3
154485,247644,5
154494,247678,5
154482,247675,5
155426,247655,4
154466,247641,5
154463,247637,5
154453,247625,5
155270,247606,5
154432,247618,4
154439,247608,5
154449,247613,5
154732,247630,5
154457,247630,5
154457,247628,4
154460,247658,5
154489,247380,5
154469,247657,5
154482,247658,4
154481,247657,4
154481,246879,6
154480,247653,4
154477,247668,5
154485,247680,4
154481,246684,5
154495,247684,5
154501,247692,5
154494,247692,5
154492,247517,4
154499,247698,5
154497,247670,5
154479,247676,5
154478,248411,5
154482,247676,4
154479,247683,5
154476,247670,5
154476,248767,5
154475,247684,5
154464,247688,4
154464,247681,5
154471,248233,5
154467,247675,5
154478,247668,4
154462,247674,4
154462,247803,5
154460,247673,6
154465,247682,4
154464,247684,4
154457,247687,5
154452,247680,5
154467,247683,5
154465,247696,5
154472,247673,4
154462,247684,5
154474,247675,5
154466,247674,5
154468,247664,5
154462,247686,4
154470,247679,5
154463,247680,5
154459,247677,5
154453,247684,5
154458,247677,4
154446,247683,5
154444,247693,5
154449,247702,5
154436,247685,5
154448,247676,4
154445,247684,5
154436,247694,5
154438,247697,6
154442,247708,3
154443,247729,5
154456,247756,5
154464,247776,5
154471,247772,5
154470,247797,4
154458,247784,5
154451,247785,5
154457,247787,5
154450,247771,5
154446,247787,4
154440,247771,5
154444,247772,5
154439,247770,5
154432,247769,5
154423,247736,4
154419,247726,5
154422,247732,5
154408,247734,5
154408,247734,5
154404,247725,5
154399,247725,4
154399,247734,5
154393,247747,5
154400,247749,4
154410,247768,4
154419,247794,5
154405,247806,5
153935,247224,5
153940,247217,4
153935,247230,5
153936,247227,5
153945,247221,5
153939,247223,5
153931,247209,4
153944,247230,5
153926,247217,5
153954,247220,5
153942,247240,5
153948,247236,4
153933,247253,5
153933,247227,5
153924,247234,5
153926,247238,5
153926,247225,4
153918,247229,6
153914,247222,4
153904,247200,5
153898,247207,4
153897,247208,4
153886,247201,5
153891,247212,5
153875,247193,5
153877,247185,4
153497,247185,5
153855,247175,5
153857,247156,5
153848,247161,5
153035,247157,4
153827,247168,5
153828,247137,5
153819,247124,5
152830,247117,5
153810,247104,4
153808,247114,5
153803,247113,5
153776,247104,5
153794,247099,5
153784,247103,4
153792,247098,5
154550,247088,6
153785,247095,4
153791,247101,4
153777,247086,4
154791,247086,5
153760,247085,5
153769,247084,5
153775,247074,4
154218,247081,5
153772,247083,5
153768,247080,5
153784,247070,5
153870,247076,4
153779,247074,5
153776,247066,5
153770,247080,5
153774,246505,5
153785,247091,5
153781,247095,4
153778,247098,5
153783,246201,5
153780,247114,6
153769,247106,3
153779,247109,5
153767,246360,5
153766,247114,5
153766,247096,4
153749,247095,4
153745,247478,5
153752,247086,5
153752,247079,5
153740,247081,4
153746,248046,5
153746,247080,5
153740,247080,5
153747,247093,5
153736,247911,4
153739,247091,5
153727,247095,5
153763,247113,5
153741,247386,5
153751,247123,4
153749,247126,5
153743,247130,5
153747,247148,5
153755,247143,5
153753,247148,5
153750,247183,4
153741,247173,5
153738,247182,5
153722,247172,5
153719,247175,4
153722,247163,5
153705,247139,5
153706,247142,5
153693,247138,4
153704,247126,5
153685,247134,5
153693,247132,5
153681,247129,5
153658,247111,4
153675,247102,5
153669,247088,5
153660,247100,5
153662,247103,5
153659,247113,4
153641,247114,5
153640,247126,5
153643,247151,5
153666,247171,5
153672,247199,4
153668,247206,6
153668,247201,4
153653,247218,5
153669,247229,5
153671,247226,4
153663,247205,5
153656,247203,5
153662,247207,5
153668,247205,4
153657,247188,4
153652,247189,5
153652,247190,5
153648,247201,5
153656,247194,4
153649,247185,5
153657,247192,5
153649,247189,5
153648,247185,5
153646,247179,4
153646,247187,5
153639,247197,5
153639,247193,5
153642,247208,4
153622,247159,4
153605,247145,5
153593,247147,5
153597,247147,5
153602,247143,5
153594,247139,4
153595,247123,5
153590,247113,5
153578,247102,5
153573,247122,4
153581,247124,4
153588,247109,5
153585,247114,5
153586,247121,5
153582,247119,4
153585,247121,5
153581,247128,5
153598,247150,5
153586,247124,5
153588,247123,5
153583,247124,4
153589,247122,5
153578,247129,5
153587,247128,6
153585,247116,3
153584,247111,5
153572,247107,5
153581,247097,5
153581,247096,5
153573,247099,4
153570,247107,5
153091,247098,5
153571,247089,5
153586,247082,5
153576,247103,4
152732,247100,5
153569,247109,8
153580,247096,2
153579,247093,4
152663,247086,5
153576,247088,5
153554,247068,5
153551,247074,5
153781,247060,4
153559,247076,6
153558,247074,4
153542,247065,5
154417,247072,5
153554,247059,6
153548,247062,3
153550,247073,5
154401,247070,5
153556,247080,5
153547,247085,4
153556,247089,5
153867,247104,5
153567,247115,5
153557,247115,5
153568,247128,4
153614,246942,5
153570,247145,5
153581,247150,5
153566,247156,4
153571,246462,4
153567,247142,5
153552,247130,5
153551,247129,5
153548,246220,4
153542,247121,5
153535,247112,6
153520,247121,4
153516,246771,5
153514,247095,4
153517,247091,5
153520,247096,5
153510,247720,5
153511,247103,5
153502,247124,4
153499,247136,5
153506,248129,5
153511,247152,5
153510,247187,5
153511,247172,4
153510,247756,5
153505,247180,5
153493,247166,5
153477,247135,4
153468,247299,4
153473,247140,5
153469,247132,5
153469,247118,5
153464,247119,4
153457,247120,5
153467,247134,5
153474,247114,6
153467,247115,4
153462,247099,4
153455,247110,5
153463,247096,5
153453,247102,5
153458,247101,5
153456,247097,4
153463,247110,5
153470,247125,5
153466,247098,5
153461,247097,5
153458,247095,4
153464,247100,5
153459,247114,5
153461,247104,5
153465,247129,4
153460,247123,4
153455,247088,5
153449,247103,5
153464,247110,5
153460,247111,5
153455,247107,4
153446,247104,5
153447,247121,5
153444,247125,6
153467,247139,3
153451,247130,5
153461,247133,5
153450,247126,5
153457,247144,5
153461,247128,4
153451,247134,5
153451,247123,5
153459,247125,5
153461,247119,5
153454,247108,4
153447,247114,5
153460,247111,5
153462,247113,5
153453,247114,5
153446,247112,4
153442,247089,5
153436,247082,5
153434,247077,5
153424,247073,4
153432,247058,6
153429,247052,4
153421,247051,5
153432,247055,5
153424,247062,4
153419,247058,5
153426,247053,5
153424,247076,5
153416,247070,5
153425,247067,4
153429,247070,5
153424,247067,5
153416,247057,5
153432,247062,5
153429,247063,4
153430,247062,5
153424,247066,5
153428,247053,5
153425,247070,5
153419,247062,4
153422,247072,5
153427,247064,5
153417,247066,5
153424,247080,4
153419,247078,4
153412,247076,6
153420,247071,4
153421,247077,5
153239,247081,4
153421,247079,5
153422,247070,5
153413,247075,5
152748,247081,5
153411,247085,4
153420,247095,5
153419,247095,5
152512,247090,5
153411,247097,5
153422,247116,4
153422,247126,5
153095,247132,5
153427,247151,5
153426,247146,5
153411,247146,4
153978,247126,5
153409,247112,5
153405,247106,5
153394,247105,4
154343,247104,4
153396,247109,5
153385,247083,6
153377,247063,4
153945,247054,4
153368,247039,5
153362,247045,5
153362,247040,5
153507,247044,5
153356,247066,4
153362,247056,5
153345,247054,5
153345,246640,5
153351,247073,5
153364,247085,4
153360,247092,5
153346,246288,5
153336,247082,5
153332,247080,5
153324,247057,4
153318,246135,5
153326,247032,5
153326,247051,5
153312,247029,5
153318,247150,4
153314,247003,5
153322,246995,5
153319,246994,6
153312,247815,3
153307,246983,5
153306,246975,5
153301,246982,5
153307,247905,5
153305,246947,4
153305,246944,5
153306,246947,5
153306,247315,5
153313,246933,5
153302,246945,4
153299,246930,5
153310,246968,5
153303,246921,5
153299,246918,5
153309,246936,4
153306,246924,5
153298,246921,5
153290,246907,5
153287,246911,5
153295,246907,5
153291,246918,4
153300,246914,5
153297,246934,5
153299,246928,4
153288,246950,4
153301,246942,5
153295,246955,5
153312,246957,5
153300,246953,4
153297,246948,5
153294,246944,5
153290,246954,5
153297,246940,5
153301,246935,4
153297,246947,5
153294,246938,5
153284,246935,5
153294,246929,5
153285,246920,4
153289,246917,5
153296,246916,5
153296,246898,5
153289,246902,5
153287,246906,4
153288,246903,6
153288,246888,4
153274,246878,5
153277,246883,4
153280,246886,4
153280,246881,5
153290,246888,5
153280,246877,5
153282,246889,4
153280,246889,5
153275,246890,5
153293,246895,5
153283,246891,5
153279,246898,4
153280,246897,5
153278,246898,5
153287,246890,5
153283,246898,5
153278,246891,4
153275,246903,5
153278,246900,5
153288,246907,5
153275,246923,5
153279,246917,4
153288,246923,5
153285,246931,6
153282,246926,4
153286,246935,5
153285,246941,4
153296,246946,5
153271,246950,5
153273,246935,5
153274,246942,4
153275,246945,4
153263,246942,5
153253,246945,5
153242,246946,5
153240,246940,4
153236,246920,5
153226,246928,5
153224,246937,5
153213,246918,5
153214,246884,4
153209,246888,5
153194,246879,5
153201,246873,5
153180,246856,5
153186,246846,4
152771,246841,5
153165,246829,5
153174,246837,5
153154,246845,5
152352,246829,4
153139,246813,5
153132,246811,5
153132,246806,5
152215,246794,4
153098,246778,4
153097,246792,5
153105,246789,5
153213,246801,5
153111,246787,4
153090,246780,5
153101,246776,5
153884,246765,5
153102,246761,5
153091,246766,4
153099,246764,5
154014,246756,5
153107,246736,5
153110,246750,5
153107,246723,5
153451,246710,4
153114,246713,5
153113,246692,5
153105,246682,5
153169,246577,4
153115,246669,5
153111,246684,5
153112,246674,5
153124,246055,5
153120,246676,4
153123,246673,5
153113,246680,5
153118,245794,5
153127,246657,5
153118,246667,4
153113,246660,5
153118,246227,5
153127,246661,5
153127,246653,4
153115,246663,5
153130,247214,5
153132,246683,5
153125,246685,5
153140,246675,4
153135,247657,6
153141,246695,3
153131,246692,5
153126,246684,5
153137,247292,4
153132,246690,5
153139,246678,5
153134,246666,5
153137,246826,5
153132,246638,4
153144,246657,5
153127,246650,5
153140,246647,5
153136,246634,4
153135,246629,4
153144,246616,5
153136,246627,5
153145,246612,5
153141,246615,4
153150,246612,5
153157,246598,5
153139,246606,6
153150,246599,4
153143,246585,4
153139,246594,5
153143,246592,5
153137,246590,5
153143,246581,5
153131,246578,4
153130,246568,5
153132,246585,5
153124,246583,5
153136,246578,5
153135,246587,4
153130,246575,5
153143,246596,5
153140,246617,5
153135,246614,4
153140,246608,4
153133,246629,5
153146,246619,5
153150,246631,5
153153,246631,5
153150,246625,4
153152,246624,5
153149,246621,5
153155,246626,6
153149,246623,3
153149,246610,5
153142,246610,5
153123,246587,5
153146,246595,5
153134,246601,4
153144,246602,5
153144,246624,5
153149,246620,5
153143,246611,5
153141,246615,4
153143,246625,5
153152,246638,5
153162,246646,5
153152,246643,4
153162,246659,4
153154,246632,5
153146,246630,5
153151,246618,5
153156,246612,4
153151,246593,6
153139,246588,4
153146,246581,5
153144,246568,5
153144,246570,6
153153,246566,3
153151,246544,5
153147,246545,5
153144,246531,5
153148,246524,4
153145,246523,5
153136,246507,5
153143,246495,5
153139,246503,5
153144,246510,4
153134,246518,5
153138,246502,5
153131,246512,5
153130,246505,5
153133,246493,4
153132,246490,5
153142,246484,5
152940,246479,5
153127,246465,4
153117,246472,5
153122,246468,6
152440,246458,4
153112,246460,5
153122,246465,4
153113,246464,5
152216,246483,7
153124,246476,3
153116,246469,5
153125,246467,4
152786,246459,5
153121,246465,5
153117,246468,5
153124,246472,5
153684,246455,4
153114,246459,5
153106,246447,5
153103,246433,5
154073,246433,5
153115,246437,4
153099,246420,5
153093,246406,5
153690,246407,5
153095,246406,4
153097,246409,4
153093,246390,5
153251,246391,6
153097,246397,4
153104,246383,4
153092,246390,5
153108,245955,5
153106,246381,5
153101,246374,5
153098,246387,4
153097,245574,5
153107,246387,5
153099,246396,5
153099,246400,5
153113,245483,4
153098,246401,5
153103,246388,5
153104,246393,5
153096,246562,5
153089,246388,4
153095,246388,5
153088,246369,5
153087,247232,5
153086,246379,5
153075,246385,4
153074,246371,5
153087,247327,5
153083,246388,6
153083,246392,3
153074,246379,5
153067,246745,5
153070,246391,5
153072,246400,5
153092,246421,4
153090,246471,5
153093,246428,5
153081,246434,5
153088,246400,5
153088,246407,4
153089,246408,5
153082,246381,5
153086,246379,5
153076,246351,5
153088,246354,4
153091,246349,5
153087,246358,5
153095,246345,5
153094,246336,5
153092,246354,5
153099,246349,4
153092,246356,5
153080,246330,5
153082,246338,4
153085,246334,5
153086,246352,5
153087,246339,5
153083,246342,5
153087,246346,4
153086,246354,5
153088,246365,5
153095,246362,5
153087,246360,5
153086,246366,4
153088,246361,5
153088,246356,5
153086,246358,5
153084,246354,5
153082,246357,4
153088,246372,5
153078,246378,5
153075,246397,5
153071,246391,5
153075,246404,4
153065,246420,6
153070,246419,4
153059,246420,5
153053,246418,4
153052,246439,4
153055,246416,5
153045,246418,5
153046,246418,5
153055,246427,4
153054,246430,5
153032,246421,5
153045,246431,5
153047,246419,5
153039,246422,4
153034,246416,5
153046,246427,5
153030,246441,5
153032,246444,5
153033,246443,4
153033,246467,5
153022,246457,5
153021,246479,5
153000,246477,5
152991,246464,4
152991,246458,5
152965,246448,6
152965,246441,4
152948,246425,4
152926,246419,4
152920,246403,5
152921,246390,5
152911,246370,5
152908,246375,4
152896,246379,5
152894,246371,5
152889,246358,5
152907,246370,5
152904,246362,4
152903,246367,5
152894,246369,5
152895,246378,5
152896,246377,5
152476,246377,4
152903,246394,5
152907,246393,5
152905,246396,5
152108,246400,5
152908,246397,4
152902,246408,5
152908,246397,5
151995,246397,6
152908,246397,3
152910,246399,4
152920,246413,5
153049,246396,5
152924,246403,5
152918,246406,4
152917,246393,5
153724,246407,5
152920,246410,5
152936,246413,5
152918,246394,4
153825,246392,5
152921,246398,5
152918,246383,5
152910,246383,5
153264,246394,4
152916,246392,6
152914,246402,4
152906,246387,5
152956,246264,5
152893,246372,5
152904,246384,3
152898,246388,5
152902,245738,5
152899,246369,5
152905,246385,4
152903,246391,5
152890,245485,5
152901,246371,5
152909,246391,4
152905,246398,4
152912,245961,5
152911,246396,5
152905,246394,5
152903,246400,4
152911,246934,5
152926,246412,5
152911,246401,5
152908,246394,5
152903,247373,4
152922,246402,5
152919,246417,5
152920,246396,5
152919,247026,5
152912,246394,4
152915,246400,6
152924,246398,4
152924,246578,5
152924,246405,5
152922,246385,4
152915,246409,5
152926,246406,5
152929,246405,5
152916,246406,4
152929,246414,4
152927,246426,5
152926,246420,5
152933,246422,5
152927,246428,4
152933,246427,5
152934,246422,5
152929,246417,5
152930,246420,5
152929,246413,4
152919,246410,5
152913,246404,5
152909,246399,5
152920,246421,5
152923,246428,4
152918,246419,5
152903,246422,6
152923,246425,4
152918,246430,5
152920,246456,4
152929,246461,5
152924,246461,5
152919,246474,5
152916,246475,4
152926,246468,4
152910,246468,5
152917,246483,5
152918,246487,5
152922,246471,4
152927,246477,5
152912,246474,5
152922,246468,5
152917,246480,5
152918,246479,4
152913,246479,5
152918,246477,5
152911,246485,5
152916,246480,5
152917,246479,4
152914,246488,5
152915,246491,5
152922,246484,5
152915,246491,5
152910,246485,4
152913,246480,5
152910,246482,5
152905,246479,5
152899,246486,5
152912,246496,4
152917,246497,5
152912,246494,5
152897,246487,5
152906,246485,4
152894,246493,5
152907,246485,5
152905,246501,5
152899,246495,5
152914,246517,4
152908,246516,5
152909,246521,5
152909,246520,5
152910,246508,5
152907,246511,5
152903,246523,4
152915,246524,5
152902,246506,5
152924,246523,5
152910,246523,4
152913,246537,5
152907,246528,5
152900,246514,5
152918,246517,5
152905,246523,4
152900,246509,5
152773,246512,5
152907,246516,5
152909,246501,4
152914,246522,4
152273,246522,5
152897,246519,5
152914,246523,5
152908,246509,4
152019,246520,5
152905,246517,6
152902,246510,4
152905,246511,5
152489,246520,4
152909,246525,7
152917,246518,3
152904,246525,5
153436,246531,5
152911,246529,4
152918,246544,5
152906,246541,5
153845,246539,5
152899,246550,5
152889,246544,4
152889,246541,5
153483,246539,5
152882,246545,5
152884,246528,4
152874,246534,4
153042,246505,5
152860,246511,5
152857,246506,5
152862,246498,4
152857,246097,5
152876,246496,5
152859,246500,6
152847,246504,4
152863,245725,4
152863,246511,5
152867,246501,5
152868,246509,5
152864,245629,5
152876,246528,5
152878,246557,4
152893,246571,5
152881,246677,5
152887,246578,5
152876,246578,4
152878,246597,5
152875,247384,5
152882,246583,5
152888,246582,5
152884,246580,4
152885,247531,5
152883,246565,5
152884,246560,5
152890,246566,5
152874,246929,4
152881,246561,5
152877,246566,5
152883,246563,6
152876,246624,3
152891,246570,5
152880,246565,5
152884,246567,5
152894,246550,5
152898,246570,4
152892,246575,5
152889,246570,5
152894,246558,5
152884,246569,5
152882,246576,4
152879,246556,5
152889,246572,5
152886,246575,5
152872,246558,5
152889,246553,4
152890,246575,5
152893,246558,5
152885,246558,5
152885,246560,4
152884,246561,5
152879,246561,4
152884,246570,5
152885,246573,5
152888,246567,6
152892,246559,3
152895,246573,5
152894,246559,5
152890,246569,5
152897,246575,4
152889,246559,5
152893,246550,5
152898,246559,5
152894,246547,5
152885,246553,4
152884,246540,5
152893,246535,5
152890,246535,5
152886,246525,5
152894,246525,4
152894,246513,5
152899,246530,5
152892,246523,5
152902,246517,4
152905,246522,4
152905,246537,6
152896,246536,4
152895,246521,5
152911,246525,4
152917,246520,5
152905,246526,5
152905,246537,5
152912,246540,5
152907,246534,4
152903,246551,5
152907,246543,5
152910,246547,5
152907,246550,5
152915,246560,4
152904,246568,5
152913,246565,5
152919,246581,5
152913,246577,5
152909,246592,4
152914,246594,5
152916,246584,5
152916,246600,5
152912,246605,5
152907,246596,4
152906,246600,5
152905,246589,6
152905,246585,4
152884,246581,4
152895,246574,5
152897,246574,5
152896,246556,5
152895,246560,5
152894,246566,4
152905,246579,5
152905,246563,5
152900,246580,5
152441,246589,5
152901,246580,4
152892,246591,5
152906,246606,5
152097,246612,5
152910,246634,5
152917,246635,9
152910,246648,0
152034,246640,5
152924,246646,5
152924,246607,5
152930,246641,4
153122,246639,5
152915,246615,5
152910,246614,6
152919,246613,3
153744,246614,4
152919,246621,5
152917,246626,5
152934,246608,5
153761,246607,4
152924,246593,5
152921,246605,5
152924,246602,5
153228,246612,5
152929,246610,4
152938,246606,5
152920,246599,5
152951,246428,5
152910,246614,5
152920,246611,4
152935,246624,5
152933,245957,5
152930,246613,5
152932,246604,5
152937,246610,5
152929,245712,4
152939,246607,5
152935,246618,5
152930,246620,5
152938,246325,4
152946,246614,5
152946,246608,5
152947,246642,5
152952,247242,4
152945,246639,5
152949,246629,5
152946,246633,5
152953,247594,5
152949,246622,4
152947,246625,5
152966,246633,5
152967,247163,5
152979,246620,5
152967,246628,4
152985,246630,5
152991,246766,5
152992,246632,5
152984,246635,5
152988,246626,4
152987,246628,6
152989,246636,4
152987,246620,5
152975,246623,5
152983,246622,4
152978,246612,5
152990,246605,5
152979,246608,5
152992,246594,4
152978,246616,4
152979,246621,5
152974,246620,5
152980,246594,5
152975,246614,4
152970,246621,5
152974,246641,5
152983,246637,5
152987,246637,5
152988,246640,4
152984,246642,5
152980,246651,5
152985,246662,5
152985,246642,5
152982,246645,4
152990,246653,5
153000,246652,6
152988,246642,4
152976,246663,5
152980,246660,4
152989,246689,5
152991,246690,5
152986,246692,5
152988,246685,4
152985,246689,4
152987,246700,5
152981,246706,5
152984,246704,5
152983,246706,4
152992,246720,5
152985,246728,5
152974,246715,5
152969,246721,5
152986,246710,4
152973,246715,5
152964,246705,5
152963,246720,5
152971,246714,5
152968,246730,4
152957,246703,5
152963,246715,5
152952,246702,6
152958,246702,4
