RED,IR,EKG,TIME
42311,78732,184055
42311,78732,2
40839,76444,5
40863,76445,4
40850,76442,5
40846,76439,5
40849,76453,5
40866,76441,4
40848,76453,5
40855,76452,5
40847,76442,5
40861,76442,5
40843,76442,4
40848,76446,5
40844,76442,5
40844,76429,5
40834,76429,5
40832,76418,4
40814,76386,5
40790,76330,6
40774,76339,4
40772,76331,5
40771,76312,4
40759,76286,5
40751,76307,5
40761,76317,5
40754,76314,4
40774,76298,4
40772,76325,5
40775,76333,5
40785,76337,5
40779,76354,4
40783,76351,5
40788,76372,5
40801,76371,5
40806,76410,5
40808,76393,4
40806,76405,5
40813,76393,5
40822,76426,5
40816,76401,5
40825,76401,4
40820,76411,5
40817,76412,5
40815,76401,5
40811,76403,5
40811,76411,4
40813,76401,5
40812,76399,5
40819,76410,5
40820,76409,4
40825,76420,5
40822,76423,5
40818,76418,5
40832,76425,5
40815,76424,4
40823,76423,5
40820,76422,5
40823,76421,5
40821,76418,5
40824,76424,4
40824,76426,5
40819,76426,5
40824,76437,5
40821,76428,5
40829,76434,5
40828,76441,4
40829,76446,5
40840,76446,5
40838,76455,4
40840,76463,4
40844,76471,5
40858,76481,5
40859,76484,5
40865,76493,4
40865,76515,5
40881,76518,5
40879,76528,5
40889,76534,5
40890,76550,4
40895,76559,5
40903,76565,5
40905,76562,5
40902,76564,5
40903,76569,4
40903,76577,5
40902,76571,5
40903,76567,5
40895,76566,5
40905,76559,4
40895,76546,6
40891,76544,4
40884,76538,5
40883,76536,4
40879,76540,5
40891,76545,5
40888,76528,5
40881,76536,5
40890,76553,4
40884,76551,5
40896,76561,5
40899,76569,5
40894,76570,5
40901,76562,4
40899,76566,5
40907,76580,5
40907,76569,5
40908,76577,5
40907,76580,4
40892,76556,5
40876,76535,5
40871,76517,5
40855,76496,4
40855,76484,4
40840,76467,5
40840,76467,5
40834,76463,5
40838,76458,4
40830,76463,5
40836,76455,5
40839,76458,5
40839,76462,5
40832,76458,4
40841,76468,5
40843,76468,5
40850,76484,5
40847,76476,5
40853,76493,4
40850,76497,5
40865,76502,5
40866,76510,5
40858,76528,5
40844,76512,5
40876,76520,4
40876,76525,5
40874,76538,5
40855,76544,6
40885,76541,3
40889,76543,5
40888,76558,5
40883,76559,5
40895,76570,4
40898,76578,5
40916,76595,5
40926,76597,5
40914,76594,5
40916,76606,4
40906,76608,5
40943,76595,5
40917,76601,5
40917,76603,5
40913,76593,4
40926,76603,5
40919,76604,5
40918,76597,5
40917,76588,4
40920,76592,4
40915,76587,6
40903,76595,4
40907,76583,5
40907,76572,4
40904,76587,7
40910,76582,3
40907,76594,5
40909,76576,5
40913,76600,4
40914,76594,5
40912,76606,5
40907,76593,5
40924,76611,5
40930,76625,4
40931,76626,5
40925,76627,5
40930,76635,5
40931,76637,5
40925,76631,4
40925,76643,5
40923,76617,5
40918,76610,5
40920,76612,4
40914,76627,5
40914,76588,5
40908,76586,6
40909,76577,4
40902,76599,4
40905,76578,5
40898,76576,5
40901,76578,5
40900,76581,5
40899,76588,4
40906,76581,5
40896,76582,5
40896,76581,5
40912,76582,5
40912,76588,4
40907,76593,5
40904,76590,5
40898,76587,5
40894,76568,4
40872,76519,4
40858,76495,5
40840,76473,5
40825,76465,5
40823,76446,5
40816,76439,4
40822,76448,5
40818,76437,5
40811,76433,6
40807,76430,3
40805,76425,5
40798,76419,5
40799,76413,5
40795,76404,5
40797,76408,4
40797,76401,5
40790,76393,5
40777,76396,5
40785,76400,5
40790,76388,4
40778,76382,5
40785,76382,5
40782,76393,5
40791,76380,4
40781,76371,4
40774,76372,5
40785,76382,5
40781,76382,5
40783,76390,4
40778,76377,6
40786,76383,4
40783,76400,5
40798,76405,5
40796,76408,6
40794,76415,3
40801,76412,5
40801,76406,5
40800,76405,5
40797,76407,4
40795,76396,5
40790,76408,5
40793,76396,5
40789,76396,5
40775,76382,4
40785,76393,5
40783,76369,5
40775,76377,5
40773,76364,4
40773,76358,5
40764,76359,5
40760,76356,5
40763,76353,5
40757,76346,4
40754,76350,5
40757,76347,6
40752,76339,4
40747,76346,5
40760,76347,4
40752,76351,5
40772,76348,5
40764,76346,5
40759,76349,5
40759,76362,4
40768,76363,5
40772,76369,5
40771,76365,5
40765,76367,5
40762,76372,4
40770,76374,5
40772,76377,5
40771,76384,5
40771,76377,4
40773,76383,5
40774,76379,5
40762,76380,5
40782,76378,5
40768,76376,4
40776,76379,5
40755,76373,5
40774,76369,6
40770,76378,4
40768,76363,4
40742,76355,5
40755,76343,5
40742,76324,5
40730,76311,5
40727,76289,4
40719,76272,5
40710,76248,5
40695,76248,5
40717,76238,4
40691,76236,4
40682,76232,5
40682,76231,5
40711,76226,5
40692,76237,4
40688,76244,5
40694,76258,5
40703,76265,5
40713,76274,5
40720,76276,5
40717,76277,4
40722,76277,5
40713,76291,5
40719,76281,5
40721,76298,4
40718,76277,5
40710,76261,5
40689,76222,5
40666,76178,5
40637,76132,4
40647,76128,5
40616,76113,5
40607,76103,5
40613,76086,4
40604,76091,4
40605,76082,5
40599,76080,5
40596,76090,5
40595,76069,4
40599,76066,5
40591,76057,5
40588,76083,5
40585,76069,5
40590,76055,4
40592,76062,6
40588,76078,4
40593,76059,5
40578,76054,5
40580,76056,4
40581,76068,5
40596,76057,5
40588,76062,5
40591,76057,5
40589,76065,4
40592,76068,5
40580,76071,5
40588,76062,5
40591,76067,4
40584,76074,5
40603,76077,5
40602,76088,5
40608,76094,5
40616,76097,4
40601,76098,5
40612,76093,5
40606,76089,5
40609,76096,5
40616,76098,4
40612,76098,5
40614,76103,6
40615,76100,4
40615,76096,5
40612,76101,4
40614,76098,5
40621,76102,5
40621,76105,5
40613,76122,4
40623,76109,4
40622,76116,5
40615,76114,5
40620,76118,5
40625,76116,4
40626,76123,5
40629,76129,5
40621,76128,5
40622,76125,5
40637,76136,4
40641,76148,5
40635,76136,5
40643,76149,5
40635,76156,5
40641,76161,4
40641,76156,5
40652,76163,5
40642,76165,5
40651,76175,5
40652,76174,4
40653,76176,5
40653,76180,5
40655,76173,5
40656,76185,4
40661,76181,4
40660,76182,5
40653,76181,5
40661,76186,5
40665,76183,4
40661,76181,5
40667,76185,5
40667,76193,5
40658,76187,5
40665,76188,4
40662,76184,5
40665,76191,5
40661,76195,5
40655,76186,5
40666,76194,5
40663,76199,4
40665,76177,5
40660,76187,5
40649,76174,5
40643,76154,4
40632,76147,5
40630,76138,5
40625,76131,5
40627,76127,4
40624,76123,4
40624,76129,5
40630,76129,5
40619,76128,9
40628,76131,0
40632,76112,5
40639,76144,5
40649,76150,5
40653,76162,5
40637,76179,4
40664,76199,5
40668,76201,5
40675,76207,5
40660,76199,5
40665,76200,4
40666,76200,6
40669,76207,4
40658,76189,5
40649,76174,5
40634,76132,4
40609,76088,5
40594,76083,5
40596,76063,5
40577,76049,4
40581,76046,5
40592,76040,5
40575,76047,5
40580,76039,5
40578,76046,4
40591,76044,5
40577,76037,5
40573,76032,5
40581,76044,5
40600,76045,4
40581,76042,5
40579,76053,5
40588,76060,5
40585,76059,5
40581,76058,4
40588,76061,5
40587,76060,5
40585,76059,5
40596,76080,5
40592,76071,4
40597,76073,5
40586,76055,5
40588,76069,5
40586,76073,4
40589,76075,5
40585,76042,5
40588,76063,5
40595,76073,5
40597,76069,4
40597,76072,5
40595,76077,5
40591,76082,5
40590,76080,5
40602,76092,4
40597,76075,4
40598,76074,5
40593,76078,5
40597,76094,5
40594,76074,3
40594,76072,5
40603,76083,5
40610,76099,5
40609,76081,4
40602,76089,4
40600,76097,5
40614,76102,5
40610,76099,5
40624,76108,4
40615,76105,5
40618,76120,5
40631,76127,5
40632,76134,5
40636,76144,4
40638,76149,5
40636,76147,5
40635,76155,5
40643,76159,5
40654,76176,4
40649,76168,6
40649,76170,4
40652,76183,5
40654,76183,5
40666,76189,6
40667,76188,3
40666,76200,5
40664,76194,5
40664,76201,4
40672,76203,4
40673,76198,5
40666,76192,5
40673,76198,5
40659,76202,4
40672,76195,5
40669,76203,5
40663,76196,5
40663,76193,5
40660,76193,4
40654,76193,5
40663,76191,5
40659,76197,5
40663,76190,5
40658,76193,4
40657,76186,5
40659,76187,6
40655,76192,4
40656,76184,5
40655,76182,4
40651,76176,5
40646,76161,5
40648,76160,5
40630,76146,4
40640,76145,4
40639,76151,5
40641,76140,5
40637,76147,5
40639,76142,4
40637,76144,5
40647,76148,5
40643,76158,5
40645,76168,5
40644,76173,4
40657,76175,5
40663,76176,5
40659,76176,5
40658,76181,5
40650,76185,4
40661,76185,5
40657,76185,5
40652,76182,6
40651,76172,4
40640,76157,4
40628,76122,5
40609,76078,5
40594,76072,5
40597,76063,4
40577,76049,5
40572,76030,5
40568,76037,5
40567,76034,5
40582,76042,4
40580,76044,5
40566,76046,5
40577,76042,5
40573,76055,5
40589,76048,4
40577,76053,5
40579,76057,5
40585,76059,5
40584,76063,5
40584,76060,5
40589,76068,4
40592,76062,5
40594,76068,5
40595,76067,6
40565,76057,3
40590,76067,5
40582,76066,5
40589,76072,5
40577,76067,4
40591,76069,5
40592,76060,5
40583,76060,5
40579,76069,5
40588,76064,4
40603,76069,5
40602,76081,5
40613,76082,5
40600,76078,5
40610,76085,4
40594,76088,5
40631,76087,5
40600,76086,5
40605,76087,5
40609,76086,4
40615,76095,6
40606,76096,4
40607,76106,5
40620,76112,5
40623,76111,4
40623,76121,5
40633,76125,5
40628,76125,5
40633,76127,4
40635,76144,5
40639,76150,5
40641,76157,5
40641,76144,5
40649,76169,4
40667,76176,5
40665,76198,5
40663,76177,5
40667,76203,5
40680,76211,4
40675,76212,5
40680,76226,5
40687,76232,5
40691,76240,5
40693,76242,4
40699,76268,5
40700,76251,6
40698,76256,4
40705,76261,4
40702,76293,4
40712,76272,5
40715,76273,5
40708,76274,5
40711,76291,4
40722,76273,5
40718,76287,5
40714,76280,5
40710,76274,5
40716,76275,4
40718,76276,5
40718,76285,5
40719,76279,5
40711,76279,5
40712,76270,4
40715,76258,5
40711,76260,5
40703,76254,5
40696,76251,5
40702,76252,4
40688,76248,5
40698,76245,5
40698,76252,6
40694,76256,3
40703,76257,4
40708,76269,5
40712,76278,5
40718,76289,5
40725,76285,4
40726,76287,5
40727,76290,5
40725,76294,5
40722,76290,5
40726,76291,4
40723,76292,5
40718,76294,5
40731,76292,5
40720,76284,5
40705,76273,4
40701,76237,5
40680,76218,5
40669,76201,5
40663,76185,5
40652,76180,5
40656,76169,4
40648,76174,5
40657,76174,5
40663,76187,4
40661,76190,5
40667,76200,5
40659,76196,5
40664,76201,5
40667,76210,4
40671,76208,5
40687,76229,5
40687,76225,5
40694,76238,5
40703,76248,4
40702,76249,5
40704,76255,5
40710,76265,5
40707,76268,5
40709,76276,4
40714,76268,5
40707,76272,5
40700,76270,5
40699,76277,5
40701,76271,4
40716,76271,6
40705,76264,4
40705,76270,5
40718,76287,4
40720,76284,5
40713,76279,5
40712,76283,5
40720,76286,5
40718,76278,4
40718,76285,5
40711,76283,5
40718,76279,5
40712,76285,5
40719,76288,4
40723,76276,5
40718,76286,5
40727,76289,5
40723,76287,5
40720,76297,4
40733,76305,5
40734,76312,5
40738,76324,5
40748,76321,4
40748,76344,4
40762,76354,5
40756,76361,6
40773,76372,4
40770,76384,4
40788,76398,5
40776,76411,5
40803,76424,5
40806,76433,5
40809,76431,4
40797,76435,5
40821,76454,5
40814,76452,5
40832,76470,5
40819,76472,4
40831,76480,5
40834,76479,5
40837,76479,5
40846,76485,5
40831,76483,4
40840,76485,5
40830,76476,5
40854,76478,5
40829,76459,5
40824,76456,4
40818,76457,5
40828,76437,5
40813,76428,5
40807,76429,4
40809,76430,5
40809,76430,5
40811,76433,5
40812,76433,5
40808,76442,4
40814,76443,5
40812,76459,5
40814,76461,5
40826,76459,5
40820,76446,4
40836,76481,5
40833,76477,5
40839,76484,5
40832,76463,5
40832,76492,4
40837,76476,5
40830,76485,5
40826,76477,5
40811,76447,4
40808,76424,6
40785,76405,4
40780,76402,5
40776,76366,5
40770,76362,4
40762,76358,5
40757,76377,5
40773,76354,5
40757,76357,5
40761,76360,4
40775,76386,5
40771,76382,5
40768,76385,5
40778,76390,5
40789,76400,4
40786,76406,5
40795,76411,5
40796,76404,5
40797,76410,5
40802,76419,4
40809,76437,5
40808,76445,5
40816,76447,5
40820,76455,4
40821,76459,5
40819,76460,6
40827,76469,4
40826,76463,5
40826,76465,4
40834,76485,5
40837,76489,5
40849,76502,5
40844,76507,5
40840,76499,4
40853,76510,5
40849,76507,5
40851,76514,5
40856,76511,5
40852,76510,4
40850,76517,5
40857,76515,5
40855,76512,5
40860,76520,5
40853,76506,4
40854,76503,5
40847,76511,5
40858,76513,5
40850,76513,4
40857,76515,5
40854,76524,5
40862,76528,5
40868,76522,5
40864,76528,4
40873,76543,5
40878,76547,5
40869,76558,5
40887,76554,5
40887,76578,4
40895,76584,5
40898,76584,5
40906,76603,5
40905,76608,5
40913,76610,4
40914,76611,5
40914,76623,5
40920,76629,5
40917,76640,4
40917,76633,4
40936,76643,4
40933,76650,5
40936,76647,5
40929,76649,6
40934,76642,3
40917,76638,5
40922,76634,5
40920,76635,5
40915,76625,7
40913,76611,2
40913,76616,5
40911,76608,5
40905,76617,5
40910,76616,4
40908,76607,5
40909,76616,5
40918,76612,5
40916,76606,5
40920,76621,4
40912,76628,5
40923,76613,5
40916,76624,5
40917,76625,4
40920,76630,4
40916,76635,6
40913,76634,4
40911,76614,5
40902,76594,4
40878,76566,8
40860,76531,2
40877,76525,5
40831,76505,5
40835,76491,4
40832,76487,5
40829,76490,5
40809,76482,5
40837,76475,5
40825,76468,4
40832,76469,5
40807,76470,5
40824,76473,5
40831,76471,5
40827,76476,4
40825,76468,5
40827,76465,5
40826,76474,5
40822,76474,4
40850,76475,5
40829,76468,5
40825,76468,6
40830,76470,4
40845,76476,4
40833,76460,5
40827,76464,5
40823,76465,5
40835,76453,5
40835,76466,4
40818,76457,5
40818,76465,5
40828,76475,5
40823,76473,5
40829,76475,4
40827,76464,5
40839,76462,5
40829,76467,5
40838,76465,5
40831,76469,4
40826,76452,5
40822,76460,5
40826,76464,5
40810,76454,5
40813,76431,4
40803,76441,5
40807,76439,5
40808,76429,6
40796,76431,3
40802,76428,5
40799,76429,5
40797,76417,5
40802,76438,5
40793,76410,4
40797,76429,5
40793,76428,5
40793,76449,5
40806,76429,5
40803,76434,4
40814,76442,5
40812,76441,5
40811,76445,5
40810,76442,4
40804,76442,4
40810,76439,5
40815,76442,5
40803,76438,5
40804,76438,4
40796,76439,6
40806,76432,4
40804,76431,5
40788,76425,5
40801,76423,6
40804,76419,3
40792,76426,5
40801,76427,5
40796,76425,5
40800,76422,4
40785,76420,5
40784,76415,5
40786,76395,5
40780,76395,5
40782,76392,4
40779,76403,5
40777,76391,5
40778,76378,5
40775,76385,4
40781,76389,4
40778,76388,5
40769,76376,5
40764,76365,5
40754,76352,4
40749,76333,5
40746,76328,6
40729,76312,4
40730,76309,5
40720,76300,4
40716,76292,5
40715,76275,5
40707,76271,5
40717,76277,5
40716,76277,4
40715,76289,5
40717,76286,5
40719,76300,5
40725,76310,5
40723,76310,4
40723,76315,5
40729,76318,5
40731,76321,5
40733,76332,4
40742,76333,5
40736,76321,5
40734,76300,5
40702,76263,5
40682,76222,4
40655,76187,5
40648,76164,5
40635,76140,6
40623,76120,4
40615,76119,4
40620,76123,5
40613,76124,5
40622,76125,5
40619,76123,5
40621,76126,4
40614,76114,5
40611,76124,5
40617,76118,5
40617,76116,5
40617,76121,4
40609,76114,5
40619,76117,5
40622,76131,5
40616,76130,4
40622,76126,5
40619,76132,5
40624,76126,5
40622,76123,5
40620,76135,5
40625,76132,4
40624,76123,5
40625,76125,5
40627,76131,6
40624,76126,3
40621,76129,5
40628,76138,5
40636,76137,5
40635,76150,5
40629,76163,4
40642,76163,5
40647,76168,5
40645,76165,5
40630,76164,5
40646,76166,4
40652,76167,5
40642,76159,5
40632,76165,5
40641,76160,4
40645,76169,5
40652,76162,5
40646,76172,5
40651,76182,5
40648,76172,4
40660,76174,6
40679,76184,4
40666,76191,5
40661,76182,5
40658,76194,4
40686,76194,5
40663,76192,5
40664,76199,5
40667,76203,5
40672,76202,4
40672,76203,5
40676,76221,5
40676,76222,5
40672,76218,4
40675,76224,4
40672,76217,5
40681,76221,5
40677,76209,5
40680,76228,4
40685,76236,5
40680,76236,5
40681,76215,5
40680,76233,5
40687,76225,4
40679,76228,5
40681,76219,6
40675,76223,4
40681,76229,5
40679,76217,4
40677,76230,5
40680,76223,5
40679,76221,5
40673,76214,5
40672,76237,4
40672,76220,5
40679,76213,5
40668,76215,5
40675,76225,4
40662,76205,4
40663,76193,5
40658,76187,5
40649,76185,5
40644,76160,4
40635,76162,5
40638,76153,5
40634,76132,5
40623,76139,5
40623,76128,4
40618,76118,5
40620,76113,5
40614,76121,5
40623,76126,5
40622,76134,4
40619,76148,5
40635,76163,5
40643,76177,5
40651,76180,5
40656,76194,4
40651,76180,5
40648,76189,5
40654,76184,5
40662,76189,4
40656,76189,4
40650,76187,5
40655,76178,5
40644,76144,5
40616,76124,4
40593,76079,5
40595,76064,5
40578,76055,5
40568,76047,5
40556,76023,5
40560,76019,4
40558,76028,5
40561,76029,5
40561,76022,5
40558,76021,4
40558,76028,5
40565,76025,5
40555,76024,5
40566,76018,5
40567,76023,4
40561,76022,5
40557,76021,5
40568,76027,5
40568,76037,4
40569,76028,5
40564,76035,5
40559,76038,5
40566,76038,5
40566,76023,4
40566,76035,5
40564,76030,5
40564,76038,5
40575,76038,5
40570,76040,4
40567,76051,6
40563,76042,4
40573,76049,5
40577,76060,5
40597,76068,4
40587,76068,5
40579,76070,5
40590,76071,5
40590,76079,5
40592,76081,4
40599,76087,5
40601,76091,5
40598,76089,5
40594,76084,4
40594,76083,5
40600,76086,5
40594,76082,5
40589,76088,5
40602,76093,4
40606,76096,5
40599,76088,5
40598,76089,5
40604,76086,5
40596,76096,4
40605,76083,5
40599,76096,5
40607,76092,5
40603,76104,5
40605,76115,4
40601,76107,5
40613,76110,5
40622,76115,5
40612,76119,5
40618,76125,4
40603,76124,5
40616,76130,5
40622,76123,5
40625,76132,4
40607,76136,5
40630,76138,5
40636,76147,5
40634,76150,5
40618,76143,4
40633,76141,5
40646,76150,5
40638,76146,5
40638,76154,5
40638,76153,3
40643,76152,5
40637,76158,5
40658,76152,5
40637,76162,5
40631,76148,4
40633,76143,5
40646,76149,5
40632,76136,5
40616,76128,5
40623,76131,4
40622,76122,5
40607,76106,5
40600,76100,5
40604,76095,4
40608,76085,5
40594,76092,5
40603,76088,5
40597,76096,5
40602,76080,4
40601,76099,6
40598,76108,4
40602,76114,5
40608,76101,5
40617,76128,6
40627,76141,3
40631,76135,5
40629,76129,5
40633,76147,5
40630,76140,4
40622,76137,5
40628,76157,5
40625,76124,5
40620,76116,5
40604,76081,4
40577,76067,5
40565,76025,5
40556,76020,5
40548,76007,4
40540,75999,5
40542,75988,5
40541,75999,5
40540,75990,5
40545,76003,4
40547,75998,5
40549,75989,6
40539,75995,4
40538,75994,5
40543,76002,4
40536,75996,5
40543,76000,5
40559,76001,5
40555,75995,5
40549,76002,4
40553,76012,5
40544,76016,5
40549,76000,5
40559,76012,5
40555,76024,4
40559,76015,5
40556,76007,5
40561,76016,5
40550,76018,4
40556,76015,5
40558,76019,5
40559,76021,5
40553,76031,5
40566,76041,4
40576,76041,5
40582,76047,5
40575,76046,6
40570,76042,4
40575,76048,4
40579,76053,5
40580,76053,5
40584,76052,5
40579,76061,5
40577,76059,4
40582,76052,5
40579,76064,5
40583,76068,5
40585,76080,4
40590,76083,4
40590,76079,5
40591,76088,5
40596,76096,5
40594,76096,4
40596,76104,5
40605,76103,5
40618,76114,5
40614,76121,5
40612,76114,5
40606,76136,5
40615,76131,4
40621,76143,5
40624,76145,6
40628,76138,3
40628,76145,5
40629,76152,5
40636,76147,5
40625,76154,5
40624,76158,4
40629,76157,5
40628,76159,5
40632,76156,5
40626,76161,4
40631,76158,4
40642,76161,5
40636,76165,5
40636,76151,5
40635,76166,4
40642,76152,5
40637,76164,5
40631,76160,5
40633,76169,5
40634,76157,4
40636,76161,6
40641,76164,4
40633,76163,5
40632,76157,5
40623,76147,4
40625,76149,5
40614,76139,5
40622,76134,5
40616,76131,5
40609,76127,4
40616,76126,5
40616,76138,5
40621,76138,5
40622,76136,4
40617,76139,4
40614,76135,5
40611,76147,5
40624,76152,5
40634,76170,4
40632,76162,5
40628,76173,5
40637,76176,5
40637,76175,5
40645,76166,4
40625,76173,5
40641,76182,6
40638,76164,4
40628,76156,5
40612,76121,4
40601,76097,5
40588,76075,5
40578,76074,5
40591,76065,5
40577,76061,4
40575,76057,5
40574,76052,5
40595,76059,5
40573,76060,4
40563,76058,5
40572,76062,5
40587,76056,5
40578,76072,5
40577,76066,4
40582,76070,5
40587,76075,5
40583,76074,5
40588,76084,5
40585,76087,4
40593,76066,5
40587,76085,5
40587,76082,6
40582,76083,4
40591,76061,4
40579,76079,5
40584,76083,5
40587,76081,5
40596,76077,5
40592,76086,4
40596,76091,5
40592,76092,5
40590,76108,5
40609,76112,4
40611,76126,5
40607,76123,5
40607,76139,5
40611,76128,5
40617,76133,4
40617,76136,5
40632,76162,5
40615,76144,5
40626,76152,5
40624,76155,5
40629,76175,4
40636,76181,5
40639,76172,5
40640,76178,5
40646,76192,4
40652,76187,5
40653,76191,5
40657,76204,5
40657,76213,5
40667,76213,4
40669,76222,5
40659,76223,5
40669,76233,5
40677,76231,4
40683,76244,5
40683,76242,5
40684,76254,5
40692,76259,5
40692,76261,4
40694,76267,5
40694,76277,5
40695,76283,5
40699,76272,5
40703,76284,4
40708,76288,6
40711,76295,4
40709,76290,5
40709,76300,5
40710,76295,4
40722,76305,5
40711,76302,5
40721,76302,5
40713,76311,5
40715,76309,4
40714,76303,5
40717,76303,5
40707,76292,5
40705,76301,4
40701,76291,5
40706,76278,5
40699,76278,5
40696,76278,5
40704,76280,4
40705,76279,5
40701,76288,5
40708,76277,5
40709,76293,5
40717,76293,4
40717,76304,5
40719,76300,6
40718,76311,4
40724,76323,5
40726,76319,4
40729,76325,5
40733,76317,5
40726,76325,5
40724,76327,4
40730,76338,4
40722,76330,5
40725,76328,5
40726,76317,5
40707,76282,4
40695,76253,5
40683,76251,5
40670,76241,5
40671,76234,5
40676,76236,4
40669,76221,5
40667,76230,5
40674,76232,5
40679,76237,5
40685,76242,4
40687,76246,5
40680,76247,5
40680,76257,5
40684,76260,5
40686,76262,4
40698,76270,5
40702,76266,5
40706,76279,5
40704,76281,4
40703,76291,4
40707,76286,5
40706,76295,5
40714,76296,5
40708,76296,4
40711,76291,5
40702,76303,5
40712,76302,5
40707,76309,5
40717,76304,4
40708,76302,5
40724,76315,5
40711,76327,5
40727,76329,5
40730,76337,5
40737,76331,4
40719,76324,5
40736,76330,5
40741,76344,5
40736,76346,4
40744,76344,5
40741,76339,5
40734,76347,5
40728,76352,4
40754,76343,4
40731,76356,5
40752,76355,5
40739,76351,5
40772,76359,4
40752,76361,5
40754,76365,5
40755,76385,5
40776,76386,5
40769,76391,4
40781,76408,5
40782,76419,5
40793,76428,5
40792,76445,5
40803,76454,4
40801,76458,6
40809,76454,4
40818,76476,5
40829,76492,5
40827,76497,4
40830,76492,5
40831,76512,5
40830,76515,5
40836,76515,4
40848,76505,4
40845,76530,5
40844,76533,5
40850,76527,5
40850,76533,4
40848,76529,5
40845,76518,5
40842,76514,5
40830,76524,5
40824,76498,4
40829,76496,5
40819,76494,5
40827,76508,5
40825,76487,5
40814,76494,4
40834,76501,5
40830,76515,5
40835,76517,5
40841,76525,5
40840,76537,4
40850,76544,5
40859,76549,5
40858,76548,5
40860,76560,4
40866,76570,5
40858,76566,5
40869,76567,5
40862,76560,5
40864,76550,4
40844,76524,5
40839,76500,5
40816,76475,5
40804,76467,5
40805,76449,5
40788,76438,4
40790,76433,5
40787,76431,5
40793,76437,5
40790,76442,3
40796,76443,5
40798,76449,5
40802,76440,5
40797,76453,5
40801,76450,4
40798,76458,5
40804,76452,5
40803,76460,5
40811,76471,4
40823,76482,5
40822,76489,5
40826,76502,5
40829,76500,5
40828,76501,4
40839,76506,5
40841,76509,5
40838,76517,5
40839,76523,5
40847,76534,4
40844,76538,6
40847,76537,4
40857,76553,5
40857,76568,5
40872,76578,6
40885,76577,3
40875,76578,5
40875,76577,5
40882,76577,5
40871,76581,4
40880,76589,5
40889,76601,5
40883,76593,5
40882,76585,4
40871,76592,5
40884,76586,5
40881,76576,5
40873,76568,5
40877,76579,4
40871,76573,5
40882,76581,5
40868,76581,5
40872,76580,5
40882,76580,4
40875,76585,5
40881,76585,6
40877,76586,4
40896,76600,5
40896,76610,4
40897,76615,5
40905,76628,5
40913,76641,5
40911,76654,5
40921,76656,4
40922,76672,5
40926,76678,5
40936,76683,5
40940,76693,4
40949,76691,5
40943,76703,5
40948,76701,5
40946,76700,5
40947,76714,4
40941,76701,5
40936,76697,5
40947,76687,5
40932,76684,5
40924,76680,4
40922,76671,5
40919,76653,5
40918,76657,6
40895,76657,4
40916,76655,4
40908,76655,5
40918,76664,5
40902,76653,5
40921,76659,4
40924,76669,4
40930,76659,5
40930,76659,5
40926,76668,5
40929,76671,4
40924,76666,5
40943,76662,5
40926,76667,5
40916,76657,5
40896,76635,4
40907,76587,5
40876,76584,5
40866,76561,5
40863,76545,5
40861,76545,5
40848,76539,4
40849,76538,5
40847,76529,5
40847,76525,6
40838,76530,3
40844,76523,5
40837,76517,5
40840,76512,5
40841,76519,4
40844,76516,4
40837,76528,5
40844,76503,5
40840,76523,5
40839,76514,4
40836,76519,5
40832,76501,5
40841,76515,5
40835,76509,5
40829,76511,4
40832,76507,5
40831,76503,5
40821,76498,5
40825,76507,5
40827,76524,4
40825,76502,6
40826,76498,4
40831,76514,5
40835,76536,5
40835,76504,4
40833,76507,5
40837,76515,5
40827,76508,5
40832,76502,4
40819,76509,4
40821,76495,5
40824,76489,5
40829,76495,5
40821,76499,4
40820,76482,5
40812,76481,5
40820,76472,5
40807,76469,5
40808,76450,4
40803,76448,5
40804,76457,5
40793,76446,5
40790,76443,5
40798,76441,4
40787,76436,5
40788,76435,6
40796,76435,4
40794,76451,5
40789,76437,4
40789,76447,5
40796,76450,5
40796,76458,5
40791,76444,4
40800,76466,4
40800,76459,5
40797,76457,5
40803,76459,5
40800,76455,4
40804,76468,9
40805,76463,1
40793,76460,5
40805,76470,5
40809,76464,4
40798,76466,5
40811,76460,5
40795,76452,5
40805,76459,5
40799,76466,4
40804,76459,5
40802,76460,5
40804,76459,6
40799,76450,4
40796,76447,4
40801,76444,5
40798,76447,5
40794,76445,5
40797,76442,4
40799,76438,5
40787,76445,5
40795,76430,5
40788,76432,5
40774,76415,4
40775,76418,5
40770,76422,5
40763,76398,5
40753,76382,5
40753,76360,4
40739,76345,5
40724,76328,5
40719,76318,5
40706,76306,5
40696,76296,5
40688,76277,4
40690,76282,5
40682,76277,5
40698,76279,5
40696,76293,4
40699,76297,5
40713,76298,5
40719,76306,5
40718,76325,4
40723,76331,5
40735,76340,5
40726,76346,5
40729,76352,5
40739,76357,4
40730,76347,5
40736,76351,5
40734,76337,5
40704,76299,5
40682,76259,4
40675,76240,5
40667,76235,5
40651,76212,5
40644,76192,5
40643,76184,4
40625,76177,6
40634,76174,4
40636,76174,5
40631,76164,5
40605,76157,4
40626,76158,5
40621,76158,5
40622,76155,5
40597,76150,4
40615,76150,5
40615,76149,5
40620,76154,5
40626,76149,5
40612,76149,4
40614,76142,5
40609,76140,5
40640,76146,5
40607,76141,5
40608,76142,4
40612,76143,5
40634,76132,5
40617,76136,5
40617,76139,5
40613,76154,4
40617,76150,5
40628,76142,6
40621,76156,4
40626,76168,5
40646,76174,4
40642,76175,5
40629,76185,5
40637,76178,5
40640,76171,4
40640,76184,5
40637,76197,5
40642,76194,5
40649,76169,5
40644,76198,4
40649,76207,5
40650,76208,5
40649,76197,5
40650,76215,5
40653,76211,4
40639,76214,5
40652,76218,5
40647,76206,5
40656,76211,5
40656,76220,4
40659,76237,5
40653,76209,5
40654,76211,5
40648,76208,5
40655,76232,4
40654,76219,5
40663,76231,5
40663,76219,5
40658,76233,4
40663,76222,5
40663,76220,5
40667,76232,5
40660,76239,5
40669,76234,4
40674,76247,5
40678,76244,5
40681,76243,5
40677,76244,5
40670,76248,4
40671,76240,5
40675,76244,5
40685,76248,5
40682,76242,5
40681,76247,5
40674,76252,4
40676,76245,5
40673,76239,5
40674,76235,4
40673,76240,4
40666,76225,5
40662,76230,5
40675,76240,5
40664,76228,4
40666,76221,5
40669,76221,5
40657,76219,5
40663,76218,5
40653,76217,4
40655,76219,5
40646,76192,5
40647,76178,5
40639,76170,5
40626,76154,4
40621,76149,5
40612,76139,5
40609,76129,5
40604,76127,5
40599,76114,4
40605,76124,6
40608,76137,4
40615,76153,5
40618,76155,4
40624,76167,4
40633,76174,5
40635,76188,5
40641,76200,5
40648,76211,4
40651,76211,5
40660,76215,5
40650,76208,5
40659,76213,5
40649,76212,4
40651,76206,5
40637,76195,5
40634,76166,5
40610,76122,5
40584,76096,4
40575,76074,5
40574,76060,5
40564,76044,5
40546,76047,5
40558,76047,4
40563,76043,5
40554,76036,5
40555,76051,5
40553,76047,4
40556,76043,4
40558,76052,5
40561,76055,5
40565,76042,5
40562,76054,4
40559,76060,5
40573,76066,5
40570,76059,5
40559,76057,5
40573,76058,4
40570,76066,5
40569,76064,5
40565,76064,5
40569,76061,5
40570,76072,5
40571,76070,4
40568,76062,5
40572,76067,5
40573,76059,6
40575,76073,3
40582,76064,5
40566,76078,5
40592,76096,5
40587,76085,4
40590,76097,4
40571,76096,5
40583,76095,5
40591,76092,5
40592,76102,4
40572,76105,5
40594,76107,5
40593,76115,5
40604,76118,5
40603,76119,4
40598,76118,5
40597,76107,5
40601,76133,5
40629,76127,5
40610,76139,4
40620,76143,6
40621,76137,4
40641,76149,5
40614,76142,5
40624,76153,6
40617,76158,3
40634,76155,5
40620,76170,5
40636,76171,4
40636,76186,4
40638,76179,5
40645,76187,5
40643,76195,5
40644,76194,4
40646,76180,5
40649,76201,5
40647,76202,5
40647,76207,5
40652,76189,4
40657,76208,5
40655,76215,5
40653,76222,5
40663,76213,5
40662,76229,4
40661,76221,5
40663,76225,6
40656,76229,4
40657,76219,5
40660,76226,4
40655,76223,5
40664,76240,5
40665,76214,5
40657,76217,4
40667,76227,4
40655,76240,5
40670,76215,5
40664,76228,5
40665,76222,4
40655,76229,5
40671,76237,5
40657,76223,5
40663,76223,5
40667,76231,4
40657,76228,5
40646,76229,5
40660,76229,5
40659,76218,5
40659,76222,4
40652,76207,5
40653,76219,5
40645,76203,6
40649,76190,4
40638,76191,4
40626,76178,5
40623,76158,5
40613,76142,5
40609,76140,4
40606,76126,5
40601,76129,5
40601,76129,5
40610,76130,5
40611,76150,4
40617,76156,5
40615,76161,5
40629,76182,5
40637,76189,5
40633,76190,4
40647,76206,5
40649,76213,5
40649,76207,5
40648,76208,5
40651,76204,5
40650,76204,4
40647,76189,5
40636,76175,5
40613,76153,6
40585,76108,3
40572,76072,5
40563,76065,5
40558,76036,5
40549,76024,4
40546,76010,5
40534,76008,5
40539,76013,5
40538,76004,5
40541,76000,4
40532,76003,5
40538,76019,5
40535,76010,5
40539,76015,5
40547,76015,4
40544,76022,5
40547,76019,5
40545,76031,5
40542,76026,5
40545,76035,4
40551,76030,6
40542,76027,4
40554,76036,5
40552,76035,5
40559,76033,4
40552,76041,5
40549,76044,5
40558,76046,5
40553,76040,4
40550,76049,5
40557,76051,5
40566,76064,5
40569,76067,5
40570,76075,4
40571,76073,5
40576,76081,5
40577,76080,5
40569,76076,5
40573,76082,4
40580,76085,5
40577,76084,5
40573,76082,5
40583,76081,5
40579,76080,4
40579,76082,5
40577,76090,6
40581,76091,4
40581,76098,5
40585,76089,4
40589,76089,5
40581,76101,5
40572,76106,5
40596,76101,4
40595,76109,5
40592,76113,5
40577,76117,5
40604,76126,5
40613,76132,4
40610,76130,5
40597,76150,5
40621,76143,5
40620,76153,5
40619,76162,4
40629,76166,5
40625,76166,5
40628,76167,5
40637,76170,5
40658,76172,4
40625,76176,5
40631,76179,5
40634,76171,6
40648,76180,3
40630,76173,4
40638,76181,5
40639,76172,5
40641,76185,5
40634,76179,4
40633,76178,5
40631,76164,5
40630,76171,5
40627,76175,5
40632,76170,4
40634,76173,5
40632,76150,5
40638,76178,5
40628,76183,5
40643,76177,4
40637,76160,5
40640,76177,5
40642,76180,5
40638,76187,5
40637,76172,5
40632,76184,4
40628,76178,5
40628,76171,5
40624,76168,4
40623,76161,4
40616,76144,5
40621,76153,5
40617,76176,5
40624,76147,4
40618,76161,5
40626,76160,5
40628,76179,5
40622,76163,5
40618,76177,4
40634,76171,5
40637,76182,5
40634,76176,5
40638,76181,5
40632,76182,4
40639,76179,5
40636,76188,5
40636,76179,5
40644,76172,5
40644,76163,4
40618,76146,6
40603,76107,4
40586,76083,5
40567,76066,4
40570,76058,5
40558,76050,7
40552,76044,3
40550,76050,5
40555,76046,4
40566,76057,5
40570,76061,5
40568,76062,5
40573,76062,5
40568,76070,4
40586,76087,5
40583,76090,5
40584,76089,5
40589,76102,5
40586,76113,4
40598,76102,5
40594,76110,5
40593,76117,5
40603,76123,4
40599,76119,4
40595,76125,5
40601,76118,6
40597,76116,4
40606,76112,4
40601,76115,5
40608,76116,5
40603,76122,5
40600,76125,5
40604,76123,4
40617,76142,5
40620,76152,5
40620,76160,5
40626,76155,5
40622,76155,4
40630,76168,5
40625,76165,5
40621,76175,5
40636,76176,5
40629,76178,4
40631,76183,5
40632,76183,5
40631,76186,5
40645,76187,5
40641,76189,4
40639,76193,5
40647,76197,5
40652,76199,5
40657,76205,4
40659,76210,5
40653,76219,5
40652,76219,5
40663,76228,5
40664,76237,4
40670,76234,5
40666,76250,5
40679,76244,5
40677,76263,5
40687,76267,4
40687,76265,5
40700,76267,5
40692,76276,5
40704,76287,5
40694,76290,4
40708,76289,5
40712,76304,5
40711,76298,5
40711,76297,4
40710,76298,6
40711,76298,4
40703,76299,5
40708,76299,5
40710,76303,4
40702,76301,5
40709,76295,5
40705,76293,5
40701,76291,5
40690,76287,4
40696,76281,5
40688,76277,5
40699,76277,5
40675,76273,5
40697,76276,4
40700,76278,5
40691,76275,5
40696,76289,5
40699,76301,4
40710,76297,4
40712,76311,5
40726,76310,5
40716,76328,5
40734,76326,4
40726,76320,5
40750,76316,6
40721,76326,4
40725,76322,5
40720,76315,4
40731,76311,5
40717,76299,5
40709,76288,5
40695,76262,5
40673,76224,4
40657,76200,5
40646,76186,5
40645,76171,5
40626,76151,5
40640,76169,4
40631,76174,5
40647,76181,5
40638,76163,5
40637,76198,4
40647,76198,5
40648,76195,5
40647,76174,5
40659,76202,5
40661,76213,3
40664,76212,5
40661,76216,5
40665,76218,5
40671,76230,5
40676,76232,4
40667,76266,5
40686,76254,5
40679,76257,5
40690,76259,5
40685,76281,4
40686,76248,5
40694,76262,5
40694,76273,5
40688,76282,4
40707,76277,4
40710,76292,5
40725,76305,5
40713,76307,5
40712,76301,4
40718,76302,6
40720,76309,4
40714,76301,5
40719,76303,5
40722,76301,6
40713,76308,3
40719,76307,5
40717,76308,5
40713,76299,5
40711,76294,4
40723,76299,5
40711,76298,5
40723,76300,5
40721,76305,5
40726,76304,4
40720,76310,5
40722,76301,5
40722,76320,5
40722,76322,4
40729,76328,4
40730,76340,5
40741,76340,5
40743,76359,5
40756,76368,4
40759,76368,5
40759,76382,6
40768,76384,4
40763,76400,5
40780,76406,4
40776,76410,5
40785,76420,5
40783,76418,5
40783,76414,5
40786,76426,4
40796,76424,5
40783,76415,5
40784,76410,5
40781,76406,5
40777,76398,4
40776,76390,5
40765,76383,5
40761,76378,5
40762,76374,4
40755,76371,5
40761,76379,5
40761,76382,5
40766,76383,5
40777,76394,4
40773,76400,5
40779,76402,5
40773,76411,6
40780,76402,4
40771,76404,4
40784,76408,5
40777,76421,5
40788,76422,5
40786,76421,5
40786,76397,4
40773,76397,5
40763,76366,5
40745,76343,5
40739,76328,4
40731,76311,4
40714,76310,5
40716,76311,5
40719,76310,5
40721,76310,4
40717,76310,5
40728,76320,5
40726,76311,5
40733,76320,5
40731,76329,5
40731,76325,4
40734,76320,5
40739,76338,5
40735,76342,6
40736,76340,3
40741,76349,5
40740,76352,5
40740,76352,5
40741,76357,5
40758,76360,4
40748,76364,5
40744,76377,5
40754,76368,5
40756,76370,4
40762,76362,5
40734,76379,5
40764,76382,5
40762,76388,5
40765,76390,4
40747,76405,5
40772,76411,5
40767,76404,5
40780,76399,5
40790,76400,4
40773,76399,6
40777,76402,4
40767,76393,5
40795,76413,5
40771,76401,4
40777,76396,5
40774,76387,5
40783,76399,5
40771,76380,5
40762,76381,4
40755,76375,5
40767,76367,5
40754,76376,5
40765,76377,4
40758,76376,5
40759,76367,5
40759,76381,5
40753,76378,5
40766,76380,4
40758,76377,5
40769,76380,5
40772,76396,5
40777,76389,5
40785,76376,4
40773,76407,5
40779,76406,6
40779,76407,4
40774,76408,5
40780,76407,4
40784,76407,5
40778,76404,5
40769,76412,5
40766,76395,4
40763,76383,4
40751,76376,5
40754,76388,5
40750,76353,5
40737,76344,4
40740,76329,5
40734,76337,5
40730,76326,5
40727,76335,5
40721,76324,4
40731,76320,5
40725,76323,5
40729,76330,5
40724,76312,5
40736,76309,4
40721,76310,5
40722,76316,5
40729,76315,6
40723,76308,4
40715,76304,4
40715,76299,5
40709,76277,5
40674,76233,5
40657,76204,4
40647,76181,5
40627,76141,5
40619,76139,5
40612,76127,5
40608,76116,4
40611,76118,5
40600,76106,5
40596,76091,5
40590,76097,5
40596,76099,4
40590,76091,5
40591,76095,5
40602,76092,5
40592,76093,5
40596,76102,5
40593,76094,4
40594,76093,5
40597,76098,5
40596,76092,5
40598,76099,4
40596,76093,5
40596,76102,5
40591,76102,5
40595,76091,4
40592,76091,5
40593,76090,5
40587,76092,5
40589,76092,5
40591,76088,4
40590,76091,5
40588,76097,5
40601,76100,5
40603,76099,5
40599,76108,4
40588,76098,5
40593,76107,5
40601,76098,5
40587,76096,5
40597,76104,4
40597,76098,6
40593,76094,4
40595,76098,5
40600,76088,4
40595,76098,4
40597,76087,5
40596,76095,5
40598,76085,5
40598,76090,4
40593,76102,5
40597,76096,5
40594,76102,5
40601,76111,5
40604,76118,4
40602,76114,5
40611,76114,5
40604,76125,5
40611,76127,5
40610,76130,4
40624,76130,5
40618,76138,5
40624,76143,5
40621,76147,5
40623,76150,4
40625,76148,5
40630,76135,6
40616,76151,4
40627,76142,4
40629,76153,5
40630,76149,5
40629,76153,5
40631,76150,5
40607,76146,4
40621,76154,5
40631,76150,5
40620,76151,5
40609,76146,5
40618,76151,4
40619,76144,5
40625,76140,5
40609,76129,5
40618,76132,5
40617,76125,4
40613,76129,5
40618,76129,5
40619,76129,5
40619,76131,5
40613,76129,4
40625,76120,5
40611,76123,5
40606,76112,5
40595,76101,4
40615,76095,5
40579,76072,5
40570,76062,5
40570,76044,5
40572,76031,4
40547,76029,5
40539,76006,5
40533,75993,5
40545,75993,5
40535,75989,4
40545,76008,5
40550,76027,5
40553,76027,5
40560,76043,5
40571,76049,4
40573,76065,5
40587,76066,5
40585,76084,5
40586,76075,4
40578,76076,6
40586,76071,4
40582,76090,5
40593,76087,5
40571,76066,4
40561,76041,5
40540,75985,5
40524,75965,5
40507,75946,5
40500,75963,4
40492,75928,5
40495,75921,5
40491,75922,5
40488,75940,5
40488,75916,4
40489,75914,5
40484,75917,5
40483,75917,5
40498,75921,4
40492,75924,4
40486,75918,5
40497,75928,10
40497,75925,4
40496,75937,5
40501,75937,6
40500,75937,4
40495,75942,5
40502,75945,4
40495,75944,5
40505,75930,5
40504,75941,5
40494,75935,5
40505,75939,4
40496,75941,5
40510,75949,5
40515,75957,5
40514,75948,5
40510,75948,4
40506,75952,5
40507,75968,5
40512,75966,5
40516,75970,4
40520,75971,5
40510,75962,5
40526,75967,5
40525,75967,5
40518,75978,4
40521,75984,5
40513,75985,5
40527,75982,5
40524,75982,5
40526,75989,4
40539,75992,5
40531,75995,5
40540,76005,5
40526,76009,5
40538,76010,4
40538,76010,5
40538,76002,5
40547,76005,5
40547,76017,4
40556,76018,4
40553,76026,5
40555,76036,5
40558,76034,5
40561,76043,4
40567,76060,6
40574,76060,4
40575,76063,5
40577,76068,5
40591,76086,6
40582,76086,3
40597,76091,5
40587,76093,5
40600,76093,5
40599,76110,4
40604,76116,5
40600,76114,5
40607,76114,5
40596,76113,5
40607,76112,4
40604,76121,5
40611,76120,5
40603,76116,5
40602,76111,4
40605,76119,5
40604,76109,5
40605,76112,5
40597,76116,5
40613,76123,4
40597,76104,5
40606,76108,6
40608,76111,4
40600,76113,5
40602,76102,4
40606,76105,5
40605,76110,5
40598,76109,5
40596,76104,5
40602,76107,4
40582,76090,5
40580,76077,5
40569,76071,5
40574,76049,4
40568,76050,4
40562,76049,5
40539,76041,5
40562,76031,5
40561,76034,4
40556,76035,5
40548,76035,5
40558,76040,5
40560,76051,5
40572,76055,4
40583,76066,5
40580,76078,5
40585,76093,6
40589,76099,4
40612,76101,4
40597,76098,5
40606,76103,5
40597,76107,5
40620,76112,5
40596,76096,4
40583,76089,5
40568,76057,5
40552,76010,5
40536,75994,4
40524,75980,5
40511,75963,5
40509,75944,5
40506,75941,5
40514,75942,4
40505,75945,5
40512,75935,5
40511,75949,5
40508,75955,5
40501,75962,5
40504,75944,4
40513,75961,5
40513,75955,5
40511,75966,6
40517,75961,3
40514,75969,5
40514,75963,5
40509,75966,5
40520,75975,4
40519,75957,4
40509,75953,5
40510,75958,5
40501,75969,5
40508,75950,4
40512,75957,5
40505,75947,5
40503,75960,5
40501,75943,5
40506,75951,4
40504,75943,5
40504,75950,5
40519,75962,5
40519,75957,5
40519,75965,4
40514,75962,6
40510,75969,4
40518,75972,5
40521,75968,5
40509,75961,4
40526,75957,5
40519,75970,5
40519,75974,5
40520,75980,4
40526,75979,5
40533,76002,5
40541,75997,5
40541,76005,5
40534,76010,4
40543,76018,5
40544,76022,5
40553,76030,5
40549,76027,5
40558,76030,4
40561,76045,5
40551,76051,5
40561,76048,5
40570,76052,5
40562,76054,4
40573,76077,5
40574,76060,6
40573,76075,4
40575,76075,5
40576,76081,4
40581,76079,5
40585,76084,5
40577,76112,5
40593,76112,4
40601,76119,5
40590,76118,5
40598,76122,5
40598,76117,5
40604,76124,4
40593,76123,5
40606,76124,5
40602,76113,5
40604,76116,5
40603,76124,4
40603,76119,5
40599,76119,5
40605,76105,5
40598,76121,5
40603,76130,4
40605,76121,5
40594,76112,5
40589,76115,6
40587,76111,3
40588,76098,4
40582,76090,5
40580,76085,5
40576,76081,5
40579,76072,4
40565,76070,5
40573,76065,5
40570,76067,5
40575,76069,5
40564,76069,4
40566,76067,5
40577,76077,5
40579,76086,5
40588,76096,5
40587,76111,4
40596,76106,5
40604,76107,5
40596,76120,5
40597,76115,5
40594,76110,5
40587,76117,4
40589,76113,5
40596,76109,5
40587,76097,4
40558,76061,5
40548,76026,5
40536,76010,5
40526,75998,5
40520,75984,4
40505,75976,5
40511,75974,5
40516,75967,5
40505,75980,5
40498,75976,4
40514,75976,5
40507,75973,5
40513,75974,5
40501,75983,5
40520,75989,4
40526,75983,5
40526,75989,5
40528,75993,5
40527,75993,5
40526,75999,4
40521,75998,6
40544,76000,4
40532,75999,5
40523,75992,4
40528,75995,5
40552,75997,5
40527,76000,5
40522,75992,5
40519,75987,4
40535,75984,5
40520,75994,5
40529,75996,5
40531,76011,5
40531,76008,4
40535,76008,5
40531,76014,5
40538,76011,5
40533,76002,5
40536,76018,4
40539,76025,5
40547,76029,5
40540,76009,5
40548,76029,4
40551,76024,4
40554,76037,5
40553,76013,6
40564,76038,4
40552,76051,4
40565,76059,5
40566,76072,5
40571,76071,5
40573,76078,5
40575,76090,4
40581,76121,5
40588,76105,5
40591,76117,5
40602,76122,5
40607,76150,4
40613,76131,5
40614,76146,5
40623,76166,5
40627,76179,5
40633,76175,4
40628,76183,5
40635,76188,5
40632,76197,5
40637,76192,5
40645,76197,4
40650,76202,5
40642,76203,5
40643,76203,5
40659,76198,4
40652,76206,5
40640,76206,5
40649,76209,5
40646,76210,5
40652,76199,4
40646,76210,5
40647,76196,5
40640,76205,5
40647,76209,5
40638,76200,4
40648,76201,5
40644,76199,5
40632,76191,5
40642,76183,5
40637,76188,4
40623,76170,5
40634,76174,5
40629,76165,5
40615,76169,4
40616,76156,6
40616,76151,4
40611,76158,5
40623,76169,5
40618,76168,4
40617,76172,5
40628,76168,5
40627,76174,5
40628,76176,5
40630,76180,4
40633,76192,5
40643,76190,5
40639,76186,5
40631,76188,5
40642,76198,4
40637,76192,5
40639,76195,5
40640,76195,5
40639,76190,4
40633,76173,4
40613,76140,5
40603,76114,5
40592,76104,5
40583,76083,4
40576,76088,5
40574,76089,6
40577,76079,4
40567,76083,5
40579,76079,4
40583,76078,5
40571,76080,5
40584,76092,5
40579,76094,5
40585,76105,4
40585,76111,5
40595,76119,5
40601,76128,5
40604,76137,5
40601,76132,4
40612,76138,5
40609,76135,5
40612,76144,5
40604,76134,4
40606,76138,5
40607,76129,5
40600,76131,5
40589,76118,5
40597,76115,4
40595,76116,5
40599,76110,5
40592,76116,5
40595,76117,5
40597,76118,4
40601,76119,5
40602,76131,5
40590,76111,5
40603,76117,5
40598,76126,4
40602,76121,5
40594,76125,5
40596,76117,5
40599,76114,5
40602,76127,4
40578,76127,5
40597,76117,5
40600,76125,5
40602,76139,4
40608,76136,5
40616,76153,5
40625,76174,5
40623,76160,5
40654,76181,5
40628,76190,3
40639,76204,5
40645,76199,5
40675,76223,5
40664,76230,4
40663,76241,5
40680,76249,5
40689,76262,5
40684,76275,5
40694,76288,4
40700,76289,5
40702,76298,5
40701,76300,5
40708,76309,4
40712,76307,4
40710,76293,5
40709,76300,5
40707,76309,5
40709,76316,4
40707,76301,5
40701,76305,6
40710,76314,4
40700,76301,5
40706,76284,4
40702,76310,7
40705,76301,3
40708,76289,5
40693,76289,5
40686,76269,4
40693,76282,5
40685,76275,5
40691,76294,5
40693,76279,5
40692,76277,4
40697,76290,5
40696,76317,5
40694,76304,5
40710,76308,9
40708,76315,0
40713,76335,5
40715,76307,5
40715,76329,5
40716,76316,4
40716,76327,5
40721,76322,5
40715,76319,6
40711,76318,4
40713,76305,4
40714,76306,5
40707,76285,5
40681,76249,5
40655,76221,5
40647,76210,4
40643,76196,5
40640,76179,5
40631,76175,5
40628,76175,4
40636,76181,4
40638,76194,5
40640,76197,5
40645,76205,5
40642,76205,4
40650,76218,5
40652,76224,5
40659,76229,5
40662,76230,5
40667,76228,5
40673,76249,4
40671,76256,5
40670,76260,5
40676,76261,6
40681,76264,3
40683,76268,5
40689,76271,5
40694,76280,5
40680,76275,5
40680,76275,4
40680,76281,5
40691,76279,5
40691,76278,5
40689,76285,4
40696,76299,4
40706,76304,5
40704,76306,5
40710,76310,5
40700,76307,4
40702,76299,5
40699,76308,5
40704,76303,5
40700,76302,5
40696,76297,4
40713,76307,6
40701,76307,4
40709,76308,5
40707,76303,5
40712,76300,4
40701,76324,5
40715,76311,5
40712,76320,5
40721,76321,5
40720,76320,4
40722,76339,5
40729,76333,5
40724,76342,5
40730,76352,4
40731,76367,5
40745,76367,5
40741,76382,5
40747,76395,5
40757,76407,4
40762,76412,5
40777,76420,5
40772,76436,5
40778,76440,5
40788,76443,4
40789,76449,5
40785,76454,6
40799,76456,4
40797,76463,5
40794,76469,4
40801,76466,5
40797,76474,5
40806,76473,5
40811,76468,4
40800,76471,4
40798,76463,5
40802,76462,5
40792,76454,5
40777,76450,4
40785,76444,5
40782,76438,5
40779,76429,5
40764,76425,5
40778,76437,4
40782,76445,5
40783,76438,5
40767,76447,5
40789,76454,5
40794,76455,4
40791,76469,5
40800,76469,5
40789,76463,6
40797,76464,4
40794,76470,4
40824,76473,5
40804,76471,5
40805,76475,5
40795,76457,4
40808,76443,5
40776,76412,5
40757,76379,5
40739,76377,5
40740,76346,4
40724,76335,5
40724,76342,5
40719,76341,5
40729,76337,5
40729,76345,4
40736,76348,5
40731,76351,5
40731,76336,5
40729,76354,5
40738,76361,5
40743,76363,4
40737,76347,5
40748,76379,5
40749,76378,5
40754,76387,4
40755,76388,5
40766,76401,5
40769,76411,5
40772,76421,4
40773,76435,5
40771,76418,5
40779,76429,5
40778,76434,5
40775,76461,4
40776,76433,5
40774,76437,5
40784,76449,5
40791,76454,5
40794,76454,4
40802,76454,5
40799,76460,5
40794,76458,5
40798,76463,5
40799,76455,4
40789,76457,6
40802,76464,4
40800,76466,5
40801,76456,4
40796,76464,4
40796,76450,5
40782,76450,5
40786,76444,5
40782,76439,4
40785,76434,5
40793,76440,5
40786,76433,5
40782,76440,5
40781,76432,4
40782,76433,5
40780,76447,5
40786,76454,5
40782,76452,5
40792,76468,4
40792,76472,5
40812,76480,5
40811,76486,5
40818,76496,5
40816,76495,4
40823,76508,5
40820,76515,6
40825,76522,4
40825,76520,4
40832,76525,5
40840,76525,5
40837,76529,5
40828,76528,5
40838,76535,4
40837,76535,5
40839,76530,5
40836,76528,5
40837,76528,5
40828,76526,4
40830,76521,5
40830,76512,5
40826,76510,5
40827,76505,5
40828,76501,4
40810,76487,5
40807,76487,5
40808,76468,5
40794,76460,5
40784,76440,4
40782,76427,5
40762,76409,5
40763,76410,5
40761,76409,4
40759,76396,5
40754,76398,5
40766,76396,5
40761,76399,5
40753,76393,4
40762,76392,5
40764,76394,5
40762,76410,5
40767,76406,5
40761,76400,4
40764,76413,5
40763,76398,5
40776,76409,5
40761,76419,5
40767,76420,4
40759,76402,5
40749,76385,5
40731,76346,5
40712,76301,4
40680,76273,5
40673,76255,4
40663,76231,5
40660,76232,5
40640,76209,4
40647,76220,5
40646,76214,5
40648,76207,5
40645,76202,5
40636,76205,4
40639,76197,5
40642,76208,5
40638,76200,5
40644,76208,5
40648,76211,4
40625,76211,5
40651,76223,5
40649,76221,5
40644,76213,5
40637,76218,4
40650,76220,5
40655,76224,5
40657,76221,5
40648,76221,4
40657,76224,5
40647,76215,6
40653,76220,4
40672,76223,5
40651,76224,4
40653,76220,5
40653,76219,5
40687,76239,5
40680,76254,5
40673,76255,4
40670,76251,5
40688,76249,5
40676,76261,5
40680,76259,5
40675,76258,4
40676,76254,5
40683,76251,5
40678,76257,5
40666,76257,4
40669,76242,4
40664,76254,5
40660,76253,5
40661,76249,5
40668,76232,4
40660,76234,5
40656,76241,5
40663,76238,5
40661,76219,5
40657,76235,4
40663,76237,5
40654,76250,5
40663,76246,5
40668,76244,5
40662,76249,4
40661,76253,5
40670,76257,5
40665,76249,5
40674,76246,5
40672,76253,4
40670,76276,5
40677,76258,5
40670,76256,5
40678,76260,4
40680,76265,5
40677,76255,5
40676,76269,5
40679,76266,5
40680,76267,5
40671,76267,4
40675,76257,5
40679,76257,5
40666,76263,5
40673,76253,4
40672,76261,5
40677,76257,5
40667,76247,5
40667,76259,5
40672,76256,4
40671,76247,5
40669,76252,5
40670,76242,5
40671,76257,5
40665,76246,4
40663,76243,5
40666,76235,5
40663,76237,5
40666,76241,4
40660,76236,5
40660,76242,6
40658,76235,4
40651,76231,5
40657,76242,4
40662,76233,7
40653,76229,3
40654,76235,5
40648,76224,5
40654,76225,4
40652,76209,5
40646,76208,5
40644,76210,5
40636,76198,5
40635,76179,4
40623,76163,5
40603,76148,5
40597,76131,5
40585,76107,4
40581,76089,4
40575,76077,5
40562,76057,5
40549,76057,5
40549,76045,4
40554,76067,5
40560,76067,5
40564,76071,6
40567,76086,4
40574,76103,4
40578,76116,5
40602,76136,5
40602,76149,5
40619,76151,5
40618,76159,4
40616,76161,5
40619,76177,5
40621,76174,5
40623,76174,5
40617,76162,4
40596,76121,5
40564,76075,5
40549,76049,5
40542,76031,4
40525,76014,5
40520,75998,5
40518,75996,5
40505,75981,5
40511,75979,5
40503,75977,4
40508,75974,5
40504,75968,5
40510,75971,6
40510,75971,3
40507,75967,5
40512,75980,5
40512,75971,5
40510,75976,5
40498,75971,4
40503,75972,5
40515,75980,5
40514,75977,5
40507,75985,4
40510,75979,4
40519,75983,5
40518,75991,5
40503,75989,5
40516,75997,4
40519,75999,5
40523,75995,5
40505,75996,5
40516,75996,5
40521,76003,4
40539,76013,6
40522,76021,4
40532,76029,5
40552,76035,5
40546,76036,6
40550,76030,3
40544,76041,5
40553,76039,5
40542,76048,5
40571,76046,4
40551,76038,5
40552,76049,5
40553,76041,5
40560,76054,4
40556,76056,5
40555,76062,5
40558,76051,5
40555,76063,5
40556,76063,4
40554,76063,5
40559,76062,5
40554,76058,5
40571,76065,5
40566,76073,4
40565,76080,5
40570,76069,6
40573,76086,4
40570,76094,5
40583,76099,4
40584,76084,5
40575,76102,5
40605,76121,5
40589,76119,4
40594,76116,4
40601,76131,8
40599,76132,2
40601,76133,5
40622,76151,4
40604,76136,5
40604,76152,5
40607,76138,5
40608,76173,5
40614,76140,4
40604,76142,5
40607,76145,5
40601,76156,5
40604,76146,5
40605,76144,4
40606,76141,5
40603,76144,5
40606,76136,6
40601,76131,4
40606,76138,4
40596,76138,5
40603,76135,5
40595,76129,5
40609,76135,4
40599,76140,5
40608,76142,5
40599,76142,5
40598,76136,5
40603,76130,4
40604,76130,5
40599,76123,5
40605,76127,5
40594,76116,5
40584,76111,4
40587,76086,5
40581,76092,5
40571,76087,5
40578,76077,5
40571,76083,5
40566,76076,4
40565,76071,5
40569,76085,5
40562,76088,4
40580,76093,4
40573,76106,5
40585,76122,5
40591,76131,5
40598,76135,4
40610,76142,5
40599,76129,5
40602,76138,5
40601,76138,5
40602,76131,4
40603,76126,5
40592,76127,5
40586,76107,5
40572,76074,5
40540,76029,4
40529,76018,5
40528,75992,5
40513,75983,5
40514,75969,5
40499,75971,4
40498,75964,6
40499,75957,4
40500,75970,5
40513,75968,4
40510,75969,5
40506,75974,5
40507,75981,5
40509,75974,5
40510,75981,4
40516,75985,5
40518,75992,5
40515,75988,5
40513,75992,5
40519,75998,4
40517,75994,5
40522,75994,5
40530,75988,5
40530,75993,5
40524,75992,4
40517,75996,5
40522,75994,5
40516,75997,5
40522,75992,4
40524,76004,4
40518,75994,5
40530,76000,6
40534,76019,4
40532,76031,4
40538,76018,5
40534,76019,5
40538,76026,5
40536,76025,5
40540,76032,4
40537,76035,5
40540,76043,5
40538,76036,5
40547,76035,5
40544,76052,4
40531,76045,5
40550,76044,5
40550,76047,5
40555,76060,5
40541,76060,4
40561,76069,5
40566,76064,5
40571,76074,5
40561,76074,5
40563,76087,4
40571,76083,5
40568,76081,5
40579,76081,5
40574,76097,4
40583,76102,5
40588,76105,5
40617,76112,5
40586,76114,5
40589,76114,4
40596,76121,5
40603,76121,5
40589,76124,5
40600,76127,5
40599,76129,4
40610,76125,5
40597,76133,5
40601,76140,5
40599,76148,4
40610,76138,4
40611,76146,5
40604,76142,5
40607,76142,5
40608,76130,4
40596,76128,6
40601,76134,4
40598,76136,5
40605,76121,5
40604,76133,4
40600,76143,5
40608,76136,5
40612,76141,5
40602,76143,5
40614,76146,4
40611,76149,5
40605,76159,5
40596,76146,5
40605,76135,5
40604,76137,4
40600,76166,5
40593,76129,5
40601,76138,5
40598,76123,4
40596,76137,4
40588,76113,5
40589,76112,5
40585,76107,5
40575,76105,4
40583,76087,5
40579,76090,6
40575,76085,4
40575,76089,5
40575,76087,4
40584,76096,5
40587,76110,5
40588,76112,5
40590,76124,5
40593,76122,4
40600,76123,5
40593,76128,5
40589,76125,5
40592,76115,5
40594,76118,4
40596,76122,5
40582,76117,5
40577,76094,5
40563,76071,4
40536,76020,5
40523,75998,5
40513,75988,5
40512,75975,5
40497,75959,4
40502,75962,5
40505,75970,5
40509,75968,5
40508,75977,5
40522,75986,4
40517,75988,5
40523,75995,5
40528,76009,5
40530,76004,5
40527,76017,4
40529,76020,5
40541,76028,5
40544,76044,5
40541,76032,4
40550,76038,4
40549,76047,5
40548,76049,5
40550,76048,5
40552,76049,4
40542,76050,5
40552,76049,5
40548,76047,5
40548,76053,5
40546,76052,5
40551,76049,4
40549,76053,5
40549,76059,5
40557,76061,5
40574,76071,4
40567,76066,5
40565,76076,5
40557,76069,5
40566,76067,5
40567,76066,4
40563,76068,5
40566,76079,5
40568,76074,5
40562,76078,4
40562,76063,5
40569,76081,5
40570,76082,5
40576,76082,5
40577,76094,4
40577,76100,5
40587,76109,5
40578,76110,5
40590,76112,5
40592,76119,4
40605,76128,6
40596,76115,4
40593,76129,5
40605,76126,5
40597,76131,4
40605,76149,5
40614,76143,5
40614,76154,5
40613,76151,4
40613,76157,4
40615,76164,5
40623,76161,5
40611,76162,5
40618,76163,4
40615,76161,5
40619,76159,5
40605,76164,5
40617,76164,5
40626,76166,4
40617,76163,5
40605,76162,5
40627,76168,6
40626,76168,4
40629,76176,4
40623,76175,5
40634,76181,5
40625,76181,5
40616,76172,5
40646,76174,4
40620,76167,5
40611,76147,5
40614,76156,5
40633,76141,4
40602,76143,4
40604,76142,5
40612,76147,5
40614,76150,5
40613,76149,4
40611,76156,5
40617,76155,5
40618,76150,5
40614,76153,5
40615,76159,5
40617,76163,4
40616,76163,5
40625,76171,5
40625,76164,6
40618,76164,3
40627,76152,5
40623,76165,5
40622,76164,5
40617,76162,5
40614,76132,4
40588,76129,5
40577,76091,5
40571,76074,5
40558,76075,4
40557,76055,5
40552,76052,5
40548,76051,5
40551,76072,5
40556,76059,4
40557,76062,5
40565,76063,5
40564,76096,5
40558,76079,5
40571,76079,4
40571,76075,6
40569,76097,4
40570,76088,5
40585,76094,5
40580,76100,6
40582,76113,3
40587,76106,5
40591,76112,5
40599,76109,5
40595,76116,4
40591,76116,5
40594,76115,5
40586,76116,5
40606,76118,4
40596,76106,5
40598,76117,5
40596,76116,5
40601,76127,5
40604,76144,4
40605,76146,5
40611,76142,5
40613,76152,5
40608,76145,5
40615,76149,4
40608,76147,5
40619,76156,6
40617,76162,4
40617,76164,5
40619,76165,4
40624,76170,5
40633,76178,5
40629,76181,5
40627,76175,4
40623,76180,4
40627,76186,5
40630,76196,5
40639,76188,5
40639,76193,4
40643,76207,5
40649,76216,5
40650,76215,5
40655,76216,5
40665,76229,4
40663,76233,5
40668,76243,5
40674,76241,5
40663,76254,5
40674,76259,4
40686,76278,5
40684,76277,5
40686,76282,6
40691,76294,4
40689,76287,4
40694,76281,5
40688,76288,5
40701,76291,5
40690,76289,4
40693,76284,5
40684,76273,5
40678,76274,5
40679,76256,5
40679,76257,4
40676,76255,5
40674,76257,5
40678,76264,5
40670,76260,5
40679,76262,4
40674,76264,5
40690,76279,5
40689,76291,5
40693,76299,5
40702,76302,5
40704,76319,4
40702,76316,5
40710,76320,5
40720,76327,6
40713,76340,3
40722,76339,5
40725,76345,5
40722,76332,5
40710,76326,4
40699,76298,5
40682,76266,5
40671,76243,5
40658,76228,5
40648,76211,4
40636,76193,5
40637,76190,5
40641,76187,5
40637,76191,5
40630,76197,4
40637,76198,5
40646,76200,5
40648,76198,5
40626,76204,5
40646,76212,4
40638,76212,6
40647,76207,4
40635,76221,5
40658,76216,4
40654,76220,4
40657,76229,5
40671,76235,5
40666,76237,5
40659,76235,4
40675,76228,5
40690,76241,5
40661,76246,5
40672,76242,5
40674,76252,4
40694,76253,5
40673,76253,5
40680,76274,5
40683,76272,5
40704,76296,4
40699,76311,5
40706,76308,5
40707,76313,5
40708,76305,5
40704,76315,4
40703,76314,5
40711,76306,11
40712,76305,3
40716,76319,5
40720,76318,5
40711,76313,5
40703,76291,5
40703,76313,4
40711,76306,5
40708,76325,5
40720,76311,5
40715,76327,5
40712,76331,4
40710,76332,5
40719,76349,5
40728,76344,5
40722,76354,5
40732,76367,4
40743,76395,5
40743,76383,5
40747,76385,5
40757,76401,5
40763,76440,4
40766,76417,5
40772,76430,5
40780,76440,6
40778,76442,3
40775,76434,5
40776,76443,5
40783,76435,5
40778,76440,5
40776,76424,4
40772,76417,5
40759,76410,5
40760,76394,5
40748,76394,5
40755,76392,4
40753,76399,5
40745,76387,5
40748,76396,5
40752,76397,5
40754,76395,4
40756,76404,5
40760,76399,5
40760,76405,5
40768,76399,4
40759,76407,5
40767,76403,4
40770,76413,5
40769,76409,5
40770,76417,4
40765,76405,5
40750,76377,5
40733,76349,5
40723,76332,5
40712,76316,4
40713,76306,5
40700,76311,5
40705,76311,5
40706,76301,5
40713,76312,4
40707,76307,5
40704,76305,5
40699,76318,5
40713,76311,5
40708,76308,4
40711,76325,5
40713,76318,5
40720,76323,5
40716,76333,4
40715,76339,4
40716,76341,6
40720,76337,4
40719,76342,5
40721,76338,4
40735,76336,5
40731,76347,5
40724,76351,5
40725,76349,5
40729,76353,4
40723,76357,5
40736,76358,5
40735,76358,5
40732,76361,5
40751,76378,4
40752,76384,5
40758,76405,5
40763,76403,5
40757,76405,5
40768,76407,4
40769,76415,5
40766,76412,5
40767,76416,5
40765,76411,4
40767,76402,5
40757,76403,5
40764,76402,5
40767,76405,5
40765,76407,4
40763,76400,5
40758,76395,5
40755,76392,5
40759,76384,5
40751,76389,4
40756,76391,5
40758,76395,5
40753,76400,5
40753,76398,5
40762,76397,4
40765,76397,5
40766,76402,5
40768,76418,5
40773,76418,5
40768,76420,4
40776,76424,5
40760,76428,5
40786,76422,5
40778,76421,5
40777,76431,4
40763,76429,5
40775,76433,5
40780,76428,5
40775,76423,4
40765,76430,5
40771,76414,5
40765,76407,5
40759,76395,5
40766,76389,4
40755,76384,5
40751,76378,5
40750,76386,5
40766,76386,5
40745,76378,4
40746,76372,5
40743,76376,5
40756,76368,5
40737,76371,4
40743,76367,4
40735,76362,5
40746,76366,5
40730,76363,5
40737,76370,4
40735,76356,6
40722,76319,4
40696,76285,5
40669,76256,5
40663,76238,4
40649,76192,5
40641,76189,5
40633,76181,5
40626,76175,5
40637,76171,4
40636,76176,5
40631,76177,5
40622,76161,5
40619,76147,5
40619,76146,4
40620,76136,5
40613,76140,5
40609,76149,5
40606,76131,4
40614,76127,5
40614,76131,5
40607,76144,5
40615,76122,4
40616,76108,4
40611,76115,5
40607,76118,5
40601,76108,5
40597,76122,5
40603,76111,4
40596,76106,5
40603,76112,5
40598,76095,5
40603,76107,5
40600,76107,4
40611,76121,5
40611,76132,5
40606,76122,5
40605,76125,5
40612,76128,4
40622,76133,5
40619,76138,5
40618,76137,5
40622,76140,5
40616,76146,4
40621,76149,5
40627,76140,5
40624,76156,6
40625,76152,3
40632,76151,5
40628,76156,5
40618,76149,5
40627,76152,5
40632,76149,4
40625,76151,5
40625,76146,5
40634,76157,5
40623,76150,5
40622,76144,4
40630,76151,5
40629,76149,5
40632,76149,5
40632,76158,4
40626,76156,4
40634,76150,5
40620,76152,5
40623,76155,5
40639,76154,4
40630,76150,6
40622,76150,4
40626,76146,5
40627,76144,5
40624,76149,6
40633,76158,3
40632,76143,5
40635,76154,5
40622,76142,5
40631,76144,4
40622,76146,5
40635,76160,5
40638,76157,5
40626,76158,5
40624,76157,4
40624,76152,5
40635,76160,5
40632,76160,5
40624,76153,4
40630,76149,4
40626,76141,5
40624,76155,5
40619,76145,5
40627,76137,4
40628,76146,5
40618,76139,6
40610,76141,4
40620,76130,5
40618,76129,4
40612,76137,5
40613,76136,5
40609,76140,5
40614,76124,5
40608,76119,4
40615,76121,5
40608,76124,5
40612,76123,5
40597,76117,5
40610,76112,4
40611,76117,5
40606,76121,5
40603,76115,5
40605,76118,4
40610,76117,5
40603,76120,5
40596,76106,5
40601,76109,5
40582,76093,4
40579,76074,5
40572,76060,5
40557,76035,6
40534,76005,4
40530,75987,4
40523,75969,5
40521,75961,5
40491,75956,5
40510,75958,5
40517,75964,4
40523,75979,5
40521,75990,5
40536,76003,5
40536,76019,5
40556,76039,4
40583,76048,5
40578,76057,5
40569,76076,5
40581,76079,4
40612,76084,5
40585,76094,5
40586,76096,5
40586,76090,5
40600,76062,5
40556,76007,4
40528,75971,5
40515,75957,5
40512,75939,6
40503,75920,3
40492,75907,5
40491,75898,5
40485,75896,5
40483,75902,5
40486,75904,4
40482,75900,5
40479,75877,5
40479,75894,5
40476,75894,5
40476,75898,4
40476,75877,5
40478,75907,5
40486,75909,5
40489,75908,4
40484,75918,5
40486,75909,5
40483,75914,5
40492,75915,5
40492,75926,4
40481,75906,6
40490,75913,4
40482,75903,5
40487,75932,5
40491,75910,4
40486,75905,5
40489,75912,5
40483,75925,5
40486,75906,5
40487,75918,4
40486,75921,5
40489,75929,5
40505,75935,5
40504,75944,5
40510,75937,4
40510,75944,5
40507,75943,5
40500,75946,5
40506,75949,4
40507,75945,5
40511,75952,5
40513,75956,5
40506,75955,5
40511,75957,4
40513,75965,5
40520,75963,6
40519,75973,4
40521,75972,5
40530,75977,4
40526,75972,5
40526,75978,5
40528,75978,5
40528,75979,5
40533,75986,4
40533,75984,5
40532,75991,5
40533,75995,5
40533,75994,5
40533,76004,4
40542,75999,5
40547,76013,5
40555,76013,5
40550,76015,4
40555,76028,5
40555,76025,5
40558,76030,5
40563,76035,5
40557,76042,4
40566,76030,5
40563,76041,5
40572,76046,6
40563,76047,4
40564,76043,4
40573,76040,5
40568,76043,5
40563,76052,5
40563,76050,5
40570,76053,4
40562,76049,5
40566,76042,5
40563,76042,5
40559,76033,5
40566,76026,4
40560,76022,5
40549,76011,5
40540,76001,5
40549,76007,4
40535,75991,5
40548,75993,5
40543,75997,5
40545,76001,5
40551,76009,5
40555,76009,4
40555,76021,5
40556,76018,5
40556,76020,5
40564,76017,4
40557,76028,5
40559,76027,5
40555,76026,5
40565,76024,5
40555,76033,4
40559,76032,5
40564,76023,5
40560,76018,5
40549,75995,4
40519,75955,4
40498,75925,5
40498,75908,5
40487,75888,5
40473,75884,4
40472,75868,5
40473,75872,5
40478,75878,5
40472,75886,5
40470,75889,4
40472,75900,6
40486,75895,4
40476,75895,5
40482,75892,5
40469,75902,4
40482,75902,5
40485,75897,5
40489,75905,5
40462,75903,5
40478,75897,4
40481,75899,5
40483,75903,5
40488,75907,5
40494,75909,4
40491,75909,4
40491,75915,5
40507,75909,5
40492,75907,9
40496,75911,0
40495,75899,5
40517,75913,5
40486,75901,5
40503,75924,5
40499,75936,4
40516,75935,5
40511,75932,6
40513,75937,4
40509,75931,5
40506,75936,4
40502,75936,5
40518,75951,5
40507,75946,5
40519,75938,5
40518,75950,4
40522,75960,5
40518,75960,5
40532,75953,5
40533,75972,4
40540,75978,4
40542,75981,5
40539,75968,5
40541,75989,5
40545,76000,4
40542,76008,5
40552,75997,5
40555,76016,5
40548,76010,5
40562,76025,4
40556,76049,5
40554,76034,5
40570,76038,5
40565,76053,5
40577,76074,4
40569,76053,5
40569,76058,5
40583,76064,5
40577,76075,5
40584,76066,4
40585,76060,5
40587,76056,5
40578,76070,5
40581,76069,4
40584,76064,4
40588,76062,5
40595,76062,5
40575,76071,5
40590,76065,4
40574,76066,5
40578,76061,5
40582,76070,5
40588,76072,5
40584,76074,5
40589,76077,4
40589,76071,5
40587,76078,5
40573,76075,5
40588,76070,4
40588,76066,5
40583,76056,5
40572,76062,5
40575,76043,5
40575,76039,4
40557,76031,5
40556,76016,5
40546,76019,5
40559,76010,4
40549,76005,4
40544,76020,5
40549,76011,5
40552,76017,5
40552,76010,4
40555,76028,5
40563,76036,5
40567,76039,5
40574,76046,5
40573,76037,4
40575,76054,6
40575,76048,4
40566,76050,5
40576,76049,5
40577,76049,4
40568,76044,5
40572,76049,5
40575,76040,5
40548,76010,5
40527,75978,4
40514,75931,5
40499,75924,5
40494,75926,5
40498,75909,4
40486,75907,4
40495,75898,5
40494,75911,5
40491,75912,5
40497,75907,4
40496,75913,5
40504,75926,5
40498,75933,6
40501,75918,4
40513,75936,4
40509,75946,5
40513,75946,5
40518,75952,5
40517,75951,5
40518,75955,4
40522,75964,5
40528,75957,5
40523,75971,5
40534,75980,5
40532,75971,4
40531,75977,5
40530,75979,5
40527,75973,5
40529,75971,4
40534,75977,4
40535,75974,5
40527,75989,5
40544,75995,5
40547,76001,5
40536,75990,4
40538,75995,5
40535,76000,5
40538,75999,6
40542,75990,3
40543,75998,5
40536,75994,5
40543,76000,5
40545,76008,5
40551,76015,4
40526,76011,5
40554,76018,5
40558,76024,5
40563,76023,5
40536,76037,4
40566,76034,5
40566,76036,5
40582,76051,5
40578,76065,4
40582,76069,5
40587,76068,5
40585,76088,5
40610,76090,5
40595,76104,4
40605,76111,6
40612,76119,4
40631,76122,5
40619,76129,5
40628,76124,6
40631,76139,3
40638,76138,5
40633,76151,5
40635,76155,5
40642,76166,4
40647,76162,5
40635,76164,5
40638,76169,5
40642,76171,5
40638,76165,4
40646,76169,5
40645,76176,5
40647,76172,5
40645,76163,4
40653,76181,5
40653,76174,5
40642,76179,5
40648,76173,5
40653,76178,4
40651,76183,5
40652,76186,6
40647,76194,4
40657,76202,5
40657,76196,4
40664,76211,5
40657,76219,5
40658,76194,5
40655,76204,5
40646,76186,4
40647,76201,5
40645,76168,5
40642,76170,5
40634,76165,5
40636,76152,4
40631,76140,5
40624,76143,5
40639,76139,5
40638,76154,4
40638,76142,5
40627,76138,5
40631,76149,5
40635,76142,5
40629,76155,4
40636,76158,5
40647,76166,5
40649,76175,6
40643,76188,4
40654,76177,4
40652,76181,5
40656,76190,5
40651,76190,5
40643,76178,5
40654,76184,4
40651,76174,5
40627,76159,5
40626,76131,5
40610,76099,5
40600,76094,4
40591,76094,5
40599,76080,5
40589,76085,5
40592,76089,4
40596,76085,5
40601,76088,5
40592,76092,5
40603,76096,5
40599,76109,5
40605,76112,4
40605,76102,5
40614,76119,5
40604,76117,6
40623,76124,3
40622,76125,5
40620,76120,5
40621,76127,5
40622,76125,5
40624,76130,4
40619,76131,5
40623,76121,5
40622,76129,5
40623,76119,5
40614,76122,4
40621,76120,5
40621,76121,5
40623,76119,5
40618,76125,4
40619,76130,5
40624,76144,5
40638,76171,5
40636,76149,5
40632,76150,4
40632,76155,6
40636,76153,4
40627,76154,5
40635,76154,5
40634,76155,4
40638,76159,5
40645,76145,5
40645,76160,5
40651,76158,5
40636,76158,4
40644,76180,5
40649,76164,5
40639,76171,5
40648,76171,5
40650,76177,4
40648,76184,5
40658,76181,5
40658,76183,5
40666,76188,4
40664,76206,5
40676,76207,5
40671,76205,5
40666,76214,5
40679,76230,4
40684,76232,5
40685,76235,6
40688,76253,4
40705,76257,5
40702,76268,4
40705,76275,5
40713,76280,5
40709,76292,5
40710,76290,5
40717,76294,4
40725,76298,5
40708,76301,5
40731,76302,5
40734,76306,4
40725,76304,4
40718,76308,5
40721,76299,5
40718,76309,5
40722,76298,4
40710,76296,5
40721,76311,5
40729,76306,5
40731,76310,5
40737,76303,4
40723,76315,5
40722,76315,5
40727,76316,6
40755,76312,4
40731,76313,4
40732,76328,5
40736,76325,5
40742,76322,5
40731,76321,5
40731,76318,4
40731,76320,5
40739,76319,5
40734,76314,5
40730,76323,4
40733,76321,4
40741,76309,5
40733,76320,5
40726,76318,5
40728,76317,4
40728,76285,5
40722,76292,5
40723,76293,5
40718,76290,5
40713,76264,5
40703,76279,4
40710,76285,5
40709,76272,5
40708,76253,5
40703,76255,4
40694,76254,5
40698,76266,5
40704,76276,5
40715,76273,5
40720,76281,4
40728,76298,5
40728,76335,5
40730,76314,5
40743,76322,4
40746,76330,4
40745,76347,5
40743,76325,5
40746,76329,5
40733,76335,4
40739,76333,5
40738,76323,5
40718,76282,5
40690,76246,5
40692,76228,4
40672,76221,6
40667,76217,4
40658,76208,5
40671,76197,5
40665,76206,4
40665,76215,5
40676,76218,5
40679,76226,5
40680,76226,5
40688,76234,4
40687,76239,5
40687,76236,5
40694,76243,5
40693,76252,4
40697,76250,4
40697,76266,5
40697,76264,5
40701,76270,5
40700,76265,4
40711,76269,5
40707,76280,5
40710,76278,5
40717,76273,5
40714,76273,4
40710,76268,5
40707,76275,6
40709,76276,4
40706,76277,5
40710,76272,4
40709,76294,5
40719,76285,5
40720,76306,5
40734,76302,5
40730,76309,4
40731,76316,5
40734,76318,5
40728,76313,5
40732,76313,4
40723,76307,4
40729,76312,5
40732,76313,5
40730,76306,5
40728,76312,4
40733,76310,5
40729,76316,5
40731,76308,5
40722,76308,5
40736,76312,4
40736,76322,5
40729,76312,5
40740,76321,5
40738,76322,5
40744,76333,4
40745,76337,5
40755,76353,5
40753,76357,5
40758,76358,5
40766,76379,4
40767,76377,5
40771,76380,5
40765,76390,5
40768,76388,4
40784,76387,4
40776,76388,5
40770,76384,5
40767,76381,5
40765,76377,4
40770,76367,5
40767,76373,5
40763,76373,5
40761,76370,5
40767,76370,5
40763,76353,4
40748,76353,5
40754,76350,5
40753,76340,5
40741,76338,4
40739,76330,5
40733,76329,5
40736,76325,5
40734,76316,7
40731,76308,2
40728,76306,5
40733,76298,5
40709,76298,5
40719,76293,4
40719,76299,4
40720,76295,5
40705,76292,5
40722,76290,5
40718,76291,4
40721,76285,5
40694,76288,5
40707,76278,5
40701,76265,5
40701,76261,4
40688,76244,6
40676,76209,3
40670,76194,5
40657,76179,5
40670,76178,4
40645,76171,5
40638,76164,5
40628,76164,5
40656,76165,5
40647,76178,4
40642,76171,5
40651,76181,5
40657,76181,5
40654,76194,4
40658,76186,4
40661,76188,5
40658,76189,5
40661,76189,5
40656,76186,4
40657,76192,5
40652,76172,5
40646,76177,6
40633,76164,4
40626,76130,4
40587,76053,5
40571,76033,5
40559,76015,5
40545,75986,5
40530,75955,4
40526,75975,5
40524,75972,5
40524,75967,5
40524,75976,5
40528,75959,4
40537,75981,5
40532,75973,5
40533,75998,5
40528,75969,4
40533,75968,4
40530,75971,5
40536,75992,5
40530,75966,5
40523,75970,5
40535,75970,4
40523,75974,5
40530,75966,5
40527,75965,6
40522,75957,3
40526,75963,5
40518,75951,5
40527,75951,5
40514,75952,5
40506,75936,4
40511,75946,5
40516,75947,5
40525,75954,5
40519,75953,5
40532,75968,4
40523,75974,5
40532,75978,5
40532,75983,5
40532,75988,4
40538,75986,5
40542,75995,5
40538,75996,5
40539,76008,5
40540,76003,4
40542,76010,6
40550,76010,4
40543,76012,5
40552,76015,5
40551,76002,6
40549,76005,3
40548,76012,5
40548,76012,5
40553,76009,5
40552,76019,4
40544,76009,5
40557,76015,5
40547,76022,5
40560,76019,5
40553,76026,4
40558,76031,5
40570,76033,5
40562,76033,5
40565,76047,4
40573,76047,5
40570,76047,5
40575,76042,5
40582,76061,5
40571,76054,4
40579,76056,5
40570,76059,6
40579,76063,4
40580,76050,5
40578,76051,4
40570,76057,5
40579,76045,5
40577,76053,5
40580,76061,5
40578,76053,4
40577,76056,5
40582,76058,5
40569,76051,5
40574,76056,5
40569,76044,4
40575,76051,5
40577,76043,5
40578,76043,5
40569,76044,4
40577,76047,5
40572,76047,5
40570,76035,5
40566,76040,5
40557,76031,4
40555,76018,5
40562,76027,5
40561,76004,6
40547,76004,4
40545,76003,4
40537,75988,5
40535,75981,5
40533,75977,5
40538,75977,5
40532,75978,4
40535,75986,5
40545,76004,5
40542,76001,5
40552,76011,4
40557,76025,4
40554,76032,5
40565,76031,5
40569,76035,5
40549,76036,4
40566,76035,5
40563,76028,5
40557,76026,5
40540,76022,5
40552,76009,5
40546,75977,4
40510,75937,5
40486,75911,5
40483,75900,6
40479,75884,3
40470,75876,5
40476,75873,5
40466,75870,5
40475,75869,5
40461,75866,4
40491,75875,5
40469,75885,5
40482,75882,5
40482,75886,4
40506,75888,4
40489,75900,5
40486,75884,5
40488,75902,5
40500,75899,4
40485,75904,5
40495,75896,5
40488,75897,5
40491,75891,5
40491,75905,4
40487,75900,6
40478,75896,4
40491,75886,5
40488,75898,5
40494,75893,4
40490,75896,5
40489,75888,5
40487,75914,5
40497,75914,5
40505,75927,4
40502,75912,5
40511,75937,5
40511,75944,5
40508,75945,4
40518,75958,4
40515,75954,5
40518,75959,5
40523,75960,5
40519,75984,4
40520,75959,5
40516,75954,5
40521,75959,5
40524,75976,5
40525,75956,4
40519,75959,5
40510,75964,6
40520,75958,4
40524,75962,5
40515,75951,4
40517,75963,5
40517,75966,5
40514,75962,5
40530,75966,5
40527,75964,4
40520,75971,5
40522,75966,5
40523,75971,5
40534,75975,4
40528,75985,4
40526,75969,5
40542,75984,5
40527,75980,5
40537,75984,4
40538,75989,5
40532,75976,5
40534,75985,5
40531,75986,5
40539,75995,4
40534,75989,5
40533,75988,5
40543,75988,6
40538,75995,4
40536,75988,4
40543,75997,5
40545,76001,5
40544,75996,5
40532,75998,5
40539,75992,4
40542,75990,5
40544,75975,5
40535,75983,5
40527,75976,4
40517,75955,4
40520,75950,5
40512,75946,5
40511,75936,5
40514,75936,4
40511,75939,5
40494,75930,5
40496,75917,5
40491,75922,5
40497,75909,5
40495,75916,4
40500,75917,5
40507,75921,5
40504,75923,5
40505,75941,4
40507,75934,5
40506,75936,5
40505,75936,5
40518,75948,5
40501,75949,4
40511,75944,5
40512,75946,5
40498,75932,5
40500,75909,4
40478,75884,4
40460,75855,5
40440,75821,5
40446,75812,5
40431,75797,4
40424,75796,5
40422,75791,5
40419,75799,5
40423,75800,5
40419,75786,4
40422,75800,6
40430,75788,4
40418,75790,5
40426,75799,5
40422,75794,4
40419,75788,5
40429,75799,5
40427,75800,5
40430,75805,5
40430,75797,4
40425,75805,5
40426,75802,5
40430,75800,5
40420,75801,4
40426,75793,4
40414,75798,5
40428,75791,5
40413,75798,5
40423,75788,4
40416,75788,5
40419,75799,5
40425,75797,5
40427,75803,5
40418,75822,4
40434,75815,5
40431,75806,6
40430,75812,4
40415,75809,5
40424,75812,4
40422,75807,5
40432,75804,5
40434,75807,5
40423,75812,5
40430,75818,4
40431,75823,5
40441,75807,5
40430,75822,5
40432,75821,4
40430,75818,4
40452,75826,5
40439,75820,5
40433,75824,5
40439,75820,4
40442,75820,5
40432,75824,5
40444,75825,5
40440,75834,5
40441,75832,4
40437,75835,5
40442,75830,5
40447,75840,5
40441,75835,5
40447,75853,4
40452,75844,5
40452,75854,5
40458,75835,5
40451,75859,5
40463,75844,4
40454,75850,5
40459,75842,5
40455,75856,5
40456,75858,4
40454,75858,4
40460,75873,5
40461,75855,5
40455,75853,5
40455,75847,4
40451,75850,5
40442,75818,5
40436,75826,5
40429,75812,5
40439,75838,5
40429,75798,4
40435,75806,5
40424,75807,5
40429,75821,5
40436,75818,4
40430,75818,5
40451,75829,5
40449,75836,5
40450,75833,5
40450,75848,4
40456,75846,5
40460,75852,5
40454,75851,5
40448,75859,4
40453,75864,4
40464,75856,5
40459,75859,5
40460,75857,5
40449,75856,4
40443,75828,5
40431,75803,6
40402,75762,4
40390,75744,5
40388,75729,4
40374,75710,7
40364,75701,3
40368,75699,5
40368,75697,5
40367,75701,4
40374,75709,5
40372,75708,5
40377,75712,5
40373,75710,5
40384,75726,4
40379,75717,5
40381,75727,5
40377,75735,5
40391,75732,4
40386,75746,5
40391,75747,5
40395,75751,5
40399,75750,5
40390,75752,4
40405,75748,5
40391,75753,5
40397,75756,6
40400,75765,4
40398,75759,4
40401,75763,5
40407,75778,5
40406,75774,5
40410,75784,5
40418,75787,4
40424,75783,5
40420,75786,5
40422,75778,5
40422,75768,5
40409,75773,4
40409,75773,5
40411,75774,5
40416,75772,5
40410,75770,4
40416,75769,5
40415,75773,5
40415,75779,5
40417,75777,5
40420,75782,5
40421,75786,4
40421,75789,5
40428,75789,5
40429,75794,11
40429,75794,3
40439,75813,5
40437,75813,5
40433,75822,5
40440,75827,4
40435,75827,5
40449,75838,5
40456,75839,5
40462,75849,5
40459,75862,4
40467,75867,5
40466,75870,5
40462,75875,5
40472,75871,4
40466,75871,5
40476,75875,5
40474,75871,5
40474,75869,5
40460,75874,4
40465,75871,6
40466,75870,4
40467,75865,5
40453,75867,5
40461,75861,6
40462,75848,3
40457,75837,5
40434,75821,5
40436,75818,5
40433,75801,4
40425,75795,5
40432,75794,5
40419,75794,5
40414,75786,4
40434,75790,4
40444,75804,5
40421,75801,5
40432,75809,5
40432,75806,4
40460,75803,5
40438,75819,5
40436,75821,5
40435,75824,5
40450,75823,4
40441,75821,5
40449,75838,6
40443,75831,4
40451,75830,5
40450,75826,4
40442,75829,5
40428,75802,5
40409,75757,5
40391,75730,5
40390,75724,4
40383,75712,5
40370,75686,5
40369,75693,5
40356,75685,4
40367,75688,4
40361,75668,5
40369,75690,5
40370,75684,5
40362,75686,4
40365,75697,5
40372,75694,5
40370,75703,5
40385,75713,5
40378,75733,4
40379,75716,5
40382,75719,5
40385,75717,6
40385,75750,4
40389,75741,4
40394,75746,5
40391,75741,5
40401,75754,5
40403,75741,5
40400,75753,4
40405,75750,5
40406,75754,5
40400,75759,5
40408,75753,4
40400,75757,4
40406,75758,5
40408,75760,5
40421,75770,5
40405,75772,4
40422,75776,5
40408,75763,5
40409,75768,5
40415,75774,5
40409,75770,5
40416,75768,4
40413,75766,5
40412,75782,5
40412,75774,6
40424,75790,3
40425,75791,5
40412,75782,5
40428,75793,5
40433,75802,5
40439,75805,4
40445,75822,5
40440,75824,5
40436,75823,5
40450,75830,4
40452,75840,5
40451,75842,5
40457,75843,5
40462,75852,5
40461,75865,4
40466,75859,5
40473,75865,5
40470,75885,5
40480,75880,5
40485,75889,4
40494,75906,6
40498,75904,4
40487,75904,5
40490,75904,5
40500,75910,4
40495,75909,5
40494,75905,5
40494,75902,5
40484,75893,5
40478,75888,4
40482,75876,5
40476,75869,5
40468,75870,5
40471,75865,4
40464,75866,5
40468,75870,5
40474,75873,5
40480,75887,5
40484,75887,4
40487,75888,5
40492,75895,5
40491,75901,5
40497,75905,5
40500,75908,4
40508,75921,5
40501,75924,6
40501,75936,4
40514,75933,5
40510,75936,4
40509,75934,5
40496,75909,5
40482,75881,5
40460,75851,5
40456,75835,4
40451,75819,5
40442,75821,5
40434,75811,5
40439,75807,4
40441,75811,5
40446,75817,5
40441,75814,5
40442,75819,5
40446,75820,4
40452,75826,5
40441,75824,5
40450,75822,5
40452,75833,5
40448,75837,4
40448,75842,5
40460,75845,5
40474,75854,6
40458,75848,4
40456,75866,4
40471,75868,5
40478,75864,5
40470,75876,5
40457,75876,4
40488,75884,4
40488,75895,5
40487,75886,5
40501,75900,5
40492,75916,4
40507,75919,5
40511,75935,5
40547,75961,5
40525,75971,5
40537,75964,4
40529,75979,5
40554,75986,5
40539,75973,5
40540,75981,5
40535,75978,5
40544,75968,4
40534,75963,5
40535,75975,5
40537,75965,5
40542,75967,4
40528,75959,5
40530,75962,5
40529,75959,5
40527,75951,4
40532,75965,4
40526,75967,5
40523,75966,5
40528,75944,5
40530,75958,4
40532,75957,5
40533,75968,5
40529,75956,5
40543,75990,5
40548,75983,4
40552,75997,5
40555,76001,5
40556,76006,5
40555,76019,5
40576,76035,4
40575,76069,6
40582,76050,4
40588,76063,5
40591,76069,5
40594,76089,4
40584,76075,5
40591,76081,5
40603,76077,5
40592,76084,4
40585,76057,4
40587,76050,5
40575,76043,5
40568,76044,5
40568,76028,4
40560,76021,5
40554,76014,5
40549,76001,5
40559,75999,5
40550,76000,4
40555,76006,5
40558,76012,5
40555,76018,5
40563,76003,5
40548,76009,4
40546,76012,5
40558,76008,6
40559,76015,4
40549,76017,5
40563,76011,4
40557,76003,5
40546,75987,5
40519,75944,5
40496,75922,4
40487,75892,4
40484,75891,5
40468,75859,5
40471,75858,5
40463,75852,4
40464,75860,5
40463,75846,5
40470,75847,5
40462,75849,5
40463,75860,4
40464,75846,5
40453,75846,5
40454,75852,5
40458,75845,5
40460,75844,4
40457,75842,5
40464,75843,5
40457,75849,5
40468,75851,10
40455,75844,9
40453,75841,5
40462,75839,8
40460,75800,5
40448,75835,5
40445,75832,8
40445,75832,5
40451,75824,5
40446,75839,8
40455,75841,5
40463,75845,5
40466,75852,5
40466,75868,8
40464,75865,5
40467,75860,5
40467,75830,8
40452,75855,5
40465,75862,5
40461,75850,5
40457,75843,8
40457,75843,5
40459,75827,5
40450,75833,8
40459,75828,5
40451,75840,5
40440,75828,8
40440,75814,5
40445,75825,5
40449,75833,5
40447,75826,8
40439,75831,5
40453,75829,5
40460,75844,8
40460,75844,5
40485,75839,5
40481,75848,5
40454,75849,8
40438,75853,5
40467,75844,5
40461,75850,8
40453,75861,5
40455,75860,5
40454,75846,8
40467,75852,5
40452,75858,5
40460,75855,5
40469,75838,8
40469,75838,5
40408,75847,5
40470,75851,8
40453,75843,5
40459,75851,5
40447,75846,5
40472,75826,8
40456,75829,5
40452,75831,5
40457,75827,8
40453,75818,5
40427,75806,5
40399,75743,8
40399,75743,5
40393,75730,5
40384,75714,5
40391,75746,8
40384,75710,5
40385,75713,5
40391,75712,8
40410,75733,5
40403,75735,5
40383,75730,5
40401,75721,8
40404,75754,5
40403,75769,5
40417,75775,8
40417,75775,5
40416,75781,5
40414,75740,8
40459,75851,5
40383,75700,5
40377,75676,5
40314,75619,8
40305,75600,5
40307,75569,5
40296,75562,8
40284,75562,5
40284,75540,5
40289,75549,5
40276,75539,8
40276,75539,5
40276,75539,5
40285,75532,8
40289,75534,5
40283,75541,5
40278,75540,8
40273,75542,5
40283,75562,5
40283,75545,5
40281,75524,8
40281,75538,5
40282,75539,5
40289,75540,8
40289,75540,5
40285,75543,5
40278,75545,5
40275,75542,8
40283,75553,5
40293,75552,5
40303,75567,8
40297,75546,5
40291,75545,5
40292,75561,8
40298,75561,5
40298,75561,5
40300,75574,5
40293,75571,8
40304,75568,5
40307,75574,5
40304,75572,8
40310,75575,5
40302,75573,5
40298,75554,5
40307,75579,8
40317,75581,5
40318,75588,5
40319,75607,12
40320,75605,1
40320,75605,2
40325,75619,5
40328,75629,4
40330,75621,5
40333,75625,5
40319,75627,6
40333,75621,4
40322,75618,4
40328,75629,5
40331,75626,5
40338,75620,5
40329,75629,4
40330,75624,5
40332,75622,5
40334,75616,5
40336,75627,5
40327,75624,4
40332,75624,5
40335,75621,5
40328,75620,5
40332,75615,5
40330,75614,4
40334,75614,5
40329,75619,5
40328,75615,5
40323,75615,5
40326,75609,5
40331,75608,4
40332,75623,5
40326,75624,5
40334,75621,5
40334,75628,4
40334,75622,5
40326,75627,5
40323,75630,5
40335,75627,4
40340,75635,5
40335,75626,5
40315,75631,5
40341,75630,5
40338,75635,4
40330,75623,5
40316,75638,5
40339,75638,5
40327,75625,5
40334,75625,4
40324,75620,5
40324,75615,5
40313,75595,5
40307,75588,5
40313,75571,4
40299,75559,6
40297,75549,4
40282,75532,5
40299,75528,5
40266,75523,4
40265,75513,5
40271,75511,5
40288,75532,5
40291,75549,4
40300,75560,5
40301,75565,5
40305,75581,5
40306,75578,5
40313,75594,4
40313,75597,5
40316,75585,5
40318,75604,5
40317,75603,5
40311,75593,4
40315,75570,5
40311,75579,5
40297,75562,5
40267,75509,5
40240,75450,4
40236,75460,5
40218,75432,6
40216,75417,4
40209,75414,5
40204,75410,4
40202,75412,5
40206,75412,5
40211,75416,5
40208,75411,4
40200,75409,5
40216,75414,5
40211,75439,5
40218,75413,5
40225,75428,4
40214,75428,5
40212,75436,5
40215,75434,5
40227,75437,5
40226,75430,4
40231,75447,5
40239,75438,5
40235,75449,5
40229,75450,5
40234,75451,4
40238,75458,5
40236,75460,5
40233,75450,5
40242,75463,5
40237,75461,4
40239,75466,5
40239,75476,5
40251,75489,5
40254,75487,4
40252,75487,5
40256,75483,5
40244,75491,5
40254,75486,5
40255,75485,4
40250,75479,5
40260,75491,5
40257,75490,5
40258,75490,5
40259,75494,4
40256,75486,5
40260,75500,5
40268,75499,5
40264,75516,5
40262,75500,5
40263,75518,4
40272,75513,5
40268,75510,5
40276,75527,5
40280,75524,4
40273,75531,5
40283,75539,5
40284,75538,5
40288,75546,4
40298,75555,5
40294,75564,5
40295,75573,5
40291,75563,5
40302,75569,4
40307,75586,5
40315,75580,5
40318,75581,5
40318,75587,5
40312,75588,4
40318,75589,5
40312,75591,5
40313,75598,5
40318,75605,5
40321,75607,4
40321,75601,6
40316,75604,4
40323,75609,5
40324,75601,5
40318,75605,4
40325,75600,5
40317,75604,5
40317,75600,5
40320,75596,4
40315,75607,5
40327,75605,5
40324,75610,5
40326,75609,5
40325,75598,4
40311,75609,5
40331,75608,5
40319,75610,5
40321,75606,5
40330,75615,4
40329,75620,5
40329,75609,5
40335,75613,5
40324,75607,5
40334,75604,4
40326,75619,5
40323,75616,5
40326,75611,5
40327,75615,5
40319,75604,4
40326,75603,5
40327,75614,5
40319,75605,5
40310,75589,4
40311,75595,5
40311,75575,5
40302,75569,5
40290,75553,5
40289,75550,4
40288,75547,5
40282,75539,5
40266,75541,5
40281,75548,5
40282,75549,4
40287,75555,5
40299,75570,5
40303,75580,5
40305,75589,5
40321,75594,4
40340,75607,5
40318,75611,5
40332,75615,5
40328,75609,5
40346,75606,4
40318,75593,5
40319,75607,5
40313,75588,5
40326,75584,4
40300,75562,5
40284,75522,5
40256,75500,5
40251,75472,5
40242,75466,4
40242,75454,5
40224,75448,5
40231,75445,5
40241,75456,5
40245,75460,4
40237,75466,6
40235,75449,4
40260,75483,5
40255,75481,5
40255,75494,6
40267,75480,3
40259,75499,5
40265,75504,5
40256,75498,5
40267,75511,4
40263,75492,5
40260,75504,5
40261,75490,5
40257,75508,4
40250,75481,5
40254,75485,5
40253,75481,5
40251,75502,5
40248,75471,4
40255,75470,5
40241,75481,5
40245,75477,5
40243,75475,5
40253,75480,4
40265,75499,5
40262,75497,6
40255,75487,4
40256,75491,5
40257,75493,4
40261,75485,5
40257,75490,5
40256,75488,5
40261,75494,5
40268,75493,4
40266,75486,5
40265,75506,5
40271,75502,5
40275,75510,4
40266,75520,5
40278,75527,5
40277,75531,5
40291,75539,5
40282,75554,4
40299,75563,5
40298,75562,5
40296,75564,5
40303,75571,5
40313,75584,4
40318,75591,5
40325,75601,5
40332,75613,6
40322,75618,4
40336,75624,4
40331,75630,5
40339,75636,5
40336,75643,5
40344,75631,5
40341,75634,4
40336,75636,5
40343,75640,5
40346,75642,5
40334,75639,4
40338,75629,5
40333,75633,5
40341,75631,5
40336,75635,5
40348,75647,4
40346,75648,5
40339,75640,5
40346,75629,5
40335,75636,5
40348,75636,5
40344,75627,4
40333,75625,5
40342,75621,5
40334,75624,6
40331,75612,3
40331,75611,5
40330,75603,5
40319,75613,5
40322,75605,5
40325,75604,4
40332,75611,5
40328,75611,5
40333,75622,5
40336,75619,4
40328,75618,5
40337,75617,5
40342,75624,5
40331,75617,5
40328,75631,4
40335,75620,5
40335,75616,5
40333,75615,5
40329,75611,5
40321,75608,4
40322,75605,6
40306,75594,4
40305,75568,5
40286,75526,5
40269,75511,4
40267,75503,5
40258,75501,5
40266,75493,5
40266,75497,5
40261,75507,4
40269,75513,5
40272,75523,5
40277,75520,5
40274,75528,4
40268,75534,5
40291,75539,5
40288,75544,5
40286,75556,5
40280,75561,4
40293,75561,5
40304,75566,5
40296,75568,5
40287,75563,5
40299,75565,4
40306,75567,5
40308,75561,6
40293,75568,4
40294,75557,5
40299,75550,4
40296,75556,5
40316,75563,5
40304,75556,5
40298,75562,5
40306,75571,4
40333,75582,5
40318,75585,5
40310,75575,5
40308,75578,4
40319,75577,5
40308,75584,5
40308,75585,5
40313,75573,5
40315,75583,4
40313,75578,5
40306,75578,5
40302,75582,5
40311,75578,5
40311,75585,4
40317,75589,5
40315,75586,5
40310,75567,6
40309,75591,4
40320,75597,4
40321,75597,5
40323,75597,5
40332,75620,5
40342,75631,5
40348,75643,4
40361,75663,5
40354,75671,5
40367,75677,5
40369,75690,4
40377,75713,5
40385,75700,5
40387,75702,5
40381,75715,5
40395,75743,4
40393,75725,5
40388,75728,5
40401,75723,5
40399,75748,5
40404,75730,5
40397,75733,4
40395,75730,5
40393,75733,5
40388,75725,5
40384,75708,4
40390,75711,5
40384,75707,5
40387,75717,5
40382,75700,5
40380,75707,4
40380,75708,5
40379,75719,5
40390,75725,5
40400,75722,4
40392,75729,5
40405,75742,5
40404,75743,5
40405,75748,5
40402,75742,4
40401,75743,5
40408,75749,5
40402,75742,5
40393,75737,5
40401,75738,4
40392,75714,6
40380,75683,4
40356,75654,5
40355,75650,5
40342,75637,4
40335,75613,5
40330,75618,5
40327,75624,5
40341,75626,5
40350,75640,7
40349,75630,2
40347,75649,5
40356,75651,5
40360,75655,4
40366,75668,5
40367,75669,5
40370,75697,5
40372,75695,5
40377,75708,4
40388,75716,5
40394,75720,5
40392,75720,5
40392,75728,5
40398,75734,4
40395,75731,5
40404,75730,6
40398,75735,4
40399,75741,5
40396,75739,4
40408,75743,5
40403,75739,5
40414,75745,5
40419,75758,4
40420,75759,4
40419,75760,5
40408,75759,5
40413,75761,5
40415,75756,4
40412,75750,5
40416,75746,5
40410,75753,5
40413,75756,5
40408,75750,4
40410,75752,5
40408,75760,5
40410,75748,5
40412,75752,5
40414,75757,4
40412,75763,5
40419,75766,5
40418,75769,5
40422,75777,5
40427,75780,4
40429,75788,5
40443,75808,5
40449,75821,5
40454,75828,4
40458,75839,4
40469,75849,5
40472,75878,5
40482,75877,5
40489,75880,4
40481,75879,5
40486,75905,5
40490,75908,5
40500,75906,5
40501,75914,4
40488,75918,5
40505,75912,5
40507,75914,5
40500,75903,5
40484,75901,5
40497,75891,4
40489,75898,5
40493,75885,5
40488,75890,5
40488,75889,4
40488,75880,5
40489,75889,5
40500,75895,5
40483,75896,5
40496,75905,4
40496,75896,5
40524,75898,5
40499,75913,5
40504,75912,4
40515,75934,5
40531,75935,5
40521,75929,5
40521,75927,5
40492,75893,4
40488,75870,5
40477,75872,5
40470,75849,5
40459,75848,5
40466,75832,4
40459,75840,6
40452,75844,4
40461,75846,5
40461,75835,5
40463,75843,4
40471,75849,5
40472,75848,5
40471,75830,5
40472,75853,5
40478,75856,4
40469,75865,5
40475,75860,5
40481,75866,5
40480,75880,4
40482,75882,5
40485,75891,5
40485,75884,5
40500,75887,5
40486,75886,4
40486,75911,5
40491,75887,5
40494,75902,5
40485,75897,5
40500,75915,4
40504,75912,5
40505,75918,5
40508,75930,5
40507,75939,5
40515,75940,4
40515,75940,5
40523,75936,5
40517,75938,5
40523,75942,5
40515,75938,4
40520,75937,5
40522,75942,5
40521,75947,5
40523,75930,4
40520,75942,5
40518,75931,5
40508,75922,5
40504,75924,5
40501,75916,4
40507,75914,5
40506,75912,5
40497,75916,5
40499,75906,5
40495,75903,4
40506,75909,5
40501,75911,5
40506,75906,5
40499,75912,5
40510,75908,4
40506,75911,5
40506,75918,5
40501,75916,5
40506,75933,5
40515,75923,4
40499,75920,5
40512,75913,5
40509,75911,5
40500,75901,4
40497,75897,5
40489,75900,5
40492,75898,5
40487,75884,5
40488,75879,4
40479,75886,6
40487,75875,4
40481,75883,5
40487,75881,5
40476,75877,6
40482,75866,3
40483,75866,5
40476,75869,5
40477,75884,5
40481,75876,4
40471,75865,5
40473,75853,5
40456,75829,5
40425,75783,5
40418,75770,4
40411,75749,5
40396,75727,5
40383,75720,5
40377,75710,4
40380,75709,5
40381,75710,5
40374,75708,5
40375,75696,5
40377,75702,4
40375,75703,5
40372,75698,6
40371,75694,4
40371,75699,5
40375,75696,4
40374,75694,5
40366,75692,5
40364,75697,5
40365,75686,5
40377,75690,4
40370,75688,5
40373,75691,5
40364,75689,5
40367,75680,5
40373,75680,4
40373,75685,5
40362,75684,5
