RED,IR,EKG,TIME
97329,172529,9
97417,172632,7
97448,172672,8
97204,172712,5
97566,172871,7
97566,172871,8
97613,172941,9
97675,173046,8
97805,173122,5
97721,173090,7
97601,172917,8
97601,172917,5
97583,172924,7
97898,172911,8
97575,172912,5
97610,172997,7
97603,172973,8
97691,172940,5
97433,172777,7
97433,172777,8
97430,172756,5
97411,172750,7
97419,172546,8
97439,172786,5
97490,172891,7
97709,173182,8
97709,173182,5
97730,173072,7
97812,173429,8
97921,173515,7
97954,173581,7
98027,174014,8
98027,174014,7
97993,173658,5
97975,173616,8
97929,173498,7
97880,173750,5
97879,173440,8
97816,173386,7
97738,173311,5
97760,173321,8
97760,173321,7
97721,173252,5
97682,173203,8
97661,173200,7
97675,173217,5
97662,173238,8
97628,173160,7
97628,173160,5
97611,173155,8
97602,173139,7
97603,173148,5
97601,173121,8
97582,173048,7
97506,173031,12
97535,173043,6
97582,173063,5
97552,173084,13
97532,173018,7
97637,173195,10
97637,173195,9
97621,173170,10
97547,173074,9
97547,173074,10
97549,173092,9
97556,173079,5
97516,173051,9
97516,173051,5
97551,173073,5
97584,173097,10
97588,173132,5
97559,173076,5
97492,172978,10
97447,172927,5
97386,172851,7
97386,172851,8
97360,172845,5
97399,172879,7
97431,172937,3
97481,173015,2
97538,173075,5
97605,173154,4
97594,173142,4
97552,173087,5
97521,173054,5
97521,173061,5
97562,173111,4
97600,173178,5
97623,173207,5
97626,173210,5
97596,173157,5
97554,173109,4
97543,173086,5
97553,173110,5
97572,173152,5
97621,173208,5
97635,173216,4
97607,173173,5
97540,173053,6
97455,172978,4
97449,172959,5
97443,172982,4
97478,173011,5
97375,173016,5
97488,173007,5
97459,172972,5
97423,172935,4
97175,172947,5
97458,172998,5
97494,173053,5
97542,173108,4
97255,173142,5
97575,173164,5
97582,173167,5
97592,173177,5
97581,173248,4
97679,173347,5
97753,173469,5
97805,173540,5
98074,173564,5
97824,173528,4
97784,173464,5
97753,173437,5
98081,173442,5
97776,173472,5
97792,173510,4
97822,173536,5
98014,173571,5
97863,173594,5
97860,173611,5
97897,173668,4
97995,173745,5
98005,173823,5
98062,173896,5
98059,173885,5
98018,173658,4
97969,173747,5
97925,173689,5
97917,173688,5
97929,173414,4
97949,173722,5
97957,173758,5
97956,173740,5
97946,173418,5
97938,173716,5
97947,173747,4
97981,173804,4
98027,173963,5
98091,173967,5
98113,173999,4
98119,173997,5
98099,174270,5
98089,173963,5
98087,173966,5
98097,174004,4
98139,174372,5
98180,174105,5
98197,174116,5
98177,174081,5
98151,174164,4
98117,174023,5
98118,174011,5
98107,174032,5
98153,174096,4
98174,174097,4
98161,174066,5
98125,174002,5
98084,173974,5
98086,173972,4
98106,174016,7
98159,174115,3
98226,174188,5
98238,174202,5
98234,174194,4
98219,174172,5
98211,174165,5
98249,174223,5
98297,174308,5
98350,174379,4
98390,174416,5
98396,174437,5
98397,174428,5
98409,174444,5
98409,174470,4
98451,174528,5
98510,174614,5
98563,174689,5
98589,174724,5
98585,174705,4
98564,174701,5
98574,174733,6
98666,174900,4
98829,175155,4
99017,175429,4
99152,175604,5
99215,175679,5
99196,175639,5
99158,175607,4
99176,175629,5
99205,175677,5
99263,175767,5
99349,175897,5
99409,175996,4
99465,176061,5
99488,176084,5
99514,176159,5
99614,176307,5
99774,176543,4
99926,176750,5
100067,176922,5
100154,177050,5
100194,177102,9
100183,177076,5
100201,177132,5
100266,177257,7
100330,177310,8
100421,177460,9
100421,177460,8
100469,177531,5
100575,177713,7
100721,177856,8
100753,177919,5
100740,177918,7
100745,177910,8
100745,177910,5
100761,177929,7
100790,177969,8
100779,177964,5
100757,177930,7
100744,177894,8
100733,177895,5
100778,177942,7
100778,177942,8
100757,177952,7
100734,177882,5
100613,177871,8
100724,177841,7
100718,177864,5
100668,177773,8
100668,177773,7
100304,177748,7
100596,177701,8
100589,177690,7
100582,177699,5
100833,177696,8
100833,177696,7
100642,177748,5
100642,177772,8
100655,177796,7
101012,177797,10
100654,177756,7
100654,177756,5
100642,177759,5
100632,177738,10
100654,177723,5
100597,177674,5
100577,177622,10
100543,177605,5
100534,177425,5
100447,177457,10
100447,177457,5
100428,177414,5
100394,177366,10
100388,177076,5
100399,177390,5
100314,177267,10
100314,177267,5
100313,177244,5
100272,177539,10
100268,177219,5
100275,177219,7
100275,177251,8
100297,177551,5
100311,177263,7
100311,177263,8
100301,177235,5
100298,177231,7
100298,177249,8
100293,177224,5
100268,177197,7
100230,177126,8
100230,177126,5
100204,177093,7
100201,177089,8
100184,177070,5
100176,177042,7
100132,177031,8
100104,176974,5
100084,176904,7
99961,176732,8
99961,176732,9
99942,176714,8
99933,176702,5
99908,176591,7
99736,176402,8
99736,176402,5
99700,176360,7
99677,176308,8
99655,176252,5
99600,176215,7
99586,176110,2
99597,176177,5
99611,176236,5
99626,176263,5
99622,176238,5
99617,176209,4
99582,176153,5
99534,176076,5
99495,176050,5
99488,176052,5
99485,176046,4
99475,176012,5
99463,175995,5
99473,175977,5
99447,175982,5
99433,175955,4
99450,175975,5
99467,175984,5
99481,176004,5
99482,176004,5
99483,176026,5
99477,175998,4
99439,175941,5
99419,175912,5
99410,175890,4
99399,175868,4
99367,175835,5
99345,175796,5
99334,175783,5
99306,175745,4
99258,175670,5
99225,175639,5
99210,175619,5
99217,175630,5
99213,175614,4
99200,175616,5
99191,175590,5
99183,175568,5
99156,175547,5
99152,175546,4
99155,175541,5
99158,175535,5
99151,175540,5
99144,175511,5
99143,175511,4
99120,175476,6
99088,175431,4
99087,175428,5
99087,175438,5
99008,175459,4
99091,175443,5
99087,175440,5
99087,175437,5
98827,175384,4
99043,175374,4
99040,175367,5
99027,175352,5
98706,175318,5
98985,175290,4
98974,175257,5
98941,175209,5
98810,175133,5
98848,175066,5
98847,175076,4
98850,175095,5
99071,175087,5
98849,175070,5
98854,175079,5
98847,175082,4
99170,175064,5
98848,175079,6
98850,175089,4
98857,175084,5
99039,175085,4
98843,175068,5
98835,175067,5
98838,175067,5
98883,175059,5
98824,175040,4
98827,175049,5
98834,175051,5
98830,174908,5
98820,175041,4
98824,175040,4
98812,175033,5
98799,174744,5
98800,175007,5
98788,175007,4
98796,175011,5
98788,174669,5
98775,174977,5
98773,174964,5
98768,174963,4
98765,175004,5
98745,174945,5
98768,174950,6
98761,174950,4
98753,175218,4
98710,174845,5
98646,174767,5
98596,174703,5
98565,174986,5
98525,174589,4
98482,174544,5
98474,174537,5
98473,174677,5
98466,174527,5
98457,174508,4
98457,174510,5
98480,174563,5
98473,174531,5
98473,174533,4
98475,174527,4
98481,174546,5
98465,174531,5
98446,174501,5
98436,174476,5
98433,174455,4
98392,174400,5
98368,174361,5
98350,174336,5
98342,174327,4
98331,174300,5
98306,174264,5
98274,174224,5
98257,174201,7
98248,174170,2
98216,174126,5
98201,174113,5
98190,174089,5
98169,174073,5
98155,174049,4
98141,174016,5
98117,174007,5
98112,173985,5
98082,173934,5
98051,173887,4
98044,173870,5
98036,173864,5
98028,173849,5
97992,173799,4
97967,173777,6
97964,173771,4
97977,173791,5
97974,173781,5
97975,173792,4
97983,173805,5
97996,173798,5
97991,173801,5
97990,173794,5
97992,173797,4
97993,173808,5
97979,173798,5
97986,173798,5
97991,173808,5
97998,173810,4
97990,173793,5
97980,173775,5
97972,173774,5
97965,173765,5
97965,173754,4
97953,173739,5
97946,173730,5
97947,173728,5
97941,173715,4
97926,173705,4
97920,173678,6
97897,173664,4
97888,173636,5
97858,173596,4
97824,173556,5
97808,173536,5
97797,173502,5
97760,173440,5
97731,173414,4
97712,173394,5
97690,173366,5
97681,173333,5
97661,173313,5
97635,173291,4
97618,173251,5
97584,173200,5
97550,173167,5
97544,173153,5
97529,173121,4
97497,173103,5
97476,173073,5
97452,173018,5
97415,172943,5
97349,172878,4
97224,172859,5
97335,172870,5
97334,172861,5
97329,172849,4
97063,172814,4
97273,172755,5
97212,172666,5
97182,172627,5
96881,172636,4
97186,172641,5
97181,172633,5
97165,172603,5
97115,172565,5
97096,172491,4
97040,172427,5
97031,172414,5
97276,172441,5
97045,172438,5
97052,172462,5
97047,172448,4
97358,172405,5
96993,172363,5
96978,172344,6
96990,172367,3
97162,172382,5
97017,172376,5
97009,172367,5
97001,172350,5
97002,172301,4
96930,172250,5
96900,172226,5
96900,172220,5
96894,172029,4
96861,172142,4
96824,172099,5
96804,172071,5
96774,171730,5
96718,171948,5
96715,171956,4
96739,171996,5
96775,171759,5
96791,172052,5
96790,172062,4
96780,172037,6
96755,172090,4
96740,171989,5
96770,172014,5
96789,172044,6
96786,172357,3
96779,172038,5
96743,171964,5
96685,171869,5
96618,172077,4
96612,171786,5
96601,171782,5
96588,171774,5
96571,171866,5
96560,171727,4
96536,171689,5
96519,171685,5
96517,171712,5
96544,171725,4
96561,171758,4
96583,171780,5
96566,171779,5
96552,171745,5
96531,171711,4
96508,171682,5
96500,171701,6
96526,171728,4
96565,171803,5
96608,171843,4
96619,171857,5
96629,171867,5
96625,171863,5
96623,171865,5
96645,171892,4
96675,171962,5
96727,172013,5
96760,172076,5
96780,172097,5
96774,172086,4
96780,172120,5
96825,172201,5
96896,172316,5
96976,172439,5
97040,172514,4
97080,172570,5
97084,172566,5
97071,172554,5
97077,172590,4
97128,172668,4
97199,172780,5
97273,172880,6
97325,172952,4
97363,173005,4
97368,173016,5
97380,173028,5
97412,173081,5
97477,173178,5
97557,173312,4
97650,173453,5
97738,173587,5
97810,173681,5
97853,173723,5
97857,173748,4
97909,173838,5
98000,173984,5
98085,174116,5
98147,174165,5
98145,174165,4
98127,174134,5
98103,174096,5
98086,174096,5
98123,174166,5
98187,174263,4
98228,174326,5
98250,174348,5
98252,174348,6
98257,174340,3
98238,174328,4
98253,174371,5
98326,174470,5
98426,174650,5
98556,174816,4
98626,174926,5
98640,174947,5
98641,174922,5
98618,174890,5
98615,174905,4
98644,174934,5
98675,174984,5
98714,175060,5
98768,175119,5
98793,175154,4
98804,175160,5
98799,175170,5
98820,175239,5
98931,175405,5
99086,175638,5
99243,175848,4
99281,176069,5
99510,176231,5
99575,176330,6
99647,176453,3
99504,176626,5
99825,176665,5
99826,176662,5
99792,176598,4
99404,176492,4
99632,176365,5
99567,176295,5
99560,176305,5
99544,176354,4
99639,176412,5
99665,176439,5
99674,176445,5
99895,176437,5
99635,176379,4
99608,176356,5
99627,176399,5
100003,176447,5
99714,176544,5
99754,176577,4
99750,176577,6
99923,176556,4
99754,176560,5
99762,176601,5
99823,176704,4
99931,176782,5
99938,176845,5
99905,176770,5
99847,176681,5
99765,176427,4
99720,176509,5
99674,176465,5
99672,176464,5
99677,176173,4
99671,176473,4
99671,176486,5
99670,176450,5
99642,176114,5
99627,176407,5
99607,176371,4
99598,176378,5
99622,176499,5
99646,176443,5
99629,176408,4
99603,176398,5
99589,176671,6
99599,176402,4
99620,176420,5
99633,176454,4
99650,176785,5
99649,176461,5
99646,176466,5
99653,176458,5
99654,176598,4
99663,176485,5
99675,176513,5
99731,176605,5
99780,176672,5
99779,176640,4
99765,176640,5
99770,176617,5
99753,176600,5
99728,176571,4
99719,176555,4
99729,176561,5
99733,176573,5
99707,176507,5
99618,176359,4
99528,176267,5
99503,176243,5
99466,176176,6
99422,176122,4
99379,176050,4
99343,176014,5
99322,175974,5
99289,175955,5
99290,175967,5
99296,175992,4
99290,175953,5
99260,175933,5
99249,175895,5
99260,175915,5
99259,175915,4
99252,175904,5
99269,175927,5
99303,175993,5
99357,176068,5
99436,176208,4
99573,176413,5
99728,176634,5
99891,176864,5
99972,176930,5
99998,176986,4
100065,177097,5
100131,177184,5
100223,177316,5
100307,177449,4
100405,177588,5
100508,177738,5
100556,177762,5
100559,177772,5
100595,177841,4
100623,177873,5
100650,177892,5
100635,177895,5
100644,177919,5
100707,177999,4
100748,178067,5
100754,178079,5
100768,178103,5
100740,178040,5
100691,177979,4
100664,177950,5
100639,177921,5
100637,177909,5
100636,177904,4
100644,177941,5
100695,178018,4
100773,178124,5
100865,178275,5
100957,178401,4
101008,178452,5
100981,178365,5
100869,178181,5
100743,178005,5
100642,177891,4
100618,177855,5
100598,177830,5
100603,177836,5
100621,177883,5
100657,177923,4
100668,177950,5
100701,178016,5
100761,178095,5
100805,178154,5
100811,178171,4
100824,178171,5
100810,178157,5
100672,178101,5
100701,177973,5
100614,177860,4
100580,177824,6
100310,177786,4
100541,177772,5
100523,177739,4
100523,177729,4
100212,177747,5
100526,177726,5
100517,177723,5
100529,177744,4
100522,177773,5
100564,177777,5
100574,177800,5
100574,177812,5
100850,177865,4
100633,177873,5
100584,177799,5
100533,177747,5
100845,177711,5
100476,177680,4
100479,177668,5
100462,177642,5
100602,177627,5
100433,177611,5
100408,177567,4
100406,177582,5
100468,177617,6
100472,177665,4
100482,177694,5
100500,177704,4
100501,177529,5
100513,177711,5
100494,177673,5
100474,177663,4
100504,177410,4
100539,177759,5
100567,177793,5
100571,177800,5
100584,177532,4
100591,177815,6
100568,177786,4
100548,177743,5
100521,177809,5
100486,177641,4
100433,177555,5
100368,177464,5
100324,177711,5
100290,177324,6
100242,177271,3
100208,177240,5
100191,177514,5
100203,177239,5
100213,177246,5
100202,177218,4
100176,177285,5
100158,177148,5
100125,177110,5
100102,177085,5
100103,177095,4
100114,177110,5
100118,177105,5
100109,177084,5
100094,177047,4
100067,177010,5
100055,176990,5
100046,177001,5
100068,177022,5
100087,177051,4
100082,177052,10
100052,177017,5
100052,177017,5
100070,177033,5
100098,177088,4
100121,177097,5
100117,177098,5
100094,177074,5
100089,177058,4
100081,177054,5
100062,177031,5
100074,177036,5
100079,177065,5
100099,177079,4
100108,177082,5
100100,177090,5
100114,177101,5
100104,177090,4
100091,177058,4
100096,177089,5
100107,177077,5
100090,177051,5
100067,177019,4
100055,177003,5
100066,177002,6
100037,176959,4
100001,176896,5
99949,176853,4
99950,176820,7
99935,176831,3
99929,176805,5
99907,176784,5
99890,176745,4
99858,176678,5
99803,176618,5
99787,176593,5
99787,176603,5
99794,176597,4
99777,176578,5
99759,176539,5
99740,176536,5
99741,176514,5
99720,176493,4
99716,176492,5
99726,176506,5
99730,176525,5
99744,176522,4
99733,176509,4
99740,176532,5
99738,176520,6
99709,176477,4
99701,176474,4
99698,176445,5
99687,176420,5
99656,176395,5
99617,176332,5
99614,176302,4
99590,176293,5
99554,176222,5
99494,176156,5
99445,176072,5
99383,175976,4
99323,175864,5
99237,175719,5
99150,175594,5
99043,175431,5
98935,175278,4
98841,175165,5
98669,175117,5
98785,175098,5
98764,175077,5
98749,175030,4
98465,175015,5
98714,174992,5
98683,174924,6
98626,174853,3
98280,174813,4
98580,174786,5
98562,174743,5
98521,174692,5
98484,174615,4
98447,174564,5
98402,174505,5
98360,174454,5
98613,174460,5
98349,174455,4
98352,174460,5
98341,174441,5
98674,174451,5
98330,174438,5
98307,174410,4
98301,174389,5
98443,174394,5
98306,174400,5
98304,174403,5
98292,174378,5
98322,174390,4
98323,174422,5
98322,174416,5
98333,174437,6
98343,174272,3
98358,174482,5
98357,174489,5
98346,174449,5
98330,174157,4
98337,174465,4
98343,174477,5
98345,174463,5
98344,174224,5
98339,174463,4
98318,174440,5
98317,174422,5
98316,174566,5
98323,174461,5
98336,174479,4
98363,174503,5
98377,174851,5
98369,174526,5
98355,174519,5
98369,174546,4
98393,174854,6
98430,174627,4
98444,174659,5
98478,174716,5
98502,174830,4
98494,174701,5
98460,174681,5
98477,174714,5
98512,174775,5
98557,174831,4
98572,174858,5
98581,174883,5
98584,174854,5
98553,174800,4
98545,174812,5
98572,174876,5
98639,174985,5
98700,175053,5
98720,175092,4
98725,175087,5
98690,175029,5
98642,174984,5
98636,174986,5
98650,174994,4
98662,175009,5
98661,175019,6
98647,174982,4
98618,174957,5
98603,174938,4
98638,175021,5
98735,175165,5
98845,175322,5
98907,175390,5
98907,175395,4
98839,175247,5
98703,175050,5
98569,174866,5
98511,174819,4
98522,174828,4
98547,174861,5
98567,174879,5
98563,174882,5
98549,174859,4
98527,174808,5
98517,174839,5
98546,174888,5
98586,174945,5
98637,175011,4
98664,175049,5
98673,175041,5
98658,175058,6
98687,175114,4
98795,175308,4
98948,175528,5
99115,175766,5
99238,175912,5
99274,175935,5
99215,175858,4
99146,175766,5
99155,175831,5
99248,175955,5
99344,176086,5
99355,176088,4
99340,176063,5
99291,175958,5
99206,175869,5
99168,175821,4
99200,175898,4
99225,175925,5
99212,175870,5
99207,175880,5
99233,175896,5
99211,175854,4
99166,175824,5
99202,175903,5
99318,176099,6
99412,176205,3
99418,176171,5
99297,175966,5
99153,175769,5
99013,175544,5
98909,175458,4
98945,175543,5
99091,175782,5
99268,176027,5
99318,176013,5
99148,175730,4
98935,175451,5
98891,175416,5
98838,175581,5
99162,175860,5
99304,176047,4
99357,176071,5
99057,176030,5
99300,175996,5
99299,176018,4
99373,176187,5
99405,176769,4
100169,177400,5
100375,177560,5
100235,177277,4
100009,176961,5
99820,176683,5
99593,176388,5
99609,176529,5
100202,177058,4
100265,177448,5
100326,177471,5
100080,177055,5
100215,176820,5
99870,176823,4
99867,176844,5
99932,176982,5
100278,177323,5
100517,177862,5
100690,178013,4
100563,177820,5
100535,177770,5
100516,177769,5
100510,177755,5
100485,177729,4
100524,177600,6
100528,177790,4
100557,177822,5
100517,177785,4
100495,177453,4
100508,177806,5
100622,177994,5
100730,178096,5
100720,177810,4
100737,178078,5
100687,178010,5
100677,178030,5
100745,178265,5
101006,178603,4
101468,179255,5
101539,179169,5
101171,178907,5
100854,178212,5
100864,178277,4
100978,178459,5
101132,178990,5
101283,178930,5
101448,179160,5
101489,179111,4
101319,178938,5
101156,178657,6
101134,178691,4
101318,179021,5
101799,179780,4
102157,180141,5
102133,180069,5
102109,180052,5
102126,180091,4
102213,180238,4
102454,180091,5
102881,180741,5
103125,180969,5
103042,180803,4
102828,180487,5
102672,180270,5
102639,180274,5
102680,180359,5
102848,180675,4
103307,181421,5
103863,182045,5
103819,181895,5
103624,181615,5
103486,181428,4
103377,181278,5
103283,181170,5
103327,181305,5
103590,181735,5
104000,182337,4
104302,182688,5
104310,182658,5
104271,182598,5
104130,182300,5
103791,181836,4
103621,181669,5
103642,181747,5
103838,182098,5
104252,182700,4
104687,183298,5
104865,183449,5
104813,183367,5
104794,183361,5
104808,183414,4
104913,183554,5
105038,183723,5
105103,183793,5
105085,183771,5
105060,183714,5
105040,183685,4
105021,183661,5
105042,183717,5
105071,183751,5
105114,183817,4
105160,183891,5
105219,183956,5
105237,183979,5
105219,183948,5
105225,183971,4
105270,184053,5
105343,184119,5
105391,184198,5
105388,184173,5
105365,184150,4
105345,184109,5
105309,184065,5
105284,184036,5
105296,184034,4
105294,184064,5
105312,184081,5
105321,184103,5
105314,184084,5
105309,184064,4
105294,184067,6
105296,184044,4
105297,184067,5
105312,184089,5
105329,184113,4
105355,184129,5
105346,184130,5
105347,184109,5
105335,184108,5
105341,184101,4
105335,184106,5
105341,184113,5
105337,184100,5
105180,184084,5
105297,184053,4
105274,184015,5
105235,183944,5
104900,183871,5
105139,183815,4
105122,183772,4
105078,183732,5
104712,183672,5
105001,183616,5
104957,183577,4
104935,183525,5
104934,183496,6
104904,183491,4
104903,183479,5
104901,183481,4
105174,183453,5
104871,183429,5
104851,183402,5
104845,183391,5
105165,183336,4
104771,183286,5
104767,183272,5
104750,183254,5
104888,183234,5
104709,183200,4
104700,183188,5
104681,183148,5
104684,183113,5
104631,183075,5
104620,183066,4
104611,183058,5
104591,182816,5
104528,182940,5
104479,182847,3
104403,182746,4
104323,182325,5
104296,182610,5
104269,182574,5
104253,182559,5
104232,182269,4
104206,182497,5
104194,182484,5
104199,182489,5
104204,182631,4
104206,182507,5
104219,182501,5
104237,182535,5
104240,182877,5
104236,182524,4
104230,182531,5
104242,182538,5
104241,182824,5
104242,182544,5
104244,182547,5
104247,182527,4
104238,182623,5
104244,182548,5
104242,182545,6
104232,182549,3
104249,182556,5
104247,182545,5
104225,182524,5
104229,182510,4
104225,182525,4
104211,182493,5
104208,182491,5
104208,182498,7
104215,182508,2
104221,182511,5
104219,182494,5
104204,182491,5
104217,182498,5
104196,182472,4
104175,182452,5
104176,182447,5
104168,182445,5
104183,182444,5
104175,182443,4
104180,182453,6
104178,182457,4
104188,182453,5
104187,182458,5
104194,182455,6
104197,182476,3
104210,182490,5
104209,182479,5
104204,182486,5
104224,182504,4
104223,182515,5
104237,182514,5
104234,182529,5
104262,182569,4
104276,182592,4
104288,182604,5
104298,182616,5
104312,182630,5
104338,182647,4
104332,182655,5
104328,182657,5
104335,182672,5
104345,182669,5
104335,182655,4
104334,182638,5
104313,182625,6
104308,182610,4
104301,182600,5
104299,182598,4
104302,182597,5
104304,182606,5
104291,182590,5
104280,182565,5
104260,182544,4
104255,182527,5
104240,182511,5
104216,182472,5
104191,182455,5
104188,182443,4
104177,182422,5
104164,182395,5
104127,182350,5
104120,182340,4
104108,182331,5
104113,182338,5
104112,182339,5
104121,182349,5
104129,182370,4
104132,182360,5
104128,182344,5
104132,182358,6
104142,182375,4
104138,182365,4
104137,182360,5
104142,182369,5
104154,182384,5
104156,182381,5
104137,182344,4
104104,182316,5
104086,182293,5
104090,182282,5
104079,182267,5
103911,182256,4
104050,182240,5
104043,182229,5
104026,182191,5
103716,182179,4
104014,182184,4
104010,182181,5
103992,182163,5
103654,182141,5
103989,182152,5
103987,182145,4
103972,182114,5
103948,182084,5
103924,182051,6
103906,182033,3
103894,182004,5
104127,181949,5
103834,181922,5
103822,181898,5
103806,181863,4
104107,181786,5
103702,181714,5
103665,181679,5
103634,181620,5
103763,181563,4
103553,181519,5
103533,181498,5
103512,181462,5
103528,181429,5
103466,181391,4
103438,181368,5
103430,181328,5
103391,181069,5
103333,181192,4
103296,181143,5
103257,181091,4
103218,180708,5
103151,180926,5
103107,180870,4
103068,180813,5
103035,180467,5
103001,180720,5
102993,180713,5
103008,180734,5
102994,180819,4
102991,180720,5
102987,180716,5
102992,180711,5
102977,181026,4
102980,180697,5
102988,180718,5
102996,180700,5
102989,181031,5
102981,180678,4
102983,180687,5
102961,180680,5
102951,180765,5
102917,180596,5
102896,180581,4
102885,180564,6
102862,180525,4
102840,180478,5
102814,180457,4
102792,180420,4
102750,180369,5
102729,180348,5
102736,180337,5
102725,180325,4
102695,180267,5
102653,180214,5
102616,180169,5
102589,180134,5
102579,180112,4
102543,180080,5
102548,180076,5
102549,180072,5
102543,180043,5
102513,180028,4
102512,180021,5
102505,180009,5
102489,179998,5
102489,179983,5
102496,179992,4
102492,179987,5
102495,179994,6
102495,179990,4
102503,180009,5
102501,179988,4
102466,179952,5
102440,179921,5
102428,179898,5
102422,179902,4
102417,179883,4
102403,179850,5
102397,179872,5
102411,179870,5
102400,179856,4
102396,179856,5
102403,179879,5
102440,179911,5
102444,179919,5
102436,179914,4
102427,179908,5
102453,179922,5
102454,179927,5
102458,179930,5
102467,179949,4
102471,179959,5
102476,179978,5
102467,179958,6
102480,179963,4
102482,179964,4
102469,179958,5
102470,179968,5
102482,179972,5
102482,179973,5
102487,179964,4
102479,179958,5
102468,179958,5
102478,179966,5
102481,179958,4
102465,179954,4
102473,179950,5
102470,179960,5
102474,179965,5
102469,179940,4
102444,179924,5
102438,179902,5
102424,179894,5
102412,179865,5
102389,179841,5
102398,179852,4
102414,179868,5
102407,179877,5
102405,179876,5
102413,179873,4
102418,179878,5
102412,179870,5
102419,179869,5
102418,179886,5
102421,179868,4
102298,179870,5
102409,179853,5
102406,179859,5
102411,179875,5
102139,179862,4
102415,179863,5
102421,179874,5
102419,179875,5
102080,179854,4
102391,179841,4
102400,179852,5
102399,179852,5
102369,179848,5
102381,179841,4
102387,179831,6
102376,179826,4
102613,179802,5
102355,179787,5
102341,179765,4
102337,179761,5
102686,179757,5
102313,179741,5
102311,179708,5
102309,179713,4
102474,179709,5
102282,179696,5
102285,179695,5
102285,179705,5
102334,179700,4
102295,179706,5
102283,179700,5
102280,179684,5
102264,179476,4
102263,179657,4
102264,179660,5
102282,179697,6
102292,179397,4
102272,179685,4
102258,179643,5
102230,179603,7
102199,179273,3
102158,179502,5
102129,179485,4
102118,179478,5
102117,179571,4
102114,179460,5
102101,179451,5
102081,179418,4
102077,179730,5
102072,179395,5
102064,179390,5
102074,179418,5
102091,179735,4
102100,179426,5
102089,179427,5
102073,179402,5
102071,179496,5
102048,179374,4
102042,179367,5
102043,179367,5
102039,179380,5
102046,179365,4
102052,179362,4
102038,179333,5
102014,179312,5
101985,179282,5
101982,179272,4
101976,179285,5
101983,179285,5
101986,179286,5
101996,179290,5
101983,179261,4
101947,179210,5
101923,179179,5
101908,179163,5
101903,179166,5
101919,179184,4
101916,179171,5
101891,179141,5
101862,179086,5
101816,179030,5
101802,179005,4
101793,179022,5
101812,179036,5
101827,179048,5
101846,179079,5
101869,179117,4
101875,179120,5
101873,179115,5
101860,179095,5
101865,179120,4
101896,179158,4
101932,179225,5
101961,179245,5
101960,179236,5
101943,179235,4
101943,179225,5
101943,179240,5
101962,179256,5
102000,179325,5
102025,179350,4
102031,179369,5
102027,179361,5
102024,179337,5
102017,179327,5
102020,179372,4
102134,179558,5
102318,179823,4
102495,180104,5
102660,180312,5
102787,180506,5
102893,180667,3
102986,180781,5
103045,180870,5
103136,181017,5
103262,181177,4
103350,181304,5
103394,181362,5
103412,181357,5
103383,181320,4
103335,181268,4
103328,181275,5
103371,181343,5
103433,181452,5
103519,181558,4
103606,181676,5
103689,181795,5
103755,181891,5
103806,181973,5
103881,182096,4
104013,182292,5
104142,182469,6
104229,182581,4
104261,182605,5
104257,182595,4
104247,182599,7
104251,182612,3
104315,182723,5
104409,182846,5
104458,182900,4
104488,182913,5
104373,182994,5
104890,183791,5
106094,185600,5
107611,187646,4
108783,189692,5
110365,191374,5
111492,192828,5
112086,193478,4
111792,193484,4
112040,193277,5
111828,192950,5
111588,192605,5
111310,192268,4
111114,191975,5
110927,191735,5
110767,191517,6
110916,191337,4
110553,191259,4
110492,191193,5
110456,191138,5
110812,191101,5
110432,191122,5
110438,191108,4
110428,191080,5
110568,191017,5
110354,190968,5
110329,190939,5
110304,190918,4
110321,190888,5
110301,190924,5
110306,190940,5
110324,190950,5
110340,190779,4
110359,190987,5
110343,190997,5
110327,190962,5
110300,190602,5
110319,190957,4
110316,190977,5
110342,190994,5
110339,190667,6
110328,190983,3
110316,190966,5
110317,190963,5
110321,191096,5
110368,191058,5
110428,191125,4
110472,191190,5
110485,191569,5
110495,191195,5
110462,191162,5
110435,191108,4
110410,191427,5
110403,191088,5
110422,191107,5
110418,191103,5
110397,191194,4
110387,191048,5
110363,191041,5
110357,191021,5
110377,191075,4
110425,191146,10
110484,191242,4
110545,191303,5
110569,191343,6
110578,191344,3
110579,191333,5
110580,191347,5
110589,191372,5
110648,191471,4
110732,191583,5
110801,191670,5
110840,191707,5
110836,191712,5
110845,191734,4
110857,191730,5
110853,191747,5
110877,191794,5
110915,191835,5
110938,191868,4
110928,191841,5
110893,191794,5
110858,191758,5
110832,191706,5
110813,191697,4
110840,191746,6
110880,191792,4
110899,191825,5
110892,191800,4
110887,191807,4
110878,191792,5
110848,191745,5
110804,191684,5
110764,191653,4
110751,191622,5
110754,191626,5
110758,191646,5
110790,191679,5
110801,191707,4
110836,191751,5
110853,191771,5
110858,191780,5
110851,191777,5
110840,191750,4
110829,191759,5
110836,191734,5
110791,191686,5
110733,191601,5
110698,191552,4
110693,191543,5
110675,191531,6
110625,191454,4
110593,191388,5
110549,191351,4
110563,191381,5
110575,191389,5
110609,191448,5
110663,191529,4
110731,191610,4
110764,191650,5
110765,191641,5
110746,191633,5
110738,191601,4
110716,191581,5
110688,191553,5
110664,191495,5
110663,191514,5
110662,191508,4
110652,191501,5
110638,191493,5
110652,191512,5
110653,191505,5
110646,191486,4
110645,191483,5
110638,191478,5
110648,191487,6
110645,191469,4
110636,191474,4
110638,191470,5
110639,191468,5
110634,191449,5
110481,191413,5
110572,191364,4
110541,191321,5
110513,191269,5
110179,191203,5
110434,191156,4
110422,191139,4
110399,191094,5
110001,191043,5
110327,191005,5
110302,190966,4
110289,190943,5
110208,190918,5
110238,190865,5
110230,190845,5
110203,190831,5
110457,190801,4
110149,190726,5
110110,190681,5
110099,190678,5
110499,190684,4
110107,190671,5
110091,190661,5
110087,190663,5
110298,190672,5
110087,190647,4
110079,190640,5
110067,190631,5
110101,190594,5
110028,190560,5
110009,190533,4
109999,190538,5
110004,190345,5
109996,190506,5
109953,190453,4
109924,190405,4
109892,190029,5
109870,190326,5
109860,190306,5
109848,190320,4
109849,189946,6
109827,190268,4
109791,190209,5
109738,190152,5
109709,190193,4
109673,190060,5
109652,190041,5
109641,190012,5
109632,190354,5
109643,190015,4
109639,190022,5
109639,190004,5
109642,190387,5
109640,190013,5
109626,189979,4
109580,189921,5
109557,190033,5
109542,189884,5
109516,189835,5
109457,189755,4
109424,189718,5
109377,189630,5
109331,189575,5
109299,189536,4
109278,189506,5
109266,189488,6
109243,189464,4
109208,189393,5
109191,189422,4
109267,189507,5
109362,189656,5
109429,189743,5
109439,189723,5
109352,189623,4
109232,189473,5
109140,189374,5
109112,189331,5
109110,189338,5
109115,189340,4
109093,189303,5
109058,189265,5
109054,189254,5
109030,189219,5
108995,189162,4
108951,189096,5
108918,189035,5
108864,188972,5
108826,188936,4
108831,188955,4
108882,189006,5
108928,189091,6
108964,189131,4
108989,189167,4
109031,189212,5
109073,189280,5
109089,189286,5
109080,189291,5
109079,189266,4
109071,189281,5
109070,189280,5
109067,189275,5
109067,189257,5
109063,189254,4
109069,189250,5
109053,189236,5
109048,189239,5
109046,189233,5
109046,189232,4
109022,189203,5
109017,189202,5
109022,189199,5
109033,189220,5
109042,189217,4
109037,189222,5
109032,189238,5
109041,189216,5
109026,189206,4
109007,189169,4
109001,189140,5
108986,189134,5
108987,189147,5
108982,189143,4
109000,189154,5
109012,189166,5
109022,189175,5
109007,189151,5
108982,189126,4
108988,189125,5
109003,189149,5
109007,189137,5
108967,189096,5
108936,189050,4
108911,189024,5
108876,188970,5
108834,188916,5
108800,188858,5
108752,188796,5
108697,188742,4
108693,188713,5
108683,188711,5
108697,188726,5
108619,188734,4
108697,188726,5
108706,188740,5
108723,188759,5
108446,188750,4
108715,188724,4
108701,188724,5
108729,188752,5
108370,188751,5
108721,188742,4
108725,188725,5
108704,188719,5
108572,188679,5
108670,188656,5
108645,188642,4
108643,188630,5
108859,188609,5
108592,188530,5
108532,188471,5
108517,188449,4
108884,188432,6
108451,188366,4
108420,188299,5
108392,188287,5
108606,188248,4
108338,188192,5
108319,188170,5
108308,188143,5
108329,188070,5
108203,188007,4
108190,187986,5
108184,187983,5
108169,187809,5
108146,187929,4
108113,187883,4
108105,187882,5
108105,187568,5
108092,187846,5
108066,187829,5
108061,187819,4
108083,187480,5
108070,187833,5
108075,187813,4
108068,187816,4
108090,187874,5
108075,187821,5
108062,187803,5
108070,187832,5
108081,188150,4
108084,187832,5
108073,187814,5
108074,187807,5
108068,188216,5
108068,187799,4
108046,187775,5
108052,187777,5
108061,187948,5
108060,187782,4
108050,187752,4
108032,187750,5
108017,187756,5
108024,187737,5
108028,187753,5
108035,187747,4
108038,187753,5
108054,187782,5
108080,187801,6
108078,187807,3
108079,187811,5
108083,187822,5
108092,187836,5
108100,187827,5
108105,187831,4
108115,187878,5
108160,187900,5
108150,187895,5
108129,187861,5
108121,187845,4
108114,187843,5
108108,187856,5
108098,187838,5
108086,187816,5
108085,187826,4
108100,187831,5
108093,187834,5
108090,187831,5
108094,187825,4
108104,187839,5
108103,187828,4
108092,187818,5
108089,187816,5
108100,187825,6
108087,187818,3
108082,187804,5
108081,187810,5
108080,187811,5
108073,187796,4
108063,187783,5
108057,187788,5
108060,187770,5
108052,187743,5
108013,187693,4
107985,187667,5
107963,187641,5
107932,187594,5
107910,187557,5
107893,187550,4
107881,187524,5
107864,187497,5
107833,187467,5
107828,187448,5
107816,187425,4
107790,187376,6
107754,187322,4
107704,187255,5
107652,187179,4
107591,187091,6
107535,187026,3
107493,186945,5
107442,186915,5
107453,186932,4
107474,186959,5
107493,186997,5
107515,187043,5
107548,187083,5
107596,187171,4
107667,187254,5
107698,187290,5
107718,187336,5
107736,187337,5
107708,187305,4
107698,187268,5
107650,187234,5
107649,187241,5
107643,187241,5
107647,187230,4
107635,187216,5
107623,187209,6
107599,187163,4
107588,187134,4
107536,187059,4
107406,187032,5
107489,187028,5
107505,187039,5
107522,187061,4
107247,187060,5
107501,187032,5
107485,187036,5
107496,187058,5
107178,187097,4
107557,187136,5
107568,187154,5
107555,187139,5
107479,187114,5
107524,187080,4
107487,187031,5
107471,187028,5
107725,187024,5
107477,187029,5
107485,187021,4
107455,186998,5
107774,186906,5
107362,186859,6
107362,186883,4
107403,186944,4
107661,187028,5
107505,187089,5
107533,187124,5
107536,187100,4
107544,187050,4
107464,187026,5
107482,187068,5
107537,187175,5
107633,187105,4
107679,187343,5
107716,187379,5
107693,187342,5
107670,187007,5
107643,187302,4
107674,187349,5
107708,187398,5
107751,187107,5
107791,187520,5
107816,187542,5
107810,187524,4
107810,187599,5
107846,187634,5
107991,187830,6
108096,187991,3
108166,188394,5
108193,188088,5
108167,188029,5
108089,187915,5
108041,188255,4
108052,187915,5
108125,188003,5
108199,188118,8
108302,188403,1
108389,188400,5
108462,188517,5
108537,188589,5
108587,188694,5
108684,188816,4
108761,188900,5
108771,188878,5
108750,188873,5
108789,188906,5
108733,188820,4
108724,188828,6
108804,189002,4
109036,189326,5
109294,189701,5
109552,190044,4
109749,190270,5
109837,190379,5
109841,190354,5
109823,190359,5
109913,190500,4
110128,190844,5
110392,191183,5
110545,191365,5
110581,191394,4
110554,191337,4
110459,191201,5
110331,191028,5
110316,191060,5
110460,191269,4
110597,191474,5
110692,191591,5
110727,191617,5
110730,191613,5
110745,191639,4
110833,191812,5
111049,192137,6
111247,192363,4
111297,192410,5
111339,192506,4
111460,192668,5
111485,192704,5
111500,192721,5
111539,192817,5
111727,193123,4
112063,193650,5
112488,194196,5
112569,194197,5
112410,193968,5
112195,193660,4
112002,193416,5
111900,193289,5
111864,193259,5
111910,193345,4
111978,193414,4
112007,193465,5
112014,193447,5
111997,193449,5
112061,193575,4
112346,194055,5
112965,195069,5
114104,196691,6
115406,197750,4
115965,199150,4
116620,199909,5
116726,199945,5
116605,199783,5
116457,199561,5
116284,199346,4
116147,199173,5
116081,199075,5
115914,198777,5
115589,198311,5
115241,197869,4
115026,197635,5
114975,197592,5
114995,197638,5
115056,197722,5
115111,197785,4
115123,197804,5
115141,197801,5
115093,197736,5
115058,197709,5
115055,197681,4
115039,197649,5
114908,197661,5
115048,197671,5
115046,197656,4
115011,197599,5
114617,197473,5
114832,197356,5
114732,197194,5
114606,197042,4
114141,196959,5
114502,196911,5
114458,196857,5
114403,196793,5
114357,196738,4
114326,196682,5
114293,196663,5
114293,196650,5
114620,196663,5
114322,196677,4
114310,196662,6
114276,196617,4
114655,196586,5
114210,196522,4
114170,196457,5
114115,196387,4
114259,196349,5
114072,196338,5
114063,196352,4
114077,196354,5
114097,196319,5
114030,196290,5
114007,196240,5
113965,196179,4
113922,195897,5
113913,196128,5
113926,196133,5
113917,196125,5
113906,195748,4
113902,196103,5
113877,196077,5
113876,196061,5
113859,195743,5
113859,196047,4
113857,196030,5
113853,196027,5
113846,196182,5
113841,196023,5
113833,196008,4
113841,196012,6
113834,196403,4
113834,196001,5
113833,196001,4
113837,196027,4
113846,196352,5
113844,196044,5
113854,196031,5
113855,196027,4
113861,196143,5
113850,196022,5
113845,196017,5
113842,196029,5
113854,196044,4
113844,196042,5
113846,196028,5
113848,196029,5
113837,196011,5
113834,196021,4
113843,196024,5
113856,196044,5
113875,196059,5
113876,196059,5
113865,196042,4
113861,196035,5
113858,196034,5
113864,196043,5
113855,196025,4
113835,196026,4
113833,196024,5
113823,195998,5
113780,195940,5
113763,195913,4
113756,195921,5
113749,195897,5
113737,195891,5
113724,195887,5
113729,195883,4
113740,195887,5
113724,195886,5
113739,195881,5
113741,195892,5
113748,195895,4
113751,195898,5
113728,195876,5
113725,195875,5
113728,195873,5
113720,195859,4
113703,195834,5
113692,195816,5
113677,195804,5
113667,195793,5
113657,195778,4
113623,195736,5
113609,195723,5
113609,195704,5
113592,195668,4
113553,195642,4
113518,195583,5
113494,195557,5
113476,195541,5
113470,195512,4
113426,195475,5
113409,195437,5
113408,195427,5
113398,195424,5
113380,195389,4
113347,195338,5
113316,195287,5
113300,195273,5
113279,195249,5
113236,195208,5
113207,195157,3
113208,195152,5
113193,195134,5
113192,195131,5
113176,195129,4
113191,195142,5
113190,195131,5
113175,195109,5
113178,195101,4
113166,195100,4
113158,195083,5
113140,195053,5
113105,195029,5
113103,195031,4
113106,195014,5
113099,195007,5
113102,195004,5
113096,195002,5
113078,194991,4
113081,194978,5
113076,194982,6
113061,194957,4
112805,194903,5
112995,194859,4
112973,194818,7
112941,194775,3
112545,194720,5
112850,194662,5
112813,194614,4
112776,194567,5
112479,194516,5
112707,194468,5
112663,194404,5
112643,194387,4
112801,194373,5
112614,194345,5
112588,194306,5
112556,194295,4
112919,194255,5
112532,194225,5
112489,194170,5
112464,194131,5
112744,194119,4
112424,194105,5
112400,194060,5
112368,194010,6
112441,193979,4
112339,193975,4
112305,193935,5
112280,193910,5
112267,193770,5
112270,193886,5
112273,193896,4
112265,193891,5
112254,193562,5
112255,193856,5
112255,193874,5
112254,193866,4
112232,193463,5
112220,193845,5
112223,193825,5
112215,193816,4
112212,193762,4
112203,193800,5
112190,193773,5
112179,193777,5
112164,194040,5
112144,193721,4
112104,193673,5
112072,193617,5
112051,194009,6
112043,193575,3
112008,193537,5
111998,193512,5
111981,193704,5
111964,193471,5
111949,193450,4
111937,193451,5
111947,193514,5
111968,193466,5
111962,193473,5
111953,193472,4
111961,193469,5
111963,193476,5
111970,193480,5
111968,193470,5
111977,193472,4
111974,193494,5
111980,193501,5
111972,193475,5
111954,193467,4
111965,193458,6
111956,193472,4
111961,193472,5
111956,193454,5
111953,193470,6
111965,193486,3
111968,193476,5
111968,193464,5
111954,193458,5
111965,193466,4
111969,193458,5
111945,193450,5
111950,193454,5
111947,193458,5
111951,193466,4
111941,193443,5
111921,193429,5
111935,193422,5
111927,193410,5
111895,193379,4
111878,193363,5
111883,193371,5
111890,193380,5
111898,193388,4
111893,193373,4
111906,193396,6
111912,193401,4
111907,193387,5
111900,193389,4
111906,193402,5
111922,193405,5
111913,193391,5
111901,193393,5
111902,193400,4
111916,193396,5
111913,193403,5
111913,193404,5
111901,193386,5
111908,193407,4
111918,193418,5
111918,193404,5
111910,193390,5
111911,193400,5
111911,193392,4
111908,193374,5
111905,193376,5
111915,193389,5
111916,193401,5
111909,193392,4
111903,193378,5
111891,193374,6
111890,193380,4
111894,193381,4
111886,193373,5
111886,193367,5
111890,193385,5
111899,193384,5
111902,193379,4
111888,193368,5
111890,193369,5
111891,193368,5
111867,193347,5
111861,193323,4
111848,193319,5
111847,193296,5
111839,193292,5
111806,193267,5
111802,193268,4
111668,193235,5
111766,193194,5
111738,193161,5
111726,193149,5
111419,193144,4
111711,193125,5
111693,193098,5
111667,193077,6
111290,193065,3
111651,193051,4
111638,193029,5
111626,193039,5
111608,193031,5
111629,193034,4
111621,192992,5
111596,192974,5
111860,192927,5
111541,192897,5
111508,192844,4
111480,192835,5
111892,192851,5
111477,192827,5
111462,192783,5
111422,192738,4
111575,192702,5
111349,192648,5
111323,192621,5
111315,192599,5
111306,192548,5
111256,192516,4
111230,192483,5
111177,192412,5
111151,192148,5
111131,192350,4
111105,192306,5
111090,192295,5
111093,191944,5
111110,192318,4
111105,192302,4
111088,192272,5
111080,192032,5
111091,192292,5
111114,192316,5
111118,192332,4
111128,192523,5
111145,192361,5
111154,192359,5
111153,192380,4
111149,192745,5
111165,192366,5
111160,192365,5
111154,192353,5
111155,192637,4
111105,192276,62
111098,192267,6
111064,192276,1
111075,192245,3
111074,192246,5
111089,192260,5
111109,192286,5
111101,192282,4
111094,192256,5
111094,192256,5
111089,192265,5
111081,192238,5
111069,192220,4
111053,192212,5
111053,192188,6
111036,192183,4
111021,192145,5
110987,192105,4
110968,192097,5
110957,192063,5
110947,192046,5
110940,192040,5
110938,192027,4
110947,192050,5
110944,192043,5
110937,192021,5
110926,192001,4
110917,192001,4
110913,192002,5
110898,191979,5
110886,191965,5
110888,191977,4
110907,191989,5
110882,191959,5
110869,191919,5
110850,191907,5
110846,191899,4
110838,191877,5
110802,191842,5
110794,191846,6
110794,191840,4
110786,191827,4
110773,191801,5
110761,191775,5
110766,191777,5
110753,191773,5
110749,191755,4
110743,191747,5
110750,191764,5
110764,191769,5
110757,191766,4
110711,191707,4
110674,191664,5
110677,191671,5
110671,191653,5
110649,191615,4
110624,191583,5
110618,191587,5
110614,191576,5
110606,191553,5
110583,191520,5
110580,191518,4
110580,191525,5
110610,191538,5
110604,191534,5
110601,191542,4
110595,191544,5
110599,191554,5
110601,191540,5
110606,191535,5
110589,191515,4
110587,191527,5
110530,191517,5
110598,191531,5
110585,191530,5
110584,191521,4
110325,191519,5
110597,191521,5
110589,191516,5
110583,191510,4
110200,191477,4
110526,191436,5
110532,191428,5
110524,191434,5
110372,191440,4
110520,191426,6
110515,191428,4
110528,191429,5
110766,191436,5
110532,191434,4
110520,191410,5
110481,191357,5
110835,191313,5
110431,191321,5
110417,191286,4
110406,191268,5
110648,191271,5
110417,191279,5
110419,191288,5
110415,191273,4
110478,191256,5
110409,191265,5
110406,191247,5
110387,191226,4
110384,191043,4
110389,191229,5
110380,191225,5
110380,191220,5
110380,190895,4
110367,191210,5
110361,191183,6
110345,191158,4
110328,190775,5
110316,191138,4
110306,191120,5
110297,191105,5
110276,191156,5
110262,191063,5
110265,191058,4
110258,191050,5
110245,191399,5
110238,191028,5
110241,191021,5
110236,191021,4
110233,191407,5
110235,191002,5
110216,191000,5
110216,190985,5
110209,191127,4
110198,190952,5
110192,190934,5
110165,190918,6
110153,190926,3
110142,190886,4
110122,190860,5
110121,190850,5
110118,190861,5
110119,190849,4
110110,190841,5
110097,190834,5
110084,190816,5
110069,190784,5
110040,190765,4
110024,190745,5
110025,190736,5
110013,190711,5
109993,190698,5
109971,190677,4
109972,190668,5
109967,190671,5
109970,190665,5
109966,190671,5
109960,190651,5
109953,190646,4
109954,190631,5
109944,190617,5
109920,190600,6
109910,190592,3
109902,190583,5
109884,190545,5
109872,190508,5
109824,190454,4
109793,190412,5
109743,190340,5
109690,190271,5
109643,190204,5
109609,190143,4
109564,190104,5
109530,190048,5
109492,190001,5
109463,189965,5
109436,189936,4
109438,189930,5
109446,189946,5
109442,189954,5
109437,189925,5
109430,189932,4
109431,189937,6
109431,189917,4
109410,189913,5
109414,189911,5
109411,189907,6
109409,189914,3
109398,189889,5
109387,189877,5
109393,189879,4
109373,189881,4
109372,189860,5
109359,189844,5
109351,189840,5
109342,189815,4
109324,189785,5
109282,189750,5
109249,189697,5
109224,189666,5
109219,189652,4
109213,189641,5
109197,189623,5
109196,189606,5
109187,189608,5
109187,189609,4
109184,189609,5
109152,189562,6
109130,189513,4
109093,189483,5
109081,189480,4
109077,189473,5
109080,189472,5
109065,189440,5
109067,189437,5
109050,189417,4
109021,189399,5
109020,189397,5
108861,189391,5
109025,189395,4
109022,189371,5
108997,189356,5
108673,189327,5
108983,189343,5
108983,189333,4
108976,189323,5
108625,189338,5
108984,189349,5
108990,189333,5
108981,189327,4
109008,189299,5
108942,189284,5
108940,189273,6
108941,189276,4
109262,189281,4
108929,189266,5
108918,189233,5
108899,189231,5
109267,189224,5
108896,189218,4
108905,189222,5
108915,189226,5
109057,189233,5
108896,189212,4
108892,189199,4
108875,189178,5
108877,189113,5
108840,189127,5
108837,189125,4
108819,189112,5
108798,188821,5
108781,189046,5
108758,189035,5
108762,189021,5
108768,188663,4
108759,189027,5
108754,189018,5
108760,189025,6
108763,188869,3
108761,189033,5
108765,189040,5
108759,189035,5
108756,189256,5
108758,189032,4
108768,189033,5
108763,189023,5
108757,189429,5
108756,189015,4
108747,189013,4
108751,189011,5
108748,189242,5
108747,189003,5
108753,189025,4
108747,189002,5
108739,189056,5
108735,188989,5
108726,189009,5
108727,188989,4
108718,188973,6
108704,188961,4
108707,188933,5
108682,188905,5
108664,188885,4
108635,188854,5
108610,188817,5
108590,188803,5
108597,188804,5
108593,188818,4
108600,188815,5
108597,188817,5
108615,188828,5
108613,188824,4
108612,188827,4
108612,188818,5
108600,188820,5
108613,188832,5
108626,188846,4
108643,188863,5
108646,188861,5
108641,188855,5
108632,188853,5
108644,188863,4
108637,188865,5
108641,188871,6
108655,188897,4
108668,188897,5
108663,188907,4
108663,188881,5
108641,188864,5
108629,188844,5
108614,188831,5
108613,188828,4
108614,188836,5
108622,188835,5
108619,188831,5
108611,188827,5
108605,188830,4
108603,188816,5
108600,188814,5
108609,188824,5
108613,188825,4
108614,188845,5
108627,188836,5
108616,188840,5
108605,188824,5
108602,188819,4
108598,188825,5
108612,188849,5
108639,188872,6
108659,188894,4
108674,188901,4
108660,188913,5
108659,188901,5
108642,188869,5
108634,188877,5
108632,188868,4
108648,188882,5
108656,188913,5
108671,188940,5
108687,188943,5
108704,188957,4
108712,188977,5
108732,188994,5
108750,189026,5
108770,189075,4
108794,189115,4
108824,189123,5
108825,189142,5
108830,189149,5
108854,189191,5
108898,189251,4
108951,189330,5
108986,189393,5
109037,189452,5
109053,189488,4
108915,189487,5
109083,189503,5
109106,189550,5
109121,189568,5
108827,189571,4
109131,189583,5
109177,189679,5
109251,189781,5
108934,189822,5
109307,189852,4
109318,189851,5
109315,189862,5
109345,189896,5
109333,189887,4
109362,189942,4
109403,190013,5
109751,190046,5
109464,190085,5
109457,190069,4
109453,190067,6
109829,190059,4
109422,190028,5
109425,190050,5
109455,190072,4
109625,190114,5
109494,190149,5
109516,190165,5
109525,190170,5
109530,190134,4
109492,190141,5
109522,190187,5
109561,190273,5
109613,190094,5
109648,190364,4
109655,190370,5
109647,190371,5
109665,190037,5
109676,190404,4
109722,190483,4
109798,190583,5
109874,190506,5
109941,190781,5
109963,190802,4
109947,190780,5
109920,190968,6
109929,190768,4
109959,190830,5
110047,190963,4
110168,191537,5
110261,191272,5
110295,191301,5
110291,191287,5
110276,191528,4
110262,191277,5
110314,191335,5
110350,191401,5
110404,191525,5
110409,191450,4
110388,191445,5
110389,191422,5
110366,191414,5
110382,191446,4
110405,191476,4
110444,191522,5
110496,191610,5
110564,191680,5
110583,191715,4
110594,191714,9
110595,191720,1
110602,191759,6
110658,191824,4
110692,191861,4
110697,191869,5
110704,191862,5
110711,191888,5
110747,191936,5
110769,191972,4
110794,191999,5
110835,192061,5
110862,192084,5
110852,192083,5
110898,192126,4
110914,192170,5
110935,192190,5
110935,192189,5
110963,192248,5
111052,192380,4
111154,192502,5
111198,192543,5
111185,192529,5
111154,192485,5
111137,192455,4
111116,192459,5
111127,192480,5
111190,192561,5
111239,192624,4
111276,192641,5
111256,192629,5
111252,192624,5
111252,192630,5
111269,192646,4
111284,192676,5
111318,192727,5
111344,192764,5
111382,192796,5
111390,192815,4
111370,192768,5
111363,192793,5
111367,192795,5
111362,192803,5
111394,192846,4
111407,192862,5
111412,192856,5
111429,192890,5
111454,192921,4
111447,192916,6
111441,192895,4
111446,192912,5
111459,192937,5
111508,192999,4
111525,193016,5
111479,192914,5
111365,192770,5
111258,192647,5
111219,192588,4
111210,192585,5
111208,192578,5
111216,192589,5
111231,192617,5
111273,192673,4
111308,192716,5
111307,192735,5
111348,192770,5
111347,192785,5
111346,192760,4
111326,192746,5
111335,192762,5
111263,192808,5
111399,192857,4
111423,192881,4
111417,192880,6
111129,192888,4
111420,192875,5
111417,192890,4
111456,192930,5
111114,192967,5
111495,192983,5
111476,192943,5
111453,192925,4
111373,192892,5
111414,192861,5
111373,192792,5
111335,192762,5
111592,192746,4
111328,192760,5
111331,192768,5
111347,192781,5
111747,192797,5
111361,192814,4
111386,192837,5
111383,192846,5
111585,192856,6
111405,192852,3
111390,192853,4
111393,192848,5
111432,192842,5
111391,192848,5
111405,192858,4
111408,192845,5
111400,192642,5
111403,192850,5
111396,192828,5
111390,192824,4
111371,192473,5
111377,192799,5
111357,192786,5
111336,192738,5
111297,192395,4
111279,192656,5
111257,192628,5
111228,192575,5
111177,192675,5
111157,192468,5
111125,192430,4
111103,192395,5
111075,192743,5
111040,192309,6
111031,192287,3
111022,192278,5
111005,192570,5
110984,192248,5
110994,192247,4
111008,192274,5
111026,192364,5
110990,192228,5
110960,192197,5
110941,192167,4
110961,192190,5
110957,192173,5
110932,192151,5
110921,192170,5
110948,192177,4
110959,192192,5
110964,192192,5
110967,192202,5
110971,192208,5
110976,192215,4
110973,192204,6
110979,192204,4
110976,192214,5
110992,192206,5
110997,192222,6
110995,192217,3
110991,192215,5
110995,192217,5
110994,192214,4
110986,192209,4
110979,192201,5
110991,192212,5
110992,192204,5
110984,192203,4
110979,192196,5
110964,192189,5
110968,192194,5
110971,192200,5
110959,192174,4
110950,192155,5
110962,192164,5
110960,192173,5
110956,192166,5
110960,192168,4
110954,192156,5
110945,192143,6
110925,192132,4
110912,192094,5
110884,192065,4
110875,192055,5
110882,192065,5
110890,192063,5
110879,192062,4
110883,192058,4
110885,192052,5
110898,192074,5
110896,192077,5
110908,192076,4
110915,192100,5
110931,192128,5
110936,192138,5
110941,192139,5
110939,192131,4
110942,192140,5
110956,192158,5
110970,192172,5
110966,192187,5
110969,192193,4
110985,192202,5
111009,192214,5
111012,192214,6
111000,192223,4
111001,192214,4
111004,192212,5
111003,192214,5
110985,192204,5
110998,192208,4
110998,192221,4
111020,192233,5
111026,192234,5
111021,192232,5
111015,192228,4
111018,192228,5
111019,192229,5
111004,192228,5
111005,192231,5
111012,192231,4
110935,192236,5
111037,192251,5
111031,192253,5
110994,192202,5
110700,192175,5
110956,192141,4
110946,192116,5
110934,192117,5
110564,192106,6
110927,192107,3
110933,192101,5
110923,192108,5
110832,192102,5
110930,192108,5
110935,192130,4
110959,192137,5
111215,192165,5
110969,192174,5
110993,192194,4
110983,192188,4
111379,192176,5
110976,192165,5
110978,192179,5
110979,192177,4
111185,192162,5
110973,192176,5
110989,192189,5
110998,192200,5
111063,192204,4
111008,192205,6
111013,192206,4
111022,192212,5
111010,192013,5
111006,192197,4
111013,192210,5
111010,192220,5
111011,191877,5
111006,192203,5
111003,192191,4
110996,192212,5
111004,191849,5
111008,192201,5
111017,192197,4
111004,192209,5
111004,192293,4
111010,192215,5
111011,192200,5
110998,192193,4
110994,192557,5
111004,192214,5
111017,192224,5
111006,192213,5
111003,192561,4
111010,192216,5
111018,192218,6
111032,192227,4
111026,192357,5
111028,192229,4
111038,192233,5
111042,192254,5
111031,192259,5
111049,192258,5
111061,192284,4
111073,192304,5
111082,192310,5
111080,192304,5
111094,192312,5
111094,192326,4
111094,192339,5
111095,192328,5
111093,192326,5
111102,192318,4
111112,192327,4
111100,192322,5
111084,192305,5
111082,192315,5
111090,192312,4
111101,192309,5
111081,192300,5
111077,192319,6
111086,192319,4
111099,192312,4
111089,192310,5
111086,192306,5
111085,192314,5
111095,192323,5
111098,192306,4
111089,192308,5
111090,192327,5
111111,192341,5
111121,192353,5
111113,192337,4
111087,192301,5
111070,192283,5
111056,192258,5
111029,192219,4
111016,192215,4
111017,192216,5
111024,192221,5
111022,192220,5
111011,192197,5
110986,192185,4
110992,192201,5
111001,192218,5
111023,192216,5
111042,192264,4
111054,192283,5
111066,192290,5
111079,192299,5
111082,192295,5
111063,192273,4
111065,192280,5
111063,192280,5
111065,192273,5
111060,192266,5
111071,192266,4
111057,192277,5
111058,192280,5
111070,192279,5
111063,192275,5
111048,192250,4
111042,192239,5
111032,192225,5
111010,192201,5
111006,192191,4
110981,192167,5
110967,192153,4
110973,192150,5
110985,192168,5
110979,192167,4
110982,192160,5
110977,192143,5
110978,192141,5
110974,192143,5
110952,192117,4
110931,192085,5
110933,192086,5
110918,192092,5
110931,192096,5
110929,192095,4
110918,192072,5
110695,192076,5
110904,192050,5
110892,192033,5
110881,192025,4
110527,192030,5
110891,192025,5
110879,192032,5
110881,192026,5
110555,192007,4
110859,191997,6
110855,191984,4
110849,191988,5
110979,191981,4
110852,191973,5
110843,191960,5
110839,191973,5
111199,191971,5
110834,191951,4
110811,191927,5
110802,191919,5
111122,191911,5
110789,191894,5
110781,191898,4
110784,191892,5
110894,191911,5
110785,191908,5
110794,191902,5
110779,191879,4
110771,191758,5
110755,191831,5
110734,191834,5
110727,191816,5
110707,191505,4
110691,191753,5
110656,191723,6
110648,191715,4
110643,191324,4
110641,191688,4
110627,191675,5
110619,191659,5
110614,191575,5
110618,191672,4
110621,191670,5
110621,191661,5
110612,191922,5
110612,191647,5
110590,191645,4
110594,191631,5
110592,192007,5
110567,191594,5
110547,191586,5
110551,191552,4
110515,191742,5
110479,191476,5
110444,191435,5
110435,191424,6
110429,191471,3
110401,191359,5
110359,191319,5
110344,191285,5
110319,191267,5
110307,191248,4
110315,191247,5
110317,191249,5
110336,191274,5
110340,191272,4
110326,191258,4
110306,191235,5
110299,191216,5
110291,191224,5
110294,191216,6
110293,191196,3
110260,191178,5
110257,191167,5
110242,191146,5
110231,191141,4
110227,191129,5
110220,191136,5
110216,191129,5
110212,191113,5
110185,191093,5
110176,191059,4
110159,191033,5
110126,191010,5
110128,190988,5
110117,190989,4
110118,190975,5
110111,190967,5
110100,190961,5
110077,190940,5
110059,190881,4
110003,190821,5
109978,190791,5
109961,190765,5
109951,190750,4
109912,190682,5
109865,190651,5
109856,190626,5
109850,190615,5
109855,190612,4
109847,190622,5
109865,190638,5
109877,190656,4
109883,190668,5
109885,190662,4
109881,190665,6
109883,190664,3
109898,190666,5
109898,190673,5
109888,190689,4
109896,190683,5
109905,190688,5
109911,190692,5
109912,190688,5
109907,190690,4
109911,190684,5
109900,190691,5
109913,190694,5
109921,190723,4
109936,190712,4
109926,190719,5
109934,190726,5
109922,190708,5
109903,190701,4
109913,190697,5
109905,190706,5
109913,190710,6
109910,190711,4
109919,190711,4
109914,190699,5
109919,190699,5
109906,190693,5
109897,190680,5
109893,190676,4
109903,190691,5
109910,190713,5
109934,190732,5
109861,190768,5
109945,190774,4
109954,190786,5
109959,190780,5
109681,190788,5
109974,190813,5
109978,190810,4
109967,190796,5
109617,190810,5
109989,190838,5
109999,190864,5
110032,190900,4
109947,190945,5
110122,191031,5
110171,191085,6
110194,191117,3
110445,191126,5
110189,191120,5
110180,191098,5
110167,191074,5
110542,191092,4
110172,191088,5
110167,191087,5
110150,191063,5
110339,191022,5
110126,191044,4
110150,191064,5
110157,191082,5
110235,191115,5
110204,191147,5
110230,191179,4
110232,191184,5
110244,191000,5
110235,191201,5
110247,191210,4
110241,191209,5
110260,190904,4
110276,191263,5
110281,191282,5
110313,191304,6
110334,190997,3
110365,191395,5
110391,191427,5
110408,191461,5
110468,191621,4
110533,191617,5
110569,191666,5
110593,191717,5
110615,192090,5
110621,191742,4
110625,191752,5
110637,191772,5
110690,192224,5
110743,191928,5
110772,191992,4
110798,191992,5
110804,192133,5
110789,191972,5
110791,191990,5
110802,192024,4
110846,192089,6
110882,192129,4
110921,192165,5
110917,192150,4
110885,192127,4
110863,192092,5
110844,192073,5
110850,192075,5
110851,192076,4
110830,192056,5
110822,192043,5
110828,192056,5
110826,192040,5
110820,192050,4
110848,192091,5
110902,192191,5
110974,192263,5
111012,192305,5
111016,192323,4
111015,192330,5
111020,192346,5
111037,192358,5
111048,192367,5
111084,192430,4
111124,192483,5
111167,192536,6
111187,192572,4
111210,192600,5
111213,192606,4
111240,192655,5
111310,192746,5
111424,192908,5
111521,193025,4
111565,193085,5
111588,193121,5
111606,193141,5
111597,193144,5
111601,193120,4
111589,193134,5
111610,193168,5
111654,193216,5
111679,193249,5
111707,193274,4
111735,193325,5
111766,193358,5
111783,193386,5
111822,193459,5
111873,193535,4
111928,193586,5
111951,193611,5
111961,193629,6
111946,193614,4
111932,193590,4
111917,193556,5
111905,193555,5
111908,193573,5
111937,193620,4
111970,193643,4
111988,193677,5
111993,193684,5
112001,193719,5
112020,193719,4
112046,193774,5
112118,193859,5
112168,193944,5
112194,193973,5
112186,193946,4
112154,193914,5
112147,193881,5
112105,193823,5
112083,193800,5
112066,193780,5
112037,193751,4
112023,193751,5
112030,193741,5
112020,193737,6
112033,193744,3
112034,193779,5
112072,193802,5
112080,193815,5
112090,193827,5
111912,193830,4
112080,193818,5
112068,193801,5
112072,193788,5
111738,193777,4
112046,193767,4
112028,193740,5
112030,193721,5
111652,193724,5
112013,193714,4
112010,193704,5
111990,193679,5
112048,193680,5
111983,193691,5
111988,193688,4
111958,193650,6
112301,193634,4
111946,193632,5
111946,193630,5
111944,193613,4
112302,193601,5
111929,193605,5
111930,193600,5
111918,193580,5
112035,193555,4
111891,193530,5
111876,193528,5
111866,193496,5
111864,193413,5
111821,193459,4
111832,193451,5
111824,193443,5
111818,193179,5
111802,193430,4
111789,193420,5
111797,193414,5
111797,193038,5
111793,193401,5
111787,193389,4
111783,193388,5
111783,193219,6
111784,193382,4
111782,193373,5
111775,193368,4
111767,193590,5
111771,193368,5
111772,193358,5
111751,193352,5
111762,193753,4
111766,193358,5
111763,193359,5
111752,193334,5
111741,193570,5
111731,193297,4
111729,193321,5
111735,193308,5
111727,193374,5
111731,193291,4
111724,193307,4
111715,193284,5
111717,193288,5
111706,193271,5
111703,193248,4
111671,193224,5
111672,193214,5
111670,193215,6
111656,193196,4
111638,193182,4
111627,193152,5
111613,193135,5
111612,193124,5
111597,193114,5
111580,193091,4
111554,193036,5
111537,193018,5
111508,192965,5
111485,192933,5
111457,192918,4
111442,192884,5
111441,192909,5
111427,192861,5
111415,192857,5
111399,192831,4
111380,192804,5
111369,192777,5
111350,192771,5
111341,192752,5
111344,192740,4
111333,192752,5
111333,192718,5
111303,192677,5
111265,192619,4
111207,192566,5
111188,192519,5
111179,192521,5
111151,192475,5
111119,192433,4
111108,192433,5
111105,192412,5
111104,192416,5
111093,192409,5
111094,192403,4
111101,192406,5
111109,192410,5
111098,192423,5
111106,192400,5
111106,192408,4
111102,192400,5
111103,192409,5
111091,192385,5
111101,192398,4
111097,192399,5
111088,192385,4
111086,192376,5
111078,192359,5
111072,192370,4
111079,192376,5
111080,192378,5
111068,192363,5
111063,192346,5
111055,192340,4
111051,192337,5
111048,192324,5
111043,192321,5
111038,192323,5
111042,192343,4
111039,192337,5
111043,192323,5
111039,192329,5
111038,192326,5
111036,192311,4
111025,192286,5
110998,192258,5
110991,192250,5
110983,192230,5
110977,192230,4
110972,192218,6
110943,192218,4
110980,192231,5
110992,192234,4
110977,192246,4
110750,192250,5
111012,192277,5
111008,192283,5
111011,192275,4
110649,192264,5
111003,192261,5
111001,192252,5
111006,192260,5
110755,192253,4
111001,192261,5
111011,192275,5
111024,192291,5
111196,192299,5
111026,192299,4
111035,192298,5
111040,192305,5
111416,192303,5
111018,192289,5
111023,192279,4
111027,192283,5
111315,192284,5
111033,192285,5
111021,192285,5
111020,192279,4
111124,192282,5
111023,192281,5
111024,192279,5
111021,192274,4
111014,192150,4
111018,192290,5
111022,192273,5
111024,192282,5
111023,191989,4
111019,192290,5
111018,192290,5
111016,192279,5
111010,191910,5
111013,192282,4
111025,192298,5
111037,192310,5
111047,192269,5
111044,192309,5
111040,192317,4
111049,192313,5
111061,192619,5
111055,192324,5
111050,192314,5
111065,192346,4
111074,192769,5
111091,192364,5
111071,192343,5
111041,192291,4
111024,192478,4
111023,192282,5
111018,192269,5
111017,192265,5
111005,192309,4
111020,192276,5
111017,192280,5
111027,192280,5
111025,192294,5
111041,192315,4
111051,192328,6
111062,192331,4
111066,192342,5
111077,192359,5
111087,192376,6
111084,192366,3
111076,192351,9
111085,192361,1
111097,192380,5
111104,192385,4
111100,192392,5
111105,192407,5
111140,192433,5
111144,192451,5
111144,192436,4
111139,192420,5
111135,192418,5
111132,192421,5
111138,192417,4
111127,192416,4
111118,192410,5
111123,192415,5
111122,192408,5
111127,192411,4
111118,192402,5
111132,192411,6
111131,192426,4
111139,192420,5
111131,192423,4
111123,192401,7
111112,192409,3
111122,192395,5
111112,192397,5
111110,192389,4
111112,192387,5
111118,192407,5
111143,192416,5
111134,192424,5
111143,192429,4
111148,192447,5
111159,192453,5
111175,192468,5
111166,192470,5
111167,192450,4
111162,192442,5
111153,192441,5
111157,192442,5
111157,192460,4
111169,192467,4
111190,192498,5
111202,192503,6
111205,192531,4
111226,192530,4
111216,192525,5
111215,192521,5
111215,192526,5
111220,192523,5
111223,192524,4
111219,192533,5
111224,192538,5
111230,192541,5
111236,192537,5
111231,192541,4
111226,192526,5
111226,192540,5
111224,192538,5
111219,192522,5
111216,192532,4
111227,192536,5
111227,192536,5
111220,192524,5
111210,192515,5
111217,192518,4
111216,192523,5
111213,192520,5
111122,192511,6
111202,192514,3
111199,192519,5
111214,192508,5
110925,192518,5
111213,192525,5
111227,192517,4
111214,192513,5
110820,192485,5
111174,192459,5
111160,192456,5
111159,192440,4
111045,192433,5
111147,192421,5
111144,192435,5
111160,192437,5
111401,192441,4
111155,192445,5
111166,192456,5
111180,192484,5
111583,192505,5
111213,192525,5
111220,192525,4
111230,192536,5
111446,192551,5
111234,192546,6
111237,192549,3
111238,192548,5
111300,192545,5
111238,192553,5
111237,192545,4
111235,192541,5
111229,192362,5
111240,192549,5
111230,192539,5
111234,192539,4
111242,192216,5
111234,192544,5
111228,192523,5
111229,192529,5
111211,192144,4
111222,192518,5
111225,192523,5
111230,192531,5
111235,192623,5
111226,192541,4
111224,192541,6
111226,192534,4
111226,192883,5
111218,192517,5
111214,192515,4
111213,192510,5
111213,192885,5
111209,192507,5
111211,192513,4
111225,192522,5
111237,192661,5
111217,192529,5
111222,192532,5
111220,192534,4
111237,192548,5
111233,192537,5
111227,192533,5
111222,192529,5
111219,192521,4
111221,192529,5
111219,192525,5
111228,192553,5
111250,192557,5
111254,192573,4
111265,192580,5
111259,192571,6
111264,192590,4
111272,192589,5
111266,192575,4
111253,192559,5
111242,192565,5
111248,192554,5
111244,192553,4
111235,192551,4
111246,192551,5
111229,192552,5
111230,192523,5
111213,192519,4
111205,192500,5
111191,192476,5
111164,192452,5
111167,192446,5
111164,192434,4
111139,192415,5
111127,192407,5
111115,192392,5
111114,192381,5
111099,192364,4
111081,192340,5
111058,192319,5
111051,192301,6
111062,192308,4
111052,192296,4
111027,192257,5
110975,192179,5
110935,192143,5
110905,192100,5
110866,192058,4
110840,192009,5
110796,191959,5
110776,191941,5
110744,191878,4
110712,191842,4
110688,191811,5
110672,191825,5
110701,191819,5
110676,191808,4
110678,191786,5
110636,191741,5
110620,191714,5
110598,191689,5
110576,191659,5
110563,191633,4
110548,191629,5
110535,191595,5
110513,191563,5
110458,191494,4
110421,191443,5
110414,191435,5
110394,191416,5
110392,191397,5
110368,191382,4
110348,191351,5
110320,191319,5
110303,191296,5
110291,191279,5
110291,191289,4
110290,191292,5
110301,191302,5
110301,191280,5
110287,191262,4
110259,191250,5
110273,191267,5
110291,191277,5
110300,191281,5
110105,191271,4
110268,191238,6
110248,191218,4
110238,191220,5
109915,191229,5
110270,191258,4
110281,191277,5
110290,191286,5
109932,191271,5
110287,191263,5
110256,191249,4
110263,191249,5
110355,191256,5
110259,191242,5
110251,191236,5
110232,191218,4
110537,191157,5
110172,191124,5
110177,191134,5
110217,191210,4
110596,191262,4
110295,191300,5
110305,191319,5
110320,191354,5
110454,191347,4
110338,191357,5
110341,191398,6
110372,191410,4
110391,191352,5
110389,191441,4
110396,191414,5
110373,191418,5
110359,191101,5
110336,191363,5
110344,191389,4
110386,191457,5
110420,191114,5
110434,191526,5
110447,191551,5
110469,191571,5
110483,191469,4
110497,191622,5
110535,191668,5
110543,191672,5
110543,191922,4
110539,191671,5
110547,191678,5
110564,191696,6
110575,192121,3
110593,191764,4
110645,191841,5
110691,191882,5
110682,192106,5
110642,191823,4
110587,191728,5
110528,191637,5
110485,191661,5
110455,191582,5
110446,191557,4
110441,191572,5
110450,191576,5
110443,191562,5
110444,191566,5
110458,191596,4
110499,191646,5
110529,191706,5
110605,191809,5
110665,191876,5
110677,191901,4
110695,191907,5
110703,191927,5
110699,191915,5
110687,191926,5
110745,192005,4
110810,192074,5
110848,192135,5
110906,192196,5
110945,192262,4
110961,192298,5
111033,192408,5
111102,192502,5
111183,192629,5
111266,192748,4
111352,192840,5
111403,192908,5
111468,193023,5
111633,193282,5
111865,193596,4
112065,193834,5
112258,194111,5
112483,194422,5
112653,194606,5
112745,194753,4
112868,194933,5
112958,195068,5
113034,195148,5
113074,195213,5
113115,195255,5
113096,195242,4
113121,195243,5
113168,195345,5
113299,195542,4
113446,195742,4
113564,195892,5
113711,196115,5
113878,196362,5
114090,196642,4
114271,196887,5
114397,197033,5
114400,197008,5
114315,196865,5
114214,196752,4
114183,196750,5
114267,196842,5
114332,196925,5
114352,196943,5
114323,196905,4
114328,196929,5
114419,197100,5
114589,197312,5
114627,197359,5
114575,197282,4
114532,197228,6
114550,197270,3
114605,197335,5
114625,197343,4
114607,197321,4
114580,197295,5
114594,197313,5
114610,197324,5
114633,197379,4
114687,197440,5
114718,197477,5
114741,197506,5
114778,197571,5
114818,197626,4
114894,197744,5
114858,197887,5
115075,198004,5
115200,198194,5
115385,198460,4
115221,198637,5
115588,198673,5
115585,198658,6
115571,198647,4
115152,198628,4
115529,198602,5
115520,198618,5
115598,198692,5
115676,198832,4
115799,198974,4
115865,199053,5
115907,199087,5
116267,199151,5
116020,199259,4
116107,199401,5
116246,199565,5
116769,199685,5
116402,199743,5
116417,199756,4
116411,199759,5
116588,199745,5
116406,199750,5
116434,199778,5
116461,199810,5
116525,199869,4
116592,200031,5
116719,200196,5
116798,200298,6
116830,200082,3
116821,200326,5
116800,200294,5
116816,200334,5
116884,200050,4
116938,200508,4
116954,200528,5
116994,200567,5
117000,200327,5
116942,200489,4
116887,200397,5
116853,200361,5
116820,200567,5
116835,200333,5
116843,200358,4
116892,200428,5
116937,200948,5
116971,200520,5
116972,200548,5
117034,200634,4
117147,201079,6
117321,201042,4
117530,201300,5
117662,201436,5
117765,201661,6
117879,201733,3
117962,201816,5
117992,201827,5
117952,201770,5
117882,201680,4
117829,201625,5
117812,201592,5
117788,201559,5
117761,201535,4
117749,201525,4
117767,201538,5
117777,201586,5
117825,201645,5
117913,201772,4
118028,201935,7
118122,202032,3
118156,202058,5
118146,202030,5
118115,201999,4
118096,201960,5
118074,201916,6
118047,201899,4
118044,201921,5
118045,201903,4
118034,201879,5
118023,201865,5
118016,201868,5
118006,201856,5
118001,201860,4
118005,201869,5
118000,201864,5
118001,201868,5
118006,201864,4
118001,201848,4
117979,201835,5
117941,201803,5
117933,201764,5
117896,201714,4
117843,201637,5
117781,201545,5
117711,201450,5
117643,201369,5
117589,201284,4
117544,201224,5
117525,201215,5
117507,201178,6
117462,201113,4
117387,200982,4
117251,200812,5
117117,200634,5
117042,200555,5
117035,200558,5
117048,200586,4
117052,200596,5
117088,200648,5
117164,200751,5
117254,200839,5
117261,200806,4
117202,200711,5
117148,200626,5
117087,200531,5
117008,200398,4
116892,200226,4
116752,200047,5
116639,199914,5
116577,199861,5
116554,199817,5
116496,199724,4
116420,199626,5
116350,199536,5
116300,199478,7
116283,199475,2
116273,199439,5
116249,199431,5
116232,199417,5
116239,199426,5
116234,199401,4
116199,199366,5
116154,199323,5
116128,199281,5
116022,199248,5
116070,199206,4
116059,199180,5
116048,199178,5
115753,199162,5
116037,199148,5
115982,199055,4
115908,198963,5
115458,198912,5
115824,198854,5
115763,198761,4
115698,198680,6
115510,198593,4
115591,198563,5
115562,198479,5
115494,198392,4
115656,198226,5
115288,198092,5
115202,197959,5
115117,197860,5
115484,197771,4
114993,197685,5
114926,197605,5
114887,197548,5
115087,197493,5
114794,197408,4
114736,197342,5
114688,197275,5
114714,197225,5
114623,197172,5
114588,197147,4
114582,197127,5
114594,196943,5
114602,197149,5
114594,197141,4
114579,197119,4
114564,196746,6
114568,197104,4
114550,197065,5
114538,197050,5
114524,196666,4
114508,197019,5
114494,196989,5
114455,196943,5
114421,197000,4
114383,196836,5
114348,196789,5
114298,196731,5
114264,197060,5
114236,196656,4
114213,196616,5
114195,196580,5
114146,196881,5
114092,196435,5
114039,196382,4
114018,196334,5
113986,196442,5
113944,196246,5
113918,196207,5
113900,196203,4
113898,196197,5
113868,196136,6
113813,196071,4
113769,196027,4
113733,195959,5
113683,195887,5
113640,195848,5
113623,195815,5
113616,195785,4
113577,195750,5
113535,195684,5
113486,195618,5
113458,195581,5
113437,195564,4
113433,195543,5
113416,195544,5
113418,195552,5
113400,195509,5
113366,195455,4
113335,195413,5
113320,195419,5
113322,195403,5
113301,195391,5
113284,195338,4
113269,195328,5
113263,195310,5
113253,195295,5
113233,195260,4
113192,195228,4
113171,195189,5
113157,195163,5
113120,195110,5
113075,195077,4
113067,195068,5
113088,195076,5
113082,195078,5
113063,195070,5
113063,195057,4
113065,195076,5
113098,195111,5
113110,195128,5
113097,195116,5
113074,195082,4
113065,195068,5
113036,195024,5
113002,194988,5
112975,194965,5
112988,194991,5
113017,195019,4
113003,194998,5
112978,194959,5
112960,194979,5
112996,195000,4
113007,195022,5
113004,195010,5
112990,195019,5
113002,195021,4
113013,195027,4
113044,195083,5
113100,195168,5
113149,195227,5
113170,195243,4
113205,195306,5
113266,195401,5
113349,195507,5
113368,195487,5
113383,195513,4
113386,195514,5
113371,195506,5
113338,195456,5
113305,195407,5
113293,195392,4
113306,195414,6
113308,195441,4
113326,195436,5
113293,195375,5
113209,195272,4
113155,195221,5
113142,195192,5
113096,195133,5
113057,195089,4
112830,195059,4
113049,195089,5
113051,195091,5
113040,195068,5
112704,195112,4
113093,195148,5
113123,195188,5
113136,195216,5
112760,195193,5
113113,195170,4
113095,195146,5
113069,195117,5
113159,195092,5
113034,195068,5
113003,195024,4
112951,194962,5
113279,194915,6
112879,194870,4
112840,194791,5
112773,194709,4
113064,194608,5
112613,194501,5
112580,194469,5
112582,194476,5
112729,194484,4
112583,194466,5
112569,194465,5
112581,194460,5
112589,194372,4
112569,194438,4
112558,194420,5
112573,194426,5
112561,194127,5
112479,194288,4
112354,194092,5
112233,193952,5
112159,193478,5
112112,193810,5
112122,193837,4
112178,193931,5
112239,193867,5
112255,194014,5
112247,193990,5
112195,193924,4
112175,194157,5
112208,193956,5
112239,193983,5
112174,193913,5
112155,194304,4
112155,193891,5
112183,193937,5
112229,193962,5
112225,194197,4
112131,193785,4
111904,193464,5
111682,193184,5
111557,193121,5
111507,192998,4
111503,193018,5
111591,193162,5
111819,193487,5
112085,193836,5
112232,193993,5
112231,193982,4
112225,193971,5
112219,193962,5
112287,194110,5
112600,194581,4
113014,195136,5
113315,195517,5
113488,195723,5
113488,195678,5
113298,195320,4
112900,194780,5
112672,194543,5
112648,194533,5
112709,194645,5
112839,194801,4
112934,194956,5
113082,195192,5
113141,195136,5
112876,194756,4
112731,194594,4
112709,194578,6
112695,194582,4
112764,194704,5
112902,194915,4
113069,195130,7
113082,195069,3
112746,194584,5
112471,194262,5
112359,194129,4
112263,193962,5
112119,193810,5
112082,193790,5
112139,193874,5
112157,193903,4
112114,193790,5
111973,193629,5
111907,193559,5
111905,193564,5
112023,193746,4
112171,193944,5
112335,194170,5
112392,194231,5
112440,194316,5
112398,194161,4
112125,193767,5
111878,193429,6
111766,193351,4
111818,193440,4
111884,193548,5
111994,193716,5
112015,193685,5
112026,193652,5
111980,193599,4
111901,193506,5
111798,193398,5
111821,193428,5
111926,193615,5
112127,193887,4
112299,194077,5
112252,193977,5
112067,193715,5
112018,193714,5
112122,193843,4
112134,193812,5
112099,193779,5
112068,193696,5
111911,193454,5
111692,193133,4
111362,192654,5
111119,192422,5
111182,192605,6
111572,193158,3
111905,193520,4
111724,193161,5
111338,192758,5
111186,192469,5
111106,192421,4
111243,192653,5
111133,192895,5
111612,193151,5
111633,193118,5
111524,192966,4
111045,192840,5
111348,192746,5
111335,192732,5
111290,192669,5
111129,192671,4
111287,192670,5
111305,192682,5
111332,192722,5
111575,192735,5
111256,192596,5
111138,192459,4
111091,192411,5
111528,192437,5
111175,192505,6
111226,192595,3
111304,192701,5
111529,192609,5
111174,192483,5
111163,192489,4
111144,192471,5
111220,192511,5
111261,192677,5
111443,192916,5
111586,193055,4
111468,192685,5
111324,192688,5
111197,192494,5
111057,192350,5
111042,191993,4
111123,192464,5
111248,192647,5
111344,192787,5
111427,192537,5
111638,193274,4
111688,193237,6
111579,193030,4
111387,192861,5
111282,192652,5
111259,192680,4
111332,192806,5
111596,193598,5
111981,193753,5
112269,194160,4
112543,194505,4
112573,194803,5
112246,193920,5
111913,193500,5
111705,193268,4
111675,193407,5
111765,193429,5
111857,193515,5
111801,193397,5
111650,193203,4
111554,193098,5
111624,193252,5
111815,193559,5
112077,193921,5
112299,194165,4
112237,194011,5
112077,193804,6
111954,193650,4
111898,193558,5
111881,193561,4
111913,193624,5
112013,193800,5
112196,194058,9
112389,194335,0
112511,194405,4
112335,194106,5
112008,193661,5
111810,193411,5
111715,193343,4
111733,193400,5
111912,193711,5
112239,194138,5
112427,194344,5
112390,194279,4
112364,194258,5
112386,194281,5
112421,194343,5
112510,194445,5
112573,194569,4
112698,194757,5
112824,194898,5
112890,194978,6
112923,195007,4
112947,195042,4
112968,195098,5
112997,195142,5
113043,195184,5
113061,195229,5
113066,195236,4
113059,195234,5
113080,195257,5
113091,195260,5
113090,195272,4
113115,195324,5
113172,195399,5
113270,195526,5
113380,195681,5
113535,195874,4
113630,196002,5
113698,196066,5
113763,196172,5
113836,196293,5
113910,196385,5
113992,196457,4
114048,196535,5
114113,196636,5
114187,196747,5
114267,196852,4
114361,196990,5
114449,197103,5
114538,197222,5
114602,197296,5
114630,197335,4
114673,197385,5
114708,197438,5
114743,197482,5
114766,197516,4
114794,197561,4
114851,197635,5
114903,197706,5
114947,197762,5
114984,197802,4
115019,197850,5
115054,197894,5
115092,197944,5
115121,197980,5
115165,198051,4
115243,198143,6
115285,198200,4
115325,198261,5
115127,198345,5
115444,198415,4
115496,198482,5
115567,198588,5
115273,198727,5
115815,198932,5
115986,199152,4
116097,199266,5
115847,199287,5
116114,199274,5
116103,199237,5
116084,199219,4
116268,199232,5
116111,199252,5
116128,199273,5
116128,199284,4
116559,199287,5
116143,199301,5
116172,199349,5
116218,199396,5
116569,199463,4
116330,199543,5
116396,199654,6
116443,199703,4
116570,199746,5
116516,199790,4
116551,199847,5
116607,199919,5
116676,199834,5
116723,200073,5
116806,200178,4
116869,200248,5
116905,199957,5
116908,200292,5
116906,200293,5
116906,200276,4
116886,199825,5
116850,200212,5
116846,200212,5
116861,200219,5
116858,200227,4
116862,200236,5
116863,200224,5
116866,200240,5
116881,200610,3
116900,200274,5
116906,200279,5
116915,200277,7
116913,200759,3
116907,200283,4
116895,200267,5
116881,200237,5
116881,200452,5
116880,200253,5
116926,200319,4
116967,200369,5
116989,200424,5
117003,200393,5
116999,200399,5
117010,200416,4
117016,200417,5
117025,200442,5
117044,200462,5
117082,200514,4
117118,200564,4
117144,200575,5
117167,200616,5
117189,200654,5
117214,200680,5
117242,200715,4
117261,200737,5
117312,200798,5
117356,200858,5
117370,200873,4
117383,200902,5
117412,200908,5
117422,200944,5
117441,200946,5
117452,200996,4
117481,201023,5
117520,201075,5
117552,201100,5
117556,201107,5
117537,201087,4
117527,201072,5
117514,201047,5
117508,201044,5
117488,201026,5
117476,200998,4
117457,200973,5
117440,200945,5
117397,200913,5
117390,200883,4
117365,200859,5
117363,200871,4
117375,200878,5
117367,200870,5
117372,200874,4
117371,200862,5
117358,200867,5
117372,200873,5
117373,200860,5
117359,200855,4
117360,200855,5
117376,200885,5
117379,200875,5
117372,200874,5
117375,200884,4
117387,200892,5
117393,200872,5
117360,200845,5
117337,200810,5
117318,200798,4
117322,200798,5
117301,200793,5
117295,200780,5
117289,200779,5
117289,200784,4
117291,200776,6
117289,200773,4
117302,200783,5
117323,200799,4
117340,200834,5
117355,200843,5
117342,200836,5
117347,200841,5
117365,200855,4
117356,200846,5
117344,200843,5
117343,200827,5
117347,200840,5
117341,200838,4
117345,200830,5
117336,200828,5
117343,200832,5
117338,200836,5
117331,200812,4
117182,200819,5
117337,200817,5
117328,200820,5
117332,200812,5
116991,200814,4
117324,200809,5
117319,200804,5
117329,200810,5
116897,200802,4
117329,200801,4
117326,200792,5
117310,200776,5
117260,200756,5
117283,200743,4
117258,200720,5
117252,200702,5
117572,200704,5
117253,200710,5
117253,200709,4
117262,200741,5
117723,200747,5
117274,200731,5
117260,200725,5
117268,200726,5
117481,200731,4
117282,200746,5
117272,200721,5
117272,200741,6
117333,200749,3
117286,200753,5
117284,200752,5
117284,200749,5
117279,200492,5
117285,200753,4
117282,200751,5
117287,200749,5
117297,200364,5
117310,200757,4
117286,200764,4
117281,200760,5
117290,200429,5
117270,200732,5
117262,200726,4
117260,200721,6
117254,200884,4
117258,200711,5
117246,200720,5
117250,200700,4
117246,201120,6
117234,200684,4
117230,200687,5
117241,200691,5
117244,201047,6
117238,200680,3
117226,200672,5
117227,200672,5
117226,200801,5
117231,200671,4
117225,200660,5
117220,200655,5
117203,200664,5
117207,200651,4
117195,200649,4
117195,200629,5
117192,200646,5
117201,200637,5
117197,200644,4
117207,200641,5
117183,200630,5
117179,200611,5
117172,200598,5
117170,200588,4
117169,200594,5
117174,200596,6
117177,200595,4
117165,200585,5
117158,200587,4
117168,200566,5
117136,200536,5
117095,200483,5
117067,200448,5
117050,200434,4
117023,200399,5
117005,200373,5
116993,200363,5
116986,200361,5
116973,200346,4
116984,200354,5
116983,200361,5
116983,200358,5
116997,200370,4
117007,200372,4
117004,200365,5
117011,200388,5
117019,200393,5
117034,200404,4
117022,200402,5
117040,200414,5
117030,200395,6
117031,200395,4
117026,200389,4
117032,200406,5
117039,200413,5
117028,200404,5
117035,200412,5
117029,200426,4
117050,200416,5
117037,200421,5
117028,200405,5
117030,200398,5
117029,200412,4
117049,200432,5
117041,200432,5
117055,200446,5
117070,200467,5
117078,200484,4
117073,200462,5
117065,200443,5
117037,200422,5
117047,200417,5
117029,200406,4
116999,200360,5
116982,200334,5
116953,200322,6
116938,200297,3
116922,200274,5
116891,200222,5
116844,200171,5
116818,200132,5
116790,200090,4
116728,200000,5
116599,199886,5
116660,199938,5
116654,199924,5
116618,199882,4
116602,199871,5
116607,199878,5
116612,199896,5
116616,199900,5
116624,199901,4
116636,199921,5
116446,199964,5
116703,200015,5
116720,200036,5
116727,200016,5
116347,200023,4
116729,200022,5
116709,199992,5
116697,199985,6
116282,199960,3
116684,199955,5
116673,199955,5
116667,199934,5
116742,199898,4
116646,199891,5
116621,199884,5
116614,199879,5
116973,199843,5
116577,199809,4
116538,199782,5
116512,199727,5
116883,199682,5
116432,199647,5
116421,199629,4
116405,199591,5
116530,199551,5
116353,199539,5
116359,199536,5
116365,199561,4
116388,199487,6
116360,199540,4
116357,199539,5
116369,199534,4
116356,199220,4
116330,199500,5
116298,199464,5
116291,199462,5
116298,199064,4
116300,199468,5
116264,199398,5
116186,199303,5
116086,198977,5
116003,199077,4
115930,198984,5
115838,198870,5
115786,199052,5
115767,198792,5
115764,198780,4
115732,198753,5
115718,199179,5
115681,198665,5
115619,198592,5
115589,198549,4
115568,198839,5
115557,198522,6
115540,198484,4
115511,198463,5
115499,198551,4
115502,198464,5
115508,198443,5
115454,198378,5
115346,198243,4
115258,198130,4
115172,198010,5
115080,197886,5
114995,197791,5
114956,197738,4
114931,197711,5
114908,197693,5
114887,197669,5
114850,197626,5
114840,197601,4
114805,197566,5
114765,197486,7
114716,197424,3
114668,197355,5
114599,197288,4
114579,197272,5
114590,197304,5
114624,197353,6
114670,197374,4
114655,197361,4
114611,197304,5
114588,197262,5
114530,197190,5
114438,197061,5
114377,196986,4
114318,196885,5
114256,196842,5
114204,196762,5
114158,196707,4
114135,196675,4
114119,196661,5
114080,196590,5
113985,196456,5
113862,196275,4
113715,196115,5
113616,195994,5
113527,195886,5
113442,195757,5
113344,195645,5
113317,195607,4
113290,195579,5
113264,195526,5
113216,195462,5
113152,195368,4
113083,195277,5
112990,195134,5
112878,194991,5
112770,194864,5
112715,194772,4
112625,194639,5
112510,194490,5
112442,194401,5
112394,194341,4
112350,194269,4
112312,194190,5
112245,194106,5
112206,194069,5
112182,194044,4
112147,193988,5
112133,193973,5
112153,194009,5
112173,194029,5
112172,194021,4
112127,193969,6
112071,193884,4
112049,193867,5
112036,193829,5
111995,193780,4
111940,193718,5
111901,193668,5
111876,193618,5
111773,193433,5
111564,193107,4
111363,192867,5
111265,192742,5
111277,192746,5
111263,192794,5
111320,192808,4
111335,192831,5
111341,192851,5
111057,192826,5
111265,192729,4
111212,192661,4
111161,192610,5
110741,192580,5
111105,192546,5
111111,192569,4
111148,192622,5
110976,192700,6
111258,192741,4
111256,192744,5
111238,192722,4
111413,192691,5
111164,192598,5
111101,192526,5
111053,192487,5
111447,192488,4
111054,192493,5
111054,192498,5
111049,192522,5
111357,192526,5
111068,192522,4
111041,192487,5
110999,192421,5
111057,192374,5
110915,192339,5
110894,192289,4
110829,192188,5
110739,191901,5
110665,191981,5
110651,191985,4
110658,192006,4
110676,191700,5
110710,192077,5
110745,192118,5
110765,192135,5
110770,191746,4
110791,192174,5
110800,192196,5
110817,192202,5
110805,192159,4
110800,192204,5
110813,192224,5
110824,192239,5
110819,192529,5
110812,192236,4
110832,192242,5
110847,192266,5
110856,192720,5
110879,192338,5
110921,192402,4
110972,192474,5
110997,192711,5
111027,192526,5
111057,192591,5
111095,192632,4
111103,192694,5
111104,192650,5
111099,192632,5
111092,192650,4
111096,192637,5
111088,192652,5
111097,192653,5
111078,192625,5
111065,192613,4
111061,192617,5
111050,192580,5
111014,192530,5
110964,192461,5
110916,192404,4
110908,192422,5
110924,192437,5
110915,192427,5
110889,192377,5
110806,192270,4
110756,192195,5
110704,192131,5
110679,192123,5
110675,192131,5
110685,192145,5
110715,192202,4
110730,192188,5
110694,192132,5
110644,192076,4
110629,192073,4
110678,192134,5
110716,192169,5
110734,192182,5
110746,192223,4
110769,192253,5
110789,192274,5
110778,192285,5
110808,192288,5
110799,192301,4
110809,192300,5
110816,192309,5
110818,192335,5
110839,192354,5
110862,192385,4
110893,192428,5
110942,192484,5
110984,192548,4
111009,192580,5
111059,192646,4
111108,192712,7
111147,192758,3
111194,192827,5
111220,192843,5
111242,192878,4
111266,192903,5
111283,192942,5
111313,192960,5
111309,192963,4
111298,192938,4
111283,192915,5
111277,192908,5
111269,192909,5
111289,192921,4
111304,192945,5
111314,192945,5
111318,192961,5
111329,192976,5
111347,193002,4
111382,193040,5
111415,193097,5
111456,193143,6
111500,193197,4
111530,193263,4
111588,193318,5
111612,193348,5
111656,193397,5
111685,193460,5
111718,193505,4
111761,193552,5
111803,193604,5
111850,193663,5
111875,193714,5
111807,193739,4
111928,193760,5
111925,193769,5
111942,193780,5
111627,193785,4
111948,193797,5
111959,193800,5
111956,193814,5
111566,193827,5
111966,193822,5
111962,193813,4
111960,193803,5
111849,193812,5
111956,193805,6
111963,193815,3
111982,193845,5
112266,193875,5
112043,193931,5
112051,193940,5
112029,193909,4
112441,193884,5
112013,193903,5
112029,193912,5
112041,193926,5
112301,193958,4
112078,193976,5
112081,193993,5
112120,194042,5
112227,194112,4
112227,194199,4
112304,194324,5
112370,194404,5
112428,194254,5
112442,194489,4
112472,194523,6
112498,194546,4
112522,194215,5
112542,194607,5
112576,194669,6
112609,194711,3
112633,194328,5
112640,194745,5
112649,194736,5
112633,194736,5
112628,194824,4
112621,194714,5
112630,194729,5
112648,194783,5
112665,195157,4
112659,194779,5
112654,194782,5
112661,194788,5
112673,195217,5
112702,194848,4
112733,194886,5
112749,194917,5
112781,195103,5
112801,194991,4
112816,195005,4
112817,194983,6
112803,194994,4
112803,194974,5
112814,195001,4
112824,195019,5
112853,195061,5
112899,195125,5
112949,195164,5
112962,195205,4
112964,195207,5
112982,195223,5
113001,195245,5
113036,195305,5
113078,195347,4
113105,195397,5
113168,195469,5
113199,195501,5
113216,195538,5
113247,195571,4
113265,195605,5
113290,195629,5
113305,195652,5
113312,195639,4
113318,195664,4
113332,195681,5
113352,195694,6
113341,195692,4
113336,195694,4
113352,195691,5
113349,195711,5
113348,195703,5
113364,195729,5
113397,195760,4
113418,195799,5
113432,195810,5
113438,195810,5
113437,195820,5
113443,195831,4
113463,195835,5
113473,195879,5
113490,195901,5
113517,195926,5
113527,195932,4
113540,195963,5
113561,195988,5
113573,196010,5
113591,196024,5
113592,196039,4
113608,196068,5
113645,196116,5
113710,196200,6
113749,196244,3
113734,196211,4
113706,196177,5
113691,196159,5
113666,196122,5
113674,196133,4
113666,196134,5
113649,196126,5
113659,196134,5
113664,196127,5
113674,196145,4
113686,196171,5
113731,196210,5
113764,196283,5
113809,196315,5
113828,196349,4
113864,196392,5
113888,196420,5
113924,196457,5
113932,196488,5
113959,196539,5
114009,196589,4
114047,196651,5
114087,196708,5
114140,196773,5
114198,196857,4
114284,196967,5
114362,197057,5
114419,197132,5
114491,197255,4
114581,197377,5
114495,197489,5
114742,197561,5
114760,197584,5
114788,197611,4
114466,197650,5
114858,197703,5
114905,197783,5
114965,197834,5
114548,197843,4
114977,197834,5
114973,197857,5
114987,197874,5
115086,197946,5
115103,198046,4
115221,198210,6
115371,198408,4
115853,198576,5
115617,198718,5
115739,198869,4
115841,199010,5
116367,199116,5
116046,199270,5
116165,199443,4
116371,199722,4
116747,199986,5
116709,200117,5
116734,200141,5
116726,200131,4
116753,200097,5
116743,200148,5
116788,200210,5
116873,200327,5
116934,200140,4
116985,200494,5
117061,200578,5
117119,200666,5
117201,200359,5
117284,200885,4
117362,200979,5
117484,201146,6
117636,201094,4
117713,201450,5
117756,201480,4
117755,201490,5
117775,201756,5
117839,201626,5
117921,201735,5
118028,201895,4
118174,202534,5
118314,202280,5
118434,202419,5
118511,202502,4
118538,202858,4
118549,202549,5
118588,202595,5
118625,202634,5
118662,202780,4
118705,202712,5
118702,202720,5
118690,202714,5
118689,202717,5
118672,202691,4
118650,202674,5
118653,202648,5
118623,202626,6
118587,202574,4
118545,202511,4
118517,202491,5
118516,202497,5
118506,202507,5
118514,202499,9
118511,202493,0
118498,202454,5
118491,202465,5
118453,202428,5
118464,202463,4
118487,202473,4
118485,202475,5
118504,202469,5
118497,202489,5
118488,202463,4
118462,202428,5
118410,202366,5
118352,202259,5
118282,202205,5
118248,202145,5
118230,202133,4
118230,202143,5
118251,202165,5
118261,202178,5
118280,202218,4
118293,202211,5
118279,202197,5
118264,202214,5
118285,202212,5
118292,202217,4
118272,202188,5
118243,202147,5
118212,202119,5
118191,202105,5
118201,202086,4
118166,202049,5
118133,202034,5
118146,202016,5
118135,202007,4
118101,201968,4
118079,201931,5
118071,201944,5
118082,201944,5
118083,201942,4
118074,201954,6
118086,201972,4
118117,202008,5
118136,202026,5
118145,202039,4
118120,201990,5
118075,201936,5
118022,201858,5
117975,201807,5
117945,201789,4
117936,201755,5
117914,201732,5
117904,201726,5
117908,201736,5
117899,201713,4
117891,201701,5
117877,201687,5
117856,201654,5
117799,201580,5
117724,201493,4
117662,201402,5
117618,201343,5
117595,201317,5
117564,201294,4
117554,201273,5
117512,201217,6
117488,201189,4
117446,201140,5
117386,201034,4
117297,200910,5
117199,200809,5
116912,200750,5
117132,200721,5
117101,200681,4
117081,200646,5
116651,200604,5
116999,200541,5
116941,200479,5
116928,200471,4
116587,200462,5
116908,200446,5
116904,200413,5
116896,200422,5
117042,200411,4
116862,200371,5
116827,200323,5
116780,200253,5
117135,200181,3
116669,200103,4
116629,200068,5
116602,200041,5
116950,200020,5
116596,200035,4
116596,200029,5
116604,200032,5
116733,200045,5
116608,200054,5
116634,200090,4
116659,200112,5
116691,200022,5
116715,200194,5
116749,200227,5
116774,200271,4
116821,200002,5
116841,200350,5
116852,200355,5
116853,200350,5
116850,199929,5
116848,200355,4
116864,200359,5
116887,200405,5
116928,200388,5
116951,200490,3
116965,200502,5
116970,200500,5
116972,200817,5
116958,200485,4
116940,200451,5
116920,200442,5
116917,200894,5
116917,200428,5
116925,200438,4
116908,200422,5
116905,200643,5
116897,200403,5
116904,200414,5
116900,200406,4
116892,200448,5
116877,200358,5
116861,200348,5
116865,200343,5
116860,200358,4
116889,200391,6
116913,200428,4
116937,200465,5
116966,200513,5
116998,200534,6
117011,200555,3
117020,200541,5
117012,200538,5
117012,200539,4
117025,200556,4
117032,200564,5
117024,200552,5
117017,200538,5
117041,200579,4
117085,200646,5
117106,200671,5
117115,200669,5
117097,200661,5
117094,200639,4
117079,200623,5
117079,200621,5
117071,200609,5
117067,200597,5
117060,200575,4
117041,200571,5
117046,200559,6
117021,200523,4
116997,200503,5
116967,200473,4
116952,200433,5
116934,200414,5
116930,200394,5
116915,200398,5
116912,200392,4
116914,200404,5
116930,200397,5
116923,200396,5
116918,200386,4
116921,200380,4
116922,200396,5
116911,200378,5
116889,200317,5
116838,200255,4
116782,200188,5
116745,200150,5
116736,200147,5
116707,200112,5
116673,200060,4
116642,200016,5
116599,199971,5
116584,199943,6
116577,199950,4
116597,199970,4
116614,200001,5
116649,200040,5
116684,200099,5
116726,200120,5
116726,200104,4
116688,200077,5
116647,200009,5
116634,199990,5
116615,199968,5
116604,199972,4
116604,199960,5
116601,199964,5
116620,199991,5
116630,199983,4
116624,199983,5
116611,199965,5
116581,199928,5
116566,199900,5
116552,199895,5
116554,199896,4
116540,199896,5
116555,199915,5
116565,199926,6
116466,199936,3
116590,199935,5
116572,199928,5
116565,199927,5
116262,199949,5
116599,199966,4
116619,199984,5
116616,199987,5
116216,200023,5
116665,200064,5
116682,200073,4
116677,200053,5
116549,200029,5
116624,199987,5
116588,199952,4
116581,199932,4
116874,199932,5
116575,199939,5
116587,199947,5
116591,199957,4
117057,199983,6
116635,200002,4
116647,200023,5
116646,200024,5
116893,200017,6
116632,200008,3
116631,199999,5
116635,199996,5
116684,199986,5
116625,200012,4
116653,200044,5
116690,200077,5
116694,199877,5
116682,200085,5
116667,200043,4
116618,199977,5
116593,199589,5
116594,199966,5
116575,199929,5
116519,199868,4
116481,199410,5
116462,199814,5
116458,199795,5
116447,199771,5
116399,199792,4
116336,199624,6
116287,199555,4
116230,199483,5
116159,199797,4
116132,199358,5
116067,199289,5
116072,199287,5
116077,199721,5
116096,199322,4
116095,199317,5
116069,199275,5
116004,199353,5
115957,199138,5
115947,199126,4
115945,199134,5
115974,199177,5
115970,199160,5
115964,199148,5
115952,199128,4
115941,199117,5
115932,199108,5
115929,199098,5
115924,199087,4
115910,199073,4
115910,199073,5
115916,199083,6
115945,199113,4
115952,199126,4
115978,199158,5
115991,199188,5
116021,199203,5
116027,199212,5
116023,199212,4
115990,199169,5
115990,199159,5
115994,199159,5
116001,199169,5
115992,199167,4
116007,199186,5
116025,199206,5
116039,199224,5
116023,199206,5
116019,199190,4
116012,199196,5
116018,199223,5
116038,199227,5
116042,199235,5
116036,199231,4
116044,199250,5
116055,199254,5
116037,199249,6
116024,199212,3
115994,199172,4
115976,199159,5
115976,199157,5
115969,199166,5
115982,199184,4
115980,199168,5
115990,199187,5
115995,199192,5
116001,199202,5
116002,199209,4
115995,199195,5
115983,199183,5
115978,199175,5
115971,199154,5
115958,199140,4
115960,199146,5
115953,199143,5
115972,199179,5
115996,199198,5
116003,199212,5
115979,199185,4
115963,199167,5
115957,199148,5
115958,199165,4
115954,199146,4
115923,199108,5
115894,199083,5
115889,199059,5
115891,199076,4
115873,199057,5
115885,199076,5
115889,199075,5
115860,199046,5
115824,198988,4
115768,198919,5
115716,198852,5
115682,198806,5
115657,198761,5
115633,198741,4
115620,198734,5
115600,198721,5
115603,198713,5
115595,198694,5
115605,198706,4
115381,198689,6
115601,198712,4
115612,198719,5
115624,198727,5
115268,198756,4
115667,198783,5
115681,198804,5
115679,198794,5
115253,198764,4
115639,198723,4
115598,198701,5
115562,198660,5
115671,198673,5
115574,198676,4
115603,198720,5
115630,198746,5
116008,198738,5
115607,198727,5
115631,198743,4
115673,198794,5
116078,198843,5
115729,198889,5
115739,198908,5
115751,198904,4
115882,198887,5
115728,198865,6
115699,198826,4
115681,198803,5
115683,198714,4
115655,198795,5
115676,198812,5
115680,198828,5
115700,198545,5
115705,198852,4
115707,198842,5
115719,198881,5
115759,198520,5
115785,198973,4
115819,199013,4
115856,199061,5
115881,198931,5
115907,199126,5
115938,199144,4
115932,199130,5
115898,199374,5
115899,199099,5
115875,199092,5
115882,199089,4
115871,199531,5
115880,199093,5
115883,199106,5
115908,199126,5
115919,199416,4
115938,199181,5
115965,199205,5
115963,199209,5
115979,199292,5
115992,199244,4
116018,199277,5
116037,199298,5
116038,199308,5
116022,199290,4
116010,199265,4
116007,199253,5
115982,199229,5
115976,199214,5
115967,199205,4
115966,199217,5
115969,199234,5
115984,199252,7
115997,199274,3
116006,199291,5
116019,199300,4
116004,199267,5
115971,199255,5
115940,199206,5
115912,199146,4
115884,199121,5
115874,199097,5
115872,199103,5
115905,199159,5
115974,199259,4
116069,199376,5
116146,199481,5
116227,199572,5
116255,199594,5
116268,199626,4
116257,199609,5
116198,199523,5
116136,199433,5
116081,199393,4
116070,199341,4
116059,199355,5
116071,199360,5
116069,199374,5
116077,199379,4
116083,199371,6
116064,199357,4
116053,199352,5
116061,199370,5
116076,199368,4
116089,199403,5
116131,199441,5
116134,199458,5
116151,199466,5
116159,199463,4
116141,199451,5
116116,199415,5
116110,199410,5
116116,199423,5
116124,199437,4
116139,199457,5
116182,199508,5
116201,199520,5
116188,199520,5
116201,199528,4
116210,199530,5
116217,199551,5
116245,199598,5
116287,199641,4
116308,199676,5
116332,199689,5
116334,199695,5
116346,199712,5
116386,199779,4
116433,199848,5
116497,199937,5
116568,200033,5
116665,200152,5
116736,200245,4
116797,200310,5
116830,200357,5
116834,200363,5
116838,200376,5
116866,200394,4
116879,200403,5
116871,200415,5
116841,200421,5
116890,200419,5
116899,200431,4
116942,200517,5
116744,200619,5
117067,200674,6
117088,200702,3
117117,200734,4
116764,200788,5
117219,200862,5
117253,200897,5
117282,200945,4
117116,201027,5
117404,201122,5
117488,201217,5
117558,201322,5
117841,201372,4
117650,201470,5
117745,201569,5
117812,201658,5
118306,201724,5
117914,201792,4
117973,201860,5
118024,201937,5
118347,201961,5
118070,201980,5
118089,202020,5
118116,202057,4
118243,202107,5
118179,202146,5
118227,202201,6
118265,202250,3
118323,202137,5
118350,202353,5
118368,202392,5
118402,202419,4
118443,202102,4
118464,202502,5
118472,202501,5
118467,202515,5
118469,202101,4
118500,202554,5
118510,202578,5
118530,202594,5
118550,202656,5
118589,202673,4
118635,202712,5
118632,202727,5
118644,203121,5
118645,202751,5
118657,202745,4
118659,202750,6
118641,203199,4
118652,202741,5
118669,202756,5
118674,202765,10
118679,202969,5
118687,202796,5
118692,202812,5
118693,202802,10
118693,202833,5
118669,202763,5
118698,202824,10
118698,202824,5
118717,202824,5
118737,202871,10
118756,202892,5
118726,202849,3
118663,202810,0
118630,202751,2
118600,202687,5
118584,202658,4
118561,202627,5
118527,202588,6
118494,202555,4
118481,202507,5
118443,202454,4
118400,202427,5
118379,202391,5
118360,202388,5
118357,202373,5
118351,202349,4
