RED,IR,EKG,TIME
41153,78335,9
41158,78324,5
41138,78323,5
41135,78324,8
41142,78336,5
41148,78313,5
41147,78301,8
41116,78309,5
41146,78300,5
41138,78306,8
41139,78294,5
41110,78272,5
41125,78274,5
41101,78235,8
41101,78235,5
41094,78260,5
41119,78242,8
41100,78199,5
41083,78198,5
41089,78200,5
41113,78195,8
41081,78182,5
41030,78162,5
41047,78141,8
41050,78131,5
41035,78121,5
40981,78013,11
40969,78014,5
40968,77975,5
40968,77990,8
40969,77994,5
40966,78001,5
40971,77975,5
40957,78008,8
40974,78017,5
40978,78025,5
40984,78020,8
40981,78041,5
40993,78052,5
40999,78042,8
40999,78042,5
41010,78071,5
41016,78048,5
40988,78029,8
40944,77990,5
40925,77937,5
40904,77882,8
40888,77869,5
40893,77855,5
40878,77855,5
40877,77841,8
40876,77860,5
40897,77865,5
40926,77926,8
40926,77926,5
40895,77944,5
40922,77963,8
40947,77974,5
40962,78008,5
40969,78012,5
40983,78021,8
40986,78042,5
41002,78056,5
41028,78102,13
41028,78102,5
41025,78105,5
41027,78117,8
41018,78114,5
41036,78125,5
41036,78150,8
41048,78171,5
41050,78151,5
41050,78161,8
41053,78167,5
41070,78166,5
41049,78157,5
41049,78157,8
41055,78160,5
41035,78149,5
41038,78137,8
41035,78148,5
41041,78137,5
41048,78133,5
41035,78100,8
41042,78106,5
41037,78133,5
41065,78157,8
41065,78157,5
41061,78174,5
41071,78169,8
41083,78188,5
41071,78192,5
41088,78213,5
41101,78228,8
41093,78234,5
41105,78246,5
41109,78257,8
41119,78270,5
41115,78282,5
41118,78282,5
41132,78300,8
41132,78300,5
41140,78299,5
41137,78313,8
41168,78304,5
41145,78311,5
41131,78297,8
41143,78307,0
41140,78304,4
41144,78304,5
41136,78292,5
41132,78293,4
41126,78277,4
41114,78263,5
41107,78255,6
41107,78251,4
41101,78234,4
41093,78221,5
41086,78200,5
41074,78202,5
41071,78190,5
41067,78181,4
41061,78178,5
41052,78173,5
41063,78173,5
41060,78178,5
41061,78175,4
41055,78189,5
41071,78191,5
41075,78182,5
41068,78193,5
41056,78192,4
41072,78186,5
41065,78183,5
41069,78177,5
41079,78170,5
41069,78179,4
41050,78131,5
41013,78067,5
41010,78042,6
40982,78027,3
40973,78013,5
40966,78000,5
40983,78007,5
40980,78027,5
40990,78044,4
41003,78061,5
41019,78074,5
41016,78113,5
41029,78132,5
41047,78153,4
41068,78165,5
41077,78194,5
41094,78220,5
41105,78252,5
41120,78253,4
41125,78285,5
41132,78311,5
41157,78330,5
41161,78324,4
41172,78352,5
41162,78375,4
41178,78385,5
41181,78378,5
41188,78408,6
41194,78419,3
41204,78433,5
41214,78462,5
41224,78461,5
41238,78484,4
41249,78519,5
41261,78536,5
41253,78524,5
41261,78508,5
41254,78519,4
41263,78540,5
41258,78508,5
41255,78521,5
41259,78523,5
41256,78522,4
41253,78510,5
41255,78504,5
41247,78509,5
41244,78517,4
41244,78511,4
41242,78504,6
41253,78513,4
41261,78515,5
41256,78520,4
41251,78529,5
41268,78539,5
41274,78560,5
41281,78583,5
41291,78584,4
41304,78616,5
41319,78636,5
41333,78659,5
41346,78687,5
41356,78704,4
41367,78724,5
41372,78741,5
41387,78755,5
41387,78762,5
41399,78770,4
41408,78782,5
41413,78788,5
41413,78802,5
41420,78807,4
41417,78814,4
41419,78807,5
41409,78801,6
41409,78794,4
41401,78775,4
41384,78765,5
41377,78742,5
41381,78739,5
41375,78721,5
41373,78713,4
41356,78706,5
41348,78704,5
41352,78700,5
41359,78714,5
41360,78703,4
41369,78717,5
41361,78729,5
41372,78734,5
41374,78731,5
41373,78728,4
41372,78732,5
41381,78739,5
41373,78741,5
41375,78730,5
41365,78723,4
41364,78719,5
41340,78658,5
41306,78609,6
41300,78588,3
41291,78579,5
41280,78569,5
41283,78566,5
41289,78574,5
41287,78585,4
41294,78591,5
41306,78609,5
41315,78622,5
41320,78631,5
41328,78658,4
41346,78689,5
41360,78718,5
41376,78742,5
41388,78777,5
41410,78801,4
41426,78837,5
41449,78872,5
41460,78906,5
41486,78925,4
41492,78948,5
41524,78978,4
41514,78997,5
41530,79012,5
41544,79027,4
41548,79046,5
41562,79066,5
41564,79072,5
41566,79093,5
41584,79101,4
41594,79133,5
41615,79163,5
41601,79164,5
41617,79169,5
41617,79160,4
41619,79177,5
41599,79165,5
41624,79178,5
41621,79173,5
41632,79182,4
41607,79177,5
41627,79170,5
41620,79161,5
41622,79164,4
41616,79157,4
41605,79146,6
41601,79145,4
41601,79144,5
41624,79142,4
41607,79156,5
41619,79165,5
41616,79162,5
41648,79177,5
41627,79196,4
41636,79204,5
41651,79232,5
41663,79249,5
41676,79280,5
41678,79293,4
41700,79323,5
41716,79337,5
41723,79365,5
41729,79372,5
41746,79398,4
41746,79389,5
41751,79418,5
41758,79413,5
41745,79401,4
41745,79378,4
41740,79393,5
41735,79379,6
41723,79371,4
41720,79354,4
41718,79351,5
41710,79341,5
41709,79321,5
41704,79350,5
41692,79330,4
41701,79337,5
41698,79329,5
41712,79364,5
41712,79344,5
41716,79348,4
41715,79345,5
41717,79377,5
41734,79376,5
41738,79383,5
41743,79396,4
41742,79408,5
41744,79387,5
41720,79349,5
41697,79312,5
41683,79303,4
41681,79286,5
41673,79274,5
41677,79259,5
41674,79271,4
41672,79269,5
41667,79280,5
41680,79277,5
41680,79292,5
41686,79296,4
41685,79302,5
41691,79320,5
41704,79328,5
41714,79345,5
41724,79371,4
41724,79384,5
41737,79404,5
41751,79419,5
41765,79441,5
41772,79463,4
41783,79469,5
41793,79487,5
41807,79499,5
41806,79520,4
41802,79520,6
41814,79539,4
41821,79546,5
41823,79540,5
41823,79540,4
41828,79553,5
41825,79542,5
41829,79562,5
41833,79578,5
41839,79561,4
41821,79548,5
41823,79559,5
41821,79539,5
41822,79537,5
41816,79537,4
41819,79544,5
41814,79521,5
41812,79515,5
41801,79511,5
41797,79491,4
41780,79487,5
41775,79470,5
41779,79459,5
41761,79446,4
41758,79430,5
41748,79424,6
41748,79416,4
41735,79410,5
41736,79408,4
41739,79409,5
41738,79405,5
41738,79397,5
41741,79397,5
41744,79406,4
41743,79401,5
41748,79418,5
41748,79415,5
41749,79429,5
41743,79418,4
41746,79427,5
41756,79426,5
41751,79431,5
41744,79424,5
41743,79422,4
41744,79402,5
41732,79390,5
41727,79374,5
41701,79351,4
41699,79327,5
41684,79296,5
41671,79271,5
41650,79238,5
41633,79213,4
41617,79189,5
41610,79172,5
41597,79170,5
41598,79147,5
41593,79153,4
41584,79127,5
41581,79125,5
41584,79126,5
41551,79111,5
41576,79113,4
41576,79109,5
41569,79116,5
41551,79117,5
41579,79115,5
41564,79084,5
41527,79002,4
41487,78941,5
41466,78917,5
41447,78895,6
41435,78854,3
41435,78833,5
41410,78823,5
41405,78814,5
41408,78806,4
41423,78793,5
41395,78782,5
41385,78774,5
41378,78756,5
41386,78759,4
41369,78753,5
41373,78756,5
41372,78760,5
41384,78758,5
41376,78767,4
41373,78769,5
41373,78758,5
41383,78767,5
41377,78767,5
41386,78764,4
41396,78778,6
41389,78755,4
41378,78775,5
41379,78771,4
41376,78772,7
41375,78749,3
41382,78764,5
41376,78765,5
41380,78774,4
41388,78777,5
41408,78787,5
41393,78778,5
41381,78776,5
41380,78799,4
41385,78765,5
41386,78764,5
41380,78767,5
41383,78784,5
41383,78749,4
41372,78740,5
41359,78730,5
41351,78732,5
41351,78701,4
41344,78692,4
41331,78679,5
41324,78665,6
41316,78640,7
41294,78632,1
41296,78611,5
41258,78595,5
41278,78588,5
41276,78577,5
41268,78568,4
41268,78557,5
41265,78559,5
41254,78558,5
41265,78545,5
41258,78557,4
41264,78557,5
41258,78552,5
41259,78551,5
41263,78555,5
41263,78556,4
41265,78556,5
41262,78553,5
41263,78559,5
41260,78553,5
41258,78558,4
41258,78553,5
41275,78558,5
41263,78556,6
41261,78555,3
41264,78557,5
41261,78556,5
41262,78548,5
41267,78557,5
41255,78552,4
41267,78545,5
41265,78545,5
41261,78547,5
41257,78527,5
41256,78528,4
41251,78528,5
41243,78512,5
41234,78506,5
41236,78499,5
41239,78493,4
41223,78488,5
41229,78480,5
41220,78478,5
41214,78459,4
41213,78463,5
41208,78450,4
41206,78444,5
41190,78431,5
41196,78430,6
41188,78403,3
41179,78403,5
41165,78382,5
41152,78348,5
41137,78322,4
41107,78268,5
41085,78236,5
41066,78183,5
41040,78134,5
41016,78106,4
41003,78078,5
40987,78066,5
40989,78058,5
40991,78070,5
40990,78076,4
41005,78093,5
41021,78124,5
41030,78141,5
41042,78163,4
41054,78174,5
41063,78206,6
41065,78217,4
41082,78218,5
41087,78225,4
41087,78252,5
41096,78253,5
41094,78250,5
41080,78211,5
41035,78140,4
41021,78104,5
41004,78091,5
40991,78072,5
40986,78047,5
40982,78043,4
40965,78032,5
40969,78033,5
40973,78033,5
40978,78036,5
40951,78047,4
40986,78045,5
40978,78053,5
40985,78067,5
40973,78066,4
40997,78085,4
41003,78089,5
41009,78100,6
41023,78109,4
41017,78115,4
41025,78125,5
41033,78132,5
41063,78140,5
41025,78143,5
41030,78146,4
41048,78162,5
41057,78151,5
41043,78161,5
41047,78158,5
41046,78165,4
41060,78166,5
41048,78170,5
41041,78162,5
41040,78168,5
41045,78164,4
41054,78173,5
41054,78172,5
41056,78169,5
41050,78144,5
41041,78160,4
41041,78162,5
41053,78163,5
41048,78141,6
41048,78157,3
41038,78145,5
41053,78148,5
41030,78128,5
41025,78128,5
41025,78130,4
41029,78137,5
41032,78141,5
41034,78126,5
41036,78123,5
41026,78129,4
41028,78146,5
41029,78136,5
41031,78139,5
41035,78134,5
41044,78161,4
41041,78155,5
41048,78150,5
41049,78153,5
41052,78170,4
41054,78174,6
41059,78180,4
41059,78185,5
41069,78197,5
41064,78194,4
41065,78191,5
41075,78205,5
41068,78208,5
41076,78210,5
41087,78218,4
41088,78220,5
41082,78224,5
41090,78235,5
41089,78224,5
41094,78225,4
41081,78231,5
41089,78230,5
41085,78224,5
41083,78219,5
41083,78222,4
41081,78204,5
41080,78208,5
41080,78205,5
41070,78201,4
41072,78195,5
41072,78187,6
41066,78181,4
41058,78179,5
41058,78173,4
41063,78175,5
41057,78173,5
41057,78160,5
41039,78158,5
41043,78149,4
41040,78153,5
41048,78142,5
41040,78142,5
41030,78135,5
41026,78127,4
41035,78119,5
41033,78120,5
41026,78109,5
41019,78107,4
41013,78087,4
40998,78075,5
40989,78050,5
40973,78030,5
40956,78003,4
40941,77973,5
40929,77950,5
40923,77929,6
40922,77920,4
40920,77909,4
40908,77914,5
40918,77936,5
40932,77945,5
40936,77959,5
40944,77969,4
40957,77990,5
40965,78010,5
40973,78017,5
40985,78033,5
40992,78055,4
40996,78063,5
41000,78062,5
40993,78068,5
41004,78078,4
41003,78070,4
41000,78064,5
40973,78009,5
40937,77956,5
40921,77927,5
40918,77927,4
40909,77902,5
40904,77901,5
40903,77897,5
40898,77903,4
40903,77899,5
40906,77910,5
40909,77920,5
40914,77918,5
40922,77939,4
40931,77952,5
40936,77953,5
40941,77968,5
40956,77988,5
40958,77994,4
40970,78018,5
40975,78027,5
40980,78049,5
40992,78056,4
40994,78066,4
40989,78069,5
41013,78084,5
41007,78098,5
41012,78093,4
41012,78099,6
41024,78101,4
41027,78123,5
41026,78112,5
41046,78123,4
41036,78121,5
41031,78132,5
41048,78140,5
41073,78147,5
41049,78169,4
41043,78156,5
41050,78161,5
41068,78147,5
41053,78153,5
41045,78147,4
41052,78147,5
41059,78135,5
41045,78133,5
41041,78146,4
41034,78144,4
41041,78131,5
41046,78143,5
41047,78132,5
41037,78134,4
41047,78131,5
41044,78150,6
41048,78155,4
41053,78153,5
41047,78136,4
41057,78166,5
41061,78175,5
41062,78180,5
41061,78187,5
41065,78199,4
41077,78212,5
41095,78222,5
41088,78242,5
41095,78238,5
41112,78245,4
41108,78259,5
41108,78291,5
41115,78282,5
41112,78278,5
41130,78285,4
41130,78312,5
41135,78300,5
41127,78303,6
41135,78291,3
41129,78302,5
41132,78303,5
41138,78304,5
41139,78295,5
41134,78307,4
41133,78308,5
41133,78297,5
41125,78294,5
41122,78290,5
41125,78287,4
41125,78289,5
41121,78284,5
41133,78290,5
41120,78280,5
41123,78282,4
41114,78276,5
41116,78273,5
41118,78269,5
41115,78266,5
41102,78258,5
41106,78253,4
41097,78253,5
41111,78244,5
41102,78240,6
41102,78243,3
41093,78244,5
41100,78226,5
41093,78230,5
41098,78219,4
41088,78220,5
41086,78214,5
41083,78214,5
41090,78217,5
41078,78209,4
41077,78208,5
41079,78203,5
41074,78194,5
41069,78182,5
41062,78163,4
41045,78153,5
41041,78131,5
41018,78110,5
41022,78097,5
41013,78085,4
41004,78072,6
41009,78069,4
41011,78094,5
41013,78095,4
41019,78102,6
41029,78109,3
41040,78134,5
41051,78157,5
41059,78168,4
41070,78190,5
41079,78194,5
41082,78207,5
41078,78209,5
41081,78212,4
41081,78210,5
41090,78204,5
41078,78197,5
41074,78202,5
41066,78177,4
41043,78115,5
40995,78061,5
40982,78039,5
40981,78020,5
40965,78001,4
40967,78002,5
40971,77998,6
40960,77999,4
40971,78014,4
40985,78030,4
40984,78047,5
40982,78049,5
40998,78059,5
41008,78082,4
41021,78093,5
41023,78113,5
41043,78119,5
41034,78142,5
41052,78161,4
41050,78164,5
41061,78169,5
41063,78187,5
41071,78205,5
41080,78207,4
41087,78213,5
41087,78221,5
41078,78220,5
41096,78228,5
41101,78237,4
41097,78248,5
41081,78250,5
41106,78244,6
41107,78256,4
41118,78277,4
41113,78291,5
41132,78287,5
41121,78281,5
41128,78286,4
41132,78282,5
41119,78270,5
41116,78269,5
41116,78263,5
41143,78269,4
41109,78254,5
41118,78259,5
41111,78250,5
41122,78253,5
41111,78251,4
41104,78252,5
41102,78248,5
41118,78255,5
41107,78244,5
41103,78255,5
41102,78257,4
41111,78259,5
41110,78270,5
41111,78271,6
41114,78272,3
41122,78262,5
41124,78277,5
41126,78283,5
41126,78301,4
41139,78294,5
41146,78321,5
41143,78321,5
41152,78331,5
41159,78326,4
41160,78347,5
41162,78349,5
41173,78351,5
41176,78370,6
41166,78364,3
41183,78373,5
41172,78368,5
41178,78392,5
41170,78363,5
41174,78372,4
41177,78374,6
41175,78390,4
41173,78378,5
41164,78366,5
41165,78358,4
41169,78365,5
41170,78346,5
41168,78354,5
41166,78353,4
41161,78351,5
41164,78348,5
41155,78338,5
41153,78328,5
41145,78332,4
41148,78321,5
41141,78316,5
41145,78313,5
41141,78308,5
41124,78295,4
41118,78285,5
41124,78275,5
41119,78272,5
41119,78251,5
41105,78252,4
41094,78236,5
41084,78212,6
41080,78193,4
41063,78168,5
41050,78142,4
41038,78120,5
41023,78100,5
41008,78083,5
40999,78056,4
40996,78058,4
40997,78055,5
40999,78061,5
41005,78076,5
41009,78083,4
41021,78099,5
41028,78108,5
41032,78129,5
41039,78127,5
41045,78119,4
41034,78142,5
41048,78134,5
41039,78125,5
41034,78126,5
41036,78116,4
41025,78112,5
41023,78095,5
40985,78035,6
40966,77980,4
40949,77966,4
40941,77947,5
40933,77949,5
40933,77935,5
40942,77946,5
40934,77955,4
40944,77961,5
40950,77967,5
40955,77988,5
40962,77998,4
40967,78010,5
40979,78025,5
40985,78041,5
40988,78050,5
41007,78077,4
41014,78092,5
41016,78102,5
41027,78125,5
41037,78133,5
41050,78146,5
41053,78160,4
41057,78164,5
41062,78174,5
41065,78171,5
41072,78192,4
41067,78193,5
41087,78200,5
41082,78211,5
41091,78228,5
41097,78223,4
41091,78243,5
41114,78253,5
41112,78266,5
41101,78247,4
41103,78243,5
41104,78251,5
41107,78241,5
41090,78235,5
41090,78235,4
41099,78238,5
41088,78224,5
41085,78225,5
41078,78219,5
41089,78218,4
41089,78213,6
41082,78219,4
41071,78222,5
41092,78220,5
41091,78217,4
41091,78229,5
41068,78232,5
41099,78241,5
41105,78245,5
41114,78259,4
41121,78270,5
41130,78288,5
41141,78316,5
41147,78333,4
41170,78347,4
41169,78362,5
41184,78364,5
41183,78387,5
41212,78397,4
41194,78402,5
41198,78411,5
41204,78423,5
41215,78432,5
41216,78443,4
41225,78448,5
41234,78452,6
41234,78464,4
41228,78476,5
41234,78471,4
41238,78479,5
41230,78458,5
41233,78468,5
41226,78471,5
41221,78463,4
41217,78433,5
41207,78446,5
41214,78434,5
41210,78419,4
41198,78398,4
41191,78391,5
41189,78393,5
41183,78381,5
41179,78377,4
41177,78377,5
41176,78379,5
41172,78383,5
41177,78403,5
41170,78379,4
41173,78374,5
41177,78379,5
41181,78403,5
41180,78388,5
41177,78375,4
41173,78380,5
41171,78384,5
41178,78377,5
41174,78373,5
41171,78371,4
41154,78331,5
41115,78268,5
41110,78238,5
41095,78235,4
41089,78217,4
41091,78228,5
41094,78230,5
41095,78245,5
41108,78267,4
41115,78283,5
41130,78302,5
41137,78324,5
41159,78340,5
41169,78371,5
41182,78393,4
41195,78415,5
41213,78444,5
41216,78461,5
41239,78485,4
41257,78519,5
41259,78540,5
41279,78559,5
41289,78581,5
41304,78602,4
41304,78625,5
41323,78632,5
41319,78644,5
41334,78662,5
41343,78677,4
41345,78694,5
41354,78702,5
41371,78725,5
41376,78744,4
41396,78777,5
41391,78773,6
41403,78776,4
41400,78775,5
41404,78774,4
41393,78774,7
41397,78767,3
41390,78775,5
41402,78772,5
41400,78773,4
41395,78763,5
41398,78770,5
41403,78765,5
41398,78756,5
41392,78764,4
41385,78754,5
41388,78756,5
41386,78771,5
41402,78771,5
41397,78777,4
41410,78790,5
41413,78806,5
41424,78830,5
41431,78845,4
41456,78871,5
41462,78887,5
41477,78918,6
41485,78941,4
41499,78961,4
41507,78981,5
41520,79005,5
41532,79016,5
41534,79024,5
41549,79040,4
41558,79051,5
41554,79067,5
41568,79083,5
41577,79085,5
41579,79089,4
41575,79090,5
41574,79092,5
41562,79071,5
41559,79064,5
41553,79047,4
41543,79039,5
41534,79024,5
41535,79007,5
41521,78986,5
41519,78986,4
41517,78968,5
41508,78975,5
41508,78966,6
41494,78967,3
41512,78979,5
41515,78984,5
41521,78989,5
41499,78987,5
41523,78992,4
41516,78994,5
41522,78996,5
41505,78992,5
41527,79006,5
41523,79007,4
41514,78987,5
41500,78936,5
41458,78899,5
41450,78871,5
41443,78859,4
41452,78845,5
41430,78833,5
41432,78843,5
41435,78848,4
41472,78862,5
41451,78865,4
41449,78892,5
41464,78899,5
41484,78915,6
41482,78946,3
41499,78970,5
41520,78999,5
41532,79021,5
41546,79050,4
41561,79084,5
41581,79099,5
41597,79115,5
41601,79155,5
41627,79183,4
41628,79203,5
41645,79198,5
41657,79237,5
41665,79254,5
41669,79274,4
41682,79268,5
41684,79300,5
41700,79308,5
41706,79322,4
41715,79341,4
41717,79374,6
41730,79390,4
41743,79385,5
41735,79407,4
41740,79386,5
41736,79389,5
41731,79378,5
41740,79411,5
41727,79369,4
41730,79374,5
41729,79371,5
41724,79377,5
41724,79347,5
41712,79350,4
41713,79332,5
41697,79339,5
41704,79330,5
41703,79328,5
41698,79325,4
41711,79334,5
41706,79337,5
41712,79341,5
41717,79342,5
41719,79360,4
41727,79360,5
41735,79385,6
41733,79393,4
41751,79412,4
41761,79431,5
41772,79445,5
41780,79456,5
41774,79469,5
41792,79478,4
41794,79491,5
41797,79496,5
41797,79489,5
41796,79501,5
41786,79486,4
41778,79468,5
41775,79454,5
41776,79442,5
41760,79419,5
41753,79412,4
41733,79396,5
41735,79374,5
41715,79360,5
41712,79344,5
41699,79338,4
41702,79339,5
41706,79331,5
41707,79331,6
41703,79329,3
41698,79322,5
41697,79311,5
41690,79311,5
41694,79319,5
41701,79333,4
41704,79337,5
41702,79339,5
41702,79320,5
41672,79262,5
41640,79214,4
41623,79181,5
41613,79167,5
41607,79137,5
41586,79117,5
41576,79104,4
41570,79092,5
41572,79098,5
41562,79083,5
41561,79083,5
41556,79085,5
41562,79078,4
41560,79088,5
41565,79081,5
41568,79094,4
41555,79093,4
41563,79097,5
41569,79110,5
41576,79104,5
41573,79108,4
41582,79113,5
41574,79120,5
41573,79119,5
41580,79113,5
41574,79114,4
41584,79107,5
41576,79103,5
41567,79102,5
41572,79099,5
41568,79090,4
41568,79089,5
41567,79089,5
41563,79096,5
41563,79105,5
41570,79103,4
41564,79078,6
41561,79081,4
41559,79068,5
41541,79057,4
41529,79050,4
41538,79022,5
41522,79022,5
41516,78988,5
41488,78978,4
41484,78954,5
41478,78929,5
41461,78906,5
41433,78878,5
41433,78851,4
41427,78835,5
41413,78814,5
41391,78799,5
41387,78776,5
41375,78755,4
41371,78747,5
41381,78727,5
41355,78711,5
41353,78696,5
41340,78706,4
41364,78695,5
41342,78687,6
41331,78678,4
41331,78678,5
41349,78671,4
41322,78667,5
41329,78656,9
41321,78654,1
41333,78650,4
41324,78670,5
41315,78646,5
41315,78640,5
41316,78637,5
41320,78652,4
41312,78644,5
41316,78643,5
41317,78625,5
41304,78631,5
41304,78636,4
41309,78628,5
41303,78608,5
41296,78613,5
41289,78601,5
41296,78595,4
41283,78586,5
41267,78576,5
41263,78541,5
41255,78508,5
41228,78486,4
41203,78440,5
41178,78385,5
41148,78346,5
41129,78328,4
41113,78273,5
41095,78251,5
41070,78219,5
41083,78242,5
41073,78219,4
41083,78240,5
41095,78256,5
41097,78275,5
41114,78284,5
41117,78298,4
41131,78313,5
41132,78320,5
41133,78327,5
41139,78327,5
41144,78335,5
41146,78353,4
41157,78357,5
41158,78354,5
41145,78319,5
41121,78264,4
41082,78206,5
41058,78193,5
41049,78169,5
41034,78160,4
41038,78135,5
41035,78130,5
41030,78135,5
41028,78136,5
41024,78122,4
41030,78121,5
41022,78131,5
41029,78132,5
41029,78136,5
41031,78132,4
41041,78142,5
41042,78152,5
41044,78161,5
41046,78158,5
41056,78166,4
41048,78181,6
41052,78179,4
41065,78192,5
41058,78206,5
41074,78203,4
41073,78207,5
41080,78213,5
41081,78221,5
41093,78234,4
41088,78235,4
41088,78228,5
41091,78254,5
41091,78238,5
41089,78243,4
41102,78250,5
41103,78255,5
41104,78260,5
41107,78250,5
41102,78243,4
41091,78246,5
41090,78247,5
41097,78248,5
41099,78244,5
41094,78237,4
41090,78237,5
41092,78226,5
41089,78217,5
41084,78215,5
41076,78223,4
41077,78206,5
41072,78214,5
41075,78198,5
41067,78202,4
41059,78200,4
41069,78198,5
41074,78192,5
41071,78196,5
41074,78209,4
41067,78203,5
41072,78207,5
41074,78212,5
41079,78211,5
41076,78222,5
41079,78234,4
41084,78232,5
41090,78239,5
41099,78244,6
41096,78253,3
41103,78252,5
41103,78255,5
41100,78264,5
41109,78264,5
41104,78271,4
41110,78270,5
41111,78275,5
41114,78279,5
41112,78278,5
41109,78286,4
41116,78275,5
41121,78279,5
41112,78276,5
41095,78276,4
41113,78278,5
41115,78267,5
41112,78272,5
41089,78265,5
41111,78266,4
41115,78269,6
41098,78262,4
41114,78257,5
41099,78255,5
41099,78259,6
41100,78245,3
41115,78243,5
41101,78243,5
41088,78234,5
41098,78237,4
41120,78233,5
41092,78229,5
41077,78223,5
41084,78220,5
41087,78221,4
41075,78217,5
41071,78213,5
41077,78214,5
41076,78197,4
41068,78197,5
41062,78182,5
41046,78172,5
41040,78129,5
41024,78119,4
41004,78087,5
40995,78056,6
40971,78001,4
40953,77990,5
40945,77970,4
40933,77957,5
40930,77936,5
40926,77959,5
40940,77964,5
40947,77988,4
40957,78016,5
40966,78025,5
40982,78034,5
40983,78059,5
40999,78095,4
40998,78098,5
41025,78106,5
41020,78110,5
41031,78142,4
41033,78130,4
41029,78126,5
41033,78126,5
41012,78100,5
40987,78023,4
40958,77994,5
40954,77986,5
40952,77972,6
40949,77967,4
40940,77961,4
40933,77962,5
40936,77964,5
40941,77967,5
40943,77968,5
40942,77979,4
40953,77986,5
40955,77993,5
40968,78016,5
40969,78028,5
40977,78046,4
40989,78064,5
41000,78071,5
41013,78082,5
41014,78094,4
41018,78108,4
41032,78119,5
41035,78131,5
41035,78139,5
41047,78151,5
41046,78149,4
41054,78165,5
41064,78180,5
41059,78175,6
41067,78193,3
41064,78192,5
41066,78202,5
41074,78199,5
41081,78217,5
41089,78223,4
41090,78240,5
41104,78245,5
41104,78247,5
41102,78249,5
41099,78251,4
41098,78243,5
41101,78240,5
41101,78241,5
41101,78245,5
41099,78235,4
41088,78226,5
41096,78241,5
41096,78233,5
41088,78239,4
41098,78240,6
41099,78239,4
41096,78251,5
41104,78249,5
41103,78243,4
41096,78244,5
41106,78245,5
41105,78257,5
41106,78264,5
41107,78268,4
41116,78271,5
41116,78285,5
41113,78281,5
41128,78286,5
41125,78300,4
41140,78304,5
41139,78317,5
41142,78317,5
41142,78324,5
41150,78329,4
41151,78331,5
41145,78340,5
41150,78347,5
41164,78348,4
41158,78356,5
41171,78361,6
41165,78356,4
41162,78361,5
41170,78376,4
41156,78362,5
41167,78353,5
41163,78352,5
41167,78358,5
41162,78354,4
41165,78361,5
41157,78343,5
41165,78341,5
41157,78351,5
41157,78340,4
41147,78341,5
41151,78335,5
41146,78330,5
41153,78334,5
41136,78341,4
41145,78330,5
41158,78335,5
41150,78335,5
41127,78324,4
41148,78315,5
41146,78313,5
41148,78312,6
41135,78320,4
41137,78317,4
41134,78315,5
41142,78310,5
41161,78306,5
41133,78306,5
41129,78297,4
41124,78280,5
41138,78266,5
41098,78250,5
41097,78230,5
41081,78219,4
41084,78199,5
41063,78174,5
41051,78156,5
41050,78153,5
41044,78148,4
41045,78145,5
41045,78157,5
41057,78158,5
41062,78158,5
41066,78187,4
41074,78202,5
41087,78219,5
41097,78228,5
41100,78252,4
41102,78252,5
41116,78269,5
41109,78247,5
41112,78268,5
41109,78266,4
41119,78267,5
41106,78259,5
41108,78232,5
41067,78191,5
41039,78129,4
41025,78128,5
41015,78094,5
41000,78080,5
41007,78062,5
41004,78091,4
41003,78070,5
41005,78074,5
41008,78085,5
41015,78097,4
41017,78095,5
41021,78105,4
41027,78108,5
41036,78130,5
41036,78147,4
41048,78158,5
41060,78174,5
41065,78190,5
41076,78198,5
41082,78206,4
41080,78216,5
41088,78219,5
41098,78233,5
41096,78230,5
41098,78235,4
41096,78241,5
41096,78248,5
41109,78251,5
41103,78251,5
41108,78256,4
41110,78251,5
41111,78263,5
41104,78272,5
41128,78277,4
41130,78299,5
41134,78297,6
41128,78288,4
41119,78290,5
41115,78269,4
41118,78266,5
41109,78269,5
41117,78268,5
41108,78256,5
41109,78259,4
41097,78244,5
41104,78242,5
41106,78244,5
41093,78237,5
41102,78248,4
41098,78245,5
41108,78250,5
41095,78244,5
41104,78249,5
41097,78248,4
41110,78254,5
41111,78263,5
41114,78260,5
41114,78265,4
41114,78274,4
41116,78268,5
41114,78293,5
41122,78286,5
41133,78297,4
41132,78292,5
41139,78298,5
41146,78308,5
41134,78316,5
41143,78311,4
41135,78312,5
41137,78317,5
41149,78328,5
41141,78320,5
41144,78327,4
41143,78322,5
41138,78323,5
41143,78324,5
41154,78325,5
41145,78320,4
41151,78323,5
41144,78317,5
41138,78319,5
41140,78320,5
41144,78318,4
41140,78311,5
41135,78312,5
41131,78309,5
41140,78298,4
41135,78301,5
41129,78293,5
41139,78291,5
41130,78289,5
41118,78276,4
41107,78256,5
41106,78251,5
41097,78220,5
41087,78205,5
41077,78192,4
41069,78181,5
41047,78168,5
41050,78154,5
41044,78143,5
41047,78144,4
41023,78135,5
41029,78135,7
41036,78138,3
41040,78138,5
41028,78150,5
41051,78161,4
41060,78169,5
41049,78167,5
41055,78165,4
41046,78168,5
41056,78166,5
41061,78172,5
41074,78165,5
41059,78166,4
41055,78160,5
41031,78112,5
41028,78060,5
40977,78024,5
40970,78022,4
40965,78019,5
40978,78011,5
40963,78002,5
40971,78011,5
40970,78014,4
40978,78030,5
40985,78043,6
40995,78055,4
41002,78068,5
41007,78077,4
41014,78102,5
41021,78116,5
41036,78133,5
41039,78134,4
41058,78160,5
41060,78172,5
41062,78192,5
41068,78187,5
41084,78219,4
41080,78225,5
41082,78231,5
41096,78227,5
41101,78248,5
41102,78252,4
41100,78251,5
41109,78282,5
41116,78267,5
41120,78274,5
41124,78286,4
41131,78329,5
41144,78318,5
41133,78320,6
41141,78307,4
41139,78323,4
41132,78307,5
41141,78309,5
41132,78306,5
41128,78304,4
41120,78295,5
41122,78293,5
41123,78279,5
41113,78273,5
41122,78271,4
41109,78265,5
41113,78269,5
41110,78270,5
41115,78270,5
41114,78274,4
41117,78278,5
41119,78277,5
41128,78294,5
41130,78299,5
41124,78305,5
41139,78322,4
41152,78320,5
41150,78341,5
41157,78354,6
41161,78358,3
41172,78367,5
41182,78394,5
41188,78388,5
41190,78402,4
41192,78415,5
41208,78419,5
41194,78426,5
41205,78428,5
41200,78434,4
41205,78435,5
41203,78443,5
41213,78454,5
41213,78443,5
41217,78445,4
41209,78445,5
41218,78449,5
41213,78443,5
41210,78432,5
41203,78442,4
41205,78440,6
41201,78435,4
41200,78439,5
41209,78430,5
41206,78437,6
41198,78422,3
41202,78408,5
41195,78400,5
41174,78383,4
41176,78371,4
41166,78358,5
41152,78341,5
41144,78334,5
41146,78299,4
41119,78267,5
41099,78225,5
41094,78227,5
41112,78223,5
41115,78226,4
41132,78243,5
41155,78253,5
41160,78270,5
41166,78239,5
41150,78205,4
41137,78165,5
41124,78141,6
41108,78096,4
41083,78061,5
41072,78030,4
41059,77993,5
41042,77959,5
41012,77883,5
40959,77802,4
40944,77791,4
40947,77778,5
40935,77762,5
40929,77742,5
40924,77743,4
40929,77762,5
40948,77777,5
40959,77799,5
40970,77820,5
40984,77838,4
40993,77866,5
41012,77895,5
41021,77926,5
41051,77952,5
41069,77996,4
41093,78026,5
41089,78052,5
41121,78092,6
41151,78134,4
41159,78149,4
41154,78174,5
41191,78203,5
41212,78235,5
41221,78258,4
41227,78284,4
41251,78304,5
41254,78328,5
41268,78357,5
41300,78372,4
41303,78394,5
41313,78430,5
41326,78458,5
41374,78491,5
41348,78492,4
41353,78504,5
41367,78513,5
41386,78532,5
41373,78540,5
41378,78542,5
41386,78564,4
41386,78574,5
41399,78573,5
41409,78571,6
41401,78586,3
41409,78582,5
41412,78599,5
41411,78600,5
41415,78611,4
41420,78597,4
41419,78632,5
41434,78653,5
41445,78670,5
41453,78661,4
41465,78704,5
41479,78728,5
41495,78755,5
41505,78766,5
41520,78801,4
41532,78817,5
41546,78858,5
41559,78901,5
41571,78907,5
41582,78928,4
41587,78937,6
41598,78994,4
41605,78981,5
41621,78990,5
41627,79003,4
41623,79038,5
41639,79031,5
41646,79037,5
41652,79052,5
41651,79053,4
41650,79034,5
41636,79020,5
41632,79008,5
41615,78998,4
41594,78972,5
41581,78953,5
41585,78941,5
41575,78921,5
41560,78915,4
41562,78899,5
41549,78894,5
41553,78893,5
41552,78897,5
41558,78892,4
41558,78901,5
41559,78907,6
41557,78911,4
41559,78909,5
41571,78918,4
41564,78921,5
41576,78933,5
41577,78925,5
41577,78938,5
41562,78926,4
41553,78878,5
41519,78828,5
41485,78788,5
41486,78763,4
41469,78755,5
41459,78731,5
41464,78736,5
41460,78736,5
41467,78749,4
41474,78761,5
41474,78774,5
41482,78793,5
41507,78810,5
41515,78837,4
41534,78859,5
41543,78882,5
41552,78924,6
41575,78943,4
41602,78976,4
41611,79005,5
41625,79047,5
41647,79078,5
41659,79098,5
41667,79107,4
41686,79142,5
41701,79167,5
41703,79186,5
41719,79201,4
41722,79220,5
41732,79230,5
41742,79252,5
41747,79258,5
41759,79274,4
41773,79305,5
41777,79329,5
41791,79335,5
41780,79324,5
41782,79330,5
41780,79330,4
41786,79333,5
41780,79331,5
41768,79331,5
41770,79321,4
41769,79320,5
41764,79300,5
41765,79296,5
41752,79302,5
41757,79288,4
41752,79290,5
41750,79287,5
41748,79298,5
41743,79287,4
41754,79299,5
41754,79308,5
41766,79310,5
41767,79328,5
41779,79331,4
41780,79346,5
41784,79365,5
41795,79389,5
41803,79406,5
41818,79424,4
41830,79439,6
41834,79460,4
41828,79470,5
41860,79486,5
41864,79497,4
41868,79535,5
41862,79535,5
41887,79538,5
41896,79553,5
41897,79566,4
41883,79571,5
41893,79574,5
41906,79587,5
41897,79580,4
41915,79576,5
41897,79568,5
41891,79551,5
41874,79535,5
41896,79525,4
41857,79481,5
41841,79468,5
41826,79440,5
41823,79419,5
41790,79392,4
41783,79364,5
41770,79346,6
41777,79339,4
41759,79320,5
41761,79328,4
41757,79320,5
41759,79314,5
41764,79327,5
41760,79328,5
41761,79338,4
41765,79316,5
41774,79346,5
41771,79363,5
41783,79369,4
41779,79341,4
41764,79340,5
41744,79289,5
41719,79245,5
41704,79219,4
41689,79200,5
41675,79177,5
41668,79157,5
41659,79170,5
41651,79144,4
41658,79152,5
41653,79140,5
41655,79167,5
41655,79139,5
41655,79142,4
41657,79140,5
41665,79169,5
41658,79150,5
41660,79141,5
41667,79145,4
41661,79160,5
41662,79159,5
41663,79151,5
41659,79151,4
41673,79152,4
41653,79146,5
41653,79149,5
41648,79133,5
41652,79140,4
41651,79124,6
41633,79132,4
41647,79111,5
41631,79108,5
41634,79100,6
41634,79106,3
41632,79097,5
41643,79106,5
41634,79096,5
41626,79089,4
41623,79073,5
41608,79067,5
41605,79055,5
41594,79029,5
41582,79018,4
41586,78996,5
41566,78978,5
41557,78951,5
41534,78928,4
41528,78912,4
41514,78876,5
41505,78856,5
41494,78847,5
41469,78814,4
41461,78792,5
41454,78769,6
41445,78756,4
41430,78746,5
41431,78726,4
41424,78723,7
41416,78713,3
41407,78696,5
41408,78704,5
41408,78703,4
41408,78702,5
41409,78690,5
41410,78700,5
41401,78691,5
41409,78682,4
41399,78687,5
41406,78688,5
41406,78674,5
41391,78673,4
41396,78682,4
41393,78672,5
41394,78672,5
41403,78673,5
41402,78673,4
41394,78675,5
41405,78665,5
41390,78661,6
41383,78664,4
41392,78667,4
41391,78659,5
41382,78644,5
41378,78626,5
41379,78617,5
41370,78616,4
41357,78602,5
41352,78587,5
41347,78579,5
41345,78575,5
41332,78564,4
41331,78551,5
41313,78538,6
41304,78523,4
41306,78492,5
41293,78475,4
41270,78438,5
41249,78402,5
41228,78351,5
41201,78308,5
41178,78274,4
41153,78237,5
41132,78202,5
41123,78177,6
41102,78156,3
41112,78153,5
41109,78146,5
41111,78169,5
41110,78179,5
41136,78192,4
41136,78212,5
41150,78222,5
41131,78234,5
41153,78239,5
41172,78261,4
41170,78252,5
41160,78259,5
41180,78263,5
41171,78279,5
41185,78286,4
41190,78264,5
41139,78193,5
41109,78142,5
41095,78109,4
41103,78091,6
41060,78066,4
41060,78055,5
41048,78037,5
41069,78043,6
41042,78041,3
41047,78046,5
41046,78049,5
41068,78054,5
41056,78044,4
41059,78069,5
41069,78074,5
41073,78077,5
41068,78092,5
41081,78098,4
41093,78120,5
41098,78105,5
41094,78130,5
41100,78140,5
41106,78135,4
41104,78130,5
41117,78158,5
41120,78166,5
41123,78166,4
41128,78166,5
41123,78178,6
41129,78183,4
41139,78192,5
41134,78210,4
41143,78189,5
41140,78200,5
41140,78204,5
41146,78241,5
41146,78210,4
41160,78210,5
41150,78203,5
41141,78226,5
41139,78200,5
41144,78194,4
41146,78193,5
41140,78193,5
41133,78194,5
41132,78177,5
41128,78176,4
41128,78179,5
41126,78170,5
41122,78162,5
41123,78162,4
41120,78161,4
41119,78161,5
41121,78163,6
41118,78148,4
41122,78159,4
41120,78162,5
41120,78157,5
41111,78158,5
41129,78169,5
41124,78179,4
41129,78176,5
41127,78185,5
41136,78188,5
41139,78196,5
41144,78203,4
41143,78218,5
41148,78224,5
41148,78212,5
41159,78225,5
41157,78226,4
41163,78238,5
41167,78230,5
41168,78239,5
41172,78245,5
41169,78243,4
41173,78253,5
41173,78249,5
41177,78252,6
41174,78257,3
41173,78255,5
41179,78249,5
41167,78247,5
41172,78245,5
41164,78237,4
41172,78239,5
41153,78222,5
41151,78216,5
41137,78193,5
41130,78169,4
41116,78141,5
41100,78106,5
41083,78102,5
41080,78075,5
41061,78058,4
41055,78048,5
41053,78031,5
41035,78017,5
41039,78020,4
41049,78022,5
41047,78030,4
41051,78039,5
41060,78055,5
41059,78066,4
41064,78069,5
41082,78097,5
41076,78093,5
41091,78108,5
41089,78118,4
41098,78122,5
41112,78135,5
41101,78140,5
41106,78129,5
41082,78086,4
41049,78024,5
41038,78010,5
41029,77994,5
41018,77987,5
41024,77988,4
41016,77971,5
41020,77975,5
41024,77980,5
41019,77982,4
41022,77990,4
41028,77996,6
41032,78012,4
41049,78026,5
41051,78041,4
41060,78062,5
41069,78077,5
41076,78085,5
41082,78095,5
41089,78119,4
41091,78126,5
41110,78125,5
41105,78145,5
41097,78145,5
41121,78167,4
41124,78169,5
41133,78178,5
41113,78187,5
41134,78194,5
41148,78208,4
41151,78210,5
41149,78218,5
41156,78224,5
41165,78228,5
41174,78253,4
41194,78257,5
41175,78257,6
41186,78254,4
41172,78248,4
41195,78256,5
41176,78248,5
41174,78256,5
41167,78242,5
41179,78234,4
41163,78237,5
41164,78229,5
41162,78218,5
41165,78222,5
41163,78223,4
41165,78221,5
41155,78224,5
41158,78207,5
41161,78226,5
41166,78225,4
41159,78232,5
41159,78209,5
41164,78244,5
41175,78245,5
41172,78253,4
41176,78234,5
41185,78262,5
41179,78275,5
41196,78281,4
41197,78296,5
41205,78305,5
41213,78308,5
41211,78308,5
41219,78342,4
41228,78341,5
41228,78340,5
41228,78352,5
41237,78382,5
41241,78371,4
41246,78370,5
41251,78381,5
41260,78394,5
41251,78383,5
41257,78390,4
41258,78395,5
41251,78394,5
41262,78391,5
41257,78391,5
41264,78388,5
41250,78381,4
41252,78387,5
41253,78387,5
41250,78384,4
41246,78385,4
41246,78373,5
41238,78379,5
41243,78375,5
41242,78373,4
41241,78364,5
41244,78366,5
41240,78357,5
41229,78353,5
41234,78359,4
41232,78352,5
41234,78336,5
41230,78335,5
41224,78331,5
41221,78334,4
41226,78333,5
41223,78322,5
41213,78321,5
41214,78314,5
41215,78313,4
41216,78304,6
41199,78301,4
41201,78286,5
41181,78281,4
41184,78262,4
41172,78235,5
41162,78220,5
41147,78197,5
41131,78167,4
41122,78163,5
41119,78154,5
41125,78148,5
41121,78150,5
41113,78154,4
41130,78165,5
41130,78187,5
41142,78200,5
41154,78220,5
41166,78241,4
41176,78252,5
41188,78270,5
41186,78282,6
41198,78287,4
41200,78295,4
41206,78308,5
41206,78313,5
41207,78310,5
41203,78297,5
41177,78252,4
41148,78183,5
41117,78163,5
41123,78148,5
41109,78131,4
41105,78119,5
41102,78113,5
41099,78109,5
41114,78127,5
41101,78130,4
41110,78135,5
41116,78138,5
41124,78153,5
41127,78167,5
41141,78177,5
41139,78201,4
41151,78220,5
41172,78220,5
41178,78256,6
41187,78264,3
41192,78277,5
41192,78282,5
41202,78297,5
41202,78298,5
41209,78313,4
41221,78315,5
41222,78329,5
41220,78338,5
41218,78337,4
41226,78343,5
41237,78355,5
41232,78364,5
41234,78367,5
41228,78367,4
41252,78384,5
41254,78406,5
41261,78422,5
41250,78410,5
41258,78405,4
41251,78392,6
41251,78388,4
41248,78387,5
41258,78397,5
41261,78384,6
41253,78380,3
41262,78380,5
41250,78371,5
41251,78374,5
41240,78362,4
41259,78375,5
41238,78364,5
41240,78361,5
41246,78365,4
41253,78368,5
41240,78365,5
41247,78366,5
41250,78373,5
41253,78368,4
41246,78375,5
41247,78375,5
41247,78382,5
41246,78374,5
41257,78392,4
41256,78393,5
41269,78403,6
41265,78394,4
41263,78405,5
41274,78417,4
41269,78422,5
41279,78409,5
41284,78429,5
41280,78441,5
41290,78440,4
41286,78432,5
41289,78444,5
41296,78455,5
41297,78448,4
41292,78466,5
41295,78460,5
41293,78462,5
41290,78459,5
41305,78482,4
41292,78445,5
41293,78456,5
41290,78457,5
41283,78459,5
41278,78445,4
41277,78426,5
41269,78411,5
41264,78415,6
41254,78390,4
41243,78371,4
41239,78354,5
41220,78336,5
41218,78324,5
41218,78316,5
41210,78311,4
41206,78319,5
41207,78306,5
41205,78314,5
41216,78305,4
41213,78316,4
41211,78332,5
41223,78333,5
41232,78337,5
41227,78354,4
41229,78351,5
41230,78345,5
41231,78350,5
41234,78355,5
41242,78354,5
41240,78352,4
41223,78333,5
41200,78293,5
41181,78248,6
41167,78227,3
41167,78224,5
41158,78212,5
41148,78200,5
41156,78210,5
41148,78201,4
41157,78211,5
41162,78224,5
41162,78232,5
41163,78245,4
41170,78254,4
41181,78262,5
41195,78277,5
41209,78301,5
41207,78318,4
41218,78331,5
41233,78348,5
41235,78358,5
41239,78362,5
41252,78380,4
41246,78398,6
41265,78409,4
41269,78416,5
41260,78412,5
41277,78427,4
41271,78423,8
41277,78431,2
41282,78435,5
41296,78445,5
41289,78447,4
41294,78452,5
41306,78477,5
41304,78479,5
41304,78472,4
41300,78461,4
41294,78455,5
41284,78461,5
41291,78456,5
41284,78458,4
41283,78449,5
41282,78435,5
41291,78444,5
41279,78434,5
41282,78436,4
41279,78426,5
41273,78419,6
41274,78438,4
41274,78432,5
41284,78435,4
41286,78437,5
41290,78450,5
41291,78463,5
41299,78474,5
41308,78491,4
41313,78492,5
41322,78518,5
41332,78535,5
41336,78544,4
41347,78563,4
41360,78588,5
41372,78588,5
41379,78613,5
41384,78625,4
41385,78655,5
41412,78664,5
41412,78684,5
41416,78696,5
41410,78701,4
41431,78705,5
41442,78716,5
41440,78723,6
41425,78725,4
41447,78737,4
41443,78734,5
41440,78734,5
41442,78724,5
41432,78716,5
41426,78715,4
41425,78701,5
41440,78684,5
41416,78663,5
41401,78661,5
41391,78640,4
41418,78646,5
41387,78625,5
41369,78608,5
41374,78608,4
41382,78608,5
41381,78606,5
41378,78618,5
41375,78622,5
41382,78625,5
41377,78622,4
41377,78630,5
41392,78626,5
41380,78617,5
41392,78634,4
41385,78638,5
41384,78632,5
41387,78611,5
41376,78610,5
41356,78558,4
41317,78509,5
41303,78462,5
41294,78467,5
41289,78460,5
41288,78452,4
41287,78463,5
41291,78461,5
41286,78470,5
41301,78475,4
41298,78510,5
41312,78496,5
41319,78517,5
41334,78535,5
41341,78579,4
41355,78581,6
41364,78595,4
41376,78611,5
41379,78642,5
41398,78654,4
41422,78680,5
41413,78695,5
41432,78712,5
41434,78730,5
41446,78751,4
41457,78758,5
41455,78770,5
41473,78776,5
41472,78776,5
41475,78792,4
41478,78811,5
41494,78823,5
41509,78839,5
41512,78853,4
41518,78860,5
41514,78858,5
41512,78858,5
41510,78853,5
41517,78859,4
41513,78853,5
41509,78858,6
41510,78860,4
41509,78857,5
41503,78849,4
41503,78840,5
41509,78844,5
41504,78834,5
41496,78836,5
41499,78842,4
41495,78837,5
41499,78839,5
41502,78857,5
41506,78866,5
41519,78875,4
41535,78887,5
41543,78915,5
41548,78930,5
41564,78963,4
41574,78983,4
41595,79002,5
41605,79029,5
41619,79049,5
41622,79064,4
41633,79086,5
41655,79120,5
41667,79134,5
41678,79148,5
41681,79158,4
41685,79174,5
41688,79185,5
41698,79207,5
41702,79218,5
41706,79214,4
41714,79222,5
41711,79214,5
41706,79214,5
41693,79199,5
41693,79174,4
41678,79164,5
41670,79134,5
41667,79130,5
41645,79113,4
41651,79109,4
41640,79085,5
41641,79095,5
41636,79093,5
41642,79100,5
41645,79104,4
41651,79110,5
41644,79109,5
41643,79115,5
41642,79116,4
41656,79130,5
41662,79138,5
41663,79138,5
41665,79158,5
41664,79152,4
41656,79127,5
41633,79073,5
41613,79044,5
41607,79024,5
41587,79012,4
41594,79011,5
41587,79005,5
41585,79006,5
41588,79013,4
41592,79024,4
41586,79026,6
41601,79032,4
41604,79053,5
41622,79066,4
41606,79083,7
41636,79090,3
41647,79113,5
41652,79130,5
41648,79152,4
41687,79176,5
41695,79195,5
41707,79225,5
41712,79246,5
41727,79264,4
41740,79281,5
41748,79296,5
41766,79300,5
41753,79305,5
41760,79323,4
41759,79322,5
41795,79330,5
41770,79344,5
41782,79354,5
41795,79383,4
41808,79406,5
41800,79393,6
41803,79393,4
41796,79396,4
41813,79402,5
41805,79393,5
41803,79381,5
41795,79373,5
41791,79364,4
41792,79372,5
41788,79363,5
41778,79353,5
41773,79322,5
41776,79337,4
41758,79330,5
41759,79337,5
41764,79308,5
41768,79324,5
41760,79326,4
41761,79335,5
41764,79338,5
41773,79336,5
41775,79348,5
41777,79364,4
41789,79386,5
41801,79387,5
41800,79400,6
41813,79416,3
41819,79453,5
41823,79448,5
41837,79454,5
41846,79480,5
41842,79501,4
41861,79495,5
41867,79517,5
41874,79531,5
41878,79535,5
41877,79542,4
41882,79542,5
41874,79544,5
41879,79533,5
41860,79520,5
41862,79514,4
41849,79491,5
41839,79460,5
41835,79451,5
41821,79425,5
41805,79412,5
41794,79404,4
41808,79396,5
41789,79386,5
41790,79391,6
41802,79379,3
41796,79389,5
41798,79393,5
41790,79400,5
41796,79399,4
41807,79406,5
41815,79421,5
41815,79425,5
41825,79424,5
41826,79430,4
41804,79392,5
41777,79349,5
41760,79315,5
41751,79295,5
41740,79282,4
41735,79268,5
41720,79252,5
41713,79248,5
41714,79246,5
41711,79241,4
41706,79236,6
41705,79236,4
41700,79232,5
41707,79238,4
41711,79242,4
41717,79242,5
41716,79246,5
41709,79249,5
41714,79245,4
41718,79257,5
41722,79259,5
41724,79252,5
41727,79252,5
41717,79266,4
41721,79256,5
41719,79255,5
41723,79254,5
41719,79254,5
41715,79256,4
41718,79243,5
41704,79235,5
41712,79245,5
41715,79243,5
41713,79241,4
41717,79254,5
41717,79250,6
41714,79235,4
41702,79240,5
41695,79226,4
41694,79207,5
41697,79200,5
41684,79196,5
41684,79182,4
41673,79166,5
41658,79142,5
41639,79126,5
41645,79096,5
41619,79069,4
41606,79062,5
41598,79025,5
41584,79008,5
41578,78983,5
41553,78961,4
41551,78949,5
41551,78948,5
41540,78927,5
41546,78928,5
41532,78922,4
41531,78918,5
41530,78926,5
41537,78913,7
41530,78917,3
41535,78926,4
41527,78922,5
41531,78924,5
41539,78929,5
41531,78928,4
41524,78934,5
41546,78940,5
41552,78949,5
41552,78951,5
41551,78954,4
41550,78953,5
41559,78961,5
41559,78966,5
41577,78969,5
41569,78967,4
41559,78962,5
41565,78978,5
41588,78966,5
41552,78961,5
41560,78960,5
41555,78946,4
41569,78958,5
41551,78946,5
41549,78949,5
41546,78938,4
41545,78919,5
41528,78899,5
41518,78884,5
41502,78848,4
41472,78807,4
41461,78773,5
41437,78731,5
41412,78707,5
41404,78647,4
41381,78634,5
41380,78626,5
41357,78614,5
41359,78587,5
41354,78598,4
41364,78616,5
41361,78616,5
41374,78607,5
41364,78632,5
41372,78635,4
41392,78649,6
41381,78670,4
41380,78644,5
41390,78652,5
41401,78669,4
41403,78712,5
41402,78675,5
41398,78663,5
41370,78602,4
41325,78553,4
41302,78503,5
41286,78476,5
41272,78441,5
41262,78426,4
41252,78413,5
41250,78417,5
41246,78407,5
41241,78397,5
41243,78399,4
41248,78401,5
41239,78403,5
41239,78405,5
41246,78415,5
41251,78418,4
41254,78425,5
41256,78441,6
41260,78436,4
41271,78451,5
41276,78453,4
41268,78458,5
41280,78459,5
41280,78460,5
41281,78471,4
41291,78472,4
41281,78470,5
41286,78484,5
41297,78479,5
41288,78477,4
41289,78472,5
41284,78482,5
41284,78475,5
41284,78479,5
41302,78490,4
41307,78494,6
41301,78497,4
41294,78487,5
41293,78482,5
41295,78488,4
41296,78485,5
41295,78474,5
41286,78463,5
41278,78466,5
41283,78445,4
41271,78435,5
41269,78427,5
41263,78420,5
41262,78421,5
41250,78410,4
41247,78409,5
41242,78398,5
41240,78389,5
41244,78382,4
41237,78388,5
41231,78375,5
41226,78373,5
41241,78377,5
41236,78381,4
41241,78389,5
41243,78392,5
41241,78391,5
41248,78399,5
41243,78401,5
41250,78411,4
41257,78413,5
41252,78414,5
41263,78424,5
41261,78419,4
41265,78439,5
41280,78445,5
41268,78442,5
41272,78438,5
41273,78444,4
41273,78448,5
41275,78453,5
41281,78449,5
41277,78446,4
41278,78440,4
41272,78432,5
41274,78442,5
41276,78444,5
41269,78444,4
41262,78429,5
41270,78429,5
41263,78418,5
41256,78417,5
41258,78400,4
41244,78407,6
41250,78392,4
41245,78390,5
41246,78381,5
41230,78376,4
41227,78367,5
41218,78361,5
41225,78355,5
41215,78348,5
41216,78330,4
41195,78326,5
41201,78314,5
41198,78306,5
41187,78297,4
41161,78289,4
41184,78276,5
41182,78268,5
41176,78252,5
41174,78252,4
41166,78236,5
41151,78244,5
41147,78221,5
41169,78223,5
41140,78211,4
41139,78201,5
41134,78199,5
41148,78181,5
41123,78169,5
41112,78165,4
41116,78158,5
41116,78153,5
41113,78145,5
41098,78133,5
41096,78132,4
41099,78120,5
41092,78119,5
41091,78111,5
41085,78098,5
41085,78094,4
41074,78087,5
41068,78077,5
41055,78075,5
41050,78021,5
41033,78019,4
41017,77983,5
41004,77950,5
40982,77901,6
40971,77892,3
40950,77869,5
40948,77871,5
40941,77873,5
40950,77860,5
40949,77880,4
40962,77893,5
40969,77927,5
40977,77902,5
40987,77933,5
40999,77944,4
40999,77972,5
41011,77968,5
41018,77980,5
41021,77991,5
41031,77993,4
41023,77992,5
41019,77989,5
41024,77973,5
40996,77931,4
40968,77869,6
40946,77832,4
40936,77816,5
40919,77804,5
40911,77797,6
40915,77786,3
40906,77789,5
40911,77794,5
40919,77799,5
40927,77805,4
40918,77809,5
40932,77826,5
40944,77833,5
40944,77859,5
40955,77858,4
40965,77885,5
40978,77903,5
40984,77915,5
40991,77931,5
41004,77939,4
41006,77956,5
41018,77978,5
41023,77990,5
41029,77992,4
41028,78002,5
41034,78007,6
41048,78026,4
41048,78031,5
41056,78047,4
41058,78045,5
41058,78051,5
41070,78055,5
41068,78065,5
41076,78077,4
41076,78083,5
41086,78104,5
41089,78103,5
41087,78089,5
41088,78097,4
41092,78097,5
41091,78102,5
41093,78105,5
41086,78094,5
41093,78098,4
41089,78096,5
41085,78096,5
41083,78089,5
41079,78082,4
41085,78083,4
41091,78087,5
41085,78084,6
41076,78090,4
41086,78094,4
41091,78094,5
41083,78097,5
41082,78096,5
41086,78095,5
41087,78102,4
41088,78107,5
41101,78106,5
41106,78112,5
41109,78123,5
41111,78132,4
41115,78143,5
41114,78159,5
41128,78157,5
41130,78165,5
41130,78180,4
41130,78183,5
41140,78185,5
41150,78198,5
41152,78199,5
41149,78198,4
41148,78206,5
41155,78201,5
41163,78207,6
41159,78209,3
41159,78207,5
41156,78221,5
41153,78215,5
41153,78210,5
41155,78215,4
41152,78205,5
41153,78201,5
41143,78190,5
41141,78205,5
41148,78195,4
41144,78187,5
41125,78194,5
41143,78180,5
41135,78183,5
41131,78170,4
41117,78170,5
41135,78161,5
41129,78166,5
41123,78160,5
41121,78162,5
41119,78154,4
41121,78156,5
41123,78155,5
41132,78152,4
41113,78146,5
41113,78131,5
41107,78118,5
41128,78104,5
41090,78083,4
41069,78069,5
41062,78047,5
41069,78041,5
41050,78027,5
41034,78010,4
41030,78003,5
41028,77992,5
41033,77998,5
41035,78008,5
41046,78014,4
41058,78031,5
41063,78047,5
41071,78061,5
41067,78061,5
41081,78053,4
41072,78086,6
41072,78090,4
41090,78082,5
41085,78075,4
41086,78087,5
41087,78085,5
41082,78085,5
41077,78055,5
41046,78004,4
41015,77960,5
41007,77936,5
41000,77941,5
40987,77912,5
40990,77908,4
40987,77901,5
40984,77945,5
40994,77931,5
40997,77943,5
40999,77949,4
41015,77972,5
41019,77966,5
41032,77988,5
41042,77999,5
41045,78021,4
41052,78027,5
41068,78048,6
41074,78056,4
41072,78066,4
41079,78094,4
41096,78090,5
41102,78110,5
41096,78126,5
41109,78131,4
41112,78132,5
41115,78144,5
41122,78159,5
41130,78157,5
41129,78160,4
41127,78163,5
41141,78176,5
41133,78185,5
41146,78198,5
41143,78215,4
41159,78218,5
41160,78213,5
41152,78212,5
41154,78213,5
41158,78215,4
41156,78206,5
41161,78213,5
41152,78210,6
41145,78202,3
41149,78210,4
41152,78209,5
41153,78207,5
41151,78208,5
41150,78209,4
41153,78214,5
41157,78207,5
41162,78215,5
41162,78225,5
41165,78219,4
41163,78227,5
41159,78229,5
41174,78235,5
41177,78256,5
41193,78272,4
41197,78278,5
41198,78296,5
41207,78305,5
41225,78314,5
41218,78321,5
41223,78324,4
41228,78338,5
41232,78347,5
41240,78346,5
41244,78364,4
41245,78372,5
41243,78378,5
41247,78371,5
41249,78378,4
41250,78380,5
41265,78376,5
41252,78387,5
41259,78387,5
41251,78384,4
41245,78370,5
41253,78384,5
41254,78373,5
41245,78371,5
41241,78368,4
41244,78365,5
41234,78363,5
41239,78350,5
41233,78347,5
41230,78338,4
41227,78332,6
41231,78337,4
41224,78324,5
41221,78319,5
41215,78311,4
41207,78304,5
41209,78294,5
41203,78287,5
41203,78287,4
41194,78276,5
41199,78266,5
41178,78250,5
41165,78234,5
41159,78211,4
41150,78197,5
41126,78159,5
41109,78146,5
41102,78111,5
41102,78099,4
41077,78089,5
41058,78069,5
41085,78072,5
41083,78072,5
41070,78044,4
41030,78000,5
41029,77968,6
41011,77954,4
41006,77935,5
40999,77908,4
40973,77875,5
40962,77857,5
40950,77833,5
40949,77786,4
40889,77733,4
40867,77684,5
40847,77648,5
40832,77599,5
40764,77485,4
40698,77390,5
40662,77338,5
40646,77291,5
40625,77260,5
40606,77229,4
40594,77206,5
40586,77191,5
40574,77186,5
40579,77189,5
40582,77187,4
40592,77197,5
40601,77218,5
40605,77240,5
40614,77250,5
40629,77255,4
40636,77276,5
40643,77287,5
40648,77306,5
40655,77306,4
40662,77332,4
40670,77355,5
40688,77366,5
40682,77381,5
40683,77380,4
40706,77401,5
40709,77410,5
40721,77457,5
40735,77450,5
40753,77473,4
40760,77508,5
40772,77552,5
40795,77547,5
40806,77572,5
40810,77590,5
40823,77611,4
40820,77611,5
40837,77622,5
40835,77631,5
40853,77648,4
40848,77660,5
40870,77673,5
40877,77700,5
40896,77737,8
40920,77779,1
40949,77832,5
40953,77869,5
40994,77910,5
41017,77937,4
41029,77967,5
41045,77994,5
41050,78013,5
41068,78022,5
41076,78055,4
41071,78055,5
41085,78070,6
41100,78084,4
41116,78103,5
41124,78130,4
41134,78149,7
41144,78164,3
41146,78169,5
41155,78193,5
41161,78205,4
41162,78223,5
41177,78226,5
41178,78238,5
41177,78243,5
41184,78237,4
41190,78250,5
41181,78247,5
41194,78244,5
41191,78253,4
41191,78253,5
41198,78270,5
41189,78266,5
41196,78261,5
41195,78259,4
41184,78247,5
41177,78241,5
41174,78230,6
41168,78214,4
41161,78199,4
41153,78190,5
41147,78174,5
41132,78166,5
41137,78147,5
41123,78137,4
41125,78135,5
41117,78129,5
41113,78133,5
41110,78130,5
41117,78150,4
41128,78149,5
41129,78155,5
41142,78172,5
41142,78168,4
41136,78170,5
41142,78174,5
41140,78168,5
41138,78168,5
41142,78156,5
41139,78162,4
41119,78150,5
41107,78103,5
41081,78045,6
41062,78020,3
41045,78013,5
41048,77999,5
41049,77996,5
41042,78002,5
41046,78007,4
41050,78009,5
41052,78022,5
41055,78033,5
41066,78040,5
41077,78057,4
41084,78065,5
41091,78092,5
41097,78098,5
41098,78116,4
41117,78136,4
41122,78148,5
41134,78152,5
41124,78164,5
41143,78175,4
41144,78189,6
41149,78194,4
41132,78197,5
41166,78194,5
41154,78203,6
41161,78207,3
41152,78227,5
41168,78220,5
41165,78226,5
41177,78233,4
41188,78244,5
41189,78265,5
41196,78269,5
41194,78261,5
41210,78262,4
41187,78268,5
41191,78262,5
41186,78262,5
41207,78263,4
41196,78261,4
41192,78263,5
41187,78246,5
41195,78243,5
41184,78246,4
41181,78241,5
41176,78237,6
41181,78244,4
41182,78249,5
41176,78246,4
41185,78253,5
41186,78248,5
41192,78263,5
41201,78267,5
41203,78284,4
41206,78272,5
41211,78309,5
41222,78314,5
41230,78334,5
41237,78330,4
41243,78366,5
41250,78364,5
41247,78390,5
41266,78400,5
41277,78407,4
41280,78414,5
41281,78430,5
41286,78455,5
41299,78448,4
41302,78467,5
41303,78464,5
41311,78512,6
41314,78493,4
41320,78496,4
41326,78495,5
41329,78516,5
41321,78501,5
41322,78509,5
41325,78494,4
41314,78491,5
41310,78477,5
41297,78465,5
41288,78450,5
41290,78439,4
41277,78425,5
41265,78404,5
41264,78395,5
41252,78381,5
41253,78369,4
41251,78372,5
41252,78365,5
41246,78363,5
41253,78382,5
41251,78384,4
41258,78388,5
41257,78391,5
41264,78390,6
41259,78406,3
41274,78406,5
41280,78428,5
41273,78431,5
41282,78427,5
41281,78429,4
41280,78409,5
41242,78360,5
41222,78311,5
41207,78303,5
41209,78290,4
41203,78291,5
41203,78285,5
41201,78287,5
41200,78296,5
41211,78310,4
41223,78325,5
41224,78324,5
41235,78350,5
41246,78373,4
41255,78390,6
41269,78415,4
41280,78440,5
41292,78482,5
41312,78492,4
41322,78510,5
41342,78550,5
41355,78564,5
41359,78596,5
41388,78612,4
41392,78634,5
41396,78645,5
41415,78674,5
41416,78685,5
41428,78704,4
41441,78714,5
41442,78722,5
41450,78741,5
41459,78751,5
41471,78760,4
41477,78790,5
41493,78809,5
41490,78822,5
41493,78822,4
41491,78817,4
41501,78822,6
41493,78815,4
41490,78814,5
41493,78820,4
41492,78814,5
41489,78814,5
41485,78810,5
41495,78809,5
41478,78792,4
41483,78785,5
41480,78798,5
41480,78796,5
41486,78806,5
41482,78802,4
41495,78810,5
41489,78822,5
41494,78822,5
41496,78837,5
41506,78848,4
41513,78856,5
41520,78860,5
41533,78888,5
41535,78905,4
41556,78929,4
41558,78944,5
41565,78966,6
41562,78981,4
41594,78994,4
41594,79004,5
41596,79010,5
41582,79019,5
41609,79027,5
41614,79034,4
41611,79035,5
41614,79041,5
41612,79029,5
41604,79023,5
41602,79003,4
41610,78996,5
41580,78977,5
41581,78964,5
41561,78950,5
41575,78931,4
41542,78918,5
41551,78917,5
41553,78924,5
41566,78927,5
41546,78933,4
41553,78931,5
41566,78942,5
41561,78946,5
41558,78960,4
41569,78969,5
41572,78964,5
41575,78974,5
41589,78993,5
41599,79005,4
41592,79016,5
41579,78971,5
41559,78933,5
41534,78906,5
41533,78883,4
41521,78860,5
41510,78859,5
41515,78859,5
41510,78853,5
41504,78858,4
41516,78861,5
41504,78870,5
41526,78882,5
41521,78911,5
41537,78903,5
41539,78916,4
41554,78933,5
41557,78966,5
41565,78976,4
41582,78992,5
41589,79007,5
41603,79044,5
41614,79060,5
41619,79071,4
41633,79082,5
41647,79099,5
41654,79110,5
41657,79125,5
41663,79130,4
41672,79149,5
41674,79155,5
41674,79172,5
41686,79175,5
41689,79176,4
41702,79183,5
41705,79205,5
41720,79226,5
41706,79217,5
41714,79215,4
41710,79220,6
41703,79210,4
41704,79212,5
41711,79206,4
41698,79210,5
41694,79201,5
41695,79192,5
41701,79192,5
41694,79190,4
41690,79189,5
41692,79188,5
41684,79177,5
41686,79165,5
41675,79168,4
41688,79180,5
41679,79175,5
41682,79171,5
41693,79179,5
41696,79191,4
41694,79204,5
41708,79215,5
41706,79220,5
41714,79236,5
41729,79256,4
41743,79266,5
41753,79292,5
41760,79303,5
41760,79324,4
41766,79329,4
41780,79348,5
41791,79369,5
41798,79380,5
41803,79389,4
41808,79400,5
41816,79410,5
41817,79414,5
41823,79418,5
41825,79421,4
41825,79417,5
41823,79402,5
41796,79388,5
41802,79369,5
41778,79342,5
41770,79318,4
41750,79285,5
41733,79260,5
41712,79227,6
41695,79191,3
41690,79181,5
41678,79169,5
41670,79157,5
41670,79158,4
41669,79158,4
41673,79158,5
41667,79159,5
41673,79165,5
41679,79167,4
41679,79171,5
41690,79171,5
41685,79182,5
41687,79195,5
41689,79192,4
41690,79183,5
41665,79139,5
41625,79072,5
41602,79030,5
41589,78993,4
41566,78968,6
41555,78948,4
41549,78937,5
41537,78914,5
41522,78916,6
41530,78902,3
41510,78888,5
41513,78875,5
41495,78874,4
41512,78877,4
41509,78869,5
41505,78859,5
41476,78872,5
41506,78855,4
41508,78861,5
41505,78862,5
41488,78868,5
41501,78867,5
41502,78855,4
41511,78865,5
41509,78853,5
41506,78860,5
41504,78854,5
41497,78858,4
41521,78842,5
41493,78844,6
41487,78841,4
41482,78823,5
41498,78818,4
41480,78826,5
41482,78826,5
41488,78828,5
41493,78822,5
41479,78802,4
41476,78803,5
41461,78798,5
41461,78779,5
41455,78773,4
41451,78762,5
41440,78730,5
41432,78712,5
41419,78708,5
41412,78704,4
41397,78680,5
41399,78648,5
41381,78645,5
41372,78629,5
41371,78601,4
41357,78582,5
41341,78580,5
41337,78554,6
41328,78552,5
41327,78554,3
41326,78540,5
41318,78528,5
41320,78523,5
41310,78554,5
41322,78519,4
41316,78523,5
41319,78528,5
41311,78548,5
41325,78529,4
41314,78520,5
41320,78523,5
41316,78527,5
41318,78530,5
41313,78523,4
41321,78531,5
41319,78532,5
41327,78533,5
41317,78532,5
41325,78535,5
41324,78537,4
41322,78532,5
41321,78526,5
41321,78525,6
41313,78524,3
41314,78528,5
41320,78514,5
41309,78510,5
41311,78510,5
41300,78510,4
41299,78499,5
41294,78486,5
41279,78463,5
41276,78446,4
41257,78413,4
41233,78378,5
41227,78348,5
41189,78303,5
41171,78260,4
41161,78212,5
41136,78185,5
41120,78161,5
41101,78134,5
41088,78112,4
41079,78101,6
41081,78104,4
41088,78099,5
41098,78107,5
41088,78128,4
41099,78129,5
41108,78145,5
41117,78156,5
41124,78180,5
41131,78172,4
41132,78176,5
41120,78184,5
41129,78192,5
41143,78209,4
41134,78208,4
41128,78166,5
41103,78108,5
41057,78051,5
41046,78042,4
41035,78014,5
41021,77988,5
41014,77986,5
41017,77986,5
41021,77976,4
41024,77988,5
41014,77986,6
41022,77977,4
41023,77994,5
41016,77990,4
41035,77997,5
41044,78010,5
41038,78022,5
41045,78027,5
41048,78041,4
41056,78046,5
41053,78054,5
41066,78063,5
41062,78074,4
41064,78078,4
41071,78084,5
41071,78094,5
41089,78099,5
41079,78106,4
41095,78114,5
41086,78124,5
41092,78121,5
41103,78128,5
41098,78135,4
41107,78136,5
41096,78149,5
41109,78156,6
41113,78164,4
41114,78167,4
41117,78155,5
41116,78160,5
41118,78160,5
41125,78176,5
41111,78167,4
41118,78172,5
41118,78176,5
41119,78166,5
41092,78165,4
41121,78168,4
41123,78158,5
41126,78164,5
41101,78157,5
41113,78151,4
41129,78162,5
41123,78157,5
41125,78167,5
41115,78160,5
41126,78163,5
41118,78162,4
41141,78168,5
41133,78176,5
41126,78182,5
41133,78188,4
41155,78200,5
41139,78205,5
41147,78216,5
41153,78219,5
41167,78223,4
41157,78238,5
41170,78251,5
41164,78254,5
41176,78253,4
41176,78262,4
41186,78286,5
41187,78278,5
41192,78274,5
41190,78303,4
41197,78303,5
41201,78296,5
41197,78282,5
41202,78301,5
41203,78304,4
41202,78303,6
41204,78296,4
41205,78302,5
41197,78299,5
41194,78305,4
41200,78327,5
41199,78310,5
41193,78302,5
41190,78298,5
41199,78322,4
41193,78291,5
41195,78288,5
41198,78292,5
41185,78301,5
41178,78282,4
41184,78275,5
41181,78286,5
41178,78282,5
41186,78268,4
41177,78278,5
41176,78275,5
41179,78275,5
41171,78270,5
41174,78275,4
41185,78276,5
41184,78266,6
41181,78264,4
41174,78255,5
41165,78238,4
41159,78224,5
41151,78203,5
41134,78171,5
41115,78155,5
41104,78128,4
41088,78116,5
41082,78092,5
41085,78082,5
41077,78074,5
41079,78083,4
41073,78095,5
41079,78106,5
41095,78115,5
41092,78126,4
41115,78142,5
41115,78157,5
41130,78175,5
41142,78197,5
41137,78200,4
41145,78207,5
41145,78216,5
41151,78231,5
41158,78234,5
41149,78220,4
41141,78184,5
41106,78130,5
41085,78097,5
41078,78097,5
41076,78076,4
41067,78059,5
41060,78060,5
41065,78067,5
41059,78063,5
41066,78077,4
41075,78080,5
41084,78092,5
41076,78094,5
41093,78104,4
41093,78115,5
41099,78131,5
41106,78140,5
41120,78150,5
41114,78158,5
41133,78180,4
41140,78197,5
41147,78197,5
41148,78205,5
41153,78217,4
41157,78231,5
41161,78239,5
41161,78244,5
41172,78249,5
41178,78262,4
41177,78266,5
41169,78267,5
41184,78274,5
41186,78283,5
41191,78281,4
41193,78287,5
41203,78303,5
41216,78319,5
41214,78321,4
41209,78315,5
41205,78316,5
41200,78318,4
41209,78320,5
41212,78309,4
41198,78297,6
41194,78301,3
41201,78298,5
41199,78294,5
41202,78297,4
41198,78286,5
41197,78295,5
41197,78299,5
41187,78305,5
41197,78304,4
41181,78302,5
41210,78311,5
41209,78314,5
41213,78319,5
41190,78335,4
41216,78347,5
41220,78348,5
41233,78355,5
41223,78364,4
41241,78366,5
41256,78391,5
41262,78399,6
41270,78406,4
41264,78410,4
41268,78421,5
41277,78441,5
41308,78442,5
41295,78447,5
41296,78459,4
41294,78468,5
41321,78477,5
41307,78488,5
41309,78498,5
41319,78492,4
41317,78511,5
41312,78507,5
41314,78513,5
41315,78513,5
41316,78499,4
41324,78520,5
41314,78508,5
41304,78504,5
41311,78487,5
41315,78498,4
41309,78493,5
41312,78493,5
41303,78477,6
41309,78488,3
41303,78483,5
41297,78474,5
41300,78470,5
41292,78469,5
41298,78473,4
41294,78465,5
41296,78479,5
41294,78467,5
41282,78460,5
41288,78457,4
41277,78466,5
41264,78437,5
41267,78417,5
41253,78396,5
41249,78391,4
41226,78351,5
41224,78335,5
41216,78319,5
41203,78310,4
41192,78300,6
41203,78291,4
41201,78291,5
41204,78297,5
41204,78312,6
41213,78326,3
41222,78332,5
41232,78341,5
41235,78355,5
41227,78365,4
41236,78375,5
41246,78385,5
41252,78389,5
41247,78389,5
41254,78383,4
41245,78388,5
41240,78372,5
41223,78337,5
41194,78288,5
41173,78241,4
41169,78236,5
41154,78217,5
41152,78210,5
41142,78198,4
41152,78207,4
41151,78212,6
41152,78218,4
41153,78219,5
41161,78225,4
41161,78231,5
41162,78250,5
41177,78249,5
41178,78268,5
41189,78279,4
41191,78294,5
41210,78303,5
41205,78312,5
41211,78321,5
41210,78335,4
41229,78343,5
41238,78347,5
41230,78344,5
41237,78355,5
41224,78354,4
41229,78357,5
41240,78354,5
41232,78356,5
41233,78359,4
41238,78360,4
41237,78363,5
41236,78379,6
41247,78386,4
41246,78384,4
41248,78381,5
41245,78378,5
41242,78373,5
41237,78372,5
41241,78358,4
41239,78364,5
41240,78360,5
41233,78357,5
41230,78348,5
41217,78334,4
41213,78323,5
41214,78323,5
41212,78331,5
41217,78323,5
41218,78320,4
41215,78332,5
41213,78334,5
41217,78335,5
41226,78334,5
41214,78342,4
41227,78349,5
41239,78363,5
41240,78378,6
41247,78382,3
41253,78395,5
41263,78398,5
41264,78415,5
41273,78432,5
41272,78441,4
41286,78450,5
41283,78456,5
41289,78464,5
41295,78465,5
41294,78471,4
41294,78478,5
41290,78473,5
41308,78473,5
41311,78489,5
41306,78496,4
41297,78499,5
41317,78505,5
41322,78510,5
41321,78513,4
41300,78505,5
41311,78505,4
41315,78498,5
41305,78488,5
41319,78492,4
41309,78485,5
41308,78489,5
41305,78483,5
41320,78472,5
41303,78466,4
41293,78464,5
41285,78453,5
41290,78437,5
41265,78423,5
41258,78401,4
41247,78387,5
41241,78360,5
41225,78351,9
41219,78335,1
41212,78333,4
41221,78330,5
41214,78321,5
41212,78317,5
41212,78317,4
41218,78307,4
41216,78331,6
41217,78344,4
41230,78355,5
41232,78329,4
41233,78357,5
41236,78349,5
41230,78358,5
41222,78339,5
41227,78355,4
41228,78335,5
41214,78325,5
41196,78294,5
41173,78225,5
41137,78203,4
41149,78189,5
41136,78199,5
41125,78165,5
41124,78171,5
41120,78165,4
41131,78192,5
41140,78191,5
41140,78193,5
41146,78214,5
41154,78224,4
41179,78243,5
41173,78248,6
41183,78281,4
41190,78290,4
41195,78305,5
41206,78313,5
41222,78339,5
41216,78344,5
41230,78354,4
41227,78371,5
41241,78380,5
41249,78377,5
41248,78386,5
41248,78384,4
41248,78393,5
41254,78398,5
41254,78399,5
41257,78406,5
41257,78409,4
41268,78419,5
41272,78437,5
41272,78430,5
41266,78426,5
41270,78415,4
41262,78423,5
41268,78411,5
41272,78411,5
41264,78411,4
41260,78403,5
41257,78395,5
41252,78401,5
41253,78388,5
41243,78379,4
41243,78381,5
41237,78384,5
41241,78383,5
41243,78373,5
41242,78383,4
41248,78384,5
41246,78389,5
41245,78392,5
41254,78391,5
41257,78408,4
41266,78416,5
41275,78438,5
41274,78447,5
41282,78464,5
41293,78480,5
41297,78492,4
41308,78503,5
41321,78526,5
41330,78539,4
41340,78543,4
41336,78564,5
41352,78580,5
41360,78583,5
41365,78603,4
41374,78603,5
41373,78627,5
41388,78633,5
41393,78635,5
41379,78637,4
41385,78635,5
41385,78650,5
41389,78641,5
41388,78649,5
41391,78644,4
41391,78649,5
41386,78643,5
41385,78638,5
41385,78621,5
41374,78616,4
41370,78613,6
41360,78592,4
41354,78584,5
41348,78561,4
41338,78565,4
41336,78547,5
41337,78530,5
41331,78544,5
41329,78540,4
41331,78532,5
41329,78543,5
41333,78548,5
41339,78555,5
41354,78572,4
41353,78577,5
41345,78572,5
41347,78580,5
41363,78585,5
41359,78598,4
41374,78603,5
41345,78599,5
41363,78599,5
41357,78565,5
41333,78520,4
41295,78498,5
41296,78479,5
41292,78461,5
41284,78466,4
41291,78463,4
41296,78472,5
41297,78487,5
41304,78500,5
41335,78509,4
41323,78531,5
41335,78549,5
41343,78570,5
41382,78597,5
41368,78626,4
41383,78638,5
41402,78670,5
41420,78685,5
41433,78720,5
41443,78741,4
41463,78773,5
41464,78788,5
41482,78810,5
41487,78827,5
41505,78834,3
41501,78841,5
41512,78870,5
41525,78869,5
41520,78879,5
41520,78869,4
41523,78889,5
41538,78926,5
41540,78942,5
41561,78936,4
41558,78940,5
41549,78935,5
41542,78927,5
41548,78942,5
41552,78919,4
41543,78917,5
41552,78913,5
41546,78938,5
41543,78917,5
41540,78913,4
41537,78917,6
41539,78922,4
41532,78901,5
41532,78901,5
41537,78902,6
41531,78910,3
41534,78904,5
41527,78913,5
41545,78932,5
41558,78937,4
41562,78960,5
41565,78973,5
41581,78996,5
41592,79003,4
41606,79037,5
41619,79071,5
41629,79083,5
41646,79115,5
41661,79134,4
41669,79154,5
41685,79173,5
41690,79200,5
41709,79215,5
41715,79229,4
41728,79253,5
41730,79264,6
41745,79272,4
41752,79287,5
41746,79300,4
41757,79289,5
41746,79289,5
41737,79271,5
41724,79258,5
41719,79234,4
41711,79226,5
41705,79208,5
41692,79185,5
41680,79167,4
41686,79169,5
41668,79163,5
41675,79161,5
41681,79163,5
41676,79171,4
41685,79171,5
41687,79187,5
41688,79181,5
41691,79187,5
41697,79187,4
41700,79204,5
41705,79218,5
41708,79235,6
41709,79232,4
41705,79210,4
41692,79168,5
41659,79123,5
41643,79112,5
41631,79085,5
41630,79073,4
41628,79068,5
41623,79066,5
41623,79078,5
41624,79082,4
41632,79083,4
41631,79100,5
41642,79107,5
41638,79117,5
41660,79131,4
41666,79160,5
41666,79163,5
41691,79186,5
41702,79218,5
41713,79222,5
41713,79244,4
41732,79269,5
41743,79279,5
41749,79303,6
41762,79313,3
41774,79324,5
41779,79353,5
41782,79352,5
41789,79364,5
41785,79354,4
41791,79371,5
41800,79378,5
41798,79384,5
41802,79400,4
41819,79424,4
41832,79426,5
41823,79429,5
41822,79431,5
41817,79429,4
41825,79420,5
41828,79414,5
41809,79414,5
41795,79414,5
41817,79410,4
41815,79400,6
41802,79397,4
41782,79391,5
41789,79382,5
41795,79367,4
41782,79367,5
41771,79362,5
41787,79362,5
41786,79367,5
41792,79365,4
41796,79366,5
41796,79381,5
41795,79393,5
41807,79405,4
41836,79414,4
41828,79432,5
41829,79450,5
41845,79470,5
41874,79492,4
41858,79501,5
41872,79527,5
41888,79546,5
41914,79563,5
41906,79579,4
41918,79590,5
41913,79611,6
41934,79624,4
41942,79629,5
41945,79641,4
41944,79654,5
41941,79634,5
41951,79641,5
41943,79626,5
41933,79622,4
41929,79586,5
41911,79585,5
41899,79564,5
41893,79550,4
41875,79510,4
41876,79519,5
41870,79499,5
41863,79499,5
41861,79499,4
41858,79498,5
41861,79504,5
41858,79500,5
41858,79526,5
41862,79508,4
41874,79519,5
41882,79523,5
41897,79568,6
41899,79559,4
41895,79574,4
41889,79555,5
41876,79519,5
41842,79470,5
41831,79444,5
41823,79431,4
41811,79411,5
41799,79403,5
41804,79398,5
41800,79390,5
41790,79387,4
41790,79389,5
41796,79377,5
41791,79379,5
41796,79384,4
41793,79384,5
41793,79380,5
41793,79394,5
41791,79389,5
41796,79391,5
41790,79394,4
41798,79382,5
41793,79385,5
41797,79394,5
41796,79388,4
41795,79385,5
41791,79383,5
41793,79381,5
41787,79375,5
41786,79368,4
41784,79366,5
41779,79356,5
41783,79348,5
41776,79344,5
41770,79351,4
41778,79346,5
41782,79343,5
41772,79346,5
41756,79322,4
41753,79300,5
41741,79279,5
41733,79263,5
41721,79239,5
41710,79221,4
41695,79200,6
41674,79190,4
41676,79170,5
41661,79146,5
41652,79131,4
41639,79097,5
41627,79081,5
41617,79060,5
41602,79031,5
41592,79018,4
41587,79020,5
41579,78996,5
41572,78991,5
41569,78981,5
41565,78970,4
41564,78973,5
41556,78960,5
41558,78965,5
41560,78950,4
41545,78956,5
41559,78962,5
41562,78958,5
41561,78959,5
41558,78967,4
41563,78973,5
41565,78971,6
41568,78981,4
41565,78985,5
41558,78971,4
41562,78986,5
41572,78990,5
41581,78996,5
41577,78986,5
41587,79005,4
41582,78990,5
41577,78984,5
41572,78996,5
41566,78980,5
41567,78983,4
41564,78976,5
41559,78962,5
41560,78949,5
41557,78950,4
41549,78940,4
41549,78921,5
41526,78897,5
41519,78883,5
41493,78865,4
41503,78851,5
41481,78827,5
41475,78806,5
41447,78781,5
41449,78761,4
41434,78737,5
41423,78693,5
41373,78664,7
41354,78600,3
41350,78572,4
41316,78524,5
41288,78481,5
41272,78444,5
41252,78420,5
41228,78373,4
41243,78369,5
41219,78357,5
41224,78354,5
41221,78363,4
41251,78374,4
41228,78378,5
41238,78391,5
41235,78386,5
41259,78398,5
41252,78409,4
41252,78405,5
41266,78416,5
41265,78422,5
41274,78430,4
41266,78424,5
41253,78389,5
41209,78312,5
41168,78264,5
41160,78234,4
41140,78207,5
41134,78164,5
41125,78175,5
41114,78167,5
41105,78162,4
41112,78133,5
41114,78148,5
41106,78158,5
41104,78145,4
41107,78152,4
41110,78154,5
41115,78165,5
41117,78164,5
41124,78193,4
41119,78180,6
41127,78189,4
41140,78204,5
41134,78220,5
41142,78198,4
41147,78209,5
41143,78203,5
41151,78224,5
41148,78216,5
41151,78216,4
41152,78217,5
41148,78217,5
41155,78225,5
41145,78228,5
41152,78226,4
41158,78228,5
41150,78241,5
41164,78239,5
41165,78249,5
41171,78253,4
41154,78248,5
41167,78241,5
41161,78235,5
41161,78240,4
41154,78240,5
41159,78232,5
41157,78227,5
41156,78221,5
41147,78219,4
41138,78216,5
41141,78213,5
41134,78204,5
41139,78198,5
41133,78201,4
41138,78195,5
41130,78194,5
41140,78189,5
41140,78190,5
41129,78195,4
41131,78190,5
41130,78200,5
41148,78207,5
41145,78215,5
41149,78219,4
41151,78227,5
41153,78234,5
41167,78240,6
41164,78258,3
41174,78262,5
41173,78265,5
41188,78275,5
41186,78273,5
41190,78292,4
41192,78302,5
41191,78292,5
41201,78306,5
41205,78311,5
41212,78322,4
41208,78326,5
41207,78328,5
41210,78333,5
41218,78329,5
41205,78323,4
41213,78328,5
41214,78336,5
41213,78337,5
41216,78323,5
41203,78320,5
41214,78326,4
41213,78331,5
41218,78327,5
41213,78334,6
41207,78330,3
41208,78325,5
41207,78321,5
41207,78320,5
41205,78317,4
41209,78314,5
41205,78318,5
41199,78307,5
41198,78305,5
41195,78318,4
41205,78313,5
41194,78311,5
41206,78312,5
41207,78307,5
41200,78306,4
41191,78298,5
41190,78294,5
41186,78263,5
41173,78249,5
41155,78225,4
41146,78202,6
41132,78180,4
41126,78155,5
41115,78140,4
41095,78138,6
41107,78118,3
41099,78126,5
41096,78129,5
41087,78135,4
41112,78155,5
41127,78169,5
41138,78191,5
41130,78206,5
41156,78228,4
41166,78245,5
41169,78248,5
41173,78253,5
41183,78273,5
41185,78280,4
41190,78290,5
41205,78280,5
41182,78252,5
41150,78198,5
41131,78159,4
41148,78150,5
41105,78133,6
41100,78125,4
41100,78117,4
41114,78122,4
41104,78127,5
41106,78123,5
41104,78126,5
41112,78127,4
41103,78137,5
41117,78152,5
41130,78160,5
41133,78168,5
41136,78201,4
41139,78204,5
41143,78223,5
41157,78219,5
41165,78246,5
41178,78258,4
41177,78277,5
41179,78255,5
41197,78302,5
41199,78299,5
41199,78307,4
41208,78312,5
41207,78319,5
41207,78318,6
41207,78343,4
41216,78351,4
41224,78345,5
41227,78347,5
41230,78361,5
41241,78401,4
41243,78380,5
41246,78383,5
41240,78382,5
41236,78394,5
41247,78380,4
41235,78366,5
41230,78373,5
41237,78376,5
41238,78369,5
41231,78362,4
41235,78360,5
41236,78365,5
41235,78353,5
41229,78366,5
41239,78367,5
41244,78356,4
41240,78353,5
41233,78371,5
41235,78372,6
41242,78371,3
41248,78378,5
41247,78383,5
41253,78384,5
41252,78395,4
41252,78406,4
41260,78408,5
41269,78426,5
41277,78435,5
41286,78455,4
41290,78462,5
41295,78470,5
41301,78475,5
41303,78488,5
41309,78512,4
41310,78516,5
41314,78516,5
41321,78512,5
41328,78522,5
41329,78526,4
41331,78540,6
41337,78534,4
41339,78542,5
41344,78541,5
41338,78540,4
41332,78549,5
41337,78534,5
41335,78539,5
41320,78533,4
41334,78533,4
41334,78522,5
41321,78522,5
41327,78529,5
41334,78516,4
41327,78524,5
41312,78515,5
41322,78512,5
41314,78502,5
41319,78505,4
41311,78504,5
41312,78500,5
41309,78506,5
41313,78486,5
41310,78491,4
41297,78488,5
41302,78491,6
41300,78484,4
41295,78480,5
41301,78480,4
41295,78483,5
41296,78471,5
41290,78471,5
41289,78457,4
41293,78460,4
41288,78450,5
41285,78451,5
41282,78452,5
41277,78440,4
41280,78441,5
41272,78437,5
41271,78443,5
41276,78424,5
41260,78416,4
41262,78412,5
41253,78398,5
41240,78376,5
41231,78349,5
41223,78334,4
41211,78309,5
41191,78295,5
41194,78263,6
41180,78262,4
41176,78251,4
41178,78251,5
41175,78273,5
41190,78266,5
41181,78277,5
41180,78286,4
41201,78309,5
41212,78323,5
41222,78336,5
41203,78345,4
41231,78365,5
41229,78362,5
41241,78379,5
41219,78366,5
41228,78362,4
41240,78353,5
41214,78334,5
41217,78303,5
41173,78247,5
41147,78192,5
41133,78181,4
41148,78176,5
41119,78155,5
41107,78143,5
41117,78148,4
41129,78150,5
41117,78161,5
41122,78171,5
41126,78171,5
41145,78181,4
41141,78191,5
41150,78218,5
41149,78226,5
41165,78234,4
41163,78250,4
41169,78258,5
41182,78270,5
41180,78267,5
41188,78285,4
41196,78306,5
41198,78302,5
41206,78279,5
41194,78314,5
41216,78321,4
41210,78325,6
41216,78322,4
41212,78338,5
41215,78335,5
41220,78349,4
41232,78365,5
41238,78359,5
41238,78374,5
41248,78385,5
41263,78413,4
41256,78401,5
41250,78396,5
41256,78400,5
41252,78410,4
41247,78396,4
41250,78400,5
41255,78388,5
41263,78405,5
41256,78386,4
41246,78390,5
41240,78387,5
41243,78391,5
41256,78395,5
41246,78391,4
41257,78399,5
41251,78406,6
41264,78406,4
41264,78415,5
41265,78428,4
41269,78427,5
41266,78444,5
41277,78453,5
41292,78451,5
41292,78478,4
41307,78481,5
41310,78494,5
41317,78502,5
41323,78513,5
41333,78528,4
41337,78538,5
41338,78548,5
41341,78560,5
41352,78562,4
41356,78571,5
41359,78578,5
41359,78585,5
41363,78588,5
41369,78584,4
41361,78583,5
41368,78586,5
41363,78592,5
41362,78595,5
41360,78586,4
41363,78590,5
41359,78584,5
41361,78581,5
41360,78576,5
41352,78578,4
41346,78569,5
41340,78551,5
41347,78542,5
41334,78522,5
41324,78503,4
41311,78493,5
41297,78469,5
41295,78455,5
41282,78444,4
41272,78434,5
41276,78429,4
41261,78421,5
41265,78413,5
41261,78414,5
41263,78416,3
41278,78428,5
41272,78431,5
41278,78436,5
41281,78447,4
41285,78435,5
41275,78440,5
41280,78446,5
41281,78433,5
41276,78438,4
41281,78436,5
41269,78431,5
41271,78410,5
41248,78387,5
41224,78329,4
41192,78286,5
41186,78262,5
41174,78241,5
41170,78234,4
41166,78235,4
41167,78234,11
41173,78247,4
41162,78255,4
41186,78263,7
41184,78280,3
41194,78288,5
41206,78308,5
41209,78314,4
41218,78337,5
41227,78362,5
41234,78371,5
41251,78382,5
41255,78393,4
41264,78416,5
41261,78425,5
41268,78429,5
41280,78446,5
41288,78442,4
41266,78452,5
41290,78463,5
41298,78470,5
41294,78468,4
41274,78464,5
41299,78479,5
41299,78478,6
41299,78491,4
41312,78502,4
41321,78508,5
41320,78506,5
41312,78505,5
41331,78498,5
41306,78496,4
41309,78480,5
41305,78482,5
41315,78484,5
41304,78486,5
41296,78480,4
41294,78470,5
41297,78463,5
41290,78464,5
41293,78465,5
41291,78460,4
41290,78458,5
41287,78467,5
41292,78474,5
41296,78465,5
41302,78472,4
41302,78492,5
41305,78496,5
41319,78519,6
41324,78504,3
41333,78552,5
41345,78565,5
41361,78581,5
41365,78580,5
41374,78611,4
41386,78628,5
41391,78640,5
41392,78660,5
41407,78666,5
41412,78683,4
41419,78690,5
41422,78711,5
41436,78709,5
41435,78722,5
41449,78730,4
41446,78767,5
41455,78745,5
41455,78752,5
41451,78759,4
41465,78770,5
41453,78758,4
41457,78756,5
41460,78762,5
41455,78755,6
41460,78752,3
41461,78759,5
41461,78754,5
41459,78748,5
41460,78744,4
41448,78743,5
41457,78744,5
41443,78739,5
41442,78727,5
41432,78715,4
41423,78698,5
41417,78683,5
41406,78660,5
41389,78645,5
41379,78627,4
41372,78605,5
41364,78588,5
41357,78573,5
41349,78556,4
41340,78543,4
41332,78541,6
41337,78542,4
41340,78549,5
41341,78561,4
41350,78571,5
41362,78586,5
41371,78588,5
41367,78599,5
41368,78610,4
41369,78613,5
41371,78616,5
41377,78609,5
41371,78603,5
41355,78590,4
41341,78540,5
41302,78473,5
41282,78449,5
41281,78444,5
41276,78427,4
41273,78417,5
41273,78435,5
41277,78448,5
41286,78458,4
41292,78465,4
41293,78478,5
41310,78495,6
41313,78521,4
41336,78540,4
41350,78568,5
41356,78591,5
41371,78621,5
41398,78647,5
41402,78670,4
41413,78693,5
41434,78718,5
41436,78736,5
41440,78738,5
41456,78769,4
41475,78783,5
41475,78794,5
41481,78818,5
41487,78821,5
41488,78819,4
41494,78831,5
41507,78840,5
41499,78845,5
41520,78862,5
41523,78864,4
41529,78894,5
41539,78887,5
41536,78895,6
41531,78893,3
41527,78888,5
41523,78882,5
41523,78886,5
41523,78867,5
41518,78865,4
41524,78881,5
41510,78856,5
41514,78848,5
41496,78839,5
41495,78840,4
41508,78820,5
41499,78834,5
41481,78819,5
41498,78817,5
41488,78820,4
41488,78832,5
41479,78835,5
41495,78835,5
41516,78849,4
41513,78856,5
41496,78863,4
41524,78874,5
41531,78886,5
41530,78889,4
41545,78908,5
41553,78925,5
41557,78931,5
41561,78946,5
41585,78956,4
41579,78962,5
41585,78978,5
41583,78969,5
41603,78977,5
41590,78976,4
41586,78978,5
41580,78975,5
41580,78976,5
41571,78954,5
41562,78939,4
41541,78924,5
41540,78899,5
41524,78880,5
41516,78864,4
41504,78846,4
41494,78812,6
41506,78827,4
41482,78818,5
41484,78812,4
41482,78792,5
41486,78815,5
41478,78820,5
41501,78815,5
41486,78793,4
41497,78820,5
41496,78818,5
41488,78818,5
41495,78835,5
41492,78824,4
41498,78822,5
41487,78810,5
41467,78786,5
41432,78711,5
41415,78678,4
41400,78657,5
41396,78676,5
41392,78638,5
41390,78646,4
41398,78649,5
41398,78665,5
41417,78667,6
41411,78674,4
41413,78697,4
41432,78713,5
41436,78731,5
41448,78749,5
41461,78778,5
41480,78799,4
41481,78816,5
41496,78849,5
41512,78863,5
41532,78890,5
41536,78904,4
41548,78928,5
41559,78942,5
41562,78950,5
41566,78961,5
41571,78962,4
41581,78970,5
41586,78974,5
41587,78980,5
41594,78984,5
41579,78994,4
41592,79011,5
41605,79024,5
41604,79033,5
41607,79017,4
41604,79014,5
41601,79020,5
41593,79004,5
41594,79003,5
41585,79009,4
41594,79014,5
41593,78994,5
41579,78991,5
41585,78977,5
41576,78974,4
41565,78953,5
41562,78948,5
41554,78950,5
41566,78944,5
41554,78939,4
41557,78924,5
41550,78922,5
41552,78931,5
41548,78929,4
41562,78932,6
41558,78956,4
41562,78948,5
41575,78959,5
41565,78975,4
41583,78986,5
41594,78996,5
41600,79002,5
41599,79017,5
41605,79015,4
41602,79018,5
41608,79025,5
41614,79017,5
41610,79023,5
41602,79026,4
41592,79011,5
41590,79001,5
41586,78992,5
41578,78963,5
41559,78945,4
41545,78919,5
41530,78899,5
41515,78856,5
41495,78841,4
41495,78816,5
41474,78793,6
41462,78790,4
41456,78774,5
41459,78760,4
41452,78748,5
41452,78745,5
41448,78723,5
41438,78727,5
41435,78711,4
41431,78711,5
41437,78718,5
41432,78721,5
41428,78708,5
41419,78673,4
41365,78590,5
41331,78538,5
41324,78516,5
41284,78477,5
41284,78452,4
41263,78432,5
41260,78414,5
41225,78402,5
41242,78398,3
41244,78374,5
41234,78365,5
41213,78353,5
41220,78335,5
41223,78341,4
41216,78338,5
41225,78337,5
41201,78328,5
41211,78330,5
41214,78320,4
41231,78315,5
41207,78309,5
41200,78306,5
41198,78305,5
41217,78298,4
41185,78287,5
41189,78281,5
41180,78279,5
41185,78260,4
41162,78253,5
41169,78244,4
41150,78227,5
41157,78219,5
41145,78225,6
41153,78225,3
41156,78228,5
41153,78194,5
41141,78200,5
41139,78190,4
41120,78174,5
41130,78143,5
41121,78156,5
41102,78139,5
41094,78112,4
41080,78100,5
41077,78086,5
41066,78064,5
41056,78054,5
41037,78045,4
41039,78008,5
41027,77995,5
41025,77988,5
41010,77993,4
41006,77958,4
41001,77954,6
40991,77946,4
40994,77961,5
40991,77947,4
40982,77931,7
40992,77943,3
40993,77935,5
41001,77939,5
40993,77949,4
40993,77951,5
41006,77951,5
41004,77950,5
40998,77961,5
41005,77955,4
41007,77954,5
41011,77956,5
41009,77966,5
41014,77970,5
41006,77972,4
41001,77959,5
41003,77950,5
41001,77951,5
40992,77933,4
40982,77915,4
40970,77892,5
40954,77860,6
40939,77836,4
40922,77809,4
40914,77779,5
40903,77766,5
40894,77759,5
40895,77766,5
40888,77758,4
40887,77755,5
40893,77762,5
40879,77749,5
40894,77767,5
40899,77762,4
40894,77761,5
40899,77762,5
40894,77779,5
40901,77786,5
40916,77791,4
40911,77797,5
40903,77767,5
40870,77704,5
40839,77660,5
40830,77649,4
40820,77622,5
40808,77601,5
40798,77601,6
40792,77598,3
40796,77595,5
40799,77591,5
40796,77593,5
40795,77597,5
40796,77585,4
40797,77601,5
40802,77610,5
40806,77617,5
40809,77617,5
40818,77626,4
40817,77641,5
40821,77637,9
40823,77638,1
40830,77645,5
40836,77656,4
40838,77679,5
40841,77670,5
40847,77673,5
40849,77683,4
40846,77684,6
40849,77676,4
40852,77683,5
40848,77690,5
40855,77684,6
40870,77694,3
40856,77705,5
40861,77703,5
40875,77706,5
40861,77707,4
40869,77705,5
40859,77700,5
40857,77694,5
40860,77694,5
40857,77700,4
40854,77689,5
40861,77686,5
40859,77682,5
40844,77677,5
40833,77672,4
40826,77666,5
40835,77662,5
40841,77662,5
40834,77645,4
40810,77651,5
40829,77639,6
40832,77636,4
40826,77642,5
40819,77651,4
40835,77649,5
40838,77650,5
40828,77668,5
40845,77655,5
40838,77669,4
40848,77682,5
40852,77675,5
40870,77686,5
40854,77693,5
40856,77692,4
40856,77694,5
40889,77700,5
40863,77712,5
40870,77708,5
40879,77726,4
40885,77716,5
40877,77733,5
40887,77737,5
40886,77735,4
40885,77734,5
40897,77747,5
40889,77750,6
40880,77753,4
40886,77733,4
40884,77735,5
40881,77742,5
40879,77749,5
40887,77716,5
40881,77740,4
40878,77723,5
40876,77725,5
40879,77695,5
40871,77711,5
40876,77714,4
40861,77701,5
40860,77701,5
40846,77684,5
40851,77685,5
40854,77684,4
40844,77695,5
40850,77669,5
40839,77661,5
40847,77659,5
40840,77682,4
40836,77651,5
40836,77654,5
40827,77646,5
40828,77660,4
40833,77655,5
40835,77649,5
40833,77635,5
40824,77631,5
40821,77622,4
40812,77615,5
40819,77618,5
40817,77622,5
40816,77620,5
40808,77625,4
40807,77605,5
40806,77609,5
40796,77595,5
40808,77587,5
40800,77579,4
40796,77586,5
40795,77567,5
40785,77572,5
40788,77573,4
40781,77562,6
40786,77563,4
40777,77550,5
40779,77550,5
40767,77531,4
40755,77507,5
40738,77487,5
40727,77449,5
40700,77413,5
40683,77384,4
40670,77344,5
40643,77322,5
40634,77306,5
40633,77314,5
40635,77302,4
40642,77315,5
40650,77330,5
40659,77340,5
40666,77364,5
40676,77387,4
40687,77402,5
40691,77406,5
40703,77430,5
40715,77444,4
40723,77451,5
40726,77460,6
40728,77460,4
40730,77458,5
40714,77429,4
40696,77385,5
40663,77337,5
40655,77316,5
40638,77303,5
40633,77291,4
40627,77281,5
40620,77291,5
40627,77292,5
40636,77289,5
40639,77303,4
40642,77321,5
40649,77323,5
40657,77334,5
40662,77354,5
40679,77363,4
40676,77378,5
40695,77408,5
40705,77425,5
40713,77435,4
40725,77455,5
40730,77457,5
40737,77487,5
40745,77493,5
40751,77514,4
40756,77522,5
40757,77522,5
40771,77539,5
40776,77539,5
40784,77545,4
40784,77565,5
40787,77574,5
40797,77580,5
40802,77582,5
40804,77593,4
40808,77597,5
40813,77611,5
40826,77620,5
40824,77635,5
40832,77624,4
40830,77632,5
40815,77630,5
40828,77629,5
40830,77638,5
40833,77642,4
40817,77640,5
40834,77636,5
40823,77631,5
40824,77637,4
40815,77636,5
40834,77635,5
40834,77642,5
40841,77628,5
40838,77635,4
40831,77635,5
40829,77641,5
40837,77644,5
40860,77641,5
40837,77645,4
40836,77645,5
40847,77647,5
40861,77656,5
40850,77682,5
40850,77669,4
40858,77681,5
40865,77685,5
40859,77695,5
40873,77700,4
40875,77717,6
40875,77720,4
40885,77723,5
40887,77744,5
40896,77742,4
40898,77734,5
40905,77754,5
40894,77763,5
40908,77770,5
40902,77754,4
40922,77776,5
40919,77774,5
40917,77780,5
40913,77766,5
40908,77780,4
40921,77785,5
40903,77777,5
40912,77783,5
40912,77769,5
40911,77778,4
40909,77773,5
40908,77788,5
40905,77759,4
40896,77763,4
40909,77762,5
40897,77772,5
40898,77756,5
40895,77747,5
40891,77738,4
40889,77743,5
40889,77738,5
40887,77734,5
40892,77734,5
40886,77726,4
40883,77729,5
40890,77730,5
40878,77719,5
40895,77730,5
40883,77720,4
40881,77721,5
40876,77705,5
40860,77687,5
40864,77688,5
40856,77665,4
40834,77646,5
40831,77632,5
40822,77611,6
40815,77606,3
40806,77606,5
40812,77599,5
40821,77613,5
40824,77611,5
40828,77629,4
40826,77640,5
40844,77655,5
40837,77673,5
40852,77675,5
40867,77696,4
40868,77697,5
40872,77706,5
40877,77710,5
40885,77717,5
40876,77722,4
40879,77716,5
40882,77714,5
40880,77711,5
40862,77676,4
40827,77617,5
40809,77588,4
40804,77576,5
40799,77568,5
40789,77555,6
40793,77550,3
40786,77544,5
40793,77562,5
40787,77567,5
40801,77575,8
40798,77588,5
40804,77596,5
40823,77617,5
40872,77713,8
40872,77713,5
40870,77714,5
40878,77713,8
40892,77741,5
40908,77758,5
40925,77780,5
40914,77785,8
40908,77782,5
40930,77799,5
40928,77816,8
40939,77820,5
40931,77818,5
40964,77853,8
40964,77853,5
40968,77877,5
40969,77886,5
41002,77884,8
40986,77878,5
40964,77873,5
40967,77872,8
40975,77892,5
40985,77897,5
40977,77877,5
40967,77875,8
40963,77875,5
40975,77874,5
40981,77881,8
40981,77881,5
40987,77887,5
40968,77893,8
40958,77897,5
40985,77888,5
40964,77898,5
40989,77909,8
40998,77912,5
41001,77925,5
40979,77929,8
41012,77965,5
41018,77965,5
41021,77962,5
41056,77996,8
41056,77996,5
41045,78001,5
41042,78006,8
41050,78034,5
41076,78011,5
41057,78013,8
41048,78019,5
41063,78035,5
41074,78029,5
41053,78020,8
41053,78022,5
41056,78013,5
41041,77991,8
41041,77991,5
41037,78027,5
41038,78015,5
41032,77951,8
41028,77945,5
41033,77974,5
41062,77976,8
41036,77977,5
40995,77954,5
41018,77954,8
41020,77945,5
41014,77953,5
41014,77946,5
40974,77890,8
40974,77890,5
40963,78006,5
40948,77833,8
40949,77832,5
40925,77788,5
40881,77762,5
40900,77748,8
40899,77740,5
40895,77737,5
40884,77730,8
40892,77715,5
40888,77730,5
40928,77804,8
40928,77804,5
40927,77811,5
40939,77820,5
40942,77814,8
40929,77818,5
40937,77820,5
40941,77834,8
40942,77837,5
40926,77793,5
40916,77761,5
40888,77709,8
40842,77651,5
40842,77651,5
40839,77667,8
40849,77655,5
40838,77659,5
40854,77672,5
40863,77682,8
40871,77715,5
40883,77710,5
40885,77681,8
40899,77739,5
40906,77770,5
40961,77849,8
40961,77849,5
40971,77870,5
40967,77883,5
40972,77870,8
40977,77887,5
40991,77897,5
40989,77905,13
40977,77896,5
40990,77910,5
41006,77963,8
41006,77963,5
41021,77978,5
41016,77993,8
41024,77975,5
41026,77958,5
41021,77962,8
41018,77960,5
41052,77956,5
41018,77951,5
41007,77938,6
41014,77938,1
41000,77938,0
41007,77931,4
40997,77918,5
40999,77933,4
41006,77934,5
41004,77938,5
41004,77936,5
41002,77936,5
41004,77944,4
41017,77950,5
41022,77962,5
41022,77962,5
41023,77966,5
41028,77983,4
41039,77994,5
41041,78009,5
41049,78021,5
41058,78048,5
41073,78047,4
41072,78071,5
41097,78076,5
41092,78090,5
41094,78099,4
41101,78102,6
41100,78102,4
41110,78124,5
41102,78125,5
41115,78139,4
41125,78146,5
41132,78147,5
41113,78147,5
41126,78159,5
41128,78151,4
41123,78149,5
41115,78142,5
41119,78144,5
41120,78133,5
41117,78126,4
41110,78115,5
41102,78108,5
41094,78080,5
41086,78080,5
41098,78069,4
41074,78057,5
41066,78046,5
41075,78034,5
41085,78047,4
41063,78045,5
41063,78044,6
41073,78052,4
41084,78059,5
41079,78063,4
41077,78077,5
41075,78069,5
41089,78062,5
41079,78081,5
41087,78086,4
41091,78080,5
41084,78068,5
41084,78078,5
41083,78075,5
41067,78045,4
41043,77982,5
41017,77959,5
41005,77957,5
41016,77939,5
40997,77922,4
41006,77936,5
41000,77933,5
41010,77940,5
41018,77969,4
41014,77964,5
41021,77986,5
41040,77992,5
41052,78033,5
41055,78034,4
41067,78054,5
41081,78072,5
41094,78109,5
41102,78118,5
41116,78139,4
41122,78167,5
41137,78187,5
41150,78195,5
41158,78206,5
41164,78214,4
41159,78226,5
41174,78232,5
41178,78236,5
41179,78263,5
41197,78273,4
41197,78264,5
41200,78286,5
41211,78305,5
41213,78322,5
41218,78333,4
41220,78324,5
41227,78323,5
41226,78323,5
41216,78321,4
41225,78314,5
41217,78312,5
41223,78317,5
41222,78310,5
41210,78327,4
41215,78313,5
41212,78303,5
41209,78299,5
41201,78306,5
41201,78301,4
41208,78284,5
41212,78293,5
41220,78296,5
