RED,IR,EKG,TIME
58747,94197,184154
58683,94121,0
58653,94071,5
28986,69864,4
28998,69877,5
29005,69900,5
29018,69922,5
29015,69937,4
29017,69939,5
29027,69951,5
29021,69953,5
29026,69976,5
29030,69995,5
29051,70003,4
29051,70023,5
29067,70049,5
29067,70074,5
29074,70093,4
29080,70106,5
29082,70122,5
29088,70126,5
29096,70131,5
29095,70130,4
29091,70159,5
29093,70146,5
29092,70137,5
29095,70152,4
29093,70150,4
29101,70155,5
29097,70136,5
29079,70120,5
29073,70088,4
29062,70057,5
29050,70028,5
29038,70010,5
29034,69990,5
29030,69984,4
29025,69983,6
29023,69991,4
29033,69993,5
29025,69993,5
29032,70001,4
29033,70002,5
29034,69999,5
29029,69997,5
29033,69998,5
29023,69996,9
29031,69988,0
29023,69977,5
29022,69951,5
29019,69972,4
29015,69958,5
29009,69956,5
29008,69936,5
28998,69937,5
28993,69926,4
28999,69907,5
29001,69913,5
28991,69897,5
28986,69885,5
28985,69889,4
28982,69896,5
28983,69905,6
28991,69903,4
29000,69926,5
28994,69938,4
29005,69938,5
29002,69932,5
28993,69913,5
28988,69901,4
28981,69862,4
28956,69830,5
28954,69808,5
28951,69786,5
28933,69763,4
28932,69752,5
28927,69732,5
28897,69662,5
28877,69622,5
28878,69623,4
28855,69553,5
28821,69483,5
28804,69424,5
28787,69373,5
28762,69309,4
28735,69269,5
28738,69219,5
28722,69216,5
28715,69211,5
28703,69203,4
28707,69192,5
28709,69175,5
28698,69182,5
28695,69170,4
28690,69155,4
28689,69132,5
28676,69101,5
28683,69094,5
28661,69067,4
28648,69050,5
28655,69046,5
28654,69056,5
28655,69058,5
28650,69078,4
28661,69100,5
28682,69112,5
28678,69128,5
28674,69119,5
28677,69128,5
28679,69131,4
28678,69127,5
28677,69134,5
28669,69140,5
28676,69124,4
28672,69141,5
28678,69145,5
28681,69156,5
28678,69144,4
28690,69170,4
28692,69179,5
28695,69197,5
28700,69192,5
28701,69204,4
28710,69218,5
28709,69230,5
28722,69255,5
28741,69273,5
28744,69298,4
28742,69332,5
28749,69359,5
28750,69342,5
28757,69348,5
28757,69360,4
28761,69373,6
28755,69353,4
28756,69338,5
28756,69334,5
28753,69335,4
28744,69329,5
28749,69347,5
28745,69342,5
28746,69340,4
28740,69334,5
28750,69336,5
28749,69348,5
28752,69364,5
28752,69353,4
28751,69358,5
28740,69356,5
28740,69354,5
28752,69342,5
28743,69339,4
28737,69330,5
28734,69341,5
28737,69336,5
28716,69289,5
28725,69302,4
28731,69316,5
28733,69296,5
28720,69279,5
28720,69258,5
28706,69221,4
28689,69190,5
28671,69153,5
28660,69135,5
28646,69096,4
28645,69070,5
28624,69066,5
28630,69063,5
28642,69078,5
28637,69089,4
28642,69078,5
28633,69065,5
28625,69049,5
28608,69044,5
28616,69040,4
28625,69042,4
28618,69057,5
28618,69042,5
28614,69037,5
28612,69017,3
28595,69004,5
28596,69003,5
28607,69007,5
28597,68980,5
28583,68967,4
28560,68889,5
28517,68751,5
28461,68624,5
28414,68494,4
28362,68400,5
28337,68325,5
28315,68283,5
28306,68263,5
28301,68247,4
28296,68216,5
28291,68192,5
28276,68171,5
28271,68161,5
28265,68173,4
28276,68223,6
28314,68271,4
28322,68279,5
28309,68246,5
28284,68163,6
28244,68087,3
28213,68009,5
28172,67928,5
28151,67866,5
28133,67829,4
28127,67806,5
28120,67809,5
28128,67813,5
28136,67825,4
28137,67835,5
28135,67841,5
28145,67872,5
28161,67870,5
28155,67896,4
28167,67908,5
28167,67928,5
28180,67965,5
28186,67987,5
28207,68021,4
28216,68043,5
28221,68061,6
28204,68068,4
28229,68093,5
28239,68092,4
28246,68110,5
28252,68150,5
28281,68217,5
28298,68258,5
28318,68291,4
28332,68329,5
28334,68355,5
28352,68382,5
28359,68404,4
28390,68438,5
28378,68465,5
28395,68486,5
28399,68523,5
28435,68548,4
28429,68582,5
28444,68620,5
28462,68658,5
28480,68687,5
28485,68726,4
28494,68745,5
28495,68766,5
28507,68771,6
28512,68780,4
28516,68808,4
28522,68836,5
28535,68857,5
28546,68890,5
28568,68918,5
28566,68930,4
28569,68918,5
28575,68938,5
28578,68950,5
28574,68944,4
28573,68936,5
28567,68935,5
28567,68921,5
28565,68911,5
28562,68901,4
28548,68880,5
28552,68868,5
28550,68870,5
28542,68882,5
28547,68881,5
28547,68891,4
28549,68896,5
28550,68916,5
28555,68913,6
28565,68921,3
28576,68933,5
28573,68952,5
28565,68950,5
28582,68950,5
28586,68964,4
28577,68974,5
28584,68981,5
28593,68973,5
28592,68973,4
28587,68981,5
28593,68975,5
28588,68974,5
28580,68968,5
28588,68970,4
28590,68975,5
28586,68979,5
28586,68982,5
28585,68989,5
28591,68982,4
28593,68992,6
28591,68994,4
28593,69008,5
28593,68987,5
28581,68984,4
28576,68977,5
28591,68964,5
28562,68911,5
28562,68912,5
28565,68916,4
28563,68910,5
28551,68900,5
28551,68903,5
28549,68897,4
28559,68894,5
28558,68897,5
28556,68894,5
28568,68919,5
28570,68943,4
28583,68959,5
28587,68980,5
28596,68989,5
28600,68993,5
28594,68990,4
28597,68994,5
28600,68995,6
28591,68983,4
28588,68976,5
28592,68960,4
28582,68946,5
28578,68928,5
28581,68918,5
28569,68917,5
28575,68934,4
28579,68938,5
28585,68950,5
28582,68941,5
28583,68960,4
28588,68962,5
28577,68946,5
28593,68947,5
28582,68948,5
28584,68941,4
28586,68964,5
28594,68985,5
28600,68994,5
28616,69008,5
28609,69021,4
28613,69030,5
28614,69029,5
28615,69030,6
28613,69034,4
28611,69035,4
28621,69035,5
28618,69038,5
28622,69040,5
28618,69043,5
28620,69040,4
28624,69032,5
28614,69028,5
28621,69040,5
28626,69055,4
28639,69074,5
28638,69104,5
28649,69125,5
28667,69168,5
28676,69196,4
28669,69184,5
28660,69128,5
28624,69045,5
28585,68921,5
28497,68735,5
28430,68504,4
28347,68311,5
28286,68162,5
28213,68039,5
28189,67949,4
28178,67915,5
28172,67899,5
28169,67864,5
28122,67759,5
28083,67630,4
28002,67406,5
27922,67148,5
27799,66867,5
27740,66720,4
27693,66625,5
27675,66567,5
27667,66588,5
27690,66648,5
27694,66652,4
27686,66591,5
27630,66476,5
27581,66335,5
27530,66229,5
27499,66168,4
27490,66147,6
27494,66169,4
27501,66203,5
27513,66241,5
27545,66337,4
27580,66422,5
27605,66507,5
27638,66566,5
27637,66613,5
27657,66651,4
27673,66679,5
27662,66631,5
27643,66607,5
27646,66619,4
27669,66711,5
27714,66769,5
27691,66712,5
27659,66631,5
27651,66603,4
27637,66586,5
27619,66521,5
27604,66467,5
27591,66452,5
27582,66421,4
27563,66383,5
27574,66397,6
27577,66379,4
27556,66335,5
27534,66259,4
27509,66195,5
27508,66179,5
27508,66219,5
27514,66232,4
27510,66228,4
27488,66140,5
27468,66073,5
27456,66034,5
27448,66028,4
27443,66032,5
27469,66099,5
27495,66148,5
27482,66134,5
27482,66140,4
27498,66181,5
27516,66220,5
27529,66253,5
27531,66276,5
27542,66282,4
27534,66268,5
27525,66240,5
27538,66288,6
27567,66347,4
27575,66387,4
27582,66392,5
27581,66385,5
27594,66410,5
27594,66423,4
27601,66417,4
27586,66383,5
27578,66378,5
27569,66357,5
27555,66299,4
27533,66222,5
27496,66140,5
27473,66032,5
27414,65887,5
27380,65846,4
27405,65904,5
27437,65983,5
27486,66092,5
27497,66115,5
27489,66060,5
27457,65988,7
27441,65953,2
27438,65926,5
27443,65884,5
27428,65878,4
27429,65879,5
27443,65897,5
27426,65876,5
27432,65888,4
27450,65896,4
27435,65856,5
27424,65813,5
27408,65796,5
27406,65811,4
27416,65811,5
27424,65825,5
27421,65821,5
27416,65797,5
27417,65797,4
27423,65816,5
27423,65827,5
27430,65843,5
27435,65814,5
27428,65802,4
27431,65820,6
27445,65853,4
27452,65868,5
27450,65851,5
27451,65858,4
27455,65854,5
27453,65853,5
27453,65873,5
27477,65945,5
27489,65983,4
27505,66019,5
27517,66017,5
27500,66003,5
27511,66022,4
27520,66068,5
27536,66089,5
27545,66149,5
27574,66212,5
27597,66264,4
27622,66343,5
27649,66467,5
27704,66584,5
27751,66689,5
27794,66794,4
27825,66933,5
27890,67077,6
27949,67211,4
27999,67356,5
28047,67488,4
28081,67575,5
28097,67592,5
28084,67538,5
28051,67401,5
27993,67304,4
27966,67260,5
27961,67225,5
27957,67175,5
27919,67125,4
27890,67011,5
27840,66872,5
27784,66718,5
27744,66617,5
27701,66533,4
27684,66492,5
27689,66468,5
27670,66413,5
27639,66315,5
27617,66268,4
27598,66186,5
27537,66031,5
27470,65867,5
27428,65765,5
27391,65681,4
27385,65664,5
27372,65640,5
27379,65655,5
27391,65691,5
27429,65800,4
27473,65923,5
27523,66054,5
27569,66142,5
27579,66153,4
27570,66135,5
27573,66149,5
27574,66155,5
27573,66139,5
27582,66132,4
27570,66112,5
27559,66108,5
27560,66091,5
27566,66092,5
27542,66032,5
27496,65874,4
27426,65670,5
27358,65474,5
27295,65254,5
27207,65060,4
27162,64932,5
27112,64799,5
27053,64654,5
27014,64552,5
26974,64426,4
26925,64300,5
26867,64134,5
26793,63940,5
26729,63746,4
26673,63621,5
26642,63511,5
26608,63442,5
26590,63376,5
26560,63293,4
26533,63196,5
26498,63104,6
26456,62975,4
26414,62825,5
26361,62704,4
26331,62603,7
26285,62512,3
26287,62486,5
26293,62510,5
26318,62579,4
26340,62669,5
26374,62746,5
26390,62792,5
26410,62837,5
26417,62863,4
26427,62892,5
26447,62932,5
26456,62962,5
26473,62981,4
26474,63029,5
26497,63066,5
26517,63095,5
26526,63137,5
26533,63170,4
26551,63215,5
26573,63271,5
26586,63312,6
26617,63372,4
26646,63490,4
26696,63592,5
26718,63665,5
26734,63727,5
26768,63806,5
26804,63877,4
26824,63929,5
26840,63980,5
26855,64015,5
26870,64071,5
26894,64111,4
26901,64130,5
26906,64153,5
26921,64204,5
26941,64247,4
26950,64248,5
26941,64251,5
26947,64273,5
26955,64287,5
26969,64321,5
26957,64283,4
26929,64183,5
26888,64054,5
26843,63932,6
26813,63829,3
26784,63752,5
26758,63701,5
26744,63691,5
26739,63685,5
26728,63703,4
26738,63717,5
26754,63755,5
26758,63759,5
26773,63796,5
26773,63786,4
26770,63790,5
26786,63816,5
26791,63839,5
26804,63864,4
26820,63922,4
26844,63981,5
26873,64054,5
26885,64131,5
26925,64214,4
26951,64301,6
26995,64404,4
27013,64479,5
27050,64549,5
27061,64572,6
27045,64544,3
27024,64496,5
27029,64454,5
27013,64437,5
27014,64435,4
27021,64439,5
27025,64464,5
27043,64523,5
27069,64578,5
27102,64627,4
27091,64641,5
27077,64615,5
27050,64553,5
27053,64499,4
27015,64460,4
27019,64460,5
27017,64451,5
27024,64466,5
27022,64480,4
27031,64503,5
27034,64539,6
27060,64575,4
27068,64607,5
27081,64646,4
27090,64668,5
27093,64643,5
27099,64646,5
27095,64680,5
27117,64727,4
27134,64737,5
27139,64796,5
27166,64865,5
27186,64907,5
27209,64971,4
27234,65032,5
27245,65087,5
27275,65163,5
27292,65234,4
27319,65279,4
27336,65323,5
27345,65346,5
27353,65408,5
27367,65429,4
27377,65465,5
27396,65506,5
27407,65561,6
27423,65590,4
27439,65596,4
27438,65604,5
27436,65596,5
27430,65578,5
27414,65561,5
27405,65542,4
27395,65523,5
27390,65499,5
27380,65469,5
27366,65416,5
27346,65343,4
27307,65273,5
27289,65235,5
27285,65204,5
27271,65197,4
27271,65195,4
27277,65181,5
27262,65186,5
27279,65196,5
27282,65205,5
27279,65211,4
27289,65220,5
27296,65239,5
27300,65258,6
27308,65294,3
27315,65319,5
27335,65376,5
27350,65435,5
27376,65496,5
27404,65558,4
27431,65626,5
27457,65696,5
27478,65722,5
27498,65775,5
27512,65810,4
27512,65833,5
27518,65853,5
27542,65887,5
27548,65902,4
27552,65946,4
27572,65968,5
27569,65971,5
27573,65971,5
27587,66006,4
27592,66016,6
27607,66042,4
27613,66078,5
27629,66118,5
27634,66140,4
27638,66142,5
27651,66206,5
27692,66275,5
27722,66342,5
27738,66376,4
27746,66442,5
27759,66478,5
27773,66510,5
27773,66512,5
27777,66529,4
27788,66558,5
27780,66589,5
27797,66633,5
27821,66712,4
27833,66765,4
27853,66808,5
27864,66853,5
27869,66863,5
27864,66876,4
27875,66880,5
27872,66894,6
27868,66898,4
27856,66891,5
27858,66897,4
27849,66898,5
27852,66889,5
27850,66887,5
27853,66906,5
27842,66880,4
27818,66835,5
27809,66804,5
27799,66758,5
27779,66715,5
27766,66681,4
27765,66662,5
27751,66638,5
27748,66635,5
27746,66626,4
27738,66625,4
27743,66631,5
27758,66653,5
27762,66672,5
27753,66691,4
27776,66719,5
27786,66740,5
27783,66731,6
27767,66740,4
27790,66736,4
27782,66722,5
27775,66707,5
27770,66692,5
27763,66690,5
27768,66696,4
27774,66696,5
27798,66722,5
27788,66746,5
27785,66761,5
27801,66791,4
27820,66796,5
27813,66815,5
27817,66830,5
27820,66851,4
27841,66870,4
27832,66892,5
27844,66917,5
27848,66939,5
27866,66961,5
27868,66976,4
27887,67018,5
27897,67058,5
27907,67078,5
27912,67105,4
27912,67101,5
27916,67136,5
27941,67152,5
27939,67182,5
27950,67201,4
27960,67215,5
27962,67219,5
27967,67250,5
27968,67262,5
27973,67281,4
27983,67297,5
27987,67306,5
27991,67315,5
27997,67328,4
27994,67363,4
28012,67357,5
28019,67380,5
28022,67386,5
28023,67422,4
28034,67433,6
28034,67450,4
28046,67461,5
28049,67491,5
28060,67508,4
28070,67526,5
28073,67539,5
28076,67563,5
28096,67581,5
28096,67595,4
28095,67593,5
28101,67610,5
28100,67606,5
28099,67617,5
28104,67644,4
28106,67647,5
28116,67668,5
28119,67683,5
28131,67689,4
28139,67693,4
28143,67709,5
28148,67729,5
28157,67750,5
28161,67784,4
28177,67809,5
28182,67820,6
28180,67825,4
28186,67834,5
28203,67847,4
28203,67856,5
28199,67866,5
28213,67893,5
28212,67899,5
28213,67921,4
28226,67930,5
28239,67952,5
28249,67979,5
28256,68003,5
28265,68025,4
28262,68037,6
28274,68059,4
28275,68068,5
28279,68058,5
28267,68045,4
28248,68004,5
28244,67988,5
28231,67966,5
28222,67935,4
28219,67924,5
28210,67899,5
28200,67880,5
28192,67858,5
28187,67849,4
28188,67849,5
28190,67857,5
28195,67880,5
28211,67917,5
28215,67920,4
28198,67882,5
28190,67868,5
28202,67896,5
28203,67891,5
28199,67871,4
28187,67866,5
28193,67854,5
28177,67843,5
28176,67829,5
28170,67798,4
28157,67771,5
28149,67765,5
28144,67747,5
28147,67742,5
28139,67728,4
28134,67732,5
28127,67725,5
28139,67727,5
28134,67736,4
28143,67758,5
28153,67771,5
28160,67792,5
28165,67814,5
28178,67841,4
28192,67858,5
28194,67884,5
28205,67898,5
28205,67918,5
28220,67930,4
28223,67958,5
28215,67962,5
28232,68001,5
28252,68041,5
28263,68071,4
28259,68109,5
28296,68171,5
28312,68208,5
28320,68241,4
28324,68277,6
28353,68310,4
28359,68340,5
28369,68360,5
28374,68372,4
28379,68390,5
28383,68392,5
28396,68414,5
28410,68441,5
28413,68459,4
28413,68471,5
28423,68493,5
28436,68510,5
28430,68525,5
28434,68541,4
28450,68572,5
28472,68587,5
28470,68614,5
28470,68633,5
28475,68638,4
28483,68662,5
28484,68661,5
28484,68679,4
28495,68694,4
28493,68688,5
28490,68681,5
28490,68678,5
28485,68683,5
28500,68671,4
28502,68698,5
28502,68726,5
28523,68741,5
28519,68748,5
28532,68792,4
28537,68810,5
28543,68813,5
28546,68822,5
28540,68820,5
28546,68828,4
28558,68856,5
28555,68885,5
28556,68841,5
28537,68818,5
28535,68828,4
28542,68859,5
28539,68825,5
28530,68813,6
28532,68817,3
28538,68828,5
28536,68820,5
28540,68817,5
28534,68827,5
28544,68836,4
28541,68837,5
28551,68861,5
28546,68854,5
28543,68862,5
28556,68864,4
28564,68884,5
28576,68899,5
28569,68894,5
28563,68907,5
28578,68925,4
28573,68931,5
28578,68939,5
28581,68940,5
28579,68955,5
28588,68962,5
28593,68978,4
28597,68996,5
28604,69017,5
28609,69009,6
28603,69018,3
28608,69038,5
28612,69052,5
28622,69068,5
28633,69087,4
28640,69094,5
28642,69120,5
28648,69132,5
28665,69161,5
28670,69172,4
28675,69184,5
28680,69204,5
28681,69222,5
28691,69242,5
28697,69258,4
28702,69268,5
28711,69292,5
28706,69305,5
28725,69319,5
28722,69340,4
28734,69353,6
28730,69365,4
28747,69379,5
28752,69389,4
28747,69407,5
28755,69426,5
28766,69441,5
28776,69463,5
28779,69466,4
28773,69482,5
28784,69499,5
28787,69506,5
28793,69534,5
28800,69546,4
28810,69572,5
28818,69575,5
28819,69592,5
28819,69600,5
28832,69613,4
28836,69623,5
28835,69644,5
28846,69641,5
28840,69656,5
28856,69691,4
28857,69696,5
28871,69705,6
28863,69721,4
28873,69730,4
28882,69747,5
28881,69761,5
28892,69762,5
28887,69782,5
28922,69849,4
28927,69870,5
28934,69892,5
28947,69937,5
28959,69960,5
28958,69923,4
28930,69899,5
28939,69912,5
28952,69931,5
28937,69923,5
28939,69921,4
28940,69906,5
28942,69915,5
28933,69898,5
28943,69897,5
28938,69902,4
28947,69897,5
28932,69904,5
28940,69899,6
28943,69892,3
28939,69884,4
28915,69883,5
28934,69879,5
28944,69883,5
28942,69906,4
28948,69910,5
28954,69927,5
28956,69940,5
28964,69954,5
28979,69962,4
28966,69960,5
28965,69959,5
28962,69984,5
28989,69976,5
28973,70017,4
28982,70032,5
28990,70026,5
28990,70047,5
28999,70048,5
28990,70024,5
28972,69988,4
28968,69956,5
28960,69938,5
28945,69899,6
28933,69878,3
28920,69843,5
28911,69819,5
28910,69796,5
28902,69776,4
28897,69755,5
28894,69765,5
28895,69751,5
28889,69755,5
28887,69745,4
28891,69734,5
28882,69734,5
28882,69719,5
28887,69747,5
28871,69715,4
28860,69669,5
28841,69588,5
28795,69481,5
28736,69322,5
28680,69186,4
28638,69065,6
28603,68972,4
28567,68860,5
28539,68795,4
28519,68754,4
28509,68739,5
28498,68699,5
28493,68688,5
28481,68646,4
28449,68557,5
28407,68441,5
28375,68364,5
28353,68306,5
28344,68268,4
28314,68182,5
28273,68071,5
28226,67916,5
28154,67766,5
28116,67656,4
28065,67526,5
28007,67383,5
27949,67215,5
27897,67089,5
27859,66991,4
27812,66839,5
27749,66695,6
27711,66599,4
27679,66546,4
27660,66475,4
27633,66435,5
27629,66411,5
27617,66379,5
27585,66304,4
27555,66252,5
27519,66140,5
27472,66021,5
27440,65928,5
27414,65850,4
27388,65768,5
27363,65700,5
27334,65643,5
27330,65635,5
27333,65645,4
27341,65655,5
27332,65675,5
27349,65695,5
27343,65691,5
27345,65682,4
27353,65699,5
27349,65688,5
27348,65665,6
27331,65626,3
27301,65553,4
27283,65507,5
27266,65453,5
27244,65377,5
27234,65362,4
27216,65318,5
27206,65267,5
27194,65240,5
27187,65205,5
27180,65200,4
27171,65177,5
27158,65146,5
27144,65119,5
27138,65115,5
27132,65111,4
27141,65104,5
27135,65085,5
27131,65079,5
27123,65095,5
27149,65152,5
27172,65212,4
27191,65254,5
27210,65288,5
27213,65302,4
27220,65295,4
27210,65277,5
27187,65220,5
27165,65157,5
27153,65100,4
27131,65079,5
27137,65086,5
27146,65104,5
27157,65134,5
27166,65170,4
27181,65172,5
27174,65159,5
27157,65126,5
27155,65130,5
27147,65145,4
27161,65162,5
27184,65181,5
27169,65173,5
27162,65174,5
27173,65140,4
27156,65091,6
27137,65051,4
27112,64973,5
27092,64880,4
27059,64818,4
27031,64738,5
27009,64683,5
26989,64620,5
26982,64595,4
26975,64577,5
26984,64572,5
26958,64577,5
26966,64584,5
26964,64553,4
26961,64464,5
26899,64365,5
26869,64317,5
26847,64262,5
26851,64240,4
26828,64193,5
26801,64131,5
26786,64069,5
26761,64020,5
26740,63981,4
26738,63956,5
26734,63949,6
26739,63938,4
26735,63973,4
26757,64006,4
26770,64046,5
26769,64046,5
26770,64049,5
26769,64031,4
26764,64017,5
26754,64004,5
26772,64021,5
26769,64042,5
26773,64051,4
26776,64062,5
26779,64060,5
26776,64066,5
26765,64064,5
26768,64084,4
26775,64065,5
26768,64057,5
26769,64060,5
26766,64064,5
26770,64030,4
26762,64027,5
26760,64018,5
26756,64028,5
26760,64033,4
26750,64015,4
26750,63998,5
26741,63967,5
26734,63947,5
26742,63933,4
26731,63927,5
26730,63947,5
26740,63958,5
26742,63975,5
26757,64013,4
26761,64041,5
26766,64043,5
26776,64043,5
26775,64053,5
26789,64068,4
26786,64092,5
26810,64127,5
26817,64179,5
26837,64209,5
26847,64254,5
26861,64295,4
26878,64344,5
26903,64370,5
26904,64377,4
26908,64418,8
26923,64466,1
26936,64493,5
26936,64510,5
26955,64539,4
26978,64570,5
26983,64608,5
27003,64650,5
27019,64656,5
27002,64648,4
26997,64627,5
26991,64608,5
26990,64610,5
26986,64602,5
26996,64608,4
27002,64641,5
27017,64661,5
27023,64709,5
27041,64741,5
27063,64780,4
27081,64829,6
27099,64871,4
27114,64906,5
27114,64921,4
27132,64945,4
27129,64971,5
27143,65000,5
27161,65024,5
27168,65018,4
27154,65014,5
27161,65014,5
27156,65027,5
27170,65034,5
27175,65057,4
27191,65080,5
27197,65102,5
27211,65138,5
27220,65140,5
27208,65136,4
27203,65127,5
27204,65114,5
27199,65108,5
27199,65107,5
27209,65107,4
27205,65112,5
27218,65141,5
27220,65157,5
27214,65152,4
27225,65155,4
27222,65153,5
27227,65152,5
27224,65159,5
27237,65191,4
27248,65221,5
27254,65241,5
27266,65263,5
27275,65279,5
27264,65262,4
27258,65241,5
27254,65229,5
27248,65224,5
27256,65235,5
27250,65251,5
27253,65275,4
27275,65302,5
27293,65330,5
27304,65364,6
27298,65401,3
27327,65442,5
27334,65463,5
27349,65477,5
27347,65487,4
27354,65518,4
27376,65546,5
27382,65569,5
27399,65572,5
27380,65548,4
27379,65539,5
27389,65559,5
27401,65567,5
27387,65552,5
27374,65564,4
27384,65576,5
27391,65574,5
27390,65565,5
27387,65573,5
27385,65575,4
27383,65575,6
27385,65564,4
27383,65544,5
27368,65503,5
27344,65457,6
27334,65422,3
27329,65396,5
27318,65369,5
27298,65308,5
27286,65286,4
27262,65219,5
27230,65137,5
27199,65021,5
27176,64943,4
27129,64826,5
27084,64704,5
27032,64589,5
26991,64472,5
26960,64384,4
26916,64276,5
26900,64194,5
26843,64041,5
26772,63865,5
26711,63697,4
26651,63559,5
26603,63399,6
26553,63250,4
26488,63068,5
26405,62855,4
26322,62596,5
26253,62417,5
26215,62299,5
26177,62199,5
26135,62121,4
26121,62063,5
26097,61989,5
26068,61903,5
26037,61808,4
26019,61739,5
25992,61665,5
25960,61546,5
25907,61422,5
25876,61327,4
25851,61234,5
25824,61165,5
25805,61089,5
25770,60979,5
25746,60905,4
25724,60837,5
25707,60795,5
25699,60767,6
25700,60741,4
25682,60720,4
25676,60679,5
25649,60621,5
25640,60572,5
25630,60541,5
25639,60548,4
25640,60561,5
25642,60582,5
25646,60580,5
25649,60565,4
25641,60547,5
25635,60534,5
25631,60515,5
25624,60489,5
25620,60487,4
25629,60498,5
25626,60497,5
25624,60469,5
25613,60460,5
25620,60466,5
25621,60471,4
25630,60524,5
25667,60622,5
25708,60742,6
25746,60837,3
25793,60960,5
25831,61078,5
25868,61182,5
25906,61259,4
25927,61363,4
25976,61490,5
26018,61633,5
26064,61761,5
26071,61778,4
26064,61747,5
26060,61713,5
26066,61746,5
26077,61799,5
26099,61898,4
26116,62001,5
26195,62216,5
26243,62313,5
26300,62466,5
26337,62550,4
26352,62621,6
26360,62676,4
26419,62825,5
26500,63011,5
26560,63179,4
26616,63323,5
26670,63469,5
26714,63630,5
26774,63791,4
26819,63903,4
26854,64005,5
26877,64118,5
26928,64222,5
26970,64347,4
27005,64465,5
27069,64605,5
27103,64714,5
27126,64745,5
27137,64748,4
27133,64706,5
27108,64642,5
27077,64606,5
27094,64619,5
27121,64700,4
27158,64788,5
27157,64799,6
27154,64741,4
27147,64700,5
27135,64661,4
27106,64621,5
27130,64617,5
27122,64606,5
27124,64516,4
27086,64408,4
27037,64231,5
26958,63982,5
26855,63653,5
26799,63431,4
26714,63241,5
26674,63093,5
26635,62958,5
26615,62850,5
26565,62748,4
26538,62673,5
26515,62618,5
26521,62538,5
26493,62489,5
26500,62484,4
26487,62490,5
26471,62428,5
26466,62421,6
26493,62472,4
26552,62596,4
26586,62688,5
26625,62771,5
26643,62773,5
26641,62789,5
26674,62802,4
26720,62878,5
26771,63016,5
26806,63028,5
26817,63087,4
26875,63229,5
26951,63480,5
27087,63780,5
27216,64139,5
27347,64406,4
27459,64666,5
27548,64905,5
27692,65333,5
27812,65514,5
27864,65587,5
27913,65742,4
27993,65867,5
28045,66002,5
28110,66084,5
28137,66079,4
28103,65931,5
28036,65720,5
28008,65670,5
28038,65726,5
28070,65815,4
28090,65823,5
28083,65745,5
28036,65574,5
27960,65351,4
27872,65115,5
27791,64884,5
27708,64675,5
27641,64486,5
27592,64325,4
27514,64096,5
27412,63820,5
27321,63565,5
27230,63348,5
27171,63183,4
27128,63049,6
27079,62942,4
27046,62875,5
27029,62826,5
27025,62817,4
27033,62799,5
27020,62753,5
26999,62688,5
26953,62592,5
26924,62512,4
26910,62460,5
26909,62441,5
26902,62426,5
26909,62437,4
26907,62438,5
26908,62451,5
26913,62463,5
26932,62507,5
26945,62535,4
26942,62560,5
26961,62572,5
26949,62520,5
26918,62421,5
26886,62345,4
26873,62288,5
26863,62250,6
26863,62249,4
26869,62256,5
26857,62204,4
26828,62123,5
26793,62004,5
26757,61877,5
26736,61791,5
26735,61775,4
26750,61804,5
26784,61850,5
26817,61875,5
26805,61790,4
26807,61739,5
26816,61680,5
26804,61577,5
26828,61559,5
26864,61603,4
26918,61642,5
26944,61651,5
27007,61694,5
27039,61758,5
27060,61751,4
27096,61797,5
27129,61820,5
27177,61889,5
27293,62129,5
27424,62347,4
27616,62718,5
27791,63041,5
27984,63412,5
28196,63796,5
28386,64168,4
28506,64430,5
28671,64655,5
28766,64769,5
28884,65012,4
29032,65371,5
29273,65905,5
29550,66469,5
29836,67039,5
30063,67514,4
30310,67954,5
30551,68452,5
30719,68795,5
30840,69069,5
31026,69369,5
31205,69763,4
31395,70069,5
31476,70321,5
31555,70294,5
31587,70308,4
31637,70301,5
31674,70368,5
31733,70413,5
31824,70514,5
31842,70453,4
31852,70357,5
31711,70119,5
31595,69828,5
31454,69451,4
31287,69067,5
31102,68809,5
31013,68652,5
30941,68483,5
30879,68185,4
30657,67768,5
30444,67243,5
30152,66572,5
29888,65967,5
29648,65491,4
29505,65209,6
29394,64963,4
29282,64687,5
29197,64489,5
29105,64303,4
28994,64024,5
28811,63597,5
28637,63216,5
28472,62884,5
28323,62531,4
28178,62200,5
28072,62057,5
28037,61971,5
28013,61877,4
27988,61812,5
27923,61656,5
27856,61497,5
27797,61363,5
27740,61232,4
27643,61029,5
27589,60923,5
27551,60831,5
27514,60796,5
27491,60697,4
27473,60655,5
27468,60602,6
27447,60605,4
27434,60564,5
27425,60556,4
27411,60493,5
27368,60364,5
27296,60193,5
27224,60053,5
27192,59970,4
27172,59939,5
27175,59941,5
27162,59889,5
27118,59791,4
27080,59677,5
27012,59498,5
26947,59310,5
26883,59150,5
26829,58976,4
26732,58749,7
26643,58477,3
26537,58222,5
26460,58016,5
26401,57814,4
26325,57606,5
26256,57370,5
26188,57207,5
26123,57004,5
26052,56818,4
25997,56652,5
25952,56523,5
25907,56386,5
25853,56247,5
25833,56137,4
25810,56070,5
25801,56014,5
25783,55974,5
25770,55928,4
25763,55898,5
25743,55842,5
25717,55772,5
25699,55696,5
25678,55632,4
25669,55595,5
25678,55581,4
25680,55574,5
25690,55582,5
25706,55601,6
25743,55622,3
25755,55624,5
25750,55574,5
25746,55535,5
25748,55516,4
25731,55488,5
25741,55460,5
25720,55416,5
25721,55386,5
25718,55370,4
25717,55356,5
25735,55376,5
25742,55391,5
25744,55360,4
25725,55312,5
25732,55303,5
25744,55280,5
25741,55263,5
25739,55231,4
25701,55128,5
25669,55021,6
25624,54915,4
25599,54831,5
25567,54733,4
25526,54631,7
25467,54515,3
25440,54422,5
25414,54332,5
25400,54289,4
25405,54286,5
25398,54282,5
25394,54263,5
25385,54229,5
25377,54221,4
25391,54223,5
25386,54224,5
25398,54224,5
25399,54218,4
25408,54225,4
25401,54215,5
25395,54205,5
25399,54177,5
25384,54146,4
25365,54140,5
25379,54127,5
25381,54133,6
25398,54163,4
25372,54180,4
25416,54205,5
25425,54232,5
25440,54262,5
25433,54313,5
25472,54347,4
25489,54382,5
25499,54427,5
25537,54456,5
25545,54531,5
25571,54583,4
25591,54643,5
25644,54701,5
25627,54742,5
25651,54789,4
25659,54810,4
25692,54845,5
25675,54852,5
25678,54882,5
25694,54907,5
25709,54931,4
25709,54941,5
25700,54956,5
25702,54956,6
25713,54960,3
25715,54993,5
25738,55045,5
25755,55086,5
25758,55101,5
25775,55182,4
25803,55255,5
25824,55281,5
25818,55275,5
25824,55297,5
25827,55319,4
25834,55326,5
25841,55345,5
25850,55391,5
25874,55434,4
25897,55500,4
25906,55533,5
25904,55493,5
25895,55488,5
25893,55486,4
25907,55558,6
25918,55569,4
25930,55565,5
25930,55580,5
25938,55599,6
25945,55594,3
25943,55596,5
25953,55647,5
25973,55695,5
25989,55740,4
26002,55741,5
26002,55719,5
25991,55707,5
25992,55719,5
25992,55718,4
26003,55732,5
25997,55730,5
26005,55735,5
26021,55755,4
26024,55777,4
26035,55796,5
26039,55829,5
26055,55863,5
26062,55882,4
26069,55903,5
26081,55925,6
26091,55936,4
26089,55936,5
26097,55940,4
26105,55972,5
26114,56017,5
26144,56091,5
26181,56161,5
26208,56236,4
26236,56307,5
26270,56388,5
26290,56451,5
26317,56514,5
26336,56554,4
26332,56556,5
26338,56552,5
26348,56574,5
26356,56585,4
26336,56508,4
26313,56423,5
26283,56366,5
26286,56361,5
26308,56392,4
26322,56441,5
26351,56490,5
26375,56551,6
26395,56599,4
26414,56627,4
26428,56643,5
26444,56673,5
26455,56694,5
26465,56714,5
26481,56744,4
26489,56781,5
26511,56799,5
26521,56836,5
26536,56866,5
26548,56874,4
26555,56895,5
26562,56910,5
26564,56906,5
26558,56902,5
26562,56896,4
26583,56923,5
26585,56942,5
26596,56960,5
26595,56943,5
26597,56927,4
26587,56919,5
26588,56922,5
26611,56948,6
26626,56983,3
26638,57023,5
26663,57069,5
26675,57070,5
26667,57037,5
26642,56979,4
26626,56925,5
26598,56865,5
26574,56814,5
26577,56787,5
26555,56724,4
26520,56627,5
26488,56504,5
26440,56403,5
26418,56320,5
26405,56293,4
26414,56294,5
26409,56319,5
26444,56354,5
26474,56442,4
26514,56504,6
26512,56493,4
26547,56513,5
26573,56549,5
26606,56621,4
26610,56688,5
26664,56748,5
26696,56838,5
26748,56960,5
26797,57074,4
26848,57159,5
26875,57207,5
26884,57200,5
26923,57232,5
26932,57274,4
26934,57285,5
26944,57302,5
27007,57366,5
27024,57508,5
27109,57651,4
27154,57704,5
27227,57806,5
27298,57964,5
27446,58217,4
27564,58501,5
27754,58816,6
27984,59247,4
28264,59695,5
28496,59973,4
28667,60307,5
28846,60677,5
29063,61094,5
29307,61618,5
29519,61994,4
29732,62385,5
29904,62653,5
29960,62741,5
30024,62729,5
29983,62642,4
29973,62565,5
29958,62496,5
29944,62458,5
29930,62402,5
29919,62338,4
29893,62282,5
29864,62218,5
29822,62100,5
29812,62053,4
29814,62044,5
29817,62093,5
29833,62077,6
29843,62108,4
29879,62203,4
29942,62320,5
29975,62379,5
30018,62444,5
30035,62478,5
30037,62488,4
30025,62422,5
29983,62326,5
29932,62203,5
29865,62046,5
29809,61893,4
29740,61718,5
29685,61578,5
29654,61510,5
29630,61424,5
29597,61343,4
29570,61264,5
29538,61185,5
29495,61070,5
29444,60926,5
29396,60813,4
29346,60697,5
29313,60601,5
29265,60531,5
29240,60454,4
29210,60380,5
29174,60307,5
29140,60238,5
29111,60161,5
29091,60111,4
29074,60076,5
29068,60064,5
29049,60034,5
29034,60013,5
29022,59979,4
29019,59967,5
29015,59960,5
29020,59960,5
28986,59858,5
28924,59704,4
28881,59594,5
28836,59524,5
28820,59468,5
28803,59389,4
28763,59262,6
28701,59126,4
28651,58991,5
28606,58871,5
28584,58789,4
28586,58783,5
28593,58799,5
28622,58784,5
28615,58723,5
28590,58619,4
28580,58612,5
28588,58579,5
28609,58613,5
28650,58681,5
28701,58776,4
28764,58876,5
28821,58982,5
28905,59125,5
28979,59212,5
29026,59264,4
29064,59325,5
29109,59360,5
29134,59380,5
29180,59445,4
29253,59573,5
29319,59709,6
29383,59818,4
29521,60103,5
29696,60468,4
29899,60873,5
30124,61324,5
30406,61880,5
30631,62309,5
30801,62614,4
30929,62871,5
31048,63116,5
31115,63291,5
31188,63459,5
31289,63647,4
31358,63766,5
31408,63810,5
31466,63903,5
31440,63822,5
31364,63561,4
31222,63272,5
31068,62902,5
30862,62513,5
30736,62174,4
30576,61891,5
30451,61623,5
30286,61323,5
30174,61009,5
30020,60677,4
29874,60341,5
29688,59989,5
29548,59665,5
29412,59410,5
29313,59211,4
29264,59052,5
29161,58857,5
29059,58634,5
28972,58468,5
28935,58282,4
28834,58136,5
28768,57968,5
28690,57818,5
28652,57670,5
28562,57540,4
28507,57429,5
28479,57348,5
28459,57293,5
28441,57280,5
28444,57268,4
28447,57311,5
28477,57352,5
28490,57382,5
28492,57375,4
28484,57378,5
28490,57358,5
28495,57406,5
28503,57417,5
28532,57485,4
28555,57484,5
28553,57501,5
28533,57471,5
28518,57421,5
28498,57386,4
28475,57349,5
28449,57292,5
28430,57284,5
28449,57347,5
28447,57316,4
28430,57254,5
28399,57180,5
28356,57126,5
28301,56983,4
28241,56841,6
28185,56722,3
28142,56650,5
28098,56551,5
28065,56480,4
28039,56432,5
28026,56396,5
28006,56349,5
27990,56326,5
27967,56282,9
27957,56250,0
27940,56233,5
28492,57375,5
27933,56206,5
27906,56165,4
27891,56144,5
27886,56163,5
27899,56180,5
27925,56217,5
27947,56280,4
27978,56336,5
27992,56373,6
28017,56430,4
28032,56465,4
28028,56468,5
28032,56451,5
28017,56436,5
28018,56414,5
28008,56410,4
28007,56403,5
28015,56417,5
28012,56409,5
27988,56363,5
27978,56338,4
27945,56324,5
27956,56296,5
27935,56281,5
27916,56228,5
27899,56187,4
27888,56173,5
27883,56161,5
27865,56144,5
27864,56135,5
27854,56137,4
27864,56153,5
27864,56145,5
27857,56137,6
27862,56117,3
27848,56120,5
27859,56117,5
27865,56132,5
27871,56164,5
27882,56188,4
27899,56227,5
27912,56248,5
27923,56270,5
27925,56292,5
27935,56321,4
27947,56356,5
27970,56393,5
27990,56446,5
28006,56468,5
28011,56467,4
28017,56472,5
28006,56476,5
28023,56496,5
28020,56506,5
28037,56529,5
28044,56546,4
28047,56540,5
28036,56523,5
28032,56500,6
28019,56480,3
28020,56481,5
28019,56488,5
28017,56493,5
28012,56464,4
27982,56406,5
27954,56341,5
27939,56295,5
27921,56276,5
27920,56268,4
27917,56267,5
27919,56265,5
27920,56279,5
27923,56270,5
27923,56280,4
27925,56282,5
27931,56274,5
27916,56249,5
27907,56224,5
27891,56229,4
27910,56236,6
27910,56254,4
27920,56272,5
27909,56274,4
27928,56277,4
27918,56274,5
27922,56268,5
27897,56255,5
27910,56245,4
27917,56238,5
27905,56212,5
27885,56182,5
27878,56125,5
27847,56060,4
27816,56003,5
27828,55961,5
27773,55886,5
27739,55829,5
27716,55799,4
27752,55784,5
27723,55765,5
27724,55774,5
27721,55789,5
27740,55796,4
27740,55809,5
27746,55838,6
27767,55874,4
27785,55908,4
27798,55922,4
27799,55941,5
27809,55960,5
27814,55950,5
27813,55967,4
27816,55958,5
27821,55972,5
27819,55950,5
27830,55989,5
27843,56014,4
27859,56037,5
27870,56050,5
27892,56138,5
27933,56223,5
27972,56320,4
28008,56372,5
28015,56359,5
28014,56352,5
28010,56346,5
28013,56383,4
28010,56345,5
28022,56363,5
28029,56377,6
28024,56389,3
28015,56325,4
27998,56303,5
27981,56269,5
27982,56269,5
27982,56251,4
27983,56252,5
27978,56252,5
27976,56267,5
27991,56269,5
28004,56288,4
28008,56300,5
28006,56285,5
28009,56281,5
28004,56284,5
28014,56280,4
28008,56291,5
28015,56284,5
28007,56273,5
28006,56266,5
28006,56256,5
28013,56285,4
28025,56323,5
28034,56336,5
28045,56346,6
28049,56381,3
28076,56399,5
28080,56415,5
28087,56424,5
28081,56407,4
28094,56414,5
28097,56423,5
28097,56413,5
28098,56428,5
28108,56467,4
28136,56530,5
28167,56593,5
28190,56639,5
28203,56671,5
28212,56700,4
28237,56710,5
28233,56713,5
28234,56697,5
28218,56672,5
28212,56638,4
28196,56617,6
28183,56591,4
28175,56571,5
28165,56547,4
28159,56531,4
28154,56533,5
28160,56534,5
28163,56528,5
28169,56537,4
28169,56542,5
28175,56553,5
28176,56570,5
28202,56591,5
28211,56627,4
28223,56651,5
28222,56652,5
28211,56615,5
28187,56563,5
28164,56522,4
28153,56481,5
28134,56467,5
28139,56478,5
28156,56526,5
28177,56559,4
28190,56562,5
28198,56599,6
28218,56642,4
28237,56681,4
28266,56742,4
28285,56791,5
28296,56833,5
28308,56805,5
28281,56751,4
28269,56745,5
28259,56749,5
28269,56747,5
28276,56766,5
28293,56812,4
28320,56863,5
28335,56893,5
28345,56921,5
28335,56926,5
28323,56885,4
28317,56889,5
28312,56883,5
28294,56844,5
28278,56790,5
28260,56787,4
28246,56836,5
28299,56908,5
28349,57022,6
28402,57167,3
28445,57330,4
28523,57453,5
28569,57557,5
28596,57610,5
28581,57626,4
28611,57685,5
28641,57792,5
28704,57952,5
28799,58083,5
28809,58151,4
28831,58204,5
28812,58150,5
28786,58057,5
28765,58015,5
28757,58072,4
28802,58126,5
28859,58227,5
28920,58358,5
28992,58523,5
29089,58701,5
29125,58739,4
29154,58786,5
29116,58680,5
29084,58604,4
29066,58544,4
29070,58527,5
29104,58598,5
29096,58602,5
29144,58677,4
29217,58858,5
29273,58939,5
29275,58935,5
29302,58963,5
29333,59042,4
29351,59098,5
29380,59172,5
29402,59227,5
29405,59203,5
29384,59152,4
29380,59142,5
29394,59211,5
29429,59230,5
29440,59244,5
29432,59248,4
29459,59337,6
29490,59368,4
29531,59477,5
29585,59602,4
29635,59724,4
29690,59833,5
29771,60008,5
29844,60187,5
29929,60356,4
29985,60491,5
30067,60639,5
30110,60729,5
30126,60732,5
30135,60753,4
30142,60773,5
30158,60802,5
30161,60801,5
30152,60800,5
30157,60784,4
30138,60736,5
30104,60653,5
30055,60560,5
30030,60481,5
29992,60413,4
29968,60333,5
29936,60277,6
29921,60260,4
29918,60259,4
29930,60290,4
29955,60316,5
29964,60362,5
29994,60411,5
30005,60454,4
30026,60482,5
30031,60448,5
29999,60391,5
29979,60359,5
29978,60358,4
29969,60370,5
29980,60381,5
29991,60391,5
29997,60444,5
30020,60457,4
30025,60486,5
30022,60463,5
30003,60416,5
29965,60338,5
29950,60284,4
29940,60280,5
29933,60286,5
29946,60289,5
29946,60322,4
29962,60362,4
29985,60405,5
30001,60455,5
30023,60482,5
30033,60507,4
30034,60521,5
30040,60527,5
30057,60549,5
30067,60575,5
30081,60613,4
30104,60670,5
30131,60735,5
30145,60784,5
30168,60806,5
30154,60810,4
30147,60786,5
30131,60722,5
30084,60636,5
30058,60577,5
30033,60507,5
30018,60480,4
30009,60471,5
30005,60471,5
30010,60484,4
30019,60507,4
30038,60556,5
30054,60588,5
30076,60659,5
30114,60752,4
30160,60834,5
30169,60830,5
30139,60778,5
30129,60768,5
30141,60798,4
30151,60816,5
30153,60824,5
30133,60778,5
30126,60775,5
30131,60753,4
30113,60715,5
30068,60632,5
30015,60576,5
30025,60553,5
30032,60546,4
30036,60574,6
30009,60587,4
30037,60552,5
30003,60491,4
29979,60434,4
29945,60404,5
29947,60366,5
29915,60337,5
29939,60354,4
29983,60435,5
29988,60477,5
29993,60475,5
29980,60452,5
30011,60435,4
29974,60425,5
29970,60419,5
29966,60411,5
30003,60438,5
29997,60485,4
30015,60522,5
30021,60540,5
30033,60536,6
30025,60549,4
30031,60543,4
30018,60508,5
30004,60468,5
30002,60491,5
30010,60494,4
30010,60516,4
30021,60511,5
30035,60552,5
30034,60527,5
30018,60511,4
30019,60437,5
29985,60418,5
29953,60350,5
29917,60251,5
29881,60160,4
29855,60138,5
29850,60119,5
29858,60125,5
29855,60160,5
29851,60116,5
29829,60050,4
29784,59952,5
29733,59875,5
29689,59726,6
29642,59654,6
29621,59604,2
29607,59580,5
29580,59510,5
29567,59439,4
29534,59379,4
29521,59364,5
29527,59388,5
29529,59402,5
29526,59371,4
29511,59325,5
29480,59274,5
29484,59251,5
29481,59278,5
29488,59294,4
29492,59310,5
29490,59312,5
29489,59293,5
29483,59273,5
29468,59269,4
29479,59270,6
29479,59263,4
29478,59280,5
29485,59300,5
29494,59334,6
29513,59363,3
29500,59347,5
29494,59308,5
29472,59206,4
29431,59129,4
29404,59077,5
29390,59034,5
29367,58990,5
29344,58929,4
29334,58908,5
29333,58912,5
29337,58923,5
29350,58963,5
29361,58996,4
29382,59045,5
29410,59085,5
29422,59121,5
29431,59127,5
29445,59153,4
29444,59169,5
29453,59178,6
29460,59200,4
29457,59213,5
29450,59165,4
29439,59136,5
29414,59070,5
29379,59000,5
29345,58941,4
29327,58900,4
29335,58884,5
29317,58848,5
29293,58812,5
29290,58799,4
29286,58771,5
29281,58768,5
29288,58768,5
29286,58793,5
29303,58821,4
29312,58833,5
29315,58855,5
29333,58864,5
29331,58877,5
29333,58883,4
29319,58854,5
29313,58832,5
29309,58814,6
29303,58803,4
29295,58781,4
29278,58771,5
29296,58785,5
29291,58803,5
29301,58805,5
29319,58813,4
29299,58813,5
29296,58806,5
29306,58809,5
29299,58799,4
29279,58765,5
29261,58728,5
29252,58713,5
29251,58708,5
29254,58720,4
29260,58736,5
29256,58748,5
29266,58777,5
29286,58804,5
29290,58854,5
29330,58912,4
29360,58982,5
29389,59046,5
29388,59107,6
29441,59175,3
29467,59237,5
29497,59282,5
29480,59298,5
29517,59333,5
29516,59348,4
29523,59355,5
29534,59359,5
29529,59377,5
29540,59377,4
29543,59390,5
29585,59395,5
29558,59411,5
29565,59435,5
29567,59451,4
29611,59468,5
29586,59482,5
29591,59491,5
29593,59473,5
29600,59469,4
29567,59447,6
29568,59441,4
29558,59423,5
29551,59390,5
29537,59361,4
29528,59332,5
29512,59317,5
29505,59262,5
29506,59280,5
29495,59270,4
29497,59280,5
29501,59268,5
29517,59316,5
29522,59337,4
29520,59330,5
29529,59312,5
29522,59330,5
29523,59329,5
29528,59321,4
29511,59324,5
29511,59318,5
29514,59316,5
29519,59321,5
29520,59337,4
29515,59313,5
29518,59325,6
29530,59346,4
29532,59371,5
29525,59326,4
29529,59329,5
29524,59304,5
29508,59293,5
29496,59264,5
29490,59242,4
29498,59242,5
29496,59245,5
29493,59236,5
29488,59222,4
29485,59224,5
29484,59227,5
29486,59237,5
29491,59240,5
29492,59246,4
29499,59252,5
29504,59254,5
29502,59262,5
29491,59243,5
29483,59225,4
29477,59206,5
29461,59196,5
29464,59177,6
29460,59164,4
29452,59150,4
29442,59130,5
29437,59113,5
29431,59115,5
29425,59102,5
29434,59115,4
29440,59132,5
29454,59141,5
29449,59147,5
29446,59149,4
29449,59139,5
29440,59145,5
29448,59143,5
29446,59155,5
29449,59156,4
29450,59160,5
29455,59164,5
29458,59167,5
29460,59169,5
29464,59182,5
29467,59203,4
29483,59222,5
29481,59234,5
29493,59253,5
29500,59276,4
29510,59298,5
29521,59324,5
29532,59332,5
29531,59319,5
29516,59296,4
29507,59274,5
29496,59254,5
29496,59239,5
29496,59235,4
29495,59234,4
29486,59226,5
29482,59229,5
29490,59231,5
29496,59248,4
29505,59266,5
29508,59296,5
29532,59338,5
29554,59383,5
29565,59412,4
29570,59428,6
29574,59437,4
29593,59469,5
29603,59495,5
29608,59511,4
29603,59515,5
29618,59524,5
29620,59539,5
29623,59561,5
29627,59572,4
29640,59593,5
29653,59613,5
29667,59643,5
29668,59664,4
29685,59690,4
29692,59692,5
29683,59685,5
29675,59670,5
29677,59659,4
29670,59642,5
29656,59648,5
29674,59645,5
29666,59639,5
29675,59638,4
29638,59652,5
29677,59660,6
29676,59667,4
29685,59679,5
29652,59690,4
29689,59700,5
29702,59715,5
29710,59726,5
29711,59751,5
29729,59775,4
29735,59786,5
29742,59798,5
29764,59792,5
29745,59791,4
29741,59789,4
29742,59802,5
29777,59807,5
29753,59814,5
29747,59824,4
29756,59843,5
29786,59843,5
29762,59849,5
29766,59860,5
29772,59876,4
29779,59875,5
29781,59888,5
29783,59905,5
29783,59920,5
29797,59912,4
29795,59941,5
29808,59944,5
29809,59951,5
29807,59948,5
29821,59997,4
29834,60012,5
29843,60026,5
29843,60007,5
29840,60035,4
29841,60030,4
29839,60034,5
29840,60035,5
29831,60028,5
29829,60030,4
29839,60039,5
29851,60079,5
29846,60042,5
29840,60019,5
29842,60023,5
29852,60095,4
29852,60062,5
29844,60049,5
29857,60060,5
29848,60072,4
29853,60048,5
29847,60053,5
29848,60060,5
29851,60060,5
29855,60069,4
29857,60071,5
29865,60078,5
29871,60088,5
29873,60102,4
29879,60117,4
29885,60126,5
29888,60133,5
29888,60133,5
29893,60146,4
29892,60149,5
29897,60158,5
29900,60158,5
29906,60165,5
29901,60165,4
29909,60183,6
29919,60203,4
29923,60225,5
29930,60221,5
29946,60245,4
29957,60273,5
29956,60288,5
29971,60308,5
29971,60322,5
29979,60323,4
29978,60318,5
29965,60315,5
29965,60304,5
29959,60295,4
29964,60304,4
29967,60304,5
29971,60307,5
29970,60322,5
29985,60325,4
29977,60344,5
29995,60349,5
29996,60361,5
29994,60390,5
30000,60411,4
30018,60415,5
30024,60436,5
30026,60448,5
30036,60461,5
30042,60474,4
30051,60478,5
30046,60482,5
30045,60492,5
30044,60488,5
30056,60502,4
30049,60500,5
30058,60511,5
30061,60514,5
30050,60507,5
30050,60502,4
30063,60509,5
30054,60512,5
30050,60507,5
30051,60514,5
30070,60533,4
30070,60548,5
30069,60556,5
30076,60546,6
30072,60542,3
30068,60539,5
30070,60531,5
30057,60499,5
30039,60474,5
30038,60470,4
30038,60445,5
30018,60430,5
30017,60423,5
30009,60428,5
30006,60412,4
30013,60421,5
30011,60418,5
30015,60444,5
30025,60447,5
30022,60450,4
30031,60462,5
30026,60465,5
30028,60470,5
30028,60460,4
30028,60454,6
30023,60446,4
29994,60430,5
30000,60426,5
30012,60413,6
30005,60404,3
29967,60402,5
29997,60396,5
30002,60400,5
29997,60389,4
29977,60395,5
30005,60403,5
29997,60393,5
29994,60391,5
30021,60398,4
29995,60392,5
30002,60394,5
30005,60398,5
30037,60401,5
29996,60414,4
30005,60409,5
30009,60399,5
30031,60398,5
29997,60398,4
30001,60394,5
29993,60387,6
30007,60384,4
29995,60391,5
29991,60380,4
29986,60385,7
29983,60357,3
29984,60362,5
29978,60362,5
29973,60357,4
29981,60331,5
29977,60355,5
29982,60358,5
29987,60361,5
29984,60328,4
29980,60377,5
29985,60379,5
29997,60400,5
30008,60403,5
30014,60433,5
30031,60446,4
30030,60455,5
30019,60493,5
30034,60466,4
30033,60480,5
30042,60489,5
30047,60547,6
30054,60536,4
30065,60558,4
30068,60554,5
30070,60564,5
30074,60561,5
30070,60568,5
30070,60558,4
30070,60549,5
30076,60541,5
30062,60547,5
30079,60550,5
30072,60565,4
30073,60566,5
30074,60581,5
30082,60593,5
30096,60595,5
30097,60602,4
30100,60612,5
30098,60603,5
30089,60613,5
30097,60611,5
30102,60620,4
30104,60626,5
30110,60627,5
30106,60642,6
30103,60644,3
30118,60649,5
30113,60665,5
30118,60657,5
30124,60665,5
30124,60674,4
30128,60680,5
30132,60698,5
30136,60688,5
30148,60718,5
30157,60715,4
30151,60736,5
30156,60732,5
30153,60730,5
30154,60727,5
30155,60715,4
30149,60713,5
30149,60699,5
30137,60695,5
30126,60681,4
30129,60673,6
30134,60684,4
30122,60680,5
30123,60672,5
30131,60675,6
30124,60675,3
30131,60677,5
30129,60684,5
30123,60679,5
30130,60675,4
30129,60665,5
30117,60668,5
30129,60666,5
30127,60664,5
30124,60664,4
30124,60661,5
30128,60672,5
30119,60668,5
30129,60669,5
30125,60671,4
30116,60657,5
30124,60650,5
30115,60629,5
30108,60627,4
30098,60623,5
30095,60609,6
30102,60619,4
30098,60607,5
30099,60608,4
30086,60588,5
30078,60574,5
30080,60580,5
30086,60585,5
30080,60572,4
30072,60576,5
30082,60578,5
30081,60565,5
30071,60568,5
30079,60560,4
30079,60569,5
30073,60568,5
30078,60565,5
30079,60570,5
30083,60574,4
30080,60567,5
30081,60571,5
30077,60562,5
30061,60565,4
30067,60566,5
30069,60565,5
30069,60573,6
30040,60561,4
30070,60567,4
30076,60562,5
30080,60573,5
30055,60580,5
30074,60575,5
30076,60579,4
30079,60579,5
30088,60573,5
30081,60581,5
30085,60591,5
30084,60594,4
30116,60603,5
30090,60600,5
30090,60605,5
30092,60615,5
30131,60616,4
30095,60622,5
30102,60627,5
30100,60638,5
30124,60644,5
30119,60667,4
30130,60684,5
30131,60687,5
30129,60691,6
30141,60702,3
30130,60689,5
30125,60688,5
30129,60670,5
30128,60691,5
30128,60684,4
30119,60671,5
30117,60631,5
30111,60653,5
30108,60649,5
30100,60642,4
30102,60618,5
30097,60622,5
30095,60613,5
30095,60609,5
30087,60618,4
30084,60598,5
30088,60595,5
30082,60591,5
30082,60628,4
30093,60605,6
30081,60613,4
30094,60604,5
30085,60621,5
30084,60598,4
30083,60577,5
30061,60544,5
30054,60531,5
30041,60503,5
30040,60474,4
30026,60455,5
30022,60434,5
30018,60435,5
30011,60429,5
30010,60429,4
30008,60432,5
30004,60412,5
30013,60411,5
30003,60404,5
29999,60400,4
29994,60387,5
29986,60386,5
29991,60376,5
29982,60373,4
29976,60359,4
29983,60349,6
29972,60337,4
29966,60323,5
29952,60315,4
29949,60309,5
29958,60303,5
29951,60296,5
29939,60299,5
29945,60288,4
29951,60292,5
29946,60283,5
29944,60280,5
29937,60261,5
29933,60255,4
29934,60253,5
29930,60255,5
29922,60235,5
29924,60230,5
29915,60230,4
29926,60232,5
29916,60237,5
29910,60221,5
29902,60198,4
29893,60184,4
29888,60171,5
29885,60146,6
29878,60133,4
29880,60132,4
29876,60132,5
29882,60128,5
29875,60135,5
29865,60135,5
29874,60136,4
29879,60134,5
29882,60141,5
29882,60152,5
29879,60156,5
29882,60149,4
29883,60146,5
29880,60139,5
29875,60135,5
29870,60126,5
29867,60095,4
29859,60104,5
29858,60117,5
29871,60106,5
29863,60102,5
29860,60095,4
29860,60099,5
29853,60105,5
29858,60086,5
29850,60079,4
29849,60071,5
29846,60074,5
29843,60065,5
29851,60062,5
29847,60073,4
29845,60065,5
29836,60059,5
29849,60055,5
29828,60039,5
29829,60022,4
29823,60028,5
29826,60012,5
29819,60022,5
29815,60009,5
29809,59995,4
29794,59993,5
29803,59984,5
29807,59973,5
29808,59986,4
29790,59982,5
29797,59983,4
29800,59974,5
29805,59977,5
29775,59968,4
29794,59947,5
29797,59955,5
29792,59946,5
29780,59941,5
29771,59940,4
29782,59924,5
29773,59924,5
29807,59927,5
29784,59923,5
29778,59916,4
29773,59913,5
29816,59920,5
29769,59913,5
29768,59914,5
29772,59906,4
29787,59894,5
29761,59884,5
29756,59876,5
29755,59868,4
29758,59861,4
29752,59870,6
29745,59871,4
29738,59864,5
29747,59843,4
29752,59867,5
29748,59873,5
29761,59871,5
29745,59829,5
29744,59868,4
29751,59867,5
29747,59871,5
29747,59832,5
29748,59862,5
29759,59875,4
29756,59864,5
29749,59865,5
29744,59847,5
29731,59830,5
29727,59803,4
29722,59832,5
29717,59806,5
29720,59802,5
29712,59777,4
29696,59797,4
29703,59757,5
29708,59756,5
29698,59738,5
29690,59735,4
29684,59712,5
29669,59710,5
29679,59692,5
29676,59701,5
29676,59687,4
29673,59683,5
29676,59693,5
29676,59697,5
29669,59682,5
29667,59678,4
29655,59654,5
29649,59642,5
29653,59637,5
29648,59628,5
29638,59625,4
29634,59605,5
29638,59604,5
29633,59613,5
29633,59606,5
29641,59615,3
29637,59618,5
29644,59618,5
29647,59632,5
29644,59641,4
29650,59639,5
29652,59641,5
29653,59653,5
29660,59662,5
29655,59656,4
29668,59666,5
29659,59673,5
29659,59669,5
29668,59677,5
29667,59668,4
29662,59662,5
29663,59674,5
29660,59654,5
29658,59660,5
29650,59655,4
29667,59648,6
29656,59659,4
29653,59668,5
29654,59657,4
29664,59667,6
29667,59666,3
29665,59680,5
29667,59673,5
29667,59679,4
29670,59667,5
29670,59687,5
29670,59683,5
29675,59690,5
29675,59685,4
29669,59697,5
29670,59695,5
29679,59698,5
29678,59701,5
29682,59710,4
29682,59710,5
29686,59700,5
29674,59706,5
29678,59699,5
29669,59677,4
29661,59677,5
29664,59676,6
29670,59688,4
29670,59676,4
29665,59659,4
29657,59661,5
29674,59673,5
29665,59666,5
29653,59658,4
29651,59653,5
29651,59656,5
29652,59636,5
29644,59632,5
29646,59632,4
29644,59631,5
29648,59624,5
29641,59627,5
29647,59628,5
29656,59634,4
29641,59633,5
29652,59626,5
29630,59624,5
29642,59611,5
29638,59622,4
29631,59618,5
29610,59613,5
29638,59620,6
29639,59633,3
29635,59629,4
29622,59638,5
29650,59651,5
29652,59666,5
29660,59671,4
29656,59666,5
29659,59662,5
29653,59676,5
29662,59668,5
29669,59663,4
29658,59663,5
29652,59666,5
29663,59668,5
29690,59675,5
29670,59687,4
29662,59696,5
29669,59690,5
29696,59712,5
29678,59713,5
29687,59725,5
29684,59728,4
29693,59744,5
29693,59743,5
29689,59742,6
29689,59733,3
29690,59728,5
29686,59732,5
29689,59733,5
29683,59731,8
29686,59707,1
29680,59739,5
29680,59744,5
29688,59741,5
29688,59711,4
29691,59751,5
29691,59746,5
29685,59741,5
29696,59745,5
29694,59764,4
29710,59773,5
29700,59775,5
29706,59799,5
29711,59780,5
29698,59786,4
29703,59774,6
29700,59809,4
29695,59761,5
29699,59755,4
29698,59764,4
29693,59785,5
29698,59756,5
29687,59735,5
29687,59740,4
29691,59750,5
29681,59742,5
29677,59734,5
29679,59740,5
29685,59733,4
29686,59727,5
29681,59731,5
29681,59736,5
29695,59733,5
29690,59737,4
29699,59738,5
29689,59744,5
29698,59754,5
29688,59760,5
29697,59760,4
29704,59770,5
29697,59768,6
29710,59788,4
29715,59792,4
29710,59797,4
29715,59795,5
29714,59794,5
29722,59802,5
29706,59796,4
29714,59801,5
29715,59785,5
29709,59793,5
29714,59792,5
29704,59789,4
29703,59775,5
29709,59779,5
29700,59774,5
29705,59787,5
29703,59782,4
29715,59784,5
29704,59784,5
29712,59795,5
29704,59789,5
29712,59795,4
29721,59795,5
29704,59789,5
29712,59794,6
29712,59798,3
29710,59800,4
29718,59794,5
29722,59799,5
29713,59803,5
29724,59809,4
29725,59804,5
29721,59816,5
29721,59815,5
29724,59814,5
29728,59827,4
29730,59834,5
29731,59839,5
29734,59841,5
29736,59858,5
29741,59856,4
29742,59874,5
29752,59870,5
29749,59876,5
29747,59889,5
29764,59901,5
29770,59906,4
29770,59918,5
29772,59920,5
29776,59931,4
29775,59914,4
29772,59923,5
29772,59904,5
29769,59909,5
29764,59905,4
29765,59911,5
29770,59925,5
29777,59929,5
29776,59922,5
29761,59902,4
29768,59912,5
29761,59914,5
29765,59907,5
29755,59889,5
29756,59882,4
29757,59880,5
29749,59862,5
29742,59875,5
29729,59875,5
29749,59875,4
29754,59883,6
29758,59888,4
29718,59892,5
29759,59891,4
29752,59894,4
29756,59889,5
29721,59885,5
29758,59891,5
29757,59882,4
29760,59880,5
29760,59878,5
29747,59875,5
29753,59878,5
29755,59878,4
29784,59867,5
29743,59877,5
29750,59872,5
29751,59881,5
29787,59887,4
29756,59871,5
29751,59879,5
29751,59878,5
29766,59872,5
29749,59867,4
29747,59863,5
29747,59859,6
29752,59845,4
29736,59851,5
29728,59855,4
29729,59847,5
29744,59813,5
29725,59831,5
29727,59835,4
29736,59833,5
29733,59816,5
29739,59841,5
29741,59851,5
29737,59850,4
29735,59833,5
29737,59850,5
29740,59850,5
29738,59859,5
29735,59879,4
29739,59855,5
29734,59848,5
29737,59859,5
29737,59893,5
29737,59865,4
29745,59865,5
29752,59858,5
29744,59885,5
29745,59868,5
29748,59863,4
29746,59878,5
29750,59894,5
29752,59889,5
29748,59890,4
29761,59882,5
29754,59890,5
29754,59889,5
29754,59888,5
29753,59905,4
29764,59893,5
29762,59892,5
29757,59887,5
29752,59881,5
29756,59869,4
29745,59877,5
29740,59860,5
29731,59853,5
29739,59855,5
29732,59854,5
29734,59850,4
29733,59834,5
29729,59845,5
29740,59849,5
29735,59859,4
29745,59864,5
29738,59861,5
29738,59871,5
29739,59855,4
29738,59855,5
29735,59862,5
29726,59851,5
29735,59848,5
29729,59851,4
29735,59854,5
29741,59858,5
29732,59855,5
29730,59861,5
29733,59865,4
29736,59866,5
29743,59870,5
29749,59893,5
29755,59883,5
29745,59880,4
29750,59883,6
29752,59878,4
29750,59889,5
29749,59892,5
29745,59889,4
29751,59884,5
29745,59879,5
29738,59877,5
29743,59887,4
29752,59883,5
29752,59889,5
29752,59892,5
29759,59893,5
29758,59903,4
29758,59901,5
29753,59909,5
29755,59913,5
29778,59922,5
29765,59931,4
29766,59943,5
29778,59940,5
29779,59953,5
29781,59967,5
29781,59972,4
29785,59984,5
29798,59985,6
29796,60005,4
29800,59999,5
29809,60015,4
29810,60009,5
29808,60019,5
29815,60023,5
29824,60040,4
29821,60047,5
29819,60044,5
29819,60057,5
29822,60055,5
29819,60051,4
29819,60038,5
29820,60048,5
29819,60056,5
29822,60052,5
29815,60045,4
29800,60022,5
29798,60017,5
29803,60012,5
29804,60011,5
29767,60001,4
29800,59991,5
29797,59993,5
29787,60004,5
29769,60004,5
29796,60007,4
29797,60009,5
29794,60007,5
29796,60012,5
29811,60023,4
29809,60030,5
29813,60025,5
29834,60032,5
29814,60031,5
29816,60037,4
29816,60038,5
29847,60036,5
29816,60026,5
29815,60041,5
29814,60031,4
29827,60040,5
29819,60049,5
29813,60050,5
29819,60062,5
29838,60077,5
29834,60092,4
29834,60092,5
29842,60101,5
29832,60085,5
29843,60106,4
29845,60118,5
29838,60114,5
29847,60071,5
29842,60094,4
29843,60093,5
29832,60101,5
29837,60048,5
29837,60084,5
29832,60088,4
29830,60081,5
29827,60098,5
29839,60093,5
29833,60093,5
29840,60091,4
29845,60143,5
29841,60114,6
29851,60124,4
29847,60121,5
29855,60164,4
29860,60139,7
29863,60137,3
29855,60128,5
29858,60146,5
29856,60122,4
29850,60130,5
29854,60127,5
29857,60122,5
29854,60117,4
29853,60110,5
29845,60105,5
29847,60109,5
29851,60111,5
29848,60099,4
29845,60092,5
29837,60088,5
29836,60081,5
29829,60072,5
29837,60071,4
29833,60064,5
29830,60071,5
29841,60067,6
29822,60045,4
29804,60014,4
29796,59998,5
29791,59978,5
29775,59939,5
29760,59907,5
29749,59880,4
29737,59845,5
29716,59828,5
29713,59810,5
29698,59757,4
29662,59684,5
29653,59657,5
29636,59620,5
29617,59557,5
29599,59556,4
29612,59578,5
29614,59573,5
29614,59564,5
29581,59489,5
29558,59450,5
29559,59453,4
29570,59493,5
29573,59476,5
29555,59433,6
29513,59321,3
29469,59270,5
29454,59248,5
29468,59267,5
29488,59287,5
29459,59227,4
29420,59115,5
29369,59015,5
29341,58972,5
29332,58974,4
29335,58953,5
29303,58878,5
29252,58733,5
29210,58643,5
29194,58628,4
29211,58678,5
29226,58733,5
29240,58715,5
29219,58706,5
29214,58662,4
29194,58643,6
29214,58683,4
29216,58688,5
29217,58692,5
29229,58719,6
29242,58737,3
29238,58737,5
29243,58739,5
29241,58743,5
29236,58744,4
29260,58795,5
29301,58887,5
29313,58920,5
29328,58927,4
29328,58953,5
29347,58970,5
29359,59003,5
29388,59071,5
29414,59109,4
29411,59127,5
29413,59098,5
29401,59089,5
29411,59117,5
29397,59074,4
29392,59085,5
29401,59147,6
29432,59171,4
29443,59181,5
29432,59160,4
29388,59135,5
29422,59136,5
29416,59129,5
29425,59145,4
29395,59126,4
29417,59126,5
29401,59059,5
29378,59032,5
29378,59006,4
29361,58995,5
29362,58998,5
29362,59011,5
29423,59039,5
29382,59066,4
29394,59081,5
29393,59086,5
29427,59097,5
29407,59114,5
29421,59137,6
29429,59146,3
29433,59148,5
29429,59138,6
29434,59148,4
29434,59139,4
29421,59107,5
29428,59139,5
29430,59153,5
29431,59157,4
29424,59103,4
29408,59107,5
29415,59132,5
29425,59149,5
29444,59137,4
29452,59199,5
29454,59212,5
29454,59195,5
29460,59228,5
29483,59278,4
29515,59355,5
29547,59398,5
29545,59448,5
29558,59439,5
29561,59452,5
29572,59483,4
29587,59528,5
29587,59499,5
29591,59507,6
29588,59518,3
29580,59535,5
29591,59521,5
29598,59532,5
29595,59530,4
29596,59538,4
29596,59532,5
29594,59532,5
29598,59532,5
29601,59539,4
29606,59551,5
29608,59556,5
29604,59564,5
29613,59578,5
29621,59599,4
29634,59608,5
29643,59640,5
29656,59682,5
29677,59721,5
29678,59723,4
29681,59725,6
29688,59747,4
29696,59744,5
29698,59745,5
29691,59716,4
29673,59685,5
29671,59673,5
29666,59659,5
29653,59630,4
29634,59601,4
29620,59578,5
29608,59558,5
29604,59541,5
29596,59538,4
29589,59529,5
29597,59527,5
29593,59530,5
29596,59522,5
29604,59538,4
29594,59539,5
29594,59540,5
29590,59538,5
29595,59531,5
29593,59529,4
29591,59518,5
29583,59524,6
29588,59524,4
29592,59535,5
29594,59546,4
29605,59571,5
29618,59581,5
29623,59598,5
29623,59596,5
29624,59602,4
29626,59591,5
29621,59593,5
29615,59594,5
29626,59591,4
29617,59578,5
29617,59589,5
29616,59583,5
29616,59578,5
29618,59583,4
29616,59571,5
29616,59573,5
29610,59572,5
29604,59569,5
29609,59576,4
29607,59565,5
29612,59563,5
29605,59567,6
29601,59567,4
29604,59573,4
29607,59568,5
29623,59583,5
29608,59580,5
29620,59590,5
29620,59603,4
29629,59613,5
29633,59619,5
29632,59633,5
29638,59636,4
29644,59632,5
29633,59625,5
29636,59625,5
29638,59624,5
29633,59623,4
29637,59635,5
29632,59617,5
29639,59622,5
29614,59622,5
29636,59621,5
29630,59618,4
29624,59612,5
29593,59604,5
29619,59613,5
29628,59622,4
29636,59639,5
29613,59626,5
29630,59616,5
29624,59607,5
29628,59614,4
29638,59614,5
29623,59611,5
29632,59619,5
29631,59617,4
29651,59620,5
29631,59613,5
29632,59626,5
29637,59631,5
29674,59638,4
29644,59651,5
29653,59665,5
29658,59670,5
29664,59669,5
29647,59658,4
29637,59643,6
29629,59633,4
29625,59606,5
29621,59598,5
29622,59588,4
29623,59589,5
29608,59567,5
29616,59592,5
29611,59588,5
29624,59599,4
29627,59587,5
29631,59623,5
29641,59637,5
29645,59645,4
29642,59624,5
29644,59658,5
29652,59657,5
29651,59649,5
29636,59657,4
29648,59642,5
29640,59627,5
29628,59622,5
29630,59648,5
29628,59605,4
29628,59600,5
29619,59598,6
29626,59639,4
29627,59611,5
29627,59618,4
29618,59611,5
29634,59628,5
29629,59596,5
29625,59606,4
29624,59592,4
29616,59582,5
29618,59575,5
29615,59574,5
29603,59567,4
29603,59569,5
29612,59557,5
29610,59551,5
29605,59552,5
29603,59553,4
29607,59555,5
29603,59559,5
29607,59547,5
29602,59555,5
29603,59545,4
29592,59539,5
29583,59527,5
29584,59525,5
29587,59527,5
29588,59532,4
29589,59525,5
29595,59532,5
29590,59545,5
29596,59551,4
29602,59562,4
29599,59563,5
29597,59560,5
29613,59580,5
29620,59595,4
29620,59602,5
29618,59589,5
29607,59592,5
29632,59622,5
29631,59628,4
29631,59624,5
29638,59636,5
29646,59651,5
29644,59655,5
29656,59669,5
29663,59681,4
29671,59700,5
29678,59709,5
29680,59721,5
29680,59715,4
29689,59734,5
29697,59744,5
29698,59754,5
29704,59760,4
29712,59770,4
29701,59780,5
29712,59781,5
29718,59790,5
29709,59788,4
29715,59790,5
29719,59783,5
29710,59786,5
29715,59791,5
29719,59799,4
29728,59801,5
29730,59813,5
29723,59813,5
29724,59806,5
29727,59799,4
29725,59799,6
29720,59805,4
29718,59808,5
29717,59806,5
29715,59811,4
29722,59796,5
29724,59800,5
29718,59804,5
29717,59795,4
29714,59787,4
29715,59784,5
29713,59769,5
29703,59771,5
29709,59775,4
29711,59770,5
29703,59772,5
29704,59762,5
29704,59751,5
29700,59762,4
29687,59759,5
29703,59760,5
29703,59759,5
29706,59764,4
29685,59781,4
29719,59786,5
29717,59784,5
29717,59801,5
29688,59784,5
29716,59788,4
29709,59777,5
29721,59786,5
29715,59775,5
29709,59771,4
29713,59760,4
29698,59770,5
29734,59756,5
29707,59758,5
29702,59756,4
29697,59762,5
29732,59747,5
29702,59748,5
29698,59748,5
29688,59743,5
29707,59732,4
29694,59733,5
29691,59744,5
29698,59735,6
29704,59753,3
29698,59743,5
29687,59725,5
29691,59736,5
29697,59726,5
29690,59726,4
29690,59728,5
29686,59738,5
29691,59695,5
29691,59726,4
29684,59728,4
29699,59725,5
29686,59703,5
29685,59742,5
29686,59741,4
29693,59756,5
29706,59770,5
29698,59753,5
29708,59769,5
29706,59771,4
29701,59802,6
29706,59768,4
29710,59770,5
29701,59776,5
29704,59812,6
29710,59772,3
29702,59764,5
29703,59767,5
29708,59778,5
29703,59775,4
29717,59791,5
29719,59802,5
29713,59809,5
29723,59806,4
29735,59822,5
29735,59821,5
29725,59827,5
29732,59842,5
29742,59839,4
29735,59839,5
29736,59848,5
29753,59856,5
29749,59853,5
29751,59864,4
29751,59873,5
29755,59875,6
29757,59883,4
29770,59901,5
29763,59919,4
29771,59930,5
29783,59952,5
29797,59967,5
29798,59982,5
29804,60014,4
29819,60045,5
29834,60085,5
29858,60111,5
29862,60156,4
29880,60164,5
29890,60195,5
29903,60222,5
29917,60255,5
29926,60272,4
29924,60277,5
29921,60257,5
29923,60254,5
29916,60248,5
29900,60220,4
29870,60167,5
29858,60115,5
29842,60103,6
29833,60080,4
29819,60043,4
29794,59976,5
29749,59878,5
29720,59816,5
29706,59766,5
29683,59732,4
29663,59698,5
29657,59679,5
29649,59659,5
29646,59671,4
29654,59664,4
29646,59662,5
29620,59607,5
29600,59525,5
29519,59353,4
29454,59196,5
29399,59080,5
29337,58955,5
29302,58871,5
29282,58836,5
29262,58810,4
29259,58758,5
29245,58744,5
29237,58728,6
29234,58711,3
29214,58656,5
29194,58620,5
29167,58576,5
29139,58476,5
29079,58330,4
29020,58206,5
28989,58156,5
28976,58134,5
28958,58079,4
28907,57949,4
28859,57835,5
28808,57741,5
28803,57728,5
28809,57745,4
28821,57761,5
28820,57755,5
28814,57737,5
28783,57659,5
28748,57567,4
28703,57464,6
28645,57387,4
28649,57342,5
28641,57291,5
28600,57191,4
28533,57105,5
28526,57033,5
28478,56902,5
28439,56829,5
28390,56763,4
28393,56733,5
28381,56696,5
28362,56665,5
28377,56671,9
28380,56694,0
28383,56702,5
28368,56616,5
28336,56461,5
28213,56274,4
28155,56151,5
28138,56114,5
28165,56135,5
28150,56145,5
28160,56171,4
28172,56198,5
28194,56195,6
28171,56168,4
28141,56101,5
28102,56003,4
28072,55920,5
28033,55826,5
27975,55699,5
27932,55610,5
27907,55503,4
27868,55436,5
27851,55396,5
27858,55427,5
27887,55452,4
27872,55432,4
27857,55387,5
27815,55286,5
27783,55207,5
27752,55138,4
27728,55038,5
27694,54962,5
27649,54927,5
27653,54882,5
27658,54913,4
27678,54942,5
27662,54909,5
27603,54748,6
27564,54656,4
27535,54595,4
27519,54570,5
27511,54525,5
27497,54486,5
27497,54487,5
27495,54491,4
27496,54477,5
27484,54451,5
27478,54443,5
27486,54428,4
27474,54425,4
27455,54354,5
27420,54298,5
27392,54211,5
27350,54157,4
27329,54085,5
27294,54006,5
27273,53963,5
27277,53957,5
27290,53976,5
27284,53973,4
27278,53957,5
27276,53936,5
27262,53897,5
27238,53863,4
27221,53800,5
27180,53709,5
27163,53663,5
27150,53641,5
27117,53574,4
27110,53557,5
27102,53535,5
27083,53522,5
27089,53536,4
27091,53523,4
27093,53514,5
27084,53498,5
27088,53522,5
27114,53569,4
27133,53603,5
27135,53586,5
27117,53555,5
27101,53514,5
27095,53504,4
27103,53518,6
27112,53544,4
27128,53591,5
27137,53597,5
27143,53599,4
27147,53615,5
27153,53640,5
27168,53665,5
27191,53714,5
27198,53731,4
27202,53732,5
27188,53706,5
27180,53662,5
27171,53643,4
27163,53665,4
27173,53673,5
27193,53699,5
27193,53729,5
27206,53742,4
27217,53752,5
27221,53757,5
27222,53764,5
27209,53742,5
27190,53659,4
27147,53577,5
27132,53522,6
27115,53500,4
27111,53506,5
27107,53504,4
27111,53502,5
27105,53500,5
27118,53513,5
27122,53531,5
27124,53533,4
27129,53544,5
27130,53541,5
27135,53561,5
27148,53587,4
27158,53597,4
27151,53619,5
27173,53636,5
27186,53641,5
27182,53653,4
27202,53676,5
27210,53704,5
27216,53737,5
27198,53744,5
27229,53760,4
27239,53770,5
27244,53779,5
27226,53825,5
27287,53880,5
27309,53917,4
27326,53957,5
27316,53998,5
27367,54033,5
27372,54049,5
27376,54058,4
27401,54071,5
27391,54085,5
27402,54107,5
27409,54105,5
27436,54120,4
27407,54134,5
27413,54143,5
27426,54165,5
27463,54206,4
27460,54251,5
27472,54275,5
27497,54321,5
27528,54357,5
27527,54391,5
27544,54426,4
27564,54483,5
27586,54517,5
27607,54546,5
27615,54570,4
27619,54596,5
27632,54577,5
27642,54622,5
27642,54630,5
27652,54657,4
27661,54641,5
27664,54665,5
27656,54662,5
27660,54676,5
27673,54685,4
27682,54709,5
27684,54741,5
27712,54776,5
27722,54813,4
27724,54806,5
27734,54818,5
27744,54835,5
27743,54875,5
27751,54854,4
27760,54888,6
27771,54902,4
27768,54942,5
27782,54922,5
27781,54928,4
27790,54930,5
27790,54939,5
27787,54940,5
27790,54955,5
27803,54968,4
27807,54987,5
27817,55006,5
27837,55044,5
27846,55072,5
27856,55087,4
27865,55099,5
27869,55125,5
27881,55138,5
27880,55161,4
27905,55195,5
27903,55212,5
27911,55214,5
27913,55233,5
27919,55238,4
27929,55238,5
27936,55250,6
27926,55248,4
27930,55260,5
27938,55258,4
27941,55257,5
27938,55266,5
27939,55263,5
27942,55279,5
27945,55295,4
27950,55306,5
27960,55324,5
27963,55339,5
27967,55347,5
27976,55348,4
27983,55363,5
27993,55394,5
28003,55418,5
28017,55435,4
28023,55455,5
28022,55460,5
28026,55475,5
28033,55476,5
28028,55476,4
28035,55472,5
28036,55474,5
28030,55462,5
28031,55452,5
28031,55460,4
28031,55450,5
28032,55469,5
28031,55466,5
28036,55468,5
28033,55483,4
28029,55455,5
28029,55451,5
28024,55451,5
28027,55452,5
28028,55442,4
28025,55426,5
28019,55416,5
28010,55392,5
28002,55375,4
27997,55362,6
27983,55338,4
27971,55317,5
27957,55295,5
27949,55276,6
27951,55272,3
27946,55255,5
27937,55251,5
27935,55252,5
27943,55243,4
27939,55245,5
27937,55251,5
27941,55251,5
27941,55242,5
27927,55237,4
27936,55236,5
27925,55215,5
27919,55204,5
27918,55187,5
27914,55185,4
27911,55182,5
27907,55172,5
27902,55167,5
27903,55166,4
27896,55173,4
27913,55173,6
27918,55180,4
27920,55186,5
27880,55184,4
27920,55182,7
27915,55189,3
27917,55182,5
27881,55179,5
27906,55155,4
27904,55146,5
27900,55141,5
27895,55143,5
27895,55118,5
27880,55103,4
27866,55095,5
27904,55091,5
27862,55073,5
27854,55066,5
27866,55075,4
27898,55089,5
27871,55084,5
27869,55095,5
27868,55105,4
27894,55106,4
27873,55109,5
27878,55087,6
27870,55086,4
27871,55089,4
27863,55088,5
27861,55082,5
27866,55081,5
27866,55050,5
27863,55057,4
27861,55061,5
27859,55055,5
27850,55018,5
27851,55063,5
27845,55049,4
27840,55023,5
27839,55000,5
27831,54997,5
27818,54977,5
27820,54963,4
27795,54940,5
27782,54919,5
27774,54898,5
27777,54893,5
27774,54925,4
27786,54897,5
27777,54882,5
27776,54882,6
27772,54910,3
27763,54871,5
27757,54878,5
27770,54875,5
27770,54889,5
27767,54859,4
27765,54850,5
27748,54831,5
27738,54815,5
27735,54796,5
27721,54772,4
27720,54768,5
27711,54763,5
27707,54748,5
27707,54732,5
27709,54745,4
27709,54738,5
27705,54725,5
27695,54718,5
27689,54711,4
27692,54698,5
27681,54685,4
27684,54667,5
27668,54660,5
27665,54638,6
27662,54629,3
27655,54626,5
27644,54595,5
27640,54578,5
27629,54568,4
27622,54558,5
27617,54542,5
27606,54526,5
27599,54514,5
27602,54501,4
27595,54482,5
27592,54482,5
27588,54471,5
27576,54439,5
27556,54391,4
27536,54351,5
27516,54302,5
27493,54261,5
27483,54231,5
27459,54185,4
27442,54148,6
27427,54110,4
27414,54088,5
27402,54061,4
27397,54029,5
27383,54012,5
27372,53995,5
27382,53980,5
27364,53975,4
27349,53948,5
27344,53933,5
27341,53918,5
27336,53894,5
27325,53884,4
27317,53862,5
27313,53852,5
27310,53846,5
27302,53842,5
27304,53840,4
27303,53839,5
27307,53847,5
27311,53842,5
27306,53856,5
27316,53852,4
27317,53856,5
27323,53870,6
27327,53885,4
27331,53903,4
27333,53911,5
27338,53916,5
27348,53927,5
27355,53936,5
27360,53940,4
27362,53955,5
27360,53969,5
27373,53986,5
27382,54005,5
27392,54029,4
27406,54042,5
27405,54070,5
27425,54102,5
27437,54137,5
27454,54179,4
27463,54182,5
27467,54208,5
27489,54241,5
27503,54265,5
27512,54287,4
27498,54299,5
27542,54333,5
27537,54344,6
27550,54356,6
27525,54362,2
27552,54369,5
27556,54368,5
27557,54372,5
27554,54379,4
27560,54397,5
27561,54397,5
27568,54407,5
27600,54416,5
27571,54428,4
27592,54437,5
27588,54438,5
27618,54442,5
27594,54445,5
27596,54462,4
27595,54466,5
27625,54477,5
27604,54495,5
27613,54496,5
27615,54517,5
27628,54514,4
27624,54514,5
27613,54513,5
27630,54512,4
27622,54497,4
27620,54525,5
27629,54520,5
27630,54526,5
27628,54496,4
27631,54530,5
27628,54536,5
27639,54546,5
27637,54523,5
27638,54553,4
27640,54568,5
27651,54588,5
27654,54592,5
27658,54589,5
27664,54601,4
27667,54617,5
27671,54636,5
27673,54627,5
27676,54626,5
27668,54630,4
27682,54675,6
27680,54655,4
27692,54672,5
27700,54689,4
27709,54727,4
27720,54720,5
27724,54738,5
27732,54752,5
27729,54744,4
27733,54749,5
27733,54747,5
27727,54746,5
27738,54745,5
27745,54759,4
27740,54768,5
27747,54771,5
27747,54779,5
27758,54791,5
27762,54800,4
27761,54808,5
27775,54823,5
27773,54836,5
27777,54839,5
27776,54839,4
27780,54846,5
27773,54841,6
27774,54851,4
27781,54848,4
27783,54862,4
27788,54856,5
27790,54869,5
27789,54888,5
27798,54886,4
27807,54900,5
27795,54903,5
27809,54916,5
27803,54923,5
27819,54944,4
27825,54941,5
27829,54959,5
27825,54957,5
27830,54964,5
27828,54956,4
27829,54961,5
27830,54946,5
27833,54955,5
27831,54962,5
27834,54965,4
27834,54981,5
27846,54994,5
27850,55006,5
27854,55021,4
27858,55020,4
27867,55041,5
27861,55036,5
27870,55036,5
27865,55047,4
27866,55049,5
27868,55039,5
27878,55042,5
27868,55043,5
27861,55050,4
27875,55050,5
27890,55069,5
27886,55088,5
27899,55087,5
27893,55107,4
27900,55127,5
27902,55137,5
27914,55156,5
27923,55176,5
27932,55193,5
27942,55205,4
27942,55212,5
27948,55237,5
27959,55250,4
27971,55265,4
27975,55279,5
27990,55307,5
27994,55319,5
27997,55333,4
28006,55343,5
28016,55361,5
28022,55374,5
28025,55385,5
28037,55409,4
28046,55427,5
28057,55458,5
28075,55489,5
28085,55511,5
28101,55535,4
28104,55543,5
28110,55561,5
28098,55568,5
28125,55576,5
28122,55570,4
28118,55576,6
28091,55560,4
28109,55548,5
28111,55545,4
28113,55540,4
28080,55546,5
28108,55552,5
28112,55538,5
28109,55544,4
28106,55539,5
28102,55529,5
28107,55534,5
28106,55535,5
28143,55540,4
28111,55530,5
28100,55532,5
28105,55529,5
28127,55509,5
28087,55506,4
28083,55494,5
28087,55484,5
28094,55477,5
28078,55466,5
28067,55434,4
28061,55421,5
28056,55408,5
28046,55395,5
28047,55392,5
28037,55376,4
28025,55354,5
28024,55364,5
28021,55352,5
28020,55345,4
28012,55310,5
28007,55340,5
28006,55344,5
28011,55324,5
28006,55304,4
28003,55310,5
28000,55296,5
27993,55285,5
27982,55287,5
27977,55271,4
27985,55263,5
27976,55250,5
27973,55264,5
27958,55220,5
27947,55207,4
27953,55185,5
27943,55202,5
27933,55154,5
27916,55134,5
27917,55134,4
27915,55136,5
27912,55105,5
27906,55102,5
27904,55108,4
27902,55106,5
27911,55106,5
27908,55103,5
27900,55095,5
27904,55086,4
27901,55086,5
27893,55081,5
27884,55067,5
27881,55042,5
27864,55019,4
27863,54997,5
27843,54980,4
27847,54959,5
27832,54951,5
27834,54935,6
27817,54918,3
27819,54913,5
27815,54914,5
27815,54910,5
27812,54914,4
27811,54907,5
27809,54893,5
27803,54882,5
27794,54866,4
27795,54851,5
27774,54830,5
27780,54816,5
27768,54803,5
27771,54802,4
27759,54794,5
27767,54780,5
27763,54775,5
27762,54778,5
27752,54767,4
27750,54762,5
27743,54756,10
27744,54739,5
27746,54740,9
27729,54699,8
27729,54699,5
27725,54705,5
27725,54701,5
27730,54676,8
27714,54675,5
27700,54650,5
27699,54654,8
27694,54631,5
27688,54620,5
27677,54598,5
27672,54586,8
27670,54574,5
27667,54561,5
27623,54460,8
27623,54460,5
27610,54440,5
27569,54423,8
27584,54413,5
27587,54409,5
27595,54407,5
27575,54397,8
27573,54372,5
27573,54376,5
27561,54373,8
27563,54347,5
27544,54305,5
27529,54283,5
27454,54094,8
27454,54094,5
27425,54025,5
27396,53967,8
27369,53910,5
27334,53821,5
27292,53746,8
27276,53704,5
27275,53624,5
27224,53545,5
27139,53422,8
27114,53300,5
27059,53183,5
26910,52827,8
26910,52827,5
26895,52822,5
26878,52737,5
26845,52618,8
27595,54407,5
26796,52455,5
26753,52372,8
26675,52258,5
26617,52157,5
26636,52032,8
26556,51925,5
26517,51814,5
26488,51739,5
26416,51500,8
26416,51500,5
26407,51472,5
26402,51436,8
26386,51386,5
26384,51339,5
26371,51376,5
26420,51378,8
26432,51370,5
26440,51315,5
26422,51285,8
26412,51225,5
26402,51209,5
26389,51134,8
26389,51134,5
26418,51142,5
26444,51157,5
26438,51177,8
26468,51222,5
26479,51177,5
26469,51172,8
26477,51162,5
26476,51129,5
26444,50991,5
26473,51012,8
26431,50890,5
26431,50890,5
26430,50897,8
26447,50898,5
26443,50887,5
26441,50887,8
26448,50849,5
26429,50790,5
26421,50751,5
26434,50762,8
26467,50838,5
26497,50918,5
26739,51389,8
26739,51389,5
26787,51500,5
26845,51580,5
26884,51718,8
26946,51852,5
27016,52007,5
27059,52105,8
27067,52164,5
27114,52249,5
27150,52346,8
27183,52425,5
27208,52477,5
27208,52482,5
27240,52587,8
27240,52587,5
27262,52597,5
27263,52559,8
27251,52553,5
27244,52574,5
27248,52595,5
27272,52648,8
27299,52678,5
27292,52666,5
27271,52634,8
27262,52602,5
27245,52557,5
27249,52562,6
27249,52562,1
27249,52562,2
27313,52700,5
27403,52912,5
27512,53164,5
27628,53398,5
27717,53585,4
27789,53741,5
27866,53912,5
27965,54125,5
28063,54351,4
28149,54534,5
28220,54667,5
28251,54756,5
28278,54812,5
28310,54886,4
28347,55003,6
28397,55114,4
28457,55256,5
28510,55369,5
28547,55478,4
28612,55628,5
28671,55784,5
28747,56010,5
28876,56295,5
29008,56598,4
29118,56871,5
29221,57117,5
29311,57345,5
29381,57553,5
29477,57797,4
29572,58016,5
29671,58246,5
29784,58526,5
29923,58866,5
30022,59121,4
30098,59253,5
30124,59298,5
30127,59289,5
30086,59253,4
30102,59246,5
30111,59279,6
30137,59348,4
30206,59612,5
30461,60190,4
30793,60955,5
31214,61961,5
31644,63029,5
32090,64058,5
32660,65520,4
33538,67659,5
34649,70079,5
35686,72488,5
36829,74944,5
37865,77371,4
39116,79741,5
40068,81541,5
40834,82883,5
41407,83198,4
41715,83515,4
41575,83150,5
41296,82598,5
41009,82040,5
40892,81907,4
40856,81872,5
40676,81372,5
40236,80467,6
39754,79519,4
39446,78985,4
39225,78581,5
39035,78208,5
38809,77712,5
38552,77275,5
38390,76994,4
38310,76920,5
38331,76904,5
38317,76971,5
38277,76935,5
38235,76858,4
38180,76718,5
38040,76425,5
37753,75751,5
37153,74425,4
36335,72705,5
35541,71102,5
34810,69588,5
34221,68336,5
33756,67449,5
33408,66618,4
33095,65977,5
32885,65562,5
32719,65175,5
32497,65304,4
32243,64679,5
31929,63983,5
31579,63241,5
31303,62550,5
31033,61961,4
30851,61591,5
30739,61323,5
30635,61112,5
30560,60966,5
30534,60905,4
30529,60918,5
30564,60997,5
30584,61009,5
30580,61001,4
30562,60992,4
30577,61016,5
30598,61056,5
30606,61081,5
30601,61062,4
30606,61087,6
30619,61089,4
30608,61082,5
30590,61065,5
30590,61038,4
30571,61016,5
30565,60998,5
30562,60993,5
30536,60930,5
30481,60765,4
30381,60542,5
30255,60256,5
30098,59891,5
29935,59511,5
29771,59149,4
29620,58836,5
29501,58554,5
29367,58240,5
29261,58001,4
29160,57767,4
29065,57531,5
28975,57311,5
28911,57163,5
28859,57055,4
28832,56975,5
28818,56937,6
28811,56950,4
28819,56966,5
28831,56999,4
28852,57013,5
28856,57034,5
28863,57024,5
28875,57057,5
28896,57102,4
28920,57126,5
28917,57124,5
28910,57100,5
28898,57089,5
28888,57078,4
28902,57100,5
28917,57114,5
28914,57082,5
28885,57005,4
28817,56863,4
28768,56726,5
28715,56618,5
28684,56517,5
28644,56459,4
28623,56399,5
28589,56334,5
28571,56278,5
28549,56212,5
28513,56146,4
28505,56110,5
28499,56088,5
28485,56062,5
28477,56027,5
28450,55993,4
28449,55959,5
28431,55909,5
28407,55857,5
28372,55805,5
28342,55719,4
28315,55637,5
28281,55554,5
28268,55520,5
28263,55509,5
28265,55524,4
28250,55539,5
28281,55534,5
28277,55515,5
28264,55473,5
28204,55415,4
28204,55361,5
28197,55338,5
28188,55326,5
28169,55334,4
28203,55333,5
28199,55341,5
28203,55338,5
28199,55336,5
28204,55333,4
28201,55340,5
28205,55334,5
28230,55329,5
28195,55312,5
28188,55283,4
28164,55239,5
28187,55199,5
28142,55186,5
28142,55179,5
28137,55166,4
28156,55152,5
28134,55156,5
28138,55146,5
28152,55168,4
28147,55180,6
28157,55195,3
28170,55213,5
28181,55268,5
28217,55324,4
28256,55462,5
28311,55583,5
28353,55674,5
28389,55733,5
28423,55850,4
28445,55911,5
28462,55941,5
28466,55937,5
28464,55992,5
28486,56055,4
28495,56110,5
28510,56180,5
28542,56253,5
28580,56358,5
28617,56463,4
28657,56600,5
28690,56662,6
28726,56773,4
28800,57013,4
28930,57345,5
29065,57641,5
29207,57971,5
29342,58271,5
29480,58612,4
29617,58911,5
29734,59174,5
29829,59373,5
29901,59535,5
29966,59698,4
30033,59884,5
30107,60073,5
30234,60367,5
30356,60668,5
30468,60917,4
30567,61153,5
30679,61424,5
30775,61641,5
30882,61945,5
31083,62479,4
31331,63055,5
31532,63457,5
31610,63570,6
31543,63380,3
31409,63053,5
31294,62771,5
31204,62552,5
31098,62274,5
30998,62033,4
30906,61791,5
30785,61478,5
30623,61061,5
30452,60658,5
30328,60396,4
30286,60312,5
30273,60294,5
30286,60273,5
30252,60156,5
30172,59952,4
30046,59582,5
29861,59139,5
29705,58757,5
29575,58439,5
29465,58184,5
29383,58027,4
29356,57946,5
29348,57913,5
29345,57892,6
29332,57840,3
29318,57800,5
29322,57787,5
29331,57795,5
29357,57828,4
29377,57874,5
29401,57919,5
29429,57964,5
29452,57978,5
29453,57979,4
29440,57931,5
29420,57887,5
29387,57830,5
29369,57778,5
29349,57752,4
29345,57732,5
29324,57707,5
29299,57601,5
29216,57434,5
29150,57279,4
29073,57141,6
29009,56994,4
28919,56805,5
28835,56611,4
28736,56408,4
28647,56209,5
28557,56041,5
28495,55927,5
28452,55837,4
28385,55703,5
28331,55598,5
28275,55483,5
28231,55385,5
28182,55308,4
28135,55208,5
28094,55136,5
28055,55055,5
28029,55004,5
28010,54973,4
28019,54967,5
28012,54966,5
27994,54927,5
27985,54864,5
27951,54801,4
27916,54716,5
27856,54624,6
27836,54536,4
27807,54450,4
27764,54361,4
27697,54273,5
27705,54212,5
27685,54177,5
27680,54162,4
27653,54148,5
27664,54123,5
27658,54097,5
27643,54082,5
27647,54049,4
27631,54031,5
27624,54022,5
27623,54002,5
27647,53971,5
27608,53956,4
27611,53948,5
27610,53950,5
27632,53944,5
27601,53926,5
27593,53914,4
27598,53912,5
27607,53898,5
27594,53876,6
27590,53884,4
27585,53861,4
27592,53843,5
27571,53814,5
27564,53778,5
27552,53758,4
27555,53706,5
27556,53716,5
27563,53714,5
27544,53685,5
27540,53644,4
27534,53653,5
27536,53652,5
27538,53659,5
27535,53671,5
27541,53712,4
27551,53740,5
27566,53760,5
27585,53812,5
27604,53832,5
27627,53881,5
27653,53916,4
27673,53977,5
27688,53962,5
27694,53972,6
27689,53981,3
27693,54002,5
27705,53993,5
27713,53996,5
27717,54013,4
27722,54010,5
27721,54002,5
27723,53989,5
27719,53972,5
27712,53952,4
27706,53925,5
27686,53909,5
27693,53922,5
27705,53938,5
27714,53949,4
27709,53951,5
27734,53972,5
27728,53987,5
27741,54005,5
27753,54032,4
27764,54072,6
27774,54096,4
27803,54149,5
27826,54217,5
27860,54311,4
27919,54461,5
27993,54649,5
28080,54857,5
28162,55044,4
28234,55210,5
28278,55330,5
28324,55477,5
28372,55656,5
28469,55871,4
28542,56064,5
28603,56237,5
28652,56387,5
28706,56577,5
28790,56791,4
28878,57051,5
29019,57460,5
29222,57954,5
29414,58452,5
29619,58955,4
29798,59387,5
29950,59790,6
30040,60037,4
30106,60190,5
30154,60339,4
30245,60596,5
30337,60889,5
30515,61339,5
30711,61831,4
30904,62359,4
31177,63077,5
31529,63942,5
31858,64665,5
32125,65253,4
32362,65818,5
32611,66381,5
32817,66866,5
33009,67274,5
33114,67471,4
33112,67393,5
32929,66900,5
32620,66197,5
32300,65484,5
32009,64882,4
31825,64500,5
31687,64151,5
31516,63833,6
31466,63683,4
31322,63356,4
31151,62983,5
31030,62709,5
30913,62476,8
30808,62279,2
30723,62139,4
30710,62162,5
30754,62329,5
30895,62629,5
31054,62990,4
31178,63266,5
31283,63474,5
31382,63681,5
31493,63901,5
31583,64096,4
31707,64288,5
31720,64339,5
31709,64292,5
31637,64156,5
31575,63995,5
31504,63828,4
31429,63678,5
31323,63468,5
31239,63264,5
31164,63083,4
31098,62929,5
31015,62811,5
30974,62696,5
30935,62624,5
30926,62575,4
30898,62548,5
30861,62402,5
30757,62133,5
30613,61862,4
30523,61611,5
30413,61418,5
30332,61250,5
30261,61085,5
30210,60893,4
30093,60690,5
29988,60435,5
29878,60152,5
29785,59916,5
29676,59698,4
29597,59509,6
29532,59354,4
29456,59171,5
29381,58970,5
29293,58784,4
29231,58618,5
29170,58479,5
29137,58386,5
29111,58330,5
29115,58294,4
29123,58285,5
29149,58377,5
29223,58500,5
29295,58659,4
29380,58799,5
29472,58993,5
29555,59141,5
29607,59266,5
29653,59319,4
29666,59350,5
29681,59343,5
29652,59284,5
29625,59211,5
29553,59048,4
29501,58902,5
29433,58784,6
29399,58738,4
29371,58630,5
29342,58599,4
29320,58530,5
29302,58508,5
29277,58459,5
29251,58404,5
29231,58333,4
29201,58274,5
29168,58206,5
29132,58135,5
29099,58053,4
29068,58014,4
29049,57974,5
29049,57963,5
29040,57965,5
29055,57969,4
29077,58030,5
29100,58109,5
29140,58207,5
29195,58311,5
29229,58407,4
29260,58499,5
29304,58618,5
29377,58812,5
29489,59106,5
29633,59407,4
29723,59631,5
29828,59888,5
29929,60118,5
30022,60325,5
30105,60525,4
30206,60738,5
30296,60964,5
30397,61166,5
30482,61392,4
30569,61555,4
30612,61677,5
30664,61779,5
30715,61913,5
30782,62103,4
30902,62399,5
31054,62737,5
31233,63184,5
31473,63702,5
31812,64506,5
32235,65390,4
32583,66075,5
32874,66658,5
33100,67127,5
33290,67482,4
33445,67786,5
33571,68044,5
33664,68232,5
33731,68358,5
33775,68479,4
33893,68751,5
34060,69078,5
34203,69438,5
34400,69891,4
34637,70331,4
34854,70825,5
35159,71517,5
35509,72243,5
35965,73165,4
36453,74073,5
36782,74668,5
37032,75155,5
37284,75612,5
37503,76111,4
37769,76637,6
38034,77214,4
38521,78342,5
39231,79725,5
39780,80692,4
40022,81135,5
40122,81405,5
40200,81591,5
40215,81730,5
40216,81804,4
40180,81879,5
40196,81968,5
40313,81720,5
40544,82241,5
40706,82601,4
40959,83258,5
41466,84285,5
41863,84983,5
42036,85323,4
42074,85530,5
42050,85473,5
41915,85286,6
41736,85053,4
41467,84696,4
41408,84838,5
41528,85252,5
41671,85757,5
41908,86508,5
42293,87298,4
42455,87844,5
42616,88341,5
42769,88876,5
43022,89487,5
43267,90198,4
43504,90824,5
43732,91394,5
44040,92273,5
44276,92882,5
44447,93473,4
44756,94386,5
44948,95157,5
45523,96754,5
46100,98210,5
46483,99298,4
46850,99796,5
47006,100749,5
47565,102564,6
48187,104380,3
48819,106318,5
49381,108294,5
48925,109601,5
48998,110786,5
49238,112420,4
50181,115144,5
51117,116706,5
51537,117569,5
51795,118502,5
51705,118790,4
51728,118530,5
51823,118200,5
52154,118278,5
52228,117836,5
52156,116688,4
52170,116316,5
52023,115371,5
51703,113854,5
51203,112656,4
50734,111496,5
50516,110484,4
50571,109984,5
50634,109540,5
50848,109307,6
51207,109251,3
51556,108803,5
51493,107448,5
51149,105871,5
50773,104246,4
50451,102994,5
50297,101995,5
50181,101502,5
50167,101127,5
50095,100952,4
50338,101251,5
50446,101010,5
50253,100582,5
50016,100210,5
49586,99263,4
49347,99059,5
49167,98719,5
48890,98329,5
48691,98079,4
48554,98345,4
48273,97872,6
48032,97382,4
47668,96807,5
47428,96420,4
47332,96216,5
47190,95920,5
46910,95348,5
46551,94602,5
46124,93807,4
45689,93099,5
45410,92589,5
45124,92059,5
44830,91333,5
44251,90578,4
43988,90152,5
43812,89851,5
43655,89585,5
43530,89367,5
43417,89148,4
43247,88827,5
42982,88296,5
42643,87666,5
42316,87062,4
41974,86362,4
41565,85549,5
41129,84731,6
40745,84040,4
40439,83489,4
40213,83060,5
39996,82644,5
39798,82230,5
39618,81915,5
39532,82374,4
39445,82184,5
39354,82030,5
39281,81889,5
39190,81703,5
39058,81468,4
38963,81283,5
38847,81067,5
38735,80837,5
38647,80696,5
38561,80550,4
38541,80308,5
38372,80304,5
38416,80413,5
38487,80582,5
38561,80746,4
38623,80878,5
38662,80975,5
38682,81004,6
38673,81004,3
38663,80976,5
38642,80961,5
38625,80899,5
38566,80779,5
38477,80594,4
38368,80394,5
38264,80181,5
38127,79918,5
38007,79734,5
37958,79622,4
37896,79516,5
37844,79422,5
37803,79345,5
37769,79287,5
37732,79241,4
37723,79222,5
37734,79226,5
37738,79275,5
37811,79419,5
37922,79680,5
38100,80021,4
38279,80377,5
38474,80739,5
38667,81085,6
38802,81336,3
38867,81395,5
38890,81371,5
38862,81261,5
38859,81252,4
38905,81312,5
39014,81501,5
39130,81661,5
39201,81746,5
39284,81825,4
39363,81969,5
39444,82060,5
39487,82088,5
39484,82052,5
39452,81955,4
39421,81894,5
39443,81896,5
39431,81850,5
39405,81759,5
39333,81570,4
39257,81367,6
39182,81245,4
39152,81173,5
39164,81172,4
39265,81307,5
39357,81432,5
39502,81710,5
39697,82006,5
39981,82542,4
40338,83155,5
40755,83969,5
41373,85090,5
42146,86470,5
43051,88156,4
44093,89999,5
45133,91763,5
46122,93408,5
47086,94947,5
47775,96088,4
48399,97180,5
48825,97795,5
49071,98176,5
49143,98170,5
49015,97910,4
48770,97446,5
48418,96835,6
48139,96410,4
47936,96096,4
47771,95832,4
47601,95580,5
47489,95545,5
47702,96029,5
48039,96692,4
48422,97388,5
48864,98074,5
49029,98278,5
48944,98125,5
48723,97708,4
48303,96974,5
47888,96409,5
47668,96083,5
47525,95892,5
47343,95525,4
46877,94775,5
46576,94422,5
46556,94543,5
46679,94886,5
46845,95169,4
47009,95520,5
47214,95786,5
47188,95673,6
46973,95252,3
46700,94785,4
46516,94474,5
46429,94317,5
46350,94109,5
46210,93786,4
45973,93308,5
45692,92749,5
45390,92202,5
45180,91818,5
44941,91354,4
44700,90925,5
44631,90821,5
44670,90878,5
44708,90874,5
44592,90608,4
44385,90216,5
44204,89878,5
44048,89603,5
43943,89400,5
43926,89405,5
43984,89532,4
44084,89709,5
44171,89809,5
44196,89871,4
44282,90037,4
44346,90166,5
44417,90305,5
44458,90367,5
44454,90391,4
44449,90421,5
44487,90509,5
44542,90645,5
44628,90848,5
44707,91016,4
44800,91227,5
44914,91506,5
45090,91870,5
45288,92283,5
45514,92767,4
45749,93199,5
45893,93453,5
45933,93509,6
45930,93579,4
46063,93910,4
46246,94281,6
46485,94818,4
46789,95506,5
47197,96283,5
47556,97041,4
47999,97883,5
48420,98869,5
48925,99402,5
49467,100545,4
50020,101748,5
50539,102821,5
51101,103988,5
51719,105409,5
52506,106969,4
53215,108350,5
53829,109502,5
54365,110524,5
54828,111409,5
55402,112610,4
56254,114361,5
57255,116234,5
58279,117601,5
59335,119753,5
60458,121765,4
61613,124094,5
62820,126459,6
63843,128577,4
64771,130526,5
65727,132169,4
64969,131464,5
64316,130195,5
63214,128156,5
61833,125728,4
60166,122926,4
58550,120045,5
57013,117442,5
55793,115352,5
54686,113316,4
53515,111771,5
52220,109327,5
50858,106763,5
49511,104363,5
48355,102286,4
48226,100749,5
47523,99600,5
46919,98553,5
46227,97373,5
45516,96741,4
44922,95797,5
44461,95139,5
44063,94631,5
43749,94091,5
43481,93747,4
43228,93369,5
42723,92726,5
42395,92184,5
42036,91540,4
41567,90701,4
41116,90025,5
40783,89395,5
40488,88814,5
40202,88275,4
39894,87766,5
39710,87404,5
39444,87004,5
39301,86715,5
39174,86477,4
39029,86154,5
38843,85794,5
38601,85266,5
38344,84729,5
38105,84242,5
37886,83707,4
37635,83226,5
37406,82709,5
37220,82260,5
36971,81707,4
36640,81682,5
36396,81195,5
36233,80814,5
36000,80301,5
35825,79908,4
35636,79511,5
35432,79028,5
35209,78605,5
35007,78178,4
34831,77785,5
34639,77366,5
34474,77009,5
34314,76649,5
34159,76291,4
34012,75960,5
33892,75686,5
33795,75451,5
33691,75236,5
33620,75067,4
33540,74894,6
33457,74682,4
33352,74426,5
33243,74177,5
33151,73944,4
33058,73758,5
32964,73529,5
32863,73334,5
32764,73144,5
33455,72967,4
33364,72808,5
33315,72729,5
33301,72709,5
33282,72701,4
33272,72711,5
33286,72731,5
33277,72730,5
33269,72701,5
33238,72599,4
33168,72440,5
33099,72303,5
33035,72181,5
32979,72063,4
32937,71995,4
32931,71949,5
32906,71912,5
32868,71816,5
32823,71707,5
32788,71630,4
32749,71560,5
32735,71535,5
32727,71505,5
32717,71458,5
32696,71403,4
32670,71308,5
32625,71228,5
