RED,IR,EKG,TIME
30290,61225,9
30291,61231,9
30291,61231,5
30282,61193,8
30281,61209,5
30282,61231,5
30316,61226,8
30301,61227,5
30278,61234,5
30282,61236,8
30293,61238,5
30293,61252,5
30295,61248,5
30296,61262,8
30296,61262,5
30297,61223,5
30305,61262,8
30301,61284,5
30300,61274,5
30284,61270,8
30281,61279,5
30301,61275,5
30300,61289,5
30309,61297,8
30303,61289,5
30315,61286,5
30304,61279,8
30304,61279,5
30300,61272,5
30293,61275,5
30296,61267,8
30294,61260,5
30285,61261,5
30303,61263,8
30305,61268,5
30303,61277,5
30297,61246,5
30288,61253,8
30293,61276,5
30289,61241,5
30289,61241,8
30291,61256,5
30285,61255,5
30288,61246,8
30292,61249,5
30294,61252,5
30287,61275,5
30299,61248,8
30288,61226,5
30292,61240,5
30287,61248,8
30287,61248,5
30298,61252,5
30292,61251,5
30288,61240,8
30289,61251,5
30291,61247,5
30292,61243,8
30300,61238,5
30290,61256,5
30291,61235,8
30290,61248,5
30294,61248,5
30292,61248,5
30304,61258,8
30304,61258,5
30290,61247,5
30290,61269,8
30309,61275,5
30295,61279,5
30296,61271,5
30290,61259,8
30300,61269,5
30296,61264,5
30300,61263,8
30289,61270,5
30292,61268,5
30299,61265,8
30299,61265,5
30321,61274,5
30320,61281,5
30301,61279,8
30282,61275,5
30296,61285,5
30304,61285,8
30307,61290,5
30298,61285,5
30294,61285,5
30312,61279,8
30313,61291,5
30307,61291,5
30311,61292,8
30311,61292,5
30269,61295,5
30300,61295,8
30303,61298,5
30314,61303,5
30306,61299,5
30306,61293,8
30308,61293,3
30312,61293,0
30313,61304,5
30308,61292,5
30312,61291,4
30312,61292,4
30312,61302,5
30312,61300,5
30309,61291,5
30315,61289,4
30306,61295,5
30305,61296,5
30305,61296,5
30307,61303,5
30314,61296,4
30313,61309,5
30306,61301,5
30309,61306,5
30314,61306,5
30307,61301,5
30315,61310,4
30307,61308,5
30314,61315,5
30307,61302,5
30310,61300,4
30309,61303,5
30307,61301,5
30302,61291,5
30303,61296,4
30301,61292,4
30298,61278,5
30304,61287,5
30307,61286,5
30307,61284,4
30302,61279,5
30304,61290,5
30308,61281,5
30302,61280,5
30303,61286,4
30305,61281,5
30304,61280,5
30303,61274,5
30300,61282,5
30303,61282,4
30298,61278,6
30299,61275,4
30299,61284,5
30300,61280,5
30294,61274,4
30300,61267,5
30301,61280,5
30295,61276,5
30303,61268,5
30298,61271,4
30301,61268,5
30297,61278,5
30306,61265,5
30296,61270,4
30297,61276,5
30294,61277,5
30297,61279,5
30304,61273,5
30299,61276,4
30303,61286,5
30297,61281,5
30301,61273,6
30302,61284,4
30304,61290,4
30305,61286,5
30298,61285,5
30312,61285,5
30311,61294,5
30306,61286,4
30305,61292,5
30313,61295,5
30307,61292,5
30307,61299,5
30303,61300,4
30297,61294,5
30309,61292,5
30296,61296,5
30301,61297,4
30305,61288,4
30307,61296,5
30300,61300,5
30307,61295,5
30303,61296,5
30301,61300,4
30318,61310,5
30313,61308,5
30309,61311,6
30314,61304,3
30315,61313,5
30311,61305,5
30312,61307,5
30312,61304,5
30317,61311,4
30315,61314,5
30316,61312,5
30319,61328,5
30314,61317,5
30319,61323,4
30318,61315,5
30315,61332,5
30311,61329,5
30307,61319,4
30320,61319,4
30315,61324,5
30317,61331,5
30322,61320,5
30320,61323,4
30314,61328,6
30321,61334,4
30321,61328,5
30312,61325,5
30319,61317,6
30321,61316,3
30307,61307,5
30313,61310,5
30317,61309,5
30312,61291,4
30309,61295,5
30306,61295,5
30303,61287,5
30305,61291,5
30301,61294,4
30303,61290,5
30305,61297,5
30305,61285,5
30305,61299,5
30312,61294,4
30301,61295,5
30308,61294,5
30316,61297,5
30307,61292,4
30294,61281,5
30294,61286,6
30293,61285,4
30294,61274,5
30298,61275,4
30302,61275,5
30290,61280,5
30299,61269,5
30295,61262,5
30296,61271,4
30296,61271,5
30289,61275,5
30296,61269,5
30301,61272,5
30297,61267,4
30296,61263,5
30290,61274,5
30303,61274,5
30301,61279,5
30299,61288,4
30298,61283,5
30297,61275,5
30298,61269,5
30295,61263,4
30289,61273,4
30293,61265,5
30297,61264,6
30298,61280,4
30304,61289,4
30305,61288,5
30304,61289,5
30307,61282,5
30300,61283,5
30303,61286,4
30301,61283,5
30294,61284,5
30297,61287,5
30310,61288,5
30307,61286,4
30302,61285,5
30290,61272,5
30293,61269,5
30292,61263,5
30286,61264,4
30287,61256,5
30285,61261,5
30289,61263,5
30293,61262,5
30295,61265,4
30294,61261,5
30288,61248,5
30288,61239,6
30280,61235,3
30291,61240,5
30294,61246,5
30284,61246,5
30284,61229,5
30270,61213,4
30261,61202,5
30261,61184,5
30262,61183,5
30260,61179,5
30254,61177,4
30251,61168,5
30250,61178,5
30253,61171,5
30249,61163,5
30245,61146,4
30232,61133,5
30227,61116,5
30222,61108,5
30224,61119,5
30233,61125,5
30234,61120,4
30219,61097,5
30220,61086,5
30217,61086,4
30227,61077,5
30221,61073,5
30222,61062,5
30197,61022,5
30188,61012,4
30194,60995,5
30184,61002,5
30180,61010,5
30191,60980,5
30172,60954,4
30150,60906,5
30143,60897,5
30138,60887,5
30148,60906,5
30149,60908,4
30137,60879,5
30119,60852,5
30103,60824,5
30108,60806,5
30104,60806,4
30098,60783,6
30098,60774,4
30083,60736,5
30057,60703,4
30054,60672,5
30052,60670,5
30055,60672,5
30045,60656,5
30027,60629,4
30019,60602,5
30003,60567,5
29992,60538,5
29983,60527,5
29980,60504,8
29959,60470,1
29938,60421,5
29898,60384,5
29890,60342,5
29869,60311,4
29845,60234,5
29810,60175,5
29782,60113,5
29764,60079,5
29739,60036,4
29727,59998,5
29713,59962,6
29681,59922,4
29679,59894,4
29661,59851,4
29650,59820,5
29623,59784,5
29619,59772,5
29614,59740,4
29597,59694,5
29580,59637,5
29552,59594,5
29542,59578,5
29530,59561,4
29526,59548,5
29530,59542,5
29509,59513,5
29497,59485,5
29493,59448,4
29473,59430,5
29461,59390,5
29450,59348,5
29433,59310,5
29420,59276,4
29405,59247,5
29384,59225,5
29373,59185,6
29343,59135,4
29333,59113,4
29312,59094,5
29311,59086,5
29301,59077,5
29274,59041,4
29242,58962,5
29203,58919,5
29182,58902,5
29188,58920,5
29188,58952,4
29174,58929,5
29152,58903,5
29121,58884,5
29113,58902,5
29125,58901,4
29115,58915,5
29105,58900,5
29108,58922,5
29111,58942,5
29098,58946,5
29082,58914,4
29043,58889,5
29032,58881,5
29034,58888,5
29010,58864,4
28985,58868,5
28974,58855,5
28964,58861,5
28951,58852,4
28950,58855,4
28930,58840,5
28876,58763,5
28851,58733,5
28843,58734,4
28856,58741,5
28854,58740,5
28840,58715,5
28826,58683,5
28798,58648,4
28788,58639,5
28770,58620,5
28757,58616,5
28757,58621,5
28747,58611,4
28738,58595,6
28726,58566,4
28711,58555,5
28714,58559,5
28710,58533,4
28694,58500,5
28684,58465,5
28683,58474,5
28670,58451,4
28658,58435,4
28641,58391,5
28621,58352,5
28600,58307,5
28572,58247,4
28547,58206,5
28520,58183,5
28514,58145,5
28492,58122,5
28487,58094,4
28482,58072,5
28456,58019,5
28429,57986,5
28411,57939,5
28393,57884,4
28370,57832,5
28349,57786,6
28332,57759,4
28332,57754,5
28312,57720,4
28287,57696,5
28267,57647,5
28255,57627,5
28237,57590,5
28224,57549,4
28185,57522,5
28160,57472,5
28136,57416,5
28111,57357,4
28067,57287,5
28026,57215,5
27961,57141,5
27920,57057,5
27887,57006,4
27849,56955,5
27818,56921,5
27790,56832,5
27730,56779,5
27699,56736,4
27659,56683,5
27628,56645,5
27591,56610,5
27575,56597,5
27544,56559,4
27535,56514,5
27498,56468,5
27452,56434,5
27422,56393,5
27405,56337,4
27381,56308,5
27350,56272,5
27325,56233,5
27296,56192,4
27265,56142,4
27246,56097,5
27215,56041,5
27183,56002,5
27153,55957,4
27141,55917,5
27122,55895,5
27104,55847,5
27082,55819,5
27061,55782,5
27049,55764,4
27030,55744,5
27004,55718,5
26996,55698,5
26994,55671,4
26976,55635,5
26965,55636,5
26952,55596,5
26939,55592,5
26929,55564,4
26912,55542,5
26900,55526,5
26885,55497,5
26863,55466,4
26853,55433,4
26835,55411,5
26822,55396,5
26797,55362,5
26788,55337,4
26769,55317,5
26773,55322,5
26772,55322,4
26753,55307,5
26740,55293,4
26736,55281,7
26728,55261,3
26721,55268,5
26711,55247,5
26714,55229,4
26696,55219,5
26693,55215,5
26684,55193,5
26685,55197,5
26683,55193,4
26671,55181,5
26667,55149,5
26649,55131,5
26640,55111,5
26621,55140,4
26625,55105,5
26607,55092,5
26580,55072,5
26566,55035,4
26540,55022,5
26526,55004,5
26514,54960,6
26493,54932,4
26483,54912,4
26471,54894,5
26453,54872,5
26450,54826,5
26409,54761,5
26371,54688,4
26345,54645,5
26321,54588,5
26288,54544,5
26268,54504,5
26263,54485,4
26235,54452,5
26212,54403,5
26194,54383,5
26181,54367,5
26155,54325,4
26134,54295,5
26116,54261,5
26104,54237,5
26081,54208,5
26068,54149,4
26057,54121,5
26026,54093,5
26009,54072,6
26004,54059,3
26004,54031,5
25986,54005,5
25977,53984,5
25967,53986,5
25973,53979,4
25964,53964,5
25944,53923,5
25923,53875,5
25902,53847,5
25891,53840,4
25869,53821,5
25860,53798,5
25841,53772,5
25831,53760,5
25822,53750,4
25828,53739,5
25816,53727,5
25814,53730,5
25796,53706,5
25795,53690,5
25791,53673,4
25783,53672,5
25777,53655,5
25763,53624,6
25745,53599,3
25738,53603,5
25740,53597,5
25716,53575,5
25715,53556,4
25701,53548,5
25695,53536,5
25675,53536,5
25678,53514,5
25662,53487,4
25644,53452,5
25621,53436,5
25616,53421,5
25608,53408,5
25588,53382,4
25586,53357,5
25568,53356,5
25576,53358,5
25572,53348,5
25566,53338,4
25542,53321,6
25543,53320,4
25528,53308,5
25518,53275,4
25513,53280,5
25516,53299,5
25522,53319,5
25522,53339,5
25528,53337,4
25512,53334,5
25514,53332,5
25505,53310,5
25460,53277,5
25442,53263,4
25416,53254,5
25397,53217,5
25369,53196,5
25340,53156,5
25339,53175,4
25321,53139,5
25295,53081,5
25276,53031,5
25259,53005,5
25239,52949,4
25211,52893,5
25180,52851,6
25157,52821,4
25137,52797,4
25108,52759,4
25090,52703,5
25074,52664,5
25041,52614,5
25028,52574,4
25017,52541,5
24987,52487,5
24964,52436,5
24949,52403,5
24945,52396,4
24930,52346,5
24908,52300,5
24908,52288,5
24900,52248,5
24886,52208,4
24855,52138,5
24826,52063,5
24806,51987,5
24768,51912,5
24747,51875,4
24733,51846,5
24709,51792,5
24700,51737,6
24685,51685,3
24665,51644,4
24634,51554,5
24600,51468,5
24532,51293,5
24489,51190,4
24453,51116,5
24447,51037,5
24431,50990,5
24417,50942,5
24396,50916,4
24396,50927,5
24395,50937,5
24382,50920,5
24376,50893,5
24359,50885,4
24360,50839,5
24335,50784,5
24322,50735,5
24312,50720,5
24272,50631,5
24267,50600,4
24272,50595,5
24264,50554,5
24267,50526,5
24253,50521,4
24278,50531,5
24284,50545,5
24306,50561,5
24307,50555,4
24311,50562,5
24319,50564,5
24338,50600,5
24366,50645,5
24394,50693,4
24416,50734,5
24434,50760,5
24440,50778,5
24476,50806,5
24488,50792,4
24501,50809,5
24486,50767,5
24485,50761,5
24495,50739,5
24496,50733,4
24510,50732,6
24519,50704,4
24491,50661,5
24490,50641,5
24488,50638,4
24502,50618,5
24461,50554,5
24455,50516,5
24456,50489,4
24450,50482,4
24461,50473,5
24472,50460,5
24478,50426,5
24485,50404,4
24489,50384,5
24469,50334,5
24450,50254,5
24442,50193,5
24438,50157,4
24451,50173,5
24471,50129,5
24465,50112,5
24467,50110,5
24482,50126,4
24519,50170,5
24549,50216,6
24564,50213,4
24588,50212,5
24576,50187,4
24581,50155,5
24572,50139,5
24575,50116,5
24571,50113,4
24561,50079,4
24560,50051,5
24560,50037,5
24552,50017,5
24548,49983,4
24536,49953,5
24527,49888,5
24493,49827,5
24465,49761,5
24471,49753,4
24488,49794,5
24526,49880,5
24567,49975,5
24607,50044,5
24631,50078,4
24656,50102,5
24643,50078,5
24629,50041,11
24625,50001,3
24619,49978,5
24612,49938,5
24617,49926,5
24631,49912,5
24655,49959,4
24686,50005,5
24703,50054,5
24722,50104,5
24731,50132,4
24755,50159,5
24766,50183,5
24787,50231,5
24812,50246,5
24824,50278,4
24833,50307,5
24839,50327,5
24850,50329,5
24856,50333,5
24850,50338,5
24852,50353,4
24865,50367,5
24878,50384,5
24878,50402,5
24887,50417,4
24900,50450,5
24899,50462,5
24918,50495,5
24927,50517,5
24948,50524,4
24947,50536,5
24957,50550,5
24960,50553,5
24968,50567,4
24975,50582,5
24985,50601,5
24993,50613,5
25007,50623,5
25010,50616,4
25004,50605,5
25008,50617,5
25015,50608,5
25011,50608,5
25019,50614,4
25016,50609,6
25016,50600,4
25015,50602,5
25024,50584,5
25031,50588,4
25031,50585,5
25038,50568,5
25033,50551,5
25027,50530,5
25030,50537,4
25028,50535,5
25029,50507,5
25029,50479,5
25024,50475,4
25030,50472,4
25018,50443,5
25007,50410,5
24986,50361,5
24988,50352,4
24987,50332,5
24982,50324,5
24985,50324,5
24979,50316,5
24962,50299,4
24965,50285,5
24954,50260,6
24960,50247,4
24949,50252,5
24949,50243,4
24957,50232,5
24954,50234,5
24948,50235,5
24948,50238,5
24958,50238,4
24957,50228,5
24958,50218,5
24947,50204,5
24944,50195,4
24943,50188,4
24948,50191,5
24955,50193,5
24956,50201,5
24958,50207,4
24958,50217,5
24966,50224,5
24971,50217,5
24967,50226,5
24962,50229,4
24965,50229,5
24970,50228,5
24963,50232,5
24969,50238,5
24975,50217,4
24956,50205,5
24957,50205,5
24957,50179,5
24950,50170,5
24936,50152,4
24933,50129,5
24923,50113,5
24913,50071,5
24898,50038,5
24897,50003,4
24876,49973,5
24863,49953,5
24849,49926,5
24834,49893,4
24824,49852,5
24818,49824,5
24796,49792,5
24792,49765,5
24782,49737,5
24768,49724,4
24777,49710,5
24756,49707,5
24762,49715,5
24764,49726,4
24776,49723,5
24765,49713,5
24762,49713,5
24757,49703,5
24765,49715,4
24759,49702,5
24753,49702,5
24745,49685,5
24760,49691,5
24751,49691,4
24749,49692,5
24751,49685,5
24752,49688,5
24758,49690,4
24758,49694,4
24758,49698,6
24762,49699,4
24754,49704,5
24763,49706,4
24765,49712,7
24761,49707,3
24774,49736,5
24770,49729,5
24775,49739,4
24791,49753,5
24778,49763,5
24779,49774,5
24793,49787,5
24802,49788,4
24800,49783,5
24795,49778,5
24796,49786,5
24802,49804,5
24807,49811,4
24804,49813,5
24813,49833,5
24819,49847,5
24832,49854,4
24833,49860,4
24834,49859,5
24839,49862,6
24842,49863,4
24838,49862,4
24835,49863,5
24831,49845,5
24824,49844,5
24830,49847,5
24832,49855,4
24836,49871,5
24834,49870,5
24839,49886,5
24843,49885,5
24854,49900,4
24849,49904,5
24857,49917,5
24865,49937,5
24877,49960,5
24884,49990,4
24897,50015,5
24912,50039,5
24918,50076,5
24922,50108,5
24945,50134,4
24959,50165,5
24978,50218,5
25011,50266,6
25019,50303,3
25038,50338,5
25036,50374,5
25053,50416,5
25078,50438,5
25087,50484,4
25103,50525,5
25093,50551,5
25117,50560,5
25121,50581,5
25139,50617,4
25153,50661,5
25166,50696,5
25191,50720,5
25200,50746,5
25224,50787,4
25230,50816,5
25244,50852,5
25241,50886,5
25259,50950,5
25296,51014,5
25318,51081,4
25312,51119,5
25321,51167,5
25331,51207,6
25354,51230,3
25369,51255,5
25364,51290,5
25384,51314,5
25397,51360,4
25424,51401,5
25428,51446,5
25446,51491,5
25476,51540,5
25509,51607,4
25530,51664,5
25547,51717,5
25563,51782,5
25597,51821,5
25611,51842,4
25608,51854,5
25611,51858,5
25601,51855,5
25615,51900,5
25640,51934,4
25664,51975,6
25671,52002,4
25670,52017,5
25677,52040,4
25707,52078,4
25707,52097,5
25738,52141,5
25733,52172,5
25761,52255,4
25794,52347,5
25800,52375,5
25817,52404,5
25809,52417,5
25807,52413,4
25783,52362,5
25774,52363,5
25771,52345,5
25780,52386,5
25806,52471,4
25831,52558,5
25860,52625,5
25884,52677,5
25876,52676,5
25867,52619,4
25833,52564,5
25822,52556,6
25829,52554,4
25829,52575,5
25831,52603,4
25851,52666,5
25888,52735,5
25897,52780,5
25895,52781,4
25878,52753,5
25894,52724,5
25870,52705,5
25865,52707,5
25870,52725,4
25875,52741,5
25883,52757,5
25881,52752,5
25865,52721,5
25852,52694,4
25852,52694,5
25858,52739,5
25880,52777,5
25902,52818,5
25906,52849,4
25906,52823,5
25906,52835,5
25922,52858,6
25949,52995,4
26014,53197,4
26106,53468,5
26216,53686,5
26244,53771,5
26262,53807,4
26272,53797,5
26252,53790,5
26252,53761,5
26244,53738,5
26240,53708,4
26250,53724,5
26230,53710,5
26232,53707,5
26229,53695,5
26219,53665,4
26188,53600,5
26154,53525,5
26138,53469,5
26124,53436,5
26108,53378,5
26078,53349,4
26069,53316,5
26051,53266,5
26029,53224,5
26013,53181,4
25999,53141,5
25980,53102,5
25959,53059,5
25947,53016,4
25931,52966,4
25913,52927,5
25888,52897,5
25884,52843,5
25868,52821,4
25861,52798,5
25846,52778,5
25841,52765,5
25844,52780,5
25847,52775,4
25854,52802,5
25859,52803,5
25857,52800,5
25845,52777,5
25834,52757,4
25830,52719,6
25823,52699,4
25813,52674,5
25801,52634,5
25787,52605,4
25774,52583,5
25764,52568,5
25775,52566,5
25770,52563,5
25777,52585,4
25787,52591,5
25787,52591,5
25793,52589,5
25790,52583,4
25790,52589,5
25792,52604,5
25796,52611,5
25805,52632,5
25812,52633,4
25815,52645,5
25814,52658,5
25829,52667,5
25836,52679,5
25845,52680,4
25856,52693,5
25858,52709,6
25861,52717,4
25888,52741,5
25913,52789,4
25943,52844,5
25950,52854,5
25960,52873,5
25980,52891,5
25979,52922,4
25997,52951,5
26020,52971,5
26031,52985,5
26047,53000,4
26069,52995,4
26080,53009,5
26076,53004,5
26082,52994,5
26083,52980,4
26082,52975,5
26072,52938,5
26058,52875,5
26030,52812,5
26023,52747,4
26015,52714,5
26000,52691,5
25996,52668,5
26003,52672,5
26014,52695,4
26026,52733,5
26067,52800,5
26085,52852,5
26118,52896,5
26112,52902,4
26116,52901,5
26104,52860,5
26095,52810,5
26072,52744,4
26050,52684,4
26038,52656,5
26049,52642,5
26088,52691,5
26131,52813,4
26199,53008,5
26316,53219,5
26394,53351,5
26419,53363,5
26436,53357,5
26435,53348,4
26439,53327,5
26437,53329,5
26485,53396,5
26501,53464,4
26551,53528,5
26585,53590,5
26646,53622,5
26600,53568,5
26581,53511,4
26550,53451,5
26548,53394,5
26516,53358,5
26523,53371,5
26561,53476,4
26623,53611,5
26695,53783,9
26751,53901,1
26791,53981,4
26829,54027,5
26831,54002,5
26779,53847,5
26720,53705,5
26681,53598,4
26648,53530,6
26635,53510,4
26628,53495,5
26661,53567,5
26718,53720,4
26793,53876,5
26827,53947,5
26846,53957,5
26845,53926,5
26831,53887,4
26844,53900,5
26868,53961,5
26889,53976,5
26912,54009,5
26914,54026,4
26915,54003,5
26873,53905,5
26874,53897,5
26869,53904,4
26896,53979,4
26975,54132,5
27042,54286,5
27101,54386,5
27127,54435,4
27139,54437,5
27127,54420,6
27123,54393,4
27110,54332,5
27089,54297,4
27088,54300,5
27097,54326,5
27121,54358,5
27121,54325,5
27107,54302,4
27107,54284,5
27117,54304,5
27136,54360,5
27174,54419,5
27188,54454,4
27189,54440,5
27178,54406,5
27144,54351,5
27127,54275,4
27085,54201,4
27066,54135,5
27039,54080,5
27023,54054,5
27030,54074,4
27068,54143,5
27100,54203,5
27128,54241,5
27137,54250,5
27120,54217,4
27095,54164,5
27064,54085,5
27024,54012,5
26986,53930,5
26960,53853,4
26910,53766,5
26878,53673,5
26834,53597,5
26823,53556,5
26831,53568,4
26837,53601,5
26860,53656,5
26885,53697,5
26885,53692,5
26868,53645,5
26829,53587,4
26813,53543,5
26808,53520,5
26800,53490,6
26789,53465,3
26777,53434,5
26776,53426,5
26769,53405,5
26748,53381,4
26743,53354,5
26741,53361,5
26757,53403,5
26773,53444,5
26787,53479,4
26801,53495,5
26792,53484,5
26786,53470,5
26784,53468,5
26780,53452,4
26780,53437,5
26769,53434,5
26756,53393,5
26737,53358,5
26720,53326,4
26719,53316,6
26716,53312,4
26730,53330,5
26758,53409,4
26836,53574,6
26952,53886,3
27189,54389,5
27476,55038,5
27860,55926,4
28377,57004,5
28918,58033,5
29413,58916,5
29758,59557,5
30030,60073,4
30295,60660,5
30654,61415,5
30949,62015,5
31263,62588,5
31494,63085,4
31780,63601,5
31981,64053,5
32168,64350,5
32272,64595,5
32388,64823,4
32559,65232,5
32794,65655,6
32965,65204,4
33108,65505,4
33257,65774,4
33372,66012,5
33447,66150,5
33477,66203,5
33503,66181,4
33400,66075,5
33305,65903,5
33233,65777,5
33216,65741,5
33189,65718,4
33142,65623,5
33097,65518,5
33088,65511,5
33113,65580,5
33165,65658,4
33216,65767,5
33290,65888,5
33379,66115,5
33495,66358,5
33620,66617,4
33730,66780,5
33788,66938,5
33857,67105,6
33950,67280,4
34019,67468,4
34127,67733,5
34187,67863,5
34252,67962,5
34301,68006,4
34320,68050,5
34356,68118,5
34430,68301,5
34547,68570,5
34686,68872,4
34838,69180,5
34961,69444,5
35090,69743,5
35165,69881,5
35190,69891,4
35136,69794,5
35157,69873,5
35214,70035,5
35342,70342,5
35480,70600,5
35567,70798,4
35660,70996,5
35781,71264,5
35904,71554,6
36035,71835,3
36171,72134,5
36314,72442,5
36446,72712,5
36538,72917,4
36612,73090,5
36643,73120,5
36578,72996,5
36504,72915,5
36455,72826,4
36340,72588,5
36162,72220,5
36021,71984,5
35927,71809,5
35880,71747,4
35862,71712,5
35847,71719,5
35809,71656,5
35787,71629,5
35763,71608,4
35709,71482,6
35592,71321,4
35474,71097,5
35334,70785,5
35182,70496,4
35061,70296,5
34987,70156,5
34931,70097,5
34881,69976,4
34788,69822,4
34693,69607,5
34559,69324,5
34387,68958,5
34167,68543,4
33953,68106,5
33689,67580,5
33454,67106,5
33231,66707,5
33136,66606,4
33032,66405,5
32858,66110,5
32612,65591,5
32226,64835,5
31755,63816,4
31221,62661,5
30759,61741,6
30463,61041,4
30252,60601,5
30071,60223,4
29956,59971,5
29770,59630,5
29628,59280,5
29444,58905,5
29285,58494,4
29125,58173,5
29010,57939,5
28928,57783,5
28865,57637,4
28783,57416,5
28707,57236,5
28666,57081,5
28595,56886,5
28486,56678,4
28446,56608,5
28439,56614,5
28404,56573,5
28375,56520,5
28284,56341,4
28189,56096,5
28064,55856,5
27917,55604,6
27800,55420,4
27738,55275,4
27664,55105,5
27609,54961,5
27520,54812,5
27496,54726,5
27489,54721,4
27481,54733,5
27510,54785,5
27519,54779,5
27491,54763,4
27491,54731,5
27492,54717,5
27493,54718,5
27470,54681,5
27471,54644,4
27468,54653,5
27471,54648,5
27482,54643,5
27498,54662,5
27509,54667,5
27518,54668,4
27521,54667,5
27528,54673,5
27541,54679,5
27536,54671,4
27539,54671,5
27554,54701,5
27554,54706,5
27574,54753,5
27597,54795,4
27619,54843,5
27614,54853,5
27617,54869,5
27637,54892,4
27654,54921,4
27685,54965,5
27707,55015,5
27724,55065,5
27753,55108,4
27780,55145,5
27794,55182,5
27807,55217,5
27813,55231,5
27826,55275,4
27856,55315,6
27872,55351,4
27884,55351,5
27901,55362,5
27896,55341,4
27888,55318,5
27874,55277,5
27849,55237,5
27839,55225,5
27832,55205,4
27830,55203,5
27826,55201,5
27833,55196,5
27822,55171,4
27809,55134,4
27791,55097,5
27771,55046,5
27754,54986,5
27732,54913,4
27714,54876,5
27693,54829,5
27682,54796,5
27678,54776,5
27670,54764,4
27664,54738,5
27669,54728,6
27654,54712,4
27646,54693,5
27647,54679,4
27632,54659,5
27619,54641,5
27613,54617,5
27616,54600,5
27606,54582,4
27574,54551,5
27573,54537,5
27575,54531,5
27584,54556,4
27593,54574,4
27597,54563,5
27586,54557,5
27579,54560,5
27586,54546,4
27561,54549,5
27568,54553,5
27570,54554,5
27573,54576,5
27588,54592,4
27598,54613,5
27607,54640,5
27623,54667,5
27635,54712,5
27657,54758,4
27671,54794,5
27707,54831,5
27713,54887,5
27733,54923,5
27749,54968,4
27767,54990,5
27780,55035,5
27796,55072,5
27815,55127,5
27852,55212,4
27873,55275,5
27906,55348,5
27940,55436,5
27978,55506,4
27999,55586,5
28051,55681,5
28079,55772,5
28134,55885,5
28180,55987,5
28223,56079,4
28250,56143,5
28267,56194,5
28276,56226,5
28280,56256,4
28296,56286,5
28311,56332,5
28353,56424,5
28389,56500,5
28434,56624,4
28472,56711,5
28515,56798,5
28535,56871,5
28558,56941,5
28578,56991,4
28594,57035,5
28590,57049,5
28608,57098,5
28626,57126,4
28648,57166,4
28660,57218,5
28697,57259,5
28714,57317,5
28736,57369,4
28753,57394,6
28759,57441,4
28779,57459,5
28786,57472,5
28782,57472,4
28801,57487,5
28792,57491,5
28805,57524,5
28807,57557,5
28820,57567,4
28816,57561,5
28814,57564,5
28816,57561,5
28808,57546,5
28792,57527,4
28788,57511,5
28796,57495,5
28781,57470,5
28768,57445,5
28758,57408,4
28738,57369,5
28717,57309,5
28700,57272,5
28688,57243,4
28671,57202,5
28650,57154,6
28624,57096,4
28596,57056,5
28583,57008,4
28575,56967,5
28551,56929,7
28546,56890,3
28526,56842,5
28505,56800,4
28488,56762,5
28465,56701,5
28441,56644,5
28427,56607,5
28407,56553,4
28391,56508,5
28366,56460,5
28350,56421,5
28331,56361,5
28309,56295,4
28291,56238,5
28265,56192,5
28242,56131,5
28215,56064,3
28181,55974,4
28152,55892,5
28114,55812,5
28069,55711,5
28036,55606,4
27990,55505,5
27960,55405,5
27917,55279,5
27867,55141,5
27817,54997,4
27757,54855,5
27711,54691,5
27648,54526,5
27603,54389,5
27559,54257,4
27505,54132,5
27482,54012,5
27441,53906,5
27402,53792,5
27357,53657,5
27321,53554,4
27285,53444,5
27251,53329,5
27217,53243,6
27201,53147,3
27179,53067,5
27164,52998,5
27145,52927,5
27125,52877,4
27118,52836,5
27112,52760,5
27095,52719,5
27084,52678,5
27081,52636,4
27068,52585,5
27055,52557,5
27037,52514,5
27029,52481,5
27019,52442,4
27009,52399,5
26993,52358,5
26986,52335,5
26971,52286,5
26982,52275,4
26955,52262,6
26965,52233,4
26955,52235,5
26956,52229,5
26966,52239,6
26973,52247,3
26975,52253,5
26968,52257,5
26974,52250,4
26981,52269,5
26982,52272,5
26997,52279,5
26998,52298,5
27006,52310,4
27008,52319,5
27015,52314,5
27021,52318,5
27011,52293,5
27001,52277,4
27001,52269,5
26990,52242,5
26986,52212,5
26970,52185,5
26970,52132,4
26942,52100,5
26919,52059,6
26906,52014,4
26892,51975,5
26871,51935,4
26850,51894,5
26843,51849,5
26819,51796,5
26795,51751,4
26785,51705,4
26764,51660,5
26757,51614,5
26741,51547,5
26717,51492,4
26693,51447,5
26680,51396,5
26654,51343,5
26643,51288,5
26623,51241,4
26616,51201,5
26596,51153,5
26583,51104,5
26563,51060,5
26555,51022,4
26546,50989,5
26538,50960,5
26507,50920,6
26500,50884,4
26486,50870,4
26487,50854,5
26485,50848,5
26479,50808,5
26450,50772,4
26447,50736,4
26439,50699,5
26423,50673,5
26413,50658,5
26407,50642,4
26399,50616,5
26382,50601,5
26371,50573,5
26367,50541,5
26357,50520,4
26345,50490,5
26332,50470,5
26328,50444,5
26320,50418,5
26315,50406,5
26298,50395,4
26292,50361,5
26277,50351,5
26284,50342,6
26263,50334,3
26263,50318,5
26250,50287,5
26239,50273,5
26236,50272,5
26236,50252,4
26212,50232,5
26209,50226,5
26205,50212,5
26198,50194,4
26188,50184,5
26176,50183,5
26175,50164,5
26169,50156,5
26169,50139,4
26166,50136,5
26155,50117,5
26156,50116,5
26155,50109,5
26156,50101,4
26146,50100,6
26147,50097,4
26140,50084,5
26142,50076,5
26133,50069,4
26141,50053,5
26125,50037,5
26125,50044,5
26127,50033,5
26111,50027,4
26117,50024,5
26123,50040,5
26120,50041,5
26124,50043,4
26165,50131,5
26167,50126,5
26162,50129,5
26164,50126,5
26164,50131,4
26164,50129,5
26165,50147,5
26168,50166,5
26170,50177,5
26166,50197,4
26177,50199,5
26174,50208,6
26186,50224,4
26192,50235,5
26195,50242,4
26194,50261,5
26199,50266,5
26195,50279,5
26208,50280,5
26210,50295,4
26208,50297,5
26207,50319,5
26223,50331,5
26223,50342,4
26225,50355,4
26237,50384,5
26233,50388,5
26243,50399,5
26244,50406,4
26257,50411,5
26254,50414,5
26245,50419,5
26245,50423,5
26248,50433,4
26250,50446,5
26252,50450,5
26261,50466,6
26264,50469,4
26261,50488,4
26268,50490,5
26273,50504,5
26283,50507,5
26286,50536,5
26301,50556,4
26299,50568,5
26308,50591,5
26313,50595,5
26313,50606,5
26326,50616,4
26332,50641,5
26337,50639,5
26342,50659,5
26352,50674,4
26361,50685,5
26376,50701,5
26367,50719,5
26368,50724,5
26378,50730,5
26391,50739,4
26379,50749,5
26393,50772,5
26392,50782,5
26404,50800,4
26405,50818,5
26418,50815,5
26405,50821,5
26426,50834,5
26424,50857,4
26439,50853,5
26435,50855,5
26437,50865,5
26433,50869,5
26439,50871,4
26440,50885,5
26450,50886,5
26452,50897,5
26457,50901,4
26460,50914,4
26466,50921,5
26456,50928,5
26470,50937,5
26470,50939,4
26470,50954,6
26480,50954,4
26489,50964,5
26487,50969,5
26492,50970,4
26496,50987,5
26501,50980,5
26507,51000,5
26510,51003,5
26511,51010,4
26506,51025,5
26514,51034,5
26527,51037,5
26532,51046,5
26535,51057,4
26538,51066,5
26542,51075,5
26537,51067,5
26545,51079,5
26536,51085,4
26554,51097,5
26551,51093,5
26560,51102,5
26561,51103,4
26560,51111,5
26565,51120,6
26558,51123,4
26569,51134,5
26564,51129,4
26577,51149,5
26573,51157,5
26580,51164,5
26583,51177,5
26582,51192,4
26586,51175,5
26583,51177,5
26586,51172,5
26590,51172,5
26587,51174,4
26592,51179,5
26582,51180,5
26588,51164,5
26589,51162,5
26589,51176,4
26588,51177,5
26584,51178,5
26581,51183,5
26581,51177,4
26583,51174,4
26578,51167,5
26579,51168,5
26575,51149,5
26568,51153,4
26569,51133,5
26554,51123,5
26550,51113,5
26547,51106,5
26542,51093,4
26538,51085,5
26530,51069,5
26532,51069,5
26533,51059,5
26531,51052,4
26516,51045,5
26524,51044,5
26513,51039,5
26517,51031,5
26507,51025,4
26510,51029,5
26504,51029,5
26505,51012,5
26497,51004,5
26498,50998,4
26489,50987,5
26497,50975,5
26488,50976,5
26479,50970,4
26476,50962,5
26475,50954,5
26468,50949,5
26468,50944,5
26462,50934,4
26469,50935,5
26469,50928,5
26462,50920,5
26456,50911,5
26446,50897,4
26448,50889,5
26452,50893,5
26450,50887,5
26443,50887,5
26444,50883,4
26443,50872,5
26439,50864,5
26442,50869,5
26439,50865,5
26442,50873,5
26445,50869,4
26445,50875,5
26448,50877,5
26442,50876,4
26445,50881,5
26444,50885,5
26449,50881,5
26448,50891,5
26456,50874,4
26439,50876,5
26447,50872,5
26442,50870,5
26434,50863,5
26435,50859,4
26432,50851,5
26440,50845,5
26430,50841,5
26427,50840,5
26430,50840,4
26425,50833,5
26420,50822,5
26415,50822,5
26415,50811,5
26414,50814,4
26420,50817,6
26417,50806,3
26417,50804,5
26410,50791,4
26407,50785,4
26399,50775,5
26404,50782,5
26409,50777,5
26411,50781,4
26405,50771,5
26402,50770,5
26396,50776,5
26400,50770,5
26390,50765,4
26399,50760,5
26394,50766,5
26394,50772,5
26393,50767,5
26400,50770,4
26402,50760,5
26400,50768,5
26402,50769,6
26409,50768,4
26403,50770,4
26407,50766,5
26398,50755,5
26395,50762,5
26403,50760,5
26402,50756,4
26403,50752,5
26394,50744,5
26387,50735,5
26385,50727,4
26392,50722,5
26381,50712,5
26383,50718,5
26381,50708,5
26379,50717,4
26381,50718,5
26378,50703,5
26373,50710,5
26373,50703,5
26376,50693,10
26376,50693,4
26373,50702,5
26380,50700,6
26375,50701,3
26381,50701,5
26371,50704,5
26380,50710,5
26371,50715,5
26373,50709,4
26380,50721,5
26387,50708,5
26379,50722,5
26383,50726,4
26378,50718,4
26385,50719,5
26382,50725,5
26383,50730,5
26378,50723,4
26390,50726,5
26390,50733,5
26399,50733,5
26392,50733,5
26389,50752,4
26385,50740,6
26386,50749,4
26397,50750,5
26379,50741,5
26395,50751,6
26390,50750,3
26385,50752,5
26386,50752,5
26391,50747,5
26389,50735,4
26382,50741,5
26389,50740,5
26385,50747,5
26388,50744,4
26385,50742,4
26383,50753,5
26387,50754,5
26392,50762,5
26389,50754,4
26394,50757,5
26394,50748,5
26389,50757,5
26385,50744,5
26382,50743,4
26383,50740,5
26375,50737,6
26384,50734,4
26380,50736,5
26378,50745,4
26378,50746,5
26380,50745,5
26378,50735,5
26378,50742,5
26382,50742,4
26375,50742,5
26373,50734,5
26380,50739,5
26387,50744,5
26386,50747,4
26379,50741,5
26384,50744,5
26387,50735,5
26378,50739,4
26372,50744,5
26372,50736,5
26373,50729,5
26370,50727,5
26365,50727,4
26375,50733,5
26370,50720,5
26369,50723,6
26373,50724,4
26367,50733,4
26363,50714,5
26373,50714,5
26369,50714,5
26367,50718,5
26369,50709,4
26361,50717,5
26368,50715,5
26368,50719,5
26366,50717,5
26362,50713,4
26367,50715,5
26371,50718,5
26372,50718,5
26367,50712,4
26370,50713,5
26364,50721,5
26363,50715,5
26363,50713,5
26357,50712,5
26353,50698,4
26355,50699,5
26364,50693,5
26357,50675,6
26354,50669,3
26348,50672,5
26351,50667,5
26351,50678,5
26349,50678,5
26355,50677,4
26355,50682,5
26358,50688,5
26351,50684,5
26365,50692,5
26356,50683,4
26357,50693,5
26354,50691,5
26351,50672,5
26351,50669,4
26348,50656,4
26335,50651,5
26342,50641,5
26335,50645,5
26333,50641,4
26332,50628,6
26333,50618,4
26322,50628,5
26326,50616,5
26318,50618,4
26333,50625,5
26328,50617,5
26334,50623,5
26330,50627,5
26329,50616,4
26331,50613,5
26331,50615,5
26325,50612,5
26326,50608,5
26327,50610,4
26328,50601,5
26324,50607,5
26317,50604,5
26321,50600,5
26325,50602,4
26317,50586,5
26314,50590,5
26314,50590,5
26315,50572,4
26304,50566,5
26305,50555,6
26290,50553,4
26295,50544,5
26284,50531,4
26278,50526,5
26282,50522,5
26274,50512,5
26272,50493,5
26267,50487,4
26263,50485,5
26270,50475,5
26264,50473,5
26253,50465,5
26256,50463,4
26262,50468,5
26251,50459,5
26245,50457,5
26247,50445,5
26243,50440,4
26237,50427,5
26236,50407,5
26238,50406,5
26236,50397,4
26224,50389,4
26220,50380,5
26221,50383,6
26214,50378,4
26221,50374,4
26217,50368,5
26208,50364,5
26207,50352,5
26200,50352,5
26197,50347,4
26190,50335,5
26187,50320,5
26181,50317,5
26193,50309,5
26181,50308,4
26184,50302,5
26177,50293,5
26188,50287,5
26165,50288,5
26175,50281,4
26173,50277,5
26171,50275,5
26174,50287,5
26169,50277,5
26169,50275,4
26163,50268,5
26162,50261,5
26164,50260,5
26158,50246,4
26164,50254,5
26162,50244,5
26154,50228,5
26150,50231,5
26155,50233,4
26149,50238,5
26149,50232,5
26139,50231,5
26148,50237,5
26149,50228,4
26143,50218,5
26144,50228,5
26147,50222,5
26140,50226,5
26138,50212,4
26127,50210,5
26123,50200,5
26127,50193,5
26118,50190,5
26122,50191,5
26108,50188,4
26110,50177,5
26106,50178,5
26106,50168,4
26104,50159,5
26105,50165,5
26108,50173,5
26108,50164,5
26121,50172,4
26116,50173,5
26112,50185,5
26113,50179,5
26108,50180,5
26108,50179,4
26107,50163,5
26110,50164,5
26097,50166,5
26109,50163,5
26103,50168,4
26111,50163,5
26099,50161,5
26096,50156,5
26111,50162,5
26104,50169,4
26096,50162,6
26102,50150,4
26093,50154,5
26097,50147,4
26090,50147,4
26095,50142,5
26095,50138,5
26089,50137,5
26087,50124,4
26088,50131,5
26088,50127,5
26080,50120,5
26077,50114,5
26087,50103,4
26072,50113,5
26075,50110,5
26076,50100,5
26077,50114,5
26078,50112,4
26083,50112,5
26074,50111,5
26081,50109,5
26079,50115,5
26079,50110,4
26080,50114,5
26073,50100,6
26073,50100,4
26067,50096,4
26074,50101,4
26071,50103,5
26068,50102,5
26073,50095,5
26075,50103,4
26071,50100,5
26074,50094,5
26069,50097,5
26071,50100,5
26069,50093,4
26066,50087,5
26066,50086,5
26064,50077,5
26064,50078,5
26058,50072,4
26050,50065,5
26045,50060,5
26050,50060,5
26061,50060,5
26047,50061,4
26048,50060,5
26049,50059,5
26056,50056,5
26047,50052,5
26049,50043,4
26043,50038,5
26048,50035,5
26031,50024,5
26038,50028,4
26033,50025,5
26031,50014,5
26036,50019,5
26032,50011,5
26033,50009,4
26023,50009,5
26025,50002,5
26013,50004,5
26019,49996,5
26020,49994,4
26019,49975,5
26006,49980,5
26012,49977,5
26014,49983,5
26011,49975,5
26004,49976,4
26000,49975,5
26004,49965,5
26003,49960,5
26010,49961,4
25999,49949,5
25992,49949,5
25990,49944,5
25990,49949,4
25992,49946,4
25984,49935,5
25986,49922,5
25986,49919,5
25979,49926,4
25982,49921,5
25982,49920,5
25978,49911,5
25982,49917,5
25979,49915,4
25981,49919,5
25975,49909,6
25977,49917,4
25971,49908,5
25971,49907,4
25976,49902,7
25977,49899,3
25974,49907,5
25971,49906,5
25972,49906,4
25978,49897,5
25969,49900,5
25966,49898,5
25968,49898,4
25964,49889,4
25969,49885,5
25963,49886,5
25964,49876,5
25962,49870,4
25952,49883,5
25961,49866,5
25961,49872,5
25957,49868,5
25958,49862,4
25963,49861,5
25950,49862,5
25952,49866,6
25956,49854,4
25945,49845,4
25944,49850,5
25948,49841,5
25942,49844,5
25944,49847,5
25949,49843,4
25948,49835,5
25943,49844,5
25949,49844,5
25943,49835,4
25946,49844,4
25948,49836,5
25948,49830,5
25936,49828,5
25940,49835,4
25933,49823,5
25937,49823,5
25937,49823,5
25936,49817,5
25930,49819,5
25941,49813,4
25937,49817,5
25929,49810,5
25931,49813,6
25922,49808,3
25936,49812,5
25934,49802,5
25934,49811,5
25934,49800,5
25927,49797,4
25927,49796,5
25915,49789,5
25924,49788,5
25920,49791,5
25920,49791,4
25913,49780,5
25912,49769,5
25912,49774,5
25915,49779,4
25915,49777,5
25910,49775,5
25913,49768,5
25911,49772,5
25900,49772,4
25907,49769,6
25908,49771,4
25912,49773,5
25909,49769,5
25907,49774,6
25913,49773,3
25907,49769,5
25903,49765,5
25915,49766,5
25911,49771,4
25918,49779,5
25920,49778,5
25914,49770,5
25912,49774,8
25916,49778,1
25903,49788,5
25918,49785,5
25913,49777,5
25922,49786,4
25917,49784,4
25917,49786,5
25924,49782,5
25917,49787,5
25918,49792,4
25917,49791,5
25917,49782,6
25913,49779,4
25920,49787,5
25923,49784,4
25919,49790,5
25920,49790,5
25921,49786,5
25926,49788,5
25923,49799,4
25920,49802,5
25920,49797,5
25924,49805,5
25926,49794,5
25928,49802,4
25921,49796,5
25931,49798,5
25926,49805,5
25924,49796,4
25932,49812,4
25922,49810,5
25923,49808,5
25925,49811,5
25934,49810,4
25931,49811,5
25926,49812,5
25928,49806,6
25935,49811,4
25933,49810,4
25932,49818,5
25932,49821,5
25930,49820,5
25936,49815,5
25929,49819,4
25933,49817,5
25927,49820,5
25931,49820,5
25929,49815,5
25931,49823,4
25945,49821,5
25930,49811,5
25929,49816,5
25939,49807,5
25929,49818,4
25924,49814,5
25933,49811,5
25928,49814,5
25926,49809,5
25930,49811,4
25933,49813,5
25927,49814,5
25930,49818,6
25924,49814,3
25930,49819,5
25930,49811,5
25932,49816,5
25929,49810,5
25930,49819,4
25925,49803,5
25931,49808,5
25933,49806,5
25929,49812,5
25921,49801,4
25924,49801,5
25921,49790,5
25925,49802,5
25920,49798,5
25915,49798,4
25924,49793,5
25918,49794,5
25910,49786,5
25925,49792,4
25921,49792,6
25910,49784,4
25910,49778,5
25911,49780,5
25908,49781,4
25909,49789,5
25903,49780,5
25909,49769,5
25916,49768,5
25903,49768,4
25908,49778,5
25907,49765,5
25903,49758,5
25903,49762,5
25899,49761,4
25899,49746,5
25895,49743,5
25897,49742,5
25903,49748,5
25893,49740,4
25900,49746,5
25895,49745,5
25899,49744,5
25887,49742,4
25896,49734,4
25889,49721,6
25879,49723,4
25878,49713,5
25872,49723,4
25874,49723,5
25877,49723,5
25877,49723,5
25873,49714,5
25873,49711,4
25875,49714,5
25870,49713,5
25876,49711,5
25864,49708,5
25873,49703,4
25865,49700,5
25873,49698,5
25865,49697,5
25869,49693,5
25862,49689,4
25865,49690,5
25869,49688,5
25871,49690,5
25858,49675,4
25864,49682,4
25858,49679,5
25856,49678,6
25857,49665,4
25866,49667,4
25858,49665,5
25853,49670,5
25855,49661,5
25857,49656,5
25855,49657,4
25851,49655,5
25848,49655,5
25843,49654,5
25852,49646,5
25844,49650,4
25840,49651,5
25851,49648,5
25846,49639,5
25842,49641,5
25840,49646,4
25853,49643,5
25837,49633,5
25838,49631,5
25845,49633,5
25834,49633,4
25834,49626,5
25830,49615,5
25839,49623,5
25827,49628,4
25825,49624,5
25835,49622,5
25830,49617,5
25833,49612,5
25832,49608,4
25825,49610,5
25823,49608,5
25834,49620,5
25826,49608,5
25830,49609,4
25828,49603,5
25820,49605,5
25829,49605,5
25830,49612,5
25829,49611,4
25826,49613,5
25831,49620,5
25841,49613,5
25835,49623,5
25829,49613,5
25832,49613,4
25821,49611,5
25822,49603,5
25828,49612,4
25830,49604,4
25833,49601,5
25818,49606,5
25819,49604,5
25828,49596,4
25821,49604,5
25831,49602,5
25826,49597,5
25822,49597,5
25829,49608,4
25827,49607,5
25819,49598,5
25822,49603,5
25820,49593,5
25821,49597,4
25824,49596,5
25822,49600,5
25820,49595,5
25828,49596,5
25827,49602,4
25817,49595,6
25821,49592,4
25822,49594,5
25827,49580,4
25824,49593,4
25815,49580,5
25824,49585,5
25814,49588,5
25817,49584,4
25822,49583,5
25819,49585,5
25819,49583,5
25824,49587,5
25818,49584,4
25816,49585,5
25824,49581,5
25823,49584,5
25829,49591,5
25829,49594,4
25826,49586,5
25823,49596,5
25828,49589,5
25835,49593,5
25825,49600,4
25833,49605,5
25833,49606,5
25831,49592,5
25839,49611,5
25831,49602,4
25839,49602,5
25838,49604,5
25830,49603,5
25832,49612,4
25832,49607,5
25842,49601,5
25826,49615,5
25840,49598,5
25837,49613,4
25838,49605,5
25829,49605,5
25835,49609,5
25827,49605,5
25827,49605,4
25827,49594,5
25829,49591,5
25824,49590,5
25831,49593,5
25824,49595,4
25830,49593,5
25825,49595,5
25826,49595,5
25828,49594,5
25825,49601,4
25829,49598,5
25839,49592,5
25833,49593,5
25836,49595,4
25829,49594,5
25835,49600,5
25829,49594,5
25832,49602,5
25834,49603,4
25832,49601,5
25829,49600,5
25839,49592,5
25832,49598,5
25833,49598,4
25828,49595,5
25837,49590,4
25834,49600,5
25834,49600,5
25832,49595,6
25830,49600,3
25835,49604,5
25834,49595,5
25840,49600,5
25837,49603,4
25833,49595,5
25833,49599,5
25839,49599,5
25841,49593,4
25835,49591,4
25833,49592,5
25826,49592,5
25824,49588,5
25830,49585,4
25832,49576,5
25831,49586,5
25830,49580,5
25832,49587,5
25835,49585,4
25826,49573,5
25826,49581,6
25828,49584,4
25825,49589,5
25835,49581,4
25838,49581,7
25834,49575,3
25825,49583,5
25840,49583,5
25839,49587,4
25832,49582,5
25836,49585,5
25834,49593,5
25838,49586,5
25842,49596,4
25834,49591,5
25835,49595,5
25834,49592,5
25838,49594,4
25841,49589,5
25839,49594,5
25839,49596,5
25838,49594,5
25851,49601,4
25843,49599,5
25836,49594,5
25832,49591,6
25840,49591,4
25841,49598,4
25834,49600,5
25845,49599,5
25840,49595,5
25843,49596,5
25838,49591,4
25841,49590,5
25837,49596,5
25829,49588,5
25838,49595,5
25833,49589,4
25841,49584,5
25842,49601,5
25843,49589,5
25850,49591,4
25840,49587,5
25835,49593,5
25846,49593,5
25840,49585,5
25841,49590,5
25843,49601,4
25839,49594,5
25834,49587,5
25838,49596,6
25845,49598,3
25843,49591,5
25842,49592,5
25840,49597,5
25837,49596,5
25842,49591,4
25839,49600,5
25839,49582,5
25842,49585,5
25839,49592,5
25842,49585,4
25837,49586,5
25843,49592,5
25845,49587,5
25846,49594,4
25841,49601,4
25844,49600,5
25842,49588,5
25838,49588,5
25839,49593,4
25835,49594,6
25845,49596,4
25835,49584,5
25845,49591,5
25835,49585,6
25833,49590,3
25832,49587,5
25840,49583,5
25838,49583,5
25837,49577,4
25840,49587,5
25838,49583,5
25832,49579,5
25842,49578,5
25829,49567,4
25822,49569,5
25836,49569,5
25828,49574,5
25835,49578,4
25835,49577,4
25824,49572,5
25837,49583,5
25832,49587,5
25839,49583,4
25837,49585,5
25834,49582,6
25829,49588,4
25832,49578,5
25830,49570,4
25838,49581,5
25838,49571,5
25833,49590,5
25843,49575,5
25840,49586,4
25836,49581,5
25836,49577,5
25832,49584,5
25845,49583,5
25833,49590,4
25845,49577,5
25842,49580,5
25841,49579,5
25842,49581,5
25841,49600,4
25839,49578,5
25830,49585,5
25831,49579,5
25839,49577,4
25836,49578,5
25834,49578,5
25837,49572,11
25837,49575,3
25840,49581,5
25838,49580,5
25829,49577,5
25832,49584,5
25835,49581,4
25842,49575,5
25836,49583,5
25843,49571,5
25840,49581,5
25843,49581,4
25840,49585,5
25837,49581,5
25839,49583,5
25837,49587,5
25845,49584,4
25836,49583,5
25842,49579,5
25838,49584,5
25838,49585,5
25841,49573,4
25834,49588,5
25839,49579,5
25830,49571,6
25839,49583,3
25840,49579,5
25842,49583,5
25832,49568,5
25830,49574,5
25834,49570,4
25837,49567,5
25840,49568,5
25830,49566,5
25839,49576,5
25839,49575,4
25838,49578,5
25842,49583,5
25836,49584,5
25846,49593,5
25834,49582,4
25841,49583,5
25837,49588,5
25836,49586,5
25844,49588,4
25834,49581,5
25840,49586,4
25835,49576,5
25836,49587,5
25844,49579,4
25837,49584,5
25838,49578,5
25846,49581,5
25840,49584,5
25842,49584,4
25845,49583,5
25844,49573,5
25841,49580,5
25836,49583,5
25835,49582,4
25845,49588,5
25837,49590,5
25843,49590,5
25843,49592,5
25846,49597,4
25835,49590,5
25844,49591,5
25842,49589,5
25846,49585,4
25844,49588,4
25850,49596,6
25849,49585,4
25850,49590,5
25837,49589,4
25838,49593,5
25843,49590,5
25840,49591,5
25843,49595,5
25855,49599,4
25845,49586,5
25849,49593,5
25834,49588,5
25845,49587,5
25840,49590,4
25849,49592,5
25847,49588,5
25848,49597,5
25846,49592,5
25856,49587,4
25845,49593,5
25847,49584,5
25849,49590,5
25840,49595,5
25842,49590,4
25849,49596,5
25846,49582,6
25846,49599,4
25845,49593,4
25847,49598,5
25853,49595,5
25854,49599,5
25848,49599,5
25843,49599,4
25846,49591,5
25848,49596,5
25848,49589,5
25851,49598,5
25850,49590,4
25846,49606,5
25849,49601,5
25846,49594,5
25850,49592,5
25846,49585,4
25847,49597,5
25855,49592,5
25854,49589,5
25851,49588,5
25846,49585,4
25842,49589,5
25849,49595,5
25848,49588,5
25845,49590,4
25844,49592,4
25844,49591,5
25839,49582,5
25848,49584,5
25844,49590,4
25848,49584,5
25844,49590,5
25841,49586,5
25843,49584,5
25842,49587,4
25841,49582,5
25836,49583,5
25832,49579,5
25839,49580,5
25838,49577,4
25841,49584,5
25848,49567,5
25837,49566,5
25838,49575,5
25835,49576,5
25838,49573,4
25833,49568,5
25829,49572,5
25841,49583,4
25840,49575,4
25845,49576,5
25840,49573,5
25837,49583,5
25843,49588,4
25840,49587,5
25849,49594,5
25845,49581,5
25849,49589,5
25847,49586,4
25845,49584,5
25851,49579,5
25850,49588,5
25842,49591,5
25851,49587,4
25843,49597,5
25847,49595,5
25847,49587,5
25860,49602,5
25850,49594,4
25855,49595,6
25856,49598,4
25849,49593,5
25856,49594,5
25848,49599,4
25847,49601,5
25855,49595,5
25844,49603,5
25857,49604,4
25857,49599,5
25854,49595,5
25854,49593,5
25853,49605,5
25844,49597,4
25853,49601,5
25846,49601,5
25851,49593,5
25853,49601,5
25854,49605,4
25860,49600,5
25850,49599,5
25862,49603,5
25851,49605,5
25854,49609,4
25858,49600,5
25856,49607,5
25850,49614,5
25850,49612,5
25846,49604,4
25852,49603,5
25853,49611,5
25852,49614,5
25850,49605,4
25859,49617,5
25860,49615,5
25859,49602,5
25849,49606,5
25850,49600,4
25851,49598,5
25860,49605,5
25850,49596,5
25851,49600,5
25847,49598,4
25851,49598,5
25854,49600,5
25846,49603,5
25851,49595,5
25844,49608,4
25849,49600,5
25847,49595,5
25850,49605,5
25847,49596,5
25852,49604,4
25850,49598,5
25845,49604,5
25853,49599,5
25857,49598,4
25841,49587,4
25845,49585,5
25850,49586,5
25849,49585,5
25850,49584,4
25848,49589,5
25852,49581,5
25844,49584,5
25845,49588,5
25846,49581,4
25843,49577,6
25847,49581,4
25845,49582,5
25838,49581,5
25847,49586,6
25844,49576,3
25846,49571,5
25846,49580,5
25842,49574,5
25845,49576,4
25837,49577,5
25844,49573,5
25845,49581,5
25845,49586,5
25847,49579,4
25845,49571,5
25841,49576,5
25842,49575,5
25845,49575,4
25844,49577,5
25850,49583,5
25846,49583,5
25843,49582,5
25849,49574,4
25853,49580,5
25849,49580,6
25846,49571,4
25841,49576,5
25845,49579,4
25841,49569,5
25844,49577,5
25846,49573,5
25849,49579,5
25841,49576,4
25841,49577,5
25842,49574,5
25837,49569,5
25847,49573,5
25839,49573,4
25838,49572,5
25844,49570,5
25842,49569,5
25837,49570,4
25832,49572,5
25840,49569,5
25836,49567,5
25850,49570,5
25826,49569,4
25840,49565,5
25837,49563,5
25839,49568,6
25836,49572,4
25839,49565,4
25842,49563,5
25834,49566,5
25834,49568,5
25840,49565,5
25830,49563,4
25835,49568,5
25841,49564,5
25841,49566,5
25839,49563,5
25831,49556,4
25847,49573,5
25842,49566,5
25839,49572,5
25843,49568,4
25837,49578,4
25843,49564,5
25840,49568,5
25841,49575,5
25843,49575,5
25845,49576,4
25833,49571,5
25837,49568,5
25839,49561,6
25842,49576,3
25834,49567,5
25843,49573,5
25836,49567,5
25836,49575,5
25832,49568,4
25834,49571,5
25845,49567,5
25842,49569,5
25846,49574,5
25844,49578,4
25845,49576,5
25850,49583,5
25848,49580,5
25843,49587,4
25846,49585,4
25862,49593,5
25849,49582,5
25849,49581,5
25857,49587,4
25848,49587,6
25851,49584,4
25848,49586,5
25850,49602,5
25855,49607,6
25855,49601,3
25869,49604,5
25855,49592,5
25860,49610,5
25863,49601,4
25857,49610,5
25856,49604,5
25869,49610,5
25865,49615,5
25859,49620,4
25854,49618,5
25871,49618,5
25867,49627,5
25862,49622,5
25864,49625,4
25868,49628,5
25861,49625,5
25870,49625,5
25870,49619,4
25870,49629,5
25871,49638,6
25871,49638,4
25874,49643,5
25867,49640,4
25866,49639,5
25878,49634,5
25877,49647,5
25875,49646,5
25881,49647,4
25867,49649,5
25885,49653,5
25877,49652,5
25879,49658,5
25884,49652,4
25875,49648,5
25874,49655,5
25880,49657,5
25884,49654,5
25879,49661,4
25881,49657,5
25890,49659,5
25887,49657,5
25884,49662,4
25889,49670,4
25889,49662,5
25887,49659,6
25887,49659,4
25888,49663,4
25889,49661,5
25882,49674,5
25895,49692,5
25898,49680,5
25896,49682,4
25897,49680,5
25897,49682,5
25886,49674,5
25896,49672,5
25887,49679,4
25901,49682,5
25891,49668,5
25883,49673,5
25890,49661,5
25883,49674,4
25889,49668,5
25888,49678,5
25897,49686,5
25891,49678,5
25893,49679,4
25899,49680,5
25896,49684,5
25890,49679,6
25897,49681,3
25892,49673,5
25900,49679,5
25896,49671,5
25892,49677,5
25887,49678,4
25898,49682,5
25899,49683,5
25899,49684,5
25899,49687,5
25893,49681,4
25897,49684,5
25899,49691,9
25906,49687,1
25892,49693,5
25898,49709,4
25900,49696,5
25905,49695,5
25901,49689,5
25904,49686,5
25902,49694,5
25889,49685,4
25895,49683,5
25902,49683,5
25903,49687,4
25909,49682,5
25896,49692,5
25902,49685,5
25891,49691,5
25896,49686,4
25898,49684,5
25903,49692,5
25900,49695,5
25898,49688,5
25901,49694,4
25904,49693,5
25906,49690,5
25903,49692,5
25901,49693,5
25903,49700,4
25900,49691,5
25902,49698,5
25900,49700,5
25896,49690,5
25901,49696,4
25902,49700,6
25896,49698,4
25900,49694,5
25899,49699,4
25899,49699,4
25895,49686,5
25895,49688,5
25899,49680,5
25894,49687,4
25892,49680,5
25900,49685,5
25894,49689,5
25887,49680,5
25898,49690,4
25893,49689,5
25903,49699,5
25905,49700,5
25900,49695,5
25902,49692,4
25901,49684,5
25895,49680,5
25894,49676,5
25897,49679,5
25887,49688,4
25898,49682,5
25891,49684,6
25900,49678,4
25900,49680,4
25896,49684,4
25904,49686,5
25895,49683,5
25902,49682,5
25899,49678,4
25898,49684,5
25891,49674,5
25893,49677,5
25894,49676,5
25897,49675,4
25892,49676,5
25892,49678,5
25898,49680,5
25899,49695,5
25896,49688,4
25894,49682,5
25907,49682,5
25899,49686,5
25907,49698,5
25902,49706,4
25904,49693,5
25901,49711,5
25914,49703,5
25915,49704,5
25909,49701,4
25911,49717,5
25908,49712,5
25911,49708,5
25913,49712,4
25920,49705,5
25903,49708,5
25911,49706,5
25908,49714,5
25908,49709,4
25907,49708,5
25910,49707,5
25906,49707,5
25914,49707,5
25906,49708,4
25913,49705,5
25915,49709,5
25920,49715,5
25917,49711,5
25910,49710,5
25915,49715,4
25916,49715,5
25908,49714,5
25910,49730,5
25922,49725,4
25921,49726,5
25923,49731,5
25924,49737,5
25917,49742,4
25920,49740,4
25925,49743,5
25925,49737,5
25922,49730,5
25915,49738,4
25929,49731,5
25914,49735,5
25933,49734,5
25926,49739,5
25928,49744,4
25932,49751,5
25933,49753,5
25930,49753,5
25929,49765,5
25939,49764,4
25938,49766,6
25932,49765,4
25931,49756,5
25930,49759,5
25927,49766,4
25923,49760,5
25920,49748,5
25932,49744,5
25925,49761,4
25931,49751,4
25939,49758,5
25930,49755,5
25932,49751,5
25924,49747,4
25923,49742,5
25922,49743,5
25932,49746,5
25923,49747,5
25924,49751,4
25928,49749,5
25931,49746,5
25921,49751,5
25932,49754,5
25923,49752,4
25933,49757,5
25939,49766,5
25932,49758,5
25929,49759,5
25941,49762,4
25932,49769,5
25939,49777,5
25939,49776,5
25944,49783,4
25947,49779,4
25940,49785,5
25940,49791,5
25940,49782,5
25935,49778,4
25946,49780,5
25957,49778,5
25933,49779,5
25939,49787,5
25949,49788,5
25944,49776,4
25943,49794,5
25951,49789,5
25944,49803,6
25953,49798,3
25951,49787,5
25950,49800,5
25949,49797,5
25955,49792,5
25955,49792,4
25946,49793,5
25939,49791,5
25950,49789,5
25942,49788,5
25947,49781,4
25951,49801,5
25948,49783,5
25942,49792,5
25950,49786,4
25946,49790,5
25947,49789,5
25942,49783,5
25947,49789,5
25942,49781,4
25949,49788,6
25949,49790,4
25948,49777,5
25951,49788,5
25941,49788,6
25938,49774,3
25940,49774,5
25939,49771,5
25941,49775,5
25934,49776,4
25941,49772,5
25938,49761,5
25936,49769,5
25940,49762,5
25936,49764,4
25933,49766,5
25940,49759,5
25942,49755,5
25932,49765,4
25933,49763,4
25933,49751,5
25926,49757,5
25932,49751,5
25930,49759,4
25924,49738,5
25919,49736,6
25924,49740,4
25919,49728,5
25917,49720,4
25919,49715,5
25916,49716,5
25923,49710,5
25906,49724,5
25917,49712,4
25915,49727,5
25920,49711,5
25914,49721,5
25912,49724,5
25911,49717,4
25914,49721,5
25917,49716,5
25913,49710,5
25912,49702,5
25916,49713,4
25903,49699,5
25899,49700,5
25897,49695,5
25894,49694,4
25902,49691,5
25904,49691,5
25903,49696,6
25910,49698,4
25894,49694,4
25908,49698,5
25904,49703,5
25903,49698,5
25908,49705,5
25900,49699,4
25906,49692,5
25908,49690,5
25905,49689,5
25898,49709,5
25900,49695,4
25902,49698,5
25906,49700,5
25908,49704,5
25902,49703,5
25902,49704,4
25911,49710,5
25903,49705,5
25910,49697,5
25906,49702,5
25909,49708,4
25910,49722,5
25905,49714,5
25915,49710,6
25913,49716,3
25911,49717,5
25923,49723,5
25915,49740,5
25919,49728,5
25931,49746,4
25920,49738,5
25920,49747,5
25928,49747,5
25921,49744,5
25933,49753,4
25930,49769,5
25935,49761,5
25937,49770,5
25925,49767,5
25939,49784,4
25943,49782,5
25948,49789,5
25947,49797,5
25953,49787,4
25948,49790,5
25944,49790,4
25951,49802,5
25953,49808,5
25956,49810,6
25960,49819,3
25960,49824,5
25961,49820,5
25957,49828,5
25963,49834,4
25967,49835,5
25971,49850,5
25968,49841,5
25968,49842,5
25964,49848,4
25968,49854,5
25970,49850,5
25974,49843,5
25969,49836,5
25978,49839,4
25961,49840,5
25966,49850,5
25973,49848,5
25971,49840,4
25964,49844,4
25968,49834,6
25969,49835,4
25959,49836,5
25953,49838,4
25956,49824,5
25959,49831,5
25957,49823,5
25962,49834,5
25959,49836,4
25964,49836,5
25961,49841,5
25965,49833,5
25959,49835,5
25967,49839,4
25966,49840,5
25966,49835,5
25952,49841,5
25962,49832,5
25965,49847,4
25968,49843,5
25968,49846,5
25975,49852,5
25969,49855,5
25964,49843,4
25968,49839,5
25968,49849,6
25967,49847,4
25962,49847,4
25960,49842,5
25959,49844,5
25962,49842,5
25966,49849,5
25966,49858,4
25974,49862,5
25971,49855,5
25975,49859,5
25961,49855,5
25960,49851,4
25965,49859,5
25964,49852,5
25971,49855,5
25966,49850,5
25961,49853,4
25963,49855,5
25965,49856,5
25966,49854,5
25965,49851,5
25962,49852,4
25954,49854,5
25956,49847,5
25965,49847,6
25964,49850,3
25963,49848,4
25960,49842,5
25963,49835,5
25954,49845,5
25958,49852,4
25963,49839,5
25962,49842,5
25965,49841,5
25964,49852,5
25962,49849,4
25964,49847,5
25957,49853,5
25960,49839,5
25959,49839,5
25963,49842,4
25965,49840,5
25960,49840,5
25962,49842,5
25960,49841,5
25957,49843,5
25960,49842,4
25958,49844,5
25959,49847,5
25966,49848,4
25965,49858,4
25962,49847,5
25954,49838,5
25960,49839,5
25960,49835,4
25956,49840,5
25958,49837,5
25955,49835,5
25944,49820,5
25952,49825,4
25944,49815,5
25947,49813,5
25948,49818,5
25939,49823,5
25943,49813,4
25944,49821,5
25943,49820,5
25950,49817,5
25949,49813,5
25947,49815,4
25948,49816,6
25942,49813,4
25944,49811,5
25940,49806,5
25947,49825,4
25944,49810,7
25949,49809,3
25945,49811,5
25946,49815,4
25939,49816,5
25951,49810,5
25941,49811,5
25940,49808,5
25940,49810,4
25944,49816,5
25945,49817,5
25949,49816,5
25942,49817,5
25936,49809,4
25939,49809,5
25942,49814,5
25939,49819,5
25939,49810,5
25956,49813,4
25945,49805,5
25941,49814,6
25939,49817,4
25946,49815,5
25947,49816,4
25953,49810,5
25943,49815,5
25940,49820,5
25946,49809,4
25945,49811,4
25941,49811,5
25939,49821,5
25944,49810,5
25946,49820,4
25943,49816,5
25947,49817,5
25952,49824,5
25940,49811,5
25944,49815,4
25947,49818,5
25950,49817,5
25951,49823,5
25944,49816,5
25950,49822,4
25950,49827,5
25951,49821,5
25943,49821,5
25952,49817,5
25950,49807,4
25936,49806,5
25939,49814,5
25938,49809,5
25936,49805,4
25939,49817,4
25943,49810,5
25944,49819,5
25939,49817,5
25947,49820,4
25943,49814,5
25948,49814,5
25948,49810,5
25941,49808,5
25940,49807,4
25951,49801,5
25934,49801,5
25940,49804,5
25942,49792,5
25936,49803,5
25941,49802,4
25942,49799,5
25940,49804,5
25943,49799,5
25947,49802,4
25939,49803,5
25943,49795,5
25936,49804,5
25933,49793,5
25937,49807,4
25937,49803,5
25932,49804,5
25935,49800,5
25943,49812,4
25951,49812,5
25949,49821,5
25945,49817,5
25950,49828,5
25949,49824,4
25946,49823,5
25948,49818,5
25952,49820,5
25953,49829,5
25948,49828,4
25946,49831,6
25949,49825,4
25947,49836,5
25948,49830,5
25945,49837,4
25950,49827,5
25955,49832,5
25957,49831,5
25948,49830,5
25956,49834,4
25953,49831,5
25949,49828,5
25959,49833,5
25954,49833,4
25951,49831,5
25954,49832,5
25952,49839,5
25957,49841,5
25949,49838,4
25952,49836,5
25949,49836,5
25951,49837,5
25946,49837,4
25952,49827,4
25954,49839,5
25952,49835,5
25954,49831,5
25947,49826,5
25952,49837,4
25947,49822,5
25946,49836,5
25951,49826,5
25965,49831,5
25957,49822,4
25948,49829,5
25954,49825,5
25943,49828,5
25951,49826,4
25948,49827,4
25945,49828,5
25938,49828,5
25941,49822,5
25942,49816,5
25937,49816,4
25943,49828,5
25942,49826,5
25947,49820,6
25945,49826,3
25949,49829,5
25941,49822,5
25952,49828,5
25945,49839,5
25943,49827,4
25948,49831,5
25945,49812,5
25945,49819,5
25947,49820,5
25938,49814,4
25939,49808,5
25942,49800,5
25939,49815,5
25945,49810,4
25937,49809,4
25938,49808,5
25935,49803,5
25940,49806,5
25938,49803,4
25938,49803,6
25941,49800,4
25938,49804,5
25942,49801,5
25941,49802,6
25949,49803,3
25936,49792,5
25931,49792,5
25938,49790,5
25937,49800,4
25940,49793,5
25935,49792,5
25940,49804,5
25937,49806,5
25940,49802,4
25952,49816,5
25946,49803,5
25946,49804,5
25940,49804,5
25945,49806,4
25945,49802,5
25942,49814,5
25945,49813,5
25946,49817,4
25942,49808,5
25939,49812,6
25944,49798,4
25938,49801,5
25947,49801,4
25938,49807,5
25940,49808,5
25946,49818,5
25945,49810,5
25951,49804,4
25943,49813,5
25939,49811,5
25942,49795,5
25939,49812,5
25944,49809,4
25953,49821,5
25948,49821,5
25948,49820,5
25953,49821,5
25947,49818,4
25943,49812,5
25948,49824,5
25950,49824,5
25955,49818,4
25952,49823,5
25958,49823,5
25949,49820,6
25944,49816,4
25956,49825,4
25952,49824,5
25952,49821,5
25942,49816,5
25948,49812,5
25947,49825,4
25950,49821,5
25949,49822,5
25953,49815,5
25949,49823,5
25951,49814,4
25947,49805,5
25948,49818,5
25953,49809,5
25944,49810,5
25950,49806,4
25945,49810,5
25947,49820,5
25950,49816,5
25942,49815,5
25951,49813,4
25952,49819,5
25949,49818,5
25955,49808,6
25944,49817,3
25945,49816,5
25941,49810,5
25937,49810,5
25952,49803,5
25940,49804,4
25939,49799,5
25940,49792,5
25936,49798,5
25944,49803,5
25944,49800,4
25943,49801,5
25942,49800,5
25942,49806,5
25941,49803,5
25939,49808,4
25938,49805,5
25945,49805,5
25938,49810,5
25942,49803,4
25934,49796,5
25945,49803,4
25949,49805,5
25940,49803,5
25942,49800,4
25945,49805,5
25950,49817,5
25944,49806,5
25939,49811,5
25945,49811,4
25943,49806,5
25942,49810,5
25946,49809,5
25944,49819,5
25946,49818,4
25944,49812,5
25947,49811,5
25951,49815,5
25949,49818,5
25951,49804,4
25944,49815,5
25940,49808,5
25947,49810,5
25940,49808,5
25947,49810,4
25949,49802,6
25950,49820,4
25947,49816,5
25955,49820,4
25954,49823,5
25955,49822,5
25957,49827,5
25952,49821,5
25946,49816,4
25954,49824,5
25951,49816,5
25953,49819,5
25943,49808,5
25955,49817,4
25945,49817,5
25956,49815,5
25961,49834,5
25953,49822,5
25959,49834,4
25957,49838,5
25953,49839,5
25961,49831,5
25958,49840,5
25954,49842,4
25956,49837,5
25963,49834,6
25964,49839,4
25958,49843,4
25970,49839,4
25970,49851,5
25961,49852,5
25964,49854,5
25963,49848,4
25965,49842,5
25964,49840,5
25956,49843,5
25970,49840,5
25964,49842,4
25972,49847,5
25967,49853,5
25971,49854,5
25961,49854,5
25967,49858,4
25965,49855,5
25972,49854,5
25969,49850,5
25967,49848,5
25968,49858,4
25967,49858,5
25971,49864,5
25977,49867,6
25969,49859,4
25970,49874,4
25969,49859,5
25962,49842,5
25967,49844,5
25964,49845,4
25959,49836,5
25959,49838,5
25965,49845,5
25967,49842,5
25957,49844,4
25969,49857,5
25963,49850,5
25963,49850,5
25965,49858,5
25964,49852,4
25964,49852,5
25969,49844,5
25974,49848,5
25966,49850,5
25959,49847,5
25970,49841,4
25955,49845,5
25965,49837,5
25958,49839,5
25975,49846,4
25967,49849,5
25971,49853,5
25968,49851,5
25970,49849,4
25964,49854,5
25961,49857,5
25972,49862,5
25976,49858,5
25961,49859,4
25960,49860,5
25969,49861,5
25975,49856,5
25968,49855,5
25966,49864,4
25971,49860,5
25971,49852,5
25969,49853,5
25964,49853,5
25974,49856,4
25961,49840,6
25966,49846,4
25966,49847,5
25958,49843,5
25968,49845,4
25959,49839,5
25956,49833,5
25965,49838,5
25968,49845,4
25956,49836,4
25957,49834,5
25957,49837,5
25961,49842,5
25958,49834,4
25960,49831,5
25963,49837,5
25961,49834,5
25957,49834,5
25959,49849,4
25960,49843,5
25953,49847,5
25963,49844,5
25967,49847,5
25963,49841,4
25966,49845,5
25961,49851,6
25973,49847,4
25964,49846,5
25956,49843,4
25965,49845,5
25971,49841,5
25957,49852,5
25960,49850,4
25971,49850,4
25965,49856,5
25962,49856,5
25969,49857,5
25976,49861,4
25977,49865,5
25970,49864,5
25976,49860,5
25978,49865,5
25979,49859,9
25982,49867,0
25978,49867,5
25973,49834,5
25973,49865,5
25973,49858,4
25979,49861,5
25973,49854,5
25973,49864,5
25981,49874,5
25982,49862,4
25972,49851,5
25972,49852,5
25974,49858,5
25971,49851,5
25974,49854,4
25970,49852,5
25976,49860,5
25969,49858,5
25971,49860,4
25971,49866,5
25981,49873,5
25973,49865,5
25974,49864,5
25979,49871,4
25976,49868,5
25977,49866,5
25981,49865,5
25979,49868,5
25974,49857,5
25972,49866,4
25976,49866,5
25981,49866,5
25969,49868,5
25977,49883,4
25970,49875,5
25980,49880,5
25984,49886,5
25989,49892,5
25978,49887,4
25982,49878,5
25976,49881,5
25981,49880,5
25979,49866,4
25981,49870,5
25980,49874,5
25969,49868,5
25978,49879,5
25980,49879,4
25981,49884,5
25979,49890,5
25980,49888,5
25977,49887,5
25986,49892,4
25982,49887,6
25979,49885,4
25983,49882,5
25984,49880,5
25979,49881,4
25990,49894,5
25980,49887,5
25975,49885,5
25986,49882,5
25981,49889,4
25976,49893,5
25978,49889,5
25981,49887,5
25979,49880,4
25974,49878,4
25984,49881,5
25988,49876,5
25986,49878,5
25986,49886,4
25982,49884,5
25984,49881,5
25982,49876,6
25983,49874,4
25980,49867,4
25980,49876,5
25976,49876,5
25977,49878,5
25983,49877,5
25973,49877,4
25969,49867,5
25969,49873,5
25970,49873,5
25979,49873,5
25978,49874,4
25982,49870,5
25977,49878,5
25975,49868,5
25967,49868,4
25968,49863,4
25965,49857,5
25975,49849,5
25959,49854,5
25961,49854,5
25966,49844,4
25966,49845,5
25957,49840,5
25961,49846,6
25959,49854,3
25967,49847,5
25973,49851,5
25955,49846,5
25955,49845,5
25966,49847,4
25958,49846,5
25964,49845,5
25963,49844,5
25967,49843,5
25958,49856,4
25968,49852,5
25959,49851,5
25961,49853,5
25963,49851,5
25969,49854,4
25968,49854,5
25972,49856,5
25968,49857,5
25962,49847,4
25968,49855,6
25956,49860,4
25973,49861,5
25965,49860,5
25967,49855,6
25967,49851,3
25963,49850,5
25976,49857,5
25967,49848,5
25964,49840,4
25957,49852,5
25958,49847,5
25957,49849,5
25961,49848,5
25958,49839,4
25952,49846,5
25957,49842,5
25964,49848,5
25957,49852,5
25960,49836,4
25962,49835,5
25958,49841,5
25958,49851,5
25963,49846,4
25964,49850,5
25962,49844,6
25962,49852,4
25965,49854,5
25959,49852,4
25957,49851,5
25959,49863,5
25970,49857,5
25969,49854,5
25958,49853,4
25968,49857,5
25959,49844,5
25958,49849,5
25960,49847,5
25964,49849,4
25959,49848,5
25958,49843,5
25965,49845,5
25959,49855,5
25959,49855,4
25962,49843,5
25961,49854,5
25963,49846,5
25954,49839,4
25956,49839,4
25965,49844,5
25961,49856,6
25963,49844,4
25956,49851,4
25965,49848,5
25953,49849,5
25954,49840,5
25964,49842,5
25959,49840,4
25956,49830,5
25952,49835,5
25956,49833,5
25958,49834,5
25951,49835,4
25953,49831,5
25946,49827,5
25951,49819,5
25952,49814,5
25940,49817,4
25951,49814,5
25952,49812,5
25946,49814,5
25950,49821,5
25941,49818,4
25951,49817,5
25949,49820,5
25946,49824,6
25943,49821,3
25943,49821,5
25947,49827,5
25953,49825,5
25939,49825,5
25951,49821,4
25945,49822,5
25946,49826,5
25953,49841,5
25945,49835,5
25955,49832,4
25951,49834,5
25950,49833,5
25953,49839,5
25952,49830,5
25953,49825,4
25947,49826,5
25943,49834,5
25962,49833,5
25950,49830,5
25951,49823,5
25954,49827,4
25945,49823,5
25958,49830,5
25954,49827,4
25944,49827,5
25943,49827,5
25941,49832,5
25948,49819,5
25949,49828,4
25946,49822,5
25951,49823,5
25943,49829,5
25950,49820,5
25949,49823,4
25940,49832,5
25945,49822,5
25952,49822,5
25942,49822,5
25952,49828,4
25954,49824,5
25954,49831,5
25946,49831,5
25952,49827,5
25960,49813,4
25946,49813,6
25944,49819,4
25940,49825,5
25943,49812,4
25940,49819,5
25937,49818,5
25947,49820,5
25949,49815,5
25950,49818,4
25946,49818,5
25951,49819,5
25939,49820,5
25951,49823,5
25946,49827,4
25951,49822,5
25952,49831,5
25950,49822,5
25956,49826,5
25946,49825,4
25942,49815,5
25944,49807,5
25939,49803,5
25939,49804,5
25946,49793,4
25930,49800,5
25941,49794,6
25940,49784,4
25935,49788,4
25938,49789,4
25935,49791,5
25937,49796,5
25942,49792,5
25942,49794,4
25941,49789,5
25942,49798,5
25935,49790,5
25933,49794,5
25940,49797,4
25942,49800,5
25938,49801,5
25937,49806,5
25945,49799,5
25940,49802,4
25945,49803,5
25947,49813,5
25946,49814,5
25939,49806,5
25949,49806,4
25942,49808,5
25943,49811,5
25944,49806,6
25939,49818,4
25951,49816,4
25942,49820,5
25941,49823,5
25946,49817,5
25942,49813,4
25947,49815,5
25947,49814,5
25941,49807,5
25947,49815,5
25940,49814,4
25941,49805,5
25945,49805,5
25941,49810,5
25944,49799,5
25940,49801,4
25938,49809,5
25951,49809,5
25946,49808,5
25940,49799,5
25945,49806,5
25941,49801,4
25945,49813,5
25943,49807,5
25951,49814,5
25947,49814,4
25945,49818,5
25953,49812,5
25953,49819,5
25943,49820,4
25952,49822,5
25955,49820,5
25949,49825,5
25945,49814,5
25955,49815,4
25947,49819,5
25952,49816,5
25953,49820,5
25946,49809,5
25955,49822,4
25951,49818,5
25944,49820,5
25943,49814,5
25942,49818,5
25949,49816,4
25943,49822,6
25944,49810,4
25944,49812,5
25941,49813,5
25944,49812,4
25948,49822,5
25945,49824,5
25958,49824,5
25958,49830,4
25953,49834,4
25962,49827,5
25949,49831,5
25963,49828,5
25956,49829,4
25957,49837,5
25954,49839,5
25957,49832,5
25956,49823,5
25955,49822,4
25946,49824,5
25944,49818,5
25955,49816,5
25948,49814,5
25945,49815,4
25955,49817,5
25947,49810,6
25949,49818,4
25956,49820,5
25957,49818,4
25952,49817,5
25954,49813,5
25945,49819,5
25954,49819,4
25951,49820,4
25952,49810,5
25954,49818,5
25955,49822,5
25955,49811,4
25945,49816,5
25954,49818,5
25949,49819,5
25959,49829,5
25949,49826,4
25953,49824,5
25957,49823,5
25961,49820,5
25954,49824,5
25947,49825,4
25946,49823,5
25952,49821,5
25956,49827,5
25963,49837,5
25956,49824,4
25949,49832,5
25958,49837,5
25952,49827,5
25965,49829,5
25958,49832,4
25962,49835,5
25956,49831,5
25960,49836,5
25952,49829,4
25957,49827,5
25960,49833,5
25951,49822,5
25954,49831,5
25945,49830,4
25948,49827,5
25958,49825,5
25957,49832,5
25960,49831,5
25962,49842,5
25962,49835,4
25954,49831,5
25962,49835,5
25959,49839,5
25959,49830,4
25948,49831,5
25957,49827,5
25953,49824,5
25956,49838,7
25964,49839,2
25953,49829,5
25962,49828,5
25961,49828,5
25957,49830,4
25952,49837,4
25959,49835,5
25958,49836,5
25959,49843,5
25959,49835,4
25965,49833,5
25955,49833,6
25962,49842,4
25959,49833,5
25961,49844,4
25947,49834,7
25955,49836,3
25958,49829,5
25950,49827,5
25961,49826,4
25957,49836,5
25959,49843,5
25955,49831,5
25957,49837,5
25963,49836,4
25960,49845,5
25958,49837,5
25957,49839,5
25963,49838,4
25954,49837,4
25963,49845,5
25964,49834,5
25964,49842,5
25963,49841,4
25960,49838,5
25956,49833,5
25956,49830,6
25962,49832,4
25956,49826,4
25951,49828,5
25953,49827,5
25950,49825,5
25956,49818,5
25951,49816,4
25957,49825,5
25955,49822,5
25953,49824,5
25959,49818,5
25960,49825,4
25947,49829,5
25957,49830,5
25953,49827,5
25953,49820,5
25954,49821,4
25956,49824,5
25957,49821,5
25956,49824,5
25963,49828,5
25960,49820,4
25957,49832,5
25960,49834,5
25957,49833,6
25963,49834,3
25962,49839,5
25956,49840,5
25961,49839,5
25965,49839,5
25965,49836,4
25966,49840,5
25962,49837,5
25959,49839,5
25960,49843,5
25967,49849,4
25963,49835,5
25962,49843,5
25959,49837,5
25951,49831,5
25958,49836,4
25957,49835,5
25964,49830,5
25960,49834,5
25961,49827,4
25962,49830,6
25962,49830,4
25958,49839,5
25955,49834,5
25962,49837,6
25956,49834,3
25961,49844,5
25959,49836,5
25968,49843,5
25965,49838,4
25966,49840,5
25968,49849,5
25964,49839,5
25964,49844,5
25959,49835,4
25956,49845,5
25964,49845,5
25959,49848,5
25960,49846,5
25959,49852,4
25962,49853,5
25965,49857,5
25969,49852,5
25961,49855,4
25969,49853,4
25968,49850,6
25962,49850,4
25969,49857,5
25969,49844,4
25965,49850,5
25971,49848,5
25965,49851,5
25963,49852,5
25970,49852,4
25972,49851,5
25961,49861,5
25969,49846,5
25961,49847,5
25969,49844,4
25971,49850,5
25974,49855,5
25972,49852,5
25972,49852,5
25969,49864,4
25970,49850,5
25963,49866,5
25972,49855,5
25976,49848,5
25965,49867,4
25975,49855,5
25974,49863,6
25978,49853,4
25970,49855,4
25974,49852,5
25977,49854,5
25968,49840,5
25957,49847,5
25963,49850,4
25961,49846,5
25958,49846,5
25967,49847,5
25971,49850,5
25964,49850,4
25970,49846,5
25974,49863,5
25960,49856,5
25970,49860,5
25970,49850,4
25968,49849,5
25963,49844,5
25963,49848,5
25971,49847,5
25963,49844,4
25968,49849,5
25959,49838,5
25970,49846,6
25970,49837,3
25972,49839,4
25965,49849,5
25966,49844,5
25966,49850,5
25968,49846,4
25969,49850,5
25963,49842,5
25969,49842,5
25967,49852,5
25967,49845,4
25975,49844,5
25966,49843,5
25971,49846,5
25965,49833,5
25958,49840,4
25963,49838,5
25959,49828,5
25963,49830,5
25966,49842,5
25955,49836,5
25963,49840,4
25965,49839,5
25964,49836,5
25965,49834,4
25959,49831,4
25955,49834,5
25961,49839,5
25955,49843,5
25958,49823,4
25960,49830,5
25957,49828,5
25955,49836,5
25965,49831,5
25961,49841,4
25963,49841,5
25966,49846,5
25966,49838,5
25956,49842,5
25971,49851,4
25960,49856,5
25967,49848,5
25969,49842,5
25965,49849,5
25968,49843,4
25966,49847,6
25963,49854,4
25966,49843,5
25971,49853,5
25971,49846,4
25961,49851,5
25966,49845,5
25963,49843,5
25956,49840,4
25965,49843,5
25965,49847,5
25956,49839,5
25958,49841,5
25965,49844,4
25963,49846,5
25968,49842,5
25963,49851,5
25963,49849,5
25968,49847,4
25969,49856,5
25963,49850,5
25968,49847,5
25962,49859,5
25973,49852,4
25969,49856,5
25967,49856,6
25975,49859,4
25963,49854,5
25976,49855,4
25967,49852,5
25959,49847,5
25964,49847,5
25965,49839,4
25960,49842,4
25966,49835,5
25957,49834,5
25957,49835,5
25947,49836,4
25958,49834,5
25960,49834,5
25957,49842,5
25954,49839,5
25959,49840,4
25957,49843,5
25954,49845,5
25959,49843,5
25971,49848,5
25969,49846,4
25959,49831,5
25953,49838,5
25962,49843,5
25962,49834,5
25965,49841,4
25972,49850,5
25959,49846,5
25956,49843,5
25962,49840,4
25968,49850,4
25962,49844,5
25967,49850,5
25962,49857,5
25968,49858,4
25969,49850,5
25971,49852,5
25963,49860,5
25972,49861,5
25964,49851,4
25963,49852,5
25968,49860,5
25958,49857,5
25961,49854,5
25963,49861,5
25960,49858,4
25966,49854,5
25968,49856,5
25965,49858,5
25968,49859,4
25967,49854,5
25965,49857,5
25960,49867,5
25975,49858,4
25963,49859,4
25967,49851,5
25973,49861,5
25971,49855,5
25967,49869,4
25968,49865,5
25975,49861,5
25969,49864,5
25973,49873,5
25970,49868,4
25965,49864,5
25972,49858,5
25965,49862,5
25969,49864,5
25973,49858,4
25970,49861,6
25970,49862,4
25974,49863,5
25962,49867,5
25969,49862,4
25969,49855,5
25965,49866,5
25979,49866,5
25975,49857,4
25967,49865,4
25968,49861,5
25973,49862,5
25968,49866,5
25967,49869,4
25965,49863,5
25967,49873,5
25978,49876,5
25979,49878,5
25975,49880,4
25978,49873,5
25977,49882,5
25970,49865,5
25968,49866,5
25974,49854,4
25968,49863,5
25966,49854,6
25971,49862,4
25962,49860,5
25969,49854,4
25973,49859,5
25958,49857,5
25966,49858,5
25960,49848,5
25968,49852,4
25961,49849,5
25966,49853,5
25965,49859,5
25960,49848,4
25960,49859,5
25968,49850,5
25965,49856,5
25965,49858,5
25965,49855,4
25963,49856,5
25973,49860,5
25971,49861,5
25972,49860,5
25973,49860,4
25972,49860,5
25969,49859,5
25968,49866,5
25970,49859,5
25976,49869,4
25963,49867,5
25959,49869,5
25976,49867,5
25966,49865,5
25979,49869,4
25967,49859,5
25966,49865,5
25979,49863,5
25972,49868,4
25973,49864,5
25975,49864,5
25963,49856,5
25970,49861,5
25964,49859,4
25970,49863,5
25966,49862,5
25962,49855,5
25961,49867,5
25970,49862,5
25970,49870,4
25966,49861,5
25973,49863,5
25970,49869,5
25968,49865,4
25969,49873,5
25972,49872,5
25967,49868,5
25974,49873,5
25967,49878,4
25973,49876,5
25975,49867,5
25976,49882,5
25978,49882,4
25988,49873,5
25980,49887,5
25978,49877,5
25977,49886,5
25976,49886,4
25969,49883,5
25975,49879,6
25976,49876,4
25967,49875,5
25971,49872,4
25976,49890,7
25983,49881,3
25971,49890,5
25980,49883,5
25984,49879,4
25981,49895,5
25979,49891,5
25984,49887,5
25988,49895,5
25990,49894,4
25984,49898,5
25984,49898,5
25982,49890,5
25978,49888,4
25975,49877,4
25976,49882,5
25964,49877,5
25976,49879,5
25968,49869,4
25969,49875,5
25979,49873,5
25971,49878,11
25972,49876,3
25974,49880,5
25976,49879,5
25980,49878,5
25977,49881,5
25985,49882,4
25975,49888,5
25980,49888,5
25981,49889,5
25981,49895,5
25979,49895,4
25980,49894,5
25984,49888,5
25984,49889,5
25977,49893,4
25978,49888,4
25979,49892,5
25974,49890,5
25981,49899,5
25993,49903,5
25998,49903,4
25983,49899,5
25986,49904,5
25986,49902,6
25985,49903,3
25987,49913,5
25988,49910,5
25988,49910,5
25986,49909,5
25989,49908,4
25995,49906,5
25992,49906,5
25990,49909,5
25985,49902,5
25989,49906,4
25981,49904,5
25984,49903,5
25982,49896,5
25986,49904,5
25988,49903,4
25981,49909,5
25987,49901,5
25994,49907,5
25980,49905,4
25986,49911,6
25988,49914,4
25984,49916,5
25985,49919,5
25992,49919,6
25996,49922,3
25990,49925,5
25990,49918,5
25992,49913,5
25997,49919,4
25996,49930,5
25996,49923,5
25993,49921,5
25992,49918,5
26003,49916,4
26000,49921,5
25995,49922,5
25986,49927,5
25996,49933,5
26006,49933,4
25997,49934,5
26007,49938,5
25999,49933,5
25995,49937,4
26008,49938,5
26000,49938,6
26004,49944,4
25997,49948,5
26006,49953,4
26006,49950,5
26008,49946,5
26003,49940,5
25995,49940,5
25999,49927,4
25999,49929,5
25995,49921,5
25996,49922,5
25999,49920,5
25993,49921,4
25998,49915,5
25989,49920,5
25989,49924,5
25991,49923,5
25988,49915,4
25980,49911,5
25990,49914,5
25997,49912,5
25983,49901,4
25983,49901,4
25988,49914,5
25993,49904,6
25998,49910,4
25988,49914,4
25997,49915,5
25994,49922,5
26000,49923,5
26004,49924,5
26002,49932,4
26001,49928,5
25998,49923,5
25995,49933,5
26002,49921,5
26001,49933,4
26000,49927,5
26003,49923,5
26000,49925,5
26000,49919,5
26003,49928,4
25992,49919,5
25996,49923,5
25997,49929,5
25995,49921,5
25992,49916,4
25990,49925,5
25996,49923,5
25999,49918,6
25998,49920,3
26009,49924,5
25993,49927,5
26010,49936,5
26000,49938,5
25996,49931,4
26005,49940,5
26011,49938,5
26012,49945,5
26008,49958,5
26010,49946,4
26009,49956,5
26007,49942,5
26004,49952,5
26006,49952,5
26007,49950,4
26017,49955,5
26009,49947,5
26011,49944,5
26011,49946,4
26000,49946,5
26013,49949,4
26012,49944,5
26005,49941,5
26012,49944,4
26010,49941,5
26008,49939,5
26012,49943,5
26013,49949,5
26008,49942,4
26017,49949,5
26013,49952,5
26006,49954,5
26013,49950,5
26013,49960,4
26009,49959,5
26013,49958,5
26014,49955,5
26015,49961,5
26020,49962,4
26010,49960,5
26020,49956,5
26011,49958,5
26012,49950,5
26010,49942,4
26006,49939,6
26007,49939,4
26001,49933,5
26004,49935,4
26011,49934,5
26003,49938,5
26002,49938,5
26003,49922,5
26001,49935,4
26003,49930,5
26008,49936,5
26011,49931,5
26006,49937,5
26008,49943,4
26008,49932,5
26001,49925,5
25995,49922,5
26005,49928,5
26002,49925,4
26005,49924,5
25990,49928,5
26004,49924,5
26001,49928,5
26004,49932,4
25999,49930,5
26007,49938,6
26007,49946,4
26004,49932,4
26005,49941,4
25996,49931,5
25998,49930,5
26010,49939,5
26010,49940,4
26006,49938,5
26007,49939,5
26008,49940,5
26006,49931,5
26010,49937,4
26001,49945,5
26000,49940,5
26003,49942,5
26010,49935,5
26005,49933,4
26008,49936,5
26009,49941,5
26009,49937,5
26003,49945,5
26005,49946,4
26011,49940,5
26015,49943,5
26007,49940,5
26004,49944,4
26003,49942,4
26002,49943,5
26014,49943,5
26015,49943,5
26010,49951,4
26004,49950,5
26010,49944,5
26011,49957,5
26014,49943,5
26005,49953,4
26011,49949,5
26010,49951,5
26004,49958,5
26006,49950,5
26006,49949,4
26010,49947,5
26003,49943,5
26007,49946,5
26011,49935,5
26006,49935,9
26006,49941,5
26003,49938,5
26006,49936,5
26006,49939,8
26006,49939,5
25976,49940,5
25985,49947,5
26003,49948,8
26003,49963,5
26010,49968,5
26010,49954,8
26018,49946,5
26017,49959,5
26019,49957,5
26019,49954,8
25996,49929,5
26003,49937,5
26002,49920,8
26002,49920,5
26003,49949,5
26001,49953,8
25995,49938,5
26000,49909,5
25998,49919,5
26005,49923,8
26024,49925,5
25990,49927,5
25992,49916,8
25997,49925,5
25999,49923,5
26003,49927,5
25998,49921,8
25998,49921,5
26003,49879,5
25997,49907,8
26004,49924,5
25996,49928,5
25987,49925,8
25974,49924,5
25995,49931,5
26007,49927,5
25994,49929,8
25992,49929,5
25992,49918,5
26004,49933,8
26004,49933,5
25994,49916,5
25997,49932,5
26000,49936,8
26002,49928,5
25998,49926,5
25995,49931,8
26005,49939,5
26008,49945,5
26004,49919,8
25997,49925,5
26001,49925,5
26000,49926,5
26000,49926,8
26005,49934,5
26009,49928,5
25989,49928,8
26000,49924,5
26003,49927,5
26004,49972,5
26004,49941,8
26005,49896,5
25994,49929,5
25995,49930,8
25998,49939,5
25998,49939,5
26006,49944,8
26000,49936,5
26004,49929,5
26002,49939,5
26016,49940,8
26010,49939,5
26010,49940,5
26003,49921,8
26003,49937,5
26000,49929,5
26004,49929,5
26002,49923,8
26002,49923,5
25994,49913,5
25993,49918,8
26003,49925,5
26005,49937,5
25994,49926,8
25997,49934,5
26002,49934,5
26001,49933,5
26003,49929,8
25988,49937,5
25994,49934,5
25998,49930,8
25998,49930,5
26018,49932,5
26025,49920,5
26006,49919,8
25971,49906,5
25986,49908,5
25989,49907,8
25993,49910,5
25992,49904,5
25986,49895,8
25994,49908,5
25995,49914,5
25988,49909,5
25988,49900,8
25988,49900,5
25947,49908,5
25971,49902,8
25986,49909,5
25989,49904,5
25988,49907,5
25989,49901,8
25985,49905,5
25997,49913,5
25997,49906,8
25987,49917,5
25982,49891,1
25992,49898,3
25990,49898,5
26002,49911,5
25989,49904,5
25986,49915,4
25985,49913,5
25988,49912,5
25994,49920,5
25993,49914,4
25997,49915,4
25982,49902,5
25981,49909,5
25988,49909,5
25988,49901,5
25991,49908,4
25985,49899,5
25986,49900,5
25982,49910,6
25983,49901,3
25983,49905,5
25985,49910,5
25982,49899,5
25991,49899,5
25995,49901,4
25994,49898,5
25990,49906,5
25993,49905,5
25988,49900,5
25988,49899,4
25990,49905,5
25988,49902,9
25985,49898,1
25991,49905,5
25986,49904,4
25985,49928,5
25982,49904,5
25985,49901,5
25993,49902,4
25983,49908,6
25989,49904,4
25990,49906,5
25997,49906,5
25992,49906,6
25984,49904,3
25993,49909,5
25989,49909,5
25992,49915,5
25993,49911,4
25993,49918,5
25997,49909,5
25986,49909,5
25988,49907,5
25987,49905,4
25983,49911,5
25989,49912,5
25988,49907,5
25991,49911,5
25990,49916,4
25986,49912,5
25986,49918,5
25990,49911,5
25989,49917,4
25996,49912,4
25992,49915,6
25996,49915,4
25986,49907,5
25988,49916,4
25988,49909,5
25990,49904,5
25983,49910,5
25996,49915,5
25997,49928,4
25995,49916,5
25991,49915,5
25993,49923,5
25995,49921,5
25999,49918,4
25993,49922,5
25993,49922,5
25995,49924,5
25998,49929,5
25998,49923,4
25998,49929,5
26001,49921,5
25989,49922,5
26001,49915,4
25993,49910,4
25995,49907,5
25989,49899,6
25992,49899,4
25985,49908,4
25989,49901,5
25987,49902,5
25988,49907,5
25996,49901,5
25994,49903,4
25986,49907,5
25986,49908,5
25996,49902,5
25985,49905,5
25995,49904,4
25980,49910,5
25982,49907,5
25983,49899,5
25985,49899,5
25988,49907,4
25989,49902,5
25988,49903,5
25988,49910,5
25980,49911,5
25981,49904,4
25986,49902,5
25984,49899,5
25984,49904,6
25985,49900,3
25984,49914,5
25986,49901,5
25985,49898,5
25991,49906,5
25987,49904,4
25985,49905,5
25985,49896,5
25985,49901,5
25987,49900,5
25980,49898,4
25982,49893,5
25985,49902,5
25989,49908,5
25994,49906,5
25983,49908,4
25984,49904,5
25979,49895,5
25979,49900,5
25986,49901,5
25984,49903,5
25982,49894,4
25977,49900,5
25980,49901,5
25986,49904,4
25994,49904,4
25988,49908,5
25982,49905,5
25984,49910,5
25991,49901,4
25989,49912,5
25987,49905,5
25989,49912,5
25995,49914,5
25989,49918,4
25991,49914,5
25994,49910,5
25987,49911,5
25986,49921,5
25989,49923,4
25997,49927,5
25995,49925,5
25997,49922,5
26000,49918,5
25985,49918,4
25988,49916,6
25989,49912,4
25996,49922,5
25997,49916,5
25992,49921,4
25999,49915,5
25998,49912,5
25989,49914,5
25995,49919,4
25983,49913,5
25992,49912,5
25983,49916,5
25999,49920,5
25992,49924,4
25993,49924,5
25990,49919,5
25997,49930,5
25986,49923,5
25991,49925,4
25987,49931,5
25997,49932,5
25993,49926,5
26006,49935,5
25995,49926,4
25996,49923,5
25992,49922,6
25989,49916,4
25993,49909,5
25983,49911,4
25983,49912,5
25983,49914,5
25983,49903,5
25981,49907,4
25980,49912,5
25976,49905,5
25991,49908,5
25983,49901,5
25988,49913,4
25987,49920,5
25987,49915,5
25992,49921,5
25989,49923,5
25990,49910,4
25985,49914,5
25992,49915,5
25983,49917,5
25994,49913,5
25990,49925,4
25984,49918,5
25992,49920,5
25998,49921,5
26004,49930,5
25999,49933,4
26000,49930,5
25991,49939,5
25994,49931,5
25999,49934,4
25994,49930,4
26002,49931,5
26001,49924,5
25996,49940,5
25998,49940,4
25996,49932,5
25999,49933,5
26003,49940,5
26005,49935,5
26002,49934,4
25995,49941,5
26001,49937,5
26006,49942,5
26010,49936,5
26009,49938,5
26003,49945,4
25996,49950,5
26008,49945,5
26002,49952,5
26004,49954,4
26010,49963,5
26011,49961,5
26026,49963,5
26015,49964,5
26015,49960,4
26008,49960,5
26009,49966,5
26021,49963,5
26021,49977,4
26019,49977,5
26016,49968,5
26015,49968,5
26014,49967,5
26022,49965,4
26019,49971,5
26013,49976,5
26018,49979,5
26019,49975,5
26018,49972,4
26022,49976,6
26016,49982,4
26024,49988,5
26015,49986,5
26017,49986,4
26018,49983,5
26024,49986,5
26022,49984,5
26017,49985,5
26027,49986,4
26027,49999,5
26026,49995,5
26029,49993,5
26023,49992,4
26025,49985,5
26024,49978,5
26027,49984,5
26027,49975,5
26012,49968,4
26017,49971,5
26023,49984,5
26022,49970,5
26017,49965,5
26010,49978,4
26019,49963,5
26019,49962,5
26013,49973,5
26018,49966,5
26021,49969,4
26020,49971,5
26014,49972,5
26014,49971,5
26007,49960,5
26015,49969,4
26013,49970,5
26019,49964,5
26013,49966,5
26010,49960,4
26021,49957,4
26015,49960,5
26012,49964,5
26021,49966,5
26026,49966,4
26018,49986,4
26021,49977,5
26016,49986,5
26020,49988,6
26020,49975,3
26023,49970,5
26014,49971,5
26016,49976,5
26023,49977,5
26018,49974,4
26017,49980,5
26018,49982,5
26019,49974,5
26013,49971,5
26021,49973,4
26020,49979,5
26020,49979,5
26024,49970,5
26020,49968,4
26025,49978,4
26028,49975,5
26022,49979,5
26019,49981,5
26024,49980,4
26020,49977,6
26009,49979,4
26019,49976,5
26018,49967,5
26023,49971,6
26017,49975,3
26015,49979,5
26013,49976,5
26022,49976,5
26025,49972,4
26019,49969,5
26017,49982,5
26015,49981,5
26015,49974,5
26024,49973,4
26027,49980,5
26025,49964,5
26021,49964,5
26018,49963,5
26018,49968,4
26019,49966,5
26022,49971,5
26018,49972,5
26023,49971,4
26024,49968,5
26014,49973,6
26013,49973,4
26020,49970,5
26018,49970,4
26021,49972,7
26009,49961,3
26008,49973,5
26009,49961,5
26012,49963,4
26009,49952,5
26010,49943,5
26013,49948,5
26007,49947,5
26006,49943,4
26012,49944,5
26001,49933,5
25999,49934,5
26002,49934,5
26004,49928,4
25999,49935,5
25998,49926,5
26004,49934,5
25998,49930,4
25998,49946,5
26005,49929,5
25997,49940,6
26004,49932,4
26005,49933,4
26003,49932,5
25999,49938,5
25998,49941,5
26003,49944,5
26013,49935,4
26003,49937,5
26011,49944,5
25999,49941,5
26003,49938,5
25998,49941,4
26009,49932,5
25994,49936,5
26007,49944,5
26007,49935,5
26003,49932,4
25996,49941,5
25998,49943,5
26007,49933,5
26004,49945,5
26013,49944,4
26006,49936,5
26009,49945,5
26011,49939,6
26006,49934,3
25999,49937,5
26003,49934,5
26002,49931,5
26001,49938,5
26008,49935,4
26012,49939,5
26009,49944,5
26002,49946,5
26000,49945,5
26002,49935,4
26009,49947,5
26008,49947,5
26011,49947,5
26008,49947,5
26012,49948,4
26009,49951,5
26009,49944,5
26009,49948,5
26006,49951,5
26016,49952,5
26005,49950,4
26015,49956,5
26010,49958,5
26012,49954,6
26006,49953,3
26013,49943,5
26007,49937,5
26000,49941,5
26009,49938,4
26002,49945,5
26006,49947,5
26001,49946,5
26014,49949,5
26010,49951,4
26009,49957,5
26008,49952,5
26015,49949,5
26001,49945,5
26007,49941,4
26010,49946,5
26013,49950,5
26018,49951,5
26012,49959,5
26012,49952,4
26012,49958,6
26013,49959,4
26009,49950,5
26013,49945,4
26014,49952,4
26009,49942,7
26011,49942,3
26005,49936,5
26013,49936,4
26004,49932,5
26006,49933,5
26011,49931,5
26009,49933,5
26005,49931,4
25994,49943,5
26009,49948,5
26010,49947,5
26001,49949,5
26009,49944,4
26010,49936,5
26005,49938,5
26009,49942,5
26009,49950,5
26015,49947,4
26009,49956,5
26010,49944,6
26008,49951,4
26012,49947,4
26010,49948,4
26011,49953,5
26013,49954,5
26010,49949,5
26016,49951,4
26009,49949,5
26005,49946,5
26008,49955,5
26005,49945,5
26010,49953,4
26000,49943,5
26013,49953,5
26012,49949,5
26015,49955,5
26006,49950,4
26002,49947,5
26014,49949,5
26011,49945,5
26013,49956,5
26012,49943,4
26019,49955,5
26020,49951,5
26014,49956,6
26010,49957,3
26022,49960,4
26011,49953,5
26014,49963,5
26009,49955,5
26017,49959,4
26011,49958,5
26012,49962,5
26015,49959,5
26014,49958,5
26016,49971,4
26026,49972,5
26025,49967,5
26025,49968,5
26015,49964,5
26013,49967,4
26019,49953,5
26012,49959,5
26014,49962,5
26009,49956,5
26022,49948,5
26014,49951,4
26016,49957,5
26018,49954,5
26012,49958,5
26015,49949,4
26004,49957,5
26017,49958,5
26019,49953,5
26014,49955,4
26018,49961,5
26015,49959,5
26013,49960,5
26008,49953,5
26013,49955,4
26013,49965,5
26019,49960,5
26014,49968,5
26024,49975,5
26018,49979,4
26023,49976,5
26018,49965,5
26024,49965,5
26022,49961,5
26015,49946,4
26005,49963,6
26017,49955,4
26010,49940,5
26006,49953,5
26008,49948,4
26006,49955,5
26013,49945,5
26006,49953,5
26018,49953,4
26008,49960,5
26003,49948,5
26007,49951,5
26008,49953,5
26016,49951,4
26015,49957,5
26019,49950,5
26014,49954,5
26015,49964,5
26009,49962,4
26020,49964,5
26018,49961,5
26009,49959,5
26016,49961,5
26011,49965,4
26012,49959,5
26018,49963,6
26017,49970,4
26024,49958,5
26025,49967,4
26024,49969,5
26011,49977,5
26021,49964,5
26019,49961,4
26013,49964,4
26027,49969,5
26019,49964,5
26021,49959,5
26022,49956,4
26020,49957,5
26021,49952,5
26021,49961,5
26011,49954,5
26018,49965,4
26014,49955,5
26011,49967,5
26017,49962,5
26014,49965,5
26017,49958,4
26024,49967,5
26012,49960,5
26014,49951,5
26023,49962,5
26011,49959,4
26023,49956,5
26016,49964,5
26018,49964,5
26021,49964,4
26016,49960,4
26019,49957,5
26024,49958,5
26023,49968,5
26028,49965,4
26019,49967,5
26024,49969,5
26022,49959,5
26013,49965,5
26015,49968,4
26024,49962,5
26019,49962,5
26014,49951,5
26014,49959,5
26015,49954,5
26017,49962,4
26016,49956,5
26015,49958,5
26005,49950,5
26016,49951,4
26020,49960,5
26023,49954,5
26016,49955,5
26016,49959,5
26017,49954,4
26023,49963,5
26011,49966,5
26012,49956,5
26019,49967,4
26018,49956,5
26012,49971,5
26015,49962,5
26011,49964,5
26018,49964,4
26009,49950,5
26007,49959,5
26011,49939,5
26014,49936,5
26004,49937,4
26006,49933,6
25998,49934,4
25994,49933,5
26003,49928,5
26003,49922,4
25998,49925,5
26000,49929,5
25997,49920,5
26006,49928,5
26009,49934,4
25997,49924,5
25997,49921,5
26001,49923,5
26005,49929,4
25999,49926,5
26002,49927,5
25999,49923,5
25994,49915,5
25997,49910,4
25996,49908,5
25998,49915,5
26001,49914,5
25996,49911,5
25995,49913,4
25996,49901,5
25988,49903,5
25996,49908,5
25993,49906,5
25988,49910,4
25996,49912,5
25995,49921,5
25989,49911,5
25999,49910,5
25997,49914,4
25995,49912,5
25991,49913,5
25991,49907,5
25987,49903,4
25990,49905,4
25991,49909,5
25991,49903,5
25993,49911,5
25987,49900,5
25993,49894,4
25992,49903,5
25983,49894,5
25984,49898,6
25986,49891,3
25992,49895,5
25987,49898,5
25989,49894,5
25993,49891,5
25986,49894,4
25980,49900,5
25990,49905,5
25993,49898,5
25994,49901,5
25994,49892,4
25990,49895,5
25982,49903,5
25983,49909,5
25994,49896,4
25989,49902,4
25996,49896,5
25985,49903,5
25990,49904,5
25983,49890,4
25985,49899,6
25990,49895,4
25989,49902,5
25988,49898,5
