RED,IR,EKG,TIME
38815,82670,9
38811,82676,8
38795,82649,5
38795,82649,5
38803,82652,8
38793,82638,5
38788,82639,5
38798,82640,8
38795,82640,5
38793,82642,5
38789,82610,5
38791,82600,8
38787,82619,5
38800,82637,5
38798,82649,8
38798,82649,5
38811,82659,5
38808,82658,5
38803,82655,8
38803,82673,5
38822,82676,5
38813,82683,8
38813,82666,5
38816,82675,5
38808,82665,8
38815,82663,5
38810,82668,5
38806,82675,5
38801,82652,8
38801,82652,5
38800,82659,5
38810,82646,8
38788,82659,5
38798,82659,5
38790,82643,5
38788,82651,8
38782,82638,5
38791,82639,5
38778,82637,8
38789,82630,5
38803,82630,5
38788,82625,5
38748,82550,8
38748,82550,5
38714,82537,5
38729,82506,8
38707,82490,5
38697,82462,5
38692,82449,8
38696,82437,5
38683,82445,5
38680,82437,5
38684,82432,8
38690,82439,5
38682,82440,5
38691,82455,8
38691,82455,5
38670,82453,5
38689,82428,5
38698,82471,8
38695,82475,5
38686,82442,5
38677,82406,8
38666,82412,5
38684,82402,5
38653,82392,8
38644,82382,5
38648,82375,5
38651,82373,5
38659,82381,8
38659,82381,5
38660,82445,5
38666,82392,8
38664,82375,5
38673,82422,5
38715,82436,5
38694,82449,8
38657,82456,5
38679,82456,5
38701,82467,8
38709,82486,5
38716,82492,5
38736,82532,8
38736,82532,5
38733,82482,5
38747,82529,10
38738,82543,9
38746,82547,5
38761,82576,8
38761,82576,5
38727,82582,5
38748,82582,8
38772,82579,5
38758,82570,5
38759,82582,5
38759,82558,8
38753,82559,5
38757,82558,5
38756,82563,8
38743,82549,5
38732,82522,5
38736,82517,5
38716,82488,7
38716,82488,0
38716,82488,2
38703,82486,4
38707,82487,5
38712,82481,5
38711,82467,5
38704,82472,4
38703,82466,4
38708,82480,5
38709,82473,5
38704,82468,5
38711,82466,5
38717,82476,4
38712,82471,5
38709,82480,5
38721,82474,5
38713,82493,4
38716,82493,5
38719,82492,5
38720,82495,5
38727,82505,5
38725,82504,4
38730,82506,5
38731,82521,5
38727,82515,5
38728,82512,5
38729,82511,4
38734,82513,5
38734,82521,5
38723,82513,5
38724,82513,4
38740,82517,5
38730,82526,5
38738,82525,5
38744,82522,5
38733,82533,4
38736,82539,6
38742,82541,4
38741,82531,5
38747,82542,5
38740,82542,4
38745,82542,5
38737,82544,5
38742,82541,5
38746,82535,5
38744,82538,4
38739,82537,5
38727,82524,5
38732,82525,5
38723,82512,5
38719,82500,4
38717,82489,5
38701,82468,5
38670,82455,5
38690,82447,4
38680,82427,5
38672,82418,5
38647,82411,5
38669,82409,5
38660,82413,4
38666,82410,5
38647,82412,6
38671,82424,4
38677,82431,5
38682,82428,4
38683,82439,5
38689,82449,5
38703,82452,5
38699,82468,5
38728,82460,4
38696,82462,5
38692,82457,5
38686,82447,5
38713,82443,5
38682,82433,4
38672,82420,5
38666,82415,5
38680,82410,5
38670,82417,4
38672,82409,5
38670,82417,5
38680,82417,5
38675,82415,5
38681,82431,4
38690,82438,5
38689,82437,5
38695,82459,5
38707,82478,5
38711,82504,4
38718,82480,5
38733,82520,5
38742,82546,5
38749,82561,5
38761,82540,4
38764,82590,5
38779,82604,5
38776,82619,5
38783,82641,5
38796,82648,4
38805,82666,5
38814,82676,5
38818,82713,5
38824,82692,4
38817,82689,6
38821,82691,4
38824,82727,5
38816,82691,5
38815,82700,6
38818,82699,3
38818,82709,5
38814,82686,5
38822,82691,5
38819,82681,4
38811,82686,5
38814,82657,5
38800,82652,5
38793,82648,5
38795,82635,4
38771,82608,5
38772,82598,5
38770,82598,5
38763,82601,4
38772,82600,4
38764,82596,5
38762,82589,5
38768,82595,5
38765,82585,4
38758,82593,5
38762,82590,6
38764,82597,4
38772,82592,5
38769,82606,4
38775,82619,7
38781,82619,3
38783,82627,5
38782,82635,5
38790,82641,4
38792,82660,5
38801,82664,5
38802,82661,5
38814,82682,5
38823,82697,4
38819,82691,5
38821,82703,5
38821,82700,5
38818,82693,4
38808,82668,4
38817,82659,5
38798,82648,5
38794,82647,5
38789,82619,4
38781,82613,5
38770,82610,5
38781,82596,6
38772,82599,4
38771,82596,4
38769,82602,5
38761,82598,5
38769,82596,5
38771,82592,5
38768,82582,4
38780,82590,5
38774,82592,5
38776,82598,5
38772,82603,5
38777,82599,4
38775,82593,5
38777,82588,5
38767,82579,5
38760,82565,4
38752,82545,4
38741,82534,5
38737,82526,5
38729,82520,5
38733,82512,5
38720,82510,4
38731,82502,5
38720,82512,5
38726,82507,6
38726,82508,3
38730,82513,5
38728,82518,5
38738,82529,5
38733,82533,5
38749,82539,4
38747,82543,5
38750,82557,5
38754,82568,5
38759,82559,5
38764,82577,4
38774,82588,5
38782,82592,5
38770,82587,5
38782,82597,4
38775,82604,4
38787,82597,5
38784,82601,5
38786,82602,5
38773,82601,4
38780,82597,6
38773,82592,4
38776,82592,5
38749,82587,5
38775,82573,6
38771,82565,3
38771,82565,5
38735,82564,5
38765,82557,5
38758,82547,4
38747,82551,5
38748,82533,5
38754,82522,5
38744,82530,8
38743,82518,1
38745,82515,5
38737,82522,5
38738,82520,5
38746,82523,4
38790,82530,5
38743,82523,5
38740,82526,5
38744,82531,5
38773,82533,4
38752,82536,5
38756,82551,6
38758,82554,4
38766,82565,5
38773,82579,4
38776,82584,5
38787,82597,5
38789,82591,5
38794,82616,5
38798,82619,4
38796,82618,5
38793,82606,5
38804,82628,5
38806,82639,5
38809,82635,4
38804,82599,5
38793,82626,5
38801,82618,5
38788,82607,4
38784,82586,5
38769,82580,5
38770,82565,5
38758,82557,5
38757,82572,4
38756,82532,5
38743,82534,5
38751,82544,6
38753,82573,4
38760,82544,4
38754,82545,5
38743,82538,5
38743,82557,5
38746,82532,5
38742,82532,4
38743,82529,5
38739,82542,5
38739,82523,5
38719,82490,5
38703,82447,4
38688,82439,5
38693,82419,5
38683,82419,5
38701,82455,4
38704,82455,5
38700,82437,5
38692,82433,5
38694,82446,5
38705,82461,5
38718,82476,4
38726,82496,5
38730,82492,5
38721,82464,6
38712,82459,3
38715,82473,5
38721,82480,5
38721,82477,5
38727,82504,5
38749,82523,4
38741,82528,5
38743,82526,5
38749,82536,5
38751,82544,5
38763,82545,4
38754,82544,5
38763,82543,5
38758,82548,5
38758,82535,4
38754,82550,5
38758,82550,5
38750,82541,5
38758,82539,5
38763,82538,4
38753,82539,6
38762,82535,4
38759,82533,5
38744,82519,5
38752,82510,4
38740,82504,5
38743,82498,5
38734,82489,5
38736,82473,5
38725,82473,4
38722,82465,5
38705,82436,5
38719,82441,5
38713,82437,4
38715,82448,4
38713,82446,5
38712,82441,5
38706,82436,5
38703,82444,4
38707,82442,5
38711,82441,5
38721,82440,5
38716,82445,5
38718,82442,4
38718,82458,5
38709,82455,6
38730,82448,4
38724,82451,5
38720,82448,4
38723,82451,5
38718,82453,5
38720,82448,5
38711,82434,5
38714,82428,4
38707,82420,5
38703,82409,5
38687,82397,5
38687,82391,4
38686,82382,4
38684,82380,5
38679,82371,5
38676,82364,5
38676,82364,4
38682,82349,5
38670,82357,5
38668,82349,5
38676,82375,5
38676,82378,4
38680,82389,5
38690,82386,5
38697,82384,6
38691,82389,4
38664,82376,4
38683,82372,5
38674,82361,5
38671,82355,5
38627,82330,5
38652,82331,4
38659,82326,5
38643,82322,5
38630,82326,5
38650,82310,4
38644,82312,4
38652,82317,5
38655,82321,5
38641,82309,5
38634,82291,4
38637,82290,5
38667,82264,5
38617,82228,5
38596,82208,5
38596,82184,5
38613,82184,4
38580,82186,5
38585,82166,5
38573,82151,5
38585,82151,4
38569,82153,5
38568,82144,5
38582,82172,5
38594,82195,5
38597,82190,4
38581,82153,5
38567,82153,5
38583,82131,5
38586,82177,4
38586,82171,5
38553,82125,5
38536,82072,5
38525,82063,5
38525,82082,4
38543,82108,5
38568,82124,5
38574,82158,5
38562,82139,5
38561,82143,4
38566,82169,6
38584,82182,4
38594,82216,5
38615,82252,5
38610,82295,4
38622,82265,5
38615,82268,5
38624,82282,5
38627,82310,5
38628,82286,4
38622,82284,5
38620,82285,5
38624,82294,5
38622,82282,4
38628,82275,5
38628,82292,5
38638,82287,5
38632,82298,5
38636,82302,4
38646,82294,5
38643,82296,5
38638,82296,5
38646,82311,5
38645,82308,4
38650,82324,5
38651,82327,6
38656,82322,4
38652,82332,5
38654,82323,4
38653,82328,5
38660,82319,5
38641,82326,5
38644,82303,4
38628,82280,4
38626,82269,5
38612,82242,5
38602,82216,5
38587,82196,4
38569,82182,5
38573,82168,5
38574,82163,5
38560,82150,5
38560,82148,4
38555,82143,5
38564,82141,5
38564,82150,5
38559,82162,5
38566,82179,4
38586,82195,5
38581,82197,5
38592,82211,5
38603,82220,5
38602,82229,4
38600,82224,5
38592,82215,5
38587,82203,5
38575,82195,4
38582,82171,4
38566,82165,5
38562,82161,5
38567,82166,5
38565,82172,4
38562,82172,5
38569,82173,5
38571,82176,5
38570,82183,5
38570,82196,4
38588,82197,5
38587,82208,5
38597,82217,5
38600,82223,5
38599,82242,5
38607,82245,3
38615,82254,5
38615,82262,5
38613,82264,5
38631,82281,4
38624,82292,5
38628,82287,5
38634,82288,5
38636,82289,4
38638,82299,4
38641,82305,5
38637,82302,5
38644,82300,5
38644,82306,4
38640,82318,5
38646,82316,5
38644,82315,5
38647,82323,5
38645,82321,4
38657,82324,5
38647,82316,6
38651,82303,4
38637,82296,5
38632,82293,4
38637,82290,7
38630,82280,3
38620,82270,5
38618,82265,5
38611,82259,4
38593,82242,5
38602,82235,5
38604,82228,5
38591,82212,4
38564,82213,4
38594,82207,5
38590,82199,5
38587,82199,5
38556,82190,4
38584,82192,5
38579,82192,5
38579,82183,5
38587,82195,5
38581,82191,4
38576,82188,5
38582,82206,5
38611,82205,6
38587,82216,4
38595,82217,4
38597,82212,5
38622,82221,5
38596,82229,5
38596,82243,5
38608,82241,4
38619,82241,5
38605,82248,5
38607,82260,5
38600,82259,4
38614,82258,5
38611,82254,5
38614,82264,5
38616,82260,5
38624,82249,4
38613,82269,5
38619,82277,5
38620,82279,5
38621,82246,5
38622,82275,5
38616,82278,4
38624,82281,5
38626,82252,5
38615,82277,6
38615,82274,3
38619,82268,5
38614,82275,5
38610,82263,5
38607,82248,5
38593,82227,4
38591,82240,5
38579,82199,5
38561,82175,5
38551,82158,4
38546,82167,5
38535,82130,5
38540,82136,5
38553,82144,5
38555,82165,4
38556,82144,5
38555,82141,5
38554,82158,5
38565,82171,5
38572,82185,4
38571,82208,6
38584,82210,4
38599,82231,5
38603,82256,5
38615,82258,6
38609,82265,3
38607,82257,5
38605,82256,5
38609,82248,5
38599,82229,4
38600,82204,5
38578,82191,5
38567,82175,5
38560,82174,4
38566,82171,5
38580,82197,5
38588,82214,5
38603,82237,5
38616,82256,4
38613,82269,5
38626,82284,5
38629,82293,5
38636,82311,5
38646,82339,4
38668,82369,5
38671,82369,6
38675,82376,4
38684,82391,5
38693,82410,4
38707,82453,5
38721,82462,5
38724,82460,5
38711,82459,5
38716,82454,4
38708,82475,5
38734,82497,5
38737,82518,5
38742,82526,4
38742,82514,5
38727,82480,5
38728,82484,5
38739,82508,5
38750,82530,4
38761,82541,5
38764,82559,5
38764,82550,5
38763,82539,5
38759,82546,4
38772,82562,5
38767,82561,5
38769,82549,6
38760,82548,4
38754,82554,4
38757,82553,5
38763,82550,5
38766,82554,5
38756,82550,4
38762,82553,4
38759,82526,5
38747,82535,5
38750,82535,5
38760,82550,4
38761,82550,5
38756,82554,5
38764,82544,5
38754,82541,5
38755,82548,4
38763,82550,5
38774,82553,5
38764,82554,5
38770,82552,5
38758,82559,5
38768,82576,4
38771,82573,5
38780,82586,5
38777,82581,11
38766,82573,3
38768,82564,5
38769,82561,5
38765,82564,4
38769,82582,5
38780,82582,5
38786,82596,5
38762,82579,5
38773,82578,4
38769,82564,5
38770,82569,5
38744,82568,5
38773,82578,5
38777,82579,4
38776,82570,5
38741,82581,5
38780,82573,5
38763,82561,5
38759,82556,4
38755,82546,6
38754,82534,4
38748,82517,5
38736,82503,5
38750,82474,4
38707,82452,5
38703,82443,5
38688,82426,5
38723,82407,4
38687,82412,5
38683,82404,5
38674,82397,5
38706,82415,5
38682,82413,4
38692,82416,5
38690,82410,5
38697,82416,5
38683,82418,5
38691,82412,4
38693,82419,5
38694,82405,5
38697,82421,5
38693,82425,5
38686,82418,4
38695,82383,5
38676,82393,6
38663,82378,4
38668,82368,4
38657,82321,4
38645,82351,5
38649,82353,5
38655,82362,5
38661,82365,4
38660,82359,5
38664,82358,5
38661,82358,5
38659,82391,5
38661,82364,4
38663,82376,5
38672,82383,5
38675,82420,5
38678,82398,5
38688,82404,4
38693,82400,5
38694,82426,5
38699,82428,5
38706,82433,5
38706,82441,4
38710,82441,5
38719,82458,5
38719,82461,5
38718,82466,4
38729,82464,5
38727,82461,5
38714,82466,5
38723,82462,5
38718,82461,4
38719,82462,5
38729,82469,5
38722,82456,5
38727,82462,5
38728,82462,4
38713,82457,5
38731,82462,5
38714,82449,5
38722,82438,5
38707,82441,4
38709,82422,5
38702,82422,5
38700,82404,5
38690,82399,4
38673,82385,5
38678,82377,4
38665,82365,5
38671,82347,5
38656,82343,4
38664,82334,5
38656,82330,5
38644,82328,5
38655,82322,5
38640,82326,4
38647,82314,5
38650,82326,5
38649,82328,5
38659,82327,5
38647,82325,4
38651,82339,5
38655,82329,5
38657,82345,5
38668,82348,5
38661,82352,4
38673,82357,5
38665,82362,5
38674,82363,5
38672,82376,4
38674,82368,5
38677,82376,6
38672,82372,4
38683,82382,5
38682,82382,4
38674,82387,5
38679,82378,5
38680,82389,5
38683,82381,5
38680,82374,4
38679,82383,5
38682,82377,5
38669,82385,5
38681,82376,5
38673,82372,4
38670,82367,5
38662,82364,5
38663,82368,5
38660,82359,5
38669,82350,4
38659,82353,5
38657,82355,5
38661,82358,5
38653,82349,4
38652,82338,5
38640,82336,5
38655,82337,5
38645,82342,5
38651,82339,4
38646,82335,5
38638,82330,5
38640,82320,5
38639,82311,5
38632,82295,4
38618,82280,5
38613,82256,5
38595,82243,5
38585,82236,5
38570,82227,4
38585,82223,5
38588,82240,5
38595,82229,5
38559,82243,4
38595,82242,4
38600,82249,5
38600,82253,5
38583,82263,5
38611,82268,5
38612,82282,4
38626,82293,5
38638,82300,5
38631,82313,5
38632,82319,4
38641,82318,5
38675,82329,5
38643,82328,5
38639,82312,5
38629,82313,4
38660,82302,5
38613,82292,5
38609,82277,5
38608,82274,5
38628,82277,4
38604,82280,5
38610,82275,5
38614,82292,5
38623,82294,4
38626,82299,5
38626,82307,5
38641,82329,5
38649,82315,5
38652,82355,4
38665,82371,6
38672,82394,4
38673,82366,5
38689,82418,5
38691,82424,4
38703,82454,5
38710,82454,5
38719,82479,5
38731,82500,5
38734,82517,4
38742,82550,5
38759,82545,5
38768,82551,5
38766,82558,4
38771,82605,4
38773,82574,5
38765,82578,5
38772,82585,5
38780,82611,4
38777,82579,5
38785,82579,5
38772,82582,5
38780,82591,4
38775,82580,4
38777,82569,5
38771,82566,5
38771,82570,5
38767,82555,5
38762,82542,4
38757,82540,5
38742,82529,5
38738,82528,5
38743,82511,5
38729,82499,4
38729,82495,5
38724,82492,5
38724,82496,5
38724,82493,4
38720,82491,5
38726,82485,5
38722,82480,5
38722,82486,5
38732,82494,5
38729,82488,4
38727,82492,5
38727,82505,5
38731,82512,6
38737,82516,3
38740,82521,5
38742,82529,5
38751,82529,5
38750,82540,5
38754,82543,4
38760,82546,5
38762,82551,5
38764,82553,5
38768,82559,5
38758,82560,4
38762,82568,5
38766,82561,5
38761,82559,5
38758,82551,4
38763,82562,5
38755,82535,5
38745,82527,5
38741,82525,5
38733,82507,4
38722,82498,6
38723,82478,4
38714,82472,5
38715,82457,5
38721,82460,6
38711,82452,3
38701,82441,5
38696,82441,5
38691,82439,5
38696,82445,4
38704,82443,5
38702,82444,5
38704,82447,5
38704,82454,4
38706,82445,4
38695,82438,5
38704,82448,5
38708,82452,5
38699,82447,4
38696,82422,5
38689,82411,5
38679,82405,5
38671,82389,5
38665,82375,4
38655,82375,5
38662,82374,6
38657,82375,4
38665,82376,5
38658,82378,4
38667,82387,5
38680,82402,5
38673,82416,5
38682,82418,5
38691,82436,4
38699,82444,5
38707,82450,5
38705,82457,5
38712,82466,4
38725,82475,5
38724,82493,5
38716,82497,5
38738,82508,5
38742,82524,4
38750,82539,5
38724,82535,5
38744,82533,5
38743,82520,5
38742,82522,4
38716,82532,5
38754,82535,5
38752,82537,6
38736,82510,4
38720,82495,4
38717,82475,5
38722,82471,5
38727,82472,5
38748,82474,4
38718,82474,4
38709,82445,5
38692,82414,5
38708,82391,5
38666,82365,4
38649,82343,5
38613,82239,5
38573,82112,5
38512,82034,5
38485,81986,4
38474,81961,5
38469,81935,5
38425,81872,5
38392,81789,5
38386,81763,5
38378,81747,4
38399,81818,5
38453,81924,5
38507,82007,6
38470,81882,3
38409,81817,5
38417,81842,5
38442,81907,5
38484,81958,4
38539,82071,4
38551,82105,5
38554,82133,5
38574,82179,5
38597,82232,4
38630,82270,5
38638,82303,5
38635,82312,5
38624,82277,5
38620,82273,4
38630,82301,5
38638,82343,5
38635,82273,5
38595,82220,5
38585,82198,4
38582,82201,6
38578,82195,4
38585,82212,5
38599,82229,5
38605,82234,4
38592,82226,5
38599,82241,5
38603,82237,5
38596,82229,4
38597,82222,5
38593,82213,5
38580,82193,5
38588,82210,5
38587,82219,4
38607,82248,5
38614,82275,5
38617,82283,5
38621,82260,5
38599,82239,4
38599,82223,5
38601,82223,5
38592,82228,5
38587,82213,5
38589,82205,4
38578,82210,5
38583,82203,6
38592,82213,4
38589,82236,4
38600,82244,4
38615,82270,5
38625,82281,5
38624,82287,5
38625,82297,4
38616,82301,5
38633,82321,5
38651,82328,5
38661,82343,5
38660,82351,4
38666,82365,5
38661,82374,5
38667,82369,5
38658,82355,5
38660,82349,4
38661,82348,5
38655,82346,5
38665,82355,5
38665,82356,5
38643,82319,4
38632,82298,5
38629,82294,5
38648,82335,6
38658,82348,3
38649,82357,5
38645,82332,5
38628,82283,5
38594,82238,5
38586,82229,4
38586,82215,5
38590,82230,5
38592,82224,5
38586,82208,5
38583,82194,4
38589,82219,5
38597,82236,5
38595,82216,5
38569,82149,5
38537,82105,4
38531,82101,10
38555,82143,5
38572,82186,4
38591,82208,5
38590,82184,4
38573,82177,5
38576,82183,5
38585,82199,4
38584,82189,5
38583,82183,5
38577,82172,5
38577,82183,5
38586,82210,4
38604,82242,5
38620,82274,5
38623,82283,5
38612,82224,5
38583,82214,4
38587,82212,5
38602,82236,5
38614,82251,5
38612,82262,5
38594,82259,4
38601,82237,5
38601,82231,5
38601,82223,5
38557,82223,4
38600,82231,4
38593,82232,6
38599,82208,4
38551,82185,5
38581,82178,4
38580,82174,5
38586,82199,5
38610,82226,5
38600,82235,5
38604,82245,4
38601,82256,5
38645,82228,5
38589,82211,5
38580,82202,5
38577,82177,4
38594,82154,5
38557,82126,5
38542,82120,5
38539,82108,5
38541,82089,4
38533,82083,5
38536,82080,5
38531,82064,5
38530,82060,4
38520,82075,5
38540,82082,5
38536,82072,6
38539,82057,4
38543,82086,4
38549,82089,5
38544,82089,5
38549,82061,5
38556,82089,5
38553,82106,4
38559,82106,5
38557,82085,5
38561,82111,5
38566,82111,5
38559,82131,4
38560,82137,5
38563,82117,5
38571,82122,5
38567,82131,5
38574,82163,4
38579,82137,5
38573,82135,5
38579,82124,5
38573,82157,5
38568,82131,4
38578,82125,5
38571,82133,5
38564,82130,5
38559,82114,4
38548,82100,5
38553,82100,5
38551,82096,5
38544,82078,5
38538,82061,4
38531,82041,5
38537,82033,5
38510,82023,5
38511,82018,5
38506,82008,4
38503,82004,5
38502,81991,5
38502,81980,5
38494,81982,4
38486,81972,4
38487,81960,5
38484,81958,5
38477,81954,5
38478,81955,4
38484,81953,6
38482,81946,4
38481,81957,5
38477,81949,5
38478,81947,4
38476,81949,5
38475,81939,5
38477,81935,5
38477,81939,5
38471,81933,4
38474,81937,5
38473,81928,5
38462,81923,5
38463,81907,5
38466,81912,4
38461,81897,5
38450,81882,5
38447,81881,5
38445,81851,4
38422,81837,4
38405,81807,5
38392,81779,5
38383,81747,5
38363,81713,4
38358,81700,5
38353,81691,6
38355,81687,4
38341,81676,5
38338,81668,4
38343,81681,5
38345,81673,5
38350,81688,5
38348,81689,5
38349,81702,4
38358,81711,5
38377,81731,5
38374,81736,5
38372,81750,5
38376,81748,4
38374,81738,5
38378,81739,5
38375,81725,5
38362,81716,4
38358,81701,4
38335,81683,5
38325,81662,5
38344,81670,5
38341,81656,4
38328,81653,5
38326,81660,5
38325,81666,5
38332,81656,5
38332,81649,4
38336,81669,5
38338,81668,5
38343,81674,5
38347,81680,5
38346,81700,4
38356,81705,5
38361,81721,5
38373,81733,5
38383,81740,5
38378,81749,4
38393,81764,5
38378,81766,5
38393,81779,5
38393,81783,4
38404,81794,5
38386,81802,4
38410,81797,5
38413,81802,5
38413,81815,6
38392,81817,3
38420,81823,5
38427,81830,5
38419,81832,5
38397,81818,4
38427,81834,5
38421,81841,5
38430,81835,5
38441,81828,5
38431,81827,4
38420,81826,5
38426,81831,5
38462,81825,5
38423,81824,5
38412,81823,4
38414,81826,5
38434,81811,5
38411,81814,5
38403,81805,4
38398,81801,5
38408,81798,6
38396,81795,4
38400,81792,5
38396,81782,4
38392,81770,7
38387,81778,3
38382,81772,5
38395,81780,5
38390,81756,4
38384,81776,5
38397,81781,5
38396,81795,5
38391,81765,5
38401,81803,4
38407,81807,5
38402,81804,5
38410,81802,5
38405,81813,5
38404,81810,4
38407,81813,5
38406,81842,5
38413,81824,5
38422,81840,4
38414,81843,5
38420,81876,5
38423,81838,6
38419,81845,4
38420,81842,4
38423,81868,5
38422,81845,5
38420,81843,5
38419,81850,5
38412,81863,4
38420,81844,5
38423,81852,5
38424,81858,5
38411,81846,5
38416,81846,4
38422,81844,5
38426,81839,5
38417,81838,5
38415,81822,4
38403,81815,4
38391,81795,5
38376,81776,5
38370,81754,5
38350,81733,5
38350,81718,4
38349,81725,5
38353,81729,5
38354,81733,6
38347,81752,3
38363,81745,5
38358,81758,5
38363,81767,5
38366,81766,5
38363,81759,4
38364,81777,5
38374,81791,5
38384,81801,5
38383,81806,5
38391,81817,4
38395,81813,5
38395,81806,5
38377,81782,5
38371,81761,4
38362,81740,4
38362,81750,5
38360,81742,5
38352,81724,5
38340,81716,4
38340,81702,6
38340,81700,4
38346,81706,5
38349,81699,5
38333,81701,6
38347,81718,3
38355,81743,5
38379,81773,5
38373,81771,5
38364,81752,4
38379,81771,5
38378,81786,5
38398,81807,5
38393,81832,5
38412,81848,4
38416,81863,5
38414,81861,5
38416,81863,5
38421,81875,4
38431,81887,4
38442,81904,5
38439,81910,5
38453,81921,5
38462,81945,4
38472,81955,5
38471,81967,6
38474,81978,4
38495,82005,5
38501,82027,4
38509,82034,5
38514,82041,5
38505,82036,5
38509,82042,5
38517,82054,4
38510,82064,5
38514,82060,5
38525,82068,5
38527,82075,5
38526,82078,4
38539,82086,5
38534,82089,5
38522,82088,5
38529,82081,4
38525,82066,5
38518,82067,5
38520,82066,5
38506,82069,5
38518,82072,4
38509,82066,5
38513,82069,5
38489,82068,6
38515,82071,4
38505,82064,4
38507,82059,5
38481,82067,5
38520,82065,5
38530,82080,5
38516,82079,4
38517,82086,5
38532,82083,5
38522,82082,5
38530,82091,5
38546,82092,4
38533,82099,5
38528,82099,5
38537,82104,5
38565,82105,4
38534,82112,5
38534,82107,5
38533,82114,5
38554,82112,5
38533,82106,5
38538,82098,4
38532,82097,5
38534,82093,5
38511,82081,6
38525,82078,3
38510,82062,5
38512,82048,5
38500,82044,5
38489,82020,5
38479,82000,4
38472,81947,5
38445,81938,5
38440,81918,5
38419,81889,5
38411,81835,4
38398,81846,5
38396,81844,5
38397,81829,5
38386,81817,4
38383,81823,5
38373,81817,5
38380,81817,5
38377,81838,5
38386,81819,4
38378,81819,6
38386,81825,4
38391,81876,5
38389,81829,5
38390,81849,4
38391,81838,5
38394,81856,5
38391,81829,5
38389,81827,5
38382,81813,4
38377,81812,5
38369,81798,5
38362,81778,5
38348,81765,5
38351,81762,4
38355,81764,5
38359,81774,5
38359,81768,5
38355,81763,4
38356,81761,5
38361,81772,5
38366,81783,5
38362,81782,5
38360,81808,4
38368,81802,5
38379,81820,6
38387,81824,4
38395,81823,5
38382,81815,4
38393,81828,5
38409,81838,5
38415,81848,5
38403,81865,5
38418,81868,4
38423,81883,5
38429,81890,5
38430,81900,5
38423,81912,5
38439,81906,4
38441,81907,5
38444,81919,5
38444,81927,5
38442,81921,4
38453,81933,5
38447,81939,5
38444,81935,5
38441,81940,5
38447,81935,4
38450,81927,5
38456,81922,5
38440,81927,6
38445,81916,4
38435,81908,4
38430,81907,5
38426,81879,5
38420,81880,5
38408,81864,5
38409,81857,4
38402,81858,5
38396,81836,8
38398,81832,2
38387,81827,4
38382,81812,4
38398,81820,5
38385,81826,5
38389,81819,5
38388,81815,4
38376,81813,5
38377,81815,5
38382,81827,5
38379,81818,5
38383,81827,5
38389,81832,4
38393,81834,5
38391,81838,5
38401,81846,5
38400,81854,4
38396,81846,5
38409,81858,5
38395,81850,5
38405,81865,5
38397,81858,4
38406,81865,5
38393,81861,5
38405,81859,5
38409,81859,4
38416,81864,4
38397,81860,5
38403,81858,5
38397,81858,5
38401,81850,4
38400,81843,5
38390,81833,5
38394,81838,5
38391,81838,5
38383,81826,4
38381,81823,6
38383,81824,4
38374,81812,5
38360,81813,5
38381,81812,4
38383,81810,5
38388,81798,5
38347,81808,5
38380,81798,5
38374,81798,4
38370,81795,5
38333,81794,5
38364,81789,5
38364,81772,4
38345,81765,4
38354,81739,5
38332,81730,5
38313,81708,5
38310,81699,4
38338,81671,5
38292,81672,5
38299,81673,5
38298,81678,5
38335,81674,4
38305,81684,5
38311,81686,6
38310,81689,4
38318,81682,5
38313,81687,4
38319,81690,5
38315,81695,5
38315,81702,5
38320,81701,5
38319,81707,4
38320,81711,5
38323,81682,5
38316,81705,5
38316,81693,4
38303,81683,5
38302,81637,5
38295,81662,5
38291,81653,5
38282,81649,4
38284,81628,5
38278,81642,5
38292,81644,5
38292,81654,5
38295,81670,4
38299,81664,5
38300,81673,5
38309,81680,5
38319,81736,5
38329,81712,4
38334,81730,5
38330,81738,5
38344,81786,5
38355,81777,5
38367,81785,4
38362,81792,5
38378,81813,5
38373,81819,5
38393,81823,4
38388,81841,5
38394,81851,5
38406,81859,5
38406,81868,5
38415,81870,4
38412,81884,5
38409,81889,4
38418,81889,5
38426,81902,5
38429,81903,5
38429,81908,3
38430,81905,5
38431,81903,5
38428,81908,5
38429,81910,4
38421,81909,5
38424,81897,5
38417,81896,5
38412,81883,5
38415,81873,4
38407,81874,5
38398,81868,5
38396,81850,5
38395,81847,4
38391,81843,5
38393,81847,5
38384,81834,5
38395,81848,5
38386,81850,4
38392,81839,5
38396,81848,6
38390,81845,4
38399,81855,5
38397,81853,4
38399,81857,7
38403,81860,3
38410,81859,5
38403,81867,5
38423,81879,4
38411,81883,5
38416,81889,5
38422,81903,5
38418,81895,5
38437,81902,4
38432,81915,5
38438,81903,5
38436,81911,5
38442,81923,4
38436,81923,5
38430,81920,5
38433,81917,5
38432,81914,5
38436,81912,4
38431,81921,5
38427,81906,5
38433,81897,6
38410,81889,4
38414,81877,4
38417,81861,5
38398,81840,5
38388,81832,5
38382,81808,5
38377,81793,4
38366,81782,5
38352,81770,5
38355,81763,5
38352,81754,4
38339,81757,4
38347,81762,5
38341,81759,5
38347,81763,5
38353,81765,4
38351,81764,5
38355,81764,5
38356,81776,5
38354,81777,5
38362,81783,5
38356,81773,4
38359,81778,5
38357,81763,5
38352,81752,6
38341,81738,3
38327,81716,5
38316,81689,5
38307,81685,5
38309,81676,5
38288,81676,4
38296,81668,5
38305,81662,5
38303,81671,5
38279,81674,4
38308,81675,4
38309,81690,5
38320,81700,5
38290,81699,5
38332,81709,4
38340,81732,5
38348,81744,5
38363,81753,5
38352,81772,5
38361,81770,4
38369,81775,6
38404,81810,4
38377,81810,5
38389,81812,5
38393,81809,6
38428,81832,3
38402,81829,5
38400,81825,5
38395,81837,5
38414,81835,4
38397,81839,5
38401,81844,5
38396,81844,5
38398,81840,4
38402,81841,4
38395,81835,5
38394,81822,5
38392,81794,5
38397,81821,4
38393,81822,5
38385,81806,5
38382,81774,5
38373,81793,5
38373,81777,4
38366,81773,5
38349,81727,6
38348,81744,4
38346,81744,5
38339,81744,4
38333,81751,5
38345,81738,5
38342,81747,5
38344,81731,5
38347,81771,4
38345,81739,5
38351,81739,5
38342,81748,5
38360,81795,4
38356,81770,5
38369,81775,5
38368,81801,5
38376,81808,5
38382,81800,4
38385,81818,5
38395,81818,5
38397,81834,5
38395,81847,5
38403,81843,4
38410,81862,5
38408,81855,5
38412,81857,6
38411,81864,4
38414,81873,4
38409,81869,5
38412,81862,5
38402,81857,5
38401,81834,5
38394,81826,4
38390,81813,5
38380,81792,5
38359,81774,5
38358,81752,4
38341,81749,5
38349,81743,5
38336,81728,5
38334,81732,5
38339,81732,4
38343,81743,5
38340,81742,5
38350,81746,5
38348,81757,5
38359,81764,5
38362,81778,4
38369,81786,5
38370,81793,5
38369,81797,6
38371,81783,3
38364,81777,5
38343,81756,5
38347,81739,5
38338,81731,5
38322,81707,4
38318,81694,5
38317,81688,5
38317,81689,5
38316,81694,4
38317,81695,5
38326,81695,5
38325,81703,5
38327,81718,5
38340,81742,4
38345,81754,5
38357,81778,5
38360,81799,5
38371,81799,5
38377,81800,4
38375,81796,6
38385,81797,4
38376,81806,5
38388,81800,5
38389,81812,4
38388,81829,5
38391,81836,5
38404,81840,5
38410,81864,5
38401,81861,4
38418,81874,5
38416,81878,5
38419,81889,5
38421,81892,4
38435,81900,5
38436,81906,5
38428,81900,5
38435,81902,5
38427,81900,4
38428,81902,5
38423,81906,5
38430,81905,5
38425,81902,5
38423,81898,4
38431,81890,5
38413,81885,6
38422,81875,4
38409,81867,5
38420,81864,4
38401,81850,5
38403,81844,5
38401,81846,5
38398,81847,4
38404,81853,4
38389,81860,5
38395,81860,5
38408,81858,5
38402,81867,4
38371,81846,5
38395,81844,5
38406,81842,5
38398,81844,5
38372,81849,4
38397,81859,5
38407,81857,5
38405,81857,5
38416,81860,5
38413,81866,4
38417,81863,5
38400,81858,5
38445,81849,6
38406,81855,4
38398,81843,4
38392,81831,5
38427,81830,5
38392,81826,5
38380,81813,4
38371,81802,4
38387,81799,5
38375,81789,5
38366,81788,5
38359,81774,4
38362,81771,5
38356,81775,5
38360,81766,5
38356,81762,5
38362,81742,4
38370,81763,5
38365,81771,5
38371,81770,5
38361,81742,5
38355,81764,5
38366,81756,4
38351,81743,5
38347,81698,5
38336,81714,5
38329,81693,4
38320,81679,5
38315,81692,5
38310,81681,5
38319,81670,4
38314,81668,5
38306,81698,5
38307,81655,5
38314,81671,5
38321,81672,4
38312,81713,5
38329,81673,5
38319,81683,5
38329,81688,5
38335,81707,4
38330,81705,5
38337,81702,5
38333,81709,5
38329,81713,5
38342,81717,4
38342,81717,6
38351,81731,4
38351,81729,5
38351,81742,5
38353,81735,4
38347,81732,5
38358,81738,5
38355,81736,5
38350,81732,4
38353,81729,5
38349,81732,5
38356,81733,5
38356,81726,5
38348,81722,4
38349,81725,5
38348,81720,5
38343,81717,5
38338,81710,5
38339,81690,4
38334,81697,5
38336,81688,5
38326,81685,5
38329,81688,5
38320,81669,4
38309,81651,5
38280,81601,11
38280,81601,4
38279,81586,4
38270,81575,5
38265,81570,5
38256,81563,5
38255,81569,4
38258,81550,5
38252,81551,5
38251,81541,5
38249,81541,5
38255,81542,4
38246,81537,5
38259,81548,5
38256,81544,5
38254,81546,5
38251,81542,4
38248,81544,5
38251,81550,5
38249,81536,5
38253,81534,5
38252,81547,4
38254,81543,5
38253,81538,5
38251,81534,5
38244,81538,5
38238,81534,4
38240,81517,5
38230,81507,5
38217,81484,5
38208,81463,4
38198,81438,5
38188,81413,5
38172,81399,5
38169,81383,5
38161,81374,4
38163,81365,5
38157,81352,5
38155,81349,5
38153,81342,5
38145,81332,4
38147,81344,5
38158,81349,5
38160,81369,5
38164,81383,5
38175,81394,5
38174,81403,4
38180,81410,5
38188,81418,5
38187,81415,5
38192,81408,4
38179,81401,5
38172,81392,5
38168,81365,5
38155,81364,4
38148,81360,5
38163,81364,5
38162,81361,5
38156,81359,5
38131,81370,4
38164,81366,5
38160,81372,5
38162,81364,5
38135,81382,5
38165,81392,4
38174,81397,5
38186,81403,6
38182,81418,4
38202,81440,5
38203,81437,4
38203,81442,7
38225,81449,3
38214,81465,5
38216,81477,4
38220,81480,4
38264,81493,5
38230,81489,5
38231,81487,5
38226,81497,4
38249,81491,5
38236,81501,5
38231,81490,5
38235,81504,5
38235,81505,4
38238,81502,5
38240,81510,5
38241,81516,5
38243,81501,5
38256,81514,4
38234,81506,5
38238,81511,5
38232,81471,6
38235,81495,4
38237,81504,4
38231,81498,5
38228,81467,5
38221,81493,5
38227,81489,4
38222,81472,4
38215,81471,5
38209,81461,5
38199,81450,5
38203,81446,4
38199,81469,5
38202,81441,5
38211,81431,5
38195,81414,5
38176,81450,4
38187,81412,5
38181,81411,5
38190,81408,5
38185,81428,5
38187,81423,5
38183,81415,4
38189,81422,5
38191,81422,5
38184,81426,6
38188,81429,3
38189,81433,5
38197,81437,5
38193,81440,5
38200,81441,4
38204,81439,5
38206,81441,5
38204,81442,5
38204,81443,5
38202,81451,4
38197,81438,5
38209,81444,5
38196,81444,5
38204,81441,5
38190,81444,4
38195,81446,5
38206,81435,5
38202,81447,5
38200,81438,5
38194,81428,4
38197,81440,6
38199,81437,4
38192,81429,5
38196,81436,5
38192,81432,6
38198,81429,3
38192,81438,5
38192,81430,5
38192,81435,4
38198,81428,5
38187,81427,5
38178,81411,5
38173,81408,5
38174,81381,4
38158,81361,5
38138,81334,5
38127,81295,5
38112,81272,5
38106,81270,4
38114,81290,5
38110,81286,5
38123,81299,5
38124,81298,5
38118,81299,4
38125,81286,5
38114,81298,6
38126,81303,4
38128,81310,5
38126,81310,4
38142,81318,5
38137,81331,5
38143,81340,5
38135,81353,4
38143,81344,5
38147,81349,5
38152,81336,5
38135,81324,5
38130,81313,4
38130,81318,5
38116,81285,5
38110,81280,5
38114,81290,5
38110,81293,4
38106,81283,5
38117,81285,5
38116,81294,5
38122,81298,5
38126,81317,4
38131,81308,5
38136,81324,5
38143,81341,6
38144,81344,3
38151,81355,4
38166,81368,5
38168,81381,5
38171,81399,5
38182,81405,4
38190,81425,5
38188,81430,5
38197,81444,5
38205,81455,5
38204,81462,4
38212,81480,5
38209,81488,5
38228,81495,5
38232,81501,5
38229,81513,4
38208,81511,5
38235,81535,5
38241,81528,5
38246,81528,5
38215,81546,5
38251,81545,4
38254,81551,5
38255,81554,5
38250,81562,6
38254,81560,3
38250,81562,5
38258,81556,5
38278,81563,5
38261,81568,4
38255,81566,5
38258,81573,5
38304,81583,5
38267,81578,5
38261,81574,4
38263,81567,5
38284,81578,5
38267,81569,5
38268,81578,5
38258,81575,4
38263,81582,5
38254,81579,5
38258,81567,5
38253,81568,5
38246,81552,4
38263,81565,6
38254,81567,4
38259,81574,5
38262,81552,4
38265,81583,4
38265,81582,5
38268,81593,5
38272,81556,5
38270,81603,4
38275,81605,5
38273,81595,5
38276,81595,5
38273,81599,5
38276,81608,4
38274,81606,5
38281,81631,5
38272,81604,5
38284,81607,5
38270,81605,4
38279,81640,5
38282,81605,5
38273,81597,5
38276,81593,5
38265,81611,4
38260,81586,5
38258,81578,6
38263,81588,4
38257,81577,4
38259,81578,5
38253,81569,5
38254,81555,5
38256,81560,5
38244,81556,4
38240,81544,5
38238,81547,5
38238,81525,5
38221,81519,5
38212,81501,4
38207,81484,5
38199,81468,5
38187,81435,5
38177,81433,5
38174,81428,4
38182,81430,5
38181,81442,5
38184,81464,5
38187,81459,5
38194,81471,4
38190,81470,5
38194,81472,5
38197,81487,5
38199,81485,4
38217,81492,5
38202,81494,5
38208,81508,5
38215,81501,5
38218,81504,4
38214,81495,5
38207,81492,5
38198,81493,5
38197,81469,5
38197,81470,4
38189,81468,5
38195,81456,5
38190,81453,5
38189,81465,5
38195,81470,4
38191,81475,5
38198,81484,5
38194,81486,5
38204,81510,4
38213,81515,5
38228,81516,4
38232,81533,5
38237,81548,5
38245,81569,4
38251,81577,5
38257,81594,5
38270,81599,5
38264,81613,5
38281,81639,4
38287,81650,5
38299,81676,5
38301,81679,5
38304,81687,5
38313,81716,4
38319,81726,5
38328,81744,5
38341,81753,5
38352,81772,5
38351,81783,4
38364,81802,5
38367,81806,5
38369,81823,5
38368,81826,4
38369,81831,4
38371,81834,6
38370,81824,4
38369,81813,5
38362,81809,4
38370,81800,5
38368,81810,5
38365,81806,5
38357,81804,5
38353,81789,4
38352,81790,5
38345,81789,5
38351,81779,5
38340,81786,5
38352,81798,4
38355,81801,5
38356,81795,5
38346,81805,5
38358,81814,5
38366,81834,4
38370,81839,5
38348,81850,5
38373,81857,5
38381,81865,4
38383,81865,5
38359,81879,5
38403,81899,5
38401,81896,5
38401,81895,4
38403,81898,5
38412,81912,5
38419,81924,5
38423,81934,5
38450,81929,4
38421,81940,5
38429,81932,5
38431,81945,5
38468,81934,5
38421,81941,4
38414,81924,5
38418,81920,5
38440,81936,5
38411,81932,5
38421,81936,4
38420,81931,5
38421,81936,5
38424,81936,5
38411,81925,5
38415,81931,4
38411,81891,5
38400,81902,5
38393,81884,5
38396,81878,4
38385,81840,5
38375,81841,5
38370,81838,5
38354,81818,5
38361,81780,4
38348,81812,5
38354,81818,5
38365,81831,5
38355,81837,5
38367,81830,4
38369,81835,5
38371,81841,5
38374,81870,5
38377,81850,4
38372,81840,4
38368,81845,5
38369,81886,5
38373,81857,5
38376,81862,4
38382,81861,6
38381,81887,4
38377,81856,5
38367,81851,5
38376,81843,4
38379,81849,5
38366,81842,5
38363,81841,5
38375,81846,5
38367,81842,4
38373,81846,5
38366,81849,5
38374,81855,5
38373,81869,5
38385,81868,4
38381,81871,5
38393,81890,5
38405,81910,9
38413,81912,0
38419,81945,4
38428,81960,5
38446,81980,5
38453,81999,5
38461,82023,4
38467,82030,5
38477,82049,5
38481,82061,5
38490,82075,5
38501,82083,4
38505,82097,5
38502,82096,5
38506,82101,5
38500,82096,5
38498,82093,4
38507,82102,5
38517,82115,5
38515,82116,5
38515,82108,5
38505,82099,4
38502,82094,5
38512,82099,5
38516,82115,5
38515,82104,5
38503,82093,4
38492,82073,5
38486,82044,5
38467,82023,6
38469,82013,3
38453,82006,5
38443,81987,5
38434,81960,5
38425,81954,5
38433,81951,4
38427,81948,5
38431,81955,5
38431,81949,5
38429,81941,5
38423,81953,4
38429,81967,5
38441,81963,5
38435,81976,5
38444,81981,5
38459,81992,4
38462,82001,5
38463,82013,5
38456,82007,5
38466,82006,4
38456,82010,6
38476,82023,4
38478,82034,5
38481,82058,5
38499,82069,6
38489,82071,3
38502,82088,5
38517,82125,5
38526,82125,5
38509,82115,4
38505,82092,5
38504,82089,5
38503,82087,5
38508,82093,5
38516,82101,4
38504,82074,5
38481,82040,5
38473,82015,5
38460,81990,4
38455,81995,4
38468,82005,5
38457,81983,5
38439,81966,5
38416,81936,4
38414,81913,5
38413,81909,6
38418,81922,4
38392,81941,5
38421,81939,4
38428,81948,5
38436,81950,5
38394,81944,5
38442,81969,5
38449,81979,4
38438,81958,5
38427,81938,5
38428,81953,5
38430,81956,5
38432,81976,4
38460,81953,5
38419,81939,5
38418,81919,5
38400,81895,4
38439,81890,4
38405,81896,5
38406,81904,5
38411,81910,5
38424,81917,4
38412,81908,5
38414,81907,5
38416,81919,6
38419,81940,4
38430,81957,4
38435,81964,5
38446,81980,5
38455,81966,5
38460,81990,5
38463,82003,4
38467,82009,5
38470,81985,5
38473,82017,5
38471,82020,5
38484,82029,4
38478,81998,5
38484,82045,5
38483,82047,5
38498,82050,4
38493,82042,5
38492,82041,5
38482,82040,5
38487,82038,5
38486,82062,5
38487,82028,4
38477,82015,5
38473,82000,5
38463,82036,6
38464,81981,3
38456,81979,5
38453,81973,5
38447,81962,5
38445,81942,5
38434,81925,4
38427,81916,5
38408,81902,5
38406,81887,5
38405,81881,5
38407,81862,4
38407,81865,5
38394,81856,5
38392,81854,5
38386,81844,4
38398,81853,5
38387,81844,5
38395,81843,5
38385,81835,5
38387,81847,4
38392,81844,6
38394,81838,4
38397,81853,5
38399,81853,5
38398,81859,4
38403,81862,5
38403,81871,5
38411,81864,5
38408,81866,5
38413,81871,4
38419,81889,5
38417,81883,5
38418,81883,5
38416,81889,4
38416,81877,4
38412,81878,5
38406,81865,5
38393,81854,5
38398,81835,4
38383,81823,5
38378,81803,5
38365,81794,5
38361,81786,5
38361,81774,4
38355,81771,5
38357,81774,6
38345,81768,4
38349,81764,5
38362,81765,4
38347,81760,5
38355,81769,5
38353,81767,5
38362,81766,5
38353,81768,4
38358,81759,5
38346,81758,5
38343,81749,5
38337,81744,4
38334,81709,4
38322,81707,5
38315,81680,5
38294,81653,5
38291,81644,4
38290,81643,5
38296,81643,5
38285,81642,5
38292,81629,5
38289,81622,4
38286,81635,5
38294,81642,5
38292,81648,6
38303,81659,4
38306,81670,4
38314,81667,5
38321,81686,5
38324,81693,5
38326,81703,5
38337,81709,4
38341,81729,5
38342,81736,5
38353,81739,5
38351,81754,4
38364,81753,4
38371,81753,5
38361,81766,5
38368,81774,5
38376,81782,4
38380,81777,5
38371,81785,5
38374,81793,5
38384,81783,5
38380,81783,5
38357,81789,4
38372,81782,5
38373,81779,5
38373,81771,5
38337,81766,4
38367,81766,5
38355,81744,5
38352,81738,5
38320,81729,5
38348,81716,4
38335,81709,5
38326,81697,5
38336,81691,5
38322,81672,4
38321,81672,5
38311,81657,5
38346,81660,5
38307,81665,5
38318,81664,4
38310,81654,5
38343,81655,5
38322,81657,5
38307,81657,5
38302,81666,4
38327,81657,6
38314,81659,4
38311,81662,5
38317,81666,5
38320,81675,4
38326,81684,5
38324,81680,5
38330,81680,5
38327,81667,4
38326,81694,4
38334,81691,5
38336,81696,5
38336,81674,5
38339,81700,4
38347,81701,5
38343,81708,5
38344,81669,5
38341,81690,5
38332,81690,4
38332,81686,5
38323,81688,5
38314,81666,5
38309,81652,5
38307,81645,4
38302,81667,5
38295,81615,6
38284,81604,4
38271,81580,5
38268,81599,4
38251,81534,5
38236,81496,5
38217,81463,5
38212,81454,4
38187,81432,4
38191,81412,5
38176,81394,5
38161,81379,5
38164,81370,4
38161,81372,5
38172,81377,5
38172,81387,5
38180,81401,5
38189,81409,4
38185,81424,5
38189,81423,5
38189,81432,5
38203,81442,5
38196,81441,4
38194,81424,5
38182,81399,5
38175,81382,5
38160,81363,5
38152,81340,4
38138,81326,5
38141,81310,5
38130,81314,5
38137,81308,4
38128,81310,5
38136,81306,5
38131,81304,5
38139,81314,5
38140,81321,4
38146,81323,5
38146,81330,5
38156,81355,5
38163,81354,5
38163,81365,4
38168,81384,5
38187,81394,5
38186,81395,5
38190,81417,5
38196,81433,5
38199,81438,4
38215,81459,5
38225,81479,5
38236,81485,5
38240,81509,4
38247,81526,5
38244,81527,5
38247,81529,5
38249,81545,4
38253,81550,5
38256,81556,5
38263,81557,5
38257,81551,5
38267,81539,4
38260,81546,5
38248,81533,5
38255,81531,5
38245,81527,5
38238,81516,4
38237,81507,5
38233,81498,5
38228,81485,5
38225,81472,5
38203,81457,4
38208,81445,6
38200,81434,4
38180,81419,5
38190,81416,5
38192,81413,4
38176,81400,5
38183,81403,5
38181,81396,5
38171,81387,4
38167,81380,5
38170,81388,5
38171,81380,5
38176,81377,5
38170,81385,4
38175,81393,5
38176,81393,5
38182,81388,5
38180,81396,5
38180,81390,4
38179,81386,5
38188,81394,5
38179,81400,5
38181,81401,5
38185,81405,4
38185,81414,5
38167,81416,5
38202,81423,5
38188,81422,4
38194,81419,4
38168,81421,5
38189,81429,5
38192,81414,5
38199,81416,4
38155,81418,5
38194,81419,5
38187,81402,5
38183,81393,5
38182,81387,4
38175,81369,5
38146,81346,5
38137,81319,5
38152,81286,5
38108,81257,5
38102,81247,4
38084,81228,5
38111,81212,5
38072,81195,6
38069,81194,3
38074,81195,5
38086,81209,5
38075,81203,5
38084,81213,4
38084,81204,5
38082,81206,5
38086,81210,5
38085,81219,5
38092,81226,4
38088,81217,5
38092,81236,5
38095,81235,5
38090,81231,5
38082,81184,4
38074,81194,5
38059,81171,5
38058,81170,5
38051,81121,5
38040,81145,4
38039,81147,6
38041,81138,4
38038,81152,5
38047,81141,5
38039,81135,6
38050,81151,3
38062,81188,5
38057,81165,5
38065,81183,4
38069,81186,5
38073,81241,5
38078,81223,5
38089,81242,5
38098,81249,8
38106,81280,1
38108,81281,5
38127,81300,5
38139,81322,5
38144,81356,4
38154,81369,5
38171,81394,5
38179,81406,5
38186,81423,5
38184,81435,4
38192,81440,5
38205,81449,6
38201,81464,4
38208,81466,5
38206,81472,4
38212,81470,5
38206,81465,5
38206,81466,5
38210,81470,4
38206,81474,5
38204,81461,5
38205,81457,5
38195,81458,5
38202,81453,4
38196,81445,5
38196,81435,5
38193,81437,5
38182,81428,5
38185,81419,4
38187,81428,5
38185,81416,5
38171,81415,5
38184,81412,5
38182,81421,4
38186,81415,5
38185,81413,5
38174,81411,6
38179,81417,3
38179,81418,4
38185,81412,5
38185,81428,5
38188,81438,5
38203,81455,4
38204,81464,5
38208,81488,5
38225,81500,5
38233,81520,5
38238,81532,4
38248,81551,5
38233,81560,5
38247,81561,5
38253,81569,5
38251,81573,4
38267,81578,5
38267,81592,5
38255,81596,5
38267,81583,5
38272,81587,5
38265,81579,4
38260,81568,5
38249,81572,5
38246,81565,6
38250,81561,3
38249,81565,5
38241,81558,5
38240,81554,5
38248,81553,4
38245,81555,5
38237,81548,5
38250,81555,5
38245,81558,5
38246,81557,4
38238,81551,5
38237,81550,5
38233,81545,5
38239,81549,5
38237,81558,4
38242,81562,5
38243,81564,5
38243,81550,5
38238,81549,5
38228,81531,4
38229,81508,6
38211,81477,4
38190,81465,5
38187,81458,4
38189,81457,4
38194,81480,5
38206,81473,5
38181,81484,5
38206,81477,4
38212,81497,5
38205,81488,5
38182,81499,5
38211,81504,5
38215,81511,4
38220,81507,5
38187,81511,5
38220,81524,5
38232,81534,5
38225,81534,4
38240,81534,5
38227,81531,5
38224,81536,5
38224,81526,5
38238,81507,4
38204,81494,5
38192,81474,6
38189,81469,4
38220,81444,4
38184,81443,5
38175,81447,5
38171,81439,5
38186,81431,5
38175,81431,4
38167,81436,5
38171,81438,5
38186,81450,5
38183,81462,5
38187,81472,4
38192,81472,5
38206,81470,5
38212,81507,5
38211,81516,5
38225,81526,4
38229,81518,5
38241,81547,5
38246,81583,5
38262,81599,5
38264,81581,4
38263,81612,5
38268,81622,5
38279,81633,6
38282,81639,3
38277,81644,5
38286,81646,5
38283,81647,5
38292,81686,5
38292,81660,4
38296,81665,5
38282,81657,5
38287,81688,5
38288,81663,5
38294,81659,4
38284,81661,5
38279,81659,5
38287,81638,5
38276,81624,5
38267,81632,4
38264,81619,5
38261,81600,5
38259,81593,5
38253,81587,4
38248,81586,5
38244,81573,4
38243,81571,5
38236,81566,5
38241,81576,4
38246,81569,5
38240,81565,5
38241,81558,5
38233,81560,5
38234,81563,4
38235,81568,5
38241,81577,5
38239,81579,5
38234,81591,5
38249,81583,4
38247,81595,5
38256,81606,5
38261,81596,5
38255,81618,5
38263,81614,4
38270,81624,5
38267,81632,5
38263,81631,5
38265,81638,4
38272,81642,4
38271,81645,6
38269,81652,4
38270,81646,5
38275,81644,4
38271,81648,5
38276,81643,5
38271,81646,5
38269,81628,5
38251,81611,4
38250,81602,5
38245,81607,5
38247,81603,5
38252,81605,5
38238,81592,4
38248,81581,5
38236,81591,5
38233,81578,5
38234,81575,5
38231,81567,4
38227,81575,5
38224,81570,5
38223,81561,5
38214,81552,4
38219,81543,5
38195,81525,5
38195,81507,6
38189,81513,4
38195,81509,4
38193,81520,5
38196,81519,5
38199,81516,5
38194,81516,5
38204,81525,4
38201,81539,5
38198,81535,5
38204,81538,5
38207,81545,5
38206,81550,4
38204,81556,5
38210,81554,5
38204,81558,5
38223,81564,5
38206,81563,4
38204,81559,5
38212,81562,5
38210,81552,5
38209,81538,5
38197,81526,4
38190,81506,5
38172,81488,5
38162,81480,5
38164,81456,4
38153,81449,5
38155,81448,5
38154,81444,5
38155,81450,5
38142,81449,4
38170,81462,5
38172,81478,5
38178,81477,5
38147,81493,5
38188,81501,4
38197,81520,5
38208,81541,5
38188,81559,5
38226,81568,4
38237,81593,4
38251,81615,5
38271,81633,5
38260,81648,5
38275,81675,4
38287,81696,6
38331,81707,4
38301,81730,5
38309,81739,5
38313,81743,4
38343,81757,5
38321,81759,5
38311,81762,5
38311,81764,5
38336,81769,4
38317,81768,5
38311,81757,5
38300,81740,5
38303,81743,5
38299,81760,4
38304,81752,5
38295,81747,5
38283,81708,5
38265,81681,4
38251,81654,4
38250,81641,5
38243,81602,5
38235,81628,5
38221,81610,4
38225,81609,5
38226,81577,6
38228,81598,4
38209,81574,5
38197,81553,4
38188,81537,5
38170,81502,5
38161,81491,5
38154,81483,5
38167,81523,4
38168,81517,5
38180,81525,5
38183,81543,5
38190,81579,5
38187,81552,4
38195,81545,5
38193,81565,5
38186,81576,5
38199,81570,4
38198,81588,5
38199,81573,5
38204,81586,5
38210,81582,5
38199,81584,4
38200,81586,5
38206,81595,5
38208,81594,5
38217,81610,5
38214,81626,4
38224,81635,5
38227,81640,5
38233,81649,5
38240,81661,5
38245,81664,4
38241,81669,5
38238,81660,5
38239,81663,5
38236,81661,5
38228,81654,4
38231,81653,5
38220,81640,5
38219,81633,5
38202,81629,4
38201,81612,5
38202,81609,5
38202,81613,5
38197,81605,5
38198,81610,5
38199,81599,3
38201,81603,5
38200,81603,5
38195,81606,5
38195,81619,4
38211,81612,5
38199,81610,5
38196,81615,5
38205,81608,5
38202,81610,4
38198,81589,5
38178,81577,5
38175,81572,5
38185,81557,5
38172,81551,4
38158,81528,5
38157,81536,5
38159,81536,5
38159,81540,4
38161,81541,5
38170,81541,6
38160,81553,4
38175,81573,5
38174,81573,4
38189,81581,7
38185,81585,3
38188,81603,5
38201,81616,5
38214,81628,4
38210,81661,5
38230,81664,5
38243,81688,5
38244,81704,5
38254,81705,4
38257,81721,5
38259,81734,5
38272,81736,5
38284,81753,4
38284,81759,4
38291,81771,5
38289,81771,5
38290,81777,5
38293,81778,4
38301,81789,5
38298,81782,5
38301,81781,6
38290,81780,4
38283,81768,4
38286,81755,5
38286,81759,5
38278,81741,5
38276,81736,5
38262,81716,4
38266,81704,5
38250,81693,5
38242,81683,5
38242,81663,5
38231,81655,4
38207,81643,5
38224,81644,5
38219,81642,5
38216,81635,4
38187,81639,4
38218,81634,5
38216,81647,5
38218,81634,5
38191,81640,5
38227,81647,4
38228,81657,5
38231,81657,5
38242,81672,6
38235,81675,3
38250,81696,5
38250,81703,5
38292,81708,5
38264,81718,5
38263,81721,4
38271,81726,5
38309,81739,5
38268,81740,5
38281,81737,5
38277,81740,4
38295,81745,5
38274,81741,5
38268,81731,5
38259,81722,4
38261,81701,5
38249,81689,5
38245,81685,5
38236,81668,5
38234,81636,4
38229,81654,6
38220,81643,4
38218,81629,5
38213,81601,5
38216,81624,11
38223,81638,3
38215,81632,5
38216,81611,5
38221,81639,4
38221,81631,5
38225,81632,5
38227,81643,5
38216,81632,5
38208,81615,4
38201,81601,5
38192,81622,5
38189,81568,5
38173,81540,4
38157,81514,5
38152,81533,5
38153,81502,5
38148,81491,5
38153,81498,4
38141,81501,5
38148,81494,6
38149,81493,4
38160,81507,5
38166,81528,4
38175,81526,5
38181,81562,5
38189,81563,5
38192,81578,5
38198,81596,4
38209,81608,5
38221,81620,5
38234,81640,5
38236,81649,4
38240,81659,4
38248,81682,5
38249,81695,5
38255,81697,5
38263,81723,4
38266,81722,5
38286,81725,5
38272,81738,5
38277,81742,5
38287,81742,4
38279,81745,5
38274,81752,5
38282,81755,6
38288,81753,4
38285,81749,4
38288,81743,5
38282,81750,5
38278,81746,5
38279,81736,5
38277,81726,4
38269,81717,5
38261,81718,5
38248,81682,5
38244,81675,4
38241,81666,4
38234,81658,5
38238,81655,5
38243,81665,5
38230,81661,4
38240,81662,5
38242,81671,5
38233,81665,5
38239,81667,5
38235,81672,5
38239,81669,4
38250,81676,5
38240,81681,5
38244,81681,6
38247,81688,3
38251,81678,5
38252,81674,5
38248,81687,5
38251,81692,5
38255,81695,4
38250,81702,5
38257,81695,5
38258,81703,5
38258,81701,4
38261,81694,4
38259,81698,5
38250,81685,5
38250,81674,5
38244,81665,4
38234,81665,5
38228,81659,5
38227,81651,5
38221,81651,5
38224,81635,4
38212,81633,6
38216,81623,4
38219,81618,5
38218,81633,5
38225,81649,4
38233,81649,5
38233,81651,5
38231,81655,5
38230,81653,5
38225,81640,4
38220,81631,5
38215,81606,5
38198,81588,5
38190,81576,4
38184,81554,5
38173,81545,5
38171,81546,5
38150,81540,5
38183,81551,4
38175,81559,5
38175,81560,5
38159,81568,5
38191,81567,5
38191,81579,4
38201,81583,5
38179,81563,6
38189,81570,4
38188,81572,5
38192,81569,4
38211,81561,5
38192,81568,5
38192,81568,5
38192,81586,5
38231,81583,4
38193,81574,5
38189,81554,5
38195,81538,5
38206,81536,4
38181,81531,5
38183,81531,5
38183,81552,5
38187,81551,5
38172,81529,4
38166,81509,5
38162,81500,5
38165,81488,5
38174,81519,5
38168,81525,4
38163,81517,5
38167,81475,5
38156,81505,6
38147,81492,4
38148,81476,4
38142,81431,5
38144,81469,5
38138,81462,5
38150,81455,4
38137,81427,4
38116,81424,5
38120,81436,5
38132,81442,5
38131,81456,4
38129,81439,5
38125,81443,5
38130,81446,5
38134,81480,5
38136,81458,4
38140,81457,5
38137,81456,5
38137,81500,5
38152,81471,5
38143,81489,5
38152,81485,4
38150,81483,5
38152,81475,5
38149,81465,5
38137,81471,4
38133,81468,5
38132,81461,5
38131,81448,5
38131,81445,4
38117,81432,4
38123,81428,5
38118,81425,5
38114,81415,5
38105,81420,4
38111,81415,5
38098,81420,5
38117,81409,5
38109,81412,5
38118,81422,4
38127,81439,5
38130,81455,5
38136,81458,5
38133,81447,5
38141,81441,4
38126,81433,6
38117,81421,4
38107,81405,5
38111,81385,5
38093,81359,4
38079,81355,5
38087,81349,5
38090,81357,5
38089,81357,4
38090,81362,5
38090,81354,5
38091,81362,5
38099,81367,5
38090,81362,4
38096,81367,5
38103,81375,5
38104,81384,5
38101,81399,5
38105,81399,4
38117,81400,5
38112,81416,5
38123,81426,5
38131,81434,5
38138,81443,4
38144,81467,5
38144,81472,6
38152,81479,4
38157,81479,5
38153,81479,4
38149,81487,5
38151,81488,5
38151,81482,5
38146,81473,4
38138,81465,5
38143,81461,5
38139,81457,5
38138,81454,5
38134,81451,4
38140,81458,5
38145,81442,5
38125,81434,5
38126,81422,5
38113,81407,4
38104,81409,5
38104,81400,5
38107,81384,5
38099,81374,5
38087,81370,4
38086,81366,5
38078,81359,5
38082,81345,5
38070,81342,4
38066,81325,4
38059,81309,5
38060,81303,5
38057,81312,5
38075,81319,4
38077,81335,5
38077,81345,5
38073,81333,5
38062,81304,5
38053,81290,4
38037,81299,5
38053,81302,5
38062,81296,5
38055,81292,5
38032,81283,4
38047,81280,5
38048,81275,5
38057,81295,5
38032,81316,5
38075,81338,5
38076,81341,4
38066,81332,5
38054,81318,5
38058,81324,4
38067,81333,4
38069,81343,5
38084,81330,5
38065,81312,5
38047,81306,4
38035,81286,5
38066,81275,5
38034,81261,5
38015,81219,5
37995,81194,4
38006,81161,5
37979,81149,5
37980,81143,5
37977,81157,5
37987,81185,4
37999,81181,5
37989,81181,5
37997,81195,4
38017,81211,5
38025,81249,4
38042,81284,7
38050,81289,3
38035,81236,5
38029,81258,4
38037,81261,5
38033,81266,5
38039,81254,5
38041,81295,5
38039,81295,4
38047,81292,5
38036,81278,5
38043,81278,5
38050,81299,5
38060,81321,4
38066,81358,5
38069,81343,5
38072,81361,5
38075,81363,5
38088,81416,4
38092,81397,5
38109,81394,5
38113,81403,6
38110,81431,4
38110,81412,4
38114,81418,5
38110,81414,5
38120,81429,5
38110,81410,4
38112,81416,5
38115,81423,5
38129,81427,5
38131,81445,5
38142,81457,4
38139,81460,5
38148,81467,5
38158,81488,5
38163,81488,5
38169,81490,4
38165,81503,5
38156,81499,5
38162,81510,5
38174,81505,5
38168,81502,5
38170,81516,4
38164,81508,5
38166,81500,5
38154,81493,6
38160,81491,3
38157,81480,5
38150,81465,5
38137,81459,5
38142,81455,4
38138,81451,5
38136,81438,5
38124,81426,5
38124,81422,5
38124,81421,4
38122,81408,5
38123,81408,5
38108,81394,5
38110,81395,5
38110,81392,4
38103,81385,5
38099,81382,5
38101,81371,5
38102,81372,5
38088,81366,4
38090,81363,6
38100,81355,4
38096,81352,5
38097,81350,4
38088,81359,4
38084,81353,5
38086,81346,5
38092,81346,5
38080,81357,4
38084,81345,5
38084,81348,5
38089,81356,5
38087,81350,5
38092,81349,4
38087,81354,5
38086,81360,5
38089,81362,5
38093,81355,5
38092,81350,4
38090,81358,5
38087,81341,5
38089,81340,5
38080,81334,5
38083,81336,4
38072,81332,5
38074,81313,6
38070,81314,4
38065,81297,4
38047,81288,4
38046,81266,5
38028,81244,5
38006,81210,5
38004,81178,4
37989,81165,5
37979,81145,5
37972,81142,5
37978,81135,5
37968,81143,4
37979,81152,5
37982,81153,5
37987,81162,5
37978,81160,5
37990,81169,4
37984,81183,5
37978,81181,5
38007,81186,5
38005,81199,5
38010,81211,4
37986,81214,5
38021,81213,5
38021,81222,6
38012,81234,3
37978,81220,5
38003,81194,5
38008,81205,5
38002,81189,5
37993,81184,4
37986,81179,5
37997,81193,5
37997,81195,5
38027,81194,5
38004,81200,4
38014,81203,5
38007,81203,5
38048,81220,5
38017,81224,5
38019,81236,4
38023,81239,10
38050,81247,5
38038,81257,5
38048,81273,5
38055,81282,4
38067,81290,5
38056,81314,5
38066,81312,6
38075,81334,3
38080,81320,5
38085,81349,5
38094,81362,5
38099,81366,4
38098,81348,5
38108,81383,5
38110,81393,5
38111,81386,5
38107,81368,4
38114,81403,5
38117,81423,5
38122,81426,5
38116,81421,5
38128,81433,4
38131,81434,5
38131,81433,5
38129,81474,5
38139,81432,4
38134,81428,4
38132,81439,6
38141,81481,4
38124,81432,5
38124,81425,4
38134,81430,5
38123,81438,5
38115,81415,5
38122,81415,5
38112,81404,4
38116,81419,5
38110,81411,5
38115,81411,5
38114,81411,5
38102,81397,4
38105,81407,5
38107,81409,5
38103,81405,5
38112,81411,5
38113,81405,4
38116,81408,5
38121,81416,5
38112,81406,5
38108,81432,4
38123,81428,4
38117,81433,5
38127,81438,6
38120,81449,4
38121,81446,4
38132,81455,5
38127,81461,5
38131,81463,5
38132,81464,5
38140,81464,4
38138,81457,5
38146,81462,5
38137,81460,5
38127,81451,5
38128,81447,4
38116,81466,5
38115,81445,5
38125,81443,5
38128,81446,5
38129,81441,4
38123,81440,5
38119,81439,5
38116,81437,5
38118,81424,5
38113,81425,4
38117,81411,5
38101,81413,5
38103,81409,5
38105,81399,4
38101,81402,5
38095,81397,5
38096,81383,5
38088,81394,5
38089,81384,4
38087,81381,5
38080,81383,5
38088,81373,5
38086,81368,5
38082,81366,4
38076,81352,5
38063,81349,5
38063,81336,5
38054,81327,5
38047,81299,4
38030,81281,5
38028,81261,5
38011,81233,5
37996,81215,4
37994,81216,6
37999,81228,4
38001,81229,5
38002,81227,5
37998,81226,4
38004,81227,5
38003,81229,5
38009,81231,5
38009,81235,5
38005,81247,4
38007,81244,5
38015,81252,5
38016,81260,5
38015,81268,5
38019,81263,4
38023,81266,5
38018,81253,5
38013,81254,5
38009,81236,4
37991,81209,4
37997,81189,5
37988,81182,5
37973,81168,5
37957,81171,4
37970,81179,5
37971,81176,6
37970,81175,4
37940,81170,5
37981,81174,4
37964,81174,5
37966,81185,5
37941,81191,5
37987,81199,5
37989,81215,4
37984,81226,5
38003,81237,5
38006,81243,5
38004,81257,5
38009,81258,4
38042,81279,5
38029,81285,5
38036,81299,5
38039,81299,4
38074,81320,4
38039,81329,5
38052,81338,5
38055,81337,5
38081,81353,4
38057,81366,5
38065,81364,5
38070,81374,5
38078,81376,5
38077,81385,4
38083,81396,5
38085,81399,5
38092,81396,5
38096,81425,5
38092,81427,4
38099,81435,5
38096,81408,5
38102,81450,5
38106,81458,5
38114,81462,4
38110,81434,5
38107,81454,5
38108,81462,5
38114,81462,4
38107,81473,5
38104,81481,5
38108,81473,5
38109,81470,5
38117,81504,5
38108,81482,4
38119,81492,5
38124,81495,5
38122,81523,5
38132,81509,4
38134,81513,5
38133,81516,5
38142,81566,5
38154,81543,5
38164,81563,4
38165,81582,5
38166,81599,5
38177,81603,5
38186,81618,5
38184,81602,4
38176,81608,5
38178,81601,5
38171,81594,5
38176,81581,4
38169,81579,5
38168,81591,5
38173,81580,5
38163,81583,5
38171,81596,4
38176,81591,6
38171,81582,4
38164,81577,5
38151,81560,5
38151,81547,4
38142,81552,5
38150,81558,5
38153,81578,5
38167,81586,5
38172,81592,4
38175,81616,5
38187,81636,5
38198,81659,5
38201,81652,4
38198,81653,4
38192,81654,5
38197,81660,5
38208,81664,5
38202,81651,4
38185,81641,5
38182,81645,5
38184,81659,5
38201,81665,5
38200,81673,4
38201,81671,5
38192,81652,5
38174,81630,5
38171,81606,5
38154,81586,4
38147,81584,5
38158,81586,5
38155,81568,5
38149,81569,5
38146,81566,4
38137,81564,5
38155,81568,5
38143,81576,5
38151,81575,4
38144,81562,4
38131,81546,5
38144,81546,5
38145,81561,5
38152,81594,5
38172,81614,4
38161,81617,5
38160,81599,5
38158,81583,6
38137,81566,3
38134,81551,5
38139,81544,5
38125,81542,5
38124,81540,5
38111,81520,4
38104,81486,5
38108,81495,5
38110,81487,5
38102,81494,5
38109,81506,4
38122,81524,5
38144,81553,5
38152,81569,5
38150,81573,4
38152,81574,5
38165,81586,5
38161,81590,5
38162,81606,5
38175,81611,4
38175,81635,6
38185,81645,4
38196,81661,5
38203,81678,5
38210,81683,6
38209,81697,3
38223,81705,5
38224,81705,5
38232,81713,5
38197,81709,4
38225,81712,5
38240,81720,5
38234,81709,5
38201,81723,5
38238,81731,4
38248,81728,5
38244,81738,5
38233,81734,5
38243,81727,4
38229,81730,5
38236,81712,5
38256,81708,5
38211,81697,5
38211,81681,4
38213,81670,5
38239,81658,6
38195,81650,4
38193,81648,5
38190,81626,4
38201,81625,5
38185,81621,5
38183,81610,5
38182,81624,5
38182,81619,4
38188,81612,5
38185,81611,5
38185,81621,5
38182,81612,4
38189,81617,4
38186,81626,5
38200,81636,5
38200,81614,5
38199,81646,4
38197,81653,5
38196,81655,5
38203,81620,5
38210,81656,5
38202,81652,4
38205,81659,5
38204,81654,5
38211,81655,6
38204,81655,4
38198,81644,4
38201,81671,5
38196,81645,5
38196,81628,5
38195,81626,5
38184,81649,4
38177,81592,5
38171,81574,5
38154,81556,5
38145,81558,4
38143,81525,4
38135,81508,5
38130,81499,5
38119,81503,5
38121,81484,4
38120,81488,5
38119,81477,5
38116,81488,5
38118,81491,5
38125,81492,5
38118,81494,4
38116,81502,5
38122,81504,5
38113,81493,6
38111,81489,3
38116,81474,5
38106,81477,5
38105,81460,5
38093,81431,5
38075,81419,4
38083,81406,5
38067,81381,5
38059,81369,5
38051,81353,4
38050,81352,4
38042,81346,5
38044,81340,5
38048,81349,5
38048,81345,4
38049,81349,5
38058,81363,5
38057,81368,5
38075,81378,5
38076,81391,4
38085,81401,6
38084,81407,4
38085,81424,5
38096,81428,5
38104,81441,4
38110,81458,5
38113,81459,5
38120,81467,5
38127,81476,5
38134,81487,4
38128,81488,5
38139,81505,5
38135,81507,5
38150,81514,4
38149,81514,4
38150,81522,5
38146,81518,5
38144,81521,5
38150,81530,4
38155,81529,5
38155,81520,5
38140,81515,5
38142,81507,5
38140,81508,4
38135,81505,5
38128,81491,6
38122,81488,4
38128,81471,5
38119,81468,4
38115,81460,5
38108,81445,5
38106,81436,5
38095,81433,5
38101,81433,4
38097,81429,5
38103,81432,5
38106,81429,5
38107,81434,4
38100,81438,4
38106,81439,5
38104,81447,5
38110,81446,5
38113,81461,4
38112,81468,5
38128,81491,5
38138,81499,5
38143,81514,5
38146,81524,4
38147,81532,5
38160,81549,5
38156,81563,6
38165,81560,4
38178,81584,4
38175,81578,5
38169,81589,5
38184,81590,5
38179,81582,5
38178,81570,4
38149,81564,5
38164,81563,8
38162,81538,2
38151,81521,4
38108,81502,5
38140,81493,5
38119,81470,5
38119,81458,5
38089,81449,4
38099,81445,5
38101,81438,5
38092,81440,5
38124,81442,5
38099,81445,5
38099,81431,4
38104,81435,5
38140,81453,5
38103,81454,5
38109,81460,4
38124,81478,5
38148,81477,5
38112,81466,5
38103,81454,5
38105,81459,4
38113,81441,5
38094,81420,5
38078,81401,5
38074,81383,4
38079,81373,5
38071,81386,5
38072,81382,5
38068,81385,5
38066,81358,4
38075,81374,5
38063,81373,5
38066,81371,5
38064,81358,5
38073,81396,4
38076,81398,6
38081,81418,4
38089,81401,5
38090,81420,5
38086,81420,4
38093,81419,5
38083,81434,5
38080,81399,5
38077,81390,4
38086,81420,4
38093,81466,5
38100,81438,5
38105,81442,5
38113,81459,4
38112,81507,5
38112,81484,5
38124,81494,5
38113,81481,5
38120,81506,4
38131,81518,5
38145,81531,5
38147,81523,5
38145,81524,5
38145,81539,4
38136,81532,5
38140,81544,6
38150,81549,4
38157,81558,5
38155,81551,4
38149,81538,5
38131,81515,5
38122,81510,5
38136,81515,4
38133,81521,4
38132,81529,5
38127,81525,5
38132,81511,5
38125,81501,4
38119,81501,5
38131,81508,5
38136,81507,5
38135,81510,5
38129,81492,4
38120,81506,5
38123,81493,5
38124,81508,5
38133,81526,5
38138,81526,4
38138,81518,5
38124,81499,5
38122,81493,5
38129,81499,5
38129,81517,4
38129,81510,5
38128,81502,5
38118,81501,5
38112,81467,4
38089,81435,4
38080,81422,5
38075,81409,5
38078,81418,5
38080,81424,4
38082,81411,5
38072,81411,5
38065,81404,5
38066,81391,5
38066,81380,4
38073,81390,5
38073,81408,5
38075,81419,5
38085,81433,5
38095,81439,5
38100,81448,4
38098,81445,5
38087,81436,5
38090,81434,5
38083,81428,4
38079,81409,5
38061,81394,5
38067,81377,5
38065,81366,4
38049,81362,5
38059,81364,5
38056,81355,5
38055,81369,5
38058,81363,4
38060,81370,5
38060,81378,5
38071,81381,5
38073,81384,5
38084,81402,4
38080,81408,5
38081,81406,5
38079,81414,5
38093,81423,5
38094,81422,4
38090,81433,6
38093,81431,4
38108,81440,5
38101,81443,5
38104,81447,4
38103,81453,5
38108,81453,5
38098,81460,5
38117,81471,4
38118,81464,5
38122,81464,5
38091,81462,5
38107,81465,5
38116,81467,4
38118,81459,5
38078,81451,5
38114,81458,5
38104,81448,5
38102,81450,4
38067,81439,5
38093,81443,5
38089,81429,5
38075,81413,5
38089,81401,4
38070,81390,5
38074,81378,5
38051,81369,5
38089,81356,4
38053,81349,4
38055,81356,5
38053,81349,5
38081,81329,5
38039,81326,4
38034,81326,5
38032,81319,5
38051,81313,5
38033,81323,5
38035,81313,4
38034,81318,5
38036,81316,5
38034,81322,5
38030,81324,5
38038,81321,4
38039,81308,5
38043,81326,5
38043,81327,5
38045,81341,5
38042,81306,4
38049,81349,5
38046,81343,5
38054,81351,5
38056,81313,4
38054,81349,4
38058,81355,5
38058,81355,5
38047,81367,5
38042,81353,4
38048,81354,5
38055,81337,5
38055,81383,5
38039,81342,5
38038,81330,4
38041,81329,5
38039,81348,5
38030,81303,5
38014,81282,5
38007,81266,4
37994,81258,6
37978,81209,4
37968,81173,5
37952,81159,5
37939,81136,6
37928,81126,3
37930,81118,5
37923,81123,5
37936,81125,4
37951,81144,4
37945,81143,5
37939,81155,5
37952,81157,5
37945,81157,4
37948,81159,5
37954,81177,5
37970,81182,5
37960,81187,5
37963,81178,4
37961,81185,5
37970,81184,5
37962,81179,5
37955,81161,5
37941,81152,4
37942,81133,5
37938,81127,6
37932,81122,4
37926,81124,5
37930,81127,4
37931,81125,5
37928,81115,5
37940,81119,5
37931,81122,4
37923,81119,5
37930,81126,5
37933,81135,5
37930,81141,5
37948,81147,4
37942,81155,5
37953,81162,5
37955,81171,5
37970,81180,5
37973,81186,4
37975,81206,5
37973,81212,5
37987,81231,5
37993,81253,5
37997,81260,4
38006,81266,5
38022,81277,5
38022,81287,6
38025,81286,4
38033,81294,4
38027,81303,5
38032,81312,5
38040,81323,5
38044,81330,4
38047,81330,5
38051,81338,5
38052,81340,5
38045,81338,5
38051,81337,4
38048,81333,5
38049,81333,5
38039,81331,5
38050,81326,5
38041,81325,4
38040,81322,5
38043,81318,5
38033,81315,5
38037,81314,5
38031,81298,5
38029,81298,4
38029,81289,5
38016,81289,5
38022,81281,6
38014,81278,3
38019,81277,5
38011,81272,5
38014,81269,5
38011,81263,4
38001,81267,5
38009,81252,5
37999,81260,5
38011,81253,5
38001,81262,4
38014,81259,5
38015,81264,5
38008,81268,5
37988,81269,5
38020,81275,4
38022,81282,5
38014,81281,5
37994,81281,5
38025,81285,5
38026,81281,4
38023,81291,6
38004,81287,4
38016,81291,5
38027,81284,4
38022,81293,4
38027,81292,5
38019,81283,5
38011,81288,5
38012,81280,4
38042,81279,5
38014,81273,5
38019,81269,5
38009,81267,5
38039,81259,4
37996,81246,5
37997,81236,5
37985,81219,5
37994,81213,5
37957,81182,4
37951,81148,5
37930,81128,5
37924,81104,5
37916,81084,5
37902,81076,4
37906,81080,5
37907,81065,6
37901,81092,4
37915,81080,4
37912,81093,5
37923,81065,5
37913,81095,5
37933,81109,5
37931,81123,4
37931,81100,5
37934,81131,5
37946,81145,5
37949,81154,5
37944,81156,4
37955,81161,5
37948,81148,5
37944,81139,5
37935,81155,5
37926,81115,4
37919,81105,5
37919,81091,5
37908,81128,5
37921,81096,5
37925,81095,4
37911,81098,5
37910,81106,5
37911,81100,6
37916,81094,3
37917,81097,5
37933,81117,5
37936,81124,5
37935,81128,5
37936,81139,4
37951,81158,5
37955,81175,5
37963,81182,5
37974,81181,5
37975,81208,4
37982,81211,5
37989,81233,5
37996,81231,5
38003,81244,5
38003,81268,4
38005,81272,5
38020,81277,5
38023,81283,5
38018,81288,5
38019,81293,5
38023,81297,4
38026,81295,5
38041,81307,5
38033,81324,4
38038,81319,5
38030,81318,5
38044,81328,5
38040,81329,5
38042,81328,4
38053,81326,5
38040,81330,5
38035,81323,5
38033,81320,5
38042,81325,4
38031,81313,5
38032,81300,5
38028,81294,5
38033,81291,5
38030,81295,4
38017,81288,5
38012,81284,5
38013,81272,5
38018,81271,4
38012,81271,4
38002,81264,6
38013,81266,4
38012,81271,5
38009,81268,4
38005,81270,5
38007,81271,5
38013,81280,5
38011,81280,5
38016,81289,4
38019,81295,5
38022,81301,5
38024,81313,5
38030,81326,5
38035,81331,4
38043,81338,5
38050,81356,5
38050,81373,5
38051,81367,5
38062,81377,4
38067,81379,5
38061,81368,5
38058,81370,5
38064,81377,4
38057,81367,4
38053,81371,5
38043,81345,11
38043,81345,3
38038,81333,5
38027,81334,5
38030,81318,5
38037,81321,5
38025,81306,4
38025,81298,5
38021,81292,5
38013,81292,5
38006,81277,5
38003,81262,4
37990,81255,5
37995,81245,5
37972,81238,5
37977,81224,5
37977,81212,4
37961,81187,5
37925,81166,5
37940,81136,5
37931,81125,5
37911,81111,4
37874,81069,5
37903,81077,5
37910,81080,5
37899,81093,4
37900,81096,5
37914,81086,5
37912,81097,5
37909,81096,5
37940,81102,4
37919,81106,5
37913,81119,5
37925,81119,5
37958,81121,5
37929,81133,4
37923,81132,5
37924,81126,5
37943,81127,5
37922,81109,5
37909,81108,4
37904,81082,5
37912,81069,5
37897,81062,5
37882,81034,4
37870,81018,6
37867,81009,4
37857,81004,5
37860,81002,5
37859,80998,4
37861,80984,5
37860,81005,5
37874,81015,5
37876,81016,5
37881,81007,4
37892,81041,5
37890,81056,5
37893,81065,5
37902,81072,5
37902,81083,4
37927,81100,5
37919,81109,5
37934,81149,5
37943,81132,5
37952,81143,4
37951,81154,5
37958,81206,5
37961,81182,5
37969,81197,4
37973,81210,5
37982,81228,6
37968,81212,4
37985,81213,5
37981,81226,4
37986,81233,5
37994,81247,5
37996,81246,5
37995,81244,5
37997,81251,4
37997,81251,5
37990,81256,5
38003,81245,5
37997,81233,5
37988,81240,4
37990,81235,5
37982,81236,5
37982,81232,5
37985,81222,5
37983,81214,4
37982,81221,5
37975,81214,5
37976,81211,5
37978,81221,4
37969,81220,5
37970,81217,5
37973,81224,5
37981,81222,5
37982,81234,4
37981,81241,5
37987,81254,5
38002,81271,5
38007,81279,5
38020,81296,4
38024,81310,5
38035,81328,5
38043,81356,5
38050,81362,5
38050,81369,4
38057,81395,5
38056,81399,5
38069,81399,5
38069,81403,4
38070,81406,4
38071,81402,5
38065,81412,5
38069,81413,5
38078,81421,5
38075,81417,4
38070,81413,5
38074,81415,5
38073,81409,5
38074,81415,4
38069,81419,5
38066,81406,5
38071,81409,5
38070,81397,5
38066,81401,4
38073,81403,5
38069,81404,5
38056,81399,5
38058,81404,5
38069,81398,4
38061,81398,5
38061,81383,5
38063,81390,5
38061,81393,4
38054,81386,4
38045,81375,6
38053,81373,4
38044,81363,5
38032,81350,4
38027,81335,7
38020,81311,3
38014,81291,5
38001,81282,5
37990,81278,4
37993,81260,5
37984,81249,5
37985,81250,5
37977,81243,5
37984,81242,4
37973,81249,5
37981,81265,5
37989,81261,5
37982,81263,5
37984,81261,4
37995,81261,5
37999,81273,5
37993,81275,5
37985,81271,4
37995,81277,5
37988,81266,5
37989,81257,6
37960,81246,4
37975,81232,4
37964,81219,5
37956,81204,5
37927,81195,5
37956,81197,5
37954,81193,4
37957,81196,5
37941,81197,5
37961,81195,5
37971,81206,5
37964,81225,4
37991,81235,5
37976,81237,5
37986,81249,5
37999,81275,5
38041,81287,4
38013,81299,5
38021,81323,5
38038,81340,5
38071,81346,5
38044,81369,4
38063,81378,5
38062,81409,5
38086,81410,6
38083,81435,3
38093,81449,5
38091,81469,5
38100,81460,5
38114,81479,5
38115,81480,4
38112,81480,5
38110,81469,5
38114,81497,5
38114,81490,5
38125,81494,4
38126,81473,5
38123,81490,5
38122,81500,5
38112,81488,5
38119,81477,4
38109,81476,5
38102,81474,5
38098,81464,5
38097,81484,4
38094,81446,6
38092,81443,4
38085,81433,5
38075,81463,5
38079,81418,6
38077,81420,3
38074,81415,5
38079,81444,5
38071,81415,5
38063,81403,4
38077,81416,5
38073,81422,5
38078,81419,5
38078,81422,5
38081,81422,4
38079,81438,5
38090,81446,5
38095,81460,5
38103,81465,4
38107,81484,4
38111,81482,5
38104,81490,5
38122,81496,5
38120,81506,4
38127,81513,5
38122,81519,6
38130,81525,4
38131,81536,5
38131,81529,4
38134,81535,5
38128,81527,5
38130,81520,5
38129,81518,5
38124,81518,4
38121,81505,5
38122,81500,5
38118,81501,5
38116,81491,5
38104,81478,4
38098,81450,5
38083,81437,5
38072,81420,5
38067,81394,4
38062,81373,4
38053,81368,5
38043,81360,5
38036,81343,5
38030,81344,4
38029,81338,5
38026,81350,5
38025,81344,6
38029,81345,4
38029,81351,4
38034,81344,5
38029,81348,5
38024,81350,5
38043,81358,5
38041,81360,4
38043,81350,5
38040,81355,5
38037,81361,5
38035,81354,5
38033,81346,4
38028,81330,5
38012,81328,5
38008,81305,5
38002,81277,4
37987,81265,5
37973,81256,5
37980,81259,5
37982,81259,5
37986,81270,5
38007,81280,4
37997,81288,5
38013,81302,5
38017,81322,6
38027,81328,3
38020,81330,5
38026,81329,5
38034,81344,5
38046,81358,5
38037,81361,4
38035,81327,5
38025,81310,5
38022,81307,5
38037,81342,5
38048,81370,4
38052,81366,5
38040,81369,5
38053,81370,5
38056,81371,4
38055,81365,5
38044,81365,5
38054,81378,5
38072,81406,5
38097,81461,4
38101,81484,6
38111,81494,4
38102,81507,5
38125,81514,5
38103,81529,4
38130,81540,5
38138,81554,5
38139,81555,5
38109,81537,5
38108,81498,4
38094,81473,5
38103,81486,5
38070,81475,5
38097,81469,5
38101,81483,4
38101,81474,5
38097,81467,5
38090,81443,5
38087,81440,4
38069,81421,5
38115,81426,5
38074,81411,5
38076,81416,5
38074,81426,4
38110,81402,5
38076,81408,6
38065,81401,4
38075,81401,5
38082,81398,4
38068,81422,5
38076,81420,5
38078,81410,5
38075,81412,5
38069,81398,4
38064,81384,5
38075,81423,5
38098,81450,5
38116,81493,4
38116,81464,4
38069,81396,5
38041,81302,5
38024,81318,5
38025,81314,4
38022,81333,5
38026,81295,5
38008,81275,5
38001,81269,5
38020,81310,4
38032,81343,5
38014,81295,5
37977,81206,6
37953,81162,4
37946,81183,4
37957,81203,5
37994,81259,5
37990,81220,5
37948,81182,5
37906,81060,4
37864,80965,5
37841,80956,5
37877,81035,5
37865,80999,4
37824,80914,4
37794,80856,5
37777,80827,5
37780,80864,5
37800,80893,4
37795,80861,5
37758,80774,5
37702,80667,5
37694,80665,5
37699,80652,5
37682,80626,4
37673,80620,5
37651,80582,5
37643,80557,5
37681,80650,4
37745,80772,5
37794,80870,5
37822,80910,5
37812,80869,5
37778,80825,4
37764,80801,5
37762,80787,5
37748,80753,5
37724,80708,4
37720,80715,4
37723,80717,5
37731,80732,5
37737,80755,5
37744,80766,4
37751,80786,5
37778,80822,5
37792,80844,5
37801,80893,5
37832,80930,4
37850,80972,6
37860,80999,4
37881,81031,5
37884,81057,5
37904,81080,4
37918,81100,5
37919,81122,5
37934,81138,5
37946,81166,5
37951,81169,4
37950,81187,5
37973,81210,5
37969,81211,5
37977,81211,4
37964,81196,4
37969,81193,5
37955,81191,5
37960,81190,9
37956,81185,0
37960,81168,5
37960,81189,5
37962,81201,5
37969,81208,5
37962,81204,4
37973,81207,5
37969,81214,6
37969,81212,4
37964,81209,5
37961,81205,4
37966,81208,5
37965,81202,5
37958,81198,5
37951,81181,5
37941,81185,4
37946,81157,5
37941,81159,5
37933,81149,5
37929,81143,4
37936,81144,5
37927,81144,5
37933,81152,5
37935,81163,5
37937,81159,4
37938,81175,5
37950,81201,5
37958,81207,5
37964,81223,5
37973,81231,4
37961,81227,5
37960,81228,5
37969,81221,5
37969,81214,5
37955,81205,4
37937,81185,5
37950,81182,5
37939,81185,5
37947,81185,5
37923,81190,4
37940,81185,5
37945,81191,5
37938,81192,5
37918,81189,4
37952,81198,5
37939,81203,5
37940,81193,5
37941,81196,5
37951,81200,4
37954,81207,5
37955,81210,5
37984,81218,5
37965,81235,5
37970,81231,5
37973,81239,4
38007,81252,5
37974,81256,5
37988,81260,5
37987,81276,4
38018,81278,5
37995,81275,5
37988,81281,5
37990,81283,5
38006,81291,4
37996,81283,5
37993,81281,5
37993,81281,5
37996,81265,4
37984,81273,5
37993,81285,5
37983,81271,5
37981,81241,5
37987,81268,4
37992,81274,5
37977,81270,5
37985,81221,5
37980,81249,5
37960,81229,4
37967,81226,6
37956,81208,3
37956,81213,5
37949,81210,5
37948,81191,4
37955,81214,5
37948,81188,5
37937,81179,5
37935,81171,5
37929,81211,4
37936,81179,5
37930,81168,5
37936,81160,5
37935,81194,4
37937,81172,5
37932,81171,5
37939,81181,5
37940,81192,5
37937,81190,4
37935,81193,5
37958,81205,5
37949,81219,6
37957,81225,4
37958,81229,4
37965,81217,5
37963,81233,5
37975,81240,5
37963,81230,5
37960,81233,4
37957,81228,5
37949,81201,5
37942,81181,5
37931,81158,5
37904,81133,4
37899,81102,5
37890,81096,5
37873,81077,5
37874,81078,4
37877,81072,5
37866,81065,5
37872,81062,5
37864,81065,5
37882,81072,5
37879,81088,4
37888,81098,5
37893,81117,5
37903,81125,6
37913,81138,3
37911,81143,5
37919,81164,5
37923,81176,5
37928,81169,5
37918,81170,4
37920,81176,5
37918,81153,5
37920,81149,5
37909,81137,5
37906,81154,4
37923,81153,5
37913,81155,5
37908,81154,5
37909,81155,4
37923,81164,5
37920,81169,5
37925,81175,5
37922,81180,5
37935,81182,4
37936,81193,6
37937,81208,4
37950,81224,5
37944,81223,5
37958,81216,6
37946,81201,3
37951,81204,5
37943,81195,5
37941,81220,5
37952,81233,4
37974,81269,5
37985,81298,5
37989,81298,5
37972,81290,5
37977,81277,4
37976,81277,5
37980,81288,5
37982,81308,5
38005,81322,4
38013,81345,5
38015,81352,5
38006,81323,5
37993,81318,5
37984,81306,4
37991,81307,5
38000,81319,6
38002,81347,4
38010,81347,5
38015,81364,4
38019,81369,5
38024,81360,5
38020,81353,5
38013,81371,5
38022,81352,4
38012,81362,5
38006,81353,5
38013,81340,5
38007,81330,5
37991,81325,4
37968,81314,5
37988,81300,5
37982,81293,5
37979,81281,4
37949,81283,5
37978,81284,5
37979,81277,5
37972,81269,5
37948,81274,4
37963,81264,5
37969,81270,5
37978,81274,6
37980,81276,4
37982,81272,4
37978,81265,5
37966,81266,5
37991,81261,5
37968,81263,5
37964,81257,4
37960,81243,5
37988,81240,5
37956,81234,5
37949,81217,4
37930,81199,4
37928,81168,5
37898,81148,5
37894,81123,5
37879,81083,4
37870,81070,5
37845,81042,5
37841,81032,5
37835,81019,5
37842,80994,5
37822,81016,4
37824,81014,5
37832,81015,5
37832,80977,6
37837,81026,3
37838,81024,5
37836,81034,5
37853,81004,5
37852,81043,5
37858,81059,4
37867,81057,5
37862,81085,5
37862,81060,5
37857,81052,4
37851,81041,4
37847,81068,5
37840,81030,5
37840,81016,5
37841,81023,4
37843,81074,5
37849,81038,5
37851,81035,5
37851,81036,5
37844,81058,4
37855,81056,6
37860,81063,4
37865,81062,5
37866,81078,5
37872,81092,4
37872,81093,5
37878,81107,5
37890,81109,5
37898,81124,5
37891,81129,4
37905,81133,5
37909,81153,5
37919,81158,5
37919,81171,4
37923,81177,4
37919,81189,5
37932,81191,5
37933,81196,5
37942,81202,4
37935,81199,5
37944,81199,5
37939,81210,5
37940,81213,5
37950,81206,4
37941,81203,5
37942,81211,6
37941,81200,4
37945,81212,5
37935,81204,4
37935,81206,5
37934,81186,5
37937,81197,5
37935,81191,5
37929,81183,4
37931,81177,5
37921,81177,5
37932,81177,5
37923,81170,4
37918,81168,4
37916,81166,5
37910,81148,5
37908,81160,5
37910,81145,4
37903,81148,5
37908,81145,5
37914,81151,5
37904,81156,5
37910,81137,4
37905,81140,5
37909,81149,5
37911,81151,6
37903,81158,4
37906,81156,4
37916,81160,5
37910,81153,5
37906,81160,5
37920,81171,5
37917,81168,4
37916,81180,5
37920,81181,5
37928,81175,5
37916,81179,4
37921,81180,4
37915,81179,5
37926,81172,5
37924,81192,5
37922,81189,4
37929,81182,5
37919,81184,5
37926,81180,5
37921,81179,5
37921,81183,5
37926,81192,4
37925,81194,5
37923,81201,5
37933,81198,5
37937,81215,4
37942,81214,5
37932,81214,5
37941,81222,5
37943,81233,5
37954,81232,4
37947,81236,5
37940,81242,5
37946,81242,5
37951,81253,4
37940,81252,5
37945,81258,5
37924,81255,5
37936,81248,5
37948,81236,4
37937,81245,5
37915,81240,5
37939,81235,5
37931,81230,5
37926,81215,4
37900,81231,6
37929,81223,4
37923,81215,5
37932,81218,5
37928,81217,4
37916,81211,5
37912,81202,5
37904,81194,5
37931,81181,5
37902,81178,4
37891,81181,5
37898,81182,5
37934,81196,5
37898,81181,4
37896,81177,5
37893,81185,5
37918,81193,5
37904,81191,5
37909,81212,4
37916,81215,5
37929,81222,5
37917,81232,5
37923,81240,5
37925,81245,4
37935,81250,5
37940,81279,6
37952,81272,4
37949,81286,5
37943,81242,4
37942,81269,5
37938,81267,5
37926,81251,5
37921,81210,5
37919,81230,4
37913,81224,5
37917,81228,5
37917,81236,5
37919,81235,4
37913,81245,5
37913,81245,5
37925,81273,5
37930,81251,5
37935,81256,4
37937,81272,5
37944,81313,5
37951,81287,5
37957,81306,5
37968,81318,4
37974,81346,5
37967,81334,5
37977,81351,5
37987,81356,5
37990,81382,4
38007,81389,5
38019,81405,5
38023,81426,5
38035,81436,5
38035,81447,4
38044,81460,5
38047,81466,5
38049,81469,5
38056,81481,4
38055,81487,5
38058,81502,5
38065,81504,5
38069,81508,5
38077,81522,4
38077,81523,5
38079,81530,5
38080,81522,5
38080,81525,5
38068,81526,5
38074,81527,4
38079,81537,5
38077,81522,5
38073,81516,5
38068,81515,4
38065,81513,5
38058,81507,5
38057,81498,5
38059,81485,7
38056,81490,2
38055,81480,5
38054,81476,5
38054,81474,5
38056,81483,4
38048,81475,5
38048,81466,5
38047,81480,5
38048,81471,5
38050,81481,4
38052,81483,5
38055,81492,5
38052,81495,5
38063,81498,5
38059,81510,4
38067,81521,6
38068,81529,4
38083,81549,5
38087,81557,5
38096,81565,4
38107,81580,5
38099,81579,5
38095,81587,5
38098,81592,4
38109,81594,4
38104,81593,5
38106,81599,5
38104,81588,5
38098,81595,4
38102,81593,5
38106,81599,5
38099,81594,5
38110,81592,5
38109,81600,4
38109,81600,5
38101,81608,5
38103,81600,6
38109,81609,4
38109,81616,4
38107,81608,5
38102,81615,5
38093,81590,5
38087,81566,5
38068,81545,4
38056,81518,5
38046,81496,5
38017,81460,5
38013,81425,4
37982,81376,4
37970,81352,5
37955,81321,5
37949,81318,5
37935,81316,4
37935,81290,5
37922,81269,5
37907,81253,5
37905,81263,5
37919,81256,5
37902,81230,4
37897,81213,5
37871,81197,5
37880,81200,6
37905,81231,3
37918,81251,5
37887,81259,5
37913,81239,5
37918,81241,5
37899,81229,4
37882,81220,5
37908,81220,5
37905,81261,5
37930,81283,4
37938,81254,4
37917,81263,5
37929,81278,5
37940,81307,5
37990,81342,4
37978,81374,5
37977,81375,5
37981,81378,5
38011,81393,5
38008,81433,4
38010,81453,6
38032,81483,4
38061,81494,5
38057,81513,5
38057,81515,6
38055,81518,3
38059,81517,5
38079,81578,5
38098,81606,5
38091,81626,4
38119,81610,5
38110,81650,5
38119,81648,5
38128,81664,4
38128,81623,4
38127,81641,5
38127,81656,5
38126,81657,5
38123,81649,4
38124,81645,5
38118,81635,5
38117,81644,5
38125,81673,5
38117,81633,4
38105,81628,5
38111,81622,6
38107,81643,4
38093,81587,5
38082,81577,4
38082,81563,5
38080,81585,5
38077,81560,5
38074,81558,5
38081,81566,4
38086,81572,5
38089,81580,5
38091,81575,5
38082,81578,4
38088,81576,4
38089,81576,5
38085,81583,5
38083,81582,5
38093,81591,4
38094,81600,5
38103,81607,5
38100,81608,5
38113,81623,5
38115,81632,4
38115,81629,5
38118,81637,5
38114,81645,6
38105,81653,4
38115,81664,4
38130,81655,5
38119,81655,5
38117,81645,5
38118,81649,5
38113,81650,4
38108,81631,5
38116,81637,5
38107,81622,5
38096,81606,4
38091,81587,5
38080,81575,5
38074,81572,5
38074,81570,5
38076,81582,4
38078,81583,5
38089,81600,5
38095,81604,5
38091,81610,5
38098,81620,5
38107,81648,4
38119,81650,5
38119,81660,5
38119,81665,6
38114,81650,3
38110,81657,5
38106,81631,5
38091,81594,5
38074,81588,5
38069,81563,4
38056,81546,5
38053,81513,5
38045,81522,5
38038,81499,4
38032,81495,5
38032,81484,5
38028,81489,5
38032,81488,5
38036,81498,4
38036,81500,5
38039,81511,5
38046,81524,5
38054,81524,5
38066,81536,4
38062,81547,6
38070,81541,4
38072,81561,5
38073,81551,5
38072,81563,4
38084,81573,5
38081,81575,5
38080,81584,5
38091,81582,5
38096,81582,4
38098,81582,5
38081,81586,5
38089,81588,5
38094,81594,4
38084,81591,5
38085,81578,5
38092,81579,5
38094,81586,5
38075,81578,4
38087,81577,5
38084,81570,5
38083,81560,5
38076,81551,5
38060,81547,4
38062,81536,5
38059,81516,6
38049,81515,4
38025,81493,5
38039,81493,4
38038,81472,5
38036,81467,5
37997,81478,5
38033,81477,5
38032,81471,4
38033,81484,5
38013,81487,5
38033,81478,5
38027,81493,4
38043,81484,5
38055,81493,5
38051,81513,5
38055,81526,5
38063,81532,4
38106,81553,5
38067,81555,5
38078,81579,5
38088,81580,5
38115,81582,4
38100,81603,5
38102,81611,5
38102,81616,6
38126,81631,4
38120,81631,4
38113,81635,5
38116,81640,5
38122,81639,5
38113,81641,4
38113,81632,4
38106,81623,5
38099,81577,5
38088,81574,5
38065,81553,4
38049,81531,5
38046,81468,5
38031,81485,5
38026,81462,5
38020,81464,4
38015,81447,5
38014,81461,5
38023,81462,5
38020,81457,5
38021,81481,5
38020,81462,4
38040,81493,5
38043,81499,5
38052,81561,5
38052,81529,8
38056,81536,5
38055,81523,5
38029,81554,5
38034,81507,8
38040,81490,5
38029,81471,5
38020,81457,8
38014,81423,5
38010,81430,5
38003,81434,5
38009,81435,8
37998,81427,5
38011,81427,5
38032,81466,8
38032,81466,5
38033,81480,5
38034,81521,8
38037,81509,5
38049,81497,5
38060,81516,5
38060,81522,8
38085,81548,5
38068,81556,5
38062,81549,8
38085,81560,5
38079,81561,5
38090,81575,5
38088,81591,8
38088,81591,5
38088,81548,5
38089,81568,8
38090,81589,5
38090,81588,5
38081,81592,8
38057,81584,5
38073,81578,5
38076,81586,5
38079,81584,8
38085,81577,5
38076,81556,5
38045,81516,8
38045,81516,5
38043,81492,5
38047,81507,5
38038,81486,8
38026,81485,5
38035,81480,5
38032,81482,8
38026,81479,5
38034,81491,5
38030,81467,8
38031,81468,5
38030,81471,5
38046,81496,5
38046,81496,8
38047,81485,5
38051,81503,5
38032,81497,8
38035,81499,5
38044,81493,5
38049,81524,5
38043,81491,8
38037,81460,5
38040,81480,5
37998,81416,8
37998,81416,5
37995,81402,5
37982,81392,8
37982,81374,5
37971,81362,5
37962,81356,5
37976,81361,8
37960,81355,5
37968,81358,5
37977,81344,8
37984,81375,5
37990,81372,5
37991,81382,5
37969,81359,8
37969,81359,5
37964,81335,5
37922,81327,8
37959,81332,5
37961,81329,5
37938,81323,8
37930,81317,5
37958,81333,5
37963,81333,5
37957,81338,8
37962,81346,5
37964,81351,5
37963,81359,8
37963,81359,5
37997,81374,5
38032,81369,5
37979,81369,8
37955,81377,5
37977,81372,5
37982,81368,8
37976,81387,5
37987,81386,5
37982,81397,8
37994,81406,5
38010,81419,5
38005,81428,5
38019,81446,8
38019,81446,5
37970,81422,5
38013,81449,8
38024,81459,5
38016,81466,5
38021,81438,5
38022,81448,8
38023,81448,5
38007,81443,5
38007,81466,8
38005,81448,5
38000,81418,5
37959,81361,8
37959,81361,5
37962,81397,5
37963,81367,5
37960,81376,8
37964,81345,5
37954,81375,5
37961,81377,8
37992,81375,2
37975,81387,1
37964,81379,5
37969,81412,5
37977,81393,4
37982,81397,5
37974,81390,5
37979,81402,10
37972,81389,4
37971,81402,5
37976,81412,5
37986,81419,4
37987,81424,5
37998,81417,5
37984,81419,5
37984,81411,5
37981,81399,4
37980,81374,5
37960,81360,5
37949,81346,5
37942,81347,5
37948,81336,4
37929,81320,5
37938,81316,5
37932,81304,5
37935,81299,5
37922,81292,4
37923,81298,6
37916,81298,4
37927,81314,5
37929,81319,4
37932,81322,6
37943,81336,3
37944,81351,5
37960,81364,5
37969,81371,4
37971,81377,5
37970,81372,5
37964,81371,5
37960,81360,5
37945,81358,4
37951,81342,5
37939,81338,5
37929,81322,5
37934,81303,5
37925,81311,4
37933,81314,5
37930,81309,5
37926,81299,5
37931,81322,5
37948,81326,4
37953,81339,5
37954,81346,6
37950,81352,4
37957,81361,4
37957,81356,4
37954,81355,5
37961,81378,5
37979,81398,5
37986,81414,4
37978,81431,5
37995,81436,5
38003,81442,5
37988,81435,5
37994,81422,4
38002,81438,5
37997,81455,5
38020,81488,5
38024,81494,5
38030,81491,4
38024,81497,5
38032,81507,5
38029,81514,5
38024,81514,5
38041,81528,4
38052,81536,5
38056,81557,5
38059,81563,6
38051,81540,3
38053,81537,5
38042,81543,5
38045,81556,5
38059,81563,5
38062,81576,4
38060,81571,5
38062,81571,5
38051,81555,5
38024,81547,5
38046,81535,4
38035,81532,5
38042,81530,5
38008,81524,5
38040,81523,5
38032,81510,4
38024,81518,5
38013,81517,5
38025,81518,5
38026,81514,4
38030,81524,5
38053,81524,4
38025,81523,5
38036,81524,5
38037,81516,6
38068,81532,3
38041,81534,5
38043,81538,5
38039,81545,5
38075,81538,4
38039,81537,5
38046,81545,5
38049,81544,5
38052,81542,5
38042,81540,4
38043,81538,5
38043,81540,5
38046,81532,5
38041,81539,5
38041,81531,4
38038,81533,5
38037,81504,5
38035,81513,5
38025,81514,4
38024,81505,5
38015,81461,6
38015,81476,4
38000,81472,5
37991,81444,4
37977,81413,5
37959,81389,5
37940,81359,5
37938,81336,5
37924,81329,4
37908,81282,5
37897,81274,5
37899,81270,5
37902,81317,5
37908,81288,4
37898,81286,5
37912,81289,5
37911,81313,5
37922,81302,5
37927,81325,4
37933,81340,5
37949,81347,5
37943,81352,5
37955,81374,4
37955,81376,5
37964,81394,5
37966,81396,6
37965,81389,4
37956,81373,4
37950,81359,5
37935,81348,5
37926,81335,5
37930,81342,5
37936,81354,4
37941,81362,5
37946,81371,5
37950,81371,5
37960,81382,5
37963,81382,4
37962,81394,5
37975,81416,5
37980,81426,5
37981,81444,4
37991,81454,4
38005,81479,5
38021,81494,5
38020,81513,5
38034,81533,5
38043,81546,4
38050,81563,5
38050,81567,5
38059,81585,6
38067,81588,3
38079,81609,5
38077,81602,5
38084,81620,5
38079,81620,5
38083,81631,4
38086,81618,5
38081,81634,5
38092,81622,5
38090,81634,5
38095,81639,4
38082,81635,5
38094,81652,5
38102,81649,5
38097,81659,4
38099,81656,5
38099,81662,5
38098,81651,5
38099,81651,5
38088,81649,4
38088,81644,6
38091,81639,4
38085,81634,5
38092,81623,5
38079,81624,4
38079,81617,5
38080,81602,5
38068,81598,5
38059,81590,5
38054,81588,4
38069,81590,5
38063,81581,5
38068,81587,5
38061,81583,4
38064,81590,4
38065,81594,5
38068,81590,5
38078,81605,5
38069,81603,4
38066,81614,5
38081,81620,5
38077,81624,5
38081,81628,5
38083,81660,4
38093,81644,5
38093,81655,6
38098,81648,4
38092,81654,5
38089,81665,4
38091,81662,5
38095,81663,5
38093,81658,5
38100,81656,5
38101,81655,4
38082,81653,5
38097,81644,5
38081,81647,5
38092,81636,4
38049,81641,5
38081,81633,5
38075,81626,5
38076,81627,5
38052,81623,4
38070,81620,5
38069,81629,5
38071,81612,5
38080,81617,5
38068,81603,4
38067,81598,5
38061,81592,5
38095,81597,6
38058,81594,4
38048,81571,4
38036,81557,5
38058,81540,5
38021,81499,5
37998,81478,5
37988,81467,4
37998,81449,5
37983,81465,5
37982,81466,5
37991,81474,4
38003,81477,5
37996,81483,5
37990,81481,5
38002,81487,5
38003,81473,4
38013,81508,5
38018,81503,5
38015,81510,5
38022,81505,5
38018,81529,5
38013,81527,4
38024,81521,5
38013,81476,5
38010,81509,5
38002,81477,4
37987,81465,5
37981,81451,5
37974,81432,5
37971,81432,4
37967,81432,4
37969,81466,5
37972,81427,5
37972,81435,5
37972,81428,4
37982,81479,5
37978,81457,5
37989,81457,5
37995,81471,5
37997,81516,4
38000,81492,5
38014,81512,5
38027,81527,5
38021,81538,5
38040,81556,4
38051,81566,6
38049,81578,4
38061,81590,5
38066,81615,5
38066,81630,4
38082,81639,5
38087,81652,5
