RED,IR,EKG,TIME
38868,62933,7
38857,62917,8
38857,62917,5
38854,62895,7
38862,62882,8
38866,62929,9
38849,62897,10
38849,62897,5
38855,62889,7
38853,62915,8
38847,62887,5
38851,62904,7
38849,62892,8
38841,62892,5
38841,62892,7
38843,62873,8
38839,62888,5
38839,62853,7
38836,62863,8
38854,62869,5
38846,62880,7
38870,62907,8
38870,62907,5
38864,62858,7
38865,62880,8
38867,62906,9
38893,62936,8
38893,62936,5
38931,62935,7
38906,62953,8
38906,62959,5
38904,62949,7
38915,62976,8
38915,62989,5
38912,62967,7
38912,62967,8
38911,62964,7
38921,62957,5
38921,62956,8
38942,62949,7
38918,62940,5
38895,62932,8
38895,62932,7
38903,62936,5
38903,62909,8
38905,62933,7
38913,62932,9
38919,62951,10
38919,62951,9
38933,62946,8
38922,62943,7
38923,62935,10
38923,62935,8
38907,62927,5
38906,62924,8
38902,62939,7
38900,62919,9
38900,62919,10
38896,62871,5
38901,62912,8
38892,62909,7
38915,62929,9
38915,62929,10
38924,62931,7
38913,62930,2
38900,62933,3
38922,62941,5
38925,62977,5
38931,62951,5
38931,62947,4
38929,62954,5
38927,62954,5
38936,62954,6
38939,62957,3
38947,62963,5
38934,62966,5
38951,62967,5
38948,62956,4
38948,62961,4
38918,62958,5
38952,62942,5
38941,62931,5
38931,62920,4
38896,62923,5
38921,62914,5
38914,62899,5
38905,62896,5
38913,62883,4
38911,62879,5
38902,62877,5
38902,62876,5
38926,62874,5
38911,62875,4
38908,62878,6
38918,62884,4
38948,62881,5
38916,62874,5
38912,62875,6
38916,62866,3
38919,62864,5
38916,62865,5
38904,62855,4
38901,62858,4
38895,62840,5
38895,62840,5
38889,62823,5
38875,62823,4
38875,62802,5
38891,62835,5
38890,62833,5
38896,62834,8
38888,62793,1
38882,62817,5
38876,62805,5
38867,62812,5
38859,62784,5
38861,62790,4
38860,62791,5
38855,62786,6
38856,62794,4
38835,62774,5
38843,62762,4
38832,62751,5
38833,62791,5
38835,62762,5
38840,62766,4
38838,62761,4
38837,62780,5
38833,62761,5
38831,62751,5
38828,62750,4
38832,62761,5
38825,62760,5
38825,62758,5
38823,62743,5
38820,62741,4
38816,62725,5
38800,62718,5
38801,62735,5
38802,62722,5
38809,62717,4
38793,62714,5
38791,62705,5
38782,62681,6
38770,62670,4
38757,62675,4
38767,62665,5
38766,62674,5
38762,62671,5
38757,62656,5
38757,62650,4
38739,62636,5
38730,62629,5
38739,62637,5
38741,62640,4
38735,62639,5
38746,62640,5
38734,62626,5
38728,62626,5
38734,62615,4
38730,62615,5
38725,62617,5
38738,62634,5
38744,62635,5
38743,62637,5
38755,62639,4
38740,62632,5
38738,62641,5
38742,62643,6
38748,62649,3
38756,62647,5
38764,62652,5
38756,62666,5
38753,62648,5
38756,62634,4
38754,62629,5
38743,62627,5
38752,62624,5
38740,62621,4
38743,62617,5
38740,62612,5
38734,62606,5
38731,62592,5
38713,62579,4
38725,62578,5
38709,62572,5
38718,62574,5
38710,62572,5
38706,62562,4
38698,62550,6
38683,62552,4
38682,62544,5
38684,62545,5
38691,62540,4
38698,62546,5
38690,62547,5
38687,62545,5
38682,62544,5
38687,62549,4
38687,62542,5
38692,62543,5
38693,62549,5
38695,62538,4
38688,62538,5
38684,62532,5
38677,62517,5
38675,62517,5
38659,62508,4
38662,62492,5
38657,62488,5
38650,62483,5
38648,62474,5
38643,62468,4
38631,62451,5
38635,62454,6
38633,62444,4
38615,62453,5
38627,62445,4
38623,62432,5
38611,62426,5
38590,62416,5
38602,62413,5
38603,62418,4
38594,62415,5
38607,62429,5
38614,62426,5
38618,62434,4
38619,62438,4
38644,62441,5
38624,62445,5
38640,62465,5
38645,62483,4
38681,62503,5
38675,62516,5
38678,62529,5
38676,62539,5
38696,62532,4
38691,62547,5
38699,62559,5
38718,62573,6
38724,62576,4
38716,62573,4
38715,62568,5
38718,62573,5
38707,62562,5
38713,62570,5
38715,62580,4
38714,62575,5
38715,62551,5
38719,62576,5
38711,62572,4
38703,62549,4
38697,62524,5
38698,62545,5
38687,62544,5
38687,62540,4
38684,62542,5
38674,62511,5
38667,62494,5
38651,62497,5
38654,62515,5
38654,62492,4
38657,62498,5
38655,62493,5
38659,62508,5
38637,62472,4
38635,62459,5
38623,62449,5
38614,62455,5
38620,62441,5
38621,62442,4
38620,62441,5
38614,62445,5
38622,62433,5
38616,62437,4
38612,62442,4
38611,62437,5
38623,62442,5
38619,62449,5
38614,62449,4
38620,62451,5
38614,62442,5
38620,62449,5
38613,62443,5
38614,62439,4
38614,62433,6
38614,62428,4
38610,62418,5
38599,62419,5
38593,62408,4
38594,62396,5
38593,62397,5
38586,62382,5
38574,62374,5
38572,62369,4
38569,62366,5
38564,62352,5
38563,62352,5
38563,62348,4
38568,62345,4
38563,62331,5
38563,62334,5
38557,62337,5
38574,62345,4
38576,62352,5
38571,62357,5
38577,62352,5
38574,62358,5
38574,62365,4
38590,62365,5
38587,62364,6
38586,62361,4
38587,62356,5
38572,62349,4
38582,62340,5
38553,62319,5
38549,62315,5
38552,62312,5
38554,62310,4
38554,62296,5
38545,62299,5
38532,62288,5
38534,62270,4
38523,62266,4
38520,62267,5
38525,62266,5
38524,62264,5
38527,62261,4
38518,62267,5
38515,62255,5
38520,62258,5
38523,62265,5
38523,62272,4
38533,62274,5
38541,62281,5
38542,62277,5
38537,62281,5
38534,62279,4
38534,62276,5
38538,62277,5
38542,62281,5
38553,62290,5
38546,62286,4
38540,62289,5
38536,62280,5
38537,62278,5
38543,62279,4
38536,62288,4
38551,62304,5
38556,62311,5
38560,62322,5
38560,62317,4
38564,62323,5
38556,62335,5
38592,62344,5
38595,62366,5
38617,62383,5
38592,62389,4
38626,62403,5
38638,62420,5
38652,62435,5
38664,62461,4
38681,62476,5
38705,62503,5
38718,62525,5
38744,62546,5
38736,62559,4
38757,62573,5
38782,62601,5
38812,62615,5
38793,62622,4
38796,62631,4
38795,62623,5
38810,62624,5
38800,62631,5
38799,62627,4
38800,62641,5
38814,62631,5
38811,62646,5
38803,62641,5
38810,62649,4
38801,62632,6
38802,62649,4
38813,62645,5
38817,62648,5
38822,62627,4
38818,62649,5
38814,62637,5
38802,62631,5
38796,62609,5
38795,62638,5
38793,62632,4
38802,62633,5
38792,62646,5
38801,62625,4
38794,62628,4
38799,62636,5
38798,62665,5
38798,62647,5
38809,62650,4
38811,62654,5
38804,62673,5
38800,62639,6
38789,62630,4
38790,62639,4
38805,62647,5
38801,62639,7
38805,62639,3
38793,62634,5
38791,62630,4
38778,62622,5
38785,62608,5
38786,62614,5
38774,62613,5
38784,62615,4
38779,62606,5
38771,62600,5
38770,62594,5
38764,62595,5
38759,62584,4
38766,62587,5
38769,62593,5
38765,62584,5
38770,62580,4
38770,62581,5
38766,62579,5
38770,62587,5
38767,62592,5
38769,62595,4
38779,62602,5
38770,62604,5
38777,62601,5
38781,62597,5
38786,62606,4
38790,62608,5
38791,62620,5
38802,62634,5
38798,62630,5
38810,62636,4
38810,62631,5
38805,62634,5
38815,62641,5
38803,62641,5
38811,62644,4
38811,62649,5
38814,62643,5
38811,62642,5
38813,62649,4
38808,62642,6
38817,62647,4
38813,62639,5
38813,62639,5
38812,62639,6
38802,62631,3
38801,62622,5
38789,62615,5
38800,62622,5
38794,62618,4
38797,62628,5
38805,62631,5
38805,62629,5
38800,62639,5
38802,62641,4
38805,62650,5
38810,62648,5
38805,62646,5
38806,62630,5
38792,62622,4
38785,62615,5
38770,62607,5
38770,62607,5
38779,62592,4
38779,62604,5
38777,62603,6
38763,62600,4
38770,62603,5
38763,62610,4
38771,62603,7
38767,62593,3
38764,62595,5
38761,62599,5
38760,62593,4
38759,62599,5
38759,62590,5
38761,62585,5
38761,62597,5
38757,62593,4
38753,62586,5
38756,62583,5
38751,62579,5
38733,62569,5
38750,62570,4
38745,62571,5
38748,62570,5
38711,62564,5
38731,62562,4
38725,62546,4
38722,62534,5
38709,62533,6
38721,62536,4
38728,62543,4
38726,62544,5
38736,62547,5
38715,62541,5
38713,62531,5
38704,62515,4
38734,62512,5
38695,62506,5
38699,62502,5
38702,62516,5
38717,62510,4
38695,62497,5
38698,62492,5
38699,62481,5
38693,62493,5
38692,62486,4
38688,62492,5
38696,62482,5
38683,62465,5
38689,62470,5
38683,62477,4
38676,62468,5
38674,62440,5
38678,62461,6
38678,62459,3
38671,62463,5
38665,62417,5
38659,62438,5
38660,62432,6
38640,62424,3
38639,62421,5
38644,62412,5
38655,62427,5
38659,62416,5
38648,62441,4
38638,62411,5
38631,62391,5
38623,62393,5
38632,62422,5
38624,62381,4
38638,62391,5
38618,62371,5
38630,62388,5
38612,62364,4
38620,62361,5
38603,62357,4
38608,62357,5
38607,62360,5
38606,62346,6
38608,62348,3
38599,62343,5
38591,62336,5
38579,62325,5
38574,62322,4
38586,62315,5
38574,62317,5
38583,62314,5
38580,62311,5
38564,62290,4
38557,62282,5
38559,62284,5
38551,62277,5
38550,62279,5
38569,62288,4
38554,62281,5
38552,62285,5
38555,62281,5
38545,62271,4
38537,62268,4
38536,62270,6
38548,62273,4
38539,62260,5
38542,62272,4
38532,62256,5
38518,62246,5
38524,62233,5
38525,62232,5
38512,62218,4
38509,62223,5
38508,62216,5
38511,62215,5
38505,62200,5
38480,62176,4
38467,62157,5
38460,62155,5
38457,62145,5
38466,62138,5
38457,62144,4
38458,62121,5
38443,62127,5
38441,62108,5
38434,62102,4
38439,62110,4
38439,62118,5
38439,62103,6
38443,62121,4
38451,62123,4
38456,62119,5
38443,62119,5
38448,62124,5
38460,62135,5
38479,62150,4
38490,62161,5
38492,62167,5
38499,62179,5
38505,62185,5
38509,62189,4
38517,62197,5
38530,62221,5
38537,62232,5
38554,62244,5
38550,62243,4
38562,62250,5
38555,62247,5
38564,62258,5
38559,62262,5
38575,62276,4
38575,62296,5
38596,62299,5
38594,62301,6
38595,62300,3
38601,62319,5
38593,62310,5
38610,62327,5
38610,62337,5
38617,62340,4
38622,62341,5
38611,62342,5
38620,62353,11
38633,62368,9
38633,62368,12
38635,62363,7
38621,62372,5
38655,62387,10
38655,62387,5
38643,62380,5
38652,62396,10
38688,62392,5
38659,62398,5
38677,62428,10
38677,62428,5
38683,62421,5
38685,62413,10
38672,62423,5
38680,62415,7
38704,62432,8
38674,62414,5
38684,62422,7
38682,62408,8
38682,62408,5
38678,62410,7
38684,62377,8
38673,62411,5
38667,62393,7
38665,62398,8
38660,62401,5
38657,62380,7
38657,62380,8
38658,62408,5
38675,62379,7
38666,62401,8
38652,62376,5
38664,62369,7
38665,62382,8
38665,62382,5
38677,62407,7
38672,62380,8
38657,62372,9
38682,62386,8
38682,62386,5
38686,62381,7
38698,62384,8
38671,62389,5
38668,62384,7
38673,62386,8
38680,62391,5
38673,62375,7
38673,62375,8
38674,62381,9
38675,62384,5
38678,62385,8
38679,62377,7
38678,62389,5
38686,62396,8
38686,62396,7
38695,62418,10
38678,62385,7
38688,62399,5
38698,62413,8
38698,62413,7
38721,62405,5
38711,62406,8
38693,62409,7
38699,62406,5
38707,62418,8
38708,62423,7
38705,62424,7
38705,62424,8
38706,62445,7
38712,62432,5
38708,62422,8
38706,62416,7
38687,62400,10
38687,62400,7
38689,62401,5
38690,62396,5
38639,62373,10
38661,62373,4
38662,62370,1
38656,62361,4
38654,62352,5
38659,62359,5
38671,62374,5
38664,62368,5
38650,62346,4
38642,62352,5
38649,62337,5
38646,62339,5
38647,62344,5
38645,62350,4
38651,62343,5
38643,62338,5
38641,62338,5
38639,62337,5
38639,62333,4
38638,62338,6
38645,62338,4
38649,62350,5
38634,62343,4
38645,62360,4
38654,62351,5
38659,62355,5
38629,62368,5
38655,62374,4
38672,62377,5
38663,62382,5
38644,62378,5
38664,62367,5
38667,62373,4
38662,62376,5
38683,62385,5
38673,62373,5
38675,62378,5
38670,62385,4
38686,62378,5
38669,62381,5
38671,62385,5
38670,62390,5
38697,62395,4
38684,62392,5
38685,62406,5
38677,62387,5
38685,62395,4
38678,62396,4
38678,62399,5
38679,62403,5
38692,62401,5
38689,62407,4
38678,62392,5
38683,62398,5
38675,62375,5
38681,62396,5
38678,62408,4
38682,62399,5
38675,62376,5
38672,62381,5
38669,62372,5
38659,62372,4
38668,62371,5
38661,62373,5
38666,62374,5
38654,62356,5
38657,62381,4
38645,62345,5
38638,62338,5
38631,62325,5
38620,62352,4
38624,62319,4
38619,62325,5
38609,62318,5
38613,62324,5
38618,62296,4
38612,62290,5
38610,62298,5
38605,62305,5
38597,62294,5
38608,62286,4
38595,62283,5
38597,62285,5
38585,62281,5
38580,62276,5
38572,62256,4
38569,62245,6
38562,62241,4
38556,62236,5
38547,62238,5
38550,62233,5
38545,62234,3
38543,62229,5
38543,62227,5
38536,62217,4
38533,62219,4
38524,62216,5
38525,62217,5
38523,62203,5
38530,62213,4
38523,62223,5
38538,62221,5
38523,62213,5
38523,62212,5
38508,62205,4
38510,62198,5
38512,62210,5
38502,62193,5
38510,62192,5
38495,62178,4
38496,62165,5
38480,62165,6
38476,62162,4
38475,62155,5
38468,62144,4
38467,62145,5
38462,62134,5
38454,62126,5
38441,62116,4
38440,62109,4
38425,62102,5
38430,62097,5
38427,62107,5
38419,62094,4
38420,62093,5
38423,62085,5
38408,62083,5
38409,62071,5
38404,62073,4
38417,62081,5
38408,62103,5
38431,62115,5
38423,62108,5
38437,62111,4
38431,62112,5
38433,62127,5
38440,62117,6
38438,62134,4
38453,62149,4
38460,62143,5
38456,62145,5
38462,62152,5
38464,62151,4
38471,62152,4
38463,62166,5
38483,62175,5
38480,62184,5
38481,62178,4
38482,62176,5
38473,62167,5
38469,62170,5
38471,62171,5
38478,62172,4
38486,62190,5
38493,62195,5
38505,62205,5
38505,62195,5
38513,62214,5
38512,62223,4
38499,62226,5
38519,62233,5
38532,62242,6
38538,62254,3
38514,62262,5
38533,62258,5
38532,62255,5
38539,62253,5
38526,62256,4
38540,62253,5
38542,62265,5
38552,62259,5
38556,62270,4
38543,62259,5
38539,62252,5
38531,62257,5
38567,62266,5
38530,62266,4
38542,62265,5
38535,62267,5
38556,62262,5
38529,62259,5
38529,62248,4
38522,62254,6
38535,62243,4
38527,62243,5
38524,62255,5
38531,62243,6
38516,62238,3
38515,62232,5
38509,62238,5
38513,62235,5
38514,62218,4
38518,62242,5
38513,62241,5
38524,62244,5
38518,62213,4
38514,62238,5
38505,62233,4
38514,62232,5
38512,62244,5
38531,62254,4
38529,62260,5
38534,62263,5
38524,62286,5
38529,62270,5
38531,62275,4
38537,62275,5
38544,62324,6
38549,62295,4
38560,62305,5
38570,62311,4
38566,62313,5
38566,62305,5
38565,62313,5
38571,62316,5
38573,62331,4
38573,62339,5
38576,62338,5
38582,62341,5
38577,62336,4
38572,62338,5
38577,62336,5
38579,62342,5
38582,62349,5
38589,62355,4
38589,62348,5
38586,62351,5
38587,62351,5
38587,62345,5
38587,62350,4
38583,62356,5
38589,62356,5
38593,62356,6
38586,62346,4
38583,62340,4
38581,62341,5
38573,62333,5
38568,62330,5
38575,62331,5
38582,62324,4
38577,62329,5
38573,62320,5
38569,62313,5
38558,62322,4
38559,62311,5
38563,62309,5
38557,62315,5
38559,62321,5
38560,62311,4
38555,62310,5
38558,62305,5
38545,62292,5
38551,62296,5
38553,62314,5
38569,62318,4
38563,62327,5
38565,62326,5
38569,62326,6
38566,62329,3
38566,62328,5
38580,62334,5
38576,62330,5
38575,62330,5
38574,62336,4
38571,62333,5
38569,62326,5
38574,62330,5
38577,62329,4
38576,62323,5
38575,62316,5
38572,62317,5
38559,62306,5
38557,62309,4
38551,62297,5
38551,62301,5
38552,62296,5
38552,62284,5
38554,62278,4
38539,62280,6
38538,62278,4
38545,62272,5
38537,62272,5
38546,62279,4
38533,62265,5
38535,62265,5
38535,62268,5
38529,62276,5
38544,62279,4
38547,62275,5
38534,62282,5
38532,62271,5
38528,62261,4
38524,62262,5
38531,62269,5
38531,62271,5
38539,62279,5
38527,62295,4
38539,62288,5
38530,62278,5
38538,62293,5
38521,62305,5
38555,62313,4
38565,62332,5
38571,62332,6
38555,62335,4
38565,62337,5
38575,62342,4
38584,62361,5
38615,62390,5
38623,62408,5
38646,62443,5
38660,62458,4
38696,62479,5
38693,62501,5
38722,62542,5
38753,62578,4
38796,62633,5
38815,62676,5
38840,62713,5
38850,62735,5
38873,62751,4
38878,62779,5
38889,62797,5
38919,62827,5
38937,62843,5
38956,62878,4
38956,62880,5
38953,62882,5
38952,62848,6
38941,62866,4
38941,62867,4
38949,62858,5
38948,62832,5
38946,62850,5
38937,62845,5
38926,62824,4
38921,62828,5
38919,62832,5
38923,62841,5
38926,62844,4
38926,62864,4
38924,62827,5
38912,62824,5
38923,62806,5
38908,62839,4
38911,62810,5
38905,62808,5
38912,62805,5
38893,62802,5
38887,62775,5
38878,62765,4
38869,62758,5
38859,62753,5
38870,62749,5
38864,62762,4
38872,62774,5
38869,62772,5
38866,62763,5
38869,62766,5
38880,62772,4
38874,62781,5
38882,62795,5
38882,62795,5
38884,62787,4
38876,62780,4
38879,62770,5
38882,62776,5
38877,62787,5
38882,62786,4
38889,62791,5
38885,62794,5
38876,62779,5
38878,62788,5
38875,62796,4
38896,62808,6
38899,62827,4
38939,62863,5
38944,62883,5
38960,62899,4
38968,62915,5
38985,62947,5
39009,62963,5
39029,62993,5
39062,63042,4
39091,63078,5
39107,63105,5
39121,63124,5
39149,63159,4
39167,63201,4
39194,63234,5
39223,63278,5
39261,63305,5
39282,63333,4
39297,63346,5
39303,63359,5
39312,63376,5
39344,63416,5
39376,63455,4
39396,63496,5
39431,63532,6
39450,63563,4
39462,63578,5
39489,63610,4
39514,63644,5
39527,63665,5
39538,63689,5
39564,63706,5
39585,63731,4
39606,63749,5
39612,63772,5
39623,63778,5
39628,63789,4
39618,63785,4
39614,63775,5
39610,63762,5
39616,63769,5
39612,63763,4
39617,63781,5
39609,63769,5
39620,63770,5
39615,63761,5
39604,63752,4
39587,63736,5
39596,63744,5
39593,63740,5
39601,63748,5
39589,63731,4
39588,63731,5
39583,63715,5
39580,63707,5
39574,63701,5
39570,63700,4
39566,63706,5
39540,63699,5
39561,63684,5
39555,63678,4
39533,63653,4
39503,63643,5
39521,63638,5
39525,63633,5
39527,63631,4
39516,63628,5
39526,63634,5
39514,63612,5
39507,63584,5
39511,63573,5
39487,63568,4
39486,63575,5
39488,63577,5
39529,63573,5
39494,63567,4
39474,63536,5
39461,63526,5
39476,63523,5
39453,63516,5
39456,63519,4
39457,63530,5
39483,63539,5
39464,63531,5
39465,63526,4
39462,63511,4
39457,63499,5
39464,63506,5
39453,63511,5
39457,63501,4
39454,63470,5
39446,63475,6
39432,63460,4
39427,63468,5
39434,63443,4
39444,63487,7
39457,63506,3
39474,63512,5
39480,63520,5
39470,63519,4
39462,63497,5
39468,63497,5
39462,63515,5
39465,63497,5
39476,63502,4
39475,63482,5
39464,63512,5
39452,63451,5
39430,63423,4
39422,63401,4
39413,63399,5
39411,63376,5
39410,63373,5
39411,63347,4
39386,63327,5
39371,63300,5
39346,63275,6
39343,63264,4
39343,63255,4
39334,63248,5
39331,63236,5
39322,63213,5
39310,63204,5
39305,63188,4
39298,63176,5
39289,63168,5
39285,63177,5
39295,63182,5
39298,63179,4
39293,63149,5
39283,63146,5
39281,63129,5
39275,63136,4
39265,63130,4
39268,63132,5
39283,63131,5
39268,63129,5
39268,63115,5
39269,63104,4
39257,63092,5
39252,63074,5
39245,63076,6
39246,63076,3
39256,63065,5
39244,63055,5
39236,63044,5
39230,63025,5
39220,63007,4
39203,62994,5
39203,62986,5
39198,62982,5
39189,62958,5
39181,62947,4
39170,62927,5
39152,62911,5
39155,62899,5
39145,62877,5
39137,62867,4
39138,62845,5
39124,62850,5
39115,62832,5
39103,62825,4
39096,62789,6
39083,62772,4
39072,62756,5
39069,62743,5
39064,62741,6
39060,62731,3
39071,62720,5
39058,62722,5
39048,62711,5
39063,62704,4
39054,62700,5
39057,62705,5
39055,62698,5
39052,62694,5
39053,62682,4
39057,62684,5
39047,62674,5
39048,62653,5
39035,62647,5
39044,62637,4
39024,62633,5
39031,62633,5
39032,62629,5
39039,62624,4
39030,62627,5
39038,62635,6
39038,62641,4
39050,62650,5
39073,62678,4
39079,62694,5
39089,62696,5
39095,62700,5
39083,62691,5
39067,62679,4
39072,62665,5
39065,62657,5
39068,62659,5
39044,62656,5
39061,62657,4
39052,62646,5
39047,62634,5
39025,62620,5
39040,62624,5
39049,62619,4
39039,62622,5
39055,62635,5
39041,62633,5
39033,62610,4
39031,62607,4
39046,62591,5
39005,62582,6
38998,62575,4
38999,62565,4
39011,62557,5
38975,62546,5
38967,62513,5
38953,62497,5
38950,62494,4
38936,62485,5
38933,62478,5
38938,62467,5
38927,62452,5
38914,62452,4
38910,62432,5
38910,62424,5
38909,62401,5
38912,62422,5
38900,62427,4
38910,62422,5
38910,62394,5
38900,62415,5
38900,62406,5
38896,62405,4
38903,62413,5
38904,62413,5
38917,62418,6
38920,62403,3
38918,62422,5
38899,62393,5
38902,62381,5
38909,62372,5
38903,62396,4
38902,62374,5
38892,62359,5
38898,62350,7
38871,62346,3
38858,62311,4
38857,62303,5
38889,62302,5
38856,62305,5
38864,62308,5
38860,62296,4
38856,62282,5
38844,62264,5
38839,62264,5
38831,62251,4
38827,62248,5
38829,62242,4
38834,62244,5
38826,62236,5
38818,62220,4
38816,62212,5
38818,62207,5
38819,62212,5
38820,62212,5
38834,62219,4
38829,62236,5
38838,62223,5
38830,62224,5
38838,62223,5
38842,62231,4
38833,62228,5
38845,62229,5
38852,62239,5
38847,62234,5
38843,62219,4
38831,62209,5
38842,62209,5
38830,62207,5
38828,62207,4
38824,62208,4
38816,62187,6
38804,62164,4
38790,62149,5
38785,62137,4
38769,62140,5
38777,62141,5
38772,62142,5
38779,62139,5
38774,62139,4
38758,62127,5
38770,62118,5
38766,62119,5
38756,62124,5
38762,62127,4
38761,62119,5
38758,62117,5
38752,62085,5
38741,62086,5
38728,62067,4
38725,62063,5
38723,62050,5
38722,62053,5
38725,62046,4
38722,62046,4
38711,62031,5
38708,62014,6
38708,62008,4
38699,62002,4
38701,61995,5
38700,61996,5
38699,61991,5
38693,61981,5
38699,61975,4
38689,61978,5
38692,61972,5
38685,61963,5
38676,61950,5
38673,61942,4
38670,61936,5
38658,61919,5
38645,61899,5
38641,61897,5
38646,61895,4
38647,61900,5
38649,61910,5
38646,61904,5
38638,61905,5
38646,61910,4
38646,61905,5
38633,61907,5
38650,61913,6
38649,61916,3
38652,61918,5
38628,61909,5
38651,61922,5
38656,61920,5
38646,61914,4
38626,61913,5
38636,61907,5
38632,61897,5
38627,61899,5
38636,61879,4
38616,61884,5
38611,61880,5
38616,61880,5
38639,61884,5
38618,61881,4
38612,61875,5
38617,61870,5
38630,61873,5
38612,61873,5
38619,61881,5
38621,61885,4
38620,61883,5
38619,61873,5
38610,61867,4
38611,61870,5
38616,61869,5
38620,61876,5
38618,61883,5
38624,61882,4
38633,61874,5
38627,61889,5
38632,61902,5
38640,61894,5
38642,61887,4
38650,61919,5
38653,61922,5
38652,61927,5
38661,61940,5
38667,61940,4
38663,61923,5
38661,61919,5
38662,61939,5
38665,61923,5
38657,61930,4
38656,61913,6
38660,61928,4
38648,61905,5
38644,61898,4
38638,61901,5
38653,61908,5
38651,61901,5
38654,61907,5
38650,61907,4
38640,61898,5
38654,61885,5
38634,61869,5
38642,61870,5
38638,61875,4
38634,61875,5
38639,61862,5
38629,61854,5
38632,61850,5
38618,61834,4
38623,61834,5
38617,61831,5
38616,61818,5
38615,61826,5
38616,61820,4
38609,61804,5
38610,61790,6
38601,61797,4
38604,61785,4
38616,61791,4
38616,61800,5
38622,61799,5
38612,61803,5
38614,61796,4
38601,61782,5
38594,61773,5
38598,61768,5
38597,61762,5
38593,61771,4
38603,61770,5
38597,61771,5
38600,61760,5
38583,61746,5
38580,61741,4
38581,61738,5
38582,61741,5
38595,61746,5
38583,61738,5
38586,61730,4
38583,61727,5
38576,61712,5
38572,61715,5
38564,61697,4
38563,61697,4
38571,61700,5
38564,61687,5
38562,61678,5
38549,61663,4
38544,61657,5
38539,61639,5
38534,61631,5
38540,61635,5
38541,61648,4
38539,61634,5
38528,61634,5
38534,61609,5
38524,61606,5
38524,61606,4
38517,61606,5
38524,61596,5
38527,61599,5
38513,61591,5
38515,61578,5
38513,61570,4
38503,61561,5
38498,61563,5
38508,61564,4
38509,61567,4
38512,61565,5
38507,61560,5
38495,61549,5
38486,61534,4
38478,61508,5
38476,61508,5
38481,61509,5
38476,61508,5
38475,61512,4
38469,61501,5
38478,61495,5
38467,61495,5
38466,61495,5
38468,61513,4
38481,61510,5
38484,61514,5
38488,61515,5
38468,61510,5
38474,61500,4
38474,61502,6
38473,61498,4
38467,61511,5
38480,61504,4
38477,61509,4
38483,61513,5
38489,61511,5
38474,61491,5
38474,61497,4
38476,61496,5
38495,61505,5
38483,61505,5
38486,61510,5
38484,61502,4
38499,61497,5
38483,61501,5
38484,61495,5
38478,61500,5
38495,61505,4
38478,61495,5
38485,61486,5
38474,61484,5
38474,61455,4
38468,61461,4
38469,61448,5
38458,61456,5
38463,61442,5
38465,61443,5
38458,61434,4
38458,61429,5
38452,61409,5
38445,61425,5
38443,61430,4
38450,61426,5
38443,61413,5
38440,61409,5
38440,61412,5
38429,61390,4
38425,61401,5
38427,61374,5
38420,61382,5
38416,61375,5
38415,61385,5
38414,61363,4
38409,61357,5
38405,61360,5
38414,61361,6
38407,61343,3
38398,61345,5
38409,61342,5
38398,61348,5
38407,61350,5
38407,61356,4
38406,61348,5
38403,61353,5
38402,61362,5
38405,61355,4
38414,61357,5
38422,61381,5
38430,61394,5
38440,61388,5
38433,61383,4
38435,61385,5
38435,61390,5
38424,61389,5
38441,61414,5
38458,61428,4
38464,61444,6
38474,61449,4
38473,61449,5
38469,61451,5
38475,61452,6
38475,61454,3
38486,61478,5
38504,61503,5
38495,61504,5
38495,61491,4
38491,61489,5
38488,61478,5
38482,61483,5
38495,61496,4
38507,61509,5
38511,61521,5
38508,61504,5
38506,61515,5
38499,61495,4
38499,61500,5
38496,61506,5
38519,61517,5
38524,61539,5
38516,61532,4
38515,61527,5
38512,61526,6
38504,61517,4
38514,61522,5
38525,61539,4
38533,61555,5
38546,61571,5
38548,61565,5
38529,61550,5
38522,61542,4
38528,61558,5
38553,61571,5
38552,61591,5
38570,61590,4
38568,61596,4
38555,61576,5
38540,61579,5
38546,61569,5
38541,61575,4
38563,61598,5
38568,61595,5
38566,61597,5
38548,61580,5
38550,61570,4
38555,61570,5
38557,61591,5
38566,61601,6
38581,61599,4
38578,61620,4
38573,61600,5
38561,61595,5
38574,61585,5
38568,61595,5
38572,61615,4
38586,61624,5
38594,61629,5
38590,61627,5
38599,61615,4
38587,61626,4
38591,61634,5
38595,61642,5
38601,61661,5
38622,61671,4
38625,61687,5
38597,61663,5
38611,61647,5
38597,61647,5
38599,61643,5
38597,61662,4
38613,61675,5
38624,61685,5
38610,61658,6
38607,61653,3
38594,61634,5
38596,61650,5
38604,61661,5
38634,61672,5
38626,61688,4
38622,61688,5
38620,61661,5
38620,61657,5
38604,61656,4
38609,61667,4
38615,61685,5
38644,61692,5
38635,61705,5
38630,61682,4
38621,61663,5
38615,61664,5
38604,61669,5
38624,61687,5
38626,61697,4
38640,61711,6
38651,61713,4
38628,61696,5
38627,61694,5
38627,61676,4
38635,61696,5
38642,61719,5
38655,61738,5
38662,61740,5
38654,61727,4
38657,61717,5
38653,61730,5
38644,61741,5
38657,61738,5
38675,61769,4
38695,61777,5
38698,61798,5
38692,61773,5
38676,61767,4
38682,61760,5
38692,61792,5
38697,61806,5
38727,61838,5
38742,61849,4
38740,61860,5
38847,61989,11
38847,61989,4
38862,62024,4
38875,62049,5
38898,62062,5
38901,62087,5
38916,62100,5
38929,62120,4
38941,62127,5
38951,62138,5
38952,62142,5
38960,62161,5
38982,62191,4
38993,62208,5
39012,62228,5
39020,62249,5
39021,62233,4
39026,62248,4
39036,62249,5
39038,62259,5
39053,62285,5
39070,62296,4
39087,62329,5
39087,62337,5
39101,62352,6
39107,62356,4
39116,62379,4
39130,62407,5
39172,62446,5
39203,62485,5
39220,62517,5
39252,62560,4
39273,62580,5
39285,62598,5
39306,62633,5
39333,62680,5
39382,62721,4
39393,62728,5
39406,62751,5
39409,62751,5
39416,62752,4
39413,62770,4
39426,62777,5
39446,62817,5
39487,62854,5
39505,62897,5
39532,62925,4
39549,62934,5
39545,62930,5
39543,62931,5
39556,62951,4
39584,62988,5
39612,63019,5
39620,63043,5
39634,63045,5
39644,63047,4
39639,63054,5
39638,63050,5
39651,63067,5
39674,63103,5
39693,63121,4
39700,63142,5
39707,63136,5
39705,63146,5
39712,63139,4
39709,63155,4
39724,63171,5
39758,63215,5
39779,63229,5
39796,63268,4
39795,63265,6
39805,63249,4
39801,63261,5
39819,63273,5
39838,63303,4
39852,63331,5
39868,63335,5
39851,63332,5
39850,63323,5
39842,63317,4
39842,63320,5
39827,63328,5
39871,63361,5
39899,63379,5
39908,63397,4
39896,63381,5
39895,63371,5
39878,63363,5
39879,63368,5
39904,63378,4
39914,63432,5
39935,63451,5
39957,63469,5
39979,63468,4
39944,63459,4
39928,63444,6
39942,63442,4
39971,63471,5
39975,63487,4
39982,63511,5
39991,63517,5
40002,63519,5
39991,63518,5
39994,63512,4
39987,63527,5
40013,63547,5
40043,63599,5
40063,63612,5
40066,63627,4
40072,63609,5
40060,63605,5
40056,63603,5
40057,63604,5
40069,63605,4
40090,63637,5
40090,63646,5
40094,63635,6
40086,63626,3
40080,63621,4
40084,63628,5
40090,63644,7
40113,63685,3
40129,63697,4
40143,63703,5
40142,63701,5
40142,63709,5
40122,63678,5
40130,63687,4
40139,63709,5
40177,63743,5
40179,63750,5
40183,63757,5
40187,63747,4
40184,63738,5
40168,63723,5
40177,63732,5
40184,63746,5
40190,63749,4
40191,63751,5
40190,63748,5
40181,63744,5
40162,63739,5
40173,63737,4
40170,63746,5
40193,63765,5
40208,63790,5
40209,63781,4
40200,63770,5
40180,63758,5
40176,63753,5
40177,63755,5
40202,63789,4
40238,63814,5
40257,63841,5
40279,63856,5
40279,63855,5
40267,63856,4
40271,63856,5
40282,63860,5
40299,63883,5
40309,63901,5
40307,63904,4
40302,63896,5
40304,63884,5
40292,63885,5
40291,63882,4
40300,63900,5
40314,63904,4
40313,63894,5
40305,63897,5
40305,63880,4
40290,63883,5
40296,63873,5
40291,63876,5
40298,63883,5
40303,63879,4
40292,63868,5
40285,63867,5
40278,63845,5
40260,63829,5
40255,63819,4
40249,63810,5
40222,63781,5
40209,63747,5
40187,63723,5
40166,63704,4
40159,63675,5
40134,63649,5
40122,63628,5
40110,63600,5
40084,63583,4
40064,63551,6
40054,63538,4
40047,63526,5
40041,63532,4
40032,63512,5
40019,63476,5
40001,63469,5
39985,63462,5
39991,63471,4
40002,63482,5
40026,63513,5
40036,63513,5
40028,63501,5
40028,63500,4
40020,63496,5
40023,63498,5
40033,63535,5
40057,63553,5
40072,63575,4
40074,63581,5
40074,63563,5
40065,63555,5
40064,63559,4
40065,63583,4
40088,63615,5
40118,63624,5
40114,63637,5
40088,63605,4
40081,63595,4
40084,63594,5
40084,63605,5
40076,63621,5
40114,63645,4
40121,63648,5
40122,63635,5
40100,63614,5
40080,63605,5
40083,63606,4
40085,63604,5
40113,63617,5
40097,63611,5
40087,63603,5
40076,63567,5
40076,63543,4
40042,63517,5
40034,63528,5
40043,63526,6
40052,63521,3
40032,63507,5
39998,63457,5
39971,63428,5
39958,63408,4
39950,63399,4
39952,63409,5
39958,63406,5
39960,63394,5
39953,63386,4
39937,63363,5
39920,63345,5
39926,63340,5
39941,63386,5
39963,63407,4
39970,63416,5
39970,63389,5
39946,63373,5
39939,63352,5
39921,63337,4
39927,63351,6
39935,63342,4
39938,63352,5
39932,63339,5
39919,63345,6
39918,63316,3
39917,63308,5
39909,63302,5
39918,63326,5
39933,63323,4
39934,63312,5
39925,63300,5
39894,63253,5
39876,63240,4
39875,63234,5
39887,63236,5
39895,63232,5
39896,63236,5
39880,63206,4
39856,63172,5
39835,63151,5
39824,63131,5
39826,63128,5
39828,63127,4
39836,63138,5
39832,63140,6
39828,63116,4
39810,63094,5
39799,63091,4
39809,63089,5
39823,63101,5
39834,63113,5
39823,63106,5
39822,63095,4
39806,63067,5
39793,63060,5
39784,63042,5
39791,63047,4
39806,63063,4
39826,63076,5
39822,63092,5
39817,63073,5
39798,63050,4
39786,63025,5
39787,63036,5
39795,63031,5
39810,63052,5
39817,63045,4
39814,63035,5
39804,63025,5
39808,63036,6
39818,63047,4
39842,63067,4
39848,63078,5
39865,63099,5
39873,63107,5
39886,63106,5
39891,63127,4
39910,63139,5
39936,63155,5
39949,63179,5
39968,63189,4
39976,63194,4
39995,63217,5
40026,63251,5
40058,63285,5
40096,63306,4
40117,63333,5
40135,63326,5
40159,63328,5
40155,63315,5
40156,63304,5
40158,63296,4
40148,63276,5
40157,63276,5
40171,63290,6
40193,63288,3
40194,63279,5
40189,63278,5
40211,63273,5
40210,63266,5
40205,63267,4
40219,63254,5
40233,63247,5
40229,63246,5
40206,63218,4
40210,63207,4
40219,63212,5
40223,63205,5
40232,63213,5
40238,63203,4
40235,63199,5
40250,63201,5
40240,63198,5
40250,63191,5
40261,63200,4
40271,63209,6
40262,63209,4
40277,63204,5
40283,63200,5
40278,63198,4
40268,63186,5
40291,63202,5
40295,63210,5
40286,63214,5
40290,63189,4
40296,63199,5
40300,63200,5
40312,63201,5
40325,63220,5
40327,63232,4
40346,63262,5
40354,63262,5
40384,63281,5
40366,63282,4
40375,63283,5
40372,63289,5
40390,63290,5
40384,63302,5
40401,63322,4
40410,63330,5
40425,63343,6
40430,63344,4
40437,63353,5
40441,63359,4
40448,63353,5
40457,63388,5
40473,63397,5
40476,63401,5
40485,63398,4
40492,63401,5
40484,63408,5
40495,63406,5
40495,63397,5
40504,63416,4
40502,63408,5
40513,63419,5
40499,63420,5
40501,63397,4
40498,63396,4
40499,63399,5
40507,63429,5
40526,63426,5
40533,63438,4
40544,63452,5
40544,63469,5
40537,63454,6
40531,63437,4
40527,63441,4
40547,63454,5
40562,63467,5
40576,63494,5
40586,63513,5
40610,63535,4
40614,63540,5
40625,63562,5
40642,63597,5
40672,63629,5
40692,63665,4
40725,63706,8
40736,63720,2
40730,63725,5
40748,63725,4
40745,63729,4
40763,63748,5
40776,63778,5
40803,63800,5
40825,63825,5
40840,63861,4
40850,63868,5
40852,63868,5
40866,63891,5
40897,63940,4
40931,63977,5
40947,64008,5
40958,64018,5
40954,64025,5
40959,64029,4
40964,64037,5
40979,64066,5
40991,64080,5
41018,64115,5
41044,64153,4
41051,64163,5
41063,64170,5
41076,64177,5
41076,64174,4
41083,64190,4
41099,64210,5
41113,64206,5
41116,64240,5
41117,64234,4
41119,64230,6
41110,64221,4
41130,64237,5
41139,64246,5
41136,64261,4
41139,64251,5
41154,64282,5
41158,64278,5
41157,64282,5
41167,64285,4
41186,64310,5
41189,64323,5
41198,64350,5
41216,64376,5
41230,64389,4
41242,64403,5
41261,64414,5
41259,64420,5
41277,64442,4
41291,64458,4
41297,64475,5
41313,64473,5
41316,64475,5
41300,64458,4
41280,64444,5
41278,64428,6
41284,64434,4
41273,64424,5
41262,64405,4
41265,64405,5
41246,64390,5
41243,64366,5
41240,64354,5
41235,64353,4
41237,64355,5
41236,64350,5
41235,64355,5
41237,64347,5
41220,64330,4
41220,64327,5
41222,64322,5
41221,64327,5
41207,64317,5
41214,64315,4
41213,64311,5
41211,64297,5
41188,64283,5
41195,64274,4
41197,64277,5
41195,64275,5
41196,64274,6
41201,64269,4
41201,64281,4
41199,64273,5
41207,64274,5
41194,64261,5
41192,64270,5
41181,64253,4
41193,64250,5
41174,64238,5
41172,64232,5
41165,64228,5
41175,64222,4
41158,64214,5
41154,64206,5
41149,64187,5
41147,64192,5
41136,64181,4
41130,64195,5
41146,64185,5
41135,64165,5
41120,64161,5
41102,64142,4
41096,64122,5
41097,64105,5
41094,64120,5
41096,64135,4
41100,64124,5
41092,64111,5
41072,64104,5
41061,64078,5
41055,64074,5
41045,64089,4
41049,64089,5
41052,64087,5
41046,64070,5
41021,64072,4
41016,64038,5
41012,64024,5
41016,64036,5
41025,64060,5
41025,64048,4
41018,64039,5
41011,64027,5
40992,64006,5
40980,63990,4
40979,63982,5
40970,63977,4
40970,63979,5
40965,63969,5
40946,63937,4
40923,63893,5
40890,63876,5
40878,63856,5
40882,63871,5
40903,63893,4
40908,63898,5
40896,63896,5
40889,63877,5
40871,63851,5
40865,63854,4
40869,63873,5
40881,63891,5
40887,63905,5
40872,63890,5
40851,63857,4
40825,63839,5
40802,63802,5
40780,63772,5
40757,63756,4
40759,63751,4
40744,63732,6
40727,63701,4
40695,63658,5
40672,63624,4
40656,63616,5
40662,63637,5
40678,63646,5
40683,63655,5
40691,63664,4
40677,63645,5
40670,63649,5
40685,63646,5
40682,63646,5
40682,63658,4
40685,63662,5
40688,63671,5
40682,63649,5
40657,63613,5
40647,63599,4
40641,63592,5
40634,63604,5
40640,63617,5
40650,63627,3
40653,63623,4
40643,63604,5
40621,63577,5
40617,63579,5
40610,63589,4
40628,63604,5
40632,63618,5
40647,63625,5
40644,63608,5
40617,63595,4
40613,63579,5
40602,63565,5
40591,63577,5
40588,63577,5
40597,63578,4
40573,63569,5
40565,63546,5
40555,63532,5
40528,63518,5
40517,63512,5
40515,63516,4
40510,63513,5
40490,63493,5
40481,63466,6
40443,63422,3
40408,63383,5
40385,63357,5
40366,63340,5
40358,63330,4
40356,63311,5
40323,63276,5
40288,63226,5
40249,63175,5
40197,63107,4
40151,63054,5
40094,62988,5
40068,62942,5
40036,62880,5
39971,62805,4
39903,62734,5
39869,62662,5
39814,62615,5
39785,62572,5
39755,62545,4
39734,62528,6
39716,62497,4
39694,62460,5
39682,62443,5
39650,62426,6
39656,62429,3
39658,62448,5
39681,62457,5
39676,62472,4
39669,62475,4
39666,62467,5
39676,62469,5
39672,62477,5
39679,62511,4
39702,62548,5
39709,62582,5
39732,62598,5
39733,62619,5
39738,62637,4
39751,62644,5
39762,62681,5
39793,62731,5
39823,62789,5
39846,62816,4
39851,62831,5
39865,62862,6
39873,62882,4
39880,62893,5
39892,62923,4
39907,62940,5
39912,62965,5
39920,62999,5
39939,63011,4
39944,63039,4
39952,63054,5
39959,63101,5
39978,63105,5
39981,63137,4
39994,63153,5
39997,63179,5
40003,63181,5
40016,63205,5
40025,63216,4
40016,63237,5
40020,63251,5
40030,63271,5
40040,63295,5
40054,63313,4
40061,63339,5
40090,63358,5
40095,63377,6
40099,63402,4
40117,63430,4
40124,63452,5
40146,63470,5
40156,63500,5
40166,63524,4
40182,63550,4
40196,63575,5
40211,63611,5
40226,63634,5
40245,63647,4
40254,63668,5
40275,63687,5
40296,63717,5
40307,63747,5
40314,63759,4
40316,63758,5
40308,63739,5
40300,63739,5
40308,63752,5
40313,63756,5
40326,63791,4
40341,63791,5
40346,63826,5
40358,63838,6
40370,63844,3
40371,63850,5
40376,63853,5
40397,63874,5
40415,63913,5
40423,63942,4
40445,63956,5
40444,63964,5
40452,63981,5
40456,63984,4
40468,63998,5
40476,64002,5
40483,64020,5
40492,64027,5
40496,64032,4
40506,64046,5
40506,64039,5
40499,64042,5
40503,64043,5
40509,64054,4
40523,64082,6
40538,64091,4
40541,64093,5
40544,64102,5
40541,64085,4
40542,64092,5
40551,64104,5
40568,64125,5
40571,64145,5
40577,64161,4
40581,64149,5
40586,64148,5
40581,64150,5
40590,64149,4
40582,64168,4
40584,64180,5
40590,64176,5
40587,64177,5
40584,64182,4
40601,64188,5
40595,64185,5
40599,64189,5
40610,64211,5
40617,64222,4
40623,64223,5
40620,64231,6
40613,64235,4
40606,64221,5
40595,64209,4
40596,64211,5
40594,64217,5
40594,64201,5
40567,64189,5
40573,64178,4
40566,64167,5
40552,64146,5
40543,64138,5
40555,64135,4
40562,64146,4
40567,64136,5
40541,64132,5
40543,64131,5
40542,64109,4
40523,64092,5
40528,64101,5
40522,64091,5
40530,64105,5
40527,64115,4
40531,64094,5
40514,64089,5
40499,64082,6
40489,64068,4
40493,64065,4
40487,64055,5
40478,64048,5
40464,64046,5
40461,64025,5
40447,64014,4
40424,64000,5
40433,63994,5
40435,63990,5
40428,63996,4
40423,63994,4
40425,63981,5
40417,63965,5
40414,63976,5
40404,63962,4
40406,63971,5
40399,63969,5
40401,63977,5
40398,63975,5
40392,63962,5
40391,63964,4
40386,63945,5
40377,63943,5
40379,63951,5
40380,63959,4
40372,63953,5
40369,63946,5
40371,63934,5
40349,63938,5
40343,63909,4
40339,63899,5
40335,63890,5
40333,63892,5
40320,63882,4
40315,63862,4
40301,63858,5
40292,63848,5
40287,63827,5
40284,63822,4
40266,63816,5
40253,63808,5
40260,63807,5
40260,63794,5
40239,63773,4
40229,63769,6
40222,63760,4
40208,63744,5
40195,63714,5
40170,63681,4
40152,63660,7
40152,63642,3
40128,63621,5
40118,63612,5
40110,63595,4
40096,63570,5
40084,63545,5
40080,63532,5
40063,63541,4
40067,63530,4
40070,63528,5
40060,63521,5
40055,63507,5
40034,63483,4
40021,63462,5
40017,63442,5
39999,63407,5
39982,63389,5
39961,63358,4
39937,63315,5
39905,63270,6
39877,63224,4
39856,63194,5
39837,63168,4
39839,63169,5
39823,63154,5
39817,63145,5
39816,63129,5
39791,63095,4
39772,63058,5
39755,63043,5
39750,63049,5
39745,63049,5
39747,63044,4
39749,63036,5
39739,63012,5
39715,62983,5
39693,62952,4
39667,62931,5
39655,62918,5
39653,62897,5
39628,62869,5
39609,62833,4
39585,62804,5
39566,62773,5
39549,62756,6
39541,62746,4
39529,62721,4
39511,62695,5
39476,62648,5
39449,62613,5
39416,62583,5
39402,62556,4
39390,62533,5
39371,62514,5
39352,62497,5
39331,62476,5
39307,62416,4
39276,62381,5
39244,62349,5
39226,62325,5
39210,62309,4
39219,62297,5
39201,62287,5
39177,62258,5
39165,62237,5
39150,62216,5
39152,62201,4
39131,62206,5
39142,62203,5
39135,62207,5
39134,62190,4
39104,62179,5
39108,62164,5
39097,62150,5
39095,62148,5
39098,62162,4
39094,62149,5
39087,62145,5
39073,62134,5
39078,62124,5
39060,62121,4
39054,62108,5
39054,62107,5
39071,62107,5
39048,62098,4
39045,62076,4
39024,62071,6
39018,62047,4
38999,62029,5
38995,62036,4
38995,62023,6
39000,62030,4
38981,62019,5
38979,62006,5
38972,61995,4
38965,61982,5
38962,61981,5
38965,61985,5
38954,61988,5
38955,61969,4
38947,61969,5
38944,61961,5
38935,61955,5
38929,61948,5
38928,61946,4
38929,61962,5
38936,61956,5
38930,61945,5
38922,61928,4
38904,61911,4
38898,61903,5
38888,61903,5
38891,61892,5
38892,61893,4
38891,61896,5
38884,61888,6
38875,61878,4
38869,61872,5
38870,61876,4
38879,61883,5
38874,61888,5
38874,61894,5
38868,61871,5
38870,61861,4
38857,61860,5
38851,61858,5
38857,61861,5
38853,61869,5
38859,61863,4
38850,61867,5
38854,61853,5
38831,61841,5
38829,61839,4
38835,61835,4
38836,61868,5
38851,61863,5
38860,61877,5
38860,61886,4
38863,61884,5
38862,61890,5
38876,61906,5
38877,61921,5
38892,61942,4
38902,61955,5
38904,61962,5
38897,61959,5
38900,61949,5
38901,61954,4
38904,61964,5
38913,61981,5
38922,62008,5
38935,62015,5
38939,62019,4
38933,62027,5
38942,62035,5
38953,62044,5
38959,62059,4
38966,62073,4
38973,62092,4
38988,62114,5
38994,62122,5
39007,62138,6
39021,62154,3
39019,62164,5
39039,62183,5
39051,62211,5
39067,62219,4
39079,62246,5
39080,62268,5
39099,62269,5
39103,62289,5
39113,62297,4
39114,62314,5
39123,62330,5
39131,62333,5
39140,62349,5
39150,62368,4
39151,62381,5
39158,62395,5
39158,62395,5
39163,62404,5
39169,62409,4
39172,62424,6
39178,62414,4
39188,62432,5
39178,62432,4
39181,62437,7
39173,62431,3
39180,62430,5
39180,62440,5
39182,62433,4
39187,62435,5
39189,62443,5
39191,62461,5
39190,62456,5
39186,62456,4
39192,62467,5
39194,62474,5
39192,62474,5
39203,62492,5
39214,62500,4
39218,62521,5
39224,62518,5
39207,62516,5
39208,62515,5
39204,62505,4
39203,62508,5
39208,62501,6
39186,62506,4
39201,62506,4
39197,62496,4
39201,62478,5
39184,62474,5
39187,62473,5
39185,62460,4
39193,62470,5
39194,62468,5
39176,62472,5
39178,62471,5
39176,62463,4
39184,62468,5
39163,62453,5
39161,62452,5
39172,62467,5
39187,62480,4
39176,62484,5
39184,62485,5
39189,62489,5
39187,62495,5
39187,62490,4
39198,62501,5
39205,62514,5
39206,62521,6
39210,62542,3
39227,62544,4
39217,62541,5
39229,62528,5
39216,62544,5
39214,62542,4
39221,62548,5
39216,62548,5
39219,62558,5
39212,62553,5
39214,62561,5
39207,62551,4
39196,62543,5
39197,62561,5
39199,62564,5
39202,62586,4
39216,62582,5
39215,62592,5
39213,62575,5
39224,62595,5
39217,62589,5
39214,62590,4
39223,62610,5
39229,62617,5
39231,62621,6
39233,62621,3
39239,62626,5
39232,62630,5
39237,62636,5
39243,62643,4
39258,62659,5
39267,62681,5
39271,62688,5
39264,62689,5
39282,62705,4
39284,62707,5
39276,62718,5
39286,62725,5
39291,62735,5
39305,62748,4
39300,62754,5
39298,62749,5
39298,62748,5
39299,62737,5
39296,62750,4
39302,62751,6
39303,62761,4
39301,62767,5
39309,62768,4
39310,62770,4
39302,62762,5
39303,62760,5
39314,62778,5
39318,62778,4
39326,62788,5
39324,62788,5
39324,62795,5
39325,62792,5
39317,62785,4
39319,62789,5
39325,62793,5
39331,62790,5
39341,62803,5
39336,62805,4
39331,62799,5
39338,62799,5
39331,62808,5
39336,62814,5
39354,62821,4
39364,62842,5
39378,62849,6
39373,62862,4
39381,62862,5
39388,62869,4
39387,62868,5
39387,62878,5
39395,62893,5
39407,62898,4
39405,62905,5
39409,62918,5
39411,62913,5
39413,62925,5
39423,62914,4
39418,62919,5
39418,62923,5
39423,62927,5
39428,62937,5
39434,62940,4
39426,62937,5
39428,62930,5
39431,62926,5
39429,62922,5
39434,62936,4
39439,62948,5
39442,62953,5
39439,62955,6
39442,62943,4
39443,62954,4
39443,62952,5
39436,62958,5
39441,62957,5
39446,62967,4
39450,62966,4
39447,62961,5
39439,62960,5
39443,62955,5
39422,62948,4
39436,62958,5
39424,62948,5
39440,62948,5
39432,62956,5
39427,62950,4
39419,62933,5
39422,62931,5
39410,62933,5
39430,62922,5
39409,62929,5
39419,62919,4
39401,62906,5
39396,62896,5
39411,62896,5
39390,62885,4
39391,62878,5
39381,62874,5
39394,62874,5
39385,62856,4
39381,62853,4
39366,62845,5
39374,62838,5
39359,62832,5
39359,62830,4
39357,62811,5
39351,62805,5
39333,62795,5
39328,62783,5
39325,62768,4
39316,62755,5
39314,62754,5
39309,62740,5
39294,62731,5
39290,62699,4
39275,62689,6
39265,62682,4
39260,62678,5
39265,62670,5
39251,62662,4
39247,62661,5
39235,62640,5
39229,62622,5
39218,62614,4
39219,62613,4
39212,62603,5
39211,62617,5
39194,62596,5
39202,62575,4
39183,62567,5
39185,62566,5
39173,62545,5
39165,62550,5
39159,62548,4
39156,62532,5
39151,62528,5
39146,62509,5
39135,62502,5
39132,62488,4
39123,62490,5
39115,62486,6
39118,62478,4
39098,62460,5
39088,62443,4
39084,62433,5
39072,62422,5
39075,62423,5
39074,62415,5
39063,62408,4
39065,62396,5
39057,62391,5
39040,62373,5
39020,62363,4
39025,62347,5
39020,62345,5
39015,62353,5
39017,62338,5
39006,62333,8
39010,62324,1
39005,62329,5
38998,62315,5
38997,62317,5
38995,62306,4
38981,62299,5
38989,62302,5
38975,62283,5
38977,62290,5
38962,62282,4
38962,62276,5
38963,62275,5
38961,62276,5
38953,62261,5
38948,62262,4
38947,62248,5
38939,62245,5
38940,62254,5
38937,62246,4
38940,62242,4
38933,62244,5
38928,62232,5
38927,62213,5
38918,62202,4
38908,62202,5
38893,62181,5
38887,62171,5
38879,62170,5
38877,62167,5
38874,62147,4
38865,62133,5
38855,62130,5
38858,62120,5
38832,62111,4
38838,62106,5
38839,62096,5
38818,62085,5
38814,62063,5
38803,62059,4
38791,62046,5
38783,62041,5
38771,62027,5
38775,62017,4
38768,62007,4
38755,61998,5
38744,61991,5
38741,61980,5
38740,61967,4
38734,61967,5
38729,61961,5
38727,61955,5
38731,61960,5
38723,61948,4
38721,61942,6
38717,61945,4
38721,61941,5
38724,61938,5
38719,61946,4
38715,61937,5
38715,61942,5
38708,61932,5
38696,61924,5
38692,61917,4
38696,61913,5
38694,61907,5
38680,61915,5
38678,61906,4
38686,61896,4
38670,61887,5
38672,61886,5
38666,61882,5
38666,61904,4
38660,61894,5
38674,61891,5
38660,61882,5
38659,61881,5
38656,61877,4
38667,61873,5
38655,61877,6
38651,61877,4
38652,61873,5
38655,61864,4
38646,61870,5
38637,61868,5
38629,61855,5
38639,61852,5
38633,61853,4
38627,61861,5
38625,61861,5
38627,61856,5
38637,61855,5
38628,61861,4
38632,61859,5
38636,61849,5
38626,61864,5
38640,61867,4
38633,61871,5
38635,61845,5
38628,61846,5
38629,61853,5
38625,61866,5
38620,61870,4
38628,61862,5
38632,61864,5
38623,61875,5
38631,61877,4
38630,61872,5
38638,61876,5
38643,61890,5
38646,61912,5
38658,61916,4
38664,61924,5
38669,61929,5
38668,61941,5
38670,61945,5
38682,61952,4
38679,61963,5
38692,61971,5
38696,61969,5
38693,61980,4
38709,61979,5
38702,61980,4
38697,61982,5
38710,62000,5
38718,62005,6
38720,62021,3
38722,62028,5
38739,62045,5
38733,62047,5
38743,62053,4
38746,62051,5
38752,62060,5
38758,62083,5
38752,62088,5
38767,62101,4
38780,62107,5
38786,62118,5
38789,62111,5
38782,62120,5
38788,62123,4
38785,62127,5
38784,62131,5
38797,62146,5
38807,62152,4
38799,62157,5
38802,62155,6
38799,62148,4
38814,62164,5
38804,62164,4
38826,62181,7
38824,62181,3
38825,62191,5
38827,62198,5
38827,62189,4
38824,62205,5
38817,62207,5
38833,62213,5
38838,62229,5
38846,62238,4
38841,62249,5
38855,62246,5
38852,62248,5
38846,62248,5
38851,62256,4
38867,62265,5
38866,62277,5
38869,62281,5
38868,62287,4
38873,62294,4
38875,62289,5
38872,62286,6
38872,62293,4
38869,62288,4
38872,62291,5
38875,62296,5
38865,62292,5
38868,62292,5
38859,62277,4
38858,62272,5
38850,62277,5
38866,62277,5
38858,62275,5
38870,62299,4
38864,62298,5
38873,62296,5
38863,62291,5
38861,62297,5
38872,62294,4
38873,62297,5
38886,62315,5
38884,62322,5
38881,62326,5
38891,62322,4
38888,62316,5
38885,62327,5
38892,62335,6
38904,62348,3
38906,62358,5
38900,62368,5
38907,62368,5
38906,62362,5
38908,62362,4
38907,62373,5
38924,62381,5
38929,62392,5
38935,62404,5
38937,62412,4
38946,62413,5
38947,62412,5
38951,62417,5
38960,62424,5
38961,62435,4
38967,62448,5
38979,62459,5
38991,62459,5
38968,62450,4
38973,62464,5
38968,62462,4
38976,62472,5
38976,62482,5
38992,62494,6
38997,62505,3
38992,62508,5
38992,62502,5
38991,62491,5
38995,62502,4
38997,62513,5
38993,62520,5
39005,62535,5
39004,62538,5
39010,62534,4
39003,62528,5
39002,62539,5
39003,62541,5
39002,62529,5
39025,62564,4
39023,62569,5
39032,62580,5
39037,62596,5
39043,62594,4
39031,62606,4
39050,62602,6
39050,62629,4
39061,62635,5
39063,62639,4
39066,62644,5
39073,62654,5
39065,62637,5
39065,62633,5
39056,62638,4
39060,62641,5
39075,62647,5
39088,62662,5
39075,62667,5
39081,62672,4
39083,62673,5
39086,62672,5
39085,62669,5
39096,62674,5
39097,62690,4
39102,62697,5
39094,62693,5
39106,62686,5
39100,62693,5
39096,62701,4
39094,62694,5
39108,62703,6
39119,62719,4
39123,62713,4
39117,62712,5
39113,62701,5
39118,62720,5
39121,62709,5
39123,62711,4
39125,62722,5
39128,62733,5
39125,62719,5
39127,62726,5
39124,62730,4
39125,62716,5
39134,62721,5
39135,62734,5
39128,62734,5
39141,62745,4
39131,62746,5
39138,62733,5
39135,62729,5
39130,62726,5
39123,62739,4
39122,62729,5
39143,62736,5
39140,62737,6
39140,62731,3
39128,62733,4
39121,62732,5
39113,62722,5
39130,62736,5
39137,62729,4
39133,62739,5
39143,62736,5
39132,62728,5
39131,62731,5
39126,62729,4
39128,62718,5
39126,62735,5
39137,62741,5
39140,62748,5
39136,62739,4
39138,62737,5
39125,62726,5
39126,62723,5
39128,62720,5
39129,62726,5
39129,62717,4
39136,62728,5
39129,62702,5
39121,62700,4
39120,62697,4
39108,62688,5
39108,62694,5
39110,62686,5
39102,62691,4
39102,62672,5
39083,62659,5
39085,62654,5
39088,62636,5
39075,62636,4
39079,62637,5
39081,62630,5
39076,62636,5
39074,62623,5
39069,62624,4
39070,62621,5
39070,62606,5
39066,62606,5
39050,62601,5
39050,62585,4
39057,62588,6
39046,62581,4
39043,62577,5
39047,62579,4
39069,62579,4
39049,62573,5
39038,62577,5
39044,62558,5
39033,62556,4
39033,62547,5
39034,62543,5
39027,62536,5
39013,62519,5
38995,62500,4
39001,62493,5
38986,62476,5
38975,62461,5
38970,62446,5
38978,62456,4
38970,62448,5
38958,62447,5
38963,62434,5
38958,62436,5
38946,62428,4
38947,62425,5
38952,62425,6
38947,62422,4
38947,62421,4
38946,62417,4
38933,62410,5
38932,62399,5
38920,62399,5
38927,62401,4
38917,62405,5
38919,62388,5
38931,62396,5
38920,62384,5
38913,62364,5
38903,62365,4
38908,62363,5
38893,62351,5
38891,62345,5
38888,62356,4
38879,62331,5
38868,62316,5
38863,62309,5
38864,62313,5
38855,62294,4
38848,62287,5
38847,62281,5
38836,62285,5
38830,62258,4
38830,62240,4
38816,62243,5
38811,62235,5
38805,62233,5
38801,62215,4
38787,62201,5
38775,62183,5
38764,62166,5
38766,62160,5
38759,62152,4
38746,62148,5
38747,62133,5
38737,62127,5
38735,62125,5
38724,62119,4
38727,62109,5
38721,62105,5
38721,62098,5
38711,62086,5
38713,62090,5
38715,62084,4
38705,62065,5
38700,62057,5
38687,62041,5
38678,62042,4
38673,62025,5
38651,62000,5
38643,61992,5
38631,61967,7
38622,61945,2
38621,61937,5
38604,61923,5
38595,61918,5
38585,61917,4
38587,61919,5
38588,61914,5
38579,61898,5
38577,61887,5
38573,61888,4
38560,61880,5
38557,61876,5
38555,61874,5
38549,61869,5
38546,61868,4
38544,61866,6
38535,61850,4
38538,61846,5
38535,61840,5
38537,61836,4
38527,61836,5
38527,61825,5
38517,61817,5
38512,61803,4
38508,61796,5
38508,61787,5
38503,61794,5
38499,61781,5
38506,61782,4
38498,61774,5
38497,61767,5
38492,61763,5
38490,61767,5
38473,61770,4
38480,61763,5
38475,61760,5
38483,61754,5
38474,61758,5
38481,61749,4
38475,61746,5
38469,61748,5
38467,61735,5
38480,61750,5
38473,61741,4
38472,61737,5
38475,61740,5
38472,61747,5
38483,61753,4
38479,61749,5
38490,61762,5
38486,61757,5
38478,61754,5
38486,61763,4
38488,61749,5
38471,61760,5
38474,61743,5
38481,61748,5
38479,61745,5
38465,61746,4
38483,61752,5
38470,61744,5
38480,61748,5
38470,61748,4
38487,61752,5
38487,61761,5
38472,61753,5
38480,61745,5
38475,61739,4
38478,61741,5
38468,61746,5
38487,61740,5
38479,61754,4
38492,61768,4
38495,61774,5
38511,61772,5
38507,61776,5
38503,61777,4
38507,61780,5
38499,61782,5
38504,61780,5
38511,61778,5
38505,61784,4
38506,61794,5
38513,61796,4
38505,61797,5
38498,61800,5
38508,61792,5
38511,61805,3
38519,61821,5
38531,61824,5
38533,61831,5
38521,61842,4
38538,61845,5
38529,61850,5
38539,61854,5
38541,61860,4
38548,61861,4
38553,61865,5
38551,61874,5
38543,61863,5
38544,61869,4
38538,61865,5
38541,61875,5
38539,61859,5
38533,61865,5
38534,61866,4
38544,61878,5
38553,61870,6
38544,61876,4
38542,61879,5
38544,61877,4
38544,61888,7
38555,61900,3
38558,61908,5
38560,61901,5
38571,61914,4
38561,61911,5
38557,61905,5
38562,61911,5
38554,61925,4
38563,61934,4
38573,61945,5
38581,61941,5
38584,61949,5
38575,61948,4
38580,61950,5
38588,61966,5
38591,61964,5
38598,61969,5
38592,61980,4
38600,61981,5
38596,61979,5
38602,61980,6
38597,61975,4
38593,61973,4
38598,61976,5
38601,61990,5
38598,61985,5
38604,61993,5
38602,61988,4
38596,61969,5
38590,61967,5
38590,61974,5
38597,61986,4
38594,61990,4
38603,62000,5
38601,61997,5
38597,61992,5
38597,61986,4
38589,61975,5
38594,61986,5
38594,61980,5
38591,61990,5
38599,61987,5
38596,61992,4
38592,61982,5
38581,61979,5
38583,61975,6
38579,61975,3
38594,61980,5
38584,61987,5
38584,61980,5
38588,61974,5
38585,61979,4
38578,61965,5
38572,61963,5
38574,61963,5
38581,61982,4
38585,61968,4
38579,61975,5
38580,61967,5
38561,61960,5
38568,61958,4
38565,61959,5
38568,61967,5
38564,61960,5
38574,61977,5
38561,61964,4
38564,61964,6
38567,61965,4
38565,61968,5
38576,61976,5
38578,61958,6
38554,61963,3
38565,61971,5
38560,61975,5
38573,61981,5
38571,61985,4
38573,61996,5
38587,62010,5
38593,62025,5
38603,62045,4
38620,62049,4
38613,62046,5
38616,62046,5
38600,62056,5
38624,62065,4
38626,62075,5
38641,62078,5
38634,62100,5
38657,62107,5
38657,62100,4
38665,62124,5
38677,62127,6
38671,62137,4
38683,62153,5
38697,62175,4
38700,62168,5
38696,62171,5
38697,62175,5
38695,62169,5
38700,62174,4
38690,62180,5
38700,62183,5
38711,62192,5
38717,62201,4
38714,62201,4
38710,62191,5
38700,62193,5
38712,62185,5
38718,62201,4
38725,62212,5
38726,62221,5
38730,62215,5
38723,62232,5
38730,62232,4
38737,62245,5
38745,62235,5
38754,62254,6
38769,62285,4
38774,62298,5
38775,62301,4
38783,62290,5
38787,62299,5
38783,62304,5
38785,62324,4
38794,62333,5
38813,62353,5
38823,62363,5
38821,62375,4
38830,62367,4
38832,62366,5
38835,62377,5
38843,62401,5
38863,62421,4
38882,62447,5
38895,62463,5
38891,62488,5
38904,62472,5
38912,62488,5
38911,62501,4
38917,62505,5
38923,62525,5
38945,62540,6
38951,62548,3
38955,62546,5
38959,62560,5
38958,62561,5
38966,62562,5
38982,62574,4
38991,62595,5
39010,62610,5
39002,62612,5
39007,62619,4
39005,62619,4
39012,62617,5
39020,62631,5
39021,62649,5
39043,62663,4
39037,62666,5
39049,62669,5
39042,62668,5
39041,62676,5
39044,62664,4
39055,62671,6
39057,62683,4
39073,62688,5
39064,62686,5
39067,62682,4
39063,62682,5
39064,62674,5
39062,62677,5
39057,62675,5
39065,62679,4
39069,62689,5
39054,62668,5
39047,62652,5
39035,62636,4
39021,62597,4
39011,62590,5
38999,62578,5
38999,62555,5
38982,62545,4
38967,62517,5
38959,62505,5
38939,62475,5
38938,62456,5
38921,62454,4
38924,62435,5
38908,62414,6
38900,62399,4
38889,62371,5
38880,62362,4
38876,62362,5
38863,62347,5
38870,62340,5
38850,62321,5
38839,62302,4
38830,62295,5
38833,62290,5
38826,62273,5
38815,62265,4
38813,62270,4
38809,62248,5
38793,62235,5
38794,62233,5
38798,62233,4
38787,62230,5
38799,62238,5
38799,62239,5
38791,62223,5
38785,62218,4
38777,62190,5
38762,62182,5
38750,62176,6
38761,62172,4
38751,62167,4
38750,62159,5
38736,62157,5
38745,62148,5
38750,62141,5
38739,62135,4
38733,62144,5
38740,62145,5
38724,62131,5
38731,62140,4
38723,62132,4
38732,62112,5
38719,62119,5
38714,62119,5
38720,62126,4
38721,62123,5
38712,62117,5
38700,62100,5
38706,62099,5
38690,62093,5
38684,62081,4
38690,62091,5
38685,62092,5
38680,62089,5
38669,62075,4
38646,62045,5
38625,62023,5
38618,62007,5
38602,61989,5
38588,61975,4
38575,61946,5
38548,61923,5
38526,61887,5
38497,61844,5
38467,61815,4
38461,61812,5
38449,61786,5
38436,61774,5
38426,61748,4
38416,61745,5
38413,61738,5
38411,61734,5
38417,61738,5
38421,61732,4
38422,61730,6
38415,61747,4
38427,61748,5
38422,61742,5
38425,61742,4
38422,61737,5
38430,61759,5
38441,61764,5
38426,61767,5
38433,61757,4
38422,61766,5
38423,61749,5
38424,61762,5
38431,61768,5
38428,61772,4
38427,61762,5
38425,61757,5
38422,61740,5
38407,61738,4
38398,61730,5
38399,61734,5
38404,61737,5
38413,61731,5
38407,61724,4
38399,61717,5
38392,61721,7
38394,61702,3
38381,61696,5
38382,61702,4
38386,61696,5
38379,61691,5
38367,61682,5
38358,61673,5
38347,61645,4
38332,61642,5
38338,61627,5
38315,61604,5
38319,61602,5
38304,61584,4
38290,61568,5
38293,61558,5
38282,61547,5
38275,61538,4
38264,61524,5
38254,61523,5
38254,61514,5
38249,61514,10
38245,61503,4
38236,61496,5
38232,61486,5
38230,61483,5
38228,61480,4
38228,61481,5
38235,61481,5
38227,61480,5
38226,61476,5
38222,61467,4
38209,61465,5
38218,61463,5
38215,61461,5
38212,61459,5
38207,61451,4
38204,61438,5
38197,61440,5
38193,61431,5
38195,61420,4
38182,61417,4
38184,61415,5
38185,61426,5
38182,61427,5
38177,61407,5
38172,61391,4
38161,61384,5
38156,61362,5
38145,61344,5
38130,61331,4
38124,61319,5
38107,61303,5
38092,61280,5
38078,61262,5
38073,61246,4
38066,61239,5
38068,61233,5
38056,61227,5
38047,61221,5
38041,61204,4
38049,61206,5
38032,61184,5
38035,61194,5
38033,61189,4
38024,61184,4
38022,61175,5
38014,61175,4
38022,61165,5
38010,61164,4
37995,61166,6
38011,61162,3
38016,61168,5
38012,61167,5
38006,61172,4
38011,61166,5
38017,61172,5
38010,61169,5
38011,61162,5
38008,61172,4
38008,61183,5
38015,61184,5
38019,61183,5
38011,61188,5
38003,61189,4
38003,61178,5
38009,61191,5
38011,61202,5
38009,61209,4
38020,61221,4
38023,61229,5
38031,61233,6
38028,61236,4
38023,61241,4
38031,61241,5
38033,61246,5
38055,61264,5
38063,61272,5
38079,61287,4
38080,61307,5
38082,61311,5
38088,61315,5
38101,61328,5
38109,61352,4
38131,61380,5
38147,61387,5
38156,61415,5
38178,61441,5
38187,61452,5
38185,61460,4
38190,61465,5
38189,61471,5
38205,61482,5
38215,61496,4
38224,61524,5
38221,61516,5
38227,61513,6
38226,61517,3
38240,61520,5
38230,61513,5
38231,61518,5
38237,61519,5
38234,61531,4
38234,61527,5
38235,61531,5
38232,61518,5
38224,61510,5
38223,61497,4
38221,61502,5
38225,61497,5
38229,61516,5
38226,61512,5
38219,61496,4
38216,61507,5
38217,61502,5
38234,61505,5
38226,61504,4
38232,61522,5
38236,61531,4
38248,61535,5
38250,61526,5
38251,61532,6
38252,61538,3
38268,61554,5
38269,61577,5
38289,61593,5
38294,61607,4
38303,61604,5
38308,61609,5
38308,61608,5
38307,61613,5
38321,61621,4
38330,61636,5
38334,61657,5
38347,61670,5
38343,61676,5
38355,61666,4
38357,61672,5
38348,61678,5
38363,61684,5
38369,61691,5
38380,61703,4
38385,61717,6
38385,61711,4
38400,61719,5
38395,61728,4
38395,61731,5
38399,61731,5
38403,61727,5
38413,61734,5
38410,61730,4
38414,61727,5
38399,61726,5
38397,61720,5
38413,61723,5
38408,61720,4
38421,61721,5
38424,61735,5
38433,61744,5
38435,61745,5
38437,61737,4
38439,61726,5
38429,61726,5
38442,61728,5
38444,61734,5
38450,61739,4
38456,61733,5
38464,61735,6
38453,61727,4
38458,61724,4
38472,61738,5
38474,61759,5
38481,61757,5
38492,61768,5
38501,61779,4
38506,61769,5
38519,61782,5
38522,61786,5
38522,61782,5
38521,61781,4
38526,61794,5
38544,61799,5
38541,61801,5
38525,61785,5
38540,61778,4
38540,61772,5
38532,61765,5
38534,61759,5
38587,61786,55
38587,61786,4
38611,61784,3
38604,61799,5
38638,61813,5
38647,61839,4
38668,61853,5
38672,61876,5
38677,61864,5
38682,61863,5
38683,61861,4
38681,61862,5
38695,61882,5
38712,61887,5
38719,61905,5
38725,61901,5
38726,61908,4
38724,61908,5
38727,61888,5
38725,61886,5
38736,61894,4
38754,61920,5
38769,61922,5
38773,61915,5
38770,61911,4
38770,61917,5
38779,61915,5
38774,61915,5
38783,61934,5
38793,61924,4
38778,61913,5
38780,61903,5
38782,61916,5
38794,61907,5
38787,61905,4
38785,61908,5
38799,61907,5
38795,61902,5
38785,61890,5
38782,61874,4
38776,61859,6
38766,61835,4
38753,61819,5
38747,61808,4
38734,61791,5
38727,61770,5
38709,61743,5
38703,61728,5
38691,61722,4
38688,61709,5
38679,61699,5
38657,61671,5
38639,61639,5
38628,61622,4
38620,61608,5
38618,61592,5
38602,61572,5
38588,61552,5
38573,61507,4
38544,61475,5
38521,61432,5
38492,61398,5
38485,61382,5
38468,61357,4
38461,61333,5
38439,61295,6
38405,61260,4
38386,61213,4
38365,61194,5
38349,61165,5
38350,61160,5
38338,61139,5
38321,61116,4
38303,61085,5
38286,61053,5
38276,61039,5
38269,61028,5
38259,61025,4
38256,61005,5
38243,60991,5
38227,60970,5
38197,60922,5
38181,60886,4
38154,60867,5
38165,60858,5
38150,60848,5
38147,60850,5
38132,60835,4
38116,60803,5
38099,60780,5
38078,60756,6
38070,60756,3
38064,60745,4
38062,60745,5
38061,60739,5
38044,60713,5
38015,60678,4
38005,60648,5
37989,60651,5
37988,60636,5
37988,60651,5
37994,60639,4
37993,60632,5
37975,60616,5
37951,60602,5
37952,60596,5
37939,60599,4
37952,60604,5
37955,60611,5
37959,60610,5
37954,60598,5
37950,60595,5
37948,60600,4
37947,60606,5
37956,60621,5
37952,60616,4
37965,60628,4
37952,60607,5
37941,60593,5
37929,60584,5
37931,60591,4
37928,60588,5
37941,60596,5
37938,60609,5
37940,60586,5
37916,60570,4
37913,60560,5
37911,60548,5
37899,60531,5
37879,60532,5
37884,60522,4
37873,60507,5
37860,60495,5
37849,60461,4
37830,60447,5
37810,60425,4
37811,60414,6
37815,60420,4
37804,60394,5
37798,60391,4
37774,60360,4
37770,60338,5
37742,60301,5
37727,60287,5
37719,60280,4
37711,60262,5
37703,60249,5
37671,60213,5
37649,60184,5
37630,60152,4
37609,60135,5
37613,60130,5
37607,60121,5
37598,60106,5
37592,60091,4
37566,60052,5
37533,60010,5
37514,59973,5
37506,59977,5
37501,59958,4
37495,59952,5
37471,59923,6
37437,59867,4
37404,59793,4
37359,59731,4
37297,59670,5
37257,59589,5
37211,59513,5
37147,59422,4
37071,59308,5
36967,59161,5
36875,59043,5
36791,58939,5
36723,58844,4
36649,58723,5
36560,58603,5
36465,58452,5
36354,58281,5
36229,58104,4
36102,57917,5
35999,57769,5
35911,57630,5
35816,57479,5
35710,57309,4
35580,57098,5
35400,56857,5
35265,56635,5
35138,56446,4
35038,56286,4
34951,56131,5
34864,55963,5
34763,55784,5
34634,55574,4
34527,55376,5
34400,55160,5
34305,54996,5
34228,54863,5
34149,54723,4
34082,54580,5
33985,54428,5
33910,54277,5
33833,54128,5
33783,54026,4
33747,53950,5
33711,53877,5
33677,53802,5
33650,53720,5
33621,53660,5
33583,53594,4
33567,53534,5
33561,53507,5
33553,53469,5
33537,53420,4
33530,53387,5
33512,53342,5
33504,53318,5
33504,53296,4
33503,53278,5
33521,53277,5
33513,53268,5
33523,53257,8
33525,53254,1
33525,53257,5
33527,53236,5
33541,53226,5
33561,53238,5
33587,53258,4
33606,53263,5
33624,53269,5
33639,53261,5
33659,53265,5
33665,53276,4
33690,53288,6
33711,53308,4
33748,53333,5
33775,53351,5
33792,53371,4
33813,53382,5
33830,53402,5
33853,53417,5
33870,53426,4
33907,53446,5
33910,53442,5
33913,53440,5
33925,53443,5
33930,53444,4
33947,53444,5
33945,53434,5
33959,53439,5
33965,53433,5
33969,53440,4
33988,53450,5
33992,53469,5
34005,53456,5
34015,53467,4
34032,53471,4
34044,53474,5
34047,53471,5
34045,53472,5
34055,53459,5
34062,53470,4
34075,53478,5
34082,53487,5
34098,53483,5
34103,53492,4
34103,53479,4
34079,53473,5
34100,53468,5
34113,53475,5
34106,53474,4
34117,53478,5
34105,53473,5
34115,53460,5
34103,53456,5
34127,53446,5
34104,53458,4
34107,53458,5
34106,53452,5
34125,53452,6
34102,53454,3
34092,53439,5
34097,53434,5
34096,53420,5
34076,53422,5
34078,53418,4
34080,53421,5
34078,53396,5
34061,53393,5
34055,53392,4
34050,53382,4
34051,53363,5
34045,53382,5
34025,53370,5
34024,53355,4
34017,53336,4
34019,53338,5
34008,53325,5
34007,53324,5
34002,53316,4
34003,53328,6
33999,53317,4
34001,53318,5
33982,53316,5
33983,53304,6
33967,53289,3
33977,53287,5
33972,53303,5
33979,53284,5
33971,53285,4
33968,53274,5
33955,53292,5
33958,53263,5
33958,53268,4
33958,53263,4
33953,53275,5
33962,53276,5
33953,53268,5
33959,53266,4
33952,53257,5
33946,53264,5
33954,53257,5
33954,53258,5
33957,53266,4
33963,53274,5
33952,53267,6
33955,53267,4
33964,53266,5
33956,53259,4
33966,53259,5
33964,53268,5
33973,53273,5
33979,53277,5
33975,53279,4
33971,53269,5
33967,53270,5
33965,53254,5
33962,53262,4
33964,53266,4
33974,53274,5
33971,53271,5
33976,53282,5
33979,53273,4
33972,53277,5
33975,53267,5
33987,53274,5
33982,53281,5
33979,53285,4
33975,53277,5
33978,53274,5
33967,53259,6
33970,53269,4
33963,53259,4
33962,53264,5
33972,53274,5
33967,53269,5
33963,53264,5
33967,53261,4
33961,53264,5
33965,53260,5
33974,53258,5
33969,53266,5
33975,53283,4
33984,53287,5
33990,53284,5
33981,53280,5
33980,53276,4
33977,53283,5
33982,53285,5
33990,53296,5
33988,53302,5
33988,53300,5
33987,53296,4
33981,53285,5
33984,53276,5
33969,53274,6
33971,53273,3
33967,53270,5
33972,53270,5
33967,53262,5
33966,53256,5
33961,53248,4
33963,53255,5
33967,53267,5
33967,53270,5
33977,53279,5
33978,53284,4
33978,53284,5
33981,53294,5
33983,53275,5
33990,53276,4
33989,53278,5
33978,53294,5
33987,53286,5
33990,53282,5
33988,53274,4
33964,53264,6
33961,53247,4
33958,53245,5
33966,53248,5
33949,53251,4
33958,53233,5
33964,53234,5
33962,53209,5
33932,53205,5
33945,53197,4
33934,53184,5
33930,53168,5
33933,53157,5
33914,53158,5
33924,53152,4
33931,53156,5
33943,53150,5
33932,53152,5
33931,53155,4
33929,53145,4
33953,53140,5
33928,53133,5
33930,53135,5
33934,53128,4
33943,53139,5
33942,53141,6
33958,53159,4
33969,53176,5
33979,53178,4
33984,53192,5
33992,53214,5
34010,53246,5
34023,53258,5
34049,53298,4
34069,53323,5
34091,53351,5
34106,53359,5
34128,53416,5
34150,53451,4
34181,53493,5
34206,53537,5
34262,53614,5
34294,53681,4
34330,53746,5
34389,53822,4
34429,53898,5
34471,53968,5
34521,54046,4
34582,54152,5
34625,54206,5
34679,54280,6
34729,54364,4
34776,54467,4
34827,54520,5
34877,54590,5
34922,54667,5
34969,54738,5
35020,54802,4
35065,54870,5
35105,54944,5
35161,55004,5
35196,55068,5
35239,55122,4
35273,55180,5
35317,55245,5
35368,55301,5
35404,55370,4
35441,55413,4
35478,55458,5
35512,55508,5
35543,55550,5
35576,55597,5
35613,55627,4
35617,55649,5
35633,55661,5
35631,55671,5
35644,55686,4
35647,55686,5
35659,55714,5
35663,55721,5
35674,55722,5
35672,55719,4
35680,55730,5
35678,55732,5
35692,55744,5
35712,55767,5
35715,55775,4
35725,55785,5
35729,55792,5
35739,55809,5
35759,55826,4
35772,55861,4
35795,55890,5
35831,55939,5
35874,55993,5
35913,56061,4
35971,56138,6
36028,56195,4
36065,56265,5
36120,56323,5
36150,56362,4
36173,56396,5
36223,56453,5
36266,56503,5
36293,56570,5
36337,56620,4
36354,56660,5
36382,56704,5
36419,56746,5
36466,56801,5
36502,56863,4
36542,56915,5
36571,56959,5
36615,57012,5
36644,57062,5
36687,57101,4
36707,57154,5
36743,57200,5
36769,57244,5
36810,57281,4
36827,57287,5
36832,57300,6
36849,57325,4
36845,57321,5
36847,57328,4
36850,57316,5
36847,57317,5
36845,57302,5
36833,57302,5
36831,57280,4
36814,57264,5
36806,57239,5
36779,57193,5
36743,57157,5
36719,57112,4
36688,57083,5
36674,57042,5
36649,57019,5
36633,56980,5
36600,56957,4
36594,56928,5
36562,56916,5
36575,56914,5
36584,56929,4
36606,56942,5
36595,56961,5
36623,56971,6
36631,56983,4
36646,57002,4
36653,57008,5
36661,57029,5
36669,57036,5
36661,57035,5
36688,57051,4
36678,57053,5
36666,57045,5
36675,57039,5
36690,57052,5
36678,57052,4
36677,57057,5
36685,57062,5
36695,57061,5
36680,57062,5
36683,57076,4
36689,57071,5
36695,57073,5
36691,57070,5
36697,57077,5
36686,57081,4
36686,57049,5
36681,57064,5
36689,57054,5
36679,57063,4
36675,57056,5
36685,57064,5
36686,57068,5
36672,57070,5
36670,57049,4
36668,57049,5
36654,57036,5
36665,57032,5
36653,57025,5
36634,57018,4
36637,57006,5
36627,56988,5
36624,57001,5
36622,56986,5
36625,56987,4
36618,56991,5
36624,56992,5
36612,56964,5
36606,56958,4
36600,56951,6
36599,56942,3
36589,56939,5
36581,56926,5
36589,56926,4
36581,56924,5
36588,56934,5
36586,56931,5
36590,56954,5
36594,56967,4
36618,56972,5
36612,56979,5
36624,56995,5
36626,57007,5
36634,57002,4
36640,57020,5
36643,57028,5
36638,57030,5
36640,57031,5
36653,57035,4
36653,57040,5
36650,57041,5
36653,57057,5
36658,57045,4
36663,57061,4
36655,57059,6
36669,57052,4
36668,57046,5
36661,57048,4
36664,57055,5
36670,57070,5
36692,57087,5
36689,57100,5
36694,57096,4
36694,57107,5
36716,57116,5
36714,57129,5
36732,57144,5
36740,57161,4
36749,57169,5
36758,57182,5
36776,57202,5
36785,57220,5
36789,57219,4
36799,57231,5
36793,57230,5
36793,57213,5
36792,57225,3
36796,57208,4
36795,57198,5
36802,57201,5
36804,57213,6
36802,57219,3
36821,57226,5
36809,57220,5
36816,57229,5
36825,57233,5
36832,57248,4
36845,57258,5
36848,57279,5
36863,57285,5
36870,57294,5
36886,57307,4
36905,57326,5
36917,57345,5
36925,57369,5
36947,57382,5
36953,57395,5
36964,57411,4
36975,57422,5
36987,57449,5
37000,57470,6
37011,57490,3
37037,57506,5
37057,57536,5
37070,57559,5
37082,57568,4
37101,57575,5
37105,57588,5
37114,57611,5
37132,57627,5
37147,57656,4
37159,57680,5
37188,57686,5
37194,57712,5
37198,57721,5
37213,57739,4
37231,57762,5
37265,57796,5
37272,57819,5
37282,57827,5
37301,57850,4
37311,57864,6
37326,57891,4
37348,57905,5
37368,57954,5
37390,57982,6
37409,57998,3
37447,58028,5
37453,58057,5
37463,58078,4
37483,58097,5
37520,58121,5
37530,58162,5
37554,58201,5
37588,58235,4
37614,58257,5
37612,58268,5
37627,58271,5
37632,58290,5
37639,58302,4
37656,58332,5
37658,58352,5
37676,58358,5
37691,58358,5
37690,58373,4
37692,58369,5
37693,58382,6
37696,58376,4
37716,58412,5
37725,58426,4
37727,58429,5
37733,58427,5
37740,58436,5
37741,58425,4
37734,58431,5
37741,58462,4
37761,58465,5
37772,58470,5
37774,58484,4
37778,58489,5
37767,58479,5
37776,58464,5
37777,58478,5
37781,58507,4
37794,58498,5
37792,58515,5
37799,58514,5
37799,58510,5
37790,58497,4
37787,58503,5
37798,58517,5
37810,58536,6
37832,58561,4
37846,58588,4
37853,58584,5
37846,58590,5
37845,58581,5
37851,58593,4
37859,58612,4
37873,58642,5
37885,58651,5
37883,58667,5
37893,58662,4
37885,58655,5
37874,58649,5
37874,58647,5
37887,58678,5
37903,58694,4
37898,58700,5
37892,58686,5
37891,58671,5
37893,58656,5
37885,58666,5
37888,58665,4
37896,58694,5
37907,58695,5
37911,58702,6
37918,58709,3
37909,58700,5
37915,58698,5
37906,58699,5
37909,58706,4
37921,58717,4
37915,58714,5
37917,58715,5
37920,58700,5
37914,58711,4
37924,58707,5
37923,58723,5
37929,58734,5
37942,58743,5
37947,58762,4
37950,58777,5
37968,58802,5
37973,58820,5
38006,58861,5
38038,58911,4
38062,58982,6
38109,59046,4
38158,59124,5
38191,59193,5
38240,59261,4
38275,59348,5
38328,59418,5
38376,59498,5
38422,59572,5
38476,59644,4
38522,59717,5
38560,59795,5
38604,59845,5
38639,59895,4
38675,59945,5
38707,59989,5
38734,60051,5
38760,60120,5
38807,60188,4
38849,60258,5
38886,60307,5
38915,60365,5
38951,60420,5
38987,60469,4
39027,60533,5
39065,60585,6
39096,60630,4
39127,60676,5
39147,60695,4
39162,60721,5
39181,60748,5
39196,60776,5
39224,60817,5
39251,60855,4
39274,60895,5
39283,60926,5
39310,60933,5
39315,60954,4
39331,60976,5
39326,60991,5
39354,61002,5
39366,61027,5
39364,61032,4
39376,61017,5
39366,61031,5
39372,61019,5
39376,61041,5
39381,61054,4
39382,61064,5
39390,61070,5
39393,61062,6
39397,61051,4
39386,61074,4
39409,61097,5
39429,61119,5
39451,61131,5
39453,61157,5
39464,61171,4
39473,61176,5
39480,61189,5
39489,61209,5
39506,61238,4
39527,61263,4
39552,61286,5
39565,61309,5
39565,61317,5
39574,61312,4
39582,61317,5
39590,61337,5
39603,61345,5
39610,61372,5
39611,61369,5
39609,61375,4
39608,61365,5
39607,61369,5
39607,61381,5
39629,61389,4
39643,61422,5
39664,61446,5
39678,61499,5
39691,61494,5
39698,61498,4
39707,61525,5
39728,61559,5
39756,61588,5
39786,61629,4
39797,61659,4
39814,61674,5
39826,61684,5
39835,61697,5
39843,61716,4
39852,61746,5
39870,61771,5
39894,61811,5
39907,61823,5
39919,61829,4
39921,61843,6
39945,61868,4
39941,61880,5
39961,61886,5
39955,61895,4
39946,61878,5
39944,61862,5
39909,61824,5
39895,61791,5
39871,61782,4
39871,61763,5
39869,61778,5
39882,61791,5
39875,61792,4
39881,61804,4
39893,61807,5
39899,61819,5
39902,61814,5
39883,61806,4
39866,61771,5
39841,61718,5
39810,61682,5
39792,61641,5
39757,61606,4
39733,61581,5
39721,61568,6
39705,61544,4
39694,61525,5
39687,61510,4
39673,61496,5
39676,61497,5
39674,61504,5
39668,61498,5
39665,61507,4
39675,61514,5
39667,61502,5
39651,61485,5
39647,61489,4
39635,61480,4
39632,61466,5
39626,61460,5
39628,61462,5
39627,61460,4
39634,61468,5
39636,61475,5
39650,61489,5
39663,61527,5
39671,61539,4
39692,61571,5
39709,61584,5
39706,61586,5
39703,61579,5
39692,61574,4
39699,61570,5
39693,61572,5
39695,61559,5
39693,61561,5
39698,61566,4
39696,61568,5
39691,61575,5
39697,61584,5
39701,61585,5
39696,61587,4
39702,61586,5
39698,61591,5
39706,61600,5
39685,61594,4
39688,61597,5
39684,61593,5
39687,61579,5
39678,61579,5
39681,61577,5
39678,61576,4
39687,61595,5
39700,61615,5
39715,61645,5
39727,61685,4
39766,61724,5
39793,61749,5
39807,61799,5
39825,61834,5
39872,61896,4
39899,61932,5
39932,61978,5
39966,62026,5
40006,62085,5
40041,62151,4
40097,62218,5
40155,62292,5
40183,62363,5
40226,62418,4
40260,62472,5
40311,62528,5
40318,62562,5
40361,62628,5
40414,62694,4
40470,62764,6
40504,62843,4
40558,62901,5
40604,62975,5
40646,63020,4
40668,63032,5
40707,63075,5
40724,63103,5
40728,63084,5
40719,63096,4
40721,63100,5
40732,63118,5
40750,63125,5
40765,63168,5
40793,63226,4
40836,63265,5
40852,63280,5
40862,63320,5
40887,63345,4
40904,63361,5
40923,63399,4
40945,63407,5
40969,63454,5
40980,63465,4
40999,63489,5
40989,63508,6
41003,63517,4
41011,63532,5
41026,63566,4
41037,63582,5
41052,63583,5
41052,63588,5
41051,63583,5
41042,63577,4
41040,63561,5
41037,63566,5
41040,63568,5
41042,63567,5
41029,63547,4
41000,63531,5
40986,63496,5
40983,63491,5
40961,63475,4
40942,63459,4
40934,63442,5
40909,63401,5
40884,63362,5
40852,63328,3
40831,63296,5
40811,63282,5
40795,63263,5
40795,63253,5
40781,63229,4
40735,63161,5
40708,63101,5
40662,63025,5
40603,62934,5
40535,62836,4
40465,62733,5
40409,62638,5
40352,62559,5
40295,62478,5
40268,62415,4
40251,62402,5
40249,62393,5
40256,62422,5
40268,62433,4
40253,62419,5
40247,62382,4
40225,62335,5
40190,62295,5
40150,62251,6
40134,62216,3
40114,62189,5
40103,62179,5
40087,62170,5
40091,62156,4
40090,62145,5
40088,62134,5
40085,62131,5
40075,62135,5
40073,62122,4
40067,62119,5
40058,62096,5
40041,62090,5
40042,62076,5
40046,62078,4
40035,62072,5
40039,62065,9
40025,62063,6
40026,62063,4
40024,62057,6
40008,62050,4
40017,62049,5
40009,62025,4
40020,62025,7
40019,62033,3
40032,62040,5
40036,62063,5
40040,62062,4
40038,62051,5
40013,62024,5
39999,61997,5
39990,61990,5
39974,61975,4
39970,61948,5
39951,61930,5
39947,61908,5
39928,61886,5
39916,61841,4
39895,61822,5
39890,61807,5
39893,61793,5
39881,61785,4
39878,61776,4
39857,61740,5
39850,61714,6
39813,61671,4
39800,61628,4
39763,61573,5
39729,61534,5
39699,61530,5
39717,61511,5
39714,61509,4
39707,61498,5
39708,61485,5
39699,61460,5
39681,61427,5
39664,61405,4
39681,61391,5
39656,61373,5
39650,61354,5
39625,61310,5
39622,61265,4
39581,61232,5
39568,61215,5
39570,61218,5
39569,61218,5
39566,61205,4
39563,61205,5
39549,61194,5
39558,61191,6
39555,61191,3
39558,61188,5
39572,61226,5
39577,61236,5
39604,61263,5
39605,61254,4
39602,61254,5
39606,61234,5
39603,61241,5
39607,61248,5
39615,61249,4
39604,61223,5
39599,61223,5
39591,61201,5
39579,61198,5
39574,61194,4
39569,61190,5
39575,61186,5
39581,61190,5
39593,61216,5
39589,61203,5
39596,61204,4
39587,61189,5
39593,61207,5
39586,61187,6
39581,61175,3
39565,61168,5
39560,61156,5
39559,61147,5
39539,61116,4
39532,61100,5
39518,61080,5
39507,61057,5
39504,61059,5
39495,61047,4
39478,61018,5
39474,61003,5
39463,60998,5
39454,60982,5
39440,60965,4
39432,60950,5
39433,60958,5
39438,60960,5
39436,60963,5
39432,60962,4
39426,60942,6
39423,60929,4
39410,60923,5
39407,60917,4
39409,60920,5
39407,60923,5
39405,60915,5
39396,60899,5
39389,60886,4
39379,60865,5
39366,60858,5
39371,60873,5
39371,60865,5
39360,60846,4
39356,60838,5
39344,60822,5
39347,60818,5
39332,60805,5
39330,60792,4
39320,60783,5
39326,60774,5
39291,60747,5
39282,60711,5
39269,60685,4
39242,60645,5
39220,60626,6
39220,60609,4
39205,60595,4
39192,60588,4
39195,60576,5
39176,60559,5
39164,60529,5
39148,60507,4
39135,60489,5
39137,60485,5
39131,60477,5
39131,60458,5
39123,60467,4
39124,60457,5
39120,60443,5
39107,60427,5
39106,60431,5
39104,60424,4
39097,60419,5
39092,60399,5
39072,60372,5
39059,60352,5
39045,60322,4
39029,60306,5
39011,60279,5
39005,60262,6
39004,60240,3
38981,60237,4
38976,60219,5
38967,60195,5
38951,60178,5
38942,60155,4
38929,60140,5
38925,60126,5
38906,60111,5
38898,60089,5
38885,60067,4
38864,60032,5
38841,60011,5
38843,59994,5
38817,59976,5
38806,59951,4
38787,59935,5
38779,59903,5
38760,59873,5
38749,59859,5
38727,59849,5
38735,59843,4
38731,59850,5
38738,59857,5
38734,59837,4
38730,59840,4
38731,59822,5
38717,59815,5
38717,59801,5
38700,59806,4
38697,59794,5
38698,59781,5
38703,59782,5
38683,59771,5
38666,59742,4
38651,59728,5
38641,59716,5
38631,59694,5
38618,59680,5
38589,59647,4
38570,59629,5
38563,59597,5
38531,59572,5
38514,59546,5
38504,59503,4
38491,59493,6
38475,59484,4
38462,59467,5
38453,59436,4
38444,59436,4
38441,59423,5
38429,59414,5
38419,59395,5
38404,59374,4
38377,59341,5
38368,59318,5
38350,59292,5
38326,59277,5
38329,59264,4
38322,59267,5
38318,59280,5
38327,59266,5
38323,59271,5
38319,59266,4
38309,59276,5
38303,59254,5
38302,59267,5
38307,59275,5
38317,59306,4
38327,59305,5
38337,59333,6
38348,59362,4
38369,59397,4
38392,59425,4
38398,59438,5
38413,59476,5
38435,59517,5
38461,59547,4
38487,59595,5
38506,59633,5
38533,59671,5
38550,59691,5
38559,59704,4
38566,59728,5
38570,59744,5
38586,59767,5
38616,59789,5
38632,59820,4
38637,59850,5
38653,59865,5
38663,59879,5
38672,59892,5
38681,59910,4
38702,59951,5
38723,59981,5
38735,59997,5
38742,60014,4
38757,60020,4
38757,60022,5
38757,60032,5
38766,60045,5
38773,60056,4
38790,60076,5
38794,60073,5
38792,60079,5
38801,60092,5
38806,60104,4
38821,60128,5
38835,60159,5
38850,60187,5
38880,60217,5
38891,60237,4
38890,60246,5
38900,60251,5
38920,60272,5
38930,60295,5
38938,60308,5
38959,60329,4
38965,60344,5
38974,60346,5
38978,60364,4
38979,60371,4
38996,60384,5
39005,60413,5
39011,60435,5
39019,60439,4
39026,60439,5
39021,60429,5
39013,60411,5
39005,60403,5
39015,60404,4
39009,60413,5
39011,60421,5
39013,60423,5
39016,60423,5
39010,60429,4
39023,60439,5
39029,60447,5
39044,60459,5
39054,60473,5
39066,60501,4
39062,60486,6
39072,60493,4
39073,60491,5
39078,60515,4
39084,60516,4
39091,60534,5
39109,60560,5
39119,60571,5
39116,60567,4
39129,60574,5
39120,60568,5
39134,60577,5
39126,60591,5
39141,60592,4
39142,60591,5
39141,60575,5
39115,60559,5
39123,60538,5
39109,60528,4
39106,60525,5
39113,60518,5
39094,60502,5
39092,60474,5
39082,60462,4
39080,60445,5
39066,60436,5
39061,60428,5
39059,60450,4
39087,60451,4
39086,60457,5
39085,60453,5
39079,60458,5
39089,60451,4
39079,60449,5
39086,60466,5
39092,60461,5
39082,60463,5
39105,60471,4
39101,60473,5
39099,60476,5
39098,60457,5
39103,60472,5
39108,60475,5
39112,60487,4
39123,60487,5
39133,60500,5
39131,60511,6
39134,60511,3
39131,60515,5
39143,60517,5
39144,60525,5
39145,60520,4
39143,60531,4
39140,60518,5
39137,60514,5
39132,60493,5
39136,60516,4
39132,60492,5
39130,60494,5
39131,60490,5
39123,60503,5
39129,60480,4
39131,60476,5
39127,60485,5
39132,60484,5
39141,60485,5
39130,60470,4
39124,60469,6
39118,60448,4
39101,60430,5
39102,60419,5
39089,60411,6
39088,60403,3
39081,60391,5
39079,60386,5
39075,60370,4
39057,60356,4
39045,60329,5
39031,60321,5
39031,60296,5
39021,60286,4
39014,60269,5
39008,60259,5
39001,60259,5
38997,60256,5
39003,60245,4
38989,60234,5
38990,60234,5
38995,60233,5
38983,60234,5
38986,60217,4
38979,60219,5
38986,60204,6
38984,60198,4
38981,60195,5
38976,60182,4
38974,60177,5
38945,60145,5
38941,60134,5
38941,60130,4
38944,60131,4
38939,60129,5
38943,60131,5
38949,60123,5
38946,60129,4
38942,60129,5
38949,60131,5
38942,60132,5
38954,60133,5
38952,60135,4
38955,60136,5
38950,60128,5
38952,60117,5
38942,60122,5
38951,60111,4
38951,60113,5
38944,60110,5
38939,60103,6
38946,60105,4
38942,60103,4
38940,60096,5
38944,60098,5
38941,60097,5
38932,60098,4
38934,60095,4
38929,60088,5
38931,60083,7
38919,60051,3
38902,60039,4
38901,60025,5
38892,60022,5
38883,60008,5
38870,59996,5
38857,59992,4
38846,59973,5
38834,59960,5
38829,59933,5
38825,59930,5
38822,59930,5
38810,59919,4
38796,59906,5
38797,59883,5
38790,59873,6
38772,59849,3
38760,59830,5
38728,59812,5
38728,59805,5
38706,59784,4
38698,59752,4
38664,59726,5
38663,59712,5
38658,59698,5
38640,59686,4
38623,59658,5
38607,59641,5
38594,59610,5
38575,59602,5
38568,59560,4
38532,59535,5
38510,59511,5
38499,59487,5
38507,59466,5
38473,59437,4
38435,59384,6
38405,59355,4
38406,59320,5
38346,59278,5
38334,59256,4
38319,59245,5
38307,59220,5
38301,59216,5
38280,59199,4
38258,59166,4
38234,59130,5
38215,59111,5
38188,59072,5
38164,59044,4
38135,58998,5
38125,58976,5
38093,58936,5
38079,58899,5
38047,58832,4
38012,58808,5
37962,58760,5
37946,58729,5
37928,58703,5
37904,58687,4
37889,58659,5
37864,58641,6
37856,58634,4
37830,58584,5
37808,58555,4
37797,58539,5
37797,58550,5
37778,58504,5
37769,58497,4
37751,58468,4
37744,58446,5
37715,58414,5
37698,58389,5
37691,58382,4
37675,58351,5
37665,58342,5
37651,58328,5
37639,58309,5
37628,58301,4
37605,58286,5
37611,58285,5
37602,58287,5
37609,58279,5
37611,58284,4
37605,58279,5
37601,58271,5
37590,58250,6
37576,58235,4
37580,58233,4
37569,58227,5
37551,58197,5
37534,58185,5
37527,58166,4
37515,58157,4
37504,58140,5
37486,58126,5
37477,58113,5
37478,58100,4
37470,58106,5
37478,58105,5
37466,58103,5
37459,58080,5
37453,58064,4
37438,58058,5
37439,58037,5
37431,58039,5
37422,58035,5
37423,58026,5
37416,58011,4
37401,58000,5
37399,57981,5
37392,57974,5
37381,57965,4
37381,57959,5
37375,57945,5
37361,57934,5
37353,57915,4
37337,57906,4
37323,57879,5
37317,57866,5
37311,57857,5
37303,57836,4
37301,57840,5
37283,57817,5
37272,57799,5
37267,57799,5
37262,57778,4
37256,57767,5
37240,57745,5
37221,57721,5
37215,57698,5
37198,57677,4
37185,57655,6
37160,57630,4
37154,57605,5
37148,57579,5
37140,57566,4
37134,57552,5
37110,57537,5
37103,57512,5
37084,57482,4
37077,57471,4
37078,57456,5
37067,57453,5
37050,57447,5
37053,57434,4
37049,57423,5
37035,57411,5
37019,57394,5
37003,57381,5
37001,57355,4
36979,57339,5
36966,57316,5
36953,57292,5
36938,57287,5
36925,57283,4
36927,57264,5
36925,57257,6
36908,57260,4
36891,57260,5
36900,57251,4
36895,57243,5
36886,57239,5
36887,57231,5
36878,57238,5
36879,57216,4
36864,57211,5
36871,57211,5
36856,57202,5
36858,57199,4
36858,57199,5
36868,57208,5
36844,57201,5
36853,57195,5
36856,57203,4
36864,57211,5
36851,57223,5
36865,57235,5
36875,57239,5
36880,57241,4
36875,57252,5
36885,57254,5
36890,57261,6
36891,57266,4
36888,57284,4
36904,57288,5
36905,57303,5
36910,57288,5
36907,57303,5
36912,57306,4
36924,57323,4
36929,57330,5
36933,57347,5
36946,57370,4
36945,57375,5
36953,57387,5
36961,57371,5
36957,57387,5
36969,57395,4
36986,57417,5
36979,57407,5
36986,57408,5
36986,57415,5
36991,57439,5
36990,57418,4
37008,57431,5
37005,57431,5
37011,57456,5
37014,57448,4
37016,57449,5
37014,57451,5
37019,57463,5
37024,57473,5
37034,57474,4
37041,57488,5
37044,57483,5
37039,57491,5
37049,57495,4
37056,57503,4
37049,57512,5
37061,57514,5
37072,57523,5
37078,57532,4
37075,57534,5
37082,57535,5
37082,57542,5
37076,57544,5
37094,57545,4
37097,57565,6
37100,57573,4
37110,57564,5
37093,57549,5
37090,57545,4
37088,57543,5
37085,57529,5
37085,57537,5
37086,57538,5
37092,57541,4
37090,57542,5
37083,57538,5
37087,57532,5
37092,57539,4
37088,57530,4
37087,57543,5
37092,57544,5
37097,57544,5
37087,57546,4
37097,57536,5
37093,57536,5
37087,57553,5
37103,57561,5
37112,57576,4
37114,57586,5
37131,57587,6
37127,57603,4
37138,57591,5
37138,57590,4
37134,57601,5
37145,57612,5
37143,57621,5
37149,57634,5
37147,57624,4
37145,57611,5
37134,57611,5
37139,57603,5
37139,57611,4
37138,57611,4
37144,57634,5
37146,57625,5
37144,57622,5
37146,57635,4
37143,57630,5
37145,57638,5
37160,57657,5
37172,57665,5
37175,57685,4
37177,57692,5
37186,57692,5
37186,57690,5
37191,57693,5
37196,57713,4
37202,57722,5
37205,57727,5
37210,57720,5
37202,57725,5
37199,57717,4
37199,57708,5
37196,57716,5
37190,57717,5
37199,57721,4
37213,57727,4
37209,57716,5
37185,57701,5
37192,57699,5
37200,57699,4
37192,57694,5
37180,57690,5
37186,57689,5
37189,57681,5
37188,57657,5
37174,57654,3
37170,57656,5
37168,57640,5
37164,57633,5
37176,57621,4
37163,57631,5
37156,57624,5
37158,57620,5
37176,57616,5
37160,57617,4
37156,57601,5
37139,57594,5
37145,57573,5
37119,57555,5
37117,57534,4
37111,57520,5
37099,57512,5
37089,57509,5
37098,57500,4
37081,57493,5
37083,57469,6
37090,57486,4
37079,57477,5
37088,57478,4
37085,57455,7
37080,57470,3
37082,57466,5
37075,57470,5
37085,57461,4
37080,57462,5
37075,57461,5
37085,57467,5
37078,57486,5
37073,57469,4
37085,57465,5
37078,57463,5
37070,57476,5
37074,57450,5
37066,57444,4
37065,57436,5
37060,57439,5
37059,57426,5
37064,57429,4
37058,57424,5
37055,57412,5
37046,57413,6
37040,57385,4
37037,57384,4
37034,57387,5
37035,57380,5
37036,57379,5
37037,57382,5
37028,57381,4
37027,57379,5
37036,57384,5
37032,57393,5
37043,57386,5
37031,57393,4
37035,57386,5
37030,57371,5
37025,57352,5
37019,57348,5
37013,57333,4
37009,57337,5
37004,57329,5
37014,57322,5
37004,57317,5
36999,57315,4
36985,57302,5
36988,57302,5
36981,57304,6
36993,57311,3
36989,57307,5
36988,57308,5
36996,57303,5
36980,57295,5
36983,57292,4
36989,57282,5
36988,57289,5
36989,57289,5
36994,57292,5
36988,57290,4
36984,57293,5
36982,57289,5
36990,57296,5
36988,57292,5
36996,57303,4
37004,57309,5
36991,57303,5
36993,57306,5
37004,57308,4
37001,57313,5
36999,57313,4
36997,57307,5
37008,57323,5
37011,57329,6
37010,57323,3
37010,57328,5
37003,57305,5
37003,57315,5
36992,57307,4
36998,57302,5
37012,57316,5
37008,57317,5
37006,57313,5
37000,57303,4
36994,57295,5
36988,57297,5
36987,57291,5
36981,57288,5
36986,57291,4
36982,57299,5
36979,57291,5
36980,57292,5
36976,57279,4
36973,57262,4
36971,57260,10
36965,57265,5
36976,57260,4
36965,57258,5
36966,57253,5
36961,57236,5
36952,57224,5
36950,57219,4
36936,57209,5
36927,57201,5
36931,57202,5
36926,57195,5
36920,57185,4
36904,57173,5
36915,57172,5
36903,57161,5
36896,57165,5
36889,57171,4
36908,57166,5
36896,57173,5
36902,57161,5
36890,57156,4
36892,57145,4
36883,57135,5
36883,57138,6
36901,57136,4
36877,57140,4
36874,57137,5
36866,57119,5
36878,57095,5
36844,57073,5
36834,57068,4
36829,57058,5
36829,57051,5
36811,57034,5
36803,57026,5
36796,57001,4
36779,57001,5
36767,56990,5
36771,56981,5
36767,56976,5
36766,56959,4
36761,56978,5
36750,56962,5
36744,56949,5
36743,56921,5
36737,56929,4
36733,56922,5
36730,56925,5
36728,56932,6
36732,56933,4
36726,56925,4
36722,56909,5
36711,56921,5
36713,56899,5
36705,56887,4
36713,56900,5
36714,56921,5
36715,56912,5
36712,56899,10
36703,56890,5
36706,56897,5
36696,56895,8
36696,56895,5
36688,56874,5
36683,56865,8
36686,56858,5
36664,56846,4
36670,56829,0
36671,56839,3
36658,56844,4
36672,56849,5
36675,56841,5
36680,56842,4
36676,56846,5
36677,56853,5
36682,56862,5
36686,56871,5
36676,56866,4
36688,56866,5
36684,56855,5
36674,56863,5
36670,56858,5
36678,56856,4
36684,56870,5
36675,56866,5
36673,56857,5
36677,56864,5
36664,56861,4
36672,56846,5
36653,56849,5
36663,56850,5
36659,56848,5
