RED,IR,EKG,TIME
55455,130650,9
55464,130659,7
55473,130678,7
55604,130779,8
55604,130779,7
55553,130807,5
55574,130824,8
55588,130869,7
55607,130878,5
55594,130900,8
55599,130903,7
55666,131021,10
55666,131021,7
55675,130900,5
55682,131046,8
55683,131084,7
55687,131065,5
55717,131177,8
55717,131177,7
55689,131108,5
55721,131096,8
55711,131094,7
55703,131247,7
55692,131061,8
55692,131061,7
55678,131042,5
55680,131011,10
55676,131071,5
55684,131056,5
55687,131053,10
55657,131032,5
55651,130991,5
55596,130907,10
55597,130899,5
55592,130916,5
55601,130911,10
55604,130914,5
55609,130929,5
55643,130951,10
55657,130986,5
55657,131004,5
55686,131064,10
55686,131064,5
55711,131094,5
55707,131091,10
55713,131090,5
55707,131087,7
55706,131086,8
55709,131093,5
55709,131089,7
55709,131089,8
55708,131107,5
55705,131098,7
55710,131096,8
55709,131103,5
55714,131099,7
55721,131111,8
55721,131111,5
55723,131149,7
55717,131150,8
55731,131118,5
55721,131121,7
55720,131115,8
55741,131152,5
55984,131594,7
55984,131594,8
56035,131695,7
56098,131797,5
56156,131897,7
56201,131988,3
56253,132058,7
56272,132107,8
56426,132359,9
56426,132359,5
56455,132342,8
56473,132423,7
56478,132448,5
56504,132438,8
56463,132422,7
56391,132279,10
56391,132279,3
56375,132258,1
56371,132255,3
56367,132269,6
56379,132278,3
56381,132284,5
56302,132294,5
56399,132315,4
56408,132334,5
56417,132337,5
56273,132343,5
56410,132314,5
56396,132306,4
56384,132278,5
56265,132244,5
56358,132256,5
56373,132266,5
56372,132291,4
56462,132298,5
56390,132295,5
56378,132272,5
56374,132264,5
56527,132263,4
56371,132264,5
56374,132267,6
56372,132264,4
56476,132266,5
56370,132259,4
56368,132258,5
56376,132262,5
56409,132275,5
56386,132301,4
56393,132307,4
56394,132304,5
56400,132220,5
56394,132308,5
56401,132292,4
56400,132312,10
56392,132176,7
56395,132275,7
56403,132325,15
56403,132325,5
56398,132299,10
56408,132366,5
56405,132301,5
56391,132301,10
56376,132282,5
56357,132396,5
56320,132182,10
56323,132205,5
56334,132211,5
56359,132287,10
56363,132279,5
56390,132304,5
56432,132328,10
56435,132366,5
56409,132374,5
56484,132465,10
56484,132465,5
56496,132468,7
56516,132525,8
56549,132586,5
56589,132639,7
56614,132711,8
56657,132771,5
56743,132917,7
56743,132917,8
56758,132962,5
56796,133007,7
56822,133057,8
56849,133087,5
56870,133107,7
56911,133202,8
56911,133202,5
56921,133253,7
56951,133262,8
56942,133270,5
56964,133282,7
56959,133280,8
56973,133282,5
56985,133323,7
56985,133323,8
56970,133338,7
56988,133336,5
57014,133346,8
57005,133402,7
57037,133438,5
57131,133560,8
57131,133560,7
57099,133577,9
57119,133569,9
57138,133602,5
57281,133867,8
57281,133867,7
57363,133947,5
57378,134010,8
57397,134087,7
57444,134125,5
57465,134178,8
57567,134365,7
57567,134365,5
57585,134402,8
57606,134443,7
57618,134432,5
57617,134428,8
57644,134443,7
57642,134448,5
57618,134552,8
57618,134552,7
57718,134608,5
57752,134653,8
57800,134767,7
57852,135130,14
57852,135130,5
58044,135183,5
58073,135226,8
58064,135256,7
58123,135289,7
58224,135519,10
58224,135519,5
58262,135583,5
58288,135631,10
58452,135649,5
58306,135649,5
58317,135629,6
58312,135646,0
58367,135649,3
58322,135669,5
58330,135688,5
58354,135732,4
58383,135740,5
58400,135829,5
58436,135873,6
58462,135930,3
58488,135844,4
58501,135969,5
58506,135987,5
58522,136005,5
58524,135874,4
58536,136039,5
58541,136035,5
58531,136053,5
58538,136025,5
58547,136063,4
58568,136087,5
58576,136114,5
58587,136244,5
58600,136151,5
58607,136161,4
58603,136168,5
58615,136348,5
58632,136200,5
58649,136245,5
58675,136287,5
58695,136398,4
58707,136330,5
58717,136356,5
58717,136368,5
58741,136424,4
58756,136439,5
58777,136461,5
58786,136474,5
58796,136500,4
58798,136508,4
58810,136506,5
58808,136522,5
58817,136523,5
58814,136531,4
58812,136528,5
58807,136521,5
58811,136518,5
58803,136511,5
58813,136523,4
58819,136523,5
58824,136542,5
58826,136560,5
58837,136587,5
58845,136589,4
58845,136582,6
58838,136579,4
58846,136576,5
58847,136586,5
58858,136611,4
58861,136603,5
58864,136612,5
58870,136627,5
58885,136652,5
58901,136701,4
58940,136745,5
58969,136805,5
59010,136879,5
59061,136971,4
59102,137039,4
59138,137087,5
59155,137123,5
59167,137135,5
59165,137134,4
59169,137143,5
59169,137142,5
59157,137130,5
59176,137136,5
59172,137161,4
59182,137165,5
59182,137167,6
59189,137180,4
59194,137176,5
59209,137197,4
59200,137197,5
59194,137177,5
59179,137149,5
59157,137119,5
59137,137080,4
59119,137050,5
59085,137008,5
59072,136967,5
59039,136936,5
59028,136896,4
58990,136859,5
58981,136840,5
58962,136798,5
58946,136762,4
58912,136702,4
58881,136646,5
58846,136590,5
58812,136536,5
58773,136474,4
58730,136384,5
58687,136311,5
58641,136240,5
58598,136177,5
58582,136139,4
58566,136122,5
58559,136102,5
58550,136101,5
58535,136079,5
58508,136066,4
58514,136042,5
58519,136060,5
58517,136052,5
58419,136054,5
58516,136057,4
58514,136047,5
58514,136034,5
58362,136035,5
58503,136037,5
58510,136029,5
58505,136026,4
58419,136009,5
58490,135996,5
58486,135982,5
58476,135971,4
58557,135966,5
58455,135939,5
58453,135942,5
58446,135928,4
58595,135900,5
58422,135883,5
58409,135858,5
58383,135800,5
58442,135748,4
58304,135669,5
58256,135590,5
58201,135495,5
58165,135373,5
58076,135281,4
58025,135193,5
57979,135125,5
57938,134989,5
57903,134994,5
57865,134913,4
57812,134834,5
57763,134605,5
57711,134660,5
57662,134571,5
57601,134455,5
57530,134212,3
57473,134240,5
57415,134146,5
57370,134047,4
57320,134025,4
57270,133901,5
57235,133813,5
57187,133740,5
57134,133791,4
57067,133528,5
57007,133409,5
56925,133282,5
56865,133293,5
56786,133031,4
56725,132917,5
56656,132797,5
56584,132702,5
56506,132544,5
56443,132393,4
56354,132253,5
56275,132102,6
56179,131945,4
56086,131789,5
55991,131613,4
55897,131476,7
55843,131352,3
55763,131235,5
55701,131104,5
55626,130976,4
55544,130831,5
55468,130686,5
55378,130543,5
55306,130412,4
55235,130279,4
55166,130158,5
55118,130051,5
55062,129971,5
55023,129902,4
54977,129842,5
54942,129759,5
54879,129626,5
54801,129504,5
54718,129344,4
54628,129182,5
54546,129055,5
54484,128939,6
54407,128834,4
54353,128717,4
54291,128625,5
54246,128542,5
54224,128515,5
54212,128500,5
54210,128498,4
54212,128494,5
54206,128476,5
54198,128467,5
54175,128423,5
54156,128392,4
54142,128378,5
54130,128348,5
54122,128321,5
54105,128294,4
54076,128247,4
54049,128202,5
54024,128154,5
53981,128086,5
53962,128027,5
53909,127941,4
53874,127870,5
53826,127805,5
53796,127750,6
53769,127709,3
53766,127710,5
53762,127694,5
53748,127690,5
53749,127677,5
53738,127645,4
53735,127644,5
53730,127661,5
53742,127664,5
53738,127669,5
53753,127666,4
53756,127679,5
53758,127699,5
53772,127723,5
53791,127750,5
53806,127774,4
53822,127795,5
53827,127817,5
53834,127839,5
53851,127867,4
53867,127884,6
53869,127897,4
53877,127912,5
53888,127920,5
53885,127919,6
53887,127920,3
53830,127918,5
53889,127915,5
53894,127917,5
53887,127920,4
53767,127914,5
53890,127916,5
53885,127905,5
53882,127905,5
53746,127910,4
53875,127907,5
53878,127907,5
53877,127908,5
53920,127902,5
53887,127911,4
53905,127936,5
53910,127971,5
54063,127997,5
53945,128026,4
53956,128048,4
53979,128079,6
54124,128099,4
54006,128122,5
54020,128145,4
54033,128172,5
54086,128177,5
54049,128196,5
54052,128220,5
54063,128234,4
54080,128217,5
54091,128281,5
54122,128320,5
54140,128356,5
54159,128277,4
54163,128405,5
54171,128408,5
54169,128385,5
54149,128244,5
54141,128359,4
54124,128349,5
54116,128315,5
54103,128275,5
54083,128261,5
54068,128245,4
54069,128229,5
54057,128344,6
54058,128221,4
54067,128214,4
54062,128230,4
54061,128378,5
54063,128215,7
54064,128218,3
54061,128227,4
54067,128273,5
54043,128182,5
54025,128139,5
54000,128115,5
54001,128146,4
54017,128141,5
54020,128157,5
54030,128177,5
54040,128177,5
54050,128186,4
54049,128205,5
54059,128232,5
54075,128252,5
54101,128300,5
54107,128331,4
54129,128340,5
54143,128367,5
54159,128395,6
54173,128421,4
54198,128462,4
54212,128485,5
54223,128513,5
54245,128543,5
54247,128545,4
54264,128584,4
54270,128596,5
54293,128622,5
54308,128652,5
54324,128687,4
54348,128732,5
54370,128758,5
54381,128789,5
54390,128804,5
54396,128815,4
54400,128820,5
54408,128823,5
54408,128821,5
54401,128816,5
54407,128808,5
54388,128811,4
54397,128814,5
54409,128823,5
54406,128826,5
54412,128830,4
54414,128852,5
54430,128863,5
54438,128888,5
54455,128913,5
54470,128945,4
54491,128958,5
54488,128970,5
54492,128979,5
54506,128997,4
54523,129028,4
54540,129058,5
54554,129078,5
54571,129120,5
54576,129127,4
54598,129154,5
54602,129170,5
54612,129178,5
54622,129203,5
54632,129219,4
54647,129247,6
54669,129271,4
54681,129308,5
54709,129345,5
54710,129377,4
54735,129397,5
54760,129426,5
54766,129439,5
54781,129462,5
54783,129491,4
54812,129505,5
54815,129545,5
54828,129560,5
54840,129591,5
54849,129615,4
54877,129642,5
54887,129672,5
54900,129683,5
54867,129702,4
54917,129723,4
54931,129734,5
54942,129766,5
54854,129795,5
54967,129827,4
54996,129855,5
55004,129885,6
54892,129940,4
55062,129994,5
55106,130049,4
55145,130111,5
55131,130170,5
55205,130234,5
55241,130291,5
55277,130347,4
55404,130393,5
55330,130424,5
55323,130435,5
55336,130445,5
55492,130473,4
55348,130473,5
55370,130496,5
55387,130551,5
55491,130588,5
55426,130622,4
55450,130663,5
55468,130684,5
55500,130716,5
55506,130760,4
55535,130821,4
55568,130869,5
55615,130838,5
55632,130968,5
55654,131024,4
55681,131067,5
55723,131002,5
55757,131201,5
55795,131260,5
55825,131312,4
55846,131263,5
55882,131399,5
55896,131448,5
55919,131491,5
55947,131598,4
55965,131554,5
55987,131594,5
56000,131631,5
56032,131839,5
56060,131720,4
56088,131787,5
56123,131836,5
56148,131991,5
56161,131928,5
56203,131980,4
56210,132006,5
56233,132064,5
56250,132062,5
56264,132095,4
56301,132145,4
56321,132198,5
56363,132262,5
56417,132349,5
56451,132446,4
56510,132523,5
56555,132598,5
56589,132676,5
56645,132773,5
56696,132847,4
56749,132952,5
56806,133050,5
56868,133139,5
56915,133213,5
56954,133286,4
56981,133352,5
57018,133406,5
57051,133481,5
57089,133523,5
57119,133575,5
57150,133617,4
57173,133663,5
57202,133722,5
57236,133770,4
57249,133821,4
57296,133863,5
57298,133895,5
57323,133938,5
57340,133981,4
57376,134026,5
57413,134085,5
57436,134135,5
57457,134162,5
57461,134179,4
57459,134158,5
57456,134156,5
57453,134130,5
57430,134110,5
57425,134086,4
57401,134060,5
57395,134039,5
57383,134020,5
57377,134019,5
57369,134016,4
57375,134021,6
57374,134024,3
57382,134026,5
57385,134031,5
57388,134036,4
57384,134032,5
57393,134036,5
57389,134050,5
57400,134050,4
57398,134043,4
57384,134012,5
57360,133988,5
57357,133987,5
57361,133991,4
57353,133979,5
57363,133988,5
57362,134002,5
57377,134017,5
57384,134047,4
57392,134067,5
57416,134099,5
57450,134150,6
57476,134196,4
57499,134248,4
57535,134293,5
57552,134319,5
57566,134341,5
57580,134357,5
57587,134397,4
57612,134434,5
57637,134460,5
57646,134493,5
57676,134532,5
57685,134571,4
57619,134602,5
57714,134621,5
57729,134634,5
57736,134650,4
57589,134652,4
57751,134659,5
57757,134652,5
57747,134667,5
57639,134661,5
57753,134669,4
57756,134673,5
57756,134677,5
57843,134703,6
57779,134709,3
57790,134736,5
57788,134741,5
57942,134742,5
57788,134736,5
57789,134747,4
57795,134759,5
57932,134770,5
57815,134799,5
57836,134831,5
57852,134846,4
57890,134867,5
57873,134879,5
57885,134911,5
57898,134932,5
57915,134871,4
57909,134953,5
57912,134953,5
57920,134959,5
57911,134822,4
57907,134938,5
57900,134929,4
57899,134929,5
57895,134769,5
57898,134928,6
57897,134912,3
57902,134920,4
57908,134959,5
57910,134944,5
57912,134972,4
57940,134977,5
57943,135149,5
57946,135006,5
57951,135014,5
57963,135035,4
57969,135211,5
57965,135064,5
57975,135066,5
57977,135052,5
57980,135108,4
57968,135059,5
57971,135062,5
57975,135074,5
57976,135061,5
57971,135063,4
57970,135065,6
57975,135063,4
57984,135075,5
57997,135089,4
57996,135096,4
58001,135103,5
58010,135096,5
58012,135117,5
58016,135131,4
57997,135108,5
57978,135067,5
57987,135065,5
57981,135044,5
57966,135036,4
57959,135027,5
57951,135012,5
57940,135011,5
57941,134989,5
57924,134976,4
57909,134968,5
57910,134965,5
57900,134950,5
57897,134954,5
57903,134915,4
57877,134899,5
57854,134869,6
57840,134823,4
57815,134792,4
57790,134747,4
57769,134709,5
57747,134672,5
57728,134631,5
57709,134604,4
57676,134554,5
57654,134514,5
57627,134456,5
57584,134396,5
57537,134310,4
57488,134210,5
57426,134109,5
57375,134002,5
57307,133896,5
57250,133801,4
57202,133713,5
57144,133599,5
57070,133486,5
57004,133370,5
56948,133257,4
56872,133122,5
56766,132950,5
56674,132789,6
56572,132597,4
56466,132423,4
56360,132220,5
56256,132046,5
56161,131891,5
56080,131737,4
55978,131570,4
55889,131392,5
55784,131227,5
55699,131071,5
55623,130949,4
55554,130818,5
55488,130707,5
55404,130564,5
55331,130429,5
55251,130305,4
55186,130189,5
55113,130062,5
55050,129949,5
54999,129837,5
54933,129734,5
54874,129615,4
54802,129514,5
54752,129404,5
54648,129315,6
54643,129219,3
54602,129141,5
54554,129057,5
54393,128991,5
54476,128943,5
54445,128879,4
54418,128827,5
54260,128768,5
54349,128691,5
54315,128628,4
54278,128567,4
54260,128512,5
54214,128469,5
54179,128421,5
54157,128367,4
54260,128317,5
54079,128235,5
54037,128167,5
54007,128102,5
54130,128044,4
53944,128008,6
53936,127995,4
53938,128002,5
53997,127988,5
53931,127957,4
53896,127919,5
53874,127877,5
53863,127813,5
53839,127810,5
53817,127794,4
53824,127786,5
53811,127672,5
53789,127727,5
53762,127683,5
53745,127628,4
53729,127474,5
53722,127612,5
53726,127607,5
53722,127597,4
53720,127558,4
53721,127596,5
53733,127613,5
53727,127622,5
53729,127745,4
53743,127637,5
53748,127644,6
53752,127654,4
53757,127829,5
53757,127672,4
53767,127694,5
53790,127713,5
53806,127831,5
53818,127785,5
53838,127809,4
53853,127839,5
53874,127895,5
53902,127919,5
53928,127968,5
53957,128005,4
53965,128030,5
53982,128067,5
54013,128101,5
54027,128142,9
54033,128154,0
54047,128186,5
54058,128160,5
54058,128192,5
54071,128189,4
54076,128216,4
54088,128257,5
54116,128306,6
54138,128355,4
54175,128397,4
54192,128434,5
54214,128458,5
54219,128476,5
54241,128515,5
54256,128536,4
54264,128565,5
54274,128582,5
54288,128599,5
54312,128629,5
54324,128653,4
54330,128686,5
54365,128727,5
54397,128787,5
54415,128848,5
54449,128894,4
54481,128931,5
54495,128957,5
54505,128979,5
54509,128983,5
54513,128984,4
54516,128972,5
54504,128974,5
54502,128976,5
54511,128972,4
54521,129002,4
54524,129021,5
54543,129039,5
54554,129059,5
54557,129077,4
54558,129070,5
54557,129066,5
54561,129054,5
54549,129043,5
54538,129030,4
54544,129031,5
54538,129038,5
54542,129026,5
54527,129031,5
54537,129041,4
54537,129032,5
54550,129053,5
54562,129069,5
54556,129039,5
54537,129029,5
54527,129001,4
54516,128991,5
54513,128986,5
54508,128996,5
54524,129005,4
54531,129023,5
54540,129040,5
54550,129055,5
54562,129080,4
54573,129112,4
54603,129157,5
54631,129199,5
54643,129221,5
54650,129241,4
54665,129246,5
54656,129262,5
54685,129289,5
54702,129327,5
54735,129378,4
54665,129433,5
54784,129474,5
54811,129513,5
54834,129542,5
54720,129581,4
54864,129598,6
54873,129629,4
54882,129637,5
54823,129643,5
54895,129662,4
54899,129662,5
54899,129681,5
54988,129688,5
54925,129714,5
54924,129711,4
54920,129701,5
55083,129723,5
54932,129724,5
54940,129735,4
54940,129740,4
55028,129737,5
54944,129749,5
54947,129757,5
54961,129768,4
54982,129792,5
54983,129827,5
55012,129873,6
55017,129900,4
55047,129846,4
55060,129958,5
55084,129989,5
55101,130018,5
55114,129929,5
55134,130085,4
55151,130117,5
55174,130148,5
55182,130052,5
55197,130188,5
55207,130199,5
55201,130206,4
55207,130266,5
55222,130225,5
55226,130235,5
55223,130251,4
55228,130408,5
55241,130260,5
55243,130298,5
55261,130310,5
55268,130460,4
55295,130374,5
55311,130413,5
55343,130456,6
55363,130534,3
55385,130539,5
55410,130553,5
55423,130604,5
55441,130638,5
55471,130683,4
55489,130722,5
55523,130774,5
55540,130806,5
55563,130831,5
55576,130851,4
55597,130900,5
55620,130932,5
55645,130983,5
55665,131044,5
55716,131119,4
55768,131203,5
55790,131223,5
55790,131234,5
55785,131236,4
55779,131230,5
55777,131225,4
55790,131234,5
55815,131281,5
55842,131328,6
55874,131402,3
55902,131441,5
55935,131503,5
55971,131577,5
56021,131655,4
56078,131767,5
56145,131891,5
56215,132030,5
56284,132122,5
56337,132217,4
56382,132303,5
56442,132429,5
56507,132536,5
56575,132640,5
56625,132732,4
56668,132790,5
56702,132854,5
56729,132909,5
56756,132955,5
56783,132996,4
56796,132996,6
56802,133033,4
56822,133070,5
56838,133080,4
56852,133102,6
56856,133117,3
56871,133153,5
56915,133215,5
56938,133265,4
56969,133330,5
57017,133395,5
57055,133472,5
57083,133526,5
57117,133570,4
57144,133621,5
57172,133673,5
57194,133708,5
57220,133751,5
57239,133787,4
57270,133836,5
57299,133895,5
57324,133924,5
57336,133951,5
57342,133981,4
57363,134014,5
57387,134058,6
57416,134111,4
57437,134151,5
57456,134177,4
57477,134201,5
57483,134217,5
57485,134229,5
57502,134257,4
57522,134273,4
57527,134297,5
57545,134326,5
57486,134387,5
57608,134422,4
57644,134483,5
57675,134534,5
57561,134601,5
57733,134664,5
57772,134722,4
57801,134773,5
57693,134810,5
57837,134845,5
57859,134872,5
57869,134890,4
57947,134930,5
57904,134971,5
57942,134997,6
57945,135037,4
58124,135063,4
57985,135109,5
58025,135157,5
58055,135221,5
58214,135264,5
58101,135295,4
58118,135346,5
58169,135413,5
58239,135445,5
58194,135437,4
58181,135414,4
58182,135425,5
58174,135348,5
58158,135391,5
58160,135408,4
58164,135407,5
58173,135285,5
58170,135412,5
58174,135413,5
58161,135413,5
58170,135262,4
58189,135438,5
58205,135470,5
58210,135489,6
58224,135517,3
58222,135508,5
58231,135522,5
58252,135552,5
58273,135737,5
58301,135635,4
58330,135685,5
58357,135727,5
58366,135924,5
58386,135800,5
58410,135846,4
58437,135870,5
58453,135958,5
58465,135923,5
58478,135955,4
58494,135976,4
58494,135994,5
58516,136015,5
58530,136038,5
58536,136068,4
58559,136078,6
58564,136089,4
58568,136107,5
58577,136126,5
58587,136138,4
58583,136138,5
58574,136137,5
58585,136144,5
58595,136151,5
58603,136160,4
58607,136177,5
58626,136199,5
58647,136233,5
58648,136269,5
58675,136297,4
58700,136341,5
58724,136380,5
58734,136420,5
58755,136447,5
58782,136481,4
58794,136499,5
58803,136524,5
58812,136530,5
58823,136533,4
58819,136538,4
58828,136550,6
58841,136569,4
58837,136575,5
58850,136589,4
58856,136608,5
58854,136617,5
58870,136622,5
58881,136629,5
58872,136642,4
58886,136660,5
58897,136659,5
58897,136670,5
58891,136662,5
58891,136665,4
58889,136666,5
58898,136689,5
58906,136681,5
58907,136687,5
58906,136694,4
58897,136677,5
58898,136669,5
58901,136660,5
58883,136653,5
58866,136641,4
58855,136616,5
58861,136607,6
58848,136595,4
58827,136564,4
58800,136505,4
58769,136461,5
58751,136434,5
58732,136396,5
58720,136362,4
58701,136356,5
58705,136353,5
58711,136346,5
58704,136359,5
58701,136348,4
58706,136349,5
58704,136350,5
58705,136348,5
58701,136341,5
58692,136329,4
58680,136311,5
58670,136275,5
58655,136256,5
58642,136231,5
58625,136195,4
58532,136160,5
58573,136115,5
58534,136045,5
58495,135969,5
58317,135892,4
58406,135801,5
58338,135703,5
58276,135595,5
58064,135482,4
58158,135391,4
58097,135275,5
58027,135165,5
57986,135060,5
57905,134942,4
57836,134825,5
57744,134662,5
57789,134510,5
57554,134347,5
57459,134157,4
57335,133955,5
57371,133748,5
57108,133552,5
56990,133359,5
56883,133156,5
56814,132939,4
56636,132726,5
56519,132517,5
56382,132296,5
56269,132026,4
56123,131823,5
56006,131617,5
55898,131419,5
55798,131142,5
55710,131088,4
55612,130938,5
55535,130781,5
55436,130473,5
55331,130440,4
55245,130287,4
55159,130118,5
55068,129926,5
54976,129804,5
54893,129656,4
54815,129515,5
54732,129498,5
54673,129279,5
54615,129178,5
54569,129100,4
54525,129189,6
54491,128949,4
54449,128894,5
54410,128803,5
54368,128823,4
54334,128675,5
54301,128651,5
54286,128614,5
54272,128590,5
54247,128542,4
54243,128518,5
54223,128501,5
54207,128498,5
54203,128473,4
54200,128455,4
54195,128445,5
54200,128448,5
54196,128463,5
54198,128471,4
54204,128467,5
54202,128461,5
54195,128426,5
54168,128394,5
54157,128369,4
54125,128343,5
54121,128343,6
54127,128356,4
54143,128355,5
54139,128352,4
54131,128337,5
54131,128362,7
54143,128368,3
54156,128392,5
54167,128409,4
54177,128415,5
54177,128414,5
54181,128420,5
54180,128422,5
54181,128426,4
54178,128440,5
54191,128436,5
54182,128423,5
54183,128418,4
54188,128416,4
54170,128411,5
54175,128401,5
54164,128402,5
54163,128394,3
54155,128392,5
54154,128388,5
54153,128394,5
54157,128386,5
54166,128395,4
54163,128412,5
54173,128418,5
54165,128407,5
54177,128420,5
54168,128409,4
54167,128398,5
54158,128392,5
54167,128393,5
54159,128388,5
54153,128378,4
54146,128360,5
54145,128375,5
54159,128389,5
54152,128386,5
54166,128385,5
54156,128390,4
54171,128400,5
54166,128407,5
54167,128396,6
54173,128402,3
54176,128402,5
54174,128402,5
54177,128415,5
54169,128410,4
54171,128410,5
54173,128408,5
54162,128386,5
54160,128383,5
54150,128371,4
54149,128353,5
54129,128351,5
54128,128330,5
54107,128312,5
54108,128304,4
54105,128293,5
54092,128271,5
53985,128257,5
54074,128244,5
54069,128232,4
54070,128230,6
53922,128219,4
54054,128208,5
54049,128185,5
54031,128155,6
53936,128113,3
53985,128089,5
53966,128059,5
53946,128008,4
54001,127950,4
53884,127910,5
53859,127853,5
53828,127811,5
53962,127797,4
53808,127777,5
53806,127766,5
53802,127766,5
53891,127749,5
53787,127743,4
53792,127751,5
53793,127743,5
53819,127753,5
53800,127743,5
53777,127697,4
53761,127673,5
53732,127544,6
53719,127613,4
53717,127614,5
53721,127624,4
53741,127498,5
53733,127638,5
53737,127624,5
53729,127638,5
53743,127538,4
53751,127672,5
53764,127698,5
53771,127708,5
53768,127789,4
53798,127725,4
53797,127747,5
53811,127776,5
53823,127955,5
53841,127834,4
53852,127862,5
53873,127888,5
53884,128018,5
53891,127930,5
53908,127954,4
53930,127989,5
53944,128042,5
53958,128036,6
53979,128056,4
53977,128080,4
54009,128113,5
54021,128163,5
54048,128211,5
54095,128296,5
54155,128369,4
54180,128440,5
54238,128525,5
54269,128577,5
54312,128659,5
54358,128764,4
54427,128858,5
54494,128980,5
54553,129081,5
54614,129210,4
54690,129327,4
54750,129447,5
54837,129589,5
54893,129703,5
54972,129819,5
55036,129932,4
55098,130034,5
55158,130144,5
55220,130272,6
55275,130355,3
55334,130447,5
55366,130511,5
55397,130566,5
55432,130616,5
55455,130650,4
55477,130686,5
55499,130742,5
55524,130794,5
55565,130857,5
55604,130923,4
55640,130994,5
55681,131066,5
55725,131139,5
55780,131241,4
55830,131341,4
55890,131455,5
55954,131568,5
56021,131664,5
56080,131764,4
56138,131875,6
56205,131989,4
56272,132104,5
56335,132203,5
56394,132321,4
56444,132410,5
56499,132497,5
56543,132590,5
56597,132676,5
56645,132763,4
56694,132858,5
56748,132941,5
56798,133035,5
56848,133118,5
56895,133186,4
56940,133265,5
56980,133352,5
57031,133437,5
57077,133523,5
57113,133576,4
57141,133631,5
57174,133672,5
57196,133719,5
57219,133765,4
57260,133824,4
57288,133878,6
57321,133946,4
57349,133987,5
57374,134034,4
57396,134078,5
57423,134122,5
57460,134171,5
57484,134206,5
57486,134207,4
57395,134207,5
57475,134194,5
57495,134231,5
57526,134276,5
57404,134329,4
57577,134377,5
57602,134417,5
57606,134446,5
57526,134500,5
57670,134558,4
57711,134628,5
57757,134712,5
57873,134790,5
57835,134851,5
57865,134917,4
57911,134971,5
58088,135020,6
57959,135065,4
57979,135083,4
57993,135110,4
58123,135142,5
58022,135173,5
58042,135199,5
58048,135220,4
58086,135220,5
58058,135227,5
58071,135252,5
58084,135259,5
58088,135201,4
58081,135282,5
58100,135296,5
58103,135306,5
58110,135162,5
58098,135305,4
58098,135301,5
58103,135304,5
58104,135155,5
58102,135307,5
58111,135307,5
58111,135332,4
58135,135396,5
58152,135404,6
58185,135450,4
58210,135492,4
58229,135707,5
58259,135615,5
58297,135656,5
58316,135704,4
58334,135869,4
58349,135736,5
58357,135743,5
58356,135743,5
58359,135784,4
58356,135740,5
58350,135726,5
58346,135711,5
58325,135696,5
58323,135674,4
58306,135637,5
58281,135606,5
58255,135567,5
58227,135531,5
58203,135479,5
58179,135432,4
58147,135380,5
58111,135318,5
58080,135261,5
58040,135203,4
58002,135137,5
57976,135071,5
57924,135013,5
57889,134945,5
57849,134876,4
57807,134792,5
57752,134693,5
57704,134597,5
57646,134505,4
57579,134409,4
57528,134300,5
57454,134181,5
57385,134048,5
57304,133912,4
57228,133778,5
57140,133636,5
57063,133498,5
56985,133355,5
56889,133185,4
56801,133029,6
56713,132876,4
56632,132717,5
56520,132530,5
56406,132316,4
56278,132064,5
56142,131848,5
55995,131590,5
55846,131322,5
55712,131094,4
55608,130925,5
55521,130778,5
55423,130610,5
55319,130407,5
55219,130234,4
55130,130096,5
55066,129981,5
55013,129872,5
54955,129769,4
54905,129693,4
54845,129602,5
54809,129519,5
54767,129456,5
54734,129407,4
54707,129367,5
54683,129318,6
54658,129272,4
54634,129237,5
54613,129203,4
54602,129162,5
54579,129151,5
54570,129109,5
54561,129096,5
54536,129065,4
54533,129052,5
54526,129030,5
54515,129028,5
54512,129036,5
54516,129027,4
54514,129028,5
54517,129026,5
54511,129033,5
54520,129036,5
54513,129030,4
54520,129029,5
54522,129026,5
54466,129024,5
54516,129026,4
54518,129036,4
54531,129057,5
54424,129076,5
54553,129089,5
54558,129104,4
54565,129113,5
54426,129126,5
54572,129135,5
54594,129163,5
54601,129179,4
54646,129214,5
54635,129227,5
54632,129243,5
54642,129250,5
54775,129270,4
54652,129271,5
54657,129271,5
54656,129268,5
54799,129276,5
54660,129281,4
54670,129296,5
54669,129293,5
54722,129287,5
54672,129298,5
54669,129295,4
54671,129299,5
54681,129263,5
54669,129293,5
54672,129291,4
54667,129293,4
54665,129174,5
54665,129294,5
54671,129281,5
54675,129298,4
54669,129139,5
54679,129310,5
54680,129323,5
54696,129343,5
54709,129338,4
54718,129369,5
54707,129377,5
54720,129376,5
54720,129494,5
54719,129375,4
54721,129374,6
54712,129373,4
54706,129528,5
54703,129365,5
54706,129354,6
54698,129349,3
54694,129405,5
54702,129330,5
54690,129323,5
54691,129330,4
54689,129335,5
54685,129307,5
54682,129291,5
54655,129265,4
54628,129223,5
54617,129187,5
54596,129158,5
54593,129153,5
54599,129171,4
54594,129174,5
54602,129185,5
54607,129189,5
54607,129195,5
54621,129205,4
54631,129226,5
54644,129254,6
54669,129286,4
54668,129307,5
54689,129329,4
54692,129338,5
54698,129336,5
54705,129354,5
54713,129368,5
54718,129370,4
54712,129372,5
54723,129385,5
54723,129378,5
54716,129383,4
54715,129384,4
54717,129392,5
54723,129381,5
54707,129367,5
54716,129360,4
54702,129354,5
54704,129351,5
54699,129333,5
54681,129313,10
54692,129324,4
54672,129318,5
54685,129310,6
54681,129312,4
54670,129308,4
54669,129286,5
54662,129278,5
54659,129279,5
54660,129276,5
54652,129273,4
54647,129262,5
54657,129271,5
54660,129283,5
54674,129282,5
54663,129297,4
54667,129302,5
54671,129311,5
54686,129325,5
54687,129337,4
54686,129346,4
54704,129370,5
54723,129378,5
54723,129388,5
54728,129389,5
54731,129396,4
54736,129398,5
54734,129410,5
54740,129409,6
54745,129424,3
54749,129428,5
54755,129449,5
54759,129456,5
54759,129449,5
54765,129463,4
54770,129462,5
54777,129476,5
54769,129467,5
54779,129485,5
54783,129494,4
54783,129489,5
54741,129504,5
54787,129499,5
54785,129502,5
54799,129527,4
54682,129524,5
54816,129532,5
54820,129552,5
54817,129567,4
54688,129576,5
54836,129593,4
54844,129597,5
54851,129609,5
54873,129629,6
54856,129638,3
54876,129642,5
54883,129674,5
55033,129706,5
54921,129718,4
54928,129738,5
54930,129744,5
55090,129764,5
54949,129772,5
54953,129791,4
54961,129813,5
55033,129825,5
54983,129832,5
54985,129836,5
54989,129835,4
54988,129824,5
54993,129854,5
54992,129842,5
55000,129862,5
55002,129764,4
55013,129892,6
55016,129888,4
55010,129880,5
55000,129713,4
54986,129836,4
54978,129806,4
54962,129808,5
54973,129779,5
54970,129817,4
54968,129810,5
54974,129817,5
54967,129920,5
54962,129802,5
54960,129809,4
54977,129814,5
54981,129998,5
54979,129837,5
54995,129860,5
54994,129856,4
54998,129948,5
55004,129884,5
55011,129908,5
55040,129944,5
55050,130003,4
55070,130013,5
55091,130041,6
55114,130060,4
55126,130095,5
55142,130125,4
55153,130151,5
55173,130170,5
55183,130197,5
55193,130228,4
55214,130243,4
55222,130257,5
55244,130295,5
55247,130316,5
55263,130345,4
55290,130372,5
55289,130374,5
55312,130425,5
55341,130459,5
55363,130502,4
55369,130538,5
55404,130579,5
55425,130621,5
55449,130655,5
55466,130688,4
55471,130716,5
55501,130756,5
55523,130805,6
55573,130883,4
55610,130953,4
55644,131024,5
55694,131115,5
55759,131215,5
55824,131346,4
55914,131489,4
55984,131635,5
56060,131754,5
56115,131856,5
56163,131935,4
56185,131977,5
56224,132031,5
56261,132081,5
56273,132112,5
56299,132155,4
56315,132199,5
56354,132247,5
56362,132287,5
56397,132323,5
56416,132363,5
56446,132423,4
56470,132483,5
56500,132534,5
56548,132592,5
56574,132642,4
56611,132701,5
56633,132761,5
56673,132828,5
56715,132905,5
56759,132974,4
56786,133029,5
56824,133079,5
56858,133129,5
56877,133178,4
56900,133221,4
56933,133246,5
56942,133281,5
56954,133306,5
56976,133341,4
56979,133375,5
57004,133389,5
57008,133405,5
57026,133430,5
57042,133464,4
57059,133501,6
57095,133562,4
57119,133610,5
57149,133657,5
57160,133701,4
57203,133741,5
57235,133804,5
57288,133871,5
57195,133931,5
57329,133948,4
57340,133957,5
57333,133954,5
57190,133961,5
57329,133972,5
57342,133977,4
57357,134012,5
57319,134014,5
57368,134040,5
57390,134058,4
57407,134086,4
57517,134103,5
57427,134118,6
57434,134144,4
57454,134184,4
57644,134216,5
57494,134250,6
57513,134265,4
57529,134302,5
57633,134347,4
57577,134401,5
57621,134469,5
57659,134534,5
57708,134594,5
57728,134660,4
57757,134704,5
57789,134750,5
57801,134692,5
57818,134794,5
57823,134808,4
57826,134830,5
57845,134718,5
57851,134865,5
57863,134905,5
57870,134922,4
57890,134831,5
57901,134952,5
57905,134968,5
57920,134992,4
57923,135083,4
57930,135005,5
57935,135006,5
57930,134987,5
57913,135155,4
57917,134981,5
57915,134961,5
57891,134932,5
57885,135042,5
57878,134923,4
57885,134908,5
57869,134900,5
57855,134914,5
57848,134850,5
57834,134838,4
57829,134827,5
57822,134810,5
57802,134788,5
57790,134760,5
57758,134720,4
57739,134688,5
57724,134640,5
57690,134600,5
57667,134543,5
57625,134482,4
57595,134417,5
57542,134342,5
57511,134254,5
57453,134185,4
57406,134093,4
57345,134000,5
57282,133896,5
57236,133788,5
57177,133695,4
57117,133583,5
57040,133471,5
56990,133369,5
56937,133282,5
56883,133199,4
56825,133097,5
56765,132998,5
56721,132896,5
56652,132794,5
56604,132708,4
56558,132631,5
56509,132535,5
56461,132465,5
56405,132375,5
56359,132290,5
56318,132189,4
56271,132110,5
56215,132019,5
56166,131938,5
56137,131863,4
56085,131798,5
56051,131728,5
55999,131628,5
55920,131487,4
55839,131367,4
55795,131286,5
55738,131181,5
55678,131077,5
55641,131006,4
55618,130974,5
55598,130925,5
55564,130877,5
55520,130798,5
55483,130747,4
55458,130693,5
55436,130674,6
55436,130660,4
55431,130644,5
55403,130601,4
55378,130556,7
55356,130522,3
55342,130490,5
55333,130475,5
55326,130454,4
55301,130429,5
55293,130408,5
55284,130389,5
55269,130381,5
55273,130378,4
55272,130362,5
55263,130351,5
55254,130346,5
55248,130332,4
55246,130325,4
55249,130323,5
55239,130333,5
55252,130335,5
55251,130330,4
55239,130321,5
55153,130336,5
55246,130334,6
55251,130343,4
55254,130343,4
55124,130341,5
55264,130348,5
55265,130356,5
55264,130357,5
55161,130380,4
55287,130400,5
55308,130450,5
55338,130510,5
55447,130564,5
55416,130640,4
55469,130737,5
55550,130879,5
55797,131022,5
55734,131186,5
55825,131332,4
55892,131448,5
56060,131557,5
56004,131659,5
56059,131751,5
56110,131837,4
56183,131912,5
56189,131986,5
56232,132042,6
56258,132098,3
56288,132084,5
56318,132181,5
56347,132238,5
56367,132273,5
56391,132204,4
56428,132367,5
56438,132422,5
56468,132458,5
56489,132359,5
56532,132570,5
56577,132647,4
56619,132720,5
56645,132808,5
56686,132843,5
56715,132911,4
56761,132965,5
56801,133175,5
56842,133112,5
56879,133192,5
56935,133274,5
56973,133514,4
57025,133446,5
57091,133549,5
57143,133658,6
57207,133792,3
57257,133841,5
57315,133925,5
57361,134009,5
57389,134093,4
57426,134138,5
57463,134193,5
57489,134232,5
57523,134282,5
57550,134341,4
57559,134358,5
57563,134343,5
57555,134342,5
57555,134335,5
57547,134327,4
57551,134325,5
57545,134327,5
57542,134323,5
57542,134329,5
57549,134319,4
57544,134316,6
57549,134342,4
57561,134358,5
57583,134415,5
57616,134458,4
57644,134509,5
57668,134537,5
57697,134580,5
57719,134630,4
57746,134686,4
57766,134729,5
57790,134750,5
57798,134759,5
57803,134772,4
57804,134759,5
57788,134764,5
57784,134753,5
57788,134735,5
57784,134738,4
57781,134737,5
57774,134726,5
57770,134718,5
57774,134737,5
57790,134744,4
57793,134751,5
57789,134749,6
57792,134777,4
57798,134775,5
57800,134769,4
57807,134777,5
57813,134777,5
57805,134792,5
57812,134792,5
57809,134794,4
57820,134808,8
57838,134836,2
57858,134876,5
57867,134915,4
57902,134972,5
57930,135001,5
57948,135041,5
57963,135061,5
57965,135057,4
57969,135064,5
57972,135067,5
57972,135070,5
57973,135064,5
57973,135069,4
57958,135057,5
57955,135047,5
57944,135020,6
57940,134997,4
57917,134976,4
57901,134954,5
57887,134925,5
57869,134892,5
57847,134862,5
57819,134816,4
57796,134762,5
57768,134708,5
57726,134646,5
57637,134586,5
57652,134533,4
57633,134470,5
57596,134407,5
57427,134350,5
57515,134287,4
57475,134211,4
57437,134156,5
57261,134075,5
57360,134020,5
57313,133934,5
57263,133852,4
57228,133739,5
57139,133634,5
57087,133526,5
57029,133420,4
57102,133320,5
56902,133200,5
56834,133112,5
56800,133014,5
56869,132887,4
56623,132716,5
56525,132536,5
56426,132369,5
56377,132183,5
56223,132006,4
56147,131887,5
56079,131773,5
56036,131625,5
55954,131536,5
55873,131423,4
55825,131311,5
55776,131129,5
55753,131188,5
55716,131153,4
55686,131096,5
55650,130873,4
55618,130966,5
55580,130908,5
55556,130863,4
55536,130808,5
55517,130794,5
55490,130741,5
55460,130709,5
55442,130781,4
55408,130611,5
55385,130564,5
55358,130520,5
55333,130645,5
55314,130441,4
55300,130401,5
55277,130368,5
55254,130420,5
55239,130321,5
55239,130315,4
55248,130322,5
55245,130332,5
55238,130314,5
55239,130314,5
55248,130323,4
55244,130334,6
55247,130332,4
55254,130326,5
55245,130322,4
55248,130320,4
55238,130324,5
55250,130322,5
55243,130334,5
55253,130347,4
55262,130355,5
55260,130355,5
55258,130348,5
55265,130361,5
55270,130350,4
55270,130360,5
55279,130367,5
55275,130367,5
55274,130377,5
55278,130378,4
55271,130367,5
55264,130362,5
55267,130374,5
55262,130371,5
55275,130355,4
55265,130355,5
55259,130346,6
55257,130347,4
55261,130338,5
55256,130326,4
55243,130329,5
55248,130317,5
55250,130322,5
55236,130310,4
55231,130297,5
55234,130314,5
55236,130306,5
55237,130299,5
55241,130310,4
55234,130308,5
55237,130315,5
55247,130326,5
55256,130323,5
55245,130325,4
55246,130316,5
55250,130319,5
55243,130324,5
55249,130331,5
55237,130324,4
55246,130318,5
55236,130297,5
55231,130294,5
55226,130276,5
55223,130272,4
55220,130277,5
55219,130278,5
55209,130262,5
55206,130265,5
55214,130273,4
55207,130245,5
55182,130197,5
55147,130130,5
55113,130079,4
55064,129997,4
55034,129936,5
55025,129918,5
55009,129900,5
55003,129900,4
54979,129848,5
54954,129798,5
54924,129755,5
54918,129747,5
54915,129749,5
54927,129767,4
54889,129774,5
54924,129767,5
54922,129770,5
54927,129764,4
54819,129770,5
54932,129772,5
54928,129771,5
54928,129776,5
54789,129779,4
54920,129769,5
54920,129762,5
54927,129751,5
54888,129738,4
54912,129726,4
54895,129719,5
54890,129708,5
54995,129682,5
54867,129676,4
54859,129650,5
54852,129651,5
55004,129621,4
54851,129631,5
54838,129629,4
54847,129629,6
54907,129637,3
54857,129651,5
54855,129642,5
54857,129659,4
54875,129635,5
54857,129652,5
54862,129655,5
54854,129654,5
54864,129555,4
54857,129658,5
54860,129668,5
54876,129680,5
54875,129535,5
54877,129688,5
54873,129690,4
54883,129701,5
54896,129632,5
54899,129712,4
54903,129720,4
54906,129717,5
54901,129821,6
54904,129722,4
54907,129726,4
54907,129720,5
54901,129876,5
54903,129721,5
54896,129714,5
54890,129716,4
54892,129797,5
54901,129715,5
54900,129727,5
54899,129720,5
54903,129752,4
54917,129738,5
54915,129742,5
54920,129758,5
54939,129767,5
54934,129777,4
54945,129806,5
54960,129824,5
54967,129835,5
54982,129866,5
54984,129866,4
54983,129866,5
54989,129874,5
54985,129880,6
54994,129892,3
55005,129890,4
55000,129888,5
55000,129899,5
55000,129884,5
55000,129885,4
54999,129885,5
54994,129878,5
54998,129886,5
54987,129878,5
54997,129887,4
54998,129878,5
54990,129883,5
54995,129858,5
54974,129838,5
54950,129804,4
54933,129763,5
54920,129730,5
54888,129701,5
54887,129708,5
54882,129695,5
54876,129697,4
54881,129689,5
54866,129653,5
54851,129629,6
54847,129620,3
54840,129629,5
54843,129616,5
54835,129612,5
54838,129602,4
54824,129595,4
54830,129605,5
54822,129601,5
54820,129595,5
54823,129608,4
54828,129589,5
54818,129560,5
54792,129519,5
54762,129483,5
54740,129448,4
54718,129419,5
54717,129393,5
54697,129369,5
54672,129324,5
54648,129288,4
54637,129257,6
54607,129216,4
54601,129199,5
54590,129181,5
54580,129169,6
54579,129163,3
54565,129146,5
54560,129139,5
54550,129129,5
54537,129104,4
54531,129082,5
54524,129082,5
54525,129072,5
54529,129080,4
54521,129068,4
54518,129071,5
54524,129067,5
54533,129080,5
54530,129092,4
54541,129111,5
54549,129114,5
54553,129117,5
54454,129116,5
54549,129108,4
54535,129070,5
54510,129063,6
54368,129031,4
54479,128980,5
54441,128905,4
54376,128796,5
54247,128667,5
54253,128569,5
54202,128470,5
54147,128396,4
54185,128290,5
54052,128208,5
54000,128120,5
53955,128041,5
54053,127957,4
53878,127907,5
53853,127866,5
53842,127851,5
53912,127835,4
53820,127825,4
53827,127813,5
53821,127815,5
53842,127813,5
53830,127817,4
53828,127837,5
53846,127856,5
53866,127806,6
53872,127910,4
53883,127936,4
53896,127953,5
53917,127851,5
53934,128016,5
53953,128050,5
53976,128076,4
53994,127985,5
53991,128113,5
53991,128111,5
53994,128104,5
53983,128157,4
53976,128073,5
53958,128029,5
53948,128034,5
53946,128178,5
53946,128028,4
53956,128034,5
53955,128045,5
53952,128159,5
53967,128054,5
53963,128064,4
53973,128081,5
53983,128143,5
54002,128133,6
54014,128165,3
54048,128195,5
54047,128215,5
54052,128226,5
54075,128247,5
54081,128265,4
54096,128296,5
54116,128321,5
54113,128341,5
54135,128347,5
54136,128360,4
54153,128367,5
54149,128377,5
54155,128389,5
54162,128387,5
54164,128406,4
54166,128403,5
54170,128410,5
54171,128405,5
54172,128422,5
54170,128414,5
54171,128415,4
54166,128421,5
54178,128424,5
54176,128424,4
54170,128434,4
54173,128419,5
54168,128416,5
54163,128398,5
54156,128394,4
54153,128391,5
54146,128377,5
54137,128365,5
54145,128371,5
54146,128369,4
54143,128374,5
54156,128366,5
54139,128375,5
54144,128363,5
54142,128383,4
54143,128381,5
54150,128384,5
54150,128389,5
54156,128405,5
54157,128410,4
54167,128402,6
54164,128410,4
54175,128433,5
54171,128425,4
54176,128445,4
54179,128449,5
54191,128450,5
54197,128465,5
54205,128474,4
54216,128484,5
54220,128499,5
54218,128515,5
54230,128528,5
54237,128547,4
54244,128559,5
54268,128581,5
54277,128604,5
54287,128633,5
54302,128651,4
54326,128670,5
54334,128699,5
54396,128821,10
54396,128821,4
54405,128829,5
54400,128833,6
54408,128842,4
54416,128846,5
54413,128836,4
54419,128839,5
54412,128835,5
54402,128829,5
54313,128818,4
54401,128810,4
54397,128812,5
54390,128804,5
54258,128801,5
54400,128806,4
54401,128815,5
54405,128822,5
54329,128836,5
54415,128842,5
54411,128837,4
54395,128828,5
54489,128819,5
54401,128815,5
54396,128824,5
54400,128826,4
54556,128828,5
54409,128828,5
54397,128818,5
54389,128793,5
54475,128788,4
54373,128786,5
54380,128787,5
54379,128785,5
54401,128772,5
54362,128740,4
54329,128701,5
54297,128624,5
54269,128485,5
54236,128514,4
54188,128446,4
54127,128319,5
54025,127992,5
53890,127889,5
53748,127626,4
53593,127359,6
53452,127008,4
53311,126883,5
53191,126646,5
53058,126418,6
52927,126246,3
52796,125925,5
52639,125678,5
52500,125418,5
52362,125316,4
52230,124934,5
52121,124732,5
52027,124587,5
51957,124545,5
51886,124316,4
51800,124181,5
51735,124047,5
51651,123958,5
51599,123829,5
51556,123766,4
51533,123713,5
51513,123688,5
51509,123663,5
51492,123660,4
51498,123658,4
51494,123662,5
51493,123662,5
51515,123693,5
51524,123706,4
51542,123741,6
51570,123790,4
51594,123845,5
51624,123893,5
51649,123926,4
51654,123956,5
51691,123985,5
51706,124009,5
51711,124037,5
51733,124076,4
51756,124115,5
51777,124154,5
51809,124206,5
51836,124256,5
51871,124305,4
51886,124343,5
51922,124391,5
51944,124431,5
51953,124459,4
51973,124492,4
51992,124533,5
52013,124538,5
52017,124564,5
52022,124575,4
52036,124602,5
52054,124610,5
52057,124632,5
52046,124625,5
52052,124627,4
52037,124599,5
52013,124570,5
52004,124509,5
51979,124473,5
51946,124433,4
51925,124382,5
51879,124325,5
51854,124255,5
51824,124210,5
51787,124153,4
51758,124090,5
51712,124014,5
51670,123937,5
51623,123870,5
51597,123816,4
51570,123780,5
51555,123768,5
51556,123753,6
51546,123731,3
51541,123735,4
51530,123719,5
51531,123722,5
51539,123743,5
51550,123761,4
51569,123791,5
51581,123809,5
51601,123843,5
51615,123867,5
51631,123899,4
51656,123945,5
51684,123991,5
51718,124041,5
51751,124106,5
51778,124152,4
51802,124217,5
51838,124267,5
51858,124312,5
51908,124384,5
51941,124425,5
51955,124476,4
51901,124520,5
52020,124564,5
52043,124609,6
52058,124643,3
51951,124687,5
52107,124717,5
52121,124741,5
52135,124766,4
52078,124783,4
52151,124809,5
52155,124817,5
52165,124830,5
52255,124832,4
52174,124856,5
52184,124875,5
52200,124893,5
52355,124920,5
52237,124945,4
52245,124978,5
52271,125014,5
52367,125039,5
52299,125080,5
52322,125103,4
52342,125148,6
52377,125183,4
52382,125211,5
52410,125259,5
52429,125297,6
52450,125242,3
52462,125353,5
52484,125402,5
52514,125450,5
52547,125386,4
52582,125567,5
52607,125615,5
52632,125657,5
52662,125604,4
52682,125746,4
52698,125781,5
52720,125831,5
52761,125952,5
52776,125907,4
52797,125953,5
52823,125993,5
52843,126185,5
52866,126070,5
52896,126106,4
52917,126158,5
52947,126306,6
52962,126266,4
52993,126306,5
53025,126356,4
53053,126423,5
53074,126447,5
53092,126487,5
53120,126521,5
53145,126572,4
53160,126608,5
53188,126633,5
53199,126675,5
53225,126699,5
53235,126730,4
53252,126752,5
53260,126789,5
53276,126814,5
53298,126821,4
53313,126858,4
53327,126903,5
53350,126925,5
53348,126944,5
53365,126949,4
53356,126948,5
53365,126943,5
53352,126940,6
53361,126938,4
53373,126968,4
53387,126989,5
53388,126996,5
53399,127002,5
53394,127007,5
53409,127026,4
53418,127055,5
53436,127087,5
53472,127150,5
53492,127196,5
53516,127225,4
53538,127260,5
53549,127295,5
53574,127337,5
53605,127383,4
53640,127432,4
53655,127470,5
53663,127507,5
53686,127537,5
53702,127553,5
53721,127590,4
53732,127598,5
53730,127608,5
53730,127615,6
53735,127602,3
53729,127609,5
53731,127599,5
53731,127599,5
53726,127594,5
53722,127582,4
53716,127595,5
53726,127589,5
53722,127596,5
53722,127596,5
53725,127585,4
53725,127597,5
53713,127588,5
53714,127589,5
53712,127584,5
53721,127583,4
53718,127577,5
53711,127585,5
53713,127582,5
53732,127607,4
53720,127600,5
53727,127602,4
53728,127609,5
53736,127621,5
53736,127640,4
53740,127641,5
53749,127658,5
53758,127665,5
53764,127671,5
53766,127683,4
53754,127687,5
53776,127683,5
53781,127694,5
53777,127700,5
53689,127698,4
53791,127699,5
53782,127710,5
53789,127706,5
53648,127701,5
53780,127701,4
53778,127705,5
53784,127705,5
53739,127709,5
53787,127701,5
53791,127698,4
53782,127710,6
53883,127718,4
53790,127703,5
53791,127710,4
53782,127703,4
53935,127702,5
53780,127709,5
53783,127695,5
53790,127707,4
53857,127704,5
53788,127723,5
53800,127722,5
53801,127724,5
53817,127725,4
53789,127739,5
53794,127734,5
53793,127737,5
53801,127649,5
53792,127730,4
53796,127723,5
53788,127702,5
53779,127563,5
53782,127684,5
53774,127692,4
53768,127683,5
53779,127601,6
53777,127690,4
53783,127696,5
53775,127690,5
53774,127764,4
53777,127686,5
53766,127659,5
53757,127639,4
53730,127771,4
53724,127597,5
53714,127591,5
53710,127586,5
53720,127689,4
53715,127596,5
53714,127591,5
53716,127578,5
53701,127603,5
53702,127582,4
53704,127593,5
53726,127599,5
53726,127608,5
53731,127615,5
53726,127611,4
53723,127607,5
53727,127611,5
53737,127636,6
53730,127636,4
53745,127640,4
53740,127633,5
53749,127646,5
53752,127647,5
53753,127647,5
53755,127651,4
53749,127641,5
53752,127652,5
53756,127651,5
53754,127662,4
53754,127637,4
53754,127646,5
53751,127646,5
53749,127651,5
53758,127656,4
53749,127658,5
53752,127656,5
53764,127666,5
53765,127683,5
53766,127667,5
53763,127676,4
53769,127671,5
53761,127680,5
53776,127677,5
53776,127683,4
53769,127687,5
53773,127692,5
53769,127707,5
53797,127722,5
53784,127716,4
53797,127723,5
53797,127736,5
53811,127757,5
53823,127778,5
53829,127780,4
53841,127805,5
53837,127820,5
53856,127829,5
53854,127844,4
53857,127836,4
53866,127856,5
53875,127851,5
53874,127860,5
53878,127865,4
53880,127886,6
53881,127893,4
53893,127893,5
53901,127909,5
53900,127907,4
53890,127909,5
53906,127921,5
53910,127929,5
53916,127934,5
53921,127949,4
53924,127946,5
53933,127953,5
53932,127968,5
53937,127964,5
53941,127963,4
53939,127967,5
53942,127983,5
53937,127983,5
53945,127979,5
53945,127990,4
53945,127994,5
53942,127994,5
53936,128002,5
53969,128016,4
53956,128026,4
53957,128023,6
53880,128025,4
53970,128043,5
53973,128038,4
53974,128034,5
53842,128055,5
53989,128065,5
53986,128071,5
53999,128084,4
53960,128089,8
54015,128111,2
54034,128131,5
54042,128155,5
54148,128177,4
54069,128210,5
54085,128230,5
54105,128261,5
54266,128272,5
54111,128302,4
54135,128317,5
54145,128341,5
54225,128371,5
54161,128376,5
54170,128381,4
54176,128397,5
54190,128398,5
54173,128399,5
54182,128412,4
54182,128413,5
54195,128344,5
54193,128437,5
54210,128467,5
54226,128478,4
54215,128344,5
54223,128464,5
54216,128465,5
54212,128455,5
54206,128376,4
54197,128441,5
54203,128460,5
54213,128472,5
54219,128575,5
54235,128488,5
54230,128480,4
54230,128501,5
54231,128656,5
54245,128532,6
54266,128562,3
54287,128603,5
54313,128736,5
54324,128669,5
54347,128701,4
54348,128714,4
54360,128762,5
54384,128767,5
54383,128789,5
54397,128797,4
54400,128805,5
54415,128815,5
54414,128837,5
54434,128846,5
54433,128857,4
54437,128864,5
54437,128868,5
54446,128860,5
54436,128872,5
54447,128874,4
54448,128876,6
54450,128877,4
54450,128876,5
54449,128887,5
54459,128897,6
54469,128897,3
54461,128898,5
54467,128898,5
54465,128899,5
54464,128906,4
54475,128922,5
54475,128925,5
54476,128932,5
54482,128946,4
54476,128950,4
54488,128967,5
54506,129004,5
54527,129027,5
54544,129047,4
54556,129079,5
54569,129103,5
54587,129124,5
54601,129164,5
54629,129202,4
54643,129239,5
54669,129273,6
54684,129300,4
54698,129339,5
54718,129362,4
54732,129385,5
54739,129412,5
54759,129432,5
54773,129454,5
54781,129478,4
54793,129505,5
54818,129534,5
54830,129566,5
54856,129595,5
54866,129621,4
54877,129641,5
54891,129659,5
54907,129696,5
54925,129722,4
54937,129749,4
54950,129777,5
54969,129796,5
54968,129823,5
54982,129849,4
55011,129885,5
55018,129877,5
55024,129890,6
55020,129899,4
55011,129886,4
55020,129872,5
55011,129868,5
55002,129866,5
55005,129872,5
55002,129865,4
54997,129850,5
54995,129862,5
55005,129860,5
55002,129861,5
55008,129862,4
54976,129869,5
54997,129863,5
54989,129847,5
54990,129817,5
54862,129802,4
54962,129784,5
54941,129743,5
54919,129716,5
54771,129686,5
54882,129630,4
54842,129559,5
54817,129530,5
54772,129476,6
54767,129457,3
54746,129427,5
54736,129389,5
54836,129371,5
54707,129337,5
54692,129309,4
54666,129259,5
54796,129222,5
54616,129168,5
54600,129150,5
54591,129148,4
54658,129143,5
54592,129130,5
54584,129123,5
54583,129125,5
54593,129090,4
54573,129114,5
54584,129135,5
54592,129132,5
54586,129036,5
54593,129152,5
54606,129171,4
54613,129175,5
54620,129047,5
54618,129197,6
54628,129217,3
54627,129209,5
54643,129161,5
54640,129228,5
54641,129227,4
54637,129241,5
54647,129343,5
54646,129249,5
54658,129255,5
54655,129241,4
54640,129389,5
54643,129216,5
54620,129187,5
54602,129173,5
54575,129185,4
54534,129032,5
54488,128950,5
54435,128880,5
54395,128825,5
54358,128759,4
54338,128711,6
54325,128688,4
54315,128670,5
54291,128659,5
54295,128644,4
54284,128642,5
54290,128663,5
54297,128657,5
54294,128652,4
54293,128650,4
54287,128639,5
54280,128617,5
54260,128577,5
54223,128518,4
54171,128438,5
54109,128319,5
54038,128169,5
53939,128005,5
53811,127780,4
53667,127505,5
53498,127214,5
53329,126937,5
53165,126638,5
53005,126369,4
52861,126110,5
52723,125898,6
52614,125705,4
52520,125525,5
52423,125374,4
52348,125244,5
52273,125111,5
52212,124995,5
52133,124864,5
52062,124744,4
52001,124627,5
51941,124543,5
51887,124439,5
51828,124333,4
51769,124243,4
51725,124155,5
51680,124068,5
51635,123996,5
51605,123939,4
51578,123906,5
51551,123854,5
51523,123816,5
51520,123803,5
51514,123790,4
51496,123749,5
51477,123716,5
51460,123691,6
51447,123697,4
51451,123690,4
51442,123673,5
51439,123654,5
51439,123649,5
51434,123642,5
51417,123594,4
51372,123528,5
51328,123462,5
51288,123370,5
51230,123266,4
51164,123163,4
51106,123049,5
51050,122933,5
50978,122817,5
50923,122717,4
50878,122640,5
50842,122573,5
50809,122502,5
50768,122448,5
50736,122393,5
50711,122354,4
50696,122319,5
50682,122283,5
50638,122257,5
50645,122227,4
50639,122225,5
50646,122218,5
50535,122219,5
50642,122210,5
50637,122207,4
50624,122192,5
50482,122152,5
50576,122087,5
50525,121982,5
50465,121884,4
50406,121772,5
50350,121657,5
50278,121550,5
50207,121389,4
50194,121184,4
49966,120948,5
49838,120693,5
49702,120467,5
49733,120270,4
49477,120083,6
49389,119881,4
49297,119702,5
49241,119507,5
49073,119334,4
48981,119157,5
48911,119015,5
48839,118875,5
48763,118771,5
48720,118676,4
48674,118594,5
48636,118442,5
48607,118465,5
48584,118430,5
48568,118404,4
48570,118286,5
48576,118403,5
48584,118425,5
48587,118446,5
48608,118421,4
48618,118482,5
48631,118503,5
48653,118536,5
48669,118666,4
48700,118630,4
48733,118691,6
48758,118743,4
48799,118953,5
48833,118883,4
48875,118960,5
48934,119050,5
48983,119216,5
49035,119237,5
49101,119349,4
49150,119431,5
49195,119528,5
49230,119595,5
49276,119660,5
49312,119737,4
49351,119791,5
49394,119883,5
49443,119957,5
49474,120007,5
49494,120036,4
49507,120056,5
49521,120091,5
49535,120107,5
49544,120134,5
49567,120175,4
49571,120195,5
49597,120228,5
49615,120276,5
49635,120310,4
49661,120367,4
49710,120439,5
49746,120511,5
49791,120580,5
49826,120640,4
49849,120697,5
49880,120759,5
49912,120821,5
49958,120907,5
50020,120986,4
50053,121064,5
50092,121126,5
50126,121196,5
50158,121238,5
50188,121296,4
50210,121343,5
50240,121383,5
50247,121404,5
50264,121444,5
50280,121475,4
50300,121507,5
50315,121544,5
50346,121571,5
50360,121611,5
50372,121650,4
50407,121702,5
50435,121740,5
50448,121754,5
50477,121821,4
50496,121848,4
50523,121900,5
50552,121952,5
50565,121971,5
50590,122037,4
50621,122090,5
50648,122152,5
50683,122220,5
50732,122295,5
50769,122348,4
50801,122412,6
50827,122448,4
50855,122478,5
50868,122533,5
50892,122567,6
50906,122580,3
50895,122569,5
50877,122543,5
50859,122525,5
50860,122510,4
50844,122481,5
50831,122476,5
50839,122476,5
50848,122490,5
50848,122495,4
50857,122495,5
50843,122508,5
50861,122526,5
50875,122545,4
50886,122564,4
50860,122596,5
50922,122633,5
50949,122677,5
50974,122754,4
50920,122819,5
51063,122885,6
51095,122948,4
51107,122970,5
50992,122982,4
51115,122988,7
51123,122981,3
51127,122992,5
51115,122980,5
51118,122979,4
51125,122979,5
51134,123007,5
51242,123006,5
51133,122996,5
51116,122978,4
51108,122961,5
51245,122963,5
51107,122947,5
51111,122949,5
51102,122955,4
51164,122961,5
51129,122986,5
51134,123013,5
51143,123037,4
51180,123052,4
51185,123128,5
51237,123207,11
51284,123280,3
51317,123247,5
51351,123407,5
51394,123474,5
51438,123554,5
51482,123512,4
51535,123740,5
51592,123843,5
51633,123923,5
51680,123939,5
51710,124045,4
51727,124079,5
51746,124113,5
51772,124217,5
51781,124167,5
51795,124200,4
51813,124233,5
51826,124398,5
51839,124272,5
51854,124299,5
51861,124311,4
51880,124422,5
51889,124368,5
51898,124393,6
51914,124412,3
51923,124458,4
51935,124447,5
51939,124457,5
51941,124463,5
51936,124462,4
51947,124479,5
51952,124491,5
51975,124496,5
51983,124527,5
52002,124558,4
52024,124607,5
52048,124638,5
52057,124678,5
52075,124721,5
52107,124770,4
52142,124827,5
52174,124883,5
52202,124940,5
52241,124984,5
52256,125024,5
52271,125054,4
52303,125088,5
52317,125126,5
52349,125176,6
52368,125224,3
52400,125270,5
52428,125329,5
52465,125380,5
52497,125442,4
52539,125518,4
52561,125556,5
52589,125589,5
52596,125628,5
52618,125647,4
52625,125678,5
52643,125703,5
52662,125727,5
52669,125743,5
52664,125745,4
52670,125749,5
52671,125756,5
52675,125766,5
52693,125788,5
52698,125798,4
52705,125807,6
52717,125831,4
52732,125854,5
52743,125873,5
52740,125861,4
52738,125861,5
52739,125878,5
52738,125875,5
52748,125895,4
52767,125920,4
52773,125923,5
52772,125933,5
52778,125944,5
52771,125943,4
52770,125944,5
52782,125952,5
52805,125982,5
52806,126005,5
52830,126045,4
52846,126069,5
52853,126078,5
52863,126095,5
52872,126118,5
52890,126149,4
52908,126191,5
52928,126220,6
52941,126242,4
52949,126257,5
52945,126281,4
52962,126297,5
52986,126322,5
52986,126322,5
52982,126323,5
52949,126331,4
52994,126331,5
53006,126335,5
53003,126357,5
52898,126359,4
53019,126383,4
53033,126414,5
53043,126452,5
52946,126495,5
53094,126541,4
53123,126571,5
53138,126590,5
53133,126614,5
53154,126644,5
53174,126665,4
53198,126712,5
53325,126744,5
53232,126784,6
53257,126820,4
53285,126874,4
53464,126916,5
53331,126955,5
53342,126991,5
53364,127014,5
53454,127056,4
53405,127094,5
53441,127150,5
53468,127199,5
53500,127234,5
53525,127310,4
53548,127353,5
53566,127377,5
53586,127306,5
53593,127423,4
53607,127451,4
53617,127442,5
53597,127286,5
53593,127407,5
53579,127392,5
53563,127368,4
53565,127310,5
53551,127355,5
53546,127334,5
53535,127305,4
53512,127381,5
53500,127252,5
53478,127221,5
53462,127191,5
53436,127310,4
53420,127120,5
53412,127099,5
53405,127096,5
53391,127167,5
53402,127088,4
53398,127086,5
53388,127067,5
53374,127050,5
53358,127019,5
53347,126989,4
53332,126955,5
53307,126925,5
53290,126884,5
53269,126839,4
53251,126822,5
53236,126780,4
53218,126768,5
53208,126760,5
53197,126747,4
53191,126733,5
53192,126721,5
53171,126687,5
53147,126632,5
53124,126607,4
53114,126585,5
53102,126558,5
53078,126533,5
53055,126474,5
53028,126421,4
52997,126368,5
52968,126337,5
52966,126306,5
52949,126280,5
52927,126248,4
52910,126238,5
52915,126225,5
52907,126240,5
52912,126232,5
52905,126215,4
52888,126179,6
52861,126126,4
52826,126062,5
52810,126028,4
52780,125986,4
52771,125951,5
52745,125933,5
52738,125906,5
52725,125885,4
52715,125880,5
52714,125855,5
52694,125832,5
52674,125789,5
52642,125718,4
52598,125661,5
52581,125607,5
52543,125572,5
52504,125486,5
52469,125412,4
52426,125336,5
52386,125262,5
52336,125182,5
52287,125103,5
52244,125004,4
52181,124909,5
52125,124797,6
52050,124662,4
51982,124524,5
51900,124389,4
51826,124260,5
51757,124142,5
51686,124014,5
51623,123892,4
51562,123789,4
51499,123680,5
51452,123598,5
51395,123507,5
51349,123405,4
51295,123318,5
51238,123235,5
51188,123129,5
51122,123023,5
51064,122899,4
50996,122784,5
50947,122701,5
50879,122612,5
50855,122535,5
50808,122435,4
50744,122319,5
50591,122216,5
50632,122114,5
50574,122025,5
50522,121924,4
50345,121834,5
50411,121710,5
50335,121590,5
50269,121477,4
50191,121372,4
50145,121239,5
50070,121093,5
49986,120943,5
50005,120803,4
49826,120638,4
49707,120440,5
49617,120278,5
49653,120079,5
49424,119915,4
49345,119790,6
49275,119659,4
49268,119512,5
49125,119392,5
49064,119281,6
48990,119147,3
48940,119027,5
48852,118898,5
48790,118774,5
48725,118685,4
48689,118525,5
48648,118545,5
48611,118470,5
48569,118402,5
48516,118186,4
48456,118175,5
48382,118035,5
48315,117899,5
48236,117701,5
48183,117651,4
48125,117550,5
48071,117463,5
48039,117461,5
47997,117338,4
47976,117297,4
47979,117274,6
47961,117389,4
47956,117250,5
47967,117266,4
47976,117290,7
47988,117400,3
48006,117335,5
48038,117411,5
48080,117480,4
48104,117550,5
48110,117536,5
48106,117522,5
48098,117517,5
48097,117499,4
48081,117483,5
48082,117487,5
48088,117483,5
48081,117491,5
48089,117480,4
48084,117497,5
48094,117501,5
48096,117527,5
48123,117560,4
48137,117594,4
48164,117645,5
48191,117671,6
48212,117709,4
48225,117730,4
48237,117765,5
48258,117799,5
48265,117827,5
48290,117871,5
48307,117893,4
48330,117934,5
48355,117986,5
48388,118047,5
48417,118095,5
48444,118144,4
48470,118183,5
48479,118206,5
48492,118226,5
48494,118232,5
48489,118225,4
48494,118223,5
48495,118237,5
48491,118231,5
48504,118235,5
48500,118241,4
48504,118249,5
48504,118255,5
48506,118266,6
48514,118262,3
48511,118266,4
48505,118256,5
48502,118238,5
48501,118238,5
48485,118215,4
48482,118211,5
48479,118201,5
48477,118196,5
48467,118198,5
48472,118199,4
48472,118203,5
48483,118197,5
48480,118197,5
48475,118194,5
48471,118199,4
48476,118193,5
48479,118193,5
48488,118211,5
48481,118220,5
48490,118239,5
48506,118258,4
48540,118306,5
48581,118376,5
48620,118455,6
48656,118505,3
48674,118547,5
48690,118591,5
48734,118655,5
48784,118751,4
48834,118844,4
48878,118907,5
48920,118981,5
48966,119067,5
49010,119140,4
49041,119216,5
49084,119279,5
49108,119323,5
49128,119350,5
49066,119393,4
49163,119404,5
49175,119427,5
49168,119433,5
49050,119430,5
49171,119436,4
49192,119469,6
49202,119487,4
49157,119513,5
49228,119537,5
49252,119578,4
49275,119630,5
49386,119689,5
49340,119742,5
49370,119796,5
49393,119854,4
49571,119904,5
49472,119981,5
49507,120072,5
49557,120166,4
49694,120257,4
49662,120355,5
49723,120445,5
49775,120541,5
49854,120626,4
49877,120719,5
49929,120801,5
49968,120893,5
50008,120892,5
50057,121021,4
50085,121087,5
50114,121136,6
50145,121060,4
50163,121215,5
50192,121264,5
50216,121315,4
50241,121256,5
50269,121414,5
50311,121484,5
50339,121538,4
50383,121673,5
50432,121704,5
50490,121805,5
50549,121897,5
50592,122131,8
50649,122094,1
50698,122195,5
50745,122296,5
50823,122513,4
50876,122493,4
50922,122594,5
50977,122693,5
51039,122821,5
51078,122869,4
51110,122926,5
51166,123014,5
51213,123089,6
51233,123137,4
51252,123148,4
51254,123165,5
51277,123202,5
51283,123214,5
51296,123241,5
51322,123281,4
51336,123311,5
51357,123351,5
51394,123428,5
51427,123493,5
51468,123555,4
51506,123636,5
51546,123698,5
51579,123755,5
51600,123795,5
51608,123817,4
51617,123832,5
51632,123856,5
51643,123881,5
51663,123915,5
51690,123944,4
51695,123974,5
51712,124005,5
51743,124050,6
51767,124084,3
51778,124115,5
51793,124147,5
51809,124171,5
51818,124189,5
51824,124203,4
51833,124230,5
51842,124239,5
51854,124265,5
51855,124276,5
51885,124313,4
51893,124345,5
51911,124369,5
51914,124369,5
51897,124344,5
51903,124337,4
51905,124353,5
51909,124372,5
51928,124386,5
51926,124404,5
51942,124421,5
51940,124434,4
51951,124453,5
51974,124490,5
51986,124500,4
51996,124521,4
52011,124538,5
52029,124579,5
52041,124603,5
52058,124634,4
52077,124669,5
52075,124682,5
52084,124686,5
52087,124681,5
52088,124679,4
52085,124684,5
52079,124675,5
52077,124663,5
52072,124653,5
52065,124647,4
52061,124645,5
52056,124627,5
52042,124615,5
52041,124604,5
52033,124593,4
52031,124588,6
52022,124562,4
52005,124532,5
51986,124489,5
51955,124460,4
51926,124389,5
51809,124329,5
51847,124265,5
51817,124223,4
51795,124182,5
51639,124139,5
51747,124110,5
51735,124093,5
51732,124078,4
51613,124069,5
51714,124048,5
51699,124038,5
51698,124016,5
51736,124010,4
51673,123994,5
51674,123968,5
51643,123933,5
51753,123889,5
51588,123831,4
51545,123735,5
51481,123635,6
51507,123503,4
51329,123366,5
51244,123230,4
51170,123089,5
51124,122945,5
50998,122795,5
50920,122647,5
50851,122540,4
50805,122403,5
50747,122360,5
50694,122244,5
50610,122094,4
50520,121838,5
50412,121756,5
50300,121553,5
50174,121326,5
50052,120976,4
49920,120858,5
49796,120646,5
49694,120463,5
49592,120323,5
49521,120194,4
49483,120102,5
49426,120021,5
49391,120064,5
49360,119893,5
49328,119849,4
49321,119835,5
49310,119958,5
49320,119832,5
49327,119836,5
49332,119849,4
49347,119912,5
49351,119901,5
49371,119925,5
49399,119977,5
49442,120050,4
49479,120116,5
49529,120203,5
49579,120298,5
49639,120403,4
49694,120497,4
49763,120620,5
49833,120729,5
49897,120862,5
49970,120983,5
50055,121129,4
50136,121255,5
50197,121389,5
50250,121448,5
50275,121526,4
50325,121615,5
50381,121699,5
50435,121782,5
50476,121861,5
50522,121950,4
50578,122046,5
50626,122157,5
50687,122264,5
50741,122354,5
50800,122462,4
50858,122553,5
50906,122652,5
50970,122747,5
51011,122834,4
51051,122909,4
51091,122984,5
51127,123022,5
51170,123083,5
51197,123156,4
51232,123238,6
51286,123310,4
51336,123412,5
51385,123514,5
51444,123608,4
51499,123700,5
51553,123784,5
51595,123880,5
51648,123975,5
51702,124074,4
51750,124158,5
51793,124239,5
51851,124328,5
51906,124423,5
51962,124536,4
52015,124637,5
52072,124722,5
52108,124788,5
52126,124831,5
52141,124848,4
52172,124913,5
52224,125008,6
52293,125129,4
52331,125188,4
52377,125280,4
52429,125370,5
52462,125411,5
52453,125389,5
52454,125412,4
52504,125507,5
52567,125613,5
52612,125683,5
52624,125702,5
52647,125736,4
52660,125741,5
52635,125725,5
52643,125713,5
52634,125725,5
52638,125724,4
52651,125749,5
52660,125755,5
52632,125724,5
52607,125656,5
52525,125634,4
52579,125629,5
52577,125608,5
52534,125531,6
52366,125435,4
52420,125337,4
52381,125238,5
52316,125143,5
52103,125009,5
52193,124919,4
52147,124832,4
52091,124746,5
52077,124688,5
52025,124651,5
52000,124595,4
51950,124496,5
52016,124402,5
51834,124308,5
51790,124224,5
51765,124179,4
51867,124139,5
51716,124087,5
51684,124019,5
51654,123955,5
51663,123898,5
51596,123867,4
51584,123851,5
51584,123852,5
51584,123809,6
51577,123819,3
51572,123820,5
51571,123829,5
51567,123726,5
51567,123841,5
51592,123857,4
51601,123903,5
51636,123809,5
51667,123993,5
51700,124067,5
51732,124137,4
51784,124197,5
51812,124254,5
51823,124284,5
51840,124297,4
51846,124429,5
51870,124344,5
51885,124405,5
51920,124451,5
51942,124644,4
51974,124538,6
51997,124591,4
52020,124627,5
52037,124740,5
52068,124710,6
52091,124747,3
52116,124772,5
52115,124803,5
52102,124767,5
52095,124744,4
52075,124699,5
52044,124657,5
52015,124610,5
51978,124560,5
51963,124522,4
51952,124530,5
51971,124563,5
51999,124603,5
52013,124642,4
52028,124654,4
52054,124703,5
52081,124744,5
52095,124786,5
52124,124835,4
52171,124934,5
52230,125018,6
52259,125080,4
52282,125109,5
52293,125143,4
52303,125148,5
52311,125156,5
52315,125167,5
52323,125192,5
52350,125223,4
52409,125333,5
52448,125395,5
52460,125405,5
52454,125390,5
52437,125378,4
52435,125365,5
52439,125365,5
52426,125356,5
52428,125358,5
52434,125354,4
52440,125393,5
52452,125414,5
52461,125428,5
52477,125462,4
52498,125491,4
52503,125499,5
52514,125505,6
52511,125507,4
52521,125521,4
52524,125540,5
52545,125569,5
52576,125619,5
52611,125694,5
52642,125762,4
52694,125871,5
52784,126017,5
52884,126180,5
52942,126264,5
52946,126277,4
52929,126235,5
52888,126140,5
52824,126018,5
52747,125889,5
52673,125728,4
52572,125570,5
52486,125441,5
52445,125384,5
52434,125351,5
52414,125318,4
52401,125290,5
52375,125260,5
52356,125209,6
52330,125174,3
52299,125125,4
52277,125086,5
52259,125049,5
52204,124947,5
52119,124781,4
52014,124606,5
51904,124408,5
51750,124183,5
51632,123940,5
51496,123691,4
51351,123443,5
51126,123211,5
51107,123017,5
50972,122811,5
50866,122609,4
50643,122437,5
50685,122275,5
50603,122176,5
50564,122106,5
50525,122072,5
50539,122071,4
50548,122085,5
50565,122120,5
50697,122173,5
50634,122250,4
50683,122323,5
50732,122402,5
50901,122452,5
50770,122465,4
50782,122472,4
50789,122483,5
50853,122509,5
50826,122574,5
50860,122629,4
50904,122702,5
50959,122770,5
50991,122836,5
51020,122896,5
51085,123014,4
51140,123008,5
51168,123142,5
51205,123200,5
51245,123267,5
51258,123148,4
51232,123219,6
51183,123140,4
51136,123044,5
51116,122952,5
51098,122985,4
51072,122946,5
51064,122904,5
51009,122879,5
50947,122685,5
50888,122566,4
50814,122439,5
50754,122464,5
50699,122242,5
50652,122168,4
50623,122095,4
50584,122119,5
50559,122011,5
50563,121995,5
50569,122024,4
50592,122085,5
50618,122113,5
50638,122156,5
50646,122140,5
50622,122108,4
50593,122055,5
50562,121980,11
50512,121897,4
50479,121835,4
50445,121757,5
50377,121655,5
50310,121514,5
50217,121336,5
50090,121097,4
49938,120817,5
49810,120586,5
49729,120454,5
49706,120425,5
49700,120410,4
49682,120377,5
49666,120372,5
49669,120380,5
49679,120409,4
49707,120431,4
49727,120468,5
49732,120490,5
49748,120504,5
49769,120557,4
49809,120619,5
49834,120671,5
49869,120726,5
49890,120757,5
49893,120780,4
49906,120768,5
49886,120735,5
49840,120651,5
49771,120539,5
49685,120378,4
49578,120180,5
49477,120007,5
49372,119815,5
49251,119595,5
49101,119282,4
48913,118961,5
48720,118582,5
48489,118165,5
48267,117756,5
48073,117402,4
47936,117196,5
47851,117044,5
47808,117001,5
47830,117024,5
47843,117076,4
47869,117116,5
47894,117167,5
47934,117234,5
47967,117278,4
47977,117316,5
47990,117319,5
47977,117310,5
47966,117253,5
47868,117092,4
47735,116810,5
47508,116377,5
47200,115763,5
46856,115150,5
46555,114574,4
46300,114811,5
46060,114372,5
45865,113971,5
45704,113648,5
45552,113380,4
45457,113212,5
45412,113127,5
45390,113068,5
45363,113019,5
45361,113018,5
45367,113039,4
45375,113063,5
45431,113167,5
45527,113383,4
45597,113658,4
45858,114021,5
46078,114447,5
46300,114871,5
46396,115238,4
46699,115626,5
46958,116129,5
47257,116698,5
47503,117260,5
47823,117762,4
48052,118158,5
48193,118401,5
48380,118606,5
48402,118765,5
48448,118857,4
48465,118909,5
48629,118976,5
48537,119024,5
48536,119015,5
48522,118988,4
48560,118933,6
48464,118899,4
48432,118815,5
48366,118699,4
48310,118599,4
48281,118605,5
48294,118638,5
48343,118740,5
48419,118814,4
48534,119088,5
48638,119272,5
48707,119363,5
48749,119356,5
48809,119575,5
48880,119693,4
48931,119801,5
49014,119868,5
49151,120243,5
49343,120610,4
49550,121007,5
49783,121483,5
49950,121720,6
50093,121956,4
50192,122154,4
50290,122450,5
50390,122519,5
50560,122833,5
50732,123172,5
50887,123532,4
50973,123556,5
50950,123487,5
50862,123308,5
50765,123147,4
50662,122963,4
50579,122805,5
50481,122615,5
50356,122400,5
50221,122161,4
50092,121923,5
49952,121647,5
49808,121410,5
49667,121156,5
49563,120960,5
49467,120792,4
49393,120655,5
49317,120530,5
49276,120436,6
49224,120362,3
49187,120298,5
49154,120251,5
49137,120213,5
49138,120204,5
49130,120202,4
49106,120154,5
49064,120055,5
49027,120005,5
49022,119988,5
49010,119978,4
49003,119969,5
49000,119963,5
49011,119977,5
49024,119985,4
49016,119990,4
49027,120011,5
49044,120054,5
49068,120087,5
49087,120137,4
49100,120166,6
49121,120180,4
49112,120157,5
49103,120153,5
49116,120181,6
49136,120236,3
49193,120324,5
49236,120405,5
49298,120504,5
49364,120634,4
49442,120784,5
49547,120982,5
49692,121246,5
49843,121534,5
50010,121827,4
50203,122197,5
50419,122611,5
50666,123048,5
50921,123522,5
51165,123947,4
51364,124303,5
51537,124591,5
51665,124808,5
51760,124989,4
51867,125162,4
51965,125349,6
52055,125500,4
52113,125599,5
52171,125686,4
52222,125751,5
52229,125755,5
52218,125760,5
52242,125776,5
52255,125822,4
52284,125872,5
52302,125876,5
52296,125856,5
52248,125772,5
52195,125694,4
52167,125625,5
52138,125573,5
52096,125499,5
52047,125417,5
52010,125347,4
51969,125259,5
51913,125161,5
51780,125057,5
51807,124978,5
51773,124917,4
51749,124880,5
51625,124882,6
51733,124861,4
51715,124818,4
51695,124791,4
51590,124777,5
51682,124768,5
51680,124767,5
51671,124753,4
51739,124763,5
51671,124767,5
51675,124787,5
51720,124836,5
51895,124925,4
51797,125010,5
51859,125097,5
51900,125165,5
52034,125232,5
51974,125301,4
51990,125317,5
51992,125309,5
52008,125290,5
51983,125293,5
51980,125284,4
51953,125268,5
51932,125135,5
51873,125090,6
51805,124990,4
51749,124866,4
51682,124611,5
51600,124612,5
51547,124504,5
51460,124358,4
51356,124035,4
51246,123969,5
51123,123739,5
50994,123501,5
50910,123421,4
50892,123352,5
50871,123306,5
50854,123272,5
50820,123344,5
50774,123137,4
50738,123067,5
50705,123002,5
50641,122998,5
50534,122644,5
50395,122387,5
50246,122130,4
50101,121885,5
49947,121551,5
49802,121301,6
49686,121088,3
49580,120904,5
49475,120724,5
49377,120522,5
49274,120337,5
49183,120176,4
49111,120069,5
49071,120004,5
49047,119948,5
49025,119924,4
49011,119886,4
48992,119849,5
48989,119844,5
48989,119872,5
49025,119917,4
49049,119973,5
49097,120078,5
49161,120188,5
49242,120320,5
49318,120480,4
49409,120648,6
49498,120800,4
49581,120938,5
49656,121097,5
49765,121293,4
49864,121465,5
49946,121615,5
50014,121741,5
50089,121872,5
50167,122011,4
50239,122140,5
50301,122251,5
50357,122346,5
50416,122475,5
50493,122620,4
50582,122781,5
50695,122989,5
50810,123208,5
50944,123440,4
51094,123722,4
51285,124093,5
51514,124495,5
51703,124843,5
51892,125186,4
52066,125513,5
52238,125828,6
52388,126062,4
52479,126203,5
52541,126301,4
52584,126381,5
52608,126426,5
52658,126520,5
52736,126666,5
52808,126799,4
52862,126872,5
52867,126873,5
52874,126883,5
52878,126879,5
52863,126862,4
52865,126872,5
52872,126914,5
52900,126950,5
52921,126993,5
52937,126987,4
52902,126921,5
52879,126901,5
52878,126909,5
52869,126848,4
52792,126694,4
52664,126497,5
52572,126311,6
52466,126120,4
52351,125913,4
52243,125750,5
52176,125629,5
52103,125516,5
52025,125363,5
51943,125217,4
51787,125052,5
51726,124816,5
51594,124602,5
51464,124368,5
51251,124205,4
51270,124035,5
51171,123849,5
51079,123695,5
50895,123606,5
50982,123547,5
50967,123522,4
50965,123508,5
50978,123485,5
50925,123424,5
50860,123308,4
50779,123150,5
50828,123051,5
50655,122937,5
50581,122810,4
50531,122735,5
50639,122721,5
50504,122693,5
50515,122716,5
50541,122785,4
50620,122837,5
50596,122859,5
50612,122891,5
50651,122959,5
50693,123010,4
50748,123153,5
50813,123280,5
50908,123413,5
50983,123445,5
51052,123704,4
51159,123867,5
51239,123999,5
51274,123935,5
51302,124112,5
51348,124207,5
51394,124278,4
51435,124322,5
51461,124403,5
51521,124492,4
51565,124593,4
51607,124754,5
51625,124670,5
51634,124693,5
51658,124730,4
51696,124954,5
51758,124914,5
51822,125020,5
51875,125108,5
51912,125225,4
51928,125164,5
51911,125144,5
51907,125128,5
51910,125151,5
51904,125124,4
51891,125104,5
51885,125075,5
51855,125005,5
51787,124895,5
51773,124884,4
51770,124878,6
51778,124877,4
51757,124840,5
51739,124820,5
51746,124826,4
51752,124827,5
51747,124819,5
51740,124812,5
51722,124778,4
51702,124731,4
51683,124724,5
51695,124761,5
51739,124836,5
51806,124941,8
51847,124996,1
51853,125016,5
51838,124984,5
51804,124931,5
51801,124913,4
51814,124943,5
51842,124998,5
51899,125091,5
51947,125167,5
51959,125173,4
51955,125145,5
51943,125125,5
51908,125038,5
51850,124949,5
51792,124860,4
51734,124741,5
51635,124530,5
51561,124423,5
51529,124382,5
51529,124387,4
51562,124471,5
51596,124481,5
51540,124361,5
51427,124158,4
51316,123969,4
51202,123775,5
51064,123516,5
50907,123268,5
50856,123226,5
50922,123363,4
50991,123451,5
50955,123365,5
50872,123241,6
50858,123251,3
50922,123399,5
51072,123704,5
51262,124027,5
51356,124125,5
51271,123915,4
51105,123676,5
51053,123612,5
51049,123593,5
51030,123566,5
51001,123508,4
50973,123475,5
50946,123405,5
50917,123365,5
50892,123327,5
50887,123321,4
50874,123282,5
50831,123203,5
50783,123114,5
50703,122955,4
50637,122836,5
50546,122683,4
50442,122498,5
50267,122241,5
50186,122048,6
50087,121833,3
49964,121641,5
49774,121486,5
49807,121340,5
49691,121151,4
49539,120855,5
49265,120575,5
49253,120371,5
49178,120213,5
49076,120049,4
48977,119887,5
48915,119736,5
48828,119576,5
48720,119390,5
48765,119315,4
48661,119306,5
48649,119256,5
48602,119157,5
48678,119051,5
48496,118973,4
48477,118936,6
48463,118898,4
48502,118869,5
48441,118877,4
48433,118877,6
48444,118875,3
48446,118854,5
48429,118857,5
48442,118879,4
48450,118890,5
48459,118826,5
48479,118940,5
48512,119003,5
48545,119063,4
48580,119011,5
48626,119222,5
48677,119313,5
48735,119404,5
48773,119402,4
48793,119492,5
48803,119500,5
48811,119525,5
48839,119660,5
48883,119670,4
48936,119756,5
48976,119823,6
49006,120024,4
49048,119962,4
49089,120024,4
49132,120063,5
49143,120208,5
49174,120166,5
49196,120211,4
49207,120229,4
49207,120261,5
49218,120263,5
49254,120312,5
49295,120422,4
49368,120531,5
49426,120636,5
49473,120721,5
49526,120812,5
49551,120848,4
49577,120911,5
49632,121019,5
49716,121203,5
49804,121342,5
49872,121473,4
49929,121561,5
49985,121651,5
50028,121735,6
50058,121802,4
50102,121868,4
50127,121912,5
50138,121936,5
50160,121963,5
50184,122023,5
50220,122082,4
50241,122139,5
50292,122228,5
50343,122297,5
50359,122314,4
50350,122332,5
50382,122389,5
50428,122472,5
50481,122572,5
50535,122649,4
50547,122659,5
50534,122639,5
50505,122595,5
50481,122546,5
50473,122528,5
50477,122558,4
50490,122557,5
50485,122563,5
50509,122606,6
50511,122617,3
50531,122656,5
50568,122712,5
50594,122751,5
50603,122768,5
50600,122754,4
50595,122760,5
50584,122735,5
50557,122690,5
50527,122627,4
50480,122545,4
50460,122518,5
50443,122477,5
50445,122495,5
50454,122517,4
50468,122544,5
50486,122585,5
50514,122634,5
50538,122658,5
50553,122682,4
50573,122734,6
50602,122787,4
50642,122845,5
50680,122924,5
50731,123032,4
50802,123163,5
50878,123300,5
50942,123416,5
50979,123494,5
51042,123628,4
51152,123817,5
51265,124028,5
51377,124225,5
51502,124475,5
51668,124798,4
51841,125136,5
52021,125444,5
52188,125717,5
52311,125928,4
52310,126091,4
52487,126256,5
52576,126432,5
52682,126634,5
52654,126805,4
52882,126947,5
52922,127031,6
52961,127078,4
52932,127143,5
53028,127226,4
53083,127308,5
53143,127425,5
53290,127538,5
53273,127648,5
53336,127780,4
53405,127912,5
53655,128080,5
53623,128293,5
53751,128530,5
53892,128784,4
54103,129029,5
54178,129288,5
54317,129547,5
54453,129799,5
54611,130034,4
54711,130253,5
54832,130424,5
54913,130597,5
55013,130667,4
55095,130909,4
55191,131069,5
55297,131264,6
55405,130608,4
55530,130967,5
55675,131209,4
55815,131449,5
55940,131559,5
56072,131910,5
56196,132116,4
56313,132333,5
56444,132632,5
56588,132800,5
56712,133004,5
56792,133149,4
56849,133415,5
56894,133324,5
56917,133355,5
56931,133390,5
56956,133568,4
57012,133529,5
57045,133592,5
57085,133650,5
57108,133736,5
57133,133756,4
57201,133843,5
57247,133953,5
57313,134055,5
57365,134149,4
57427,134252,4
57486,134356,5
57552,134465,5
57625,134576,5
57694,134704,4
57752,134807,5
57808,134886,5
57847,134971,5
57900,135037,5
57920,135075,4
57940,135104,5
57948,135131,5
57973,135147,5
57982,135185,5
58005,135220,4
58027,135251,5
58045,135296,5
58063,135328,5
58104,135401,5
58151,135477,5
58182,135530,4
58200,135545,5
58196,135538,5
58193,135550,5
58224,135593,4
58251,135652,5
58274,135688,5
58298,135736,5
58324,135779,4
58349,135826,4
58374,135862,5
58379,135866,5
58364,135846,5
58348,135798,4
58328,135765,5
58302,135725,5
58286,135688,5
58257,135644,5
58229,135595,4
58204,135560,5
58180,135524,5
58150,135477,5
58137,135436,5
58111,135390,4
58085,135350,6
58059,135310,4
58033,135253,5
57997,135195,5
57956,135111,4
57903,135032,5
57858,134937,5
57799,134839,5
57738,134734,5
57670,134613,4
57602,134513,5
57541,134401,5
57484,134304,5
57433,134208,4
57378,134120,4
57327,134027,5
57261,133908,5
57206,133816,5
57158,133735,4
57114,133664,5
57055,133574,5
57003,133479,5
56933,133369,5
56883,133266,4
56837,133184,5
56792,133111,6
56756,133055,4
56722,132991,5
56689,132931,4
56656,132873,5
56624,132830,5
56516,132781,5
56576,132716,5
56527,132653,4
56468,132551,5
56293,132482,5
56397,132430,5
56369,132391,5
56337,132325,4
56186,132242,5
56229,132140,5
56188,132048,5
56102,131897,4
56087,131763,4
55949,131660,5
55921,131622,5
55911,131595,5
56034,131555,4
55865,131491,5
55829,131464,5
55816,131436,5
55923,131428,5
55795,131392,4
55772,131348,5
55749,131299,5
55747,131255,5
55692,131212,5
55671,131168,4
55633,131128,5
55602,131008,5
55585,131011,5
55542,130949,5
55498,130849,4
55431,130623,5
55366,130647,5
55312,130526,5
55228,130380,4
55141,130073,5
55064,130066,4
54960,129915,5
54874,129737,5
54787,129630,6
54700,129440,3
54621,129299,5
54546,129162,5
54458,129150,5
54348,128819,4
54241,128633,5
54158,128480,5
54089,128468,5
54003,128213,5
53921,128060,4
53851,127927,5
53775,127849,5
53710,127698,5
53661,127600,5
53598,127489,4
53540,127383,5
53483,127280,5
53424,127165,5
53369,127086,5
53320,126994,4
53284,126927,6
53239,126846,4
53205,126782,5
53161,126707,4
53116,126626,6
53070,126549,3
53036,126457,5
52986,126380,5
52946,126313,4
52908,126242,5
52871,126174,5
52830,126112,5
52802,126053,5
52772,125985,4
52732,125939,5
52710,125892,5
52683,125840,5
52659,125806,5
52632,125760,4
52617,125716,5
52602,125697,5
52585,125671,5
52576,125647,5
52556,125625,4
52550,125606,5
52542,125585,6
52527,125558,4
52526,125560,5
52522,125544,4
52521,125550,5
52516,125546,7
52519,125554,3
52515,125558,4
52522,125565,4
52529,125582,5
52556,125596,5
52560,125617,5
52568,125637,4
52583,125664,5
52598,125688,5
52601,125692,5
52611,125716,5
52628,125734,4
52640,125759,5
52654,125783,5
52657,125802,5
52676,125825,5
52696,125847,4
52688,125865,5
52705,125886,5
52719,125898,6
52713,125909,4
52723,125913,4
52724,125913,5
52727,125918,5
52729,125925,5
52727,125928,5
52731,125937,4
52741,125920,5
52734,125920,5
52737,125922,5
52725,125919,4
52731,125912,4
52730,125913,5
52725,125908,5
52717,125889,5
52712,125889,4
52709,125883,5
52707,125884,5
52700,125874,5
52703,125874,5
52695,125872,5
52638,125858,4
52693,125875,5
52701,125857,5
52709,125870,6
52580,125882,3
52706,125875,5
52708,125877,5
52700,125862,5
52553,125833,5
52644,125751,4
52557,125566,5
52432,125350,5
52347,125127,5
52194,124932,5
52077,124737,4
51968,124528,5
51957,124286,5
51671,124003,5
51528,123761,4
51414,123580,4
51475,123503,5
51351,123476,5
51330,123447,5
51302,123407,4
51339,123398,6
51308,123432,4
51345,123485,5
51371,123523,5
51379,123477,4
51346,123470,5
51316,123442,5
51321,123421,5
51315,123322,5
51335,123448,4
51333,123458,5
51337,123455,5
51350,123346,5
51361,123512,5
51386,123541,4
51399,123553,5
51400,123580,5
51408,123575,5
51416,123575,4
51405,123576,4
51399,123683,5
51406,123566,5
51412,123585,5
51420,123595,4
51420,123740,5
51430,123607,6
51429,123591,4
51423,123576,5
51407,123603,4
51394,123522,5
51372,123495,5
51360,123480,5
51370,123498,5
51380,123515,4
51385,123525,5
51387,123521,5
51377,123507,5
51380,123505,5
51379,123510,4
51383,123515,5
51397,123535,5
51393,123542,5
51402,123546,5
51408,123569,4
51412,123576,5
51422,123585,5
51441,123603,5
51446,123628,4
51461,123655,4
51474,123674,5
51481,123689,6
51493,123708,4
51501,123719,4
51506,123745,5
51516,123761,5
51539,123784,5
51546,123802,5
51566,123821,4
51568,123850,5
51585,123878,5
51602,123922,5
51646,123970,5
51668,124031,4
51728,124129,5
51783,124251,5
51838,124332,5
51890,124441,5
51956,124547,4
52023,124667,5
52093,124799,5
52156,124926,5
52215,125027,5
52269,125114,4
52322,125193,5
52356,125269,5
52422,125367,6
52482,125482,3
52534,125596,4
52601,125695,5
52655,125784,5
52706,125882,5
52754,125972,4
52804,126071,5
52860,126158,5
52913,126260,5
52946,126329,5
52991,126393,4
53014,126426,5
53026,126447,5
53037,126467,5
53042,126482,5
53056,126498,4
53058,126516,5
53070,126538,5
53073,126555,5
53087,126578,5
53110,126620,5
53125,126642,4
53157,126688,5
53187,126748,5
53225,126812,5
53262,126889,4
53310,126980,5
53357,127072,5
53414,127179,5
53472,127279,4
53531,127372,5
53566,127442,5
53591,127474,5
53542,127487,5
53600,127484,4
53598,127456,5
53568,127429,5
53426,127388,5
53531,127368,5
53515,127334,4
53506,127317,5
53354,127305,5
53497,127303,5
53494,127299,5
53498,127305,4
53541,127322,6
53511,127337,4
53514,127347,5
53524,127379,5
53688,127410,4
53577,127448,5
53592,127479,5
53617,127529,5
53757,127571,5
53676,127628,4
53706,127684,5
53732,127737,5
53798,127764,5
53767,127793,4
53770,127795,4
53765,127775,5
53758,127714,5
53735,127732,5
53734,127722,4
53718,127715,5
53714,127589,5
53709,127680,6
53701,127680,4
53694,127670,4
53676,127491,5
53661,127608,7
53648,127578,3
53639,127565,5
53642,127572,4
53640,127575,5
53636,127557,5
53614,127532,5
53604,127620,5
53591,127470,4
53553,127415,5
53504,127338,5
53465,127436,5
53457,127236,4
53430,127216,4
53408,127173,5
53379,127191,5
53365,127089,5
53340,127054,4
53328,127039,5
53329,127052,5
53327,127033,5
53327,127032,5
53320,127033,4
53324,127041,5
53337,127058,5
53343,127080,5
53359,127097,5
53364,127119,4
53379,127134,5
53395,127131,5
53377,127125,5
53358,127068,5
53316,126989,4
53264,126909,5
53219,126840,5
53196,126799,5
53160,126747,5
53144,126706,4
53136,126685,5
53128,126684,5
53132,126691,5
53137,126701,4
53136,126715,4
53157,126743,5
53192,126808,5
53215,126857,5
53257,126925,5
53286,126972,4
53300,126994,5
53294,126969,5
53278,126943,5
53234,126861,4
53198,126807,5
53167,126742,5
53138,126701,5
53108,126666,5
53088,126635,4
53075,126599,5
53070,126596,5
53074,126592,5
53073,126608,5
53082,126629,4
53106,126662,5
53126,126699,5
53150,126758,5
53182,126807,5
53230,126872,4
53256,126927,6
53291,126981,4
53324,127027,5
53351,127091,4
53374,127126,6
53406,127197,3
53447,127236,5
53475,127291,5
53508,127363,4
53550,127431,5
53600,127497,5
53635,127594,5
53699,127700,5
53761,127807,4
53827,127918,5
53898,128045,5
53979,128200,5
54071,128366,5
54172,128550,4
54286,128754,5
54404,128963,5
54534,129202,5
54676,129455,5
54836,129733,4
55001,130020,5
55164,130300,6
55312,130578,4
55476,130869,4
55623,131117,4
55701,131356,5
55884,131568,5
56003,131770,5
56098,131931,4
56061,132079,5
56271,132202,5
56333,132317,5
56379,132405,5
56277,132478,4
56470,132549,5
56498,132580,5
56501,132600,5
56534,132623,5
56546,132682,4
56566,132715,5
56590,132749,5
56731,132759,5
56604,132796,5
56637,132838,4
56660,132882,5
56823,132901,5
56695,132920,6
56697,132935,4
56705,132932,4
56754,132930,5
56683,132916,5
56686,132895,5
56676,132873,4
56645,132808,4
56619,132801,5
56593,132751,5
56561,132678,5
56502,132492,4
56476,132532,5
56426,132450,5
56376,132357,5
56313,132106,5
56243,132137,5
56186,132042,4
56121,131937,5
56069,131808,5
56006,131710,5
55920,131574,5
55846,131456,4
55793,131485,5
55751,131282,5
55683,131160,6
55588,130974,3
55475,130940,5
55359,130583,5
55262,130387,5
55151,130224,5
55050,130134,4
54947,129871,5
54846,129679,5
54726,129462,5
54614,129259,4
54504,129055,4
54396,128882,5
54309,128705,5
54214,128552,5
54131,128410,4
54054,128282,5
53966,128127,5
53901,128007,5
53829,127891,5
53778,127802,4
53732,127718,6
53696,127651,4
53674,127616,5
53668,127598,5
53658,127587,4
53655,127594,5
53668,127621,5
53675,127621,5
53685,127660,5
53693,127673,4
53712,127685,5
53712,127712,5
53732,127730,5
53753,127768,5
53757,127778,4
53773,127798,5
53777,127811,5
53794,127842,5
53802,127865,4
53814,127880,4
53824,127886,5
53826,127891,5
53841,127905,5
53837,127911,4
53839,127905,5
53835,127912,6
53838,127902,4
53838,127906,5
53837,127896,4
53826,127882,5
53820,127878,5
53819,127861,5
53803,127850,5
53804,127842,4
53791,127841,5
53789,127826,5
53785,127802,5
53757,127772,5
53752,127748,4
53735,127725,5
53724,127705,5
53714,127688,5
53700,127670,9
53692,127645,1
53668,127609,4
53673,127615,5
53675,127597,5
53676,127608,4
53656,127583,4
53637,127548,5
53627,127540,6
53615,127512,4
53611,127524,4
53600,127496,5
53576,127467,5
53563,127429,5
53539,127406,5
53540,127396,4
53531,127391,5
53529,127366,5
53519,127360,5
53513,127359,5
53500,127339,4
53507,127333,5
53503,127326,5
53487,127315,5
53454,127301,5
53470,127284,4
53456,127257,5
53432,127215,5
53296,127147,5
53369,127093,5
53330,127039,4
53310,126987,5
53145,126929,5
53242,126850,6
53199,126797,3
53174,126749,5
53141,126718,5
53141,126694,5
53120,126638,5
53073,126571,4
53157,126520,5
53019,126478,5
53002,126461,5
52993,126423,5
53133,126415,4
52968,126381,5
52953,126337,5
52913,126293,5
52950,126233,5
52868,126196,4
52847,126164,5
52830,126132,5
52816,126065,5
52777,126032,5
52752,125988,5
52728,125940,4
52696,125788,5
52666,125834,5
52646,125789,4
52613,125738,4
52586,125556,5
52558,125642,5
52542,125591,5
52498,125535,4
52478,125408,5
52426,125394,5
52374,125294,5
52312,125178,5
52256,125166,4
52184,124970,5
52125,124841,5
52066,124748,5
52014,124799,5
51959,124541,4
51909,124452,5
51860,124374,5
51820,124386,5
51785,124248,5
51751,124191,4
51722,124138,6
51689,124091,4
51657,124025,5
51631,123976,5
51594,123929,4
51571,123895,5
51563,123858,5
51548,123824,5
51530,123804,4
51516,123780,4
51504,123759,5
51491,123740,5
51480,123709,5
51465,123687,4
51449,123650,5
51434,123635,5
51418,123606,5
51412,123573,5
51389,123549,4
51364,123510,5
51355,123487,5
51342,123473,5
51335,123464,5
51333,123461,4
51346,123477,5
51360,123499,6
51364,123493,4
51355,123507,5
51360,123502,4
51378,123518,5
51391,123554,5
51414,123590,5
51423,123633,5
51442,123648,4
51471,123682,5
51478,123715,5
51510,123773,5
51549,123828,4
51575,123882,4
51593,123929,5
51623,123948,5
51637,123982,5
51649,124005,4
51664,124020,5
51675,124030,5
51677,124046,5
51685,124051,5
51675,124052,4
51672,124046,5
51669,124038,5
51665,124045,5
51674,124050,5
51678,124030,4
51666,124035,5
51668,124042,5
51658,124022,5
51661,124025,5
51663,124037,4
51670,124052,5
51683,124053,5
51675,124039,5
51659,124014,5
51641,123978,4
51623,123941,5
51597,123913,5
51578,123873,5
51551,123833,4
51524,123790,4
51498,123746,5
51482,123720,5
51459,123698,5
51459,123685,5
51449,123677,4
51452,123671,5
51448,123661,5
51455,123671,5
51449,123660,4
51441,123663,5
51435,123687,5
51453,123686,5
51461,123716,5
51485,123726,4
51396,123753,5
51513,123769,5
51531,123794,5
51533,123794,5
51405,123808,4
51519,123808,5
51514,123769,5
51497,123758,5
51454,123720,4
51475,123699,4
51458,123687,5
51448,123687,5
51554,123671,5
51446,123666,4
51446,123668,6
51443,123662,3
51577,123653,5
51437,123655,5
51440,123659,4
51447,123669,5
51512,123669,5
51446,123665,5
51450,123666,5
51457,123667,4
51456,123668,5
51457,123682,5
51452,123693,5
51457,123689,5
51466,123610,4
51465,123703,5
51480,123716,5
51481,123732,5
51484,123598,5
51478,123740,4
51490,123757,4
51495,123767,6
51516,123699,4
51531,123824,5
51554,123855,4
51575,123897,5
51598,123995,5
51604,123953,5
51634,124000,4
51668,124051,5
51692,124250,5
51732,124174,5
51770,124241,5
51801,124281,4
51830,124428,5
51863,124388,5
51895,124459,5
51939,124539,5
51989,124649,4
52032,124700,5
52065,124769,5
52115,124832,5
52145,124898,5
52195,124963,4
52227,125021,5
52259,125095,5
52278,125135,6
52308,125178,4
52331,125224,4
52366,125267,5
52376,125300,5
52407,125343,5
52425,125385,4
52456,125437,4
52487,125484,5
52509,125507,5
52517,125545,5
52548,125591,4
52577,125654,5
52607,125709,5
52634,125741,5
52649,125761,5
52638,125750,4
52639,125748,5
52632,125721,5
52633,125735,5
52627,125731,5
52629,125733,5
52631,125740,4
52637,125732,5
52637,125732,5
52629,125734,6
52648,125746,3
52649,125766,5
52660,125787,5
52675,125793,5
52678,125815,4
52689,125833,4
52699,125862,5
52720,125894,5
52736,125916,5
52751,125940,4
52763,125958,5
52768,125976,5
52776,126002,5
52797,126026,5
52808,126040,4
52821,126063,5
52835,126084,5
52839,126104,5
52856,126133,5
52858,126145,4
52880,126170,6
52882,126177,4
52897,126195,5
52909,126202,5
52918,126230,6
52924,126247,3
52931,126284,5
52953,126310,5
52974,126327,5
52982,126353,4
52991,126369,5
53005,126385,5
52996,126393,5
53016,126405,4
53013,126400,4
53007,126402,5
52989,126357,5
52971,126331,5
52962,126302,4
52932,126265,5
52927,126252,5
52928,126261,5
52941,126267,5
52927,126289,4
52968,126315,5
52967,126350,6
52998,126372,4
52921,126416,5
53029,126444,4
53044,126475,5
53073,126518,5
52963,126556,5
53117,126591,5
53129,126608,4
53129,126634,5
53094,126639,5
53153,126663,5
53167,126688,5
53182,126732,4
53301,126772,5
53221,126791,5
53223,126783,5
53223,126786,4
53364,126770,4
53204,126758,5
53202,126751,5
53196,126753,5
53272,126731,4
53182,126734,5
53186,126722,5
53174,126715,6
53194,126700,4
53166,126702,4
53161,126686,5
53161,126681,5
53159,126607,5
53165,126688,5
53165,126681,4
53154,126684,5
53163,126575,5
53179,126727,5
53197,126750,5
53201,126770,4
53225,126700,5
53235,126828,5
53267,126876,5
53303,126940,5
53344,127112,4
53406,127157,5
53482,127291,5
53560,127432,5
53645,127726,5
53726,127728,4
53815,127897,5
53920,128074,5
54009,128331,6
54099,128383,3
54173,128525,5
54252,128650,5
54323,128803,5
54381,128911,5
54449,129007,4
54503,129108,5
54545,129166,5
54574,129228,5
54609,129286,5
54653,129358,4
54698,129451,5
54747,129531,5
54799,129598,5
54821,129661,5
54850,129702,4
54851,129706,5
54855,129679,5
54817,129629,5
54796,129587,5
54754,129522,5
54727,129473,4
54701,129440,5
54669,129383,5
54642,129329,4
54615,129277,4
54581,129233,5
54563,129215,5
54560,129205,5
54561,129209,4
54574,129222,5
54587,129250,5
54598,129261,5
54596,129264,5
54614,129298,4
54643,129355,5
54683,129419,5
54727,129506,5
54795,129616,5
54843,129705,4
54910,129809,5
54965,129918,5
55031,130049,5
55109,130174,5
55162,130262,4
55193,130302,6
55205,130332,4
55213,130334,5
55206,130335,5
55215,130334,4
55219,130346,5
55234,130362,5
55239,130375,5
55250,130392,4
55254,130422,5
55260,130433,5
55287,130460,5
55303,130495,5
55326,130539,4
55348,130568,5
55365,130612,5
55393,130654,5
55420,130696,5
55447,130758,4
55481,130799,5
55499,130854,5
55538,130904,5
55567,130975,5
55622,131067,4
55674,131132,5
55705,131178,6
55705,131190,4
55704,131190,5
55716,131214,4
55728,131232,5
55733,131234,7
55737,131235,3
55735,131226,4
55723,131218,4
55710,131208,5
55722,131224,5
55747,131251,5
55775,131304,4
55807,131375,5
55761,131431,5
55894,131511,5
55941,131592,5
55994,131690,4
55923,131825,5
56147,131955,5
56216,132087,5
56285,132202,5
56267,132321,4
56419,132463,5
56496,132582,5
56586,132759,5
56765,132914,5
56798,133094,4
56883,133263,5
56993,133446,5
57243,133606,5
57176,133768,5
57275,133915,4
57348,134065,5
57527,134208,5
57509,134331,5
57576,134437,4
57622,134517,4
57709,134609,5
57731,134705,5
57785,134791,5
57828,134868,4
57856,134862,5
57906,135010,5
57948,135084,5
57982,135147,5
58031,135078,5
58070,135294,4
58125,135381,5
58185,135486,5
58207,135375,5
58209,135522,9
58218,135531,5
58243,135580,5
58261,135672,5
58352,135753,10
58352,135753,9
58360,135802,10
58390,135858,5
58434,136060,5
58598,136198,10
58598,136198,5
58619,136241,5
58658,136297,3
58671,136343,0
58705,136391,4
58724,136432,4
58748,136464,7
58767,136491,3
58782,136529,5
58798,136539,5
58803,136556,4
58802,136564,5
58801,136565,5
58799,136551,5
58804,136536,5
58788,136525,4
58783,136524,5
58774,136503,5
58762,136486,5
