RED,IR,EKG,TIME
42805,103147,9
42799,103149,5
42803,103163,5
42815,103214,8
42838,103252,7
42834,103219,9
42793,103155,10
42793,103155,5
42810,103165,8
42824,103215,7
42832,103220,9
42800,103151,10
42800,103151,9
42791,103144,10
42800,103165,5
42801,103156,5
42738,103019,10
42738,103019,5
42735,103002,5
42733,103035,10
42741,103026,5
42743,103032,7
42731,103009,8
42731,103009,5
42764,103049,7
42745,103040,8
42738,103010,5
42722,102990,7
42702,102965,8
42649,102939,5
42696,102942,7
42696,102942,8
42693,102929,5
42679,102931,7
42709,102928,8
42688,102944,5
42741,102964,7
42652,102845,8
42652,102845,5
42669,102802,7
42631,102810,8
42624,102801,5
42638,102852,7
42696,102854,8
42646,102844,7
42629,102808,8
42629,102808,5
42640,102816,7
42652,102822,8
42648,102827,5
42602,102758,7
42583,102719,8
42550,102591,5
42413,102338,7
42413,102338,8
42351,102229,5
42325,102201,7
42336,102254,8
42355,102234,5
42362,102252,7
42434,102394,8
42434,102394,5
42433,102420,7
42422,102402,8
42415,102363,7
42407,102336,5
42391,102311,7
42291,102096,7
42291,102096,7
42273,102079,8
42270,102090,7
42293,102088,5
42291,102109,8
42278,102090,7
42289,102105,5
42311,102146,8
42311,102146,7
42288,102080,3
42252,102029,5
42246,102050,5
42254,102041,5
42250,102036,4
42264,102050,5
42269,102089,5
42280,102112,5
42275,102072,4
42257,102042,5
42256,102037,5
42243,102022,5
42228,101994,7
42217,101967,3
42197,101915,4
42192,101898,5
42159,101826,5
42100,101713,6
42059,101635,3
42061,101644,5
42073,101651,5
42067,101671,5
42072,101684,5
42105,101745,4
42107,101747,5
42113,101760,5
42129,101781,5
42151,101821,5
42156,101836,4
42157,101851,5
42165,101880,5
42194,101923,5
42196,101931,4
42201,101938,4
42203,101940,5
42199,101931,5
42204,101943,5
42215,101969,4
42224,102015,6
42259,102079,4
42274,102094,5
42277,102101,5
42274,102095,4
42277,102096,5
42264,102069,5
42249,102056,5
42254,102059,5
42259,102074,4
42260,102059,5
42248,102039,5
42231,102006,5
42215,101961,5
42172,101883,4
42148,101828,5
42127,101786,5
42130,101793,5
42113,101747,5
42079,101677,4
42061,101651,5
42031,101592,5
42008,101541,5
41994,101498,4
41983,101481,5
41983,101480,6
41941,101476,4
41975,101460,5
41959,101430,4
41927,101390,5
41849,101297,5
41873,101247,5
41869,101244,5
41865,101242,4
41838,101228,5
41843,101188,5
41821,101155,5
41804,101126,5
41837,101126,4
41823,101159,5
41847,101209,5
41876,101265,5
41918,101224,5
41833,101168,4
41812,101118,5
41799,101078,5
41820,101085,5
41808,101144,4
41843,101220,4
41880,101265,5
41890,101272,6
41873,101265,4
41890,101270,4
41873,101264,5
41894,101276,5
41918,101364,5
41952,101425,5
41958,101424,4
41950,101349,5
41927,101374,5
41931,101376,5
41925,101375,5
41943,101368,4
41967,101476,5
41994,101501,5
41983,101490,5
41981,101489,5
41968,101478,4
41965,101446,5
41960,101433,5
41956,101492,5
41974,101465,5
41977,101453,4
41962,101423,5
41942,101455,5
41936,101398,5
41938,101409,4
41956,101431,5
41955,101471,5
41962,101455,5
41953,101433,8
41957,101441,7
41983,101483,9
42030,101572,10
42030,101572,9
42010,101545,10
42011,101561,9
42011,101561,8
42052,101624,7
42010,101550,13
42010,101550,5
42040,101640,5
42074,101718,8
42111,101755,7
42121,101767,9
42114,101758,10
42114,101758,5
42121,101756,5
42129,101762,10
42122,101746,5
42107,101731,7
42091,101694,8
42095,101700,5
42161,101844,7
42161,101844,8
42161,101895,5
42179,101861,7
42158,101841,8
42154,101848,5
42166,101864,7
41989,101455,8
41989,101455,5
41927,101380,7
41917,101314,8
41918,101343,9
41926,101347,8
41926,101347,5
41974,101451,7
42057,101584,8
42070,101650,5
42072,101619,7
42020,101562,8
42028,101537,5
41968,101428,7
41968,101428,8
41987,101466,9
41993,101486,5
41995,101503,8
42003,101541,7
42044,101640,5
42253,102054,8
42253,102054,7
42304,102179,8
42320,102191,5
42335,102199,7
42331,102225,5
42343,102295,8
42376,102287,7
42376,102287,5
42391,102372,8
42430,102475,7
42517,102615,5
42589,102779,8
42653,102907,7
42651,102876,5
42731,102945,8
42731,102945,7
42683,102991,8
42713,103035,7
42749,103079,7
42717,103001,8
42717,103001,7
42720,103019,5
42726,102985,8
42710,102952,7
42698,102940,5
42779,103053,8
42766,103094,7
42723,102964,7
42723,102964,10
42621,102814,5
42629,102814,5
42622,102821,10
42622,102817,5
42609,102816,5
42803,103191,7
42803,103191,0
42803,103191,2
42866,103287,5
42882,103322,5
42858,103288,5
42765,103059,4
42717,102977,5
42693,102960,6
42702,102992,4
42720,103017,5
42762,103122,4
42787,103130,5
42759,103066,5
42720,102983,5
42705,102976,5
42711,103001,4
42726,103016,5
42742,103061,5
42787,103172,5
42822,103230,5
42858,103302,4
42860,103317,5
42799,103166,5
42735,103041,5
42721,103028,4
42748,103094,4
42793,103173,5
42834,103259,5
42863,103307,5
42859,103292,4
42857,103288,5
42848,103269,5
42842,103270,6
42817,103200,4
42796,103179,4
42799,103175,5
42798,103177,5
42791,103170,5
42797,103174,5
42811,103199,4
42825,103258,5
42836,103249,5
42823,103226,5
42798,103152,5
42771,103077,4
42689,102930,5
42631,102806,5
42601,102787,5
42621,102832,4
42671,102904,4
42695,102981,5
42713,103003,5
42715,102985,5
42649,102816,5
42560,102644,4
42473,102482,5
42437,102433,5
42460,102510,6
42516,102637,3
42561,102733,5
42603,102791,5
42586,102707,5
42520,102611,5
42507,102571,4
42502,102573,5
42524,102639,5
42564,102706,5
42588,102748,5
42615,102822,4
42646,102859,5
42590,102722,5
42515,102568,5
42465,102472,5
42432,102420,4
42436,102438,5
42441,102462,5
42458,102477,5
42457,102474,4
42459,102484,5
42457,102463,4
42447,102455,5
42466,102510,5
42502,102601,6
42568,102716,3
42608,102822,5
42607,102786,5
42566,102683,5
42524,102590,4
42508,102562,5
42486,102598,5
42520,102603,5
42506,102584,5
42516,102610,4
42469,102569,5
42489,102536,5
42472,102498,5
42450,102460,5
42422,102480,4
42448,102441,5
42387,102295,5
42302,102122,5
42235,101932,4
42155,101815,4
42120,101759,6
42103,101730,4
42148,101704,5
42029,101540,4
41929,101334,5
41849,101180,5
41867,101155,5
41857,101242,5
41918,101377,4
41978,101530,5
42080,101670,5
42091,101723,5
42111,101743,5
42117,101759,4
42122,101741,5
42117,101756,5
42134,101786,5
42133,101813,5
42161,101830,4
42162,101854,5
42151,101832,5
42142,101820,5
42147,101786,5
42140,101809,4
42141,101824,5
42145,101828,6
42173,101890,4
42182,101903,4
42180,101884,5
42155,101851,5
42135,101813,5
42088,101700,5
42068,101638,4
42061,101644,5
42074,101734,5
42103,101724,5
42121,101767,5
42131,101818,4
42157,101866,5
42164,101844,5
42163,101844,5
42157,101854,5
42172,101893,4
42176,101866,5
42148,101817,5
42134,101792,5
42111,101737,5
42059,101622,4
42014,101537,5
41987,101503,5
41973,101480,6
41926,101328,3
41860,101176,4
41794,101065,5
41770,100998,5
41735,100952,5
41734,100953,4
41740,100973,5
41758,101033,5
41789,101077,5
41810,101131,5
41841,101200,4
41857,101200,5
41834,101155,5
41821,101134,5
41829,101148,5
41841,101185,4
41844,101179,5
41838,101178,5
41848,101169,5
41837,101175,5
41837,101169,5
41828,101124,4
41807,101101,5
41820,101129,5
41829,101147,5
41831,101166,4
41865,101257,5
41912,101327,5
41923,101351,5
41927,101383,4
41944,101389,5
41951,101432,5
41957,101431,5
41947,101408,5
41924,101349,4
41882,101268,5
41853,101198,5
41831,101156,5
41839,101174,5
41856,101225,4
41864,101240,5
41877,101259,5
41901,101321,5
41922,101336,5
41900,101305,4
41884,101268,6
41874,101272,4
41903,101307,5
41896,101322,5
41880,101288,4
41878,101255,5
41862,101221,5
41849,101200,5
41852,101221,4
41871,101272,4
41906,101349,5
41936,101390,5
41942,101384,5
41923,101373,4
41914,101321,5
41866,101217,5
41828,101148,5
41819,101154,5
41819,101151,4
41823,101166,5
41850,101251,5
41891,101328,5
41914,101362,5
41923,101389,4
41923,101381,5
41932,101381,6
41916,101356,4
41854,101282,5
41859,101239,4
41842,101186,5
41804,101091,5
41722,101051,5
41760,101064,4
41795,101105,4
41817,101161,5
41829,101217,5
41867,101278,5
41867,101253,4
41843,101207,5
41848,101161,5
41817,101183,5
41827,101193,5
41845,101221,5
41893,101227,4
41837,101199,5
41815,101147,5
41801,101121,6
41824,101114,3
41801,101124,5
41802,101133,5
41805,101129,5
41811,101120,5
41776,101048,4
41757,101015,5
41751,101018,5
41764,101028,5
41799,101109,5
41823,101193,4
41843,101216,5
41858,101208,5
41864,101242,5
41853,101237,4
41856,101260,5
41887,101287,5
41919,101397,5
41949,101434,5
41947,101417,5
41932,101393,4
41883,101253,5
41804,101122,5
41771,101066,5
41783,101122,5
41791,101113,4
41801,101137,5
41825,101175,5
41828,101227,5
41826,101173,4
41831,101179,5
41833,101193,5
41840,101238,5
41857,101249,5
41873,101258,4
41870,101270,5
41870,101273,5
41862,101235,5
41854,101228,4
41857,101241,4
41892,101313,5
41901,101334,5
41903,101345,5
41907,101352,4
41904,101285,5
41853,101206,5
41830,101193,5
41835,101205,5
41861,101240,4
41883,101293,6
41907,101336,4
41927,101377,5
41936,101397,5
41938,101412,4
41960,101457,5
41967,101480,5
41980,101486,5
41964,101464,5
41963,101460,4
41960,101471,5
41956,101461,5
41973,101491,5
41978,101494,4
41991,101511,4
41987,101488,5
41945,101394,5
41906,101348,5
41892,101320,4
41895,101317,5
41920,101381,5
41957,101477,6
42011,101586,4
42047,101666,4
42074,101702,5
42081,101733,5
42110,101749,5
42099,101764,5
42102,101756,4
42117,101773,5
42097,101743,5
42067,101663,5
42027,101572,5
41993,101466,4
41932,101385,5
41939,101385,5
41936,101428,5
41966,101492,5
41998,101543,4
42023,101574,5
42022,101578,5
42029,101573,5
42021,101588,5
42039,101628,4
42081,101701,5
42105,101747,5
42106,101756,6
42113,101736,3
42088,101663,5
42050,101626,5
42052,101630,5
42073,101667,5
42100,101725,4
42116,101771,5
42138,101804,5
42139,101781,5
42100,101735,5
42105,101723,4
42108,101754,5
42139,101810,5
42153,101839,5
42169,101881,5
42212,101968,4
42245,102020,5
42233,102027,5
42277,102099,5
42319,102181,4
42348,102245,5
42332,102286,4
42347,102213,5
42321,102181,5
42294,102104,6
42223,102079,3
42274,102078,5
42286,102146,5
42320,102191,5
42348,102252,4
42364,102287,5
42394,102342,5
42413,102379,5
42480,102424,5
42448,102459,4
42469,102492,5
42475,102474,5
42520,102504,5
42495,102579,5
42536,102650,4
42572,102710,5
42617,102757,5
42618,102787,5
42629,102811,4
42642,102822,4
42596,102688,6
42530,102557,4
42476,102474,5
42449,102436,4
42449,102414,5
42476,102519,5
42526,102606,5
42578,102715,5
42586,102670,4
42584,102695,5
42534,102588,5
42495,102513,5
42474,102453,5
42461,102455,4
42473,102464,5
42475,102490,5
42483,102523,5
42475,102481,5
42483,102496,4
42505,102560,5
42531,102670,5
42567,102690,5
42586,102681,5
42536,102586,4
42489,102505,5
42440,102401,6
42402,102333,4
42408,102351,4
42425,102379,5
42455,102452,5
42484,102488,5
42482,102488,5
42476,102462,4
42417,102297,5
42324,102165,5
42295,102120,5
42279,102070,5
42263,102037,4
42246,102035,5
42234,101996,5
42201,101861,5
42087,101635,5
42016,101519,4
41986,101453,5
41965,101410,5
41957,101387,5
41953,101368,5
41922,101314,4
41885,101255,5
41883,101262,5
41912,101311,6
41944,101399,3
42007,101556,4
42078,101666,5
42124,101766,5
42152,101805,5
42164,101850,4
42184,101913,5
42233,101985,5
42278,102079,5
42324,102176,5
42344,102194,4
42323,102136,5
42276,102041,5
42223,101932,5
42177,101834,5
42140,101766,4
42131,101775,5
42146,101801,5
42145,101799,5
42133,101750,5
42111,101692,5
42072,101629,4
42052,101596,5
42056,101621,5
42090,101678,6
42112,101746,3
42139,101774,5
42136,101772,5
42124,101743,5
42086,101641,4
42016,101517,5
42001,101492,5
42011,101509,5
42019,101549,5
42045,101612,4
42106,101753,5
42160,101838,5
42162,101822,5
42144,101785,5
42127,101762,4
42130,101764,5
42125,101748,5
42126,101723,5
42092,101684,5
42095,101682,4
42090,101671,6
42061,101619,4
42050,101597,5
42063,101619,5
42063,101644,4
42083,101678,5
42104,101720,5
42112,101741,5
42113,101735,4
42106,101726,4
42104,101723,5
42117,101733,5
42112,101751,5
42086,101760,4
42142,101791,5
42143,101792,5
42142,101786,5
42090,101752,5
42096,101694,4
42092,101697,5
42081,101646,5
42035,101619,5
42037,101582,5
42015,101527,4
42002,101485,5
42010,101497,6
41992,101504,4
42015,101541,5
42015,101535,4
42065,101528,5
42017,101545,5
42050,101593,5
42062,101623,4
42083,101564,4
42014,101513,5
42007,101509,5
42003,101499,5
41997,101452,4
41963,101428,5
41954,101398,5
41934,101364,5
41918,101321,5
41928,101344,4
41955,101421,5
41990,101496,5
42026,101536,5
42048,101615,5
42063,101611,4
42018,101536,5
41973,101374,5
41945,101393,6
41949,101410,4
41967,101445,5
41977,101476,4
41981,101492,5
41992,101488,5
41978,101454,5
41968,101485,4
41952,101408,5
41950,101409,5
41935,101396,5
41923,101434,4
41931,101396,5
41947,101413,5
41948,101409,5
41940,101442,5
41942,101397,4
41951,101410,5
41940,101381,5
41935,101390,5
41946,101430,5
41965,101460,5
41963,101468,4
41992,101525,5
42017,101567,5
42041,101630,5
42050,101656,4
42065,101660,5
42059,101672,5
42086,101684,5
42055,101652,5
42050,101641,4
42038,101632,5
42057,101651,5
42057,101668,5
42058,101675,4
42063,101640,4
42027,101551,5
41976,101457,5
41944,101411,5
41925,101365,4
41914,101357,5
41916,101351,5
41905,101345,5
41930,101406,5
41961,101454,4
41953,101442,6
41975,101446,4
41953,101416,5
41951,101432,5
41966,101443,4
41968,101452,5
41977,101473,5
41974,101462,5
41952,101420,5
41938,101407,4
41943,101429,5
41973,101468,5
41988,101503,5
41977,101473,4
41946,101405,4
41934,101375,5
41919,101333,5
41891,101281,5
41879,101268,4
41899,101305,5
41919,101337,5
41931,101372,5
41950,101426,5
41976,101487,4
41993,101502,8
41993,101497,3
41997,101471,4
41987,101486,5
41979,101467,4
41973,101458,5
41985,101477,5
41983,101486,5
41971,101460,5
41971,101466,4
41982,101470,5
41998,101508,5
42000,101528,5
42000,101526,5
42008,101538,4
42020,101550,5
42011,101545,5
42012,101534,5
42014,101544,4
42023,101553,5
42011,101540,5
42000,101533,5
42010,101534,5
42007,101530,4
42012,101528,5
42003,101545,5
41995,101522,5
42009,101541,5
41995,101522,4
41989,101502,5
41959,101526,5
41999,101521,5
42007,101530,5
42009,101555,4
41976,101588,5
42045,101633,5
42050,101620,5
42033,101598,5
42015,101532,4
41961,101424,5
41920,101347,5
41892,101305,5
41916,101273,4
41864,101224,4
41814,101123,5
41759,101006,5
41783,100957,5
41732,100952,5
41729,100953,3
41730,100945,5
41747,100953,5
41741,100959,5
41727,100935,4
41715,100923,5
41726,100924,5
41712,100921,5
41712,100918,5
41713,100924,4
41713,100890,5
41718,100917,5
41708,100910,5
41701,100903,5
41703,100846,4
41691,100858,5
41663,100800,5
41630,100734,5
41619,100680,4
41607,100672,4
41599,100648,6
41568,100603,4
41559,100613,5
41548,100538,4
41536,100523,7
41529,100538,3
41540,100624,5
41557,100582,5
41568,100591,4
41559,100591,5
41563,100636,5
41567,100597,5
41569,100592,5
41556,100597,4
41583,100663,5
41593,100658,5
41596,100675,5
41607,100708,5
41634,100719,4
41618,100706,5
41615,100705,5
41616,100724,5
41648,100785,5
41662,100805,4
41668,100822,5
41693,100878,6
41707,100887,4
41696,100880,4
41693,100881,4
41704,100893,5
41700,100895,5
41704,100878,5
41691,100841,4
41665,100823,5
41670,100812,5
41662,100805,5
41658,100810,5
41663,100818,4
41679,100862,5
41692,100859,5
41680,100847,5
41683,100864,5
41691,100850,4
41674,100816,5
41658,100809,5
41660,100810,5
41671,100836,5
41663,100829,4
41665,100813,5
41664,100809,5
41658,100798,6
41649,100771,3
41635,100767,4
41644,100790,5
41660,100821,5
41671,100830,5
41663,100820,4
41655,100793,5
41620,100710,5
41582,100628,5
41563,100583,5
41558,100598,4
41565,100605,5
41566,100612,5
41567,100606,5
41566,100600,5
41558,100591,4
41557,100587,5
41550,100592,5
41571,100629,5
41570,100620,5
41563,100616,5
41570,100606,4
41560,100582,5
41538,100548,5
41520,100515,6
41511,100515,3
41533,100556,5
41550,100594,5
41555,100595,5
41544,100550,4
41512,100477,5
41478,100439,5
41472,100405,5
41475,100411,5
41474,100413,4
41495,100448,5
41503,100458,5
41494,100465,5
41511,100474,5
41505,100461,4
41491,100449,5
41505,100461,5
41512,100512,5
41555,100582,5
41528,100600,4
41563,100603,6
41576,100608,4
41565,100623,5
41538,100640,5
41601,100691,4
41631,100731,5
41630,100720,5
41586,100700,5
41607,100687,4
41602,100694,4
41614,100699,5
41659,100763,5
41671,100843,5
41719,100942,4
41746,100974,5
41769,100941,5
41700,100906,5
41705,100878,5
41694,100883,4
41757,100942,5
41754,101021,5
41758,101025,5
41750,100989,5
41733,100921,4
41701,100879,5
41686,100871,6
41710,100904,4
41714,100929,5
41743,100992,4
41755,101019,5
41767,101023,5
41769,100994,5
41758,101030,4
41776,101048,4
41800,101111,5
41831,101147,5
41858,101223,5
41851,101204,4
41827,101163,5
41807,101121,4
41787,101066,5
41781,101078,5
41790,101097,4
41818,101175,5
41822,101153,5
41836,101166,5
41840,101191,5
41847,101252,4
41852,101209,5
41880,101276,5
41918,101371,6
41964,101447,4
41965,101461,4
41982,101486,5
42003,101531,5
42012,101543,5
42027,101575,4
42044,101640,4
42094,101730,5
42123,101758,5
42122,101760,5
42112,101749,4
42114,101749,5
42125,101764,5
42130,101788,5
42129,101791,5
42148,101813,4
42157,101844,5
42177,101919,5
42219,101974,5
42221,101983,5
42229,102002,5
42247,102034,4
42273,102100,5
42288,102100,5
42288,102111,5
42291,102125,4
42296,102128,5
42299,102128,5
42308,102153,5
42316,102188,5
42333,102188,4
42326,102185,5
42308,102150,5
42299,102118,5
42272,102057,4
42258,102045,4
42284,102104,5
42311,102142,5
42317,102150,5
42318,102140,4
42299,102110,5
42276,102051,5
42252,102026,5
42276,102088,5
42311,102152,4
42353,102248,6
42377,102297,4
42401,102331,5
42403,102346,5
42421,102353,4
42417,102349,5
42426,102396,5
42457,102452,5
42478,102470,5
42480,102491,4
42486,102525,5
42511,102550,5
42507,102553,5
42508,102558,4
42536,102624,4
42580,102721,5
42606,102733,5
42606,102720,5
42575,102688,4
42556,102644,5
42536,102622,5
42560,102654,5
42573,102694,5
42613,102769,4
42637,102812,5
42650,102819,6
42651,102805,4
42634,102804,5
42629,102787,4
42644,102834,5
42679,102915,5
42737,103018,5
42767,103076,5
42777,103087,4
42769,103079,5
42767,103066,5
42753,103096,5
42803,103136,5
42816,103173,4
42822,103191,5
42793,103194,5
42802,103138,5
42792,103116,4
42779,103101,5
42733,103087,5
42784,103117,5
42808,103170,5
42818,103190,4
42823,103200,5
42832,103193,5
42823,103172,5
42826,103195,5
42880,103244,4
42885,103326,5
42920,103403,5
42935,103406,5
42969,103369,5
42885,103307,4
42847,103226,5
42811,103126,5
42825,103107,5
42786,103100,5
42794,103105,4
42769,103059,5
42744,103001,5
42719,102944,5
42676,102888,4
42660,102849,5
42664,102843,4
42680,102914,5
42704,102946,5
42717,102957,6
42717,102901,3
42694,102893,5
42655,102815,5
42633,102767,5
42621,102744,4
42634,102788,5
42660,102852,5
42662,102849,5
42652,102858,5
42624,102754,4
42585,102677,5
42559,102637,5
42560,102702,5
42557,102634,5
42550,102626,4
42531,102587,5
42520,102598,5
42487,102489,5
42482,102466,4
42470,102468,4
42484,102500,5
42493,102499,5
42486,102477,5
42468,102436,4
42445,102408,6
42432,102397,4
42428,102374,5
42400,102320,5
42392,102300,4
42387,102270,5
42357,102209,5
42319,102152,5
42319,102169,5
42330,102189,4
42341,102206,5
42344,102227,5
42361,102274,5
42373,102284,5
42383,102293,4
42383,102282,5
42376,102272,5
42355,102200,5
42300,102114,5
42262,102026,4
42250,101990,5
42220,101955,5
42203,101890,5
42177,101857,4
42189,101880,5
42210,101957,6
42247,102023,4
42288,102113,5
42342,102208,4
42356,102249,5
42354,102225,5
42338,102174,5
42288,102069,5
42236,101954,4
42150,101781,5
42101,101723,5
42126,101762,5
42152,101823,5
42175,101882,4
42218,101963,5
42237,101981,5
42226,101971,5
42225,101981,5
42254,102035,4
42290,102127,5
42293,102111,5
42272,102072,5
42272,102069,3
42268,102064,4
42271,102068,5
42261,102041,5
42251,102036,5
42260,102066,4
42262,102064,5
42276,102075,5
42281,102085,5
42268,102048,5
42236,101983,4
42203,101915,5
42181,101885,5
42189,101888,5
42178,101868,5
42157,101822,5
42152,101828,4
42161,101848,5
42153,101805,5
42130,101761,5
42130,101767,5
42130,101760,4
42119,101749,5
42098,101731,5
42120,101754,6
42122,101764,3
42121,101777,5
42127,101775,5
42116,101748,5
42112,101722,4
42048,101657,5
42025,101549,5
41996,101490,5
41983,101470,5
41926,101439,4
41964,101432,5
41969,101464,5
42001,101509,5
41974,101558,5
42017,101558,4
42042,101623,5
42054,101626,5
42060,101597,5
42037,101590,5
42045,101608,4
42048,101620,6
42089,101622,4
42060,101664,5
42096,101692,5
42072,101644,6
42075,101593,3
42030,101590,5
42046,101627,5
42057,101642,4
42074,101639,4
42063,101658,5
42088,101699,5
42090,101715,5
42090,101700,4
42111,101746,5
42126,101789,5
42158,101809,5
42145,101800,5
42139,101816,4
42130,101799,5
42125,101768,5
42113,101700,5
42110,101747,5
42118,101759,4
42107,101737,5
42072,101665,6
42045,101613,4
42026,101559,5
42008,101510,4
42004,101578,5
42026,101575,5
42067,101650,5
42078,101672,4
42075,101737,4
42080,101681,5
42069,101652,5
42058,101643,5
42063,101662,4
42058,101630,5
42049,101604,5
42024,101548,5
41986,101458,5
41961,101420,4
41941,101362,5
41905,101314,5
41895,101288,5
41913,101324,5
41928,101374,4
41948,101397,5
41946,101403,5
41960,101406,6
41929,101332,4
41894,101269,4
41868,101220,5
41869,101220,5
41870,101211,5
41855,101181,5
41850,101190,4
41849,101188,5
41845,101160,5
41829,101138,5
41815,101104,4
41815,101106,5
41802,101073,5
41767,101005,5
41736,100947,5
41713,100878,4
41686,100821,5
41672,100815,5
41670,100790,5
41671,100806,5
41659,100770,5
41648,100753,4
41632,100733,5
41610,100668,5
41567,100575,6
41540,100494,3
41507,100451,5
41506,100436,5
41469,100358,5
41433,100297,5
41420,100280,4
41414,100259,5
41397,100231,5
41397,100222,5
41382,100183,4
41370,100144,4
41331,100071,5
41289,100007,5
41280,99984,5
41252,99925,4
41237,99874,5
41215,99834,5
41194,99811,5
41165,99745,5
41141,99683,4
41119,99632,6
41110,99614,4
41088,99566,5
41068,99522,5
41038,99449,4
41017,99418,5
40982,99327,5
40941,99240,5
40918,99187,5
40874,99093,4
40824,99002,5
40802,98953,5
40789,98931,5
40783,98901,4
40751,98839,4
40733,98795,5
40728,98764,5
40699,98708,5
40668,98625,4
40631,98577,5
40611,98538,5
40588,98463,5
40540,98398,5
40536,98372,4
40523,98332,5
40519,98309,6
40480,98298,4
40507,98315,5
40520,98296,4
40496,98262,5
40442,98222,5
40466,98202,5
40458,98188,5
40447,98164,4
40427,98143,5
40457,98153,5
40439,98126,5
40419,98100,5
40441,98074,4
40407,98059,5
40399,98051,5
40402,98051,5
40464,98107,4
40448,98147,4
40453,98157,5
40447,98148,5
40477,98146,5
40441,98118,4
40428,98097,5
40418,98070,5
40425,98101,6
40434,98112,4
40429,98102,4
40423,98085,5
40393,98003,5
40369,97965,5
40349,97929,5
40355,97967,4
40381,97975,5
40399,98053,5
40400,98038,5
40395,98008,5
40379,97961,4
40377,97980,5
40375,98008,5
40411,98055,5
40435,98145,4
40448,98163,4
40465,98169,5
40467,98178,5
40467,98219,5
40474,98221,5
40520,98343,4
40586,98475,5
40643,98605,5
40653,98587,5
40651,98590,4
40645,98588,5
40654,98609,5
40676,98637,5
40726,98775,5
40783,98900,4
40840,98983,5
40850,99033,5
40859,99039,5
40862,99047,5
40872,99118,4
40947,99270,5
41023,99455,5
41096,99587,5
41115,99601,4
41123,99612,4
41130,99621,5
41143,99654,5
41161,99690,5
41186,99763,4
41216,99812,6
41238,99847,4
41238,99846,5
41243,99867,5
41264,99910,4
41265,99906,5
41272,99946,5
41304,99985,5
41311,100005,5
41292,99960,4
41251,99874,5
41210,99779,5
41182,99738,5
41163,99703,5
41168,99714,4
41180,99736,5
41180,99744,5
41173,99716,5
41156,99677,5
41121,99612,4
41089,99538,5
41073,99517,5
41072,99523,5
41073,99537,4
41077,99525,4
41068,99492,6
41045,99443,4
41043,99415,5
41030,99405,4
41029,99408,5
41032,99430,5
41040,99423,5
41030,99420,5
41021,99412,4
41023,99397,5
41012,99387,5
41012,99399,5
41023,99408,5
41038,99443,4
41035,99438,5
41023,99425,5
41019,99419,5
41031,99413,5
41018,99410,4
41029,99441,5
41041,99481,5
41074,99526,5
41072,99532,4
41071,99525,4
41052,99485,5
41024,99433,5
41014,99411,5
41021,99421,4
41036,99463,5
41054,99482,5
41059,99482,5
41045,99442,5
41021,99397,4
40993,99337,5
40978,99317,5
40985,99341,5
41011,99396,5
41013,99415,4
41023,99461,5
41060,99507,5
41080,99557,5
41117,99662,5
41163,99831,4
41269,99979,5
41331,100075,5
41360,100141,5
41347,100217,5
41420,100290,4
41447,100363,5
41514,100528,5
41633,100722,5
41688,100839,4
41696,100859,5
41694,100845,5
41731,100862,5
41703,100875,5
41741,100958,4
41807,101110,5
41923,101291,5
41951,101406,5
41977,101446,5
41973,101438,4
41985,101431,5
41961,101412,5
41960,101436,5
41998,101522,5
42041,101585,4
42059,101630,5
42060,101644,5
42070,101664,5
42090,101656,5
42119,101757,5
42157,101871,4
42215,102010,5
42264,102028,5
42274,102095,4
42283,102129,4
42305,102162,5
42308,102176,5
42309,102194,5
42335,102247,4
42367,102300,5
42397,102398,5
42401,102384,5
42415,102403,5
42416,102396,4
42386,102391,5
42381,102319,5
42387,102338,5
42392,102352,5
42380,102340,4
42355,102271,5
42341,102228,6
42323,102209,4
42309,102215,5
42344,102284,4
42366,102336,5
42398,102375,5
42400,102391,5
42424,102414,4
42436,102455,4
42436,102480,5
42451,102503,5
42495,102580,5
42495,102577,4
42491,102531,5
42455,102490,5
42447,102460,5
42431,102444,5
42430,102440,4
42431,102435,5
42434,102449,5
42429,102436,5
42406,102377,5
42362,102294,4
42330,102216,5
42284,102126,5
42265,102075,6
42251,102072,4
42239,102064,4
42234,102046,5
42222,102007,5
42198,101952,5
42182,101944,5
42178,101919,4
42165,101892,5
42169,101881,5
42148,101856,5
42127,101807,4
42107,101765,5
42097,101749,5
42087,101749,5
42083,101711,5
42063,101671,4
42054,101657,5
42043,101639,5
42021,101565,5
42002,101528,5
41977,101479,5
41949,101438,4
41938,101423,5
41941,101425,5
41953,101428,6
41942,101412,3
41911,101330,5
41877,101261,5
41818,101145,5
41777,101041,5
41745,100968,4
41716,100933,5
41715,100902,5
41695,100873,5
41675,100821,4
41625,100735,4
41587,100612,5
41531,100520,5
41501,100461,5
41491,100478,4
41508,100495,5
41523,100508,5
41510,100479,5
41497,100439,5
41468,100379,4
41440,100321,6
41409,100268,4
41417,100292,5
41417,100275,5
41407,100270,6
41403,100249,3
41383,100214,5
41378,100195,8
41382,100222,2
41371,100231,4
41413,100277,5
41409,100257,5
41382,100251,5
41401,100244,5
41398,100228,4
41392,100212,5
41350,100216,5
41391,100240,5
41418,100288,4
41430,100316,5
41425,100322,5
41427,100322,5
41429,100325,5
41439,100342,4
41475,100347,5
41440,100342,6
41449,100352,4
41430,100330,5
41469,100305,4
41408,100254,5
41379,100192,5
41344,100135,5
41348,100084,5
41299,100050,4
41290,100025,5
41285,99981,5
41253,99910,5
41222,99869,5
41198,99816,4
41178,99777,5
41160,99726,5
41153,99752,5
41161,99750,4
41158,99746,4
41146,99671,5
41111,99627,5
41053,99513,5
41012,99427,5
41002,99350,4
40989,99377,5
40969,99322,6
40932,99230,4
40893,99166,4
40863,99093,5
40827,99003,5
40787,98908,5
40732,98842,5
40711,98744,4
40674,98683,5
40636,98617,5
40623,98607,5
40606,98534,5
40604,98499,4
40590,98477,5
40576,98463,5
40588,98452,5
40571,98432,4
40545,98357,4
40508,98277,5
40472,98175,5
40436,98107,5
40406,98073,5
40397,98062,4
40408,98061,5
40401,98046,5
40383,98028,6
40389,98020,3
40378,98016,5
40378,98000,5
40377,98000,5
40388,98050,5
40410,98068,4
40424,98081,5
40408,98069,5
40398,98031,5
40372,97978,5
40361,97955,4
40348,97937,5
40351,97952,5
40357,97966,5
40377,97974,5
40370,98000,4
40390,98033,5
40413,98056,5
40423,98072,5
40428,98104,4
40456,98172,6
40461,98176,4
40461,98168,5
40456,98168,5
40450,98157,4
40447,98148,5
40462,98169,5
40481,98211,5
40501,98275,5
40518,98307,4
40528,98326,5
40537,98351,5
40544,98351,5
40545,98345,5
40552,98362,4
40559,98402,5
40592,98462,5
40612,98489,5
40617,98498,5
40618,98502,4
40614,98509,5
40625,98533,5
40636,98554,5
40645,98587,4
40678,98649,4
40681,98659,6
40681,98656,4
40694,98694,5
40710,98709,4
40716,98729,5
40734,98770,5
40745,98794,5
40780,98857,5
40785,98874,4
40788,98873,5
40790,98894,5
40786,98890,5
40779,98880,5
40783,98854,4
40776,98852,5
40783,98860,5
40770,98851,5
40767,98853,5
40772,98863,4
40762,98830,5
40762,98806,5
40753,98824,5
40753,98834,5
40762,98846,4
40749,98848,5
40777,98873,6
40792,98880,4
40781,98864,4
40746,98881,5
40787,98880,5
40782,98894,5
40791,98886,5
40750,98859,4
40781,98868,5
40778,98867,5
40772,98865,5
40802,98906,5
40811,98954,4
40832,98990,5
40841,98999,5
40876,99006,5
40858,99023,5
40845,98999,4
40837,98964,5
40867,98969,5
40828,98960,5
40821,98966,5
40826,98957,4
40834,98946,5
40823,98961,5
40812,98935,5
40807,98926,4
40802,98909,4
40798,98899,5
40812,98942,5
40807,98934,5
40794,98873,4
40793,98900,5
40781,98873,5
40766,98854,5
40763,98798,5
40764,98854,4
40776,98875,5
40770,98863,5
40774,98861,5
40784,98899,5
40785,98887,4
40766,98850,6
40748,98828,4
40725,98782,5
40733,98771,5
40716,98746,6
40700,98758,3
40708,98731,5
40725,98745,5
40734,98786,4
40762,98871,4
40797,98924,5
40834,99017,5
40859,99056,5
40887,99129,4
40933,99200,5
40967,99285,5
40991,99332,5
41007,99373,5
41025,99416,4
41039,99455,5
41035,99449,5
41027,99429,5
41037,99446,5
41035,99443,4
41035,99446,5
41043,99449,5
41059,99470,5
41066,99516,5
41072,99511,4
41071,99512,6
41076,99536,4
41065,99503,5
41056,99489,5
41054,99485,4
41060,99482,5
41053,99464,5
41028,99427,5
41019,99392,4
41015,99410,5
41017,99396,5
41026,99418,5
41032,99427,5
41048,99463,4
41052,99472,5
41047,99458,5
41048,99471,5
41054,99476,5
41054,99476,4
41053,99487,5
41059,99501,5
41071,99521,5
41057,99488,5
41059,99482,4
41070,99493,5
41065,99495,5
41057,99483,5
41059,99495,5
41075,99515,4
41089,99539,5
41079,99533,5
41076,99521,5
41067,99523,4
41062,99474,5
41039,99447,5
41040,99464,5
41072,99512,5
41125,99653,4
41174,99774,5
41245,99928,5
41335,100125,5
41433,100348,5
41534,100568,4
41642,100817,5
41765,101066,5
41866,101260,5
41917,101393,5
41976,101491,3
42034,101598,5
42046,101622,5
42048,101611,5
42056,101629,5
42078,101698,4
42090,101719,5
42104,101728,5
42096,101746,5
42096,101740,4
42096,101724,4
42093,101716,5
42100,101742,5
42112,101784,5
42122,101812,4
42137,101799,5
42113,101766,5
42083,101711,5
42031,101674,5
42060,101665,4
42070,101691,6
42071,101688,4
42035,101683,5
42050,101639,5
42038,101610,6
41998,101543,3
41974,101514,5
41977,101506,5
41979,101511,5
41970,101484,4
41977,101432,5
41911,101336,5
41861,101230,5
41820,101158,5
41846,101135,4
41816,101170,5
41825,101202,5
41861,101254,5
41868,101211,4
41826,101175,5
41800,101142,5
41797,101118,5
41799,101125,5
41805,101135,4
41795,101148,5
41810,101134,6
41773,101067,4
41759,101050,5
41748,101020,4
41734,101002,5
41747,100990,5
41775,101087,5
41803,101150,5
41817,101166,4
41814,101111,4
41807,101128,5
41787,101098,5
41779,101079,5
41780,101118,4
41803,101147,5
41816,101161,5
41806,101114,5
41783,101125,4
41755,101034,4
41743,101025,5
41758,101045,5
41766,101116,5
41781,101096,4
41765,101057,5
41754,101057,5
41777,101102,6
41784,101114,4
41786,101124,4
41811,101178,5
41844,101251,5
41869,101262,5
41843,101212,5
41822,101181,4
41816,101163,5
41802,101131,5
41799,101145,5
41808,101159,5
41830,101229,4
41866,101253,5
41861,101273,5
41869,101300,5
41876,101312,4
41888,101324,4
41921,101388,5
41948,101464,5
41983,101505,5
41969,101489,5
41964,101492,4
41971,101509,5
41988,101525,5
41996,101550,6
42015,101590,3
42027,101633,5
42043,101633,5
42038,101635,5
42044,101671,5
42055,101673,4
42053,101668,5
42066,101720,5
42097,101794,5
42133,101833,5
42121,101795,4
42103,101788,5
42115,101790,5
42094,101772,5
42106,101782,5
42115,101819,4
42142,101880,5
42161,101892,5
42144,101862,5
42140,101868,4
42168,101925,5
42176,101921,4
42190,101975,5
42201,102004,5
42231,102054,6
42229,102049,3
42219,102038,5
42248,102082,5
42265,102153,5
42309,102226,4
42360,102355,5
42421,102473,5
42460,102539,5
42462,102530,5
42463,102539,4
42476,102558,5
42480,102557,5
42489,102601,5
42507,102658,5
42550,102716,4
42547,102715,5
42547,102714,5
42550,102726,5
42551,102719,4
42565,102745,4
42591,102830,6
42628,102921,4
42687,103035,5
42709,103088,4
42739,103139,5
42755,103176,5
42766,103189,5
42771,103220,5
42803,103286,4
42851,103381,5
42836,103371,5
42843,103373,5
42870,103408,5
42883,103436,4
42863,103486,5
42948,103593,5
42993,103685,5
43036,103738,5
42987,103724,4
43013,103696,5
43002,103684,6
42997,103663,4
42998,103651,5
42986,103653,4
43001,103672,5
43012,103699,6
43055,103679,4
43005,103668,4
43010,103684,5
43004,103689,5
43056,103696,5
43022,103704,5
43027,103712,4
43010,103685,5
43023,103672,5
42998,103663,5
42981,103631,5
42968,103620,4
42981,103606,5
42974,103614,5
42952,103566,5
42926,103496,5
42896,103405,4
42863,103361,5
42811,103283,5
42803,103262,5
42788,103188,5
42787,103236,4
42769,103185,5
42739,103125,5
42715,103096,6
42712,103078,3
42711,103061,4
42703,103050,5
42701,103112,5
42712,103077,5
42705,103062,4
42689,103037,5
42679,103052,5
42662,102944,5
42634,102905,5
42614,102849,4
42599,102863,5
42593,102795,5
42563,102764,5
42543,102718,5
42523,102688,4
42514,102661,5
42531,102694,5
42534,102721,5
42543,102744,5
42552,102753,5
42563,102761,4
42560,102765,5
42558,102767,5
42557,102764,4
42567,102804,4
42575,102789,5
42570,102787,5
42566,102800,5
42570,102790,4
42559,102758,5
42544,102717,5
42545,102749,5
42566,102796,5
42594,102842,4
42587,102838,5
42601,102835,5
42593,102816,5
42594,102819,5
42589,102820,4
42591,102835,5
42596,102818,5
42589,102782,5
42560,102738,5
42546,102737,4
42527,102686,6
42516,102654,4
42514,102652,5
42521,102670,5
42507,102657,4
42496,102625,5
42485,102609,5
42474,102572,5
42462,102536,4
42451,102543,5
42454,102547,5
42474,102572,5
42464,102576,5
42465,102552,4
42465,102568,5
42455,102556,5
42456,102541,5
42452,102535,5
42462,102566,4
42460,102560,5
42454,102534,5
42436,102498,5
42423,102493,5
42414,102435,4
42376,102384,5
42370,102380,6
42372,102392,4
42371,102381,5
42355,102343,4
42340,102307,5
42321,102269,5
42298,102214,5
42287,102196,4
42290,102217,4
42305,102239,5
42299,102221,5
42298,102208,5
42289,102230,4
42281,102194,5
42266,102166,5
42265,102164,5
42264,102168,5
42271,102169,4
42250,102139,5
42229,102089,5
42223,102078,5
42205,102034,5
42174,101992,4
42175,101968,5
42172,101988,5
42187,101984,5
42140,101962,5
42155,101908,4
42138,101904,5
42115,101830,5
42040,101781,5
42080,101766,4
42088,101809,4
42093,101789,5
42072,101741,5
42065,101732,5
42063,101735,4
42058,101710,5
42085,101688,5
42023,101643,5
42018,101640,5
42013,101594,4
42025,101550,5
41982,101562,5
41983,101569,5
41970,101542,5
42001,101548,5
41980,101559,4
41988,101555,5
41967,101529,5
41952,101487,5
41943,101497,4
41945,101472,5
41924,101446,5
41928,101419,5
41931,101463,5
41946,101483,4
41931,101447,5
41914,101393,5
41920,101437,5
41910,101417,4
41904,101400,5
41914,101405,5
41921,101425,5
41919,101414,5
41898,101355,4
41877,101350,5
41879,101332,5
41860,101297,5
41848,101277,5
41845,101314,4
41843,101271,6
41845,101246,4
41797,101149,5
41761,101107,5
41756,101082,4
41744,101037,5
41724,101016,5
41724,101007,5
41713,101004,5
41709,100990,4
41697,100927,5
41669,100883,5
41656,100875,5
41655,100870,4
41657,100876,4
41662,100890,5
41684,100934,5
41681,100922,5
41674,100905,4
41671,100903,5
41674,100923,5
41674,100901,6
41672,100896,4
41668,100895,4
41680,100906,5
41664,100850,5
41634,100821,5
41632,100826,5
41634,100808,4
41614,100791,5
41620,100794,5
41626,100805,5
41636,100806,5
41620,100748,4
41575,100695,5
41591,100705,5
41588,100699,5
41579,100695,4
41590,100711,4
41602,100747,5
41596,100726,5
41572,100661,5
41546,100620,5
41547,100632,4
41533,100597,5
41537,100607,5
41550,100631,6
41574,100659,3
41547,100597,5
41514,100540,5
41510,100543,5
41522,100563,5
41515,100549,4
41523,100569,5
41540,100617,5
41557,100637,5
41543,100608,5
41539,100590,4
41545,100623,5
41546,100614,5
41549,100620,5
41551,100651,5
41568,100666,4
41574,100655,5
41540,100583,5
41512,100536,5
41527,100562,4
41526,100557,5
41521,100565,4
41531,100586,5
41559,100627,5
41533,100587,6
41518,100582,3
41543,100603,5
41531,100565,5
41502,100523,5
41498,100515,4
41503,100521,5
41490,100491,5
41470,100457,5
41461,100442,5
41463,100437,4
41433,100373,5
41419,100334,5
41412,100347,5
41427,100371,5
41430,100358,4
41428,100392,5
41422,100428,5
41461,100438,5
41458,100437,4
41464,100457,4
41435,100488,6
41480,100475,4
41472,100480,5
41476,100485,4
41452,100489,5
41478,100480,5
41483,100511,5
41502,100560,5
41566,100609,4
41545,100657,5
41566,100659,5
41554,100659,5
41592,100603,5
41513,100549,4
41491,100517,5
41503,100531,5
41537,100558,5
41504,100551,5
41490,100499,4
41465,100459,5
41446,100419,5
41433,100383,5
41438,100430,5
41467,100471,4
41481,100480,5
41467,100446,6
41439,100374,4
41406,100319,4
41394,100268,4
41397,100326,5
41434,100397,5
41473,100460,5
41462,100401,4
41449,100405,5
41438,100382,5
41436,100372,5
41415,100375,5
41433,100380,4
41445,100430,5
41453,100421,5
41435,100427,5
41413,100331,5
41396,100303,4
41375,100263,5
41390,100334,5
41415,100354,5
41445,100402,5
41428,100379,4
41413,100347,5
41402,100327,5
41399,100306,6
41397,100325,3
41432,100385,4
41454,100436,5
41464,100437,5
41453,100405,5
41445,100397,4
41433,100382,5
41431,100380,5
41455,100434,5
41480,100499,5
41498,100516,4
41482,100490,5
41487,100498,5
41495,100515,5
41492,100523,5
41513,100558,4
41531,100608,5
41567,100679,5
41564,100661,5
41545,100604,5
41522,100584,5
41509,100539,4
41515,100539,5
41537,100590,5
41565,100676,6
41597,100717,3
41586,100680,5
41569,100678,5
41586,100668,5
41570,100651,4
41562,100660,5
41568,100670,5
41592,100725,5
41599,100706,5
41580,100707,4
41577,100699,5
41581,100684,5
41586,100725,5
41630,100792,5
41656,100859,4
41663,100841,5
41635,100803,5
41630,100791,5
41625,100781,5
41635,100797,4
41673,100900,6
41748,101027,4
41789,101100,5
41770,101055,5
41737,100997,4
41728,100979,5
41713,100956,5
41714,100968,5
41731,100997,4
41748,101020,4
41736,100979,5
41722,100955,5
41723,100973,5
41718,100963,4
41719,100974,5
41747,101030,5
41778,101116,5
41806,101157,5
41804,101154,4
41824,101202,5
41859,101252,5
41871,101299,5
41905,101361,5
41938,101419,4
41958,101437,5
41941,101408,6
41920,101374,4
41903,101349,5
41893,101320,4
41890,101342,5
41913,101369,5
41942,101427,5
41949,101451,5
41926,101448,4
41958,101473,5
41961,101486,5
41959,101481,5
41956,101561,4
42042,101665,5
42091,101756,5
42094,101786,5
42080,101829,5
42151,101906,4
42189,101958,5
42205,102012,5
42249,102076,5
42283,102151,5
42282,102129,4
42269,102114,5
42307,102158,5
42301,102187,6
42310,102209,4
42354,102322,4
42453,102449,5
42450,102500,5
42449,102488,5
42442,102470,5
42440,102435,8
42403,102413,1
42431,102494,5
42468,102559,5
42512,102620,4
42515,102636,4
42503,102602,5
42496,102624,5
42511,102605,5
42521,102653,4
42545,102703,5
42580,102757,5
42590,102723,5
42563,102718,5
42571,102724,5
42564,102722,4
42560,102714,5
42572,102763,5
42591,102793,5
42620,102860,4
42616,102863,5
42596,102802,5
42602,102817,5
42601,102823,5
42613,102875,4
42628,102858,5
42650,102924,5
42682,102969,5
42669,102953,5
42657,102886,4
42629,102828,5
42598,102786,5
42601,102800,5
42611,102838,4
42639,102879,5
42642,102872,5
42636,102861,5
42628,102852,5
42601,102780,4
42572,102717,7
42561,102702,3
42553,102699,5
42567,102725,5
42568,102720,4
42559,102716,5
42565,102724,5
42568,102710,5
42551,102685,5
42553,102692,4
42546,102691,5
42553,102715,5
42562,102714,5
42571,102732,5
42588,102768,4
42594,102780,5
42609,102812,5
42611,102810,5
42618,102832,4
42629,102851,4
42640,102863,5
42636,102869,5
42627,102856,5
42617,102835,4
42625,102854,5
42618,102834,6
42616,102846,4
42610,102807,5
42600,102790,4
42588,102776,5
42589,102768,5
42587,102771,5
42601,102783,5
42583,102783,4
42593,102779,5
42598,102798,5
42604,102811,5
42586,102768,5
42589,102785,4
42594,102797,5
42618,102844,5
42617,102856,5
42620,102839,5
42626,102840,4
42618,102808,5
42579,102768,5
42585,102764,5
42599,102821,4
42630,102885,5
42661,102927,5
42674,102960,5
42693,102997,5
42697,102989,4
42682,102972,5
42670,102937,5
42680,102955,5
42671,102953,5
42662,102938,4
42652,102894,5
42635,102866,5
42611,102801,5
42558,102703,5
42532,102646,4
42522,102649,5
42509,102607,5
42507,102599,5
42505,102603,5
42509,102603,4
42492,102580,4
42493,102575,5
42479,102578,5
42507,102602,5
42483,102565,4
42475,102531,5
42438,102517,5
42439,102454,5
42403,102398,4
42407,102411,5
42386,102457,5
42441,102469,5
42433,102480,5
42445,102501,4
42443,102501,5
42436,102460,5
42416,102422,5
42411,102417,5
42446,102429,4
42420,102431,5
42406,102398,5
42381,102351,5
42428,102372,5
42371,102318,4
42332,102248,6
42301,102180,4
42313,102179,5
42280,102144,4
42266,102145,6
42303,102200,3
42311,102208,5
42298,102200,5
42300,102194,4
42299,102198,5
42307,102170,5
42269,102127,5
42252,102105,5
42276,102162,4
42272,102106,5
42248,102082,5
42223,102057,5
42212,102034,5
42219,101981,4
42198,101966,5
42174,101944,5
42181,101946,5
42166,101933,5
42147,101877,4
42132,101854,5
42133,101851,6
42128,101878,4
42083,101752,5
42048,101671,4
42053,101684,5
42045,101705,5
42035,101646,5
42029,101606,4
42002,101591,5
41975,101510,5
41934,101424,5
41922,101420,5
41950,101469,4
41936,101443,5
41941,101427,5
41918,101388,5
41900,101337,5
41857,101268,4
41836,101234,5
41847,101289,5
41880,101313,5
41874,101295,5
41864,101273,4
41840,101240,5
41830,101174,5
41749,101045,6
41731,101001,4
41734,101026,4
41737,101035,5
41746,101049,5
41764,101073,5
41768,101118,4
41786,101132,4
41793,101162,5
41834,101241,5
41864,101287,5
41843,101225,4
41803,101152,5
41776,101096,5
41748,101055,5
41741,101017,5
41728,101004,4
41732,101027,5
41743,101061,5
41743,101026,5
41738,101036,5
41741,101042,5
41754,101075,4
41749,101057,5
41754,101068,5
41767,101091,6
41765,101075,3
41736,101023,5
41726,101009,5
41735,101024,5
41739,101045,5
41730,101009,4
41714,100978,5
41698,100919,5
41651,100844,5
41621,100775,4
41609,100763,5
41611,100779,5
41624,100789,5
41618,100788,5
41625,100799,4
41636,100809,5
41628,100806,5
41642,100822,5
41648,100856,5
41675,100884,4
41672,100894,6
41687,100904,4
41695,100938,5
41700,100925,5
41684,100903,4
41679,100893,5
41675,100884,5
41686,100918,5
41694,100945,5
41706,100956,4
41711,100970,5
41699,100948,5
41682,100910,5
41669,100879,4
41670,100876,4
41670,100904,5
41696,100936,5
41705,100969,5
41718,100971,4
41682,100941,5
41694,100908,5
41672,100897,5
41689,100924,5
41661,100943,4
41702,100948,5
41700,100955,6
41703,100962,4
41661,100942,5
41694,100937,4
41710,100986,5
41740,101022,5
41760,101059,5
41751,101042,5
41758,101054,4
41750,101043,5
41787,101027,5
41738,101042,5
41752,101055,4
41761,101069,4
41796,101053,5
41730,101006,5
41729,101000,5
41724,101001,4
41744,101010,5
41747,101073,5
41789,101136,5
41810,101181,5
41803,101152,4
41795,101152,5
41808,101165,5
41802,101138,6
41781,101095,4
41786,101127,4
41791,101143,5
41786,101139,5
41784,101077,5
41793,101155,5
41794,101138,4
41780,101107,5
41773,101082,5
41775,101103,5
41789,101128,5
41781,101109,4
41781,101167,5
41804,101152,5
41793,101125,5
41799,101151,4
41832,101272,5
41872,101284,5
41865,101263,5
41850,101260,5
41865,101290,5
41866,101278,4
41874,101302,5
41883,101303,5
41883,101311,5
41860,101252,4
41832,101188,5
41842,101233,5
41857,101270,5
41880,101312,5
41929,101445,4
41994,101555,5
42028,101619,5
42033,101611,5
42040,101654,5
42048,101665,4
42050,101652,5
42043,101654,5
42073,101716,5
42099,101776,4
42088,101749,4
42096,101779,5
42146,101865,5
42169,101928,5
42178,101951,4
42217,102036,6
42267,102147,4
42322,102239,5
42330,102253,5
42346,102273,4
42349,102269,5
42331,102220,5
42323,102223,5
42314,102222,5
42322,102218,4
42318,102207,5
42328,102250,5
42401,102436,5
42476,102563,5
42515,102653,4
42563,102727,5
42596,102787,5
42588,102760,5
42575,102761,5
42627,102862,4
42677,102988,5
42721,103053,5
42750,103125,5
42799,103225,4
42814,103224,5
42765,103117,6
42731,103051,4
42724,103046,5
42731,103060,4
42752,103120,5
42772,103154,5
42791,103179,5
42776,103140,5
42765,103132,4
42782,103194,5
42845,103314,5
42874,103374,5
42921,103453,5
42946,103524,4
42974,103547,5
42963,103573,5
42971,103568,5
42956,103539,5
42940,103523,4
42964,103564,5
42998,103647,5
43081,103861,5
43178,104045,4
43235,104140,4
43232,104143,5
43207,104046,6
43144,103908,4
43107,103827,4
43084,103818,5
43094,103824,5
43103,103864,5
43150,103980,5
43215,104082,4
43202,104030,5
43186,104009,5
43140,104001,5
43198,104056,5
43233,104087,4
43235,104126,5
43223,104201,5
43280,104182,5
43257,104137,5
43241,104119,5
43215,104129,4
43238,104097,5
43208,104030,5
43195,104049,5
43256,104090,4
43257,104162,5
43314,104296,5
43400,104478,5
43555,104693,4
43551,104780,5
43560,104797,5
43571,104772,5
43556,104661,5
43461,104559,4
43445,104526,5
43433,104532,5
43460,104556,5
43445,104544,5
43432,104517,4
43423,104487,5
43402,104420,5
43385,104439,5
43395,104434,5
43406,104476,4
43413,104453,5
43424,104499,5
43424,104491,5
43429,104485,6
43398,104381,4
43369,104376,4
43353,104347,5
43355,104358,5
43368,104398,4
43386,104414,4
43386,104420,5
43381,104398,5
43375,104434,5
43392,104437,4
43424,104516,5
43463,104563,5
43475,104641,5
43467,104594,5
43464,104577,4
43440,104532,5
43420,104502,5
43408,104439,5
43362,104338,5
43306,104255,4
43311,104266,5
43320,104282,5
43311,104287,5
43320,104304,5
43330,104340,4
43365,104381,6
43370,104387,4
43359,104368,5
43353,104345,4
43330,104288,4
43310,104241,5
43289,104200,5
43297,104220,5
43292,104230,4
43293,104206,5
43280,104186,5
43262,104142,5
43212,104019,5
43158,103911,4
43102,103818,5
43091,103806,5
43072,103780,5
43085,103797,5
43111,103857,4
43128,103877,5
43088,103775,5
43039,103665,6
42996,103600,4
42990,103573,4
42968,103543,5
42969,103535,5
42976,103542,5
42953,103516,5
42934,103489,4
42934,103481,5
42941,103516,5
42952,103508,5
42952,103544,4
42993,103624,4
43019,103679,5
43010,103639,5
42995,103590,5
42955,103523,4
42920,103449,5
42859,103322,5
42814,103250,5
42827,103304,5
42849,103351,5
42870,103380,4
42881,103373,5
42879,103376,5
42872,103345,6
42849,103301,3
42841,103303,5
42850,103343,5
42852,103346,5
42870,103375,5
42892,103412,4
42925,103474,5
42910,103440,5
42911,103431,5
42910,103453,4
42914,103443,4
42893,103394,5
42843,103304,5
42803,103237,5
42808,103227,4
42789,103193,5
42785,103195,5
42807,103232,5
42819,103256,5
42839,103319,4
42866,103370,6
42871,103361,4
42819,103233,5
42755,103118,5
42714,103062,6
42728,103096,3
42734,103092,5
42743,103119,5
42743,103115,5
42710,103116,4
42735,103099,5
42746,103107,5
42743,103138,5
42720,103168,5
42785,103199,4
42802,103226,5
42794,103228,5
42791,103200,5
42772,103151,4
42760,103134,5
42772,103177,5
42823,103174,5
42749,103099,5
42713,103033,4
42689,102979,5
42697,102874,6
42610,102821,4
42600,102831,5
42640,102890,4
42656,102887,5
42642,102889,5
42637,102888,5
42646,102925,5
42660,102923,4
42641,102888,5
42610,102820,5
42552,102675,5
42454,102418,5
42383,102312,4
42370,102319,5
42395,102397,5
42436,102425,5
42484,102605,4
42551,102726,4
42549,102688,5
42504,102542,5
42455,102474,5
42407,102390,4
42362,102276,5
42306,102220,5
42307,102206,6
42329,102262,4
42350,102286,4
42360,102376,5
42391,102394,5
42427,102455,5
42439,102457,5
42432,102490,4
42440,102488,5
42434,102465,5
42395,102392,5
42360,102314,5
42334,102236,4
42310,102206,5
42286,102144,5
42247,102070,5
42226,102063,5
42240,102084,4
42232,102023,5
42182,101925,5
42147,101882,5
42162,101891,5
42162,101918,4
42180,101974,5
42221,102042,5
42215,102004,6
42174,101895,3
42098,101760,5
42053,101686,5
42034,101652,5
42025,101655,5
42024,101664,4
42060,101713,5
42060,101700,5
42031,101633,5
42013,101593,5
42023,101636,4
42039,101658,5
42062,101704,5
42093,101784,5
42100,101788,5
42082,101736,4
42063,101690,5
42038,101658,5
42048,101671,5
42046,101681,4
42056,101697,5
42072,101736,4
42065,101711,5
42042,101624,5
42006,101570,4
41997,101544,5
41980,101508,5
41942,101448,5
41936,101437,5
41944,101466,4
41952,101456,5
41939,101454,5
41943,101444,5
41948,101459,5
41927,101433,4
41937,101465,5
41976,101547,5
41994,101563,5
41982,101523,5
41955,101485,4
41945,101456,5
41940,101432,5
41913,101386,5
41901,101360,5
41897,101360,4
41897,101358,6
41900,101373,4
41910,101398,5
41934,101438,4
41950,101450,4
41932,101426,5
41922,101405,5
41930,101432,5
41910,101369,4
41868,101309,5
41861,101311,5
41890,101368,5
41890,101354,5
41883,101347,4
41890,101323,5
41839,101198,5
41765,101059,5
41737,101010,5
41733,101011,4
41743,101035,5
41759,101078,5
41766,101129,5
41818,101198,5
41821,101185,4
41779,101115,5
41709,101019,6
41716,100978,4
41691,100928,4
41662,100855,4
41604,100837,5
41654,100849,5
41659,100873,5
41667,100867,4
41687,100900,5
41689,100916,5
41707,100937,5
41695,100926,5
41736,100939,4
41709,100943,5
41721,100970,5
41735,101032,5
41806,101083,5
41775,101115,4
41772,101093,5
41750,101022,5
41710,100899,5
41655,100846,5
41648,100824,4
41658,100863,5
41685,100931,5
41734,100987,6
41713,100959,4
41695,100928,4
41695,100877,5
41685,100904,5
41701,100940,5
41718,100970,5
41732,100952,4
41713,100920,5
41666,100867,5
41680,100885,5
41668,100835,4
41649,100841,5
41656,100847,5
41667,100846,5
41649,100837,5
41633,100787,4
41638,100824,5
41673,100884,5
41697,100986,5
41719,100973,5
41747,101044,5
41773,101082,4
41766,101075,5
41770,101063,5
41770,101059,5
41751,101036,4
41772,101092,5
41801,101154,5
41834,101186,5
41814,101156,4
41796,101125,4
41788,101103,5
41752,101027,5
41747,101021,5
41738,100988,4
41737,100987,5
41730,100966,5
41709,100933,5
41717,100972,5
41739,101031,4
41777,101112,5
41820,101185,5
41835,101222,5
41843,101220,5
41806,101166,4
41785,101095,6
41682,100844,4
41593,100677,5
41580,100660,5
41578,100687,4
41611,100739,5
41612,100719,5
41578,100656,5
41551,100606,5
41524,100551,4
41516,100555,5
41552,100623,5
41596,100741,5
41626,100786,4
41638,100805,4
41633,100762,5
41584,100634,5
41518,100516,5
41489,100482,4
41491,100486,5
41497,100480,5
41499,100504,5
41521,100541,5
41510,100500,4
41428,100314,5
41387,100219,6
41354,100190,4
41369,100203,5
41365,100186,4
41337,100152,5
41339,100158,5
41332,100136,5
41325,100104,5
41324,100096,4
41327,100094,5
41295,100022,5
41262,99959,5
41246,99911,4
41237,99898,4
41223,99888,5
41252,99933,5
41267,99968,5
41272,99965,4
41240,99877,5
41189,99777,5
41149,99712,5
41129,99648,5
41111,99626,4
41110,99628,5
41126,99652,5
41116,99648,5
41136,99664,5
41101,99591,4
41051,99485,5
41015,99420,5
41013,99407,5
41020,99458,5
41037,99463,4
41064,99538,5
41080,99554,5
41087,99563,5
41095,99608,5
41103,99640,4
41138,99669,5
41139,99661,5
41142,99666,5
41113,99678,4
41148,99638,4
41113,99576,5
41104,99587,5
41097,99585,5
41129,99607,5
41118,99628,3
41157,99656,5
41188,99696,5
41182,99744,5
41199,99784,4
41229,99793,5
41247,99760,5
41167,99674,5
41152,99680,5
41159,99682,4
41171,99636,5
41075,99474,5
40983,99296,5
40887,99113,5
40818,98953,4
40745,98806,5
40697,98738,5
40675,98691,5
40651,98603,4
40610,98516,4
40565,98430,6
40531,98360,4
40531,98345,5
40541,98403,4
40554,98447,7
40558,98450,3
40562,98415,5
40561,98459,5
40572,98481,4
40584,98497,5
40577,98481,5
40547,98401,5
40489,98282,5
40419,98125,4
40357,98041,5
40345,98017,9
40360,98030,1
40355,98017,5
40384,98117,4
40394,98094,5
40377,98065,5
40355,97980,5
40291,97872,5
40231,97719,4
40191,97637,5
40169,97597,6
40156,97590,4
40181,97632,4
40186,97668,4
40210,97695,5
40218,97727,5
40251,97803,5
40286,97868,4
40303,97923,5
40322,97949,5
40329,97956,5
40330,97945,5
40322,97948,4
40328,97958,5
40345,97991,5
40347,97984,5
40340,97965,5
40340,97972,4
40330,97953,5
40327,97951,5
40326,97951,5
40349,97994,5
40381,98103,4
40432,98188,5
40473,98305,5
40538,98438,6
40590,98538,3
40638,98623,4
40693,98752,5
40751,98899,5
40825,99053,5
40881,99149,4
40895,99189,5
40914,99234,5
40947,99276,5
40962,99347,5
41007,99408,4
41033,99471,5
41081,99549,5
41101,99592,5
41113,99627,5
41134,99674,4
41160,99742,5
41197,99815,5
41244,99884,5
41259,99931,5
41276,99975,5
41281,99993,4
41308,100079,5
41361,100177,5
41402,100278,6
41453,100373,3
41510,100487,5
41537,100539,5
41563,100584,5
41549,100572,4
41541,100546,4
41519,100511,5
41498,100463,5
41479,100421,5
41462,100386,4
41466,100385,5
41458,100392,5
41460,100384,5
41457,100362,5
41420,100288,4
41376,100177,5
41334,100120,5
41329,100091,5
41330,100120,5
41339,100124,4
41325,100109,6
41325,100098,4
41319,100077,5
41307,100082,5
41320,100087,4
41314,100096,5
41316,100096,5
41305,100068,5
41292,100036,4
41297,100036,4
41282,100005,5
41232,99947,5
41231,99906,5
41213,99871,4
41209,99859,5
41142,99785,5
41131,99695,5
41116,99663,5
41087,99605,4
41040,99544,5
41049,99545,5
41064,99561,5
41069,99595,5
41091,99578,4
41052,99580,5
41071,99599,6
41086,99601,4
41115,99590,5
41068,99567,4
41038,99534,5
41028,99517,5
41019,99435,5
40975,99381,5
40955,99354,4
40944,99331,5
40943,99350,5
40968,99391,5
40971,99410,4
40980,99426,4
40969,99400,5
40984,99454,5
41008,99516,5
41035,99557,4
41054,99566,5
41065,99646,5
41073,99649,5
41082,99657,5
41065,99609,4
41082,99667,5
41072,99662,5
41072,99653,6
41071,99679,4
41088,99698,4
41102,99724,5
41101,99706,5
41073,99703,5
41080,99668,5
41075,99656,4
41070,99679,5
41083,99736,5
41098,99725,5
41116,99779,5
41133,99792,4
41138,99824,5
41150,99831,5
41152,99817,5
41143,99828,4
41153,99828,5
41160,99832,5
41172,99871,5
41171,99856,5
41185,99897,5
41205,99926,4
41190,99902,5
41193,99892,5
41185,99899,5
41201,99906,4
41219,99940,5
41213,99962,5
41254,100005,5
41251,100018,5
41254,100026,4
41274,100075,5
41306,100131,5
41350,100237,5
41440,100412,5
41492,100548,4
41588,100761,5
41677,100932,5
41721,100999,5
41756,101051,4
41753,101031,4
41761,101070,5
41786,101097,5
41783,101086,5
41795,101116,4
41791,101106,6
41798,101108,4
41794,101095,5
41776,101087,5
41786,101106,4
41812,101142,5
41820,101182,5
41877,101286,5
41908,101322,5
41919,101356,4
41925,101376,5
41936,101394,5
41959,101428,5
41978,101465,5
42018,101556,4
42091,101697,5
42148,101813,5
42212,101942,5
42269,102054,5
42322,102182,4
42409,102338,5
42460,102438,5
42534,102583,5
42581,102690,4
42636,102783,5
42684,102897,6
42762,103059,4
42856,103265,5
42953,103479,4
43072,103709,5
43157,103887,5
43222,104007,5
43262,104091,5
43308,104171,4
43347,104277,5
43426,104425,5
43500,104588,5
43579,104732,5
43633,104829,4
43671,104902,5
43727,105027,5
43803,105198,5
43915,105424,5
44030,105665,4
44115,105859,5
44209,106033,5
44259,106153,5
44311,106240,4
44341,106354,4
44429,106514,5
44525,106725,6
44589,106891,4
44609,106966,4
44649,106945,5
44636,106927,5
44652,106979,5
44669,107114,5
44818,107365,4
44957,107652,5
45094,107940,5
45177,108115,5
45274,108312,5
45385,108531,4
45528,108841,5
45726,109135,5
45801,109391,5
45931,109622,5
46023,109770,5
46134,109915,4
46186,110204,5
46434,110787,5
46823,111688,6
47395,112809,3
47991,113989,5
48471,114940,5
48836,115193,5
49269,116092,4
49781,117274,4
50544,118949,5
51385,120711,5
52362,122593,5
53304,124475,4
54083,126063,5
54789,127454,5
55495,128704,5
56322,130313,5
57008,131597,4
57721,132127,5
58351,133191,5
58801,133946,5
58986,134285,5
59263,134843,5
59711,135802,4
60419,137106,5
61296,138560,5
62008,139786,5
62626,140930,5
63082,141535,4
63428,142139,5
63933,143111,5
64600,144402,4
65406,145684,4
66131,146743,5
65914,147732,5
66460,147936,5
66824,148476,4
67170,148913,5
67527,149492,5
68124,150425,5
68823,151492,5
69470,152392,4
70048,153287,5
70474,153838,5
70963,154662,5
71708,155763,5
72597,157125,4
73622,158539,5
74494,159826,5
75592,161440,5
76363,162437,5
76953,163292,4
77612,164209,6
78246,164482,4
79342,166190,5
80963,168415,5
82141,169942,4
82451,171203,5
83116,172025,5
83860,173054,5
84708,174219,4
85546,175338,4
86360,176420,5
87223,177620,5
88373,179073,5
89078,179843,4
89602,180479,5
90292,180722,5
90920,181567,5
91754,182503,5
92360,183230,4
92956,183873,5
93348,184317,5
93620,184622,5
93939,184990,4
94447,185615,4
95112,186479,5
96007,187563,5
96793,188410,5
97543,189269,5
98090,189828,4
98486,190303,5
98758,191452,5
99577,192422,5
100551,193431,5
101516,194421,4
102140,195091,5
102694,195629,5
103089,196015,5
103588,196604,4
104108,197249,5
104835,197378,5
105466,198067,5
105970,198586,5
106591,199236,5
107000,199634,4
107318,199996,5
107843,200560,5
108398,201153,6
109039,201802,3
109625,202401,5
109934,202686,5
109959,202603,5
109868,202499,5
109811,202394,4
109930,202529,5
110118,202679,5
110191,202753,5
110264,202770,5
110234,202648,4
109975,202307,5
109737,202068,5
109688,201978,5
109687,201929,4
109721,201937,4
109873,202100,5
109817,202126,5
110015,202139,5
109994,202092,4
109962,202029,6
109669,202139,4
110240,202358,5
110676,202794,5
111064,203188,6
110902,203455,3
111558,203629,5
111709,203754,5
111810,203822,5
111855,203811,4
111842,203773,5
111726,203628,5
111569,203401,5
111733,203138,5
111125,202863,4
110807,202456,5
110366,201925,5
110378,201349,5
109401,200805,5
108984,200369,4
108700,200043,5
108684,199768,5
108315,199551,5
108173,199343,4
107949,199024,5
107637,198587,6
107176,198146,4
106826,197796,5
106551,197449,4
106247,196789,5
105944,196709,5
105512,196143,5
104959,195531,5
104454,194500,4
103930,194330,5
103525,193878,5
103208,193532,5
103003,193114,5
102887,193141,4
102710,192941,5
102571,192807,5
102429,192904,5
102356,192608,5
102316,192534,4
102167,192361,5
102046,192660,5
101885,191983,5
101674,191766,4
101579,191649,4
101422,191742,5
101375,191442,6
101382,191452,4
101465,191533,4
101617,191758,7
101733,191785,3
101713,191765,5
101680,191750,5
101659,191764,4
101792,191945,5
101952,192070,5
102103,192274,5
102326,192506,5
102465,192656,4
102550,192759,5
102653,192920,5
102847,193199,5
103244,193769,5
103808,194422,4
104492,195208,5
105125,195890,5
105633,196494,5
106190,197135,5
106750,197908,4
107525,198890,5
108402,199861,5
109232,200829,6
110271,202093,3
111272,203182,4
112048,204059,5
112775,204768,5
113446,205417,5
114114,206104,4
114723,206647,5
114676,207188,5
115225,207673,5
115755,208098,5
116175,208524,4
116554,208950,5
117057,209507,5
117806,210601,5
118610,211368,5
119499,212393,4
120151,212859,5
120371,212973,5
120361,213001,5
120382,212514,5
120479,212652,5
120649,212765,4
120815,212925,5
121053,213207,5
121296,213399,6
121351,213382,3
121318,213292,5
121213,213180,5
121130,213102,5
121281,213395,4
121498,213522,5
121659,213711,5
121698,213600,5
121634,213447,5
121450,213223,4
121228,212973,5
121020,212739,5
120900,212645,5
120871,212566,5
120894,212618,4
120895,212508,5
120577,212124,5
120257,211787,5
119940,211455,5
119704,211253,4
119595,211164,6
119455,211039,4
119424,211061,5
119469,211145,5
119477,211202,4
119486,211165,5
119530,211230,5
119669,211383,5
119896,211649,4
119897,211698,4
120073,211687,5
119890,211827,5
120020,211888,5
119866,212091,4
120298,212180,5
120504,212341,5
120851,212589,5
120404,212697,5
121327,212878,4
121658,213110,5
121901,213196,5
121393,213337,5
122601,213748,5
123125,214316,4
123861,214957,5
124742,215521,6
125108,216029,4
125703,216493,5
126340,216947,4
127437,216977,5
126824,217102,5
127115,217278,5
127437,217416,4
128515,217440,4
127825,217382,5
127585,216895,5
127313,216497,5
127337,215815,4
126857,215688,5
126975,215712,5
126817,215380,5
126569,214804,5
126266,214573,4
125986,214147,5
125614,213614,5
125332,212441,5
125143,213018,5
125048,212910,4
125062,212702,5
124829,211353,5
124666,212144,6
124389,211857,4
124183,211673,5
123997,211246,4
123821,211290,5
123675,211172,5
123451,210895,5
123146,211318,4
122754,210151,5
122441,209837,5
122157,209576,5
121984,210568,4
121803,209286,4
121661,209123,5
121558,208961,5
121387,209367,5
121242,208673,4
121078,208527,5
120899,208343,5
120719,208296,5
120599,208060,5
120454,207897,5
120261,207687,4
120038,207479,5
119789,207215,5
119451,206899,5
119106,206634,4
118863,206423,5
118540,206123,5
118134,205766,5
117725,205458,5
117298,205132,4
116792,204735,5
116298,204333,5
115755,203866,5
115136,203314,5
114487,202652,4
113804,202009,5
113066,201294,5
112097,200402,5
111118,199496,4
110171,198734,5
109531,198232,5
108933,197700,5
108442,197286,5
107940,196789,4
107351,196291,6
106825,196402,4
106334,195956,5
105824,195511,5
105283,195019,4
104767,194613,5
104351,194190,5
103823,193648,5
103215,193098,5
102743,192662,4
102324,192246,5
101953,191875,5
101506,191464,5
101188,191188,5
100910,190840,4
100439,190315,5
99892,189696,5
99267,189003,5
98643,188341,4
98088,187752,4
97921,186927,5
97239,186175,5
96528,185346,5
95711,184373,4
94802,183343,5
94001,182437,6
93267,181640,4
92623,180914,5
92063,180314,4
91552,179674,5
90966,179652,5
90278,178912,5
89823,178392,5
89313,177719,4
88669,176822,5
87890,175789,5
87112,174810,5
86195,173599,5
84993,172036,4
83712,170453,5
82464,168844,5
81244,167442,5
81027,166504,4
80276,165582,4
79502,164586,5
78692,163592,5
77931,163184,5
77300,162429,4
76724,161742,5
76243,161119,5
75679,160435,5
75293,159850,5
74714,158991,4
73971,157966,5
73021,156894,5
72477,155989,5
71779,155107,5
71316,154534,4
70602,153790,5
70296,152988,5
69742,152193,5
69197,151411,5
68451,150639,4
68125,149831,5
67624,149163,5
67370,148879,5
67125,148305,5
66550,147672,4
66137,147080,5
65711,147125,5
65563,146591,5
65059,146211,5
65436,145735,4
65016,145096,5
64781,144485,5
64373,144254,5
64247,144119,4
64174,144039,5
64230,144067,5
64094,143955,5
63925,143669,5
63652,143261,4
63513,143043,5
63513,143138,5
63545,143190,5
63539,143176,5
63472,142887,4
63314,142763,5
63042,142360,5
62876,142146,5
62869,141942,5
62916,142252,4
62948,142297,6
62915,142198,4
62793,142009,5
62648,141828,5
62545,141661,6
62468,141585,3
62490,141759,5
62459,141544,5
62449,141532,4
62332,141319,5
62165,141281,5
61998,140839,5
61968,140846,5
62002,140925,4
62098,141148,5
62154,141142,5
62170,141163,5
62126,141072,5
62018,140923,4
61999,140934,5
62039,141033,5
62170,141229,5
62286,141407,5
62347,141473,4
62340,141465,5
62301,141400,6
62249,141341,4
62304,141464,5
62483,141767,4
62625,141961,5
62690,142033,5
62662,142000,5
62625,141938,4
62570,141897,4
62637,142064,5
62773,142280,5
62934,142540,5
63049,142703,4
63064,142700,5
63017,142624,5
62905,142470,5
62853,142410,5
62889,142521,4
63035,142759,5
63165,142978,5
63260,143102,5
63228,143054,5
63194,142974,4
63102,142883,5
63144,142985,5
63223,143118,6
63315,143284,4
63386,143363,4
63377,143345,5
63324,143233,5
63200,143094,5
63174,143095,5
63232,143192,4
63318,143310,5
63365,143377,5
63417,143475,5
63394,143408,4
63322,143314,5
63270,143295,5
63348,143413,5
63434,143559,5
63565,143769,4
63646,143881,5
63642,143878,5
63637,143902,5
63616,143869,5
63671,144010,5
63864,144343,4
64071,144661,5
64227,144863,5
64244,144892,6
64162,144743,3
64048,144584,5
63926,144431,5
63909,144442,5
63904,144415,5
63851,144351,4
63792,144252,5
63683,144069,5
63510,143839,5
63353,143660,4
63261,143561,4
63211,143493,5
63201,143480,5
63094,143315,5
62975,143174,4
62809,142940,5
62637,142691,5
62468,142465,5
62383,142399,5
62330,142316,4
62257,142172,6
62134,141970,4
61971,141731,5
61676,141478,5
61670,141276,6
61567,141127,3
61506,141028,5
61245,140918,5
61368,140819,5
61330,140766,4
61290,140710,5
61154,140666,5
61245,140657,5
61240,140639,5
61210,140600,4
61287,140518,5
61103,140434,5
61066,140402,5
61035,140337,4
61195,140258,5
60941,140186,5
60865,140060,5
60751,139857,5
60729,139582,4
60448,139351,5
60340,139192,6
60232,139019,4
60188,138887,5
60089,138816,4
60014,138655,5
59902,138483,5
59778,138170,5
59636,138058,5
59566,137934,4
59478,137829,5
59441,137593,5
59408,137702,5
59338,137581,5
59263,137469,4
59192,137174,5
59150,137322,5
59156,137321,5
59137,137289,5
59144,137346,4
59146,137288,5
59099,137175,5
59039,137089,5
58976,137197,4
58960,136984,5
58917,136902,5
58811,136740,6
58742,136809,4
58678,136493,4
58572,136335,5
58460,136151,5
58353,136019,5
58265,135844,5
58238,135816,4
58253,135837,5
58272,135865,5
58268,135819,5
58229,135762,5
58176,135663,4
58127,135579,5
58099,135533,5
58080,135514,9
58104,135554,1
58111,135512,4
58052,135443,5
57993,135343,5
57948,135251,5
57883,135168,5
57851,135121,4
57805,135072,5
57804,135088,5
57799,135032,6
57718,134929,3
57669,134816,5
57575,134689,5
57525,134645,5
57498,134600,5
57496,134609,4
57514,134649,5
57471,134564,5
57386,134442,5
57288,134279,5
57202,134156,4
57139,134065,5
57080,133981,5
57065,133976,5
57080,133983,5
57032,133902,4
57003,133885,5
56987,133866,5
56973,133873,5
57005,133907,4
57017,133955,5
57071,134030,4
57061,133988,5
57009,133910,5
56961,133820,4
56873,133671,5
56809,133601,5
56768,133539,5
56750,133508,5
56779,133563,4
56823,133648,5
56877,133729,5
56939,133867,5
57005,133968,5
57076,134112,4
57130,134197,5
57231,134374,5
57299,134472,5
57284,134412,5
57194,134265,4
57117,134135,5
57062,134063,5
57067,134055,5
57023,134004,5
57039,134036,4
57093,134097,6
57070,134070,4
57046,134043,5
57053,134029,4
57068,134089,4
57112,134159,5
57170,134283,5
57328,134521,5
57371,134558,4
57329,134485,5
57296,134423,5
57284,134413,5
57279,134399,5
57286,134401,4
57277,134428,5
57327,134487,5
57321,134433,5
57265,134358,5
57244,134323,4
57087,134275,5
57198,134268,5
57189,134256,5
57224,134323,5
57119,134419,4
57320,134481,5
57356,134541,6
57370,134544,4
57241,134504,5
57360,134509,4
57351,134507,5
57396,134581,5
57483,134564,5
57357,134502,4
57363,134501,4
57348,134483,5
57509,134482,5
57346,134495,5
57384,134572,4
57411,134583,5
57496,134496,5
57311,134410,5
57254,134319,5
57227,134281,5
57239,134228,4
57163,134198,5
57160,134160,5
57091,134024,6
56965,133746,3
56867,133680,5
56798,133550,5
56719,133441,5
56645,133182,5
56605,133262,4
56560,133195,5
56503,133109,5
56477,132911,5
56468,133065,4
56451,133079,4
56441,133046,5
56413,132996,5
56388,132975,5
56394,132965,4
56379,132956,5
56376,133102,5
56363,132920,5
56344,132907,5
56287,132803,4
56215,132845,5
56127,132537,5
56097,132525,5
56119,132554,5
56135,132659,5
56153,132615,4
56139,132594,5
56108,132514,5
56009,132379,5
55956,132294,4
55929,132279,5
55939,132320,5
56013,132415,5
56081,132564,5
56114,132572,4
56043,132441,5
55993,132397,5
56006,132445,5
56067,132530,4
56097,132596,4
56110,132602,5
56089,132540,5
56022,132408,5
55906,132248,4
55868,132203,5
55869,132226,5
55898,132281,5
55926,132318,5
55928,132295,4
55881,132209,6
55747,131971,4
55643,131842,5
55658,131885,5
55719,132005,4
55763,132076,5
55781,132071,5
55706,131944,5
55619,131773,5
55530,131681,4
55567,131745,5
55652,131895,5
55747,132063,5
55843,132204,5
55876,132250,4
55860,132187,5
55795,132103,5
55851,132241,5
55910,132301,4
55939,132337,5
55935,132329,5
55929,132325,5
55954,132353,4
55888,132247,4
55887,132289,5
56036,132529,5
56140,132707,5
56283,132934,5
56383,133107,4
56494,133279,5
56554,133342,5
56504,133230,5
56431,133123,5
56393,133060,4
56400,133099,5
56463,133233,5
56627,133502,5
56727,133630,5
56727,133646,4
56773,133733,5
56824,133821,5
56898,133919,5
56872,133809,5
56771,133670,4
56697,133574,5
56657,133512,5
56580,133410,6
56489,133285,3
56494,133329,5
56535,133378,5
56508,133345,5
56438,133222,5
56357,133139,4
56362,133207,5
56494,133476,5
56708,133843,5
56834,134042,5
56952,134211,4
57006,134293,5
57001,134334,5
56930,134353,5
56946,134217,5
56887,134146,4
56855,134093,5
56647,133997,5
56744,133883,5
56643,133726,5
56638,133792,5
56664,134060,4
56945,134380,5
57090,134601,5
57165,134719,6
57275,134730,3
57204,134768,5
57229,134821,5
57217,134781,5
57363,134748,4
57221,134855,5
57323,135004,5
57339,135010,5
57433,134960,5
57264,134859,4
57204,134793,5
57142,134662,5
57143,134660,5
57176,134765,5
57236,134872,4
57323,135022,5
57415,135083,5
57404,135117,5
57305,134945,5
57232,134851,4
57243,134739,6
57331,135071,4
57473,135312,5
57603,135530,5
57724,135582,6
57829,135939,3
57895,136018,5
57924,136105,5
58114,136501,4
58380,136883,5
58562,137177,5
58650,137289,5
58654,137445,5
58589,137185,4
58662,137369,5
58871,137770,5
59109,138332,5
59295,138439,5
59449,138741,4
59673,139096,5
59821,139384,5
59824,139317,5
59845,139376,5
59975,139636,4
60126,139844,5
60181,139962,6
60331,140235,4
60510,140538,5
60662,140773,4
60762,141011,5
61046,141523,5
61410,142147,5
61776,142787,4
62099,143300,4
62385,143737,5
62533,143978,5
62521,143938,5
62494,143919,4
62588,144138,5
62842,144612,5
63184,145194,5
63551,145855,5
63924,146419,4
64185,146810,5
64321,147082,5
64581,147538,5
64918,148094,5
65235,148614,4
65538,149135,5
65937,149816,5
66372,150605,6
66876,151478,4
67460,152548,4
68177,153738,5
68747,154615,5
69198,155306,5
69586,155956,4
69999,156615,4
70344,157090,5
70417,157187,5
70537,157495,5
70824,157934,4
71061,158286,5
71281,158592,5
71422,158821,5
71483,158829,5
71541,159037,4
71803,159477,5
72127,159961,5
72331,160199,5
72415,160284,5
72459,160315,5
72443,160309,4
72449,160330,5
72570,160552,5
72768,160867,6
73016,161270,3
73258,161612,5
73365,161724,5
73443,161843,5
73591,162029,4
73586,161965,4
73509,161851,5
73416,161706,5
73328,161581,5
73302,161575,4
73365,161669,5
73476,161823,5
73579,161990,5
73585,161926,5
73476,161746,4
73445,161749,5
73426,161682,5
73368,161567,5
73258,161372,5
73132,161201,4
73107,161179,6
73030,161028,4
72883,160795,5
72769,160626,5
72650,160401,4
72430,160160,5
72303,159846,5
72131,159642,5
72111,159638,5
71856,159492,4
71923,159312,5
71762,159022,5
71528,158654,5
71040,158241,4
70993,157816,4
70865,157648,5
70859,157632,5
70685,157447,5
70683,157330,4
70585,157179,5
70504,157071,5
70611,156962,5
70342,156800,5
70293,156728,4
70286,156713,5
70437,156511,6
69995,156165,4
69648,155602,5
69324,155115,4
69299,154849,5
68943,154465,5
68743,154158,5
68642,154072,5
68707,154118,4
68691,154126,5
68622,153985,5
68494,153766,5
68336,153377,4
68190,153294,4
68104,153166,5
68060,153060,5
67897,152599,5
67789,152631,4
67655,152434,5
67562,152281,5
67458,151907,5
67310,151860,5
67225,151793,4
67251,151822,5
67214,151837,4
67222,151776,6
67177,151626,4
66979,151288,4
66744,151133,5
66450,150428,5
66227,150103,5
66118,149934,5
66043,150039,4
65998,149761,5
65872,149541,5
65715,149272,5
65576,149100,4
65454,148883,4
65406,148823,5
65367,148724,5
65265,148552,5
65095,148228,4
64824,147721,5
64549,147268,5
64232,146730,5
63922,146237,5
63719,145937,5
63629,145853,4
63707,145997,5
63677,145913,5
63591,145752,5
63504,145645,4
63472,145574,5
63401,145460,7
63366,145432,3
63318,145307,5
63259,145244,4
63215,145146,5
63090,144935,5
63011,144784,5
62885,144557,5
62778,144398,4
62735,144329,5
62636,144115,5
62505,143932,5
62444,143831,4
62403,143802,5
62407,143808,5
62425,143827,5
62407,143806,5
62414,143814,4
62402,143818,6
62443,143865,4
62404,143767,5
62355,143684,5
62323,143618,4
62244,143477,5
62184,143380,5
62161,143320,5
62039,143131,5
61949,142954,4
61845,142836,5
61868,142853,5
61871,142861,5
61845,142817,5
61805,142776,4
61770,142714,5
61764,142679,5
61727,142629,5
61651,142474,4
61559,142315,4
61468,142182,5
61371,142022,5
61320,141936,5
61265,141817,4
61181,141701,5
61124,141579,6
61011,141383,4
60918,141241,5
60839,141105,4
60744,140933,5
60674,140848,5
60621,140754,5
60623,140782,5
60615,140731,4
60547,140610,5
60516,140572,5
60463,140458,5
60373,140332,5
60321,140256,4
60264,140153,5
60237,140139,5
60211,140084,5
60161,140011,4
60164,140021,4
60134,139972,5
60105,139954,5
60031,139940,5
60072,139920,4
60090,139900,5
60025,139780,5
59777,139665,5
59908,139610,5
59879,139557,4
59873,139574,5
59698,139541,5
59786,139416,5
59730,139294,5
59611,139090,4
59518,138916,5
59420,138783,5
59335,138651,5
59302,138619,5
59469,138622,4
59313,138685,5
59368,138743,5
59378,138742,5
59550,138724,4
59346,138674,4
59299,138572,5
59258,138518,5
59281,138462,5
59204,138434,5
59183,138393,4
59116,138287,5
59087,138193,5
59058,138174,5
59030,138108,4
59011,138109,5
58989,137938,5
58987,138058,5
58960,138000,5
58902,137899,4
58848,137643,5
58783,137703,5
58697,137576,5
58653,137494,5
58601,137393,4
58580,137376,5
58508,137229,5
58367,137000,5
58276,136987,4
58167,136653,4
58052,136459,6
57976,136343,4
57877,136392,5
57842,136126,4
57791,136020,7
57676,135840,3
57586,135797,5
57494,135544,5
57407,135434,4
57376,135362,5
57315,135281,5
57320,135283,5
57294,135245,5
57259,135191,4
57238,135124,5
57175,135009,5
57092,134872,5
57023,134727,5
56954,134638,4
56918,134577,5
56870,134492,5
56849,134458,5
56841,134455,5
56825,134424,4
56795,134372,5
56717,134233,6
56685,134192,4
56661,134157,4
56603,134029,5
56557,133948,5
56479,133825,5
56418,133705,5
56382,133657,4
56326,133567,5
56324,133567,5
56319,133529,5
56267,133438,5
56210,133355,4
56190,133307,5
56137,133217,5
56108,133171,5
56074,133139,5
56100,133179,4
56118,133201,5
56111,133192,5
56122,133200,5
56106,133182,5
56109,133174,4
56118,133196,5
56123,133230,5
56198,133346,6
56250,133442,3
56296,133540,4
56310,133540,5
56277,133480,5
56251,133452,5
56209,133315,4
56111,133182,5
56069,133107,5
55995,132963,5
55919,132846,5
55867,132774,4
55806,132666,5
55770,132629,5
55714,132541,5
55700,132528,5
55708,132499,4
55658,132420,5
55602,132313,5
55538,132187,5
55437,132015,5
55384,131924,5
55307,131789,4
55292,131763,5
55255,131661,5
55149,131492,6
55073,131370,3
54991,131193,5
54860,130970,5
54803,131577,5
54756,131504,4
54758,131517,5
54756,131497,5
54728,131430,5
54717,131407,5
54686,131342,4
54612,131206,5
54481,131026,5
54415,130906,5
54398,130875,5
54348,130750,4
54142,130614,5
54205,130514,5
54147,130425,5
54113,130391,5
53959,130366,4
54117,130412,6
54138,130427,4
54113,130376,5
54059,130365,4
54103,130363,4
54113,130380,5
54119,130410,5
54252,130433,5
54186,130546,4
54228,130594,5
54227,130574,5
54384,130580,5
54237,130601,5
54236,130608,4
54248,130630,5
54308,130610,5
54232,130595,5
54203,130540,5
54156,130456,4
54153,130426,5
54105,130378,5
54082,130358,5
54083,130353,5
54053,130236,4
54047,130313,5
54044,130292,6
54046,130306,4
54084,130223,4
54115,130449,4
54178,130550,5
54207,130575,5
54176,130411,5
54140,130475,4
54148,130481,5
54176,130537,5
54193,130642,5
54196,130574,5
54217,130590,4
54191,130540,5
54116,130562,5
54052,130317,5
54050,130331,5
54061,130347,4
54056,130437,5
54049,130318,5
54033,130268,5
53932,130073,5
53830,129942,4
53791,129871,5
53817,129928,5
53863,130000,6
53886,130039,4
53914,130074,4
53899,130024,5
53798,129827,5
53705,129693,5
53695,129730,4
53801,129901,5
53888,130032,5
53928,130101,5
53946,130107,5
53884,130007,4
53834,129935,5
53840,129960,5
53911,130097,5
53977,130192,5
54004,130209,4
54013,130215,5
53971,130126,5
53861,129933,5
53796,129856,5
53793,129878,5
53835,129927,4
53848,129960,5
53849,129970,5
53861,129962,5
53797,129826,4
53708,129689,5
53674,129682,5
53717,129746,5
53777,129836,4
53815,129909,4
53859,129988,5
53857,129942,5
53787,129814,5
53738,129781,4
53782,129873,5
53863,129991,5
53904,130049,5
53920,130087,5
53947,130118,4
53921,130049,5
53853,129948,5
53846,129962,5
53879,130012,5
53914,130071,4
53937,130112,6
53953,130149,4
53944,130085,5
53861,129944,5
53806,129884,4
53841,129946,5
53901,130074,5
54000,130233,5
54090,130392,4
54194,130548,4
54210,130561,5
54179,130488,5
54152,130467,5
54184,130523,4
54228,130618,5
54247,130645,5
54278,130667,5
54261,130631,5
54193,130493,4
54109,130352,5
54084,130362,5
54133,130448,5
54190,130518,5
54221,130581,4
54270,130677,5
54274,130631,6
54174,130442,4
54092,130363,5
54116,130419,4
54184,130498,5
54206,130548,5
54235,130584,5
54152,130598,4
54220,130541,4
54165,130462,5
54165,130477,5
54085,130585,5
54297,130706,4
54353,130764,5
54332,130759,5
54215,130707,5
54254,130583,5
54169,130456,4
54162,130467,5
54283,130579,5
54289,130682,5
54336,130752,5
54362,130787,4
54499,130736,5
54287,130640,5
54269,130636,5
54337,130762,5
54535,130910,4
54468,130988,5
54494,131017,5
54495,130992,5
54448,130842,5
54341,130731,4
54341,130763,5
54395,130872,5
54454,130892,5
54488,131006,4
54505,131036,5
54471,130963,5
54379,130649,5
54327,130733,5
54363,130824,4
54449,130964,6
54517,130905,4
54572,131149,5
54613,131234,5
54622,131216,6
54591,131214,3
54616,131238,5
54691,131371,5
54778,131532,5
54854,131803,4
54916,131734,5
54932,131736,5
54894,131667,5
54832,131736,5
54837,131601,4
54900,131724,5
54974,131844,5
55020,131952,5
55051,131952,4
55044,131925,4
55000,131826,5
54930,131753,5
54967,131820,5
55050,131986,4
55131,132104,5
55170,132167,5
55218,132260,5
55242,132277,5
55216,132228,4
55218,132230,6
55280,132381,4
55400,132565,5
55427,132610,5
55427,132597,4
55454,132646,5
55458,132657,5
55449,132623,5
55430,132614,5
55481,132745,4
55630,133002,5
55787,133252,5
55911,133490,5
56049,133722,4
56132,133838,4
56153,133845,5
56152,133876,5
56226,134015,5
56346,134214,4
56424,134327,10
56486,134436,5
56541,134513,5
56553,134521,4
56517,134496,5
56540,134557,6
56616,134688,4
56730,134888,5
56826,135034,4
56886,135157,5
56919,135181,5
56915,135123,5
56871,135063,5
56869,135095,4
56915,135180,5
56986,135302,5
57040,135391,5
57097,135484,4
57101,135471,4
57071,135404,5
56993,135286,5
56983,135287,5
57031,135386,4
57098,135466,5
57101,135447,5
57090,135444,5
57049,135365,5
56998,135276,3
56954,135223,5
56975,135273,5
57053,135427,5
57125,135527,5
57166,135582,4
57190,135623,5
57182,135594,5
57159,135539,5
57098,135450,5
57093,135480,4
57163,135592,5
57218,135680,5
57256,135702,5
57269,135728,4
57287,135753,4
57292,135751,5
57268,135711,5
57254,135710,5
57320,135848,4
57423,135999,6
57482,136092,4
57490,136112,5
57426,136098,5
57482,136076,6
57433,136003,3
57426,135985,5
57309,136058,5
57488,136109,5
57496,136085,4
57470,136068,5
57316,136068,5
57461,136031,5
57389,135900,5
57322,135792,4
57359,135811,5
57333,135845,5
57337,135849,5
57349,135888,5
57538,135901,4
57382,135913,5
57386,135929,5
57413,135980,5
57616,136068,4
57508,136148,5
57528,136163,6
57526,136152,4
57593,136193,5
57564,136206,4
57563,136224,7
57589,136261,3
57617,136265,5
57674,136401,5
57705,136455,4
57714,136485,5
57767,136435,5
57785,136618,5
57778,136593,5
57776,136587,4
57777,136428,5
57783,136605,5
57773,136563,5
57750,136543,5
57762,136546,4
57749,136542,5
57732,136518,5
57739,136523,5
57732,136662,4
57732,136511,4
57726,136511,5
57722,136485,6
57719,136686,4
57728,136499,4
57718,136499,5
57728,136508,5
57728,136567,5
57723,136486,5
57725,136495,4
57724,136470,5
57718,136508,5
57733,136498,5
57723,136499,5
57728,136495,4
57725,136486,5
57716,136470,5
57708,136446,5
57683,136403,5
57667,136402,4
57667,136381,5
57650,136352,5
57646,136361,5
57633,136347,5
57636,136330,4
57624,136305,5
57596,136264,5
57570,136239,6
57555,136205,3
57537,136165,5
57544,136178,5
57549,136191,5
57549,136189,5
57554,136219,4
57558,136217,5
57557,136226,5
57584,136242,5
57586,136269,5
57610,136314,4
57625,136307,5
57575,136219,5
57541,136166,5
57502,136110,5
57489,136103,4
57507,136099,5
57485,136087,5
57492,136092,5
57493,136114,5
57503,136111,5
57490,136079,4
57458,136031,5
57454,136028,5
57459,136027,6
57430,135988,3
57415,135968,5
57418,135962,5
57419,135961,5
57402,135947,4
57380,135895,5
57369,135891,5
57365,135871,5
57357,135877,5
57358,135889,4
57367,135873,5
57348,135846,5
57319,135800,5
57272,135716,5
57244,135656,4
57225,135611,5
57193,135594,5
57188,135576,5
57167,135517,5
57112,135465,4
57109,135453,6
57085,135383,4
57030,135298,5
57016,135269,4
56974,135218,4
56971,135230,5
56990,135236,5
56973,135208,5
56952,135165,4
56915,135106,5
56887,135059,5
56887,135068,5
56867,135037,5
56875,135052,4
56895,135086,5
56852,135077,5
56889,135062,5
56873,135033,5
56848,134998,4
56724,135008,5
56836,134976,5
56822,134968,5
56828,134987,5
56660,134959,4
56794,134908,5
56794,134892,6
56787,134876,4
56762,134908,4
56776,134879,4
56773,134894,5
56795,134910,5
56930,134917,5
56783,134881,4
56762,134850,5
56728,134785,5
56888,134765,5
56689,134717,5
56686,134735,4
56698,134740,5
56766,134743,5
56687,134734,5
56694,134737,5
56690,134732,4
56703,134731,5
56687,134683,5
56609,134567,5
56584,134565,5
56603,134477,4
56597,134577,5
56576,134539,5
56553,134499,6
56536,134319,4
56533,134461,4
56533,134461,5
56540,134480,5
56550,134516,5
56557,134431,4
56554,134490,5
56540,134483,5
56545,134484,5
56539,134584,5
56539,134476,4
56546,134511,5
56579,134582,5
56610,134806,5
56622,134611,5
56620,134618,4
56611,134605,5
56603,134680,5
56595,134584,5
56583,134537,5
56567,134518,5
56567,134552,4
56569,134532,5
56543,134467,5
56514,134419,5
56484,134378,4
56486,134401,5
56476,134371,5
56477,134384,5
56483,134387,4
56480,134390,4
56487,134389,5
56485,134391,5
56481,134393,5
56492,134396,4
56478,134381,5
56470,134382,5
56472,134377,5
56454,134327,5
56435,134296,4
56402,134233,5
56378,134182,5
56356,134158,5
56351,134157,5
56334,134135,4
56328,134126,6
56347,134156,4
56345,134155,5
56336,134142,5
56334,134103,4
56311,134094,5
56305,134078,5
56315,134074,5
56304,134073,4
56281,134026,4
56240,133945,5
56207,133897,5
56177,133826,5
56150,133798,4
56139,133769,5
56108,133736,5
56107,133749,5
56103,133719,5
56077,133677,4
56059,133642,5
56033,133602,5
56018,133565,5
56014,133544,5
55991,133519,4
55987,133516,5
55987,133486,6
55950,133423,4
55910,133357,5
55897,133336,4
55896,133341,5
55885,133327,5
55887,133340,5
55905,133365,4
55912,133359,4
55892,133338,5
55895,133325,5
55888,133306,5
55846,133251,4
55838,133229,5
55814,133190,5
55808,133176,5
55789,133122,5
55706,132974,4
55630,132841,5
55572,132772,5
55552,132725,5
55536,132708,5
55530,132711,4
55525,132701,5
55497,132656,5
55488,132629,5
55485,132622,5
55474,132596,4
55451,132585,5
55457,132570,5
55433,132556,5
55446,132539,5
55304,132492,4
55360,132424,5
55350,132414,5
55340,132381,5
55157,132348,4
55299,132309,5
55283,132282,5
55264,132232,5
55120,132143,5
55163,132066,4
55127,132024,5
55110,131968,5
55198,131992,5
55091,131944,5
55049,131855,5
54955,131689,4
55039,131566,5
54827,131478,5
54793,131418,5
54753,131362,4
54848,131323,5
54691,131220,5
54604,131067,5
54487,130900,5
54474,130820,4
54425,130811,5
54414,130796,5
54418,130789,5
54423,130716,4
54408,130759,4
54365,130677,5
54308,130585,5
54287,130444,5
54308,130609,5
54314,130624,4
54316,130628,5
54320,130468,5
54300,130587,5
54233,130468,4
54181,130393,6
54177,130443,4
54213,130461,5
54230,130474,5
54254,130528,4
54282,130703,5
54270,130535,5
54226,130447,5
54199,130423,5
54211,130631,4
54266,130541,5
54275,130563,5
54291,130588,5
54298,130641,5
54291,130559,4
54230,130448,5
54192,130410,5
54208,130457,5
54247,130519,4
54273,130532,5
54285,130555,5
54280,130547,5
54268,130504,4
54199,130401,4
54177,130378,5
54212,130441,5
54238,130489,5
54251,130501,5
54256,130527,4
54257,130500,5
54202,130388,5
54144,130304,5
54152,130329,5
54197,130416,4
54219,130445,5
54238,130481,5
54248,130474,5
54197,130380,5
54096,130206,4
54022,130077,5
54008,130097,5
54043,130157,5
54072,130187,5
54097,130215,4
54069,130171,5
54031,130092,5
53941,129946,6
53908,129920,3
53946,129984,5
53972,130020,5
53984,130042,5
53994,130044,5
53966,129980,4
53913,129886,5
53835,129781,5
53839,129811,5
53921,129943,5
53974,130029,7
54002,130071,2
54039,130133,5
54056,130167,5
54065,130133,5
54051,130171,4
54151,130362,5
54304,130624,5
54426,130815,5
54493,130935,4
54546,131009,5
54553,131026,4
54528,130965,5
54482,130907,5
54526,131006,6
54606,131154,3
54654,131196,5
54655,131193,5
54633,131131,5
54587,131056,4
54493,130921,5
54466,130895,5
54521,130968,5
54551,131016,5
54562,131026,4
54571,131056,5
54575,131040,5
54533,130966,5
54494,130896,5
54508,130954,4
54566,131056,5
54619,131128,5
54636,131165,5
54655,131198,5
54656,131177,4
54627,131114,6
54573,131051,4
54548,131118,5
54659,131220,4
54700,131279,5
54721,131304,5
54629,131350,5
54740,131324,5
54705,131256,4
54666,131207,5
54550,131292,5
54769,131419,5
54813,131439,5
54810,131460,4
54817,131476,5
54821,131469,5
54797,131413,5
54795,131435,5
54991,131586,4
54973,131762,5
55041,131868,5
55091,131959,5
55335,132055,5
55184,132117,4
55165,132074,5
55157,132078,6
55302,132224,4
55321,132367,4
55358,132394,4
55352,132397,5
55362,132381,5
55323,132315,5
55237,132187,4
55205,132177,5
55259,132158,5
55310,132318,5
55311,132330,5
55320,132345,4
55331,132192,5
55316,132343,5
55285,132266,5
55258,132232,5
55258,132162,4
55284,132285,5
55286,132287,5
55283,132285,5
55279,132379,5
55269,132254,4
55235,132189,5
55221,132194,5
55285,132497,6
55335,132403,3
55360,132405,4
55361,132410,5
55369,132541,5
55361,132408,5
55329,132330,4
55292,132318,5
55341,132414,5
55380,132450,5
55388,132473,5
55407,132500,4
55434,132532,5
55425,132516,5
55387,132460,5
55397,132479,5
55449,132587,4
55494,132647,5
55508,132674,5
55521,132702,5
55538,132708,5
55521,132674,5
55479,132614,4
55477,132620,5
55526,132700,5
55559,132762,6
55570,132771,3
55586,132822,5
55592,132810,5
55572,132774,5
55537,132727,4
55568,132793,5
55634,132920,5
55688,132993,5
55728,133059,5
55761,133131,4
55771,133144,5
55758,133088,5
55748,133088,5
55782,133191,5
55865,133326,4
55945,133440,5
55989,133539,5
56057,133651,5
56080,133685,5
56096,133688,4
56077,133668,6
56111,133759,4
56195,133901,5
56264,134007,5
56281,134030,4
56298,134069,5
56299,134061,5
56296,134040,5
56269,133989,4
56282,134046,4
56338,134137,5
56379,134189,5
56381,134182,5
56380,134193,4
56398,134225,5
56421,134254,5
56400,134226,5
56388,134228,5
56427,134298,4
56489,134392,5
56509,134421,5
56523,134452,5
56571,134544,5
56612,134618,4
56641,134645,5
56657,134691,6
56736,134841,4
56806,134967,5
56847,135005,4
56858,135018,5
56900,135085,5
56925,135132,5
56933,135152,4
56943,135170,4
56974,135217,5
57004,135278,5
57016,135288,5
57013,135272,4
57029,135301,5
57035,135319,5
57039,135318,5
57019,135289,5
57025,135312,4
56970,135348,5
57060,135352,5
57063,135349,5
57073,135390,5
56923,135383,4
57075,135372,5
57064,135377,5
57092,135432,6
56980,135472,4
57155,135519,4
57159,135492,5
57130,135469,5
57174,135458,5
57122,135458,5
57120,135467,4
57131,135482,5
57301,135492,5
57135,135481,5
57126,135478,4
57147,135523,4
57346,135610,5
57214,135631,5
57226,135654,5
57245,135678,4
57310,135704,5
57273,135712,5
57262,135700,5
57267,135710,5
57313,135720,5
57300,135778,4
57315,135798,5
57347,135837,5
57353,135740,5
57371,135892,4
57372,135872,5
57376,135878,5
57394,135772,5
57381,135908,5
57375,135878,4
57369,135903,5
57373,135879,5
57367,135868,5
57359,135862,4
57349,135847,4
57352,136005,5
57355,135848,5
57344,135849,5
57352,135849,4
57347,136017,5
57333,135832,5
57332,135831,5
57320,135801,5
57324,135911,4
57335,135824,7
57327,135815,3
57324,135818,5
57333,135828,5
57317,135803,4
57316,135783,5
57313,135782,5
57314,135799,5
57339,135833,5
57323,135816,4
57331,135845,5
57369,135903,5
57397,135933,5
57410,135964,5
57429,135987,4
57432,135994,5
57446,136015,5
57434,136012,5
57462,136047,4
57491,136098,5
57490,136100,5
57486,136073,5
57473,136046,5
57451,136033,4
57466,136053,5
57445,136000,6
57435,136001,4
57443,136012,5
57428,135992,4
57420,135958,5
57400,135931,5
57376,135894,5
57373,135900,5
57354,135861,4
57338,135834,5
57327,135829,5
57306,135780,5
57286,135738,5
57263,135713,4
57240,135675,5
57239,135658,5
57220,135641,5
57215,135645,4
57226,135642,4
57203,135588,5
57149,135510,5
57111,135433,5
57047,135336,4
57029,135312,5
56974,135179,5
56875,135047,5
56874,135063,5
56893,135084,4
56864,135036,5
56820,134956,5
56764,134868,5
56730,134837,5
56732,134839,4
56751,134858,5
56763,134886,5
56768,134864,5
56707,134767,5
56625,134624,4
56558,134497,5
56519,134457,5
56496,134408,5
56457,134384,5
56499,134451,4
56533,134500,5
56547,134528,5
56539,134518,5
56514,134447,5
56472,134402,3
56455,134337,5
56411,134282,5
56410,134307,5
56421,134312,4
56428,134324,5
56414,134319,5
56399,134266,5
56380,134258,5
56401,134280,4
56389,134271,5
56408,134314,5
56314,134268,5
56340,134146,5
56261,134012,4
56205,133955,5
56093,134060,5
56393,134333,5
56510,134535,5
56662,134806,4
56642,134983,6
56754,134858,4
56605,134593,5
56435,134284,4
56326,134043,6
56252,134041,3
56264,134066,5
56314,134179,5
56537,134253,4
56336,134162,5
56255,134008,5
56215,133951,5
56332,133902,5
56196,133940,4
56243,134069,5
56415,134354,5
56537,134429,5
56439,134323,5
56344,134130,4
56197,133887,5
56115,133726,5
56129,133860,5
56216,134005,5
56338,134229,4
56530,134438,5
56631,134670,6
56565,134510,4
56386,134203,5
56239,133812,4
56192,133935,5
56194,133951,5
56315,134178,5
56412,134308,4
56441,134361,5
56444,134349,5
56462,134389,5
56502,134587,5
56539,134492,4
56526,134496,5
56537,134509,5
56472,134553,5
56346,134157,5
56234,133989,4
56225,133992,5
56269,134177,5
56428,134391,5
56568,134640,5
56757,134925,4
56785,134906,5
56700,134749,5
56626,134630,6
56521,134448,4
56380,134199,4
56277,134025,5
56162,133867,5
56223,134019,5
56370,134289,4
56474,134404,4
56453,134324,5
56302,134015,5
56152,133820,5
56163,133883,4
56214,133997,5
56345,134220,5
56475,134402,5
56373,134132,5
56150,133756,4
56028,133597,5
56058,133681,5
56141,133793,5
56122,133759,5
56187,133925,5
56277,134032,4
56266,133992,5
56180,133800,5
56077,133695,6
56119,133808,3
56260,134041,5
56314,134095,5
56350,134197,5
56415,134273,5
56410,134260,4
56400,134236,5
56340,134125,5
56253,133951,5
56171,133848,4
56139,133806,5
56300,134173,5
56518,134452,5
56471,134298,5
56276,133961,4
56150,133798,5
56138,133798,5
56151,133836,5
56143,133806,5
56177,133900,4
56279,134084,6
56350,134147,4
56322,134119,5
56303,134054,5
56288,134054,4
56353,134178,5
56426,134310,5
56555,134529,5
56620,134559,5
56468,134221,4
56130,133673,5
55948,133443,5
56032,133686,5
56310,134142,4
56529,134507,4
56700,134754,5
56710,134702,5
56587,134448,5
56440,134199,4
56249,133887,5
56023,133479,5
55870,133289,5
55848,133293,5
55988,133582,4
56151,133827,5
56216,133910,6
56144,133740,4
55966,133433,5
55738,133024,4
55538,132686,5
55419,132507,5
55499,132760,5
55868,133385,5
55951,133603,4
56043,133594,5
56086,133673,5
56223,133945,5
56296,134309,5
56627,134660,4
56882,135058,5
56911,135043,5
56651,134751,5
56579,134397,4
56373,134088,5
56341,134072,5
56458,134187,5
56562,134574,5
56862,135073,4
56991,135183,5
57115,135101,5
56852,134905,6
56754,134759,4
56760,134799,4
56938,134928,5
56888,135041,5
56966,135186,5
57085,135355,5
57131,135345,4
57084,135354,5
57104,135378,5
57060,135250,5
56921,134915,5
56781,134807,4
56814,134885,5
56840,134906,5
56813,134712,5
56769,134805,5
56857,135016,4
56974,135157,5
56966,134917,5
56905,135029,5
56863,134950,5
56861,134946,4
56821,134884,5
56751,134771,5
56794,134834,6
56866,134978,3
56848,135058,5
56786,134825,5
56792,134857,5
56824,134901,5
56869,135145,4
56885,134967,5
56810,134815,5
56751,134755,5
56729,134827,5
56917,135154,4
57210,135649,5
57291,135664,5
57128,135315,5
56872,134831,5
56558,134313,8
56770,134827,8
56770,134827,5
56866,134990,7
56894,134996,8
56829,134831,5
56693,134613,7
56558,134363,8
56536,134408,5
56572,134477,7
56584,134510,6
56584,134510,2
56807,134967,5
57136,135537,5
57328,135755,5
57312,135711,4
57202,135483,5
57030,135215,5
