RED,IR,EKG,TIME
53249,126804,10
53249,126804,9
53260,126825,7
53281,126869,8
53298,126879,5
53460,127162,7
53460,127162,8
53496,127189,5
53498,127216,7
53502,127219,8
53509,127240,7
53509,127241,8
53509,127241,5
53522,127260,7
53533,127278,8
53541,127289,5
53549,127308,7
53552,127330,8
53536,127347,5
53605,127411,7
53605,127411,8
53603,127398,9
53603,127403,5
53476,127421,8
53621,127430,7
53624,127444,5
53660,127501,8
53660,127501,7
53784,127547,10
53678,127551,5
53700,127573,7
53769,127698,8
53769,127698,5
53872,127743,7
53832,127780,8
53843,127820,7
53860,127857,5
53885,127897,8
53906,127949,7
54050,128194,7
54050,128194,8
54072,128265,7
54108,128150,5
54132,128320,10
54218,128486,9
54218,128486,8
54231,128494,7
54238,128584,5
54251,128507,8
54241,128524,7
54311,128647,7
54311,128647,10
54311,128761,5
54329,128685,5
54332,128721,9
54360,128741,5
54370,128752,5
54465,128901,8
54465,128901,7
54482,128950,12
54507,128960,7
54508,128981,5
54595,129140,10
54595,129140,9
54609,129159,8
54615,129179,7
54677,129269,9
54677,129269,10
54674,129272,5
54682,129289,7
54684,129275,8
54670,129283,5
54722,129352,7
54722,129352,8
54711,129361,5
54728,129358,7
54730,129384,8
54740,129383,5
54723,129340,7
54791,129467,8
54791,129467,5
54793,129504,7
54807,129515,8
54821,129538,5
54818,129546,7
54821,129505,8
54836,129567,5
54869,129625,7
54869,129625,8
54901,129627,7
54868,129622,8
54854,129602,5
54834,129600,7
54798,129489,8
54798,129489,5
54782,129451,7
54765,129403,8
54706,129334,5
54672,129263,7
54621,129206,8
54586,129125,5
54447,128901,7
54447,128901,8
54412,128850,9
54380,128784,5
54363,128761,8
54346,128716,7
54325,128693,5
54257,128584,8
54257,128584,7
54157,128573,10
54229,128530,5
54215,128513,7
54126,128356,8
54126,128356,7
54049,128332,5
54098,128304,8
54084,128278,7
54072,128264,5
54123,128255,8
54048,128232,7
53867,127908,7
53867,127908,8
53820,127847,7
53851,127707,5
53685,127588,8
53618,127469,7
53230,126819,10
53230,126819,7
53149,126593,5
53050,126519,5
52957,126411,10
52913,126300,5
52872,126091,0
52831,126150,5
52788,126063,5
52731,125945,4
52686,125766,5
52626,125808,5
52592,125741,5
52567,125705,5
52560,125731,4
52554,125664,5
52542,125650,5
52535,125638,5
52522,125771,5
52538,125646,5
52535,125671,4
52556,125669,5
52563,125829,5
52594,125749,6
52617,125789,3
52639,125830,5
52664,125910,5
52680,125918,5
52715,125954,4
52721,126004,5
52751,126009,5
52743,126005,5
52730,125981,5
52714,125935,4
52674,125882,5
52633,125819,5
52597,125731,5
52546,125661,5
52500,125578,4
52435,125433,5
52314,125224,5
52164,124926,5
51952,124536,5
51701,124083,4
51451,123636,6
51183,123141,4
50918,122671,5
50658,122232,5
50434,121834,4
50241,121497,5
50060,121191,5
49877,120867,5
49705,120527,4
49522,120189,4
49319,119847,5
49128,119481,5
48981,119189,5
48842,118962,4
48717,118709,5
48561,118403,5
48384,118072,5
48213,117757,5
48068,117493,4
47943,117279,5
47850,117103,5
47777,116950,5
47705,116809,5
47629,116634,4
47532,116478,5
47464,116344,6
47399,116254,4
47365,116175,5
47332,116134,4
47311,116083,5
47287,116020,5
47253,115976,5
47227,115917,5
47212,115894,4
47209,115884,5
47199,115867,5
47186,115836,5
47164,115788,4
47117,115698,4
47066,115602,5
47025,115518,5
46986,115464,5
46973,115422,4
46949,115395,5
46942,115381,5
46938,115381,5
46939,115350,5
46917,115313,4
46880,115224,5
46814,115087,5
46731,114949,6
46663,114807,4
46594,114689,4
46555,114614,5
46526,115304,5
46507,115255,5
46481,115201,5
46444,115143,4
46420,115092,5
46403,115052,5
46398,115040,5
46393,115034,5
46374,114995,4
46310,114960,5
46333,114920,5
46325,114888,5
46298,114854,4
46197,114847,4
46299,114851,5
46309,114873,5
46310,114867,5
46191,114825,5
46274,114778,4
46234,114706,5
46186,114604,5
46183,114546,6
46129,114490,3
46113,114491,5
46116,114504,5
46247,114524,5
46145,114552,5
46185,114616,4
46220,114704,5
46375,114816,5
46344,114926,5
46412,115046,5
46477,115177,4
46611,115371,5
46689,115561,5
46784,115719,5
46834,115850,4
46913,115917,4
46953,116047,5
47016,116149,5
47073,116264,5
47142,116312,4
47227,116555,6
47307,116713,4
47383,116854,5
47474,116895,5
47552,117176,5
47653,117355,4
47761,117562,5
47882,117787,5
47991,118003,5
48088,118149,4
48146,118263,5
48198,118460,5
48253,118460,5
48305,118541,5
48347,118632,4
48380,118848,5
48442,118818,5
48494,118910,5
48552,119016,5
48612,119176,4
48661,119231,5
48688,119257,5
48696,119265,5
48693,119266,4
48676,119240,4
48672,119219,6
48656,119191,4
48641,119157,5
48629,119146,4
48622,119146,5
48620,119125,5
48614,119107,5
48598,119089,5
48591,119088,4
48589,119094,5
48596,119100,5
48603,119104,5
48616,119118,5
48601,119100,4
48594,119088,5
48583,119051,5
48556,119007,5
48529,118980,5
48520,118963,4
48516,118957,5
48527,118975,5
48533,118979,5
48535,118991,6
48542,118990,3
48542,119002,5
48550,119011,6
48561,119039,4
48561,119029,4
48562,119022,4
48549,118998,5
48520,118951,5
48492,118895,5
48455,118833,4
48422,118760,5
48399,118739,5
48379,118721,5
48374,118701,5
48372,118689,4
48376,118689,5
48378,118696,5
48370,118691,5
48375,118710,5
48385,118701,4
48384,118717,5
48384,118721,5
48380,118715,5
48383,118717,5
48393,118727,4
48398,118737,5
48394,118751,5
48409,118764,5
48427,118783,5
48430,118806,4
48449,118831,5
48460,118853,5
48470,118878,5
48498,118922,4
48521,118986,4
48557,119031,5
48589,119096,5
48639,119185,5
48698,119291,4
48758,119403,5
48845,119582,5
48947,119795,5
49094,120066,5
49265,120390,4
49464,120755,5
49679,121156,5
49907,121564,5
50122,121929,5
50310,122285,5
50488,122607,4
50656,122908,5
50807,123183,5
50937,123460,5
51107,123724,4
51238,123974,5
51387,124220,5
51410,124454,5
51631,124667,5
51744,124892,4
51861,125089,5
51845,125290,5
52093,125498,5
52190,125680,4
52290,125863,4
52351,126022,5
52463,126167,5
52534,126287,5
52592,126394,4
52747,126486,5
52701,126589,6
52755,126687,4
52818,126782,5
53024,126900,4
52935,127010,6
52992,127100,4
53036,127191,5
53148,127258,5
53103,127322,4
53145,127381,5
53172,127420,5
53197,127435,5
53182,127443,5
53186,127456,4
53186,127453,5
53189,127368,5
53186,127454,5
53193,127461,5
53191,127460,4
53199,127325,5
53191,127461,5
53195,127465,5
53192,127471,4
53186,127368,4
53158,127395,5
53103,127296,5
53039,127174,5
52969,127136,4
52907,126955,5
52864,126884,5
52819,126824,5
52791,126912,5
52759,126721,4
52723,126659,5
52705,126615,5
52668,126652,5
52640,126509,5
52616,126457,4
52564,126377,5
52529,126316,5
52465,126190,5
52401,126071,5
52327,125954,4
52261,125834,5
52173,125671,5
52083,125505,5
51970,125291,5
51838,125071,4
51693,124798,5
51550,124548,5
51418,124311,6
51292,124103,3
51200,123959,5
51125,123828,5
51063,123713,5
50996,123595,5
50917,123471,4
50860,123366,5
50805,123264,5
50759,123192,5
50723,123130,5
50704,123084,4
50687,123074,5
50691,123078,5
50704,123085,5
50720,123131,5
50738,123164,4
50758,123204,5
50785,123263,5
50826,123311,5
50849,123359,5
50872,123399,5
50883,123437,4
50908,123452,5
50939,123512,5
50965,123561,6
50989,123605,3
51018,123653,5
51046,123695,5
51066,123734,5
51082,123774,4
51102,123797,5
51116,123820,5
51138,123843,5
51154,123869,5
51159,123893,4
51174,123909,5
51183,123915,5
51176,123927,5
51176,123916,5
51177,123912,4
51166,123900,5
51150,123871,5
51133,123833,5
51102,123774,5
51067,123714,4
51027,123656,6
50987,123591,4
50960,123521,5
50925,123485,5
50899,123440,6
50878,123397,3
50866,123397,5
50860,123359,5
50847,123346,4
50836,123320,4
50806,123262,5
50762,123181,5
50714,123075,5
50637,122968,4
50578,122845,5
50523,122754,5
50469,122667,5
50426,122602,5
50391,122516,4
50356,122457,5
50309,122374,5
50272,122315,5
50225,122237,5
50187,122163,4
50086,122088,5
50121,122044,6
50082,121963,4
50057,121916,5
49923,121888,4
50033,121874,5
50029,121867,5
50033,121888,5
49968,121912,5
50056,121931,4
50062,121937,5
50086,121972,5
50153,121976,5
50100,122000,4
50109,122010,4
50123,122041,5
50282,122101,5
50195,122178,5
50243,122255,4
50282,122327,5
50406,122393,5
50373,122474,5
50420,122569,5
50490,122708,4
50592,122854,5
50662,123008,5
50772,123204,6
50881,123415,4
51016,123583,4
51139,123885,5
51274,124124,5
51399,124340,5
51524,124438,5
51644,124765,4
51763,124965,5
51869,125153,5
51966,125204,5
52055,125497,5
52137,125653,4
52227,125795,5
52310,125996,5
52400,126097,5
52474,126242,4
52533,126330,5
52594,126552,5
52615,126457,5
52628,126484,5
52637,126500,5
52651,126630,4
52653,126540,5
52669,126563,5
52681,126593,6
52712,126662,3
52735,126663,5
52744,126692,5
52754,126711,5
52751,126703,5
52763,126726,4
52780,126748,5
52782,126777,5
52809,126790,5
52811,126811,5
52805,126812,4
52825,126818,5
52828,126848,5
52837,126858,5
52851,126885,4
52872,126922,5
52897,126966,5
52923,127015,5
52947,127070,5
52979,127104,4
53011,127165,6
53034,127207,4
53060,127259,5
53086,127316,5
53121,127358,4
53151,127410,5
53182,127473,5
53232,127546,5
53272,127618,5
53321,127707,4
53369,127805,5
53425,127905,5
53488,128008,5
53545,128110,5
53599,128206,4
53655,128279,5
53684,128337,5
53717,128392,5
53738,128440,4
53757,128479,4
53783,128506,5
53795,128546,5
53808,128568,5
53827,128592,4
53836,128603,4
53842,128602,6
53821,128577,4
53817,128567,5
53803,128546,4
53789,128522,5
53769,128491,5
53746,128443,5
53722,128392,5
53696,128351,4
53679,128333,5
53654,128298,5
53644,128268,5
53631,128248,5
53601,128190,4
53579,128142,5
53558,128121,5
53544,128110,5
53546,128100,5
53540,128103,4
53526,128088,5
53531,128087,5
53540,128098,5
53547,128097,5
53558,128124,4
53554,128130,5
53560,128138,6
53573,128150,4
53579,128178,4
53603,128208,5
53625,128260,5
53656,128308,5
53685,128366,5
53707,128403,4
53746,128445,5
53754,128481,5
53769,128497,5
53700,128486,5
53765,128487,4
53769,128486,5
53765,128476,5
53633,128474,5
53750,128455,5
53756,128451,4
53742,128459,5
53617,128454,5
53749,128449,5
53741,128433,5
53739,128429,4
53767,128430,5
53740,128437,5
53740,128439,5
53743,128449,5
53882,128458,4
53759,128468,5
53766,128494,5
53791,128534,5
53940,128582,4
53827,128603,4
53852,128638,5
53877,128688,5
53947,128738,5
53935,128802,4
53979,128854,5
53997,128918,5
54037,128913,5
54061,129007,5
54088,129048,4
54114,129112,5
54150,129062,5
54189,129247,5
54227,129323,5
54277,129387,5
54311,129323,4
54350,129521,5
54387,129594,5
54429,129657,5
54462,129717,4
54490,129775,5
54518,129824,5
54545,129878,5
54579,130039,5
54602,129954,4
54620,129997,5
54642,130035,5
54652,130218,5
54671,130090,4
54695,130127,4
54713,130165,5
54732,130262,5
54746,130215,5
54757,130252,4
54776,130281,5
54800,130328,5
54816,130345,5
54824,130356,5
54842,130399,4
54862,130421,6
54878,130451,4
54886,130460,5
54893,130467,5
54885,130473,4
54895,130481,5
54910,130502,5
54918,130522,5
54923,130537,5
54930,130547,4
54935,130542,5
54927,130540,5
54932,130549,5
54935,130553,5
54933,130559,4
54933,130565,5
54933,130562,5
54936,130551,5
54928,130539,4
54923,130530,4
54914,130515,5
54914,130491,5
54899,130483,5
54888,130470,4
54874,130433,5
54871,130431,6
54869,130428,4
54857,130428,5
54864,130427,4
54858,130401,5
54842,130378,5
54826,130357,5
54816,130343,5
54817,130330,4
54802,130311,8
54801,130308,2
54789,130284,5
54775,130270,5
54793,130269,4
54775,130273,5
54778,130278,5
54782,130279,5
54774,130279,5
54771,130281,4
54777,130268,5
54775,130268,5
54773,130277,5
54765,130256,4
54774,130263,4
54768,130246,5
54764,130248,5
54754,130235,5
54754,130232,4
54753,130220,5
54745,130223,5
54737,130212,5
54733,130196,5
54731,130172,4
54697,130130,5
54661,130083,5
54641,130042,5
54622,129998,5
54587,129951,4
54558,129882,5
54508,129794,5
54470,129727,5
54440,129689,5
54414,129642,5
54405,129642,4
54400,129623,5
54393,129604,5
54366,129563,6
54341,129506,3
54287,129467,5
54293,129421,5
54272,129387,5
54239,129347,4
54112,129298,4
54183,129223,5
54155,129179,5
54123,129130,5
53973,129093,4
54097,129071,5
54081,129067,5
54078,129038,5
54040,129032,5
54061,129020,4
54055,129016,5
54049,129007,5
54161,129006,5
54045,129006,5
54051,128983,4
54056,129002,6
54207,128979,4
54051,128987,5
54052,128980,5
54044,128980,6
54103,128977,3
54023,128955,5
54026,128946,5
54014,128932,5
54015,128900,4
53992,128889,5
53973,128844,5
53954,128823,5
53952,128732,4
53948,128814,4
53930,128794,5
53946,128787,5
53926,128651,5
53918,128767,5
53912,128749,4
53906,128744,5
53904,128646,5
53901,128725,5
53898,128718,4
53879,128686,5
53864,128738,6
53854,128635,4
53847,128626,5
53847,128621,4
53838,128765,5
53830,128592,5
53833,128603,5
53832,128601,5
53833,128717,4
53837,128614,5
53848,128625,5
53842,128631,5
53848,128682,4
53871,128678,4
53886,128692,5
53890,128706,5
53895,128726,5
53901,128730,4
53903,128750,5
53915,128761,5
53927,128784,5
53943,128795,5
53945,128816,4
53950,128825,5
53960,128834,5
53967,128842,6
53974,128853,4
53975,128865,4
53987,128875,5
53982,128872,5
53989,128875,5
54001,128895,5
54002,128885,4
54002,128901,5
53997,128902,5
54005,128890,5
53991,128881,5
53997,128885,4
53992,128882,5
53987,128869,5
53992,128872,5
53984,128871,4
53978,128857,4
53966,128845,5
53976,128844,5
53968,128841,5
53960,128840,5
53959,128842,4
53964,128848,5
53974,128856,5
53979,128859,6
53972,128863,3
53976,128872,5
53978,128879,5
53993,128886,5
54003,128901,5
54011,128916,4
54010,128924,5
54014,128929,5
54018,128920,5
54020,128931,5
54026,128944,4
54034,128946,5
54027,128953,5
54026,128951,5
54037,128967,5
54034,128970,4
54044,128977,5
54053,128966,5
54048,128980,5
54054,128984,4
54042,128987,5
54046,128984,4
54056,128989,5
54059,129008,5
54067,129005,6
54058,129014,3
54075,129037,5
54080,129046,5
54090,129053,5
54089,129064,4
54096,129078,5
54101,129083,5
54104,129085,5
54110,129100,5
54120,129115,4
54138,129137,5
54144,129159,5
54150,129180,5
54158,129182,5
54169,129184,4
54167,129195,5
54160,129195,5
54086,129199,5
54169,129201,5
54170,129191,4
54172,129198,6
54051,129205,4
54171,129193,5
54164,129189,4
54159,129173,4
54038,129171,5
54159,129184,5
54152,129185,5
54159,129174,4
54208,129169,5
54157,129175,5
54161,129177,5
54157,129178,5
54304,129177,4
54162,129182,5
54166,129196,5
54177,129217,5
54310,129250,5
54209,129257,4
54216,129274,5
54217,129283,5
54256,129284,5
54223,129305,5
54233,129304,4
54250,129321,5
54256,129284,6
54261,129365,4
54270,129354,5
54276,129359,4
54275,129242,5
54268,129363,5
54271,129380,5
54279,129381,4
54269,129236,4
54270,129383,5
54274,129384,5
54282,129385,5
54285,129397,4
54288,129392,5
54288,129397,5
54295,129410,5
54298,129551,5
54311,129446,4
54312,129439,5
54317,129456,5
54329,129631,5
54338,129474,5
54333,129475,4
54330,129481,5
54335,129543,5
54324,129468,6
54329,129470,4
54328,129472,4
54331,129492,5
54343,129512,5
54349,129508,5
54344,129506,5
54344,129506,4
54352,129519,5
54364,129536,5
54359,129523,5
54364,129546,4
54378,129562,4
54370,129556,5
54359,129538,5
54367,129544,5
54372,129545,4
54374,129546,5
54368,129525,5
54344,129487,5
54316,129423,5
54254,129314,5
54179,129197,4
54119,129093,5
54069,129007,5
54013,128924,5
53967,128843,4
53917,128753,5
53870,128684,5
53845,128627,5
53812,128576,5
53790,128530,4
53756,128483,5
53717,128410,5
53687,128357,5
53656,128302,5
53626,128259,4
53612,128236,5
53599,128214,5
53580,128196,5
53579,128203,4
53581,128191,4
53588,128202,5
53585,128200,5
53593,128209,5
53594,128218,4
53600,128242,6
53616,128247,4
53618,128277,5
53638,128292,5
53659,128330,4
53676,128355,5
53691,128379,5
53717,128420,5
53725,128447,5
53750,128485,4
53764,128526,5
53799,128584,5
53832,128645,5
53868,128703,5
53907,128761,4
53938,128796,5
53946,128822,5
53967,128844,5
53981,128879,5
54001,128912,4
54016,128939,5
54024,128950,5
54032,128962,5
54042,128981,4
54041,129002,4
54061,128990,6
54037,128981,4
54058,128998,5
54055,129002,4
54062,129006,5
54056,129012,5
54071,129045,5
54081,129058,5
54085,129064,4
54058,129074,5
54082,129065,5
54081,129064,5
54072,129055,5
53986,129061,4
54091,129061,5
54101,129064,5
54083,129056,5
53953,129060,5
54090,129054,4
54086,129056,5
54091,129068,5
54062,129083,5
54103,129100,5
54118,129106,4
54120,129113,5
54226,129124,5
54133,129139,5
54143,129159,4
54151,129167,4
54308,129178,5
54153,129174,5
54146,129175,5
54157,129171,4
54222,129180,5
54157,129181,5
54155,129175,5
54157,129184,5
54175,129192,4
54175,129222,5
54190,129229,5
54196,129266,5
54222,129192,5
54227,129295,5
54252,129335,4
54260,129357,5
54278,129263,5
54305,129457,6
54363,129578,3
54446,129733,5
54547,129827,5
54644,130097,5
54734,130230,5
54790,130337,4
54829,130464,5
54847,130420,5
54840,130413,5
54843,130420,4
54849,130572,4
54855,130431,5
54864,130437,5
54865,130450,5
54863,130554,4
54862,130433,5
54867,130419,5
54843,130407,5
54835,130420,5
54832,130376,4
54818,130365,6
54815,130350,4
54817,130346,5
54810,130330,5
54801,130320,6
54806,130325,3
54811,130321,5
54793,130302,5
54787,130282,5
54761,130252,4
54752,130242,5
54748,130220,5
54751,130214,5
54746,130211,5
54743,130203,4
54741,130206,5
54746,130210,5
54741,130210,5
54748,130212,4
54750,130220,4
54753,130224,5
54756,130227,5
54754,130226,5
54757,130222,4
54754,130217,5
54751,130220,6
54739,130217,4
54748,130215,5
54741,130210,4
54744,130199,7
54746,130201,3
54740,130189,5
54732,130185,5
54727,130179,4
54717,130168,5
54714,130158,5
54705,130151,5
54697,130143,5
54705,130133,4
54704,130145,5
54711,130156,5
54708,130162,5
54708,130156,5
54716,130150,4
54703,130144,5
54691,130138,5
54694,130119,5
54691,130114,4
54685,130095,5
54670,130096,5
54635,130026,11
54635,130026,3
54638,130026,5
54629,130014,5
54623,130005,5
54624,130002,5
54624,130011,4
54633,130017,5
54632,130013,5
54631,130018,5
54636,130009,5
54635,130024,4
54648,130034,5
54658,130056,5
54649,130057,5
54650,130052,5
54663,130054,4
54659,130058,5
54671,130066,5
54676,130094,5
54690,130124,5
54696,130131,4
54700,130149,5
54722,130156,5
54728,130175,6
54725,130186,3
54666,130200,5
54739,130214,5
54758,130225,5
54765,130230,5
54637,130241,4
54772,130240,5
54768,130249,5
54772,130249,5
54667,130257,5
54777,130260,4
54787,130269,5
54782,130271,5
54853,130290,5
54810,130299,5
54803,130307,4
54814,130329,5
54981,130360,5
54834,130364,5
54842,130374,5
54839,130370,5
54948,130360,4
54846,130372,5
54842,130378,5
54851,130390,6
54901,130418,3
54884,130448,5
54895,130464,5
54897,130478,5
54916,130448,4
54927,130517,5
54942,130561,5
54965,130598,5
54981,130507,5
55003,130656,4
55028,130703,5
55056,130731,5
55077,130638,5
55102,130823,5
55120,130853,4
55135,130890,5
55153,130930,5
55165,130936,5
55183,130974,5
55206,130999,4
55227,131160,6
55242,130327,4
55263,130361,5
55273,130383,5
55291,130557,4
55299,130438,5
55316,130460,5
55328,130478,5
55341,130546,4
55346,130505,4
55349,130521,5
55369,130552,5
55381,130570,5
55395,130613,4
55416,130628,5
55437,130660,5
55443,130687,5
55464,130720,5
55479,130762,4
55511,130827,5
55561,130914,5
55621,131029,5
55719,131191,5
55825,131407,4
56016,131784,5
56329,132416,6
56706,133051,4
57043,133615,5
57343,134124,4
57589,134529,5
57781,134834,5
57927,135081,5
58018,135212,5
58078,135307,4
58121,135373,5
58161,135452,5
58198,135515,5
58242,135574,4
58250,135591,4
58271,135618,5
58274,135627,5
58269,135600,5
58245,135544,4
58198,135465,5
58141,135377,5
58093,135270,5
58022,135156,5
57951,135026,4
57879,134894,5
57786,134737,5
57717,134650,6
57730,134660,4
57747,134706,4
57811,134807,5
57880,134946,5
57942,135061,5
58014,135171,5
58058,135252,4
58095,135305,5
58115,135328,5
58123,135329,5
58116,135316,5
58119,135309,4
58102,135280,5
58077,135253,5
58051,135197,5
58008,135122,4
57960,135043,4
57902,134946,5
57836,134817,5
57763,134697,5
57702,134578,5
57637,134460,4
57563,134333,5
57493,134211,5
57433,134112,5
57364,133996,4
57289,133864,5
57217,133713,5
57138,133583,5
57072,133476,5
57014,133382,4
56960,133283,5
56920,133229,5
56887,133168,5
56850,133105,5
56822,133053,4
56794,133009,5
56778,132967,5
56721,132946,5
56745,132912,5
56731,132897,4
56717,132870,5
56588,132839,5
56695,132817,5
56670,132798,4
56663,132789,5
56504,132765,4
56645,132750,5
56628,132726,5
56615,132695,4
56590,132677,5
56591,132665,5
56578,132627,5
56557,132592,5
56659,132567,4
56525,132539,5
56506,132515,5
56489,132484,5
56638,132436,5
56463,132419,4
56442,132395,5
56426,132373,5
56483,132345,5
56388,132320,5
56382,132280,4
56361,132264,5
56361,132222,5
56322,132200,5
56315,132183,5
56309,132163,4
56297,132043,6
56279,132130,4
56263,132107,5
56250,132089,4
56251,131925,4
56239,132047,5
56225,132023,5
56206,131982,5
56173,131869,4
56147,131898,5
56122,131837,5
56084,131763,5
56044,131805,5
56026,131684,4
56008,131652,5
55993,131611,5
55969,131727,5
55951,131553,5
55946,131536,4
55920,131509,5
55914,131590,5
55898,131459,5
55899,131447,5
55895,131456,4
55887,131480,5
55895,131457,6
55901,131457,4
55890,131449,4
55889,131435,4
55894,131451,5
55897,131454,5
55895,131464,5
55891,131460,4
55902,131468,5
55914,131467,5
55906,131482,5
55900,131483,5
55909,131481,4
55911,131485,5
55910,131481,5
55912,131479,5
55907,131475,5
55902,131463,4
55897,131454,5
55892,131454,5
55896,131439,5
55888,131439,5
55891,131438,4
55882,131433,5
55879,131429,5
55874,131404,5
55874,131409,5
55866,131397,4
55857,131377,5
55834,131347,5
55831,131336,5
55821,131310,4
55801,131292,4
55786,131267,5
55780,131254,5
55771,131255,5
55771,131225,4
55751,131203,5
55729,131174,5
55721,131148,5
55710,131120,5
55684,131088,4
55676,131073,5
55660,131026,5
55638,130987,5
55609,130945,5
55594,130910,5
55565,130868,4
55535,130816,5
55529,130787,5
55502,130749,5
55474,130706,4
55453,130670,5
55442,130628,5
55415,130603,5
55410,130584,5
55390,130551,4
55376,130520,5
55344,130488,5
55341,130474,5
55333,130450,4
55325,130424,4
55302,130399,5
55266,130313,5
55178,130148,5
55039,129863,4
54848,129525,5
54661,129170,6
54462,128814,4
54299,128521,5
54148,128255,4
54015,128046,7
53926,127885,3
53860,127793,5
53830,127740,5
53806,127691,4
53766,127636,5
53727,127538,5
53673,127451,5
53632,127388,5
53523,127358,4
53590,127319,5
53580,127306,5
53576,127305,5
53443,127317,5
53584,127328,4
53591,127347,5
53611,127360,5
53513,127370,5
53620,127367,4
53601,127351,4
53616,127360,5
53676,127371,6
53611,127361,4
53611,127349,4
53602,127323,5
53716,127297,5
53571,127288,5
53563,127282,5
53538,127244,4
53637,127221,5
53533,127222,5
53531,127222,5
53532,127224,5
53561,127215,4
53526,127215,5
53527,127232,5
53545,127266,5
53577,127263,5
53602,127351,4
53619,127390,5
53639,127417,5
53657,127342,5
53680,127497,5
53698,127539,4
53718,127572,5
53730,127459,5
53754,127628,6
53769,127660,3
53789,127689,5
53804,127728,4
53815,127746,5
53834,127770,5
53847,127791,4
53853,127943,5
53864,127822,5
53871,127836,5
53879,127842,5
53884,127989,4
53882,127852,5
53878,127859,5
53893,127878,5
53894,127942,5
53918,127924,4
53941,127956,5
53949,127973,5
53954,128002,5
53965,128008,5
53963,128003,5
53963,128002,4
53969,128012,5
53964,128009,5
53963,128010,6
53967,128002,3
53950,127999,5
53952,127991,5
53963,128003,5
53963,128002,4
53963,127998,4
53958,128002,5
53972,128019,5
53972,128025,5
53984,128036,4
53995,128045,5
54002,128062,5
54007,128069,5
54017,128080,5
54010,128080,4
54019,128091,5
54029,128114,5
54035,128127,5
54049,128139,5
54053,128152,4
54057,128175,6
54070,128182,4
54078,128200,5
54083,128207,5
54092,128222,4
54102,128237,5
54113,128247,5
54115,128258,5
54112,128252,5
54115,128267,4
54124,128265,5
54123,128265,5
54116,128267,5
54123,128265,4
54124,128263,4
54105,128258,5
54101,128239,5
54078,128209,5
54069,128175,4
54048,128163,5
54036,128138,5
54025,128110,5
54015,128096,5
54008,128085,4
53995,128085,5
54003,128093,6
54006,128103,4
54017,128098,5
54011,128100,4
54001,128086,5
54000,128089,5
54000,128093,5
54006,128083,5
54002,128081,4
54003,128084,5
54003,128089,5
54010,128088,5
53995,128075,5
53980,128050,8
53970,128017,1
53945,127996,5
53954,127981,5
53934,127968,4
53932,127962,4
53929,127962,5
53946,127987,5
53941,127989,5
53940,127981,4
53948,127976,5
53939,127970,5
53885,127981,6
53943,127982,4
53948,127992,4
53948,127996,5
53832,127984,5
53950,127994,5
53955,127984,5
53945,127993,4
53819,127997,5
53959,128006,5
53962,128014,5
53962,128017,5
53969,128014,4
53966,128027,5
53974,128040,5
53988,128046,5
54106,128057,4
53985,128059,4
53992,128048,5
53989,128060,5
54126,128037,5
53986,128041,5
53983,128035,4
53974,128018,5
54007,127969,5
53909,127910,6
53865,127834,3
53816,127752,5
53774,127638,5
53714,127573,5
53687,127526,5
53663,127470,4
53621,127329,5
53587,127360,5
53547,127285,5
53504,127210,5
53478,127020,4
53437,127103,5
53413,127072,5
53405,127053,5
53398,126982,5
53380,126993,4
53355,126959,5
53347,126924,5
53331,127018,5
53318,126914,4
53326,126903,5
53331,126918,4
53324,127069,5
53329,126916,5
53338,126933,4
53338,126949,5
53357,127044,5
53353,126975,5
53366,126995,5
53376,127002,4
53390,127026,5
53396,127036,5
53410,127068,5
53430,127088,5
53433,127108,4
53455,127139,5
53477,127170,5
53500,127197,5
53512,127216,5
53527,127246,4
53535,127285,5
53559,127320,5
53587,127356,5
53599,127390,5
53632,127438,4
53651,127468,6
53665,127505,3
53695,127529,5
53705,127552,4
53713,127587,4
53738,127615,5
53750,127642,5
53773,127664,5
53777,127705,4
53808,127749,5
53820,127773,5
53845,127818,5
53890,127889,5
53906,127926,4
53931,127964,5
53956,128025,5
53989,128085,5
54037,128138,5
54062,128203,4
54097,128257,5
54130,128330,5
54154,128360,5
54180,128376,5
54166,128372,4
54166,128359,5
54155,128343,6
54157,128366,4
54165,128340,5
54157,128360,4
54169,128371,5
54173,128372,5
54177,128384,5
54175,128386,4
54164,128380,4
54173,128378,5
54188,128397,5
54196,128407,5
54187,128415,4
54199,128420,5
54199,128419,5
54201,128410,5
54203,128411,5
54190,128418,4
54196,128410,5
54192,128400,5
54188,128407,5
54192,128409,5
54183,128410,4
54191,128409,5
54192,128402,5
54179,128397,5
54186,128401,5
54176,128391,4
54164,128375,5
54165,128360,5
54155,128345,5
54134,128307,5
54114,128272,4
54087,128241,5
54075,128212,5
54043,128174,5
54040,128148,4
54008,128125,4
53995,128085,5
53977,128050,5
53963,128023,5
53823,127952,4
53865,127861,5
53794,127719,5
53709,127581,5
53490,127453,5
53555,127325,5
53486,127229,4
53439,127142,5
53351,127070,5
53373,127013,5
53339,126944,4
53301,126900,5
53361,126868,5
53246,126830,5
53227,126800,5
53225,126783,4
53358,126765,5
53204,126770,5
53227,126763,5
53212,126784,5
53303,126767,4
53220,126775,5
53217,126769,5
53211,126753,5
53223,126745,4
53195,126730,4
53192,126726,5
53187,126723,5
53191,126632,5
53182,126699,4
53161,126654,6
53117,126559,4
53033,126294,5
52933,126243,5
52819,126047,4
52725,125885,5
52623,125615,5
52548,125582,5
52464,125443,5
52398,125305,5
52327,125240,4
52264,125080,5
52192,124970,5
52158,124899,5
52119,124991,4
52092,124788,5
52067,124749,5
52058,124716,5
52037,124820,5
52039,124692,4
52026,124669,5
52013,124647,6
52010,124676,4
52016,124641,4
52021,124629,5
52020,124630,5
52025,124644,5
52027,124662,5
52034,124645,4
52028,124629,5
52033,124640,5
52036,124642,5
52045,124659,5
52044,124666,4
52040,124656,5
52046,124652,5
52041,124649,5
52045,124636,5
52041,124633,4
52043,124616,5
52034,124618,5
52033,124601,5
52026,124596,5
52035,124600,4
52044,124615,5
52051,124634,5
52064,124675,6
52091,124711,3
52115,124740,4
52129,124781,5
52166,124821,5
52185,124865,5
52209,124910,4
52241,124956,5
52275,125015,5
52299,125051,5
52321,125090,5
52341,125123,4
52361,125164,5
52378,125191,5
52405,125222,5
52411,125256,5
52438,125285,4
52458,125312,5
52475,125342,5
52492,125370,5
52479,125353,5
52458,125303,5
52427,125250,4
52393,125180,5
52355,125116,5
52308,125038,6
52277,124984,3
52240,124922,5
52186,124830,5
52139,124717,5
52077,124611,4
52011,124515,4
51969,124428,5
51930,124354,5
51886,124287,5
51844,124211,4
51798,124137,5
51758,124067,5
51715,123986,5
51686,123941,5
51644,123877,4
51620,123818,5
51586,123750,5
51536,123669,5
51483,123570,5
51424,123472,4
51381,123396,6
51345,123351,4
51341,123327,5
51314,123286,5
51293,123264,6
51281,123234,3
51267,123206,5
51249,123195,5
51252,123195,5
51257,123193,4
51234,123175,5
51173,123168,5
51233,123170,5
51239,123181,4
51244,123190,4
51125,123176,5
51230,123143,5
51215,123135,5
51197,123108,4
51075,123106,5
51203,123109,5
51201,123106,5
51187,123095,5
51222,123079,4
51170,123075,5
51171,123060,6
51148,123031,4
51256,122988,5
51112,122969,4
51116,122976,5
51119,122979,5
51233,122986,5
51122,122990,5
51139,123007,4
51141,123028,5
51178,123035,5
51147,123036,5
51158,123053,5
51160,123068,4
51181,123059,5
51190,123116,5
51196,123126,5
51209,123145,4
51206,123034,4
51203,123152,5
51213,123159,5
51222,123179,5
51229,123047,4
51221,123187,5
51228,123168,5
51216,123164,6
51214,123146,4
51198,123124,4
51161,123061,5
51121,122978,5
51051,122967,5
50980,122729,5
50901,122595,4
50835,122459,5
50739,122447,5
50647,122138,5
50552,121986,5
50470,121816,4
50382,121732,5
50295,121524,5
50200,121332,5
50093,121149,5
49979,120936,4
49839,120654,5
49671,120357,5
49483,119992,5
49258,119579,5
49015,119163,4
48810,118807,5
48622,118443,5
48444,118122,6
48275,117811,3
48109,117511,5
47950,117216,5
47791,116929,5
47650,116666,5
47530,116449,4
47431,116262,5
47342,116092,5
47262,115958,5
47197,115812,5
47101,115650,4
47022,115493,5
46930,115314,5
46847,115181,5
46797,115078,5
46761,114998,4
46717,114932,5
46668,114811,5
46589,114682,5
46523,115278,4
46434,115109,5
46364,114972,4
46313,114858,5
46249,114771,5
46223,114695,4
46186,114656,5
46171,114623,5
46168,114609,5
46166,114610,5
46174,114635,4
46191,114668,5
46211,114693,5
46232,114728,5
46257,114786,5
46299,114866,4
46368,114976,5
46424,115092,5
46488,115222,5
46581,115395,5
46706,115630,4
46852,115910,5
46999,116174,5
47139,116435,5
47298,116722,5
47448,117006,4
47570,117219,6
47670,117402,4
47756,117569,5
47843,117729,4
47923,117879,4
48011,118030,5
48083,118170,5
48161,118330,5
48258,118504,4
48357,118667,5
48428,118810,5
48492,118906,5
48540,119000,5
48590,119098,4
48631,119190,5
48692,119276,5
48745,119350,5
48770,119404,5
48773,119411,4
48762,119386,5
48754,119359,5
48727,119323,5
48698,119261,5
48639,119228,4
48626,119166,5
48592,119092,11
48546,118994,4
48389,118875,4
48397,118734,5
48312,118577,5
48240,118442,5
48055,118339,4
48124,118243,4
48081,118169,5
48024,118071,5
47923,117918,5
47852,117740,4
47757,117557,5
47660,117401,5
47666,117248,5
47506,117104,5
47438,116978,5
47364,116864,4
47450,116787,5
47283,116733,5
47261,116699,6
47258,116677,3
47296,116639,5
47217,116601,5
47192,116537,5
47159,116498,5
47156,116467,4
47138,116471,5
47142,116476,5
47156,116500,5
47175,116460,5
47182,116544,4
47184,116542,5
47181,116537,5
47191,116434,5
47190,116546,4
47184,116540,4
47191,116551,5
47197,116498,5
47210,116588,5
47229,116631,5
47248,116672,4
47283,116806,5
47318,116780,5
47357,116862,5
47419,116969,5
47477,117204,4
47514,117157,5
47547,117200,5
47545,117202,5
47553,117281,4
47549,117195,5
47540,117180,5
47531,117177,5
47532,117181,5
47529,117151,4
47524,117154,5
47530,117156,5
47524,117155,5
47521,117150,5
47517,117132,4
47531,117157,5
47557,117186,5
47579,117246,5
47604,117322,4
47657,117408,4
47698,117490,5
47779,117623,5
47870,117815,5
48004,118069,4
48140,118317,6
48269,118547,4
48419,118839,5
48613,119204,5
48809,119557,4
48988,119867,5
49171,120210,5
49378,120597,5
49571,120938,5
49705,121168,4
49828,121392,5
49939,121586,5
50037,121751,5
50118,121880,5
50180,122000,4
50237,122092,5
50296,122189,5
50341,122283,5
50388,122363,5
50425,122432,4
50448,122470,5
50461,122494,5
50459,122501,5
50485,122527,4
50502,122551,4
50520,122609,6
50551,122658,4
50588,122724,5
50633,122810,4
50687,122891,5
50720,122954,5
50759,123027,5
50800,123099,5
50840,123179,4
50875,123238,5
50912,123304,5
50958,123371,5
50999,123471,5
51041,123543,4
51108,123646,5
51152,123749,5
51200,123817,5
51230,123878,5
51291,123987,4
51369,124134,5
51440,124258,5
51490,124337,6
51517,124406,4
51548,124453,4
51557,124456,5
51531,124420,5
51508,124377,5
51479,124324,4
51465,124298,4
51437,124251,5
51375,124137,5
51295,124017,5
51218,123867,4
51100,123626,5
50938,123322,5
50773,123066,5
50621,122790,5
50452,122478,4
50253,122103,5
50025,121688,5
49722,121277,5
49576,120882,5
49359,120484,5
49114,120033,4
48769,119619,5
48656,119228,5
48465,118876,6
48315,118599,3
48098,118365,5
48059,118114,5
47914,117829,5
47741,117528,5
47647,117261,4
47487,117073,5
47416,116927,5
47381,116894,5
47506,116929,4
47406,116966,5
47422,116987,5
47446,117028,5
47563,117077,5
47518,117161,4
47589,117291,5
47661,117423,5
47764,117551,5
47797,117668,5
47863,117795,4
47939,117932,6
48045,118081,4
48158,118372,5
48311,118626,5
48444,118870,6
48572,119002,3
48692,119334,5
48814,119540,5
48925,119772,5
49044,119855,4
49153,120153,5
49229,120295,5
49279,120396,5
49337,120501,4
49380,120563,4
49419,120640,5
49468,120722,5
49525,120944,5
49583,120946,4
49657,121066,5
49736,121221,5
49820,121480,5
49920,121553,5
50008,121728,4
50115,121919,5
50235,122152,6
50347,122320,4
50462,122554,5
50591,122788,4
50736,123059,5
50882,123297,5
51024,123570,5
51173,123824,5
51316,124084,4
51450,124347,5
51590,124573,5
51711,124802,5
51858,125047,5
51978,125274,4
52121,125518,5
52245,125747,5
52374,125972,5
52492,126195,4
52609,126415,4
52746,126644,5
52876,126877,5
53000,127107,5
53119,127307,4
53230,127502,5
53342,127708,5
53444,127896,6
53545,128058,4
53625,128224,4
53704,128344,5
53785,128491,5
53862,128645,5
53962,128816,5
54066,129003,4
54162,129152,5
54235,129299,5
54315,129421,5
54385,129549,5
54452,129648,4
54505,129761,5
54561,129859,5
54620,129951,5
54674,130051,5
54756,130187,4
54815,130275,5
54845,130319,5
54858,130352,5
54886,130395,5
54915,130448,4
54953,130515,5
54980,130576,5
55022,130660,6
55083,130753,3
55136,130847,5
55173,130906,5
55211,130968,5
55254,131066,5
55317,131173,4
55388,130570,5
55446,130687,5
55521,130796,5
55571,130897,5
55615,130974,4
55670,131066,5
55717,131169,5
55775,131271,5
55844,131387,5
55906,131491,4
55965,131588,5
56024,131694,5
56077,131781,5
56134,131878,5
56170,131943,5
56208,132010,4
56247,132076,5
56283,132120,5
56305,132185,4
56340,132241,4
56365,132280,5
56391,132337,5
56418,132372,5
56443,132430,4
56416,132480,5
56509,132516,5
56524,132565,5
56543,132584,5
56419,132588,4
56555,132613,5
56571,132642,5
56593,132678,5
56468,132712,5
56634,132753,4
56676,132814,5
56701,132870,5
56765,132937,5
56771,132981,5
56793,133038,4
56817,133080,6
56985,133134,4
56883,133186,5
56919,133250,5
56951,133307,4
57122,133349,5
57004,133402,5
57042,133455,5
57066,133529,4
57165,133597,4
57157,133671,5
57192,133727,5
57230,133799,5
57263,133814,4
57285,133881,5
57308,133922,5
57326,133962,5
57351,133883,5
57363,134038,4
57386,134060,5
57407,134083,5
57413,133963,5
57434,134141,5
57454,134161,5
57455,134172,4
57456,134168,6
57486,134217,4
57500,134252,5
57512,134283,4
57535,134432,5
57554,134351,5
57570,134378,5
57585,134410,5
57608,134614,4
57615,134483,5
57658,134519,5
57681,134564,5
57706,134697,4
57729,134652,5
57750,134687,5
57756,134713,5
57771,134737,5
57774,134719,4
57768,134717,5
57768,134704,5
57759,134689,5
57751,134667,5
57746,134667,4
57743,134676,5
57753,134697,5
57767,134702,6
57764,134705,4
57772,134725,4
57789,134768,5
57818,134824,5
57867,134888,5
57882,134937,5
57913,134962,4
57925,134992,5
57934,135007,5
57961,135053,5
57974,135086,4
57997,135126,4
58021,135155,5
58035,135186,5
58049,135213,5
58062,135225,4
58066,135243,5
58076,135267,5
58089,135294,5
58114,135330,5
58133,135368,5
58160,135414,4
58185,135458,5
58209,135499,5
58240,135553,5
58269,135598,4
58291,135679,5
58345,135745,5
58399,135838,5
58432,135896,5
58466,135930,4
58466,135941,5
58467,135942,5
58468,135953,5
58478,135975,5
58483,135974,4
58487,135990,5
58501,136012,5
58525,136082,5
58564,136132,4
58619,136210,4
58655,136278,5
58690,136341,5
58720,136393,5
58747,136442,4
58781,136494,6
58796,136524,4
58819,136555,5
58829,136572,5
58835,136584,4
58847,136599,5
58864,136624,5
58865,136645,5
58882,136672,5
58904,136686,4
58916,136709,5
58919,136733,5
58934,136750,5
58946,136773,5
58949,136773,4
58968,136805,5
58965,136825,5
58985,136832,5
58981,136835,5
58992,136850,4
58999,136857,5
59008,136860,5
58958,136876,5
59006,136859,4
59001,136848,4
58992,136839,6
58856,136827,4
58975,136818,5
58963,136801,4
58954,136770,5
58792,136756,5
58938,136729,5
58924,136723,5
58914,136706,4
58876,136662,5
58863,136606,5
58822,136537,5
58786,136478,5
58882,136427,8
58701,136331,1
58649,136237,5
58585,136170,5
58732,136097,5
58518,136021,4
58471,135929,5
58417,135837,5
58433,135760,5
58327,135696,5
58281,135620,4
58232,135517,5
58169,135390,5
58094,135277,5
58017,135154,4
57950,135029,5
57870,134779,5
57784,134748,5
57707,134597,5
57613,134439,4
57523,134136,5
57436,134125,5
57351,133977,5
57260,133819,5
57152,133587,4
57055,133463,5
56950,133267,5
56835,133076,5
56724,132989,5
56607,132675,4
56486,132457,4
56364,132258,5
56272,132249,5
56158,131904,6
56054,131700,3
55927,131449,5
55780,131315,5
55676,131047,5
55577,130884,4
55490,130703,4
55381,130524,5
55277,130318,5
55179,130146,5
55090,129988,4
55010,129856,5
54937,129737,5
54878,129621,5
54803,129488,5
54735,129367,4
54679,129263,5
54615,129184,5
54588,129108,5
54543,129058,5
54521,129003,4
54499,128956,6
54461,128909,4
54434,128860,5
54417,128819,5
54393,128788,6
54386,128761,3
54374,128737,5
54358,128719,5
54339,128701,5
54338,128679,4
54334,128669,5
54318,128643,5
54310,128638,5
54305,128625,4
54295,128628,4
54304,128609,5
54299,128609,5
54293,128608,5
54302,128611,4
54304,128607,5
54302,128606,5
54306,128622,5
54307,128629,5
54313,128640,4
54316,128651,5
54330,128667,6
54340,128690,4
54350,128713,5
54368,128722,4
54373,128738,5
54382,128758,5
54397,128780,5
54399,128798,5
54416,128827,4
54424,128838,5
54437,128841,5
54444,128844,5
54442,128859,5
54448,128869,4
54470,128904,5
54480,128922,5
54491,128950,5
54509,128979,4
54527,129010,5
54555,129040,5
54551,129046,5
54563,129066,5
54576,129081,4
54571,129084,5
54567,129069,5
54557,129061,6
54560,129062,4
54558,129042,4
54562,129046,5
54554,129057,5
54567,129075,5
54575,129074,5
54572,129078,4
54571,129080,5
54586,129093,5
54596,129142,5
54623,129176,5
54646,129207,4
54621,129212,5
54652,129224,5
54656,129220,5
54652,129221,4
54554,129225,4
54661,129227,5
54655,129224,5
54647,129214,5
54504,129201,5
54639,129199,4
54629,129180,5
54619,129157,5
54587,129141,6
54600,129129,3
54593,129119,5
54581,129103,5
54684,129092,5
54573,129075,5
54567,129064,4
54560,129059,5
54711,129057,5
54555,129068,5
54556,129067,5
54561,129059,4
54625,129048,5
54532,129020,5
54534,129015,5
54528,129007,5
54534,128989,4
54501,128978,5
54499,128946,5
54482,128915,5
54456,128801,4
54445,128860,5
54436,128838,4
54420,128809,5
54391,128630,5
54382,128742,4
54360,128702,5
54351,128683,5
54324,128596,5
54326,128636,5
54297,128613,4
54278,128569,5
54259,128628,5
54235,128491,5
54209,128454,5
54195,128416,4
54170,128546,5
54156,128337,5
54124,128297,5
54093,128245,5
54064,128274,4
54037,128127,5
54002,128061,5
53976,128020,5
53944,127999,5
53923,127932,4
53901,127906,6
53895,127892,4
53892,127883,5
53883,127878,4
53882,127880,4
53892,127887,5
53893,127874,5
53896,127895,5
53895,127901,4
53894,127907,5
53907,127911,5
53908,127914,5
53899,127923,5
53912,127924,4
53912,127937,5
53912,127948,5
53917,127943,5
53923,127954,5
53923,127946,4
53928,127951,5
53932,127960,5
53937,127964,5
53940,127983,5
53957,127995,4
53951,127995,5
53962,128007,6
53956,128007,4
53959,127998,4
53949,128014,4
53967,128017,5
53971,128024,5
53968,128020,5
53958,128010,4
53962,128012,5
53958,127999,5
53956,127994,5
53948,127985,5
53944,127986,4
53959,127992,5
53946,127989,5
53959,128003,5
53950,127998,5
53948,127990,4
53945,127980,5
53939,127958,5
53912,127932,5
53886,127889,5
53876,127864,4
53872,127835,5
53850,127819,5
53847,127814,6
53840,127809,4
53836,127797,4
53838,127787,5
53822,127769,5
53819,127759,5
53817,127761,4
53825,127763,4
53824,127773,5
53835,127781,5
53831,127784,5
53828,127780,4
53834,127789,5
53840,127795,5
53841,127800,5
53839,127809,5
53853,127812,4
53847,127810,5
53843,127819,5
53855,127823,5
53851,127818,5
53860,127829,5
53851,127827,4
53858,127827,5
53853,127838,5
53837,127831,5
53862,127837,4
53858,127841,5
53858,127841,5
53773,127842,5
53868,127855,5
53872,127876,4
53885,127878,5
53744,127875,5
53883,127893,5
53888,127891,4
53895,127888,4
53857,127900,5
53895,127905,5
53896,127916,5
53904,127905,4
53995,127914,5
53911,127908,5
53910,127935,5
53917,127938,5
54081,127948,4
53930,127947,6
53924,127955,4
53937,127980,5
54027,127980,5
53945,127997,4
53963,128016,5
53967,128018,5
53996,128027,5
53980,128052,5
53987,128056,4
53992,128049,5
53995,127986,5
54004,128086,5
54012,128102,5
54023,128113,4
54018,128005,5
54033,128124,5
54031,128137,5
54041,128145,4
54042,128048,5
54049,128142,5
54042,128145,6
54055,128166,4
54053,128239,4
54053,128170,5
54072,128176,7
54065,128186,3
54072,128339,5
54069,128184,4
54072,128183,5
54069,128200,5
54074,128305,5
54083,128212,5
54084,128215,4
54088,128231,5
54085,128267,5
54104,128246,5
54113,128257,5
54118,128283,4
54122,128289,5
54128,128304,5
54134,128309,5
54138,128323,4
54159,128339,4
54161,128353,5
54166,128371,5
54181,128392,5
54184,128402,4
54195,128409,5
54207,128439,5
54215,128446,5
54223,128457,5
54231,128473,4
54231,128490,5
54253,128500,5
54250,128518,5
54268,128531,5
54274,128552,4
54289,128570,5
54297,128593,5
54316,128615,5
54330,128646,5
54336,128673,4
54367,128716,5
54388,128750,5
54419,128810,5
54450,128863,5
54490,128936,4
54521,128999,5
54557,129051,5
54578,129081,5
54595,129120,5
54618,129143,4
54621,129165,5
54636,129190,5
54652,129211,5
54665,129252,4
54690,129277,5
54693,129279,5
54688,129281,5
54699,129294,5
54704,129291,4
54696,129297,5
54706,129300,5
54711,129314,5
54731,129354,5
54756,129400,4
54776,129473,5
54823,129507,5
54842,129549,5
54855,129571,5
54866,129594,4
54882,129644,5
54923,129690,4
54953,129750,5
54978,129794,5
55002,129837,5
55021,129874,3
55046,129912,5
55072,129964,5
55116,130026,4
55157,130101,5
55191,130175,5
55237,130243,5
55268,130306,5
55310,130368,4
55336,130428,5
55364,130485,5
55403,130540,5
55423,130582,5
55456,130629,4
55469,130682,5
55485,130709,5
55515,130733,5
55529,130753,5
55530,130782,4
55463,130794,5
55565,130842,6
55574,130848,4
55578,130862,5
55470,130906,4
55628,130941,5
55649,130988,5
55662,131027,5
55550,131019,4
55680,131047,4
55691,131058,5
55714,131099,5
55793,131162,5
55785,131244,4
55838,131327,5
55877,131401,5
56070,131482,5
55966,131570,5
56023,131665,4
56086,131761,5
56262,131878,5
56191,131973,5
56241,132043,5
56274,132098,4
56350,132142,5
56326,132183,5
56340,132216,6
56367,132246,4
56384,132217,4
56398,132292,5
56403,132325,5
56422,132335,7
56448,132237,3
56449,132399,4
56469,132428,5
56483,132449,5
56491,132327,5
56514,132508,4
56527,132518,5
56534,132546,4
56544,132590,5
56563,132611,5
56585,132629,4
56598,132679,5
56624,132847,5
56656,132753,5
56685,132811,5
56712,132857,5
56752,133080,4
56786,132987,5
56818,133037,5
56856,133095,6
56872,133196,3
56901,133180,5
56917,133212,5
56933,133241,5
56954,133290,5
56968,133293,4
56971,133316,5
56984,133336,5
57000,133340,5
56994,133359,5
56998,133354,4
57000,133380,5
57001,133365,5
57009,133369,5
57011,133373,4
57010,133382,4
56997,133347,5
56998,133339,5
56988,133342,5
56977,133325,4
56987,133326,6
56982,133322,4
56968,133305,5
56972,133302,5
56981,133318,6
56988,133333,3
56986,133345,5
57002,133349,5
56994,133355,5
57011,133382,4
57040,133443,5
57074,133492,5
57112,133562,5
57146,133626,5
57187,133677,4
57216,133745,5
57252,133823,5
57293,133891,5
57338,133952,4
57362,133996,4
57382,134031,5
57393,134050,5
57411,134066,5
57417,134090,4
57426,134107,5
57434,134109,6
57439,134137,4
57446,134145,5
57458,134150,4
57454,134165,5
57462,134183,5
57477,134198,5
57491,134211,5
57496,134217,4
57491,134205,5
57502,134222,5
57519,134248,5
57522,134273,5
57537,134306,4
57545,134295,5
57536,134292,5
57535,134306,5
57549,134307,5
57560,134330,4
57576,134373,5
57605,134417,5
57636,134473,5
57677,134527,4
57699,134575,4
57707,134611,5
57747,134655,6
57761,134699,4
57795,134732,4
57808,134764,5
57827,134782,5
57827,134805,5
57843,134821,5
57845,134827,4
57852,134831,5
57849,134846,5
57865,134855,5
57815,134881,5
57871,134881,4
57883,134892,5
57879,134892,5
57759,134889,5
57891,134890,5
57888,134892,4
57878,134890,5
57736,134889,5
57883,134883,5
57884,134885,5
57888,134904,4
57914,134913,5
57901,134919,5
57909,134937,6
57908,134939,3
58060,134962,4
57943,134983,5
57946,135003,5
57952,135021,5
58117,135031,4
57971,135048,5
57969,135036,5
57970,135050,5
58030,135048,5
57983,135056,4
57984,135059,5
57980,135061,5
57984,135038,5
57995,135090,5
58000,135096,4
58020,135109,5
58021,135011,5
58043,135158,5
58061,135191,5
58075,135211,5
58074,135059,4
58085,135212,5
58084,135230,5
58099,135256,5
58100,135212,4
58091,135243,5
58093,135249,5
58097,135251,5
58091,135364,4
58097,135243,4
58092,135249,5
58103,135251,5
58114,135451,5
58116,135297,4
58131,135309,5
58133,135324,5
58139,135408,5
58150,135343,5
58160,135370,4
58168,135390,5
58184,135437,5
58198,135437,5
58202,135424,5
58196,135431,4
58198,135430,6
58201,135429,4
58210,135439,5
58210,135446,5
58210,135450,4
58224,135459,5
58221,135461,5
58216,135478,5
58221,135485,4
58234,135494,4
58246,135520,5
58259,135549,5
58271,135563,5
58290,135579,4
58302,135614,4
58318,135647,5
58337,135665,5
58336,135666,5
58324,135646,4
58329,135648,5
58329,135645,5
58327,135660,5
58335,135668,5
58338,135691,4
58351,135697,5
58360,135694,6
58356,135693,4
58358,135705,5
58354,135708,4
58370,135714,5
58381,135726,5
58377,135739,5
58395,135757,5
58395,135766,4
58404,135782,5
58416,135805,5
58419,135818,5
58438,135838,4
58447,135846,4
58452,135859,5
58446,135867,5
58457,135877,5
58458,135870,4
58461,135872,5
58463,135875,5
58454,135883,5
58459,135874,5
58465,135872,4
58466,135878,5
58466,135899,5
58466,135894,5
58481,135910,5
58489,135921,4
58494,135926,5
58498,135937,5
58504,135946,5
58501,135947,5
58500,135953,4
58508,135949,5
58504,135951,5
58506,135959,5
58501,135952,5
58499,135946,4
58490,135933,5
58496,135920,5
58490,135919,5
58482,135917,4
58469,135889,4
58467,135880,5
58458,135883,5
58456,135859,5
58434,135838,5
58432,135833,4
58392,135825,5
58425,135805,5
58402,135781,5
58394,135765,4
58273,135770,5
58390,135760,5
58380,135733,5
58358,135706,5
58211,135710,4
58368,135706,5
58364,135721,5
58365,135725,5
58338,135710,5
58373,135713,4
58364,135712,5
58352,135704,5
58481,135697,5
58348,135692,5
58346,135691,4
58346,135672,5
58494,135665,5
58332,135656,5
58321,135634,4
58309,135611,5
58359,135589,4
58274,135550,5
58251,135513,5
58226,135461,4
58206,135415,5
58165,135364,5
58136,135302,5
58097,135244,5
58057,135075,4
58029,135113,5
57990,135066,5
57951,134973,5
57895,134756,5
57861,134838,4
57831,134774,5
57773,134682,5
57694,134470,5
57627,134403,5
57543,134256,4
57454,134113,5
57379,134093,5
57299,133862,4
57236,133733,4
57144,133577,4
57052,133588,5
56969,133260,5
56881,133102,5
56803,132963,4
56724,132925,5
56640,132697,5
56561,132555,5
56481,132415,5
56409,132304,4
56335,132142,5
56248,132008,5
56190,131892,5
56116,131765,5
56034,131645,4
55985,131532,5
55918,131427,5
55865,131334,5
55807,131247,5
55761,131155,4
55716,131065,5
55672,131007,5
55646,130963,6
55616,130913,4
55593,130864,4
55571,130809,5
55536,130769,5
55516,130748,5
55510,130714,4
55489,130693,4
55484,130673,5
55465,130654,5
55451,130621,5
55428,130588,4
55415,130564,5
55395,130518,5
55369,130479,5
55360,130449,5
55343,130440,4
55345,130430,5
55338,130413,5
55310,130342,5
55254,130271,5
55231,130233,5
55216,130183,4
55172,130135,5
55141,130057,5
55134,130053,6
55124,130039,3
55099,129988,5
55079,129954,5
55059,129920,5
55057,129924,5
55060,129933,4
55065,129945,5
55063,129949,5
55063,129950,5
55072,129957,4
55066,129954,4
55077,129970,5
55082,129971,5
55078,129980,5
55074,129984,4
55088,129986,5
55085,129983,5
55095,129993,5
55096,130017,5
55105,130025,4
55111,130026,6
55108,130027,4
55115,130031,5
55111,130027,5
55113,130032,6
55120,130028,3
55116,130041,5
55115,130035,5
55115,130032,5
55117,130033,4
55111,130030,5
55113,130025,5
55121,130030,5
55110,130027,4
55111,130033,4
55097,130018,5
55110,130010,5
55100,130007,5
55067,129994,4
55094,130001,5
55096,130001,5
55089,129999,5
54996,129993,5
55090,129983,4
55078,129980,5
55079,129970,6
54941,129977,4
55086,129973,5
55080,129984,4
55091,129990,5
55053,129987,5
55082,129990,5
55086,129984,5
55086,129983,4
55198,129981,5
55090,129988,5
55094,129988,5
55093,129993,5
55236,129991,4
55097,130003,5
55097,129986,5
55093,130001,5
55163,129985,4
55082,129977,5
55070,129959,5
55067,129952,5
55076,129940,5
55063,129942,4
55052,129927,5
55054,129922,5
55045,129819,6
55043,129909,4
55041,129903,4
55034,129897,5
55038,129755,5
55022,129881,5
55032,129888,5
55037,129888,4
55038,129827,5
55010,129847,5
54990,129790,5
54960,129777,5
54949,129841,4
54934,129718,5
54915,129689,5
54903,129677,5
54902,129825,4
54897,129655,9
54885,129642,5
54880,129622,5
54875,129685,5
54877,129623,4
54881,129644,5
54887,129643,5
54883,129656,6
54879,129630,3
54873,129608,5
54860,129599,5
54862,129607,5
54874,129622,5
54867,129605,4
54870,129606,5
54865,129603,5
54855,129600,5
54861,129594,5
54848,129585,4
54856,129585,5
54851,129563,5
54834,129561,5
54829,129553,4
54818,129537,4
54807,129511,5
54802,129497,5
54792,129475,5
54776,129450,4
54766,129441,6
54764,129424,4
54746,129391,5
54748,129390,5
54725,129348,4
54708,129343,5
54703,129329,5
54698,129318,5
54695,129308,5
54693,129297,4
54682,129290,5
54682,129291,5
54689,129289,5
54686,129290,5
54674,129290,4
54663,129266,5
54664,129262,5
54652,129246,5
54646,129240,4
54656,129233,4
54653,129227,5
54652,129223,5
54634,129212,5
54631,129209,4
54623,129194,5
54623,129170,6
54614,129175,4
54610,129165,5
54619,129156,4
54607,129147,5
54603,129150,5
54598,129134,5
54596,129131,5
54587,129121,4
54591,129139,5
54602,129145,5
54601,129151,5
54608,129165,5
54617,129160,4
54611,129170,5
54613,129174,5
54607,129153,5
54598,129140,5
54578,129104,4
54564,129041,5
54523,128990,5
54485,128936,5
54474,128905,4
54451,128872,4
54434,128835,5
54394,128745,6
54310,128579,4
54180,128324,4
54008,127987,5
53788,127610,5
53559,127201,5
53304,126827,5
53186,126548,4
53067,126346,5
52984,126234,5
52854,126217,5
52992,126262,5
53017,126302,4
53049,126361,5
52937,126396,5
53092,126437,5
53121,126505,5
53176,126612,4
53264,126730,5
53315,126850,5
53375,126950,5
53423,127022,5
53586,127099,4
53492,127163,5
53529,127219,5
53567,127272,5
53732,127332,4
53624,127375,5
53636,127410,5
53655,127431,5
53709,127448,5
53674,127463,4
53679,127480,5
53684,127478,5
53694,127453,5
53682,127478,5
53676,127477,4
53675,127481,5
53684,127373,5
53674,127486,5
53684,127505,5
53707,127517,4
53717,127413,5
53723,127572,5
53755,127615,5
53772,127649,5
53785,127677,5
53803,127702,4
53819,127732,5
53835,127774,5
53866,127930,4
53885,127829,5
53895,127881,5
53913,127916,5
53938,128110,5
53963,127984,4
53968,128019,5
54003,128057,5
54021,128148,5
54038,128148,5
54063,128178,4
54088,128190,5
54083,128200,5
54077,128146,5
53998,128041,5
53914,127859,4
53818,127664,5
53697,127478,5
53592,127280,5
53495,127105,5
53413,126974,4
53343,126862,7
53281,126755,3
53229,126645,5
53172,126527,4
53084,126397,4
53004,126248,5
52912,126085,5
52802,125878,5
52675,125667,4
52576,125481,5
52482,125343,5
52422,125251,5
52403,125215,5
52392,125212,4
52386,125193,5
52359,125111,5
52248,124886,5
52086,124601,5
51930,124329,4
51822,124144,5
51759,124061,5
51747,124056,5
51762,124092,5
51797,124130,4
51841,124211,5
51908,124356,5
52003,124520,5
52099,124689,4
52187,124834,4
52282,125002,5
52383,125187,5
52474,125368,5
52588,125562,4
52710,125794,5
52833,126013,5
52938,126179,5
53029,126353,5
53142,126555,4
53247,126761,5
53379,127003,5
53524,127235,5
53646,127467,5
53763,127669,4
53857,127842,4
53946,127986,5
54025,128127,5
54097,128258,5
54168,128392,3
54247,128507,5
54303,128611,5
54359,128719,5
54406,128791,5
54443,128877,4
54487,128951,5
54531,129025,5
54562,129082,5
54602,129145,4
54628,129205,5
54660,129254,5
54699,129309,5
54720,129361,5
54761,129424,4
54790,129485,5
54825,129541,5
54859,129615,5
54899,129660,5
54930,129734,4
54962,129766,6
54894,129777,4
54960,129792,5
54981,129820,5
54994,129830,6
54864,129846,3
55017,129868,5
55018,129885,5
55038,129900,5
54915,129929,4
55065,129974,5
55076,129987,5
55092,130001,5
55156,130032,4
55124,130064,4
55136,130106,5
55167,130146,5
55344,130198,5
55220,130237,4
55246,130274,5
55254,130309,5
55381,130343,5
55295,130375,5
55322,130410,4
55342,130447,5
55393,130488,6
55378,130516,4
55400,130548,5
55410,130572,4
55427,130543,5
55445,130637,5
55452,130648,5
55466,130666,5
55466,130552,4
55479,130689,5
55484,130694,5
55491,130698,5
55501,130568,4
55504,130726,5
55514,130758,4
55534,130776,5
55538,130836,5
55552,130823,4
55571,130844,5
55585,130887,5
55600,131063,5
55622,130952,5
55642,130973,4
55649,130992,5
55646,131139,5
55667,131018,6
55676,131045,4
55683,131069,4
55697,131139,5
55721,131117,5
55732,131136,5
55751,131157,5
55753,131175,4
55769,131201,5
55776,131210,5
55772,131208,5
55776,131216,5
55778,131204,4
55772,131222,5
55779,131213,5
55785,131238,5
55797,131238,4
55801,131247,4
55802,131254,5
55803,131262,5
55815,131290,5
55830,131312,5
55855,131349,4
55882,131381,5
55885,131416,5
55904,131439,6
55912,131454,3
55928,131488,5
55954,131522,5
55977,131576,5
55995,131607,5
56028,131649,4
56053,131689,5
56065,131716,5
56078,131746,5
56094,131775,5
56107,131798,4
56122,131805,5
56119,131819,5
56127,131833,5
56130,131834,4
56133,131838,4
56127,131828,5
56134,131840,5
56145,131854,5
56142,131875,4
56163,131897,6
56193,131943,4
56204,131965,5
56224,131993,5
56217,131996,4
56226,132017,5
56229,132022,5
56256,132055,5
56266,132070,5
56285,132100,4
56297,132144,5
56323,132195,5
56366,132250,5
56394,132308,5
56431,132373,4
56460,132425,5
56486,132484,5
56531,132538,5
56562,132617,4
56600,132672,4
56627,132726,5
56655,132762,5
56673,132799,5
56696,132812,4
56701,132841,5
56725,132863,6
56727,132883,4
56746,132918,5
56754,132937,4
56770,132959,5
56795,132985,5
56800,133002,5
56807,133018,5
56821,133035,4
56828,133049,5
56833,133065,5
56844,133070,5
56853,133091,5
56768,133098,4
56867,133119,5
56878,133136,5
56893,133157,5
56757,133174,5
56911,133189,4
56919,133214,5
56944,133246,5
56895,133299,5
56984,133323,4
56997,133362,4
57023,133388,5
57140,133439,6
57080,133481,4
57107,133539,4
57116,133574,5
57291,133588,5
57150,133607,5
57144,133609,5
57162,133623,4
57260,133638,5
57184,133656,5
57196,133680,5
57216,133720,5
57246,133756,4
57254,133787,5
57248,133770,5
57252,133783,5
57260,133718,5
57270,133792,4
57246,133783,5
57251,133781,5
57249,133635,5
57245,133758,5
57234,133744,4
57226,133754,5
57228,133623,5
57229,133741,6
57224,133740,3
57218,133727,5
57218,133819,5
57231,133756,5
57232,133767,5
57251,133788,4
57260,133956,5
57263,133793,5
57264,133801,5
57266,133813,5
57276,133946,4
57297,133846,5
57300,133888,5
57308,133887,5
57322,133932,5
57312,133897,4
57324,133906,5
57329,133897,5
57322,133904,5
57317,133898,5
57317,133903,5
57311,133892,4
57317,133887,5
57311,133893,5
57316,133875,4
57308,133878,5
57304,133878,5
57308,133892,5
57309,133886,5
57314,133892,7
57307,133881,2
57299,133864,5
57295,133852,5
57300,133859,5
57294,133851,4
57290,133849,5
57295,133857,5
57287,133845,5
57271,133842,5
57280,133848,4
57289,133839,5
57280,133835,5
57291,133843,5
57287,133846,5
57287,133865,4
57291,133864,6
57301,133863,4
57296,133871,5
57305,133878,4
57306,133864,4
57304,133864,5
57289,133852,5
57288,133851,5
57285,133843,4
57284,133835,5
57275,133829,5
57270,133822,5
57269,133804,5
57255,133782,4
57260,133767,5
57234,133751,5
57220,133729,5
57204,133695,5
57185,133667,4
57167,133625,5
57150,133587,5
57115,133552,5
57086,133499,5
57061,133447,4
57038,133390,5
56996,133332,6
56959,133283,4
56935,133228,4
56902,133183,4
56875,133134,5
56849,133082,5
56822,133036,5
56788,132985,4
56761,132930,5
56737,132896,5
56710,132832,5
56674,132784,5
56635,132713,4
56596,132632,5
56547,132550,5
56497,132461,5
56447,132386,5
56410,132298,4
56349,132212,5
56306,132115,5
56252,132033,5
56163,131939,5
56146,131841,4
56081,131729,5
56011,131616,5
55845,131514,5
55888,131373,5
55817,131257,4
55743,131149,5
55533,131015,5
55578,130842,5
55493,130668,4
55404,130534,5
55335,130398,5
55237,130234,5
55149,130090,5
55065,129938,4
55121,129829,5
54931,129717,5
54873,129607,5
54814,129492,5
54899,129379,4
54690,129280,6
54629,129175,4
54574,129091,5
54583,129013,5
54491,128946,6
54467,128907,3
54448,128881,5
54439,128825,5
54419,128818,5
54398,128787,4
54379,128753,5
54365,128622,5
54348,128695,5
54328,128657,4
54316,128636,4
54292,128471,5
54285,128586,5
54266,128551,5
54247,128544,4
54250,128511,5
54247,128517,5
54234,128496,5
54210,128455,5
54185,128516,4
54167,128379,5
54151,128369,5
54156,128365,4
54154,128521,5
54150,128361,4
54151,128359,6
54151,128388,3
54159,128445,5
54171,128409,5
54175,128408,4
54191,128427,5
54191,128453,5
54202,128465,5
54224,128488,4
54239,128515,4
54249,128538,5
54254,128558,5
54278,128577,5
54284,128595,4
54298,128609,5
54303,128626,5
54309,128640,5
54319,128653,5
54330,128656,4
54332,128656,5
54330,128665,5
54331,128656,6
54324,128659,4
54305,128630,4
54302,128620,5
54290,128603,5
54282,128577,5
54264,128547,5
54245,128527,4
54234,128485,5
54217,128463,5
54195,128439,5
54187,128403,5
54170,128382,4
54155,128367,5
54138,128339,5
54121,128317,5
54111,128283,4
54104,128269,4
54087,128251,5
54081,128229,5
54081,128219,5
54063,128218,5
54067,128210,4
54054,128205,5
54046,128188,5
54046,128188,6
54045,128176,3
54037,128166,5
54017,128142,5
53997,128109,5
53981,128071,5
53957,128055,4
53956,128029,5
53945,128011,5
53930,127979,5
53910,127945,5
53889,127923,4
53874,127885,5
53869,127880,5
53870,127855,5
53847,127823,4
53840,127819,4
53826,127804,5
53828,127801,5
53820,127781,5
53807,127750,4
53780,127717,6
53769,127703,4
53744,127660,5
53733,127643,5
53732,127629,6
53727,127630,3
53725,127625,5
53721,127623,5
53725,127623,5
53731,127635,4
53705,127588,5
53699,127568,5
53711,127613,5
53732,127629,5
53739,127657,4
53748,127665,5
53690,127684,5
53757,127669,5
53752,127673,5
53754,127666,4
53620,127650,5
53741,127646,5
53733,127625,5
53732,127633,4
53590,127613,4
53727,127629,6
53726,127621,4
53731,127618,5
53753,127616,4
53712,127606,5
53718,127616,5
53720,127618,5
53857,127615,5
53710,127617,4
53709,127597,5
53703,127595,5
53835,127602,5
53717,127612,5
53715,127617,4
53721,127618,5
53764,127620,5
53719,127617,5
53716,127609,5
53719,127628,4
53724,127559,5
53723,127622,5
53725,127628,5
53734,127642,4
53751,127552,4
53760,127694,5
53774,127731,6
53799,127765,4
53808,127643,4
53827,127809,5
53854,127842,4
53867,127870,5
53893,127922,5
53920,127965,4
53933,127996,5
53955,128026,5
53963,128182,5
53991,128095,5
54012,128111,4
54022,128139,5
54039,128330,5
54053,128204,5
54083,128238,5
54093,128263,4
54113,128352,5
54135,128321,5
54141,128345,5
54145,128359,5
54164,128376,4
54169,128389,5
54178,128411,5
54179,128424,6
54198,128443,3
54197,128450,4
54208,128458,5
54211,128467,5
54209,128474,5
54224,128480,4
54222,128490,5
54232,128480,5
54224,128496,5
54222,128492,5
54224,128499,4
54222,128484,5
54219,128490,5
54214,128466,5
54215,128457,5
54214,128467,4
54201,128459,5
54205,128457,5
54206,128446,5
54194,128437,5
54200,128434,5
54207,128448,4
54202,128439,5
54185,128425,5
54191,128415,5
54187,128410,4
54180,128412,5
54184,128407,5
54180,128391,5
54160,128381,4
54161,128375,4
54160,128374,5
54171,128393,5
54173,128397,5
54168,128394,4
54168,128407,5
54176,128418,5
54194,128432,5
54204,128441,5
54198,128444,4
54215,128460,5
54214,128464,5
54219,128482,5
54224,128498,5
54232,128511,4
54254,128542,6
54258,128563,4
54275,128581,5
54294,128597,5
54294,128626,4
54304,128645,5
54325,128656,5
54331,128675,5
54331,128686,4
54345,128695,4
54348,128706,5
54358,128728,5
54371,128739,5
54384,128768,4
54393,128783,5
54393,128786,5
54414,128818,5
54416,128830,5
54427,128825,4
54417,128840,5
54423,128837,5
54424,128840,5
54432,128851,5
54428,128844,4
54420,128850,5
54452,128876,6
54457,128889,4
54462,128907,5
54414,128917,4
54485,128939,5
54487,128945,5
54504,128966,5
54392,129000,5
54521,129011,4
54531,129029,5
54545,129042,5
54405,129045,5
54549,129049,4
54546,129057,4
54554,129057,5
54579,129071,5
54554,129078,5
54569,129081,4
54575,129094,5
54706,129090,5
54571,129088,5
54577,129099,5
54578,129101,4
54715,129099,5
54581,129096,5
54577,129085,6
54578,129092,4
54620,129092,4
54571,129092,5
54572,129088,5
54577,129096,5
54577,129053,5
54569,129073,4
54559,129064,5
54548,129046,5
54534,128909,5
54511,128985,5
54504,128972,4
54491,128941,5
54474,128771,5
54456,128897,5
54433,128867,4
54414,128808,4
54387,128763,5
54361,128717,5
54335,128677,5
54323,128651,5
54296,128732,4
54265,128558,5
54219,128471,5
54170,128385,5
54133,128484,4
54095,128281,5
54084,128238,5
54067,128239,5
54054,128288,5
54059,128213,4
54063,128207,5
54046,128166,5
54008,128135,5
53984,128063,5
53950,128023,4
53931,127970,5
53893,127915,5
53870,127863,5
53842,127836,5
53824,127798,4
53803,127760,5
53782,127733,5
53753,127696,5
53741,127656,4
53718,127620,5
53703,127582,4
53683,127550,5
53657,127512,5
53641,127479,4
53627,127443,5
53614,127422,5
53604,127402,5
53591,127392,5
53584,127386,4
53580,127372,5
53571,127348,5
53554,127326,5
53544,127279,5
53525,127240,4
53502,127204,5
53479,127170,5
53458,127131,5
53446,127091,5
53411,127043,4
53397,127004,5
53349,126952,10
53349,126952,5
53370,126965,4
53373,126978,6
53377,126997,4
53388,127017,5
53389,127012,4
53405,127023,5
53405,127039,5
53415,127047,5
53420,127066,5
53425,127086,4
53439,127118,5
53458,127137,5
53471,127153,5
53493,127175,5
53510,127214,4
53524,127265,5
53558,127308,5
53582,127362,5
53603,127382,5
53622,127415,4
53629,127443,5
53661,127479,5
53676,127515,5
53699,127551,4
53711,127569,4
53724,127582,5
53723,127604,5
53723,127605,5
53732,127612,4
53744,127618,4
53745,127631,5
53748,127639,5
53764,127650,5
53772,127670,4
53777,127687,5
53789,127713,5
53809,127733,5
53823,127755,5
53829,127775,4
53797,127787,5
53858,127813,5
53865,127829,5
53874,127847,5
53766,127870,5
53896,127887,4
53909,127905,5
53918,127926,5
53773,127922,6
53920,127923,3
53926,127931,5
53926,127946,5
53930,127952,5
53944,127973,5
53952,127990,4
53960,128007,5
54098,128024,5
53974,128033,5
53968,128010,4
53962,128012,4
54119,128016,5
53968,128020,5
53973,128012,5
53971,128023,4
54030,128026,5
53971,128033,5
53988,128034,5
53985,128034,5
53997,128040,4
54009,128082,6
54030,128125,4
54051,128153,5
54071,128085,5
54067,128184,6
54077,128182,3
54067,128198,5
54078,128060,5
54096,128220,5
54092,128238,4
54121,128263,5
54130,128253,5
54144,128323,5
54173,128353,5
54171,128376,4
54198,128520,5
54216,128443,5
54227,128466,5
54239,128480,4
54252,128659,5
54268,128525,5
54265,128524,5
54279,128539,5
54287,128642,4
54298,128578,5
54312,128611,6
54315,128616,4
54329,128669,5
54347,128680,4
54361,128701,5
54384,128730,5
54388,128730,5
54395,128756,5
54401,128760,4
54413,128787,5
54424,128793,5
54429,128830,5
54455,128863,5
54468,128879,4
54480,128902,5
54495,128932,5
54509,128961,5
54539,129006,4
54569,129065,4
54593,129114,5
54614,129143,5
54629,129180,5
54650,129193,4
54657,129209,5
54667,129223,5
54686,129254,6
54686,129269,4
54693,129281,4
54702,129284,5
54706,129305,5
54704,129307,5
54718,129299,5
54721,129309,4
54723,129325,5
54719,129327,5
54726,129334,5
54736,129349,5
54745,129365,4
54740,129359,5
54747,129364,5
54740,129378,5
54746,129377,5
54747,129382,4
54762,129379,5
54756,129389,5
54758,129395,5
54764,129400,5
54773,129394,4
54771,129400,5
54769,129394,5
54766,129393,6
54760,129382,3
54755,129358,5
54745,129364,5
54755,129363,5
54737,129344,5
54726,129303,4
54712,129291,5
54705,129284,5
54696,129250,5
54685,129242,5
54682,129237,4
54679,129236,5
54686,129247,5
54681,129253,5
54687,129266,5
54706,129279,4
54714,129321,5
54728,129348,5
54746,129361,5
54751,129354,4
54744,129340,5
54730,129331,4
54723,129328,5
54723,129312,5
54714,129289,4
54697,129276,4
54688,129248,5
54661,129213,5
54618,129149,5
54607,129099,4
54584,129052,5
54540,128985,5
54390,128910,5
54440,128806,5
54386,128711,4
54323,128620,5
54136,128513,5
54213,128417,5
54171,128340,5
54124,128257,4
54056,128211,5
54063,128159,5
54031,128104,5
54003,128048,5
54084,128031,4
53962,127983,6
53940,127943,4
53915,127903,5
54042,127899,4
53883,127862,4
53875,127865,5
53881,127859,5
53940,127843,5
53875,127845,4
53860,127824,5
53851,127795,5
53838,127765,5
53822,127735,5
53809,127723,4
53802,127705,5
53788,127592,5
53774,127656,5
53750,127633,5
53726,127610,4
53715,127432,5
53704,127525,5
53676,127497,5
53663,127478,5
53651,127358,4
53631,127400,5
53613,127383,6
53603,127351,4
53582,127409,5
53562,127304,4
53561,127290,5
53557,127271,5
53543,127414,5
53535,127232,4
53521,127232,4
53521,127202,5
53510,127300,5
53502,127192,5
53480,127177,4
53485,127146,5
53461,127150,5
53456,127093,5
53422,127064,5
53409,127014,4
53372,126984,5
53348,126936,5
53337,126916,5
53337,126885,5
53309,126843,4
53266,126760,5
53213,126660,5
53171,126607,6
53136,126544,4
53099,126480,4
53075,126448,5
53069,126422,5
53069,126423,5
53053,126421,4
53052,126397,4
53039,126402,5
53053,126404,5
53060,126419,5
53067,126414,4
53062,126429,5
53072,126424,5
53059,126431,5
53063,126423,5
53063,126438,4
53065,126447,5
53083,126458,5
53084,126472,5
53099,126479,5
53096,126484,5
53106,126491,4
53113,126496,5
53105,126513,5
53118,126519,5
53110,126518,4
53122,126518,5
53126,126526,5
53116,126536,5
53124,126532,5
53131,126535,4
53131,126545,5
53139,126562,5
53154,126581,5
53158,126585,4
53172,126617,4
53180,126601,5
53177,126617,5
53179,126631,5
53180,126641,4
53196,126653,5
53198,126663,5
53204,126682,5
53224,126702,5
53234,126727,4
53253,126755,6
53270,126782,4
53280,126793,5
53289,126814,5
53296,126816,4
53307,126842,5
53311,126858,5
53329,126874,5
53336,126891,5
53327,126885,4
53324,126886,5
53342,126893,5
53345,126911,5
53352,126924,5
53357,126940,4
53376,126950,5
53378,126961,5
53381,126961,5
53375,126976,4
53388,126985,4
53386,127010,5
53405,127002,5
53403,127006,5
53405,127001,4
53309,127013,5
53411,127016,6
53413,127024,4
53409,127017,5
53287,127020,4
53408,127026,5
53407,127028,5
53409,127033,5
53360,127022,5
53411,127030,4
53413,127025,5
53410,127021,5
53509,127027,5
53417,127027,5
53408,127032,4
53409,127010,5
53541,126988,5
53376,126949,5
53347,126914,5
53331,126872,4
53384,126834,5
53286,126797,5
53262,126780,5
53252,126743,4
53242,126692,4
53204,126668,5
53182,126638,5
53172,126603,5
53143,126491,4
53148,126573,5
53139,126568,5
53138,126557,5
53125,126410,5
53114,126516,4
53110,126504,5
53108,126497,5
53104,126405,5
53096,126488,5
53091,126462,4
53082,126445,5
53070,126497,5
53060,126399,5
53031,126371,5
53020,126344,5
53011,126477,4
53003,126317,5
52993,126305,5
52984,126284,6
52984,126380,3
52966,126256,5
52958,126255,5
52950,126230,5
52956,126265,4
52953,126217,5
52945,126230,5
52939,126209,5
52921,126173,5
52902,126161,4
52915,126162,5
52916,126173,5
52915,126169,5
52910,126180,5
52919,126189,4
52930,126207,5
52945,126222,5
52958,126250,5
52969,126264,5
52977,126284,4
52986,126301,6
53003,126324,4
53017,126348,5
53025,126389,5
53040,126402,6
53061,126426,3
53077,126453,5
53082,126482,5
53109,126511,4
53115,126510,4
53116,126503,5
53110,126513,5
53122,126528,5
53138,126546,4
53144,126583,5
53169,126611,5
53171,126623,5
53181,126640,5
53186,126657,4
53197,126666,5
53201,126682,5
53204,126684,5
53207,126705,5
53224,126728,4
53238,126764,5
53259,126810,6
53281,126832,4
53316,126870,5
53325,126902,4
53338,126908,5
53352,126960,5
53388,127009,5
53410,127043,5
53414,127043,4
53419,127067,5
53430,127075,5
53429,127080,5
53436,127096,4
53441,127091,8
53433,127091,1
53422,127092,5
53433,127082,5
53431,127087,4
53430,127079,5
53426,127094,5
53428,127092,5
53437,127084,5
53428,127076,4
53411,127057,5
53410,127045,5
53399,127029,6
53393,127024,4
53385,127007,4
53372,126993,5
53354,126945,5
53315,126872,5
53281,126834,5
53283,126826,4
53279,126827,5
53276,126830,5
53278,126825,5
53265,126825,4
53278,126815,4
53278,126803,5
53264,126803,5
53176,126818,5
53281,126812,4
53279,126819,5
53282,126829,5
53146,126837,5
53288,126839,5
53296,126848,5
53301,126870,4
53247,126882,5
53314,126893,5
53320,126902,6
53342,126917,3
53423,126931,5
53335,126912,5
53327,126902,5
53312,126874,5
53457,126865,4
53308,126851,5
53300,126833,5
53284,126823,5
53374,126843,5
53292,126826,4
53276,126806,5
53256,126795,5
53275,126799,5
53265,126794,4
53255,126781,4
53239,126767,5
53241,126685,5
53249,126778,5
53268,126811,4
53290,126842,6
53299,126719,4
53307,126871,5
53330,126901,5
53337,126918,5
53337,126805,4
53331,126906,5
53331,126905,5
53326,126885,5
53324,126956,4
53317,126891,5
53311,126878,5
53292,126844,5
53302,126994,5
53305,126844,4
53292,126847,5
53299,126842,5
53291,126958,5
53289,126838,5
53287,126838,4
53297,126839,5
53296,126882,5
53305,126857,5
53305,126874,4
53321,126875,4
53325,126896,6
53332,126909,4
53343,126937,5
53353,126943,4
53360,126947,5
53357,126936,5
53339,126925,5
53335,126889,5
53318,126870,4
53299,126852,5
53280,126808,5
53259,126778,5
53238,126743,5
53244,126722,4
53225,126707,5
53212,126684,5
53194,126660,5
53175,126624,5
53152,126569,4
53130,126551,5
53110,126503,5
53092,126494,5
53112,126506,4
53095,126497,4
53092,126485,5
53098,126501,6
53098,126504,4
53108,126515,4
53117,126535,5
53123,126548,5
53123,126564,5
53137,126590,5
53166,126637,4
53192,126688,5
53222,126738,5
53249,126765,5
53277,126809,5
53275,126841,4
53292,126846,5
53289,126853,5
53279,126825,5
53248,126765,5
53198,126704,4
53163,126608,5
53105,126503,5
53042,126414,5
52997,126339,5
52968,126286,4
52953,126278,5
52938,126267,5
52943,126256,6
52943,126288,3
52972,126345,4
52993,126378,5
53019,126413,5
53041,126455,5
53056,126470,4
53068,126494,5
53080,126508,5
53105,126549,5
53112,126556,5
53115,126560,4
53116,126574,5
53129,126597,5
53136,126602,5
53136,126616,5
53145,126637,4
53159,126662,5
53187,126687,5
53208,126748,5
53234,126810,5
53268,126839,5
53282,126853,4
53273,126858,5
53275,126858,5
53269,126820,5
53239,126775,4
53109,126705,5
53146,126640,5
53104,126549,5
53019,126395,4
52790,126199,4
52791,125970,5
52639,125715,5
52485,125438,5
52256,125177,4
52203,124975,5
52111,124814,5
52033,124693,5
52035,124539,5
51881,124403,4
51813,124281,5
51742,124177,5
51813,124046,4
51618,123956,5
51581,123910,4
51566,123873,6
51648,123853,4
51539,123848,5
51550,123845,5
51549,123840,4
51555,123825,5
51531,123813,5
51521,123796,5
51517,123797,4
51516,123726,4
51515,123791,5
51529,123801,5
51530,123810,5
51554,123734,4
51571,123881,5
51583,123891,5
51584,123888,5
51576,123739,5
51558,123856,4
51562,123850,5
51567,123850,5
51567,123906,5
51577,123884,5
51590,123901,4
51616,123942,5
51630,124118,6
51674,124051,4
51725,124138,5
51783,124253,4
51854,124498,5
51921,124496,5
51991,124602,5
52047,124727,5
52117,124899,4
52204,124998,5
52285,125133,5
52347,125255,5
52413,125356,4
52473,125455,4
52535,125574,5
52621,125731,5
52708,125881,5
52789,126025,4
52855,126134,5
52908,126212,5
52950,126285,5
52993,126382,5
53064,126508,4
53139,126638,5
53214,126758,5
53287,126892,5
53362,127016,5
53411,127120,4
53476,127221,5
53528,127307,5
53565,127389,5
53606,127454,5
53645,127527,4
53706,127616,5
53751,127709,5
53803,127800,5
53860,127910,5
53929,128029,4
54001,128147,5
54079,128264,5
54127,128363,5
54171,128460,4
54230,128553,4
54288,128646,5
54341,128742,5
54393,128821,5
54439,128902,5
54481,128981,4
54512,129036,5
54547,129090,5
54578,129147,5
54614,129193,4
54645,129261,5
54675,129326,5
54716,129374,5
54741,129429,5
54773,129477,4
54794,129519,5
54823,129564,5
54829,129590,5
54859,129641,5
54878,129681,4
54910,129736,5
54942,129778,5
54957,129812,5
54976,129848,5
54982,129856,4
55008,129883,5
55018,129927,5
55049,129971,5
55063,129990,4
55076,130030,6
55089,130042,3
55096,130066,5
55113,130094,5
55140,130117,4
55162,130162,5
55182,130224,5
55230,130278,5
55278,130365,5
55311,130430,4
55328,130450,5
55328,130447,5
55327,130455,5
55338,130477,5
55337,130481,4
55338,130473,5
55350,130501,5
55360,130529,5
55310,130559,5
55382,130545,4
55388,130560,5
55393,130569,6
55265,130581,4
55410,130589,4
55424,130613,4
55421,130623,5
55291,130621,5
55411,130601,5
55417,130596,4
55418,130603,5
55462,130607,5
55419,130603,5
55415,130598,5
55401,130592,4
55548,130589,5
55400,130583,5
55391,130573,5
55383,130568,5
55502,130551,4
55383,130554,5
55372,130530,5
55361,130524,5
55394,130515,5
55370,130512,4
55368,130518,5
55370,130524,5
55365,130476,6
55365,130521,4
55367,130513,4
55364,130519,5
55362,130388,5
55352,130504,5
55345,130506,4
55344,130482,4
55320,130314,5
55328,130454,5
55328,130463,5
55328,130454,5
55309,130425,4
55284,130394,5
55306,130405,5
55306,130419,5
55285,130519,4
55279,130390,5
55289,130386,5
55280,130366,5
55262,130500,5
55242,130312,5
55224,130278,4
55197,130246,5
55197,130278,5
55160,130170,6
55137,130127,3
55109,130085,5
55090,130049,5
55066,130004,5
55041,129960,5
55010,129905,4
54978,129858,5
54963,129806,5
54931,129776,5
54921,129765,4
54920,129730,4
54906,129726,5
54898,129699,5
54878,129667,5
54863,129645,4
54849,129618,5
54834,129583,5
54814,129557,5
54797,129540,5
54796,129547,4
54796,129535,6
54764,129446,4
54690,129338,5
54643,129256,5
54611,129188,6
54590,129152,3
54547,129108,5
54532,129049,5
54516,129031,5
54488,128994,4
54458,128927,5
54421,128848,5
54384,128801,5
54356,128743,5
54316,128681,4
54301,128654,5
54284,128642,5
54295,128648,5
54296,128640,4
54280,128631,4
54274,128621,5
54273,128628,5
54284,128634,5
54294,128645,4
54296,128660,5
54298,128657,6
54298,128654,4
54296,128659,5
54311,128680,4
54315,128684,5
54314,128689,5
54316,128690,5
54316,128681,5
54308,128674,4
54309,128692,5
54316,128688,5
54314,128677,5
54305,128677,5
54304,128668,4
54306,128662,5
54299,128651,5
54295,128650,5
54291,128649,4
54286,128651,4
54294,128647,5
54293,128642,5
54293,128632,5
54290,128640,4
54286,128655,5
54289,128646,5
54290,128642,11
54291,128641,3
54296,128647,5
54291,128642,5
54279,128636,5
54278,128622,5
54272,128616,4
54272,128623,5
54271,128617,5
54223,128602,5
54261,128610,5
54267,128598,4
54264,128606,5
54148,128599,5
54268,128611,5
54268,128605,5
54264,128602,4
54126,128605,5
54260,128605,5
54264,128597,5
54266,128599,5
54274,128577,4
54256,128577,5
54246,128571,5
54242,128555,6
54356,128535,3
54228,128532,5
54223,128513,5
54209,128481,5
54332,128450,5
54152,128385,4
54107,128316,5
54063,128232,5
53973,127915,5
53650,127388,5
53242,126679,4
52958,126190,5
52723,125759,5
52476,125316,5
52233,124914,5
52083,124674,4
51975,124417,5
52012,124632,5
52139,124844,5
52203,124923,5
52184,124729,5
52115,124730,4
52032,124609,5
51974,124512,5
51930,124411,4
51906,124388,4
51862,124328,5
51823,124234,5
51767,124253,5
51712,124059,4
51668,123963,5
51637,123922,5
51617,124055,5
51616,123873,5
51605,123859,4
51589,123851,5
51591,123937,5
51617,123907,5
51648,123942,5
51672,124013,4
51706,124081,5
51739,124107,5
51771,124175,5
51825,124276,5
51906,124432,4
51993,124578,6
52063,124703,4
52115,124774,5
52131,124802,5
52135,124797,4
52142,124806,5
52147,124817,5
52145,124837,5
52160,124866,4
52196,124938,4
52247,125015,5
52303,125120,5
52367,125234,5
52419,125348,4
52502,125477,5
52561,125599,5
52624,125696,5
52663,125741,5
52689,125805,4
52721,125875,5
52753,125924,5
52795,126005,5
52829,126075,5
52887,126150,4
52916,126203,5
52927,126227,6
52940,126242,4
52957,126287,5
52980,126317,4
53006,126375,5
53039,126427,5
53059,126473,5
53092,126509,5
53116,126561,4
53130,126585,5
53149,126630,5
53173,126681,5
53209,126748,4
53245,126814,4
53285,126867,5
53312,126912,5
53335,126958,5
53366,127017,4
53395,127096,5
53456,127166,5
53498,127235,5
53535,127319,5
53551,127360,4
53569,127377,5
53582,127401,5
53605,127438,5
53630,127474,5
53667,127551,4
53715,127634,5
53768,127735,5
53808,127808,5
53842,127891,5
53899,127967,4
53937,128041,5
53976,128088,5
53979,128097,5
53977,128072,5
53961,128049,4
53955,128036,5
53960,128050,5
53964,128075,5
53969,128090,4
53989,128116,4
54018,128171,5
54052,128231,5
54063,128259,5
54070,128240,5
54028,128219,4
54034,128197,5
54013,128149,5
53988,128097,5
53869,128079,4
53965,128074,5
53967,128088,5
53970,128081,5
53817,128065,5
53948,128060,4
53956,128055,5
53946,128053,5
53922,128061,5
53959,128067,5
53959,128072,4
53966,128076,5
54067,128087,5
53978,128121,5
54001,128132,4
54022,128185,4
54198,128222,5
54069,128260,5
54072,128263,5
54087,128271,4
54169,128301,6
54127,128347,4
54128,128366,5
54134,128356,5
54153,128385,4
54168,128431,5
54194,128487,5
54242,128549,5
54251,128503,5
54296,128647,4
54336,128731,5
54389,128807,5
54420,128732,5
54442,128903,5
54445,128924,5
54495,129010,4
54535,129010,5
54565,129124,5
54596,129177,5
54620,129247,4
54664,129388,5
54704,129371,5
54747,129449,5
54781,129519,4
54818,129724,4
54840,129610,6
54866,129657,3
54887,129686,5
54917,129842,4
54944,129797,5
54964,129836,5
54982,129860,5
54983,129884,5
54993,129872,4
54991,129880,5
55013,129903,5
55011,129910,5
55012,129921,5
55018,129906,4
55008,129910,5
55016,129919,5
55023,129928,5
55031,129940,5
55047,129970,4
55062,130000,5
55061,130009,5
55082,130048,6
55114,130082,4
55133,130117,4
55149,130152,5
55160,130162,5
55156,130172,5
55164,130189,4
55169,130198,4
55187,130213,5
55199,130233,5
55210,130266,5
55221,130297,4
55256,130332,5
55272,130375,5
55302,130414,5
55327,130469,5
55350,130504,4
55386,130567,5
55420,130617,5
55440,130644,5
55440,130639,5
55428,130636,5
55423,130621,4
55421,130610,5
55407,130578,5
55403,130588,6
55395,130583,3
55392,130572,5
55389,130567,5
55388,130569,5
55380,130546,5
55387,130563,4
55395,130574,5
55399,130586,5
55409,130597,5
55411,130598,4
55398,130599,4
55405,130591,5
55416,130611,5
55421,130618,5
55421,130631,4
55427,130631,5
55433,130625,5
55421,130625,5
55419,130617,5
55410,130600,4
55383,130569,6
55377,130552,4
55376,130534,5
55354,130500,5
55335,130477,6
55320,130453,3
55306,130421,5
55297,130403,5
55287,130397,5
55287,130400,4
55271,130371,5
55265,130361,5
55255,130358,5
55255,130327,5
55243,130315,4
55232,130302,5
55237,130319,5
55227,130292,5
55222,130276,4
55219,130274,4
55223,130283,5
55130,130292,5
55231,130301,5
55250,130325,4
55250,130333,5
55114,130339,6
55271,130364,4
55293,130384,5
55292,130410,4
55223,130438,5
55328,130471,5
55356,130499,5
55374,130559,5
55481,130601,4
55436,130643,5
55458,130691,5
55499,130756,5
55670,130795,5
55549,130836,4
55564,130879,5
55600,130934,5
55728,130992,5
55665,131043,5
55700,131120,4
55753,131205,5
55817,131282,5
55832,131359,5
55873,131404,4
55891,131446,4
55910,131407,5
55936,131522,6
55957,131580,4
55995,131637,4
56025,131543,5
56040,131703,5
56067,131733,5
56071,131757,5
56088,131637,4
56097,131800,5
56109,131812,5
56127,131827,5
56131,131904,5
56149,131902,4
56172,131920,5
56177,131926,5
56163,132056,5
56169,131902,5
56162,131892,4
56141,131886,5
56159,132028,5
56161,131901,5
56170,131916,5
56178,131931,4
56179,131993,5
56199,131960,5
56224,132014,6
56253,132076,3
56302,132151,4
56330,132214,5
56362,132258,5
56380,132288,5
56405,132320,4
56420,132365,5
56435,132402,5
56471,132436,5
56483,132469,5
56497,132489,4
56493,132487,5
56495,132510,5
56495,132510,5
56515,132522,5
56516,132543,4
56543,132565,5
56548,132585,5
56556,132606,5
56579,132643,5
56601,132698,5
56630,132728,4
56655,132774,5
56676,132822,5
56698,132852,4
56705,132872,4
56716,132901,5
56725,132911,5
56733,132914,5
56732,132900,4
56737,132912,5
56740,132927,5
56748,132941,5
56753,132958,5
56771,132982,4
56796,133022,5
56816,133059,5
56842,133087,5
56850,133118,5
56859,133130,4
56880,133169,5
56891,133194,5
56912,133215,5
56926,133251,5
56948,133282,4
56957,133308,6
56969,133319,4
56973,133335,5
56977,133338,5
56992,133360,4
56997,133359,5
57002,133380,5
57004,133378,5
57006,133390,4
57004,133390,4
57007,133391,5
57007,133386,5
57006,133384,5
56996,133387,4
57000,133375,5
56993,133365,5
56990,133361,5
56997,133356,5
56981,133335,4
56959,133310,5
56963,133301,5
56945,133283,5
56935,133271,5
56922,133252,4
56919,133240,5
56912,133246,6
56922,133225,4
56910,133228,5
56891,133193,4
56873,133174,5
56870,133150,5
56863,133125,5
56845,133117,5
56761,133086,4
56820,133057,5
56787,133001,5
56756,132964,5
56604,132920,4
56714,132885,8
56687,132837,1
56656,132788,5
56482,132739,5
56606,132702,4
56581,132649,5
56544,132584,5
56548,132523,5
56475,132486,5
56454,132439,4
56439,132401,5
56537,132326,5
56365,132269,6
56327,132200,4
56284,132118,4
56372,132072,5
56228,132051,5
56211,132020,5
56198,131992,5
56208,131945,4
56138,131904,5
56133,131875,5
56133,131868,5
56139,131835,5
56137,131889,4
56141,131893,5
56135,131874,5
56110,131745,5
56112,131837,4
56106,131831,5
56100,131807,4
56086,131646,5
56075,131772,5
56051,131729,6
56033,131706,3
56017,131691,5
56010,131652,5
55993,131638,5
55984,131605,4
55959,131697,5
55924,131535,5
55919,131495,5
55879,131448,5
55861,131576,4
55834,131381,5
55825,131361,5
55829,131350,5
55822,131388,5
55808,131326,4
55810,131309,5
55792,131301,5
55795,131275,5
55775,131264,5
55774,131255,4
55758,131241,5
55758,131219,5
55742,131214,5
55747,131216,4
55752,131221,5
55743,131235,4
55748,131238,5
55757,131242,5
55760,131250,4
55767,131257,5
55771,131274,5
55782,131283,5
55786,131277,5
55787,131290,4
55789,131294,5
55794,131294,5
55796,131301,5
55798,131300,5
55793,131299,4
55801,131302,5
55795,131306,5
55797,131305,5
55797,131311,5
55802,131308,4
55798,131302,5
55806,131304,5
55802,131297,5
55798,131309,4
55801,131304,4
55801,131305,6
55802,131319,4
55808,131317,5
55803,131319,4
55809,131324,5
55810,131323,5
55813,131320,5
55811,131327,5
55811,131324,4
55808,131320,5
55809,131325,5
55818,131330,5
55821,131334,5
55816,131329,4
55825,131323,5
55820,131338,5
55824,131345,5
55827,131361,5
55829,131364,4
55825,131359,5
55836,131367,5
55824,131357,5
55829,131359,4
55827,131362,4
55836,131358,5
55832,131355,5
55832,131349,5
55831,131350,4
55839,131360,4
55833,131364,5
55838,131356,5
55838,131349,5
55835,131352,4
55830,131352,5
55828,131345,5
55834,131348,5
55827,131343,5
55817,131332,4
55807,131322,5
55799,131306,5
55785,131280,5
55773,131236,5
55756,131220,5
55737,131175,4
55709,131131,5
55606,131069,5
55640,131015,6
55609,130943,3
55564,130885,5
55404,130813,5
55487,130746,5
55461,130685,5
55419,130608,4
55240,130554,5
55339,130470,5
55305,130400,5
55251,130338,4
55253,130262,4
55176,130194,5
55137,130117,5
55097,130059,5
55201,129989,4
55036,129918,5
54981,129862,5
54951,129783,5
55038,129713,5
54860,129630,4
54823,129559,6
54775,129479,4
54772,129401,5
54695,129328,5
54652,129258,6
54621,129191,3
54579,129087,5
54558,129100,5
54546,129072,5
54525,129051,4
54524,128926,5
54509,129023,5
54512,129018,5
54502,129015,5
54509,128884,4
54516,129020,5
54524,129040,5
54528,129045,5
54524,129045,4
54520,129033,4
54515,129034,5
54513,129024,5
54513,129140,5
54497,129004,4
54485,128968,5
54473,128948,6
54463,129089,4
54444,128895,5
54416,128856,4
54376,128780,5
54365,128816,5
54331,128677,5
54304,128640,5
54298,128639,4
54304,128656,5
54314,128671,5
54316,128676,5
54319,128663,5
54309,128659,4
54313,128680,5
54331,128698,5
54343,128721,5
54352,128748,5
54356,128765,4
54368,128757,5
54362,128767,5
54362,128785,5
54391,128801,4
54407,128845,4
54425,128863,5
54423,128869,6
54432,128875,4
54439,128892,4
54455,128924,5
54477,128969,5
54499,129007,5
54525,129039,5
54541,129056,4
54538,129072,5
54550,129067,5
54540,129038,5
54526,129007,5
54491,128982,4
54481,128964,5
54472,128936,5
54466,128948,5
54468,128947,5
54470,128935,4
54449,128908,5
54440,128911,5
54440,128922,5
54463,128929,5
54453,128911,4
54431,128876,5
54417,128846,5
54400,128812,6
54378,128786,3
54355,128748,4
54346,128735,5
54331,128722,5
54332,128700,5
54324,128692,4
54307,128675,5
54315,128675,5
54309,128673,5
54309,128678,5
54311,128670,4
54293,128647,5
54289,128622,5
54273,128603,5
54249,128574,5
54240,128560,4
54234,128548,5
54237,128523,5
54220,128511,5
54197,128484,5
54183,128431,5
54145,128400,4
54137,128374,5
54129,128361,5
54120,128333,6
54108,128314,3
54088,128273,5
54063,128226,5
54030,128167,5
54017,128145,4
54014,128146,4
54011,128138,5
54021,128146,5
54012,128152,5
54014,128144,4
53978,128142,5
54010,128152,5
54019,128155,5
54024,128167,5
53911,128181,4
54031,128175,5
54035,128186,5
54041,128203,5
53919,128238,5
54066,128259,4
54086,128274,6
54095,128293,4
54070,128300,5
54114,128310,5
54107,128309,4
54104,128313,5
54230,128333,5
54125,128338,5
54116,128336,5
54115,128329,4
54272,128325,5
54110,128309,5
54103,128299,5
54094,128267,4
54150,128242,4
54069,128240,5
54055,128212,5
54055,128201,5
54062,128202,4
54053,128212,5
54047,128213,5
54051,128219,5
54053,128129,5
54053,128227,4
54065,128237,5
54067,128245,7
54072,128127,3
54076,128260,5
54076,128255,5
54075,128266,4
54079,128186,5
54093,128290,5
54092,128288,5
54107,128310,4
54109,128392,5
54116,128334,5
54126,128350,5
54136,128372,5
54146,128540,4
54154,128394,5
54159,128417,5
54164,128416,5
54173,128520,4
54178,128431,4
54175,128439,5
54186,128441,5
54192,128479,5
54193,128467,4
54204,128484,5
54215,128489,5
54205,128479,6
54207,128495,4
54211,128477,4
54212,128483,5
54209,128491,5
54210,128479,5
54218,128480,5
54207,128481,4
54208,128468,5
54204,128482,5
54213,128485,5
54218,128512,5
54228,128524,4
54231,128528,5
54233,128540,5
54236,128526,5
54244,128529,5
54245,128534,4
54238,128546,5
54253,128546,5
54249,128557,5
54257,128561,5
54260,128578,4
54282,128595,5
54300,128611,5
54308,128636,5
54310,128654,4
54330,128674,5
54334,128697,5
54333,128706,5
54350,128720,5
54365,128738,4
54384,128760,5
54377,128789,5
54392,128801,5
54404,128813,5
54406,128820,4
54423,128834,5
54426,128865,5
54454,128891,5
54458,128913,5
54468,128924,4
54478,128937,5
54478,128947,5
54482,128946,5
54486,128948,5
54481,128946,5
54475,128955,4
54477,128953,5
54480,128936,5
54470,128934,4
54470,128927,4
54461,128919,5
54453,128905,5
54453,128911,5
54457,128911,4
54450,128908,5
54448,128887,5
54432,128871,5
54425,128849,5
54432,128857,4
54426,128848,5
54426,128842,5
54408,128839,5
54409,128829,5
54408,128816,4
54392,128792,5
54373,128761,5
54345,128711,5
54324,128682,5
54300,128648,4
54280,128614,6
54270,128595,4
54256,128559,5
54244,128535,5
54232,128528,4
54238,128521,5
54150,128534,5
54243,128552,5
54254,128567,4
54268,128583,4
54147,128596,5
54293,128629,5
54303,128656,5
54322,128665,4
54224,128677,5
54329,128703,5
54348,128730,5
54355,128738,5
54433,128767,4
54392,128796,5
54401,128821,5
54427,128866,5
54587,128899,5
54470,128923,4
54472,128936,5
54501,128979,5
54617,129017,7
54547,129064,3
54569,129105,4
54590,129148,5
54653,129190,5
54656,129260,5
54689,129334,5
54749,129418,4
54783,129441,5
54834,129579,5
54882,129652,5
54903,129692,4
54931,129607,4
54949,129774,5
54971,129815,5
55010,129864,5
55030,129769,4
55066,129972,4
55094,130030,5
55139,130096,5
55165,130186,5
55209,130214,3
55226,130283,5
55275,130341,5
55320,130532,5
55350,130449,5
55376,130510,4
55410,130564,5
55428,130758,5
55459,130651,5
55470,130684,5
55478,130696,4
55491,130762,5
55501,130721,5
55521,130753,5
55535,130781,5
55550,130806,4
55558,130807,5
55560,130825,5
55563,130846,5
55573,130853,4
55586,130859,6
55577,130850,4
55591,130843,5
55573,130844,5
55569,130841,6
55575,130835,3
55569,130824,5
55561,130831,5
55567,130822,5
55548,130823,4
55554,130823,5
55566,130825,5
55563,130800,5
55551,130813,5
55565,130831,4
55578,130855,5
55597,130883,5
55621,130926,5
55637,130967,5
55666,131004,4
55680,131051,5
55706,131089,5
55750,131162,5
55779,131233,4
55832,131319,4
55880,131422,6
55935,131484,4
55977,131567,5
56015,131625,4
56044,131698,7
56090,131761,3
56118,131818,5
56159,131895,5
56200,131956,4
56244,132025,5
56282,132088,5
56307,132138,5
56341,132197,5
56362,132247,4
56393,132286,5
56400,132309,5
56409,132324,5
56422,132342,5
56435,132368,4
56445,132389,5
56455,132403,5
56471,132427,5
56493,132472,5
56515,132498,4
56516,132517,5
56534,132538,6
56557,132586,4
56597,132652,4
56621,132696,4
56642,132716,5
56650,132732,5
56674,132777,5
56703,132840,4
56728,132892,5
56761,132952,5
56792,132994,5
56826,133037,5
56840,133084,4
56869,133123,5
56907,133185,5
56933,133255,5
56970,133321,5
57018,133373,4
57037,133426,5
57070,133460,5
57084,133500,5
57114,133549,5
57093,133594,4
57159,133639,5
57180,133667,5
57213,133718,6
57103,133744,4
57248,133775,4
57267,133815,5
57282,133846,5
57152,133892,5
57337,133946,4
57362,133992,4
57403,134054,5
57418,134099,5
57452,134138,5
57479,134176,4
57492,134204,5
57642,134240,5
57516,134246,5
57515,134237,5
57508,134243,4
57677,134223,5
57498,134227,5
57510,134224,5
57488,134209,5
57559,134186,5
57492,134193,4
57489,134174,5
57463,134134,5
57433,134069,6
57405,134048,3
57389,134017,5
57359,133975,5
57343,133845,5
57320,133918,5
57305,133883,4
57290,133832,5
57242,133627,5
57206,133724,5
57177,133668,5
57157,133631,4
57132,133534,5
57105,133539,5
57074,133466,5
57021,133376,4
56968,133401,5
56926,133241,5
56897,133160,5
56841,133096,5
56798,133175,4
56756,132926,6
56686,132803,4
56633,132683,5
56547,132646,5
56469,132420,4
56386,132274,5
56310,132122,5
56220,132006,5
56141,131841,5
56055,131690,4
55973,131535,5
55887,131392,5
55809,131247,5
55715,131098,5
55643,130977,4
55557,130810,5
55467,130651,5
55377,130506,5
55323,130398,4
55270,130311,4
55206,130207,5
55141,130080,5
55072,129972,5
55023,129868,4
54963,129778,5
54928,129730,6
54907,129692,4
54892,129648,5
54859,129617,4
54845,129559,5
54818,129526,5
54801,129505,5
54795,129515,5
54802,129507,4
54812,129515,5
54810,129509,5
54812,129513,5
54807,129514,5
54815,129525,4
54812,129535,5
54823,129544,5
54838,129565,5
54853,129599,5
54872,129631,4
54891,129672,5
54909,129705,5
54915,129707,5
54928,129734,4
54935,129746,4
54941,129760,5
54950,129792,6
54980,129817,4
55009,129858,4
55019,129901,5
55051,129952,5
55083,129981,5
55089,130015,5
55118,130045,4
55126,130069,5
55145,130099,5
55168,130143,5
55192,130180,5
55191,130168,4
55179,130159,5
55175,130148,5
55175,130138,5
55158,130126,5
55154,130108,4
55158,130114,5
55156,130119,5
55153,130115,5
55140,130100,5
55135,130090,4
55136,130099,5
55140,130110,5
55150,130121,5
55174,130150,4
55173,130161,4
55185,130173,5
55193,130189,5
55207,130206,5
55222,130235,4
55241,130279,5
55255,130296,5
55250,130318,5
55286,130340,5
55292,130362,4
55298,130381,5
55217,130410,5
55325,130423,5
55337,130434,5
55364,130477,4
55225,130496,5
55380,130504,5
55384,130523,5
55389,130546,5
55353,130563,5
55409,130571,4
55433,130604,5
55430,130605,5
55538,130627,5
