RED,IR,EKG,TIME
54867,130148,8
54859,130133,7
55144,130666,8
55144,130666,5
55262,130865,7
55341,130995,8
55381,131060,5
55387,131075,7
55430,130408,8
55485,130522,5
55693,130892,7
55693,130892,8
55727,130890,5
55684,130883,7
55715,130946,8
55756,131008,7
55783,131061,5
56011,131471,8
56011,131471,7
55946,131551,5
56064,131580,8
56086,131588,7
56066,131556,7
56326,132033,8
56326,132033,7
56382,132119,5
56401,132157,8
56416,132121,7
56527,132153,5
56438,132148,8
56417,132179,7
56614,132513,10
56614,132513,7
56665,132523,5
56631,132549,5
56648,132582,10
56656,132623,5
56701,132670,5
56936,133085,10
56936,133085,5
56914,133068,5
56928,133081,10
56945,133000,5
57000,133233,5
57465,134058,10
57465,134058,5
57547,134193,5
57598,134344,10
57619,134299,5
57629,134326,5
57651,134334,10
57623,134508,5
57650,134375,7
57743,134516,8
57743,134516,5
57748,134523,7
57766,134561,8
57778,134605,5
57834,134686,7
57884,134773,8
57924,134858,5
58086,135141,7
58086,135141,8
58138,135256,5
58181,135318,7
58220,135357,8
58255,135450,5
58310,135534,7
58542,135953,7
58542,135953,5
58590,136006,7
58598,136074,8
58638,136106,5
58661,136124,7
58660,136145,8
58549,135936,9
58549,135936,8
58524,135851,5
58472,135777,7
58406,135688,6
58344,135587,1
58282,135458,2
58196,135296,5
58107,135154,6
58025,135009,4
57949,134893,4
57873,134763,5
57809,134643,5
57745,134530,5
57682,134441,5
57646,134366,4
57594,134295,5
57551,134204,5
57496,134092,5
57428,133981,5
57349,133849,4
57289,133766,5
57257,133671,5
57198,133588,5
57151,133514,4
57104,133416,4
57059,133339,5
57024,133258,5
56966,133191,5
56939,133137,5
56902,133087,4
56882,133050,5
56863,133014,5
56850,132979,5
56810,132914,4
56762,132821,5
56720,132733,5
56653,132640,5
56640,132611,7
56631,132615,2
56615,132581,5
56603,132545,5
56582,132521,5
56566,132473,5
56536,132446,4
56527,132430,5
56528,132431,5
56539,132454,5
56542,132456,5
56525,132449,4
56535,132442,5
56531,132444,5
56531,132447,5
56449,132455,4
56544,132471,5
56552,132470,4
56551,132462,5
56424,132475,5
56551,132468,4
56561,132481,5
56560,132485,5
56518,132491,5
56560,132494,5
56563,132500,4
56567,132503,5
56651,132494,5
56556,132488,5
56564,132492,5
56562,132500,4
56713,132486,5
56550,132466,5
56545,132478,5
56551,132452,5
56613,132432,4
56527,132423,5
56525,132419,6
56512,132402,4
56517,132381,4
56498,132377,4
56483,132358,6
56465,132326,4
56428,132168,5
56366,132118,4
56281,131982,5
56183,131815,10
56093,131510,9
56012,131511,7
55823,131214,8
55823,131214,9
55790,131150,10
55758,131146,5
55683,130992,7
55683,130992,8
55687,130995,5
55680,130986,7
55694,131083,8
55672,130937,5
55646,130881,7
55545,130735,8
55545,130735,5
55557,130725,7
55557,130749,8
55570,130766,5
55589,130799,7
55575,130822,8
55581,130838,5
55610,130846,7
55505,130649,8
55505,130649,9
55481,130622,8
55475,130605,5
55474,130576,7
55493,130616,8
55493,130616,5
55475,130630,7
55495,130635,8
55495,130631,5
55477,130602,7
55447,130507,8
55424,130519,9
55424,130519,5
55423,130495,8
55422,130501,7
55425,130503,5
55402,130509,8
55418,130512,7
55430,130516,10
55430,130516,7
55435,130518,5
55430,130517,8
55445,130553,7
55440,130524,5
55401,130466,8
55401,130466,7
55374,130461,5
55395,130454,8
55401,130448,7
55385,130440,7
55360,130401,8
55360,130401,7
55362,130403,5
55361,130394,10
55371,130419,9
55355,130383,8
55355,130383,7
55379,130384,9
55353,130393,10
55362,130390,5
55345,130382,8
55345,130382,7
55358,130389,7
55370,130390,10
55356,130398,5
55275,130406,5
55381,130427,10
55381,130427,5
55390,130416,5
55388,130438,10
55259,130436,5
55386,130435,5
55376,130423,10
55378,130420,5
55415,130421,5
55361,130391,10
55358,130403,5
55368,130399,5
55476,130383,10
55371,130396,5
55360,130395,7
55373,130386,5
55383,130385,1
55348,130370,3
55356,130364,5
55340,130349,4
55334,130306,5
55313,130321,5
55313,130310,5
55314,130303,5
55298,130191,4
55291,130263,5
55287,130261,5
55276,130241,6
55253,130051,3
55213,130110,5
55165,130043,5
55135,129989,5
55127,129963,5
55108,129938,4
55070,129879,5
55045,129832,5
55031,129924,5
55026,129803,5
55014,129797,4
55029,129807,5
55034,129965,5
55036,129813,5
55033,129813,5
55034,129811,4
55022,129863,5
55030,129801,5
55023,129805,5
55019,129813,5
55030,129824,5
55035,129809,4
55034,129801,5
55028,129798,5
55023,129801,6
55021,129789,3
55018,129782,5
55020,129788,5
55020,129785,5
55017,129778,4
55027,129793,5
55009,129792,5
55025,129794,5
55028,129802,5
55023,129794,4
55022,129783,5
55019,129791,5
55013,129795,5
55018,129783,5
55007,129750,4
54996,129744,5
54990,129732,5
54983,129722,5
54983,129727,5
54985,129730,4
54985,129739,6
54991,129735,4
54995,129736,5
54992,129727,5
54977,129729,4
54984,129729,5
54980,129712,5
54973,129699,5
54975,129704,4
54971,129703,5
54967,129689,5
54963,129694,5
54969,129698,5
54961,129682,4
54967,129680,5
54953,129675,5
54956,129684,5
54955,129678,5
54964,129676,4
54955,129674,5
54955,129670,5
54962,129667,5
54947,129657,5
54943,129658,4
54937,129643,5
54923,129628,6
54918,129611,4
54914,129592,5
54901,129594,4
54897,129578,5
54894,129576,5
54884,129550,5
54874,129524,4
54863,129506,4
54851,129478,5
54834,129459,5
54815,129436,5
54804,129399,4
54785,129370,5
54782,129360,5
54776,129359,5
54760,129324,5
54738,129286,4
54723,129254,5
54699,129210,5
54671,129172,5
54648,129129,5
54626,129072,4
54583,129011,5
54571,128979,5
54547,128942,6
54529,128924,4
54498,128910,4
54515,128890,5
54490,128860,5
54470,128808,5
54340,128731,5
54386,128660,4
54357,128594,5
54320,128538,5
54162,128493,5
54270,128458,4
54251,128423,4
54245,128407,5
54198,128408,5
54228,128409,5
54242,128416,4
54235,128400,5
54320,128381,5
54216,128358,5
54197,128344,5
54186,128328,5
54321,128307,4
54178,128297,5
54172,128297,5
54164,128271,5
54233,128255,4
54161,128265,5
54160,128277,5
54162,128268,5
54168,128256,5
54153,128267,4
54161,128264,5
54158,128258,5
54155,128169,5
54145,128242,5
54139,128249,4
54143,128219,5
54126,128083,5
54115,128188,5
54107,128169,5
54104,128168,4
54107,128067,5
54106,128154,5
54092,128138,5
54083,128110,4
54053,128128,6
54043,128031,4
54012,127997,5
53999,127948,5
53964,128038,4
53937,127862,5
53919,127833,5
53910,127800,5
53893,127861,5
53843,127700,4
53815,127646,5
53785,127578,5
53750,127549,5
53719,127461,5
53686,127413,4
53651,127336,5
53607,127278,5
53574,127208,5
53533,127123,5
53487,127048,4
53439,126959,5
53395,126896,5
53368,126824,5
53306,126740,4
53261,126660,5
53223,126578,6
53185,126502,4
53134,126385,5
53059,126289,4
53039,126258,5
53023,126229,5
53004,126164,5
52955,126107,5
52932,126051,4
52888,125972,5
52873,125944,5
52868,125932,5
52845,125932,5
52881,125974,4
52916,126034,5
52934,126089,5
52970,126146,5
53004,126206,5
53045,126270,4
53070,126325,5
53096,126336,5
53080,126336,5
53076,126302,4
53056,126269,4
53033,126238,5
53020,126223,5
53021,126221,5
53038,126261,4
53038,126259,5
53039,126229,5
53024,126246,5
53034,126249,5
53045,126263,4
53060,126279,5
53059,126284,5
53087,126331,5
53131,126414,5
53206,126564,4
53284,126683,5
53308,126711,5
53289,126651,5
53237,126582,5
53226,126561,4
53230,126587,5
53245,126622,5
53287,126703,5
53325,126732,5
53312,126707,4
53291,126694,5
53284,126662,5
53263,126626,5
53237,126577,4
53192,126525,4
53164,126463,5
53128,126391,5
53108,126360,5
53095,126352,4
53101,126356,5
53101,126344,5
53076,126310,5
53086,126339,5
53096,126362,4
53133,126428,5
53175,126487,5
53206,126546,5
53226,126572,5
53225,126540,4
53194,126499,10
53094,126445,5
53144,126435,5
53148,126435,5
53166,126465,3
53080,126494,5
53180,126477,5
53140,126410,5
53089,126309,4
52973,126302,5
53091,126367,5
53155,126457,5
53186,126496,4
53230,126481,5
53154,126432,5
53095,126303,5
53018,126172,5
53066,126023,4
52868,125913,5
52837,125882,5
52855,125922,5
52991,126010,5
52932,126051,4
52974,126128,5
53035,126248,6
53087,126280,4
53057,126243,5
53023,126215,4
53042,126224,7
53013,126118,3
52973,126097,5
52959,126104,5
52965,126116,4
52966,125998,5
52960,126108,5
52965,126112,5
52976,126141,4
53021,126087,4
53062,126293,5
53097,126359,5
53094,126307,5
53027,126224,4
52971,126104,5
52943,126074,5
52951,126093,5
52953,126215,5
52935,126052,4
52922,126035,5
52951,126108,5
53034,126376,6
53090,126341,4
53124,126383,4
53084,126309,5
53016,126230,5
52948,126079,5
52932,126044,5
52929,126057,4
52938,126071,5
52909,126010,5
52855,125917,5
52804,125835,5
52800,125810,4
52795,125769,5
52741,125705,5
52707,125664,5
52713,125670,4
52764,125786,4
52837,125909,5
52897,125977,5
52890,125965,5
52880,125943,5
52865,125943,4
52894,125987,5
52953,126112,5
53019,126210,6
53039,126222,3
53019,126191,5
53006,126182,5
53027,126204,5
53039,126237,5
53072,126298,4
53092,126328,5
53120,126380,5
53125,126378,5
53114,126360,5
53088,126318,4
53080,126314,5
53104,126351,5
53122,126378,5
53110,126340,5
53056,126243,4
52993,126129,5
52968,126094,5
52974,126126,5
53016,126203,4
53068,126317,6
53135,126413,4
53175,126467,5
53168,126456,5
53170,126434,6
53144,126400,3
53125,126379,5
53119,126358,5
53119,126370,5
53124,126371,4
53135,126400,5
53159,126437,5
53187,126498,5
53218,126553,5
53237,126579,4
53248,126584,5
53239,126574,5
53226,126536,5
53202,126516,5
53198,126497,4
53205,126496,5
53218,126516,5
53229,126565,5
53259,126607,4
53288,126648,4
53282,126638,6
53280,126644,4
53279,126624,5
53292,126675,4
53351,126798,5
53444,126955,5
53490,127036,5
53523,127068,5
53527,127085,4
53539,127098,5
53558,127122,5
53569,127157,5
53598,127197,5
53611,127229,4
53584,127227,5
53626,127243,5
53633,127266,5
53654,127280,5
53554,127312,4
53684,127367,5
53727,127434,5
53757,127490,5
53660,127535,5
53813,127567,4
53819,127591,5
53840,127626,6
53846,127635,4
53862,127647,4
53858,127639,4
53850,127632,5
53959,127639,5
53851,127645,5
53872,127671,4
53894,127703,5
54053,127760,5
53945,127796,5
53983,127862,5
54000,127898,4
54056,127910,5
54016,127945,5
54045,127983,5
54065,128025,5
54101,128049,4
54126,128108,5
54135,128144,5
54165,128198,5
54181,128139,5
54204,128245,4
54221,128268,5
54240,128306,5
54236,128202,6
54256,128354,4
54279,128381,4
54283,128404,5
54286,128363,5
54306,128437,5
54318,128471,4
54347,128511,4
54373,128643,5
54409,128608,5
54427,128657,5
54451,128689,4
54472,128855,5
54473,128729,5
54488,128758,5
54501,128776,5
54515,128887,4
54533,128840,5
54554,128868,5
54574,128914,5
54609,128976,5
54635,129008,5
54655,129046,4
54683,129100,5
54693,129124,5
54715,129155,5
54738,129193,4
54764,129221,5
54771,129246,5
54793,129282,5
54811,129302,5
54830,129356,4
54848,129411,5
54890,129454,5
54921,129531,5
54973,129617,4
55040,129736,5
55114,129856,5
55176,129971,5
55239,130069,5
55283,130163,4
55321,130226,5
55357,130297,5
55409,130381,5
55443,130450,5
55493,130529,4
55537,130594,6
55571,130640,4
55590,130700,5
55628,130747,5
55669,130818,4
55701,130891,5
55738,130951,5
55794,131031,5
55829,131105,5
55867,131171,4
55921,131253,5
55946,131320,5
55983,131341,5
55975,131337,4
55954,131314,4
55968,131332,5
56003,131413,5
56049,131493,5
56086,131543,4
56116,131605,5
56149,131675,5
56188,131751,5
56252,131854,5
56316,131984,4
56399,132102,5
56456,132226,6
56508,132305,4
56543,132357,5
56557,132391,4
56590,132448,5
56621,132483,5
56642,132536,5
56669,132598,5
56708,132665,4
56750,132761,5
56821,132878,5
56896,133003,5
56965,133132,5
57033,133254,4
57089,133368,5
57148,133455,5
57191,133536,5
57242,133601,4
57275,133693,4
57336,133784,5
57396,133884,5
57446,133977,5
57507,134096,4
57593,134246,5
57669,134369,5
57733,134479,6
57783,134567,4
57845,134687,4
57917,134820,5
58004,134973,5
58004,135145,5
58197,135321,5
58301,135516,4
58398,135685,5
58367,135844,5
58558,135948,5
58603,136034,5
58644,136114,4
58620,136224,5
58760,136323,5
58808,136408,5
58863,136483,5
58992,136584,4
58973,136685,5
59018,136784,5
59083,136895,5
59300,137010,5
59217,137123,4
59277,137225,5
59310,137302,5
59445,137362,5
59375,137397,4
59389,137410,5
59392,137411,5
59427,137429,5
59394,137427,5
59398,137434,4
59396,137422,5
59386,137340,5
59378,137393,5
59375,137364,5
59347,137325,4
59328,137176,5
59300,137253,5
59271,137209,5
59251,137161,5
59224,136996,4
59217,137111,6
59187,137080,4
59176,137060,5
59176,137094,5
59168,137035,6
59158,137015,3
59148,137008,5
59143,137133,5
59140,136988,4
59138,136977,4
59133,136962,5
59105,137066,5
59093,136899,5
59079,136873,4
59060,136838,5
59041,136864,5
59041,136794,5
59022,136785,5
59008,136760,4
59002,136737,5
58982,136713,5
58971,136677,5
58946,136646,5
58942,136632,4
58929,136630,5
58940,136623,5
58931,136613,5
58915,136570,5
58883,136521,4
58852,136465,6
58819,136401,4
58777,136349,5
58784,136364,4
58783,136362,4
58777,136335,5
58762,136327,5
58761,136308,5
58750,136288,4
58736,136268,5
58746,136287,5
58747,136300,5
58766,136319,5
58768,136324,4
58757,136319,5
58756,136312,5
58755,136290,5
58755,136305,5
58761,136314,4
58755,136309,5
58766,136303,5
58748,136278,6
58745,136278,4
58733,136282,4
58742,136276,5
58731,136272,5
58734,136262,5
58731,136255,5
58722,136240,4
58713,136226,5
58697,136209,5
58679,136189,5
58684,136167,4
58677,136174,4
58658,136133,5
58657,136134,5
58658,136120,5
58628,136099,4
58622,136056,5
58589,136024,5
58590,136003,5
58582,136000,5
58577,135989,5
58568,135993,4
58565,135983,5
58566,135975,5
58568,135972,6
58556,135963,3
58560,135960,5
58561,135952,5
58552,135947,5
58548,135952,5
58546,135948,4
58551,135950,5
58549,135951,5
58550,135949,5
58552,135943,5
58553,135955,4
58558,135969,5
58563,135986,5
58576,135987,5
58581,135993,4
58582,136004,4
58563,135977,5
58565,135969,5
58564,135972,5
58565,135972,4
58506,135955,6
58556,135957,4
58551,135943,5
58550,135916,5
58418,135918,6
58534,135901,3
58523,135884,5
58522,135874,5
58364,135875,5
58502,135862,4
58494,135855,5
58486,135833,5
58512,135826,5
58471,135802,7
58459,135778,2
58454,135767,5
58574,135755,5
58431,135731,5
58429,135732,4
58427,135728,4
58552,135708,5
58422,135703,5
58409,135704,5
58408,135696,4
58449,135687,5
58406,135687,6
58398,135692,4
58409,135696,5
58405,135646,4
58376,135630,5
58351,135583,5
58323,135520,5
58296,135383,5
58297,135509,4
58309,135499,5
58285,135487,5
58283,135333,5
58284,135479,5
58273,135473,4
58278,135465,5
58290,135476,5
58301,135511,5
58299,135522,5
58305,135518,4
58308,135630,5
58308,135515,5
58302,135496,5
58305,135508,4
58311,135667,4
58297,135507,5
58286,135494,6
58292,135485,4
58279,135536,4
58269,135453,5
58263,135433,5
58260,135433,5
58258,135443,5
58241,135410,4
58235,135405,5
58229,135387,5
58231,135399,5
58241,135392,5
58224,135394,4
58220,135373,5
58219,135382,5
58227,135378,5
58217,135384,5
58219,135374,4
58215,135359,5
58207,135333,5
58206,135342,5
58196,135333,5
58198,135341,4
58193,135344,5
58208,135348,5
58200,135346,6
58205,135340,3
58202,135339,4
58218,135346,5
58198,135323,5
58190,135312,5
58185,135319,4
58175,135297,5
58161,135270,5
58154,135253,5
58156,135249,5
58135,135243,4
58130,135216,5
58113,135208,5
58113,135171,5
58097,135150,5
58089,135129,4
58068,135116,5
58067,135098,5
58057,135077,5
58041,135065,5
58040,135039,5
58033,135032,4
58025,135027,5
58024,135021,5
58011,135017,5
58006,134986,4
57985,134957,5
57965,134916,5
57935,134868,5
57905,134810,4
57877,134773,5
57848,134700,5
57805,134642,5
57774,134579,5
57738,134505,4
57696,134421,5
57640,134345,5
57602,134268,5
57561,134204,5
57527,134152,4
57500,134108,5
57477,134054,5
57447,134025,5
57439,134015,5
57447,134004,4
57440,133999,6
57413,133955,4
57383,133915,5
57371,133901,5
57374,133898,4
57369,133892,5
57357,133850,5
57320,133794,5
57289,133743,4
57246,133673,4
57199,133598,5
57160,133516,5
57091,133431,5
57069,133330,4
56998,133212,5
56933,133095,5
56774,132994,5
56801,132879,5
56732,132758,4
56668,132643,5
56490,132532,5
56548,132435,5
56488,132329,5
56441,132248,4
56380,132190,5
56375,132132,6
56350,132098,4
56329,132075,5
56422,132046,4
56322,132044,5
56320,132050,5
56322,132064,5
56480,132071,5
56343,132101,4
56345,132094,5
56357,132121,5
56430,132134,5
56374,132149,4
56380,132166,4
56382,132147,5
56394,132147,5
56388,132173,5
56401,132171,4
56403,132192,5
56410,132120,5
56407,132215,5
56414,132220,5
56415,132208,4
56413,132087,5
56421,132227,5
56416,132233,6
56436,132250,4
56456,132209,4
56476,132320,5
56496,132357,4
56512,132369,5
56520,132470,5
56529,132399,4
56528,132407,5
56539,132412,5
56541,132566,5
56532,132425,5
56536,132434,4
56535,132429,5
56551,132541,5
56542,132436,5
56556,132438,4
56554,132459,4
56568,132501,5
56569,132479,5
56573,132478,5
56556,132458,5
56552,132452,4
56553,132439,5
56547,132432,5
56547,132434,5
56537,132418,4
56523,132390,5
56510,132374,5
56491,132337,5
56469,132300,5
56449,132247,4
56441,132242,5
56435,132216,5
56390,132148,5
56347,132080,5
56291,131981,4
56241,131880,5
56192,131819,5
56165,131756,5
56124,131687,4
56085,131634,4
56066,131594,5
56054,131569,5
56030,131562,5
56041,131562,4
56049,131560,6
56045,131570,4
56040,131559,5
56038,131552,5
56026,131540,4
56024,131533,5
56021,131531,5
56026,131523,5
56023,131523,5
56014,131509,4
56004,131487,5
55990,131451,5
55973,131433,5
55953,131396,5
55929,131342,4
55903,131297,5
55869,131258,5
55838,131182,5
55791,131102,5
55751,131030,4
55708,130974,5
55664,130905,5
55629,130828,5
55604,130778,4
55587,130769,4
55576,130748,6
55563,130718,4
55539,130660,5
55538,130661,4
55521,130644,5
55520,130635,5
55518,130620,5
55501,130599,5
55484,130581,4
55478,130564,5
55479,130566,5
55477,130562,5
55474,130561,5
55480,130568,4
55488,130587,5
55498,130606,5
55501,130606,5
55510,130620,5
55523,130635,4
55522,130645,5
55533,130665,5
55549,130671,5
55549,130710,5
55586,130759,4
55609,130805,5
55631,130846,5
55660,130888,5
55673,130919,4
55622,130953,4
55715,130965,5
55734,130992,5
55732,131021,5
55632,131042,4
55777,131060,5
55792,131101,5
55803,131117,5
55734,131122,5
55822,131143,4
55818,131148,5
55822,131145,5
55893,131139,5
55826,131169,5
55841,131178,5
55824,131151,4
55946,131113,5
55788,131091,5
55780,131063,6
55763,131049,3
55842,131019,5
55729,130987,5
55728,130977,5
55717,130967,4
55735,130952,4
55705,130946,5
55698,130933,5
55701,130944,5
55688,130855,4
55677,130921,5
55678,130884,5
55665,130874,5
55653,130757,5
55654,130877,5
55655,130875,4
55658,130868,5
55653,130738,5
55644,130856,5
55652,130841,4
55627,130812,6
55615,130846,4
55603,130779,5
55586,130741,5
55570,130704,6
55548,130800,3
55525,130633,5
55506,130590,5
55479,130556,5
55463,130661,4
55455,130507,5
55439,130492,5
55422,130472,5
55419,130487,4
55397,130405,4
55380,130379,5
55358,130352,5
55342,130320,5
55315,130271,4
55309,130248,5
55285,130235,5
55289,130220,5
55270,130201,5
55258,130173,4
55245,130164,5
55245,130172,6
55253,130165,4
55247,130168,5
55253,130180,4
55254,130174,5
55257,130178,5
55253,130178,5
55253,130167,5
55258,130170,4
55240,130168,5
55251,130155,5
55237,130165,5
55251,130164,5
55244,130153,4
55243,130157,5
55242,130157,5
55247,130152,5
55246,130176,4
55239,130152,5
55241,130158,5
55246,130162,5
55248,130160,5
55254,130166,4
55245,130166,5
55257,130172,5
55257,130166,6
55253,130169,4
55252,130161,4
55251,130170,5
55239,130156,5
55245,130161,5
55246,130154,5
55239,130151,4
55242,130147,5
55245,130166,5
55258,130176,5
55259,130182,5
55249,130174,4
55243,130151,5
55230,130125,5
55220,130098,5
55214,130108,4
55216,130106,4
55212,130098,5
55217,130107,5
55205,130097,5
55220,130094,5
55217,130104,4
55226,130121,5
55241,130154,5
55254,130171,6
55256,130177,3
55259,130176,5
55267,130191,5
55264,130191,5
55273,130204,5
55285,130220,4
55281,130234,5
55293,130235,5
55293,130250,5
55305,130254,5
55303,130266,4
55311,130269,5
55310,130272,5
55301,130258,5
55306,130259,5
55296,130254,4
55307,130249,5
55299,130250,5
55234,130242,5
55291,130247,4
55296,130249,5
55288,130237,4
55168,130228,5
55281,130229,5
55283,130219,4
55274,130220,5
55178,130228,5
55281,130218,5
55282,130212,5
55279,130220,4
55334,130234,5
55285,130238,5
55292,130234,5
55295,130243,5
55430,130246,4
55311,130250,5
55307,130259,5
55313,130279,5
55423,130279,5
55321,130290,4
55329,130295,5
55327,130291,5
55344,130277,5
55312,130280,5
55304,130259,4
55294,130243,11
55294,130243,4
55297,130124,4
55305,130251,5
55306,130260,5
55317,130272,5
55316,130156,5
55328,130302,4
55335,130321,5
55360,130336,5
55351,130384,5
55368,130364,5
55369,130362,4
55366,130368,5
55384,130524,5
55397,130415,5
55412,130461,5
55431,130492,4
55448,130628,5
55462,130548,5
55477,130560,5
55478,130558,5
55467,130580,4
55459,130517,5
55445,130496,6
55449,130494,4
55445,130501,4
55445,130509,4
55456,130513,5
55453,130518,5
55451,130510,5
55449,130504,4
55451,130500,5
55447,130510,5
55470,130540,5
55476,130563,5
55499,130597,4
55506,130607,5
55517,130635,5
55560,130715,5
55596,130763,5
55585,130765,4
55588,130757,5
55576,130746,5
55563,130721,5
55577,130717,5
55576,130724,4
55582,130744,5
55589,130744,5
55596,130754,6
55593,130756,4
55599,130758,4
55602,130772,5
55605,130795,5
55635,130828,5
55655,130857,4
55673,130888,4
55683,130917,5
55698,130948,5
55716,130986,5
55748,131019,4
55762,131048,5
55767,131067,5
55787,131078,5
55808,131139,5
55835,131179,4
55856,131219,5
55866,131242,5
55873,131241,5
55881,131262,5
55885,131268,5
55894,131282,4
55911,131326,5
55930,131355,5
55944,131370,5
55962,131395,4
55974,131415,5
55970,131428,5
55982,131421,5
55981,131442,5
55988,131465,4
56019,131499,5
56037,131540,5
56059,131571,5
56074,131591,4
56093,131618,5
56106,131651,5
56130,131686,5
56144,131704,5
56150,131728,4
56170,131744,5
56176,131777,5
56197,131802,5
56209,131830,5
56225,131851,4
56233,131871,6
56251,131890,4
56266,131914,5
56268,131933,5
56281,131947,4
56297,131961,5
56303,131980,5
56320,132020,5
56266,132034,5
56343,132050,4
56352,132062,5
56351,132084,5
56262,132111,5
56392,132127,4
56398,132152,4
56409,132172,5
56284,132179,5
56417,132194,5
56426,132189,4
56419,132183,5
56446,132184,5
56421,132175,5
56417,132191,5
56423,132193,4
56567,132236,5
56459,132260,6
56469,132269,4
56462,132267,5
56599,132267,4
56470,132289,5
56496,132310,5
56504,132323,5
56563,132329,5
56523,132359,4
56535,132387,5
56558,132427,5
56578,132413,5
56573,132441,5
56563,132423,4
56543,132397,5
56530,132265,5
56525,132379,5
56532,132394,4
56546,132395,4
56542,132260,5
56533,132393,5
56537,132394,5
56525,132381,5
56534,132366,4
56538,132406,5
56565,132424,5
56557,132429,5
56561,132531,4
56553,132415,5
56558,132414,5
56562,132430,5
56563,132610,5
56595,132490,4
56617,132523,5
56636,132555,5
56651,132667,5
56685,132629,5
56700,132677,4
56701,132683,5
56715,132721,5
56726,132708,5
56728,132723,5
56738,132734,4
56744,132744,5
56756,132764,5
56769,132788,5
56771,132814,6
56801,132846,3
56812,132876,5
56834,132917,5
56863,132946,5
56872,132970,4
56885,132990,5
56901,133018,5
56913,133031,5
56906,133049,5
56920,133058,4
56938,133095,5
56958,133115,5
56962,133134,5
56981,133171,5
57006,133193,4
57015,133231,5
57047,133264,5
57054,133293,5
57082,133350,5
57109,133417,4
57159,133476,5
57202,133553,4
57227,133604,5
57250,133631,5
57272,133674,5
57300,133707,3
57315,133749,5
57337,133799,5
57369,133826,4
57374,133859,5
57396,133884,5
57412,133915,5
57418,133927,5
57437,133959,4
57457,133981,5
57470,134012,5
57484,134029,5
57489,134060,5
57512,134087,4
57532,134116,5
57540,134125,5
57546,134142,5
57558,134185,5
57584,134203,4
57603,134231,5
57620,134284,6
57643,134306,4
57656,134332,5
57670,134353,4
57674,134380,5
57696,134411,5
57709,134430,5
57733,134472,4
57756,134508,4
57782,134538,5
57790,134582,5
57809,134601,5
57824,134637,4
57851,134669,5
57876,134706,5
57895,134761,5
57926,134822,5
57950,134839,4
57968,134878,5
57984,134913,5
58010,134985,5
58062,135046,5
58111,135148,4
58161,135221,5
58183,135307,5
58241,135372,6
58278,135450,4
58334,135520,4
58278,135639,5
58435,135735,5
58519,135883,5
58611,136023,5
58547,136158,4
58746,136258,5
58790,136335,5
58824,136412,5
58827,136509,4
58976,136697,4
59082,136883,5
59168,137020,5
59324,137134,5
59284,137198,4
59302,137253,5
59349,137307,5
59526,137365,5
59398,137405,5
59415,137420,5
59405,137405,4
59466,137377,5
59370,137338,5
59344,137290,6
59323,137275,3
59331,137248,5
59297,137225,5
59285,137203,5
59269,137185,5
59264,137081,4
59253,137153,5
59255,137156,5
59249,137152,5
59241,136996,5
59220,137096,4
59201,137068,5
59181,137038,5
59179,136918,5
59173,137014,4
59166,137010,4
59163,137025,5
59170,137079,5
59167,137007,5
59153,137009,4
59154,136982,6
59150,137118,4
59132,136942,5
59107,136909,5
59086,136874,6
59078,136974,3
59061,136839,5
59056,136826,5
59062,136833,5
59058,136864,4
59062,136824,5
59050,136821,5
59047,136808,5
59042,136791,5
59040,136793,4
59048,136806,5
59042,136786,5
59033,136782,5
59036,136795,5
59034,136780,4
59038,136778,5
59024,136781,5
59028,136762,5
59025,136764,4
59015,136747,5
59013,136737,6
59006,136733,4
58994,136723,5
58981,136682,4
58969,136660,5
58960,136644,5
58960,136643,5
58946,136640,5
58951,136613,4
58939,136604,5
58935,136606,5
58935,136605,5
58932,136594,5
58921,136601,4
58920,136579,5
58908,136575,5
58910,136569,5
58901,136564,5
58898,136578,4
58925,136602,5
58935,136614,5
58943,136619,5
58945,136624,4
58940,136627,4
58935,136614,5
58945,136607,6
58927,136606,4
58920,136610,4
58926,136604,5
58923,136588,5
58914,136564,5
58893,136549,5
58897,136524,4
58869,136510,5
58867,136501,5
58868,136498,5
58867,136498,5
58869,136464,4
58829,136427,5
58808,136365,5
58768,136310,5
58736,136286,5
58759,136310,4
58764,136322,5
58767,136326,5
58765,136341,5
58778,136348,5
58793,136357,4
58793,136372,5
58803,136391,5
58817,136404,6
58819,136411,3
58816,136413,4
58823,136408,5
58818,136414,5
58820,136410,5
58819,136390,4
58812,136388,5
58812,136370,5
58800,136373,5
58802,136375,5
58809,136375,4
58800,136386,5
58807,136381,5
58822,136399,5
58751,136422,5
58816,136422,4
58835,136428,5
58826,136425,5
58705,136435,5
58837,136433,5
58847,136444,5
58848,136435,4
58718,136456,5
58858,136465,5
58853,136470,5
58852,136470,4
58892,136461,5
58836,136430,5
58834,136431,5
58830,136423,4
58954,136399,5
58812,136380,5
58802,136388,5
58794,136362,5
58908,136348,4
58765,136329,5
58766,136317,5
58753,136297,5
58774,136267,5
58740,136275,4
58754,136282,5
58750,136280,5
58753,136229,5
58752,136295,5
58758,136313,4
58769,136330,6
58778,136226,4
58777,136335,5
58781,136332,5
58770,136325,4
58765,136170,5
58751,136291,5
58754,136286,5
58737,136259,5
58732,136250,4
58722,136228,5
58705,136215,5
58708,136207,5
58702,136323,8
58692,136200,1
58698,136206,5
58699,136205,5
58701,136365,5
58703,136210,4
58705,136208,5
58709,136206,5
58702,136261,5
58693,136188,5
58690,136183,4
58688,136176,5
58684,136182,6
58669,136158,4
58672,136147,5
58655,136120,4
58638,136092,5
58633,136070,5
58611,136037,5
58604,136045,5
58597,136044,4
58601,136031,5
58584,135980,5
58541,135932,5
58520,135880,4
58501,135850,4
58486,135819,5
58444,135756,5
58428,135731,5
58415,135709,4
58401,135691,5
58388,135667,5
58376,135647,5
58368,135624,5
58342,135597,4
58335,135574,5
58325,135545,5
58313,135537,5
58303,135524,5
58291,135503,4
58279,135485,5
58257,135443,5
58227,135381,5
58177,135291,5
58116,135181,4
58034,135030,5
57952,134882,5
57865,134745,5
57803,134632,5
57743,134544,4
57678,134418,5
57579,134244,5
57495,134104,5
57426,133990,4
57370,133884,4
57302,133762,5
57227,133650,5
57150,133493,5
57052,133308,5
56940,133129,4
56830,132923,5
56696,132681,5
56569,132440,5
56441,132248,4
56335,132057,5
56238,131910,5
56184,131814,5
56122,131696,5
56049,131579,4
56005,131494,5
55954,131438,5
55936,131390,5
55894,131301,5
55813,131173,4
55746,131045,5
55683,130936,5
55631,130852,5
55593,130792,5
55538,130684,4
55468,130567,5
55401,130432,5
55330,130290,5
55261,130196,4
55237,130149,5
55222,130159,4
55227,130181,5
55240,130178,5
55221,130120,4
55178,130034,5
55063,129906,5
55005,129730,5
54885,129519,5
54773,129335,4
54610,129221,5
54652,129147,5
54630,129089,5
54569,128959,5
54342,128792,4
54339,128544,5
54210,128302,5
54100,128111,5
54001,127994,5
53981,127914,4
53957,127881,5
53953,127865,6
54048,127869,4
53945,127846,5
53914,127798,4
53876,127723,7
53964,127617,3
53776,127555,5
53746,127491,4
53702,127407,5
53716,127336,5
53606,127248,5
53544,127112,5
53459,126945,4
53374,126799,5
53295,126690,5
53239,126573,5
53169,126444,5
53095,126231,4
53018,126188,5
52968,126112,5
52932,126057,5
52926,125900,5
52909,125992,4
52879,125934,5
52843,125877,5
52816,125743,6
52785,125769,4
52760,125712,4
52732,125647,5
52685,125637,5
52644,125498,5
52623,125460,4
52604,125441,4
52599,125564,5
52593,125434,5
52595,125404,5
52568,125369,4
52523,125392,5
52502,125247,5
52481,125207,5
52455,125163,5
52421,125121,4
52384,125028,5
52347,124964,5
52325,124918,5
52294,124869,5
52290,124851,5
52275,124819,4
52254,124792,5
52223,124740,5
52211,124711,6
52189,124686,3
52195,124667,5
52180,124649,5
52177,124649,5
52181,124654,5
52185,124656,4
52201,124672,5
52208,124697,5
52224,124743,5
52252,124796,4
52278,124829,4
52285,124839,5
52303,124850,5
52310,124871,5
52313,124893,4
52335,124915,5
52352,124961,5
52382,124997,5
52405,125055,5
52444,125097,4
52464,125147,6
52497,125204,4
52530,125250,5
52541,125280,5
52563,125302,6
52570,125318,3
52572,125329,5
52576,125326,5
52587,125340,5
52579,125331,4
52582,125339,5
52578,125342,5
52577,125317,5
52547,125275,5
52526,125247,4
52517,125246,5
52523,125235,5
52518,125216,5
52515,125218,4
52516,125232,4
52525,125245,5
52533,125255,5
52550,125296,5
52575,125333,4
52589,125348,5
52602,125362,6
52604,125362,4
52608,125364,5
52607,125373,4
52601,125376,5
52603,125382,5
52616,125389,5
52613,125400,5
52606,125378,4
52602,125362,5
52595,125347,5
52581,125309,5
52557,125277,5
52522,125236,4
52515,125196,5
52475,125146,5
52455,125119,5
52440,125093,5
52434,125077,4
52429,125057,5
52414,125059,5
52407,125031,5
52368,124957,4
52360,124951,5
52360,124959,5
52356,124950,6
52274,124928,4
52313,124870,4
52259,124784,5
52213,124694,5
52071,124634,5
52160,124613,5
52142,124567,4
52128,124560,5
52030,124536,5
52112,124518,5
52102,124483,5
52057,124403,4
52051,124303,5
51951,124209,5
51914,124154,5
51872,124088,5
51984,124055,4
51847,124038,5
51838,124011,5
51801,123946,5
51838,123859,5
51704,123780,4
51680,123750,5
51694,123781,5
51748,123836,6
51757,123895,3
51800,123965,5
51844,124035,5
51876,124063,5
51937,124211,5
51983,124281,4
52019,124339,5
52028,124233,5
52000,124291,5
51963,124222,5
51946,124204,4
51952,124095,4
51950,124212,5
51934,124178,5
51913,124116,5
51870,124092,4
51845,124027,5
51837,124007,5
51821,123985,5
51804,124081,5
51780,123921,5
51757,123865,4
51735,123821,5
51710,123912,5
51699,123792,4
51708,123794,4
51720,123799,5
51722,123855,5
51730,123830,5
51744,123852,4
51759,123891,5
51796,123950,5
51828,124002,5
51858,124051,5
51884,124099,4
51901,124154,5
51946,124204,5
51984,124268,5
52028,124355,5
52077,124435,4
52125,124506,5
52143,124555,5
52185,124609,5
52207,124640,5
52213,124663,4
52220,124678,6
52227,124699,4
52241,124719,5
52252,124736,5
52262,124762,4
52287,124797,5
52305,124823,5
52318,124854,5
52324,124876,4
52330,124882,5
52337,124899,5
52358,124917,5
52360,124918,5
52374,124935,4
52371,124944,5
52377,124956,5
52389,124964,5
52392,124986,5
52403,124991,4
52397,124998,5
52413,125003,5
52414,125017,5
52434,125052,5
52450,125113,4
52510,125211,5
52569,125304,6
52619,125389,4
52673,125493,5
52719,125569,4
52775,125674,5
52831,125755,5
52872,125847,5
52909,125902,4
52933,125948,4
52947,125977,5
52949,125975,5
52961,125981,5
52960,125983,4
52959,125983,5
52965,125990,5
52966,125994,5
52986,126013,5
52984,126039,4
52998,126067,5
53020,126102,5
53035,126119,5
53034,126125,5
53048,126131,4
53058,126146,5
53052,126159,5
53070,126178,5
53074,126183,5
53085,126194,4
53084,126225,5
53108,126244,5
53123,126278,5
53135,126317,5
53162,126351,4
53184,126388,5
53205,126440,5
53232,126490,5
53266,126548,4
53297,126607,5
53266,126635,5
53321,126625,5
53311,126603,5
53301,126585,4
53206,126609,5
53322,126620,5
53319,126639,5
53321,126618,5
53204,126619,5
53317,126610,4
53312,126618,5
53333,126647,5
53379,126667,5
53366,126706,4
53377,126732,5
53381,126740,5
53518,126765,5
53412,126779,5
53429,126827,4
53448,126846,5
53569,126886,5
53477,126904,5
53490,126933,4
53503,126954,4
53557,126972,5
53528,127005,5
53534,127009,5
53550,127035,4
53560,127010,5
53565,127067,5
53586,127086,5
53578,127104,5
53603,127015,4
53620,127168,6
53640,127222,4
53668,127268,5
53687,127169,5
53698,127311,4
53709,127310,5
53702,127322,5
53716,127335,5
53727,127338,5
53725,127348,4
53725,127362,5
53740,127504,5
53758,127413,5
53779,127451,5
53791,127481,4
53825,127669,5
53855,127568,5
53874,127625,5
53903,127667,4
53924,127768,4
53943,127740,5
53961,127762,5
53971,127778,5
53977,127789,4
53982,127800,5
53995,127813,11
53995,127819,4
53994,127834,4
54001,127833,5
53998,127837,5
54001,127835,5
54006,127845,5
54006,127846,4
54009,127850,5
54020,127857,5
54019,127879,5
54030,127881,5
54033,127898,4
54043,127919,5
54046,127932,5
54047,127928,5
54065,127934,5
54052,127940,4
54063,127943,5
54066,127954,5
54063,127971,5
54079,127985,4
54091,128001,4
54100,128011,5
54100,128017,5
54101,128006,5
54092,128008,4
54087,127991,5
54089,127999,5
54079,127985,5
54072,127975,5
54073,127982,4
54073,127967,5
54076,127973,5
54075,127981,5
54084,127989,5
54085,127985,4
54080,127997,5
54094,128002,5
54089,128007,5
54093,128010,5
54091,128021,5
54100,128012,4
54099,128008,5
54072,127970,5
54048,127919,6
54035,127922,3
54054,127937,5
54057,127949,5
54045,127914,5
54040,127907,4
54024,127911,4
54034,127905,5
54035,127913,5
54038,127928,5
54046,127932,4
54056,127947,5
54063,127954,5
54069,127960,5
54078,127982,5
54075,127992,4
54091,128009,5
54097,128019,5
54103,128030,5
54113,128035,5
54116,128050,4
54121,128053,6
54128,128059,4
54133,128083,5
54138,128085,5
54137,128087,6
54139,128099,3
54142,128113,5
54148,128105,5
54152,128113,5
54107,128119,4
54158,128120,5
54162,128134,5
54168,128119,5
54040,128125,4
54157,128128,5
54150,128116,5
54149,128118,5
54035,128128,5
54164,128128,4
54159,128131,5
54153,128140,5
54190,128132,5
54173,128149,5
54176,128174,4
54187,128189,5
54314,128194,6
54202,128209,4
54201,128225,5
54220,128241,4
54359,128279,5
54253,128299,5
54265,128315,5
54274,128329,5
54323,128341,4
54289,128353,5
54297,128383,5
54318,128425,5
54340,128420,4
54361,128478,4
54377,128514,5
54386,128539,5
54412,128468,5
54445,128621,4
54473,128693,5
54501,128734,5
54529,128665,5
54562,128840,5
54581,128870,5
54604,128908,4
54632,128962,5
54658,129020,6
54688,129061,4
54720,129127,4
54742,129276,5
54767,129204,5
54785,129236,5
54803,129262,5
54819,129460,4
54861,129370,5
54892,129438,5
54922,129496,5
54950,129610,5
54996,129620,4
55031,129673,5
55066,129726,5
55100,129796,5
55117,129824,4
55143,129863,4
55160,129908,5
55199,129970,5
55237,130039,5
55271,130096,5
55296,130136,4
55322,130180,5
55336,130213,5
55358,130266,6
55378,130279,3
55391,130303,5
55398,130311,5
55393,130319,5
55399,130332,5
55409,130325,4
55405,130321,5
55401,130343,5
55420,130357,5
55425,130365,5
55432,130362,4
55426,130361,5
55427,130359,5
55424,130357,5
55420,130351,5
55414,130326,4
55412,130348,5
55435,130384,5
55442,130387,5
55433,130393,4
55441,130384,5
55447,130389,4
55439,130389,5
55439,130389,5
55454,130416,4
55482,130459,5
55492,130476,5
55485,130474,5
55497,130478,5
55499,130482,4
55496,130490,5
55511,130514,5
55517,130523,5
55521,130533,5
55532,130563,4
55562,130611,5
55594,130686,5
55638,130741,5
55684,130838,5
55722,130906,4
55769,130984,5
55831,131090,5
55885,131198,5
55952,131313,5
56030,131454,4
56117,131614,6
56223,131818,4
56365,132080,5
56512,132324,4
56615,132513,4
56712,132667,5
56759,132761,5
56816,132866,5
56878,132990,4
56966,133131,5
57035,133241,5
57074,133304,5
57105,133342,5
57112,133379,4
57142,133418,5
57170,133482,5
57234,133586,5
57310,133743,5
57400,133890,4
57474,134001,5
57509,134079,5
57492,134147,5
57589,134201,5
57608,134225,4
57629,134283,5
57551,134340,6
57704,134410,4
57754,134490,5
57782,134541,4
57680,134599,5
57853,134659,5
57882,134740,5
57945,134835,4
57996,134898,4
58017,134955,5
58063,135027,5
58095,135096,5
58262,135173,4
58177,135236,5
58204,135280,5
58223,135304,5
58359,135305,5
58211,135291,4
58200,135275,5
58186,135237,5
58220,135217,5
58159,135200,5
58172,135218,4
58164,135228,5
58185,135205,5
58180,135234,6
58195,135250,4
58190,135273,4
58197,135186,5
58212,135292,5
58220,135296,5
58209,135301,5
58208,135163,4
58203,135292,5
58206,135293,5
58199,135279,5
58187,135227,4
58175,135238,4
58153,135212,5
58156,135188,5
58155,135311,5
58153,135206,4
58154,135205,5
58150,135193,5
58139,135347,5
58140,135187,5
58134,135172,5
58122,135159,4
58119,135214,5
58107,135120,5
58111,135118,5
58099,135108,4
58083,135075,5
58045,134993,5
58002,134941,5
57966,134873,5
57915,134778,4
57893,134756,5
57891,134748,5
57879,134729,5
57846,134681,5
57840,134647,4
57813,134640,5
57798,134592,5
57787,134597,5
57793,134594,4
57802,134613,5
57810,134621,5
57807,134625,5
57808,134600,5
57794,134604,4
57798,134591,6
57795,134601,4
57804,134603,5
57804,134606,5
57799,134599,4
57797,134595,5
57793,134592,5
57798,134600,5
57795,134608,5
57808,134613,4
57807,134611,5
57804,134606,5
57794,134585,5
57781,134563,5
57766,134525,4
57743,134506,5
57738,134483,5
57722,134446,5
57697,134418,4
57679,134377,4
57631,134297,5
57588,134220,5
57534,134132,5
57491,134065,4
57471,134032,5
57454,133997,6
57440,133969,4
57425,133946,5
57422,133944,4
57417,133934,5
57408,133930,5
57422,133946,5
57428,133961,5
57445,133997,4
57472,134040,5
57483,134062,5
57511,134095,5
57511,134107,5
57523,134115,4
57517,134112,5
57518,134113,5
57505,134074,5
57488,134041,5
57454,133983,4
57406,133922,5
57393,133876,5
57357,133827,5
57342,133770,5
57297,133714,4
57249,133646,5
57204,133549,5
57151,133442,5
57083,133328,4
57018,133217,5
56947,133087,5
56890,132982,5
56829,132891,5
56786,132832,4
56729,132759,5
56690,132660,5
56635,132562,5
56586,132465,5
56444,132390,4
56503,132340,5
56459,132256,5
56389,132128,5
56160,131961,5
56191,131759,4
56080,131576,5
55983,131395,5
55843,131240,5
55803,131092,5
55713,130934,4
55619,130773,5
55637,130674,5
55498,130610,5
55492,130602,5
55507,130610,4
55646,130620,5
55506,130623,5
55496,130577,5
55454,130517,4
55466,130387,5
55340,130288,5
55274,130211,5
55224,130093,5
55168,129965,4
55064,129820,5
55023,129769,5
55007,129749,5
54982,129599,5
54931,129575,4
54859,129444,6
54756,129267,4
54664,129004,5
54624,129061,5
54631,129091,6
54645,129121,3
54658,129029,5
54631,129060,5
54579,128977,5
54558,128935,4
54552,128993,5
54557,128938,5
54538,128908,5
54510,128860,4
54478,128915,4
54400,128656,5
54323,128489,5
54262,128383,5
54224,128452,4
54245,128412,5
54267,128418,5
54231,128340,5
54157,128213,5
54020,127932,4
53898,127735,5
53809,127619,6
53808,127620,4
53832,127664,5
53841,127664,4
53853,127670,5
53829,127634,5
53787,127513,5
53667,127306,5
53558,127130,4
53521,127070,5
53524,127095,5
53538,127111,5
53548,127134,5
53561,127153,4
53556,127142,5
53518,127049,5
53444,126916,5
53365,126763,8
53285,126638,1
53243,126560,5
53185,126480,5
53114,126320,5
53022,126150,4
52965,126047,5
52948,126056,5
52965,126076,6
52965,126051,4
52918,125977,4
52866,125867,5
52808,125782,5
52780,125724,5
52761,125687,5
52754,125675,4
52750,125662,5
52747,125662,5
52745,125673,5
52765,125697,5
52789,125714,4
52789,125742,5
52803,125769,5
52812,125788,5
52832,125811,5
52852,125836,4
52850,125847,5
52862,125853,5
52873,125864,5
52879,125884,5
52886,125887,4
52898,125897,5
52900,125908,5
52904,125938,6
52931,125963,3
52925,125955,5
52908,125920,5
52898,125914,5
52904,125910,5
52901,125939,4
52917,125935,5
52927,125963,5
52936,125982,5
52944,125979,5
52931,125968,4
52906,125910,5
52859,125845,5
52830,125781,5
52790,125718,5
52752,125636,4
52701,125558,5
52663,125482,5
52633,125454,5
52626,125434,5
52637,125461,5
52660,125486,4
52669,125508,5
52671,125506,5
52655,125477,6
52611,125386,3
52558,125283,5
52434,125161,5
52429,125074,5
52387,124976,4
52315,124830,5
52113,124666,5
52121,124510,5
52044,124362,5
51971,124217,4
51807,124167,5
51933,124180,5
51943,124208,5
51974,124257,5
52020,124272,4
51981,124255,5
51949,124202,5
51909,124101,5
51956,123984,5
51800,123943,4
51807,123940,6
51799,123947,4
51929,123959,5
51830,123993,5
51842,124004,4
51844,124016,5
51879,124002,5
51842,123990,5
51832,124001,4
51850,124024,4
51866,124013,5
51877,124071,5
51879,124071,5
51887,124086,4
51891,123995,5
51893,124094,5
51893,124109,5
51909,124116,5
51901,123994,4
51910,124116,5
51919,124134,5
51931,124151,5
51936,124177,5
51947,124180,4
51938,124175,5
51948,124174,6
51950,124294,4
51970,124218,5
51981,124259,4
52015,124309,5
52039,124491,5
52061,124403,5
52078,124421,5
52099,124428,4
52102,124489,5
52107,124458,5
52115,124494,5
52130,124499,4
52139,124536,4
52167,124546,5
52153,124532,5
52139,124509,5
52125,124495,4
52126,124501,5
52146,124515,5
52139,124513,5
52147,124521,5
52155,124549,4
52176,124583,5
52192,124602,5
52210,124629,6
52222,124667,4
52236,124694,4
52259,124719,5
52266,124736,5
52279,124773,5
52311,124817,5
52337,124869,4
52358,124908,5
52376,124942,5
52397,124974,5
52415,125022,5
52445,125061,4
52456,125088,5
52488,125120,5
52504,125148,5
52504,125179,4
52517,125182,4
52521,125174,5
52514,125176,5
52511,125158,5
52510,125147,5
52505,125154,4
52513,125163,5
52520,125168,5
52522,125191,5
52519,125192,4
52534,125222,5
52544,125209,5
52546,125215,5
52543,125210,5
52545,125234,4
52552,125234,5
52560,125250,5
52571,125270,5
52597,125298,5
52597,125305,4
52594,125315,5
52606,125316,5
52603,125332,5
52609,125355,5
52620,125361,4
52623,125357,5
52619,125364,5
52633,125379,5
52646,125423,4
52674,125434,5
52688,125479,4
52696,125499,5
52704,125509,5
52707,125529,4
52712,125526,5
52722,125528,5
52726,125544,5
52728,125545,5
52732,125551,4
52721,125550,5
52726,125540,5
52721,125534,5
52710,125527,5
52711,125510,4
52705,125505,5
52693,125496,5
52702,125496,5
52693,125492,5
52664,125484,4
52682,125461,5
52668,125443,5
52648,125411,5
52552,125412,5
52648,125407,4
52617,125345,6
52587,125293,4
52444,125257,5
52537,125233,4
52537,125190,4
52506,125166,5
52473,125150,5
52502,125128,5
52474,125107,4
52471,125095,5
52541,125073,5
52436,125054,5
52416,125005,5
52396,124973,4
52509,124923,5
52343,124857,5
52293,124764,5
52237,124687,5
52243,124587,4
52136,124510,5
52100,124442,5
52054,124348,5
52023,124282,5
51976,124241,4
51969,124224,5
51937,124171,6
51912,124029,4
51865,124023,5
51830,123959,4
51796,123913,5
51783,123768,5
51748,123838,5
51737,123806,5
51738,123804,4
51741,123727,5
51737,123815,5
51754,123833,5
51765,123872,4
51776,123936,5
51771,123864,5
51765,123835,5
51758,123835,5
51748,123970,4
51767,123850,5
51766,123864,5
51775,123863,5
51776,123954,5
51771,123854,4
51766,123840,5
51738,123814,5
51727,123807,5
51709,123757,5
51717,123750,4
51709,123743,5
51695,123740,5
51706,123757,5
51722,123765,5
51717,123765,4
51720,123781,5
51719,123764,5
51714,123756,5
51709,123764,4
51712,123761,5
51709,123759,5
51730,123794,5
51745,123825,5
51750,123833,4
51773,123867,5
51774,123869,5
51774,123875,5
51785,123896,5
51805,123921,5
51812,123920,4
51808,123922,5
51808,123935,5
51823,123949,5
51828,123951,4
51822,123958,5
51816,123953,5
51820,123947,5
51818,123943,5
51813,123947,4
51811,123940,5
51809,123941,5
51818,123946,5
51822,123948,5
51821,123950,4
51813,123971,5
51826,123976,5
51829,123980,5
51828,123968,4
51823,123948,5
51818,123942,6
51800,123923,4
51807,123919,5
51798,123926,4
51795,123915,7
51805,123936,3
51822,123966,5
51845,123986,5
51852,124011,4
51859,124032,5
51866,124036,5
51875,124036,5
51868,124036,5
51865,124029,4
51856,124023,5
51857,124017,5
51854,124017,5
51861,124020,5
51861,124033,4
51868,124043,5
51884,124051,5
51874,124047,5
51869,124018,4
51856,124003,4
51837,123994,5
51836,123981,6
51834,123976,4
51833,123974,4
51823,123959,5
51818,123937,5
51786,123893,5
51773,123866,5
51737,123812,4
51704,123745,5
51669,123686,5
51624,123612,5
51622,123614,5
51621,123606,4
51621,123620,5
51551,123614,5
51623,123606,5
51614,123611,5
51623,123631,4
51520,123644,5
51635,123652,5
51651,123672,5
51676,123738,5
51591,123749,4
51695,123754,5
51684,123743,5
51698,123759,6
51763,123807,3
51756,123865,4
51781,123907,5
51783,123901,5
51891,123882,5
51755,123841,4
51750,123863,5
51767,123906,5
51906,123960,5
51823,123978,5
51819,123970,4
51850,124029,5
51902,124077,5
51916,124168,5
51969,124239,5
51999,124294,4
52022,124292,5
52033,124356,5
52079,124411,5
52103,124474,5
52120,124390,5
52125,124495,4
52120,124503,5
52140,124550,5
52173,124462,6
52163,124576,3
52166,124562,5
52148,124515,5
52128,124524,5
52130,124496,4
52119,124483,4
52133,124516,5
52142,124659,5
52152,124571,5
52176,124602,4
52210,124640,5
52224,124802,5
52228,124685,5
52228,124685,5
52222,124658,4
52213,124695,5
52193,124609,5
52178,124578,5
52173,124576,5
52172,124592,4
52175,124599,6
52177,124585,4
52170,124578,5
52167,124599,5
52210,124675,4
52256,124749,5
52269,124753,5
52239,124721,5
52217,124669,5
52182,124603,4
52157,124557,5
52136,124517,5
52127,124535,5
52142,124559,4
52149,124572,4
52153,124555,5
52156,124560,5
52151,124550,5
52136,124526,4
52127,124512,5
52114,124497,5
52128,124532,5
52149,124551,5
52168,124591,4
52181,124619,5
52202,124650,6
52209,124664,4
52219,124657,5
52193,124636,4
52156,124541,5
52093,124448,7
52045,124371,3
52030,124345,5
52034,124352,4
52038,124366,5
52042,124379,5
52037,124378,5
52044,124383,5
52040,124381,4
52040,124385,5
52054,124400,5
52043,124387,5
52024,124356,4
52008,124320,4
51991,124271,5
51957,124220,5
51925,124158,5
51901,124133,4
51895,124135,5
51908,124154,5
51928,124187,6
51941,124213,4
51952,124243,4
51959,124243,5
51954,124224,5
51954,124230,5
51944,124221,5
51949,124204,4
51925,124166,5
51892,124109,5
51867,124067,5
51872,124087,5
51885,124116,4
51903,124145,5
51933,124194,5
51945,124211,5
51944,124227,5
51949,124231,4
51934,124194,5
51922,124163,5
51889,124110,5
51880,124108,5
51889,124140,4
51897,124147,5
51913,124190,5
51928,124219,6
51912,124225,3
51934,124197,5
51913,124170,5
51893,124130,5
51795,124117,5
51883,124125,4
51883,124111,5
51882,124106,5
51754,124095,5
51876,124108,5
51884,124118,4
51896,124128,5
51882,124138,5
51909,124155,5
51899,124141,5
51895,124133,4
51990,124128,5
51891,124112,5
51864,124086,5
51864,124078,5
52008,124115,5
51914,124180,4
51937,124216,5
51948,124216,5
51993,124195,4
51912,124148,4
51899,124151,5
51904,124133,5
51932,124161,5
51916,124159,4
51914,124156,5
51906,124140,5
51896,124042,5
51878,124084,5
51879,124095,4
51885,124124,5
51904,124064,5
51939,124206,5
51958,124242,5
51964,124265,4
51989,124215,5
52005,124320,5
52009,124322,5
52006,124326,5
52012,124409,4
52025,124358,6
52026,124364,4
52032,124367,5
52033,124506,5
52034,124368,4
52034,124359,5
52024,124351,5
52036,124476,5
52079,124450,4
52105,124525,4
52148,124571,5
52144,124594,5
52137,124545,5
52128,124546,4
52130,124541,5
52132,124532,5
52113,124522,5
52106,124499,5
52096,124464,4
52069,124438,5
52075,124447,5
52093,124490,5
52148,124597,5
52211,124693,4
52252,124768,5
52271,124799,7
52297,124830,3
52324,124893,5
52367,124966,4
52410,125054,5
52453,125120,5
52487,125174,5
52493,125186,5
52494,125191,4
52488,125180,5
52501,125209,5
52534,125248,5
52539,125278,4
52549,125280,4
52554,125293,5
52553,125287,5
52557,125291,5
52569,125332,4
52607,125392,5
52645,125466,5
52682,125536,5
52725,125610,5
52765,125672,4
52789,125702,5
52796,125716,5
52794,125710,5
52780,125698,5
52773,125704,4
52787,125722,5
52815,125776,5
52889,125932,5
52978,126085,5
53051,126214,4
53129,126310,5
53170,126406,5
53210,126485,5
53269,126567,5
53308,126646,4
53350,126715,5
53378,126792,5
53429,126871,5
53468,126938,4
53489,126992,4
53510,127028,5
53529,127045,5
53533,127062,5
53551,127110,5
53587,127163,4
53632,127250,5
53706,127393,5
53798,127564,5
53901,127743,4
54007,127932,5
54107,128124,5
54204,128274,5
54275,128388,5
54334,128496,4
54403,128627,5
54490,128782,5
54591,128986,5
54728,129207,5
54807,129372,4
54887,129483,5
54942,129585,5
55004,129682,5
55053,129763,5
55111,129867,4
55101,129977,5
55232,130086,5
55309,130200,5
55373,130320,4
55309,130408,5
55490,130530,4
55553,130662,5
55621,130756,5
55554,130843,4
55727,130947,5
55770,131032,5
55826,131121,5
55919,131185,5
55907,131263,4
55941,131354,5
56002,131431,5
56184,131541,5
56133,131667,5
56192,131797,4
56269,131912,5
56455,132059,5
56431,132201,5
56519,132374,5
56602,132511,4
56718,132654,5
56768,132805,5
56833,132923,4
56892,133015,5
56935,133034,4
56980,133176,6
57046,133293,3
57126,133430,5
57189,133446,4
57274,133687,4
57349,133814,5
57402,133914,5
57458,133856,5
57474,134030,4
57505,134069,5
57518,134097,4
57535,134135,5
57557,134153,5
57578,134201,4
57598,134238,5
57615,134391,5
57622,134274,5
57618,134271,5
57616,134267,4
57621,134417,5
57617,134260,5
57623,134287,6
57641,134314,4
57656,134381,4
57656,134331,5
57656,134331,5
57658,134336,5
57640,134312,5
57629,134304,4
57618,134288,5
57622,134277,5
57616,134268,5
57617,134274,4
57620,134274,4
57615,134265,5
57606,134254,5
57601,134243,5
57598,134234,4
57590,134236,5
57597,134244,5
57587,134219,5
57584,134223,5
57587,134211,5
57593,134224,4
57586,134218,5
57592,134233,5
57593,134232,6
57593,134240,3
57604,134254,5
57607,134259,5
57606,134239,5
57600,134239,5
57587,134230,4
57593,134233,5
57603,134241,5
57600,134241,5
57612,134253,5
57610,134263,4
57619,134260,5
57614,134276,5
57614,134266,5
57621,134278,4
57623,134285,5
57633,134297,5
57628,134282,5
57610,134252,5
57588,134213,4
57562,134165,6
57526,134120,4
57519,134119,5
57533,134122,5
57517,134112,6
57516,134085,3
57497,134064,5
57482,134049,5
57471,134015,5
57460,134000,4
57466,134010,5
57465,134009,5
57463,134013,5
57464,134005,5
57460,133990,4
57454,133990,5
57456,133991,5
57462,133994,5
57458,134008,5
57460,134002,4
57455,134003,5
57460,133991,5
57443,133983,5
57451,133975,4
57444,133972,5
57444,133962,6
57432,133970,4
57426,133955,5
57432,133943,4
57428,133940,5
57410,133922,5
57410,133900,5
57409,133907,5
57399,133894,4
57402,133887,5
57399,133898,5
57400,133894,5
57342,133894,5
57399,133881,4
57399,133884,5
57385,133887,5
57270,133883,5
57398,133880,5
57393,133878,4
57390,133901,5
57258,133886,5
57401,133891,5
57402,133903,4
57409,133898,4
57429,133921,5
57411,133915,6
57410,133914,4
57411,133926,4
57537,133911,5
57402,133895,5
57396,133885,5
57387,133877,5
57516,133844,4
57369,133826,5
57356,133826,5
57352,133809,5
57393,133790,5
57343,133795,4
57345,133796,5
57343,133790,5
57344,133763,5
57343,133797,5
57340,133783,4
57333,133776,5
57326,133652,5
57307,133723,5
57287,133686,5
57264,133666,4
57238,133473,5
57206,133553,5
57176,133501,6
57154,133455,3
57117,133378,4
57092,133348,5
57055,133287,5
57015,133221,5
56970,133244,4
56920,133055,5
56861,132940,5
56788,132816,5
56707,132821,5
56624,132519,4
56527,132368,5
56459,132242,5
56397,132189,5
56330,131998,5
56253,131874,4
56177,131750,5
56111,131657,5
56080,131601,5
56039,131514,5
55986,131415,5
55909,131276,4
55783,131049,5
55628,130755,5
55449,130423,5
55252,130103,4
55104,129837,5
54943,129564,5
54759,129246,5
54580,128932,4
54429,128653,4
54295,128411,5
54169,128233,5
54081,128070,5
53999,127968,4
53970,127886,5
53923,127820,5
53880,127771,5
53867,127737,5
53854,127726,4
53862,127735,5
53873,127732,5
53863,127723,5
53825,127633,5
53759,127512,4
53678,127352,6
53587,127210,4
53508,127101,5
53455,126977,5
53376,126831,4
53270,126645,5
53162,126437,5
53031,126200,5
52900,125932,5
52749,125680,4
52620,125460,5
52509,125263,5
52430,125125,5
52357,125023,4
52312,124939,4
52259,124840,5
52203,124735,5
52131,124598,9
52061,124471,1
52001,124377,4
51938,124202,5
51857,124118,5
51823,124054,5
51764,123956,4
51699,123822,5
51612,123653,6
51507,123442,4
51384,123243,5
51290,123082,4
51236,122961,5
51175,122852,5
51109,122760,5
51075,122692,5
51054,122643,4
50996,122527,5
50902,122348,5
50797,122165,5
50732,122053,5
50700,122005,4
50710,122037,5
50742,122085,5
50769,122116,5
50764,122092,4
50721,122018,4
50648,121884,5
50561,121725,5
50489,121574,5
50413,121434,4
50351,121328,5
50260,121222,5
50248,121124,6
50183,120996,4
50122,120925,4
50012,120867,5
50063,120792,5
49992,120629,5
49898,120443,5
49669,120255,4
49698,120091,5
49612,119950,5
49596,119914,5
49576,119917,5
49603,119932,4
49612,119945,5
49594,119904,5
49635,119794,5
49457,119617,5
49346,119380,5
49207,119140,4
49217,118951,5
49007,118800,5
48963,118735,6
48958,118712,3
48988,118682,5
48922,118658,5
48918,118659,5
48924,118658,4
48935,118642,5
48917,118634,5
48923,118640,5
48938,118676,5
48979,118680,4
49002,118794,5
49013,118806,5
49011,118787,5
48989,118637,5
48947,118676,4
48904,118585,5
48850,118497,5
48825,118387,5
48804,118423,5
48806,118423,4
48813,118445,5
48825,118528,5
48823,118441,5
48794,118396,5
48772,118337,5
48733,118390,4
48716,118237,5
48704,118219,5
48703,118232,4
48712,118325,4
48729,118284,5
48744,118303,5
48747,118322,5
48769,118348,4
48778,118364,5
48817,118433,5
48864,118509,5
48910,118619,5
48971,118711,4
49029,118806,5
49067,118901,5
49130,118991,5
49182,119083,5
49242,119203,4
49299,119302,5
49345,119374,5
49381,119452,5
49425,119520,5
49464,119584,4
49502,119664,6
49548,119757,4
49600,119851,5
49656,119945,5
49718,120048,4
49763,120158,5
49826,120265,5
49876,120357,5
49923,120445,4
49981,120535,4
50026,120622,5
50080,120732,5
50145,120844,5
50204,120956,4
50269,121068,5
50325,121163,5
50362,121250,5
50393,121301,5
50424,121327,4
50431,121354,5
50431,121358,5
50442,121379,5
50441,121389,5
50473,121424,4
50480,121434,5
50460,121418,5
50466,121413,5
50467,121401,5
50456,121403,4
50463,121392,5
50454,121379,5
50429,121346,5
50409,121314,5
50403,121288,4
50377,121273,5
50386,121260,5
50385,121261,5
50383,121266,4
50357,121232,4
50347,121212,5
50340,121187,5
50320,121162,5
50300,121128,5
50288,121095,4
50256,121036,5
50216,120974,5
50176,120869,6
50116,120785,3
50075,120716,5
50034,120637,5
50001,120572,5
49961,120504,5
49926,120459,4
49896,120414,5
49883,120366,5
49868,120338,5
49839,120316,5
49841,120315,4
49830,120305,5
49835,120297,5
49831,120304,5
49837,120314,5
49843,120305,4
49828,120300,5
49829,120269,5
49742,120249,5
49797,120233,4
49793,120208,6
49774,120176,4
49660,120174,5
49772,120183,5
49765,120174,6
49764,120180,3
49723,120198,5
49790,120203,5
49795,120217,5
49809,120245,4
49880,120249,5
49818,120257,5
49824,120262,5
49814,120286,5
49962,120284,4
49841,120309,5
49860,120347,5
49881,120383,5
49974,120415,5
49913,120447,4
49935,120480,5
49952,120500,5
49976,120507,5
49966,120544,4
49979,120563,4
49996,120600,6
50025,120564,4
50049,120678,5
50074,120720,4
50101,120771,5
50124,120719,5
50155,120874,5
50187,120917,5
50205,120952,4
50238,120922,5
50286,121097,5
50292,121116,5
50304,121121,5
50306,121180,4
50323,121142,5
50331,121179,5
50345,121200,5
50353,121348,5
50374,121264,4
50402,121303,5
50421,121334,5
50434,121489,5
50471,121436,5
50503,121478,4
50517,121518,5
50536,121570,6
50554,121570,4
50563,121598,5
50588,121630,4
50605,121685,5
50621,121710,5
50621,121726,5
50635,121732,4
50647,121738,5
50645,121753,5
50661,121766,5
50660,121765,5
50649,121768,4
50659,121767,5
50654,121760,5
50650,121758,5
50659,121752,5
50644,121734,4
50642,121738,5
50638,121750,5
50640,121745,5
50644,121734,5
50636,121739,4
50646,121740,5
50643,121742,5
50642,121752,6
50640,121751,4
50645,121739,4
50635,121738,5
50636,121736,5
50646,121749,5
50641,121757,4
50649,121759,4
50655,121768,5
50650,121768,5
50650,121767,5
50662,121780,4
50657,121791,5
50666,121795,5
50681,121815,5
50691,121820,5
50697,121843,4
50699,121841,5
50710,121852,5
50708,121849,5
50704,121854,5
50709,121849,5
50699,121860,4
50701,121864,5
50707,121858,5
50700,121855,6
50697,121843,3
50695,121855,5
50701,121845,5
50698,121860,5
50705,121861,5
50705,121859,4
50704,121857,5
50708,121876,5
50716,121883,5
50721,121885,4
50727,121899,4
50724,121898,5
50727,121900,5
50723,121898,5
50718,121907,4
50732,121907,5
50728,121909,5
50726,121907,5
50725,121907,5
50729,121908,4
50735,121920,6
50751,121925,4
50754,121946,5
50757,121965,5
50768,121971,4
50775,121993,5
50796,122023,5
50811,122033,5
50801,122039,5
50794,122026,4
50739,122000,5
50764,121968,5
50763,121969,5
50780,121980,5
50677,121989,4
50768,121986,5
50763,121974,5
50767,121957,5
50645,121956,4
50772,121973,4
50768,121999,5
50789,122004,5
50822,122026,5
50806,122022,4
50791,122023,5
50792,122021,6
50902,122023,4
50807,122040,5
50814,122064,4
50818,122084,5
50934,122088,5
50840,122094,5
50830,122104,5
50843,122118,4
50880,122126,5
50854,122128,5
50858,122144,5
50862,122134,5
50856,122109,4
50867,122156,5
50876,122155,5
50861,122164,5
50875,122079,5
50886,122194,4
50892,122203,5
50902,122211,5
50909,122105,5
50903,122232,4
50906,122224,5
50913,122226,4
50917,122230,6
50917,122246,4
50926,122265,4
50934,122274,5
50947,122388,5
50955,122308,5
50949,122307,5
50953,122319,4
50955,122451,5
50960,122324,5
50972,122346,5
50979,122360,5
50995,122432,4
51003,122402,5
51019,122431,5
51023,122455,5
51041,122473,5
51040,122486,4
51057,122496,5
51069,122516,5
51083,122546,5
51091,122562,5
51106,122589,4
51117,122622,5
51137,122651,5
51160,122682,5
51180,122726,4
51202,122754,4
51210,122773,5
51219,122797,5
51236,122799,5
51231,122820,4
51234,122833,5
51247,122836,5
51250,122851,5
51256,122860,5
51269,122879,4
51285,122915,5
51301,122955,5
51308,122976,5
51317,122978,5
51328,122987,4
51334,123005,5
51339,123032,5
51353,123044,5
51368,123073,5
51378,123090,5
51389,123116,4
51392,123121,5
51414,123137,5
51424,123176,5
51444,123209,4
51475,123254,5
51487,123294,5
51517,123346,5
51534,123366,4
51541,123391,4
51548,123377,5
51537,123362,5
51526,123343,5
51512,123320,4
51515,123320,5
51522,123341,5
51521,123337,5
51517,123332,5
51513,123326,4
51513,123342,5
51522,123339,5
51540,123370,5
51548,123416,5
51582,123465,4
51604,123508,6
51632,123551,4
51652,123588,5
51675,123640,5
51699,123705,4
51745,123740,7
51738,123763,3
51757,123770,5
51757,123760,5
51746,123754,4
51743,123747,5
51734,123731,5
51738,123724,5
51721,123710,4
51712,123695,4
51709,123685,5
51709,123687,5
51702,123685,5
51705,123684,4
51706,123686,5
51712,123687,5
51719,123689,5
51701,123689,5
51714,123690,4
51703,123686,5
51709,123673,6
51606,123666,4
51693,123670,5
51699,123674,4
51701,123671,5
51587,123679,5
51702,123680,5
51710,123689,5
51720,123704,4
51679,123720,5
51728,123722,5
51735,123728,5
51728,123735,5
51822,123752,4
51745,123757,5
51752,123785,5
51767,123799,5
51897,123811,4
51771,123819,4
51787,123826,5
51799,123837,5
51871,123859,5
51821,123866,4
51820,123905,5
51833,123919,5
51858,123929,5
51847,123946,5
51855,123960,4
51861,123969,5
51875,123907,5
51881,123997,5
51886,124007,5
51889,124010,4
51899,123912,5
51897,124017,5
51902,124028,5
51907,124034,5
51905,123940,4
51902,124045,5
51902,124046,5
51921,124071,5
51930,124140,5
51954,124135,5
51968,124145,4
51965,124145,5
51958,124275,5
51957,124120,6
51942,124082,3
51919,124064,5
51906,124150,5
51913,124054,5
51919,124064,4
51923,124063,5
51921,124111,5
51927,124087,5
51943,124113,5
51954,124119,4
51949,124131,5
51964,124152,5
51974,124178,5
51978,124191,5
51987,124197,4
51986,124196,5
51993,124189,5
51994,124185,5
51993,124191,5
51989,124194,4
51990,124199,6
52004,124219,4
52020,124246,5
52029,124249,5
52016,124231,6
52003,124216,3
51975,124171,5
51955,124122,5
51953,124120,4
51954,124145,4
51963,124163,5
51960,124143,5
51969,124147,5
51959,124145,4
51955,124126,5
51957,124136,5
51962,124145,5
51957,124145,5
51952,124144,4
51949,124138,5
51958,124144,5
51973,124174,5
51994,124219,5
52028,124269,4
52054,124326,5
52069,124353,6
52073,124348,4
52068,124355,5
52067,124350,4
52066,124335,5
52069,124326,5
52067,124338,5
52067,124346,5
52062,124345,4
52063,124347,5
52073,124342,5
52079,124337,5
52080,124349,4
52079,124360,4
52083,124368,5
52082,124368,5
52085,124364,5
52080,124365,4
52071,124355,5
52083,124365,5
52079,124363,5
52094,124378,5
52089,124382,4
52101,124396,5
52102,124404,5
52107,124412,6
52111,124420,4
52107,124405,4
52106,124394,5
52092,124379,5
52091,124366,5
52087,124380,5
52087,124386,4
52112,124399,5
52119,124425,5
52126,124450,5
52142,124472,5
52147,124489,4
52143,124489,5
52147,124495,5
52152,124482,5
52158,124487,4
52098,124490,5
52153,124491,5
52156,124501,5
52161,124506,5
52068,124527,5
52176,124540,4
52191,124559,5
52192,124560,5
52071,124557,6
52195,124569,3
52191,124569,5
52198,124582,5
52241,124596,5
52219,124602,5
52225,124619,4
52244,124645,5
52370,124657,5
52254,124686,5
52268,124704,5
52278,124728,4
52407,124743,5
52305,124762,5
52322,124783,5
52328,124803,5
52378,124828,4
52348,124858,5
52369,124889,5
52398,124941,5
52432,124969,4
52468,125076,6
52506,125142,4
52539,125190,5
52566,125155,5
52593,125298,4
52618,125344,5
52637,125380,5
52655,125289,5
52673,125429,5
52686,125457,5
52693,125478,4
52695,125485,5
52713,125509,5
52732,125537,5
52740,125564,4
52756,125694,5
52784,125642,5
52817,125702,5
52842,125758,5
52864,125921,4
52862,125776,5
52868,125771,5
52866,125776,5
52867,125864,5
52900,125849,4
52920,125878,6
52929,125898,4
52927,125933,5
52951,125951,4
52962,125977,5
52980,126023,5
53022,126098,5
53079,126174,5
53118,126261,4
53155,126335,5
53194,126400,5
53238,126488,5
53289,126582,5
53349,126699,4
53418,126821,5
53487,126940,5
53555,127065,5
53620,127199,5
53707,127368,4
53806,127525,5
53894,127709,5
54001,127899,5
54121,128130,5
54255,128343,4
54364,128552,5
54475,128751,6
54587,128960,4
54717,129209,5
54869,129467,4
55042,129796,5
55205,130104,5
55407,130480,5
55631,130862,4
55824,131202,5
55980,131452,5
56110,131681,5
56222,131888,5
56327,132066,4
56419,132237,5
56512,132411,5
56638,132629,5
56740,132814,5
56833,132942,4
56879,133031,5
56894,133045,5
56897,133056,5
56900,133054,5
56903,133050,4
56897,133036,5
56890,133007,5
56858,132970,6
56831,132904,4
56784,132855,4
56732,132745,5
56673,132639,5
56596,132493,5
56535,132394,5
56467,132286,4
56420,132210,5
56388,132150,5
56352,132080,5
56310,132011,4
56261,131922,5
56221,131848,5
56170,131781,5
56146,131727,5
56117,131665,4
56064,131598,5
56008,131490,5
55960,131387,5
55893,131270,5
55811,131144,5
55746,131008,4
55675,130876,5
55590,130743,5
55500,130607,5
55424,130442,4
55322,130280,5
55230,130126,5
55154,130030,5
55150,129983,5
55131,129961,4
55129,129951,5
55035,129947,5
55111,129926,5
55106,129893,5
55094,129869,4
54943,129850,5
55062,129829,5
55043,129791,5
55002,129737,4
54938,129675,5
54936,129599,5
54908,129547,5
54885,129540,5
54994,129568,4
54912,129575,6
54909,129553,4
54898,129552,5
55036,129555,5
54900,129545,4
54913,129574,5
54913,129589,5
55007,129606,5
54935,129607,5
54931,129606,4
54925,129587,5
54938,129576,5
54923,129573,5
54919,129563,5
54914,129571,4
54916,129508,5
54919,129577,5
54926,129577,5
54918,129587,5
54925,129462,4
54920,129588,5
54923,129591,6
54918,129587,4
54928,129472,4
54910,129561,5
54908,129549,7
54896,129536,3
54891,129578,5
54900,129522,4
54878,129499,5
54873,129495,5
54871,129633,5
54864,129481,5
54858,129481,4
54864,129467,5
54843,129555,5
54842,129435,5
54836,129435,5
54828,129425,4
54831,129457,5
54836,129431,5
54838,129421,5
54828,129427,5
54825,129436,4
54839,129455,5
54850,129461,5
54862,129470,5
54857,129473,4
54859,129486,4
54865,129489,5
54874,129496,5
54876,129497,5
54873,129500,4
54871,129494,5
54871,129498,5
54872,129491,5
54869,129497,5
54868,129507,4
54871,129496,5
54871,129491,5
54859,129493,5
54875,129491,5
54865,129497,4
54865,129491,5
54870,129511,5
54882,129507,5
54878,129508,5
54872,129506,4
54872,129510,5
54877,129503,5
54869,129504,5
54866,129501,5
54869,129487,4
54872,129483,5
54869,129477,5
54864,129490,5
54868,129479,4
54863,129481,4
54865,129492,5
54871,129500,5
54872,129487,5
54859,129468,4
54852,129460,5
54842,129445,5
54846,129462,5
54857,129465,5
54852,129460,4
54855,129457,5
54848,129455,5
54845,129456,5
54853,129457,5
54854,129454,4
54848,129474,6
54851,129480,4
54862,129479,5
54855,129472,5
54849,129457,6
54847,129468,3
54858,129465,5
54857,129476,5
54856,129486,5
54867,129477,4
54873,129481,5
54871,129479,5
54862,129483,5
54866,129485,4
54862,129482,4
54865,129475,5
54866,129473,5
54859,129463,5
54854,129458,4
54859,129467,5
54856,129471,5
54856,129461,9
54844,129450,1
54855,129463,4
54846,129438,5
54858,129465,6
54858,129484,4
54866,129475,5
54794,129468,4
54858,129471,5
54863,129473,5
54858,129486,5
54755,129491,5
54874,129508,4
54883,129504,5
54883,129515,5
54757,129520,5
54889,129526,5
54888,129530,4
54893,129525,5
54926,129523,5
54886,129517,5
54884,129513,4
54879,129512,4
55016,129499,5
54875,129492,5
54861,129486,5
54872,129468,4
54967,129468,5
54861,129463,5
54860,129457,6
54860,129474,4
54895,129473,4
54860,129469,5
54853,129458,5
54855,129453,5
54856,129412,5
54850,129455,4
54852,129451,5
54844,129454,5
54839,129334,5
54838,129442,5
54848,129434,4
54842,129448,5
54841,129313,5
54840,129448,5
54830,129440,5
54844,129440,4
54834,129446,5
54839,129449,5
54832,129419,5
54802,129362,5
54778,129439,4
54770,129315,5
54759,129300,5
54750,129273,6
54732,129390,3
54724,129236,5
54720,129216,5
54701,129191,5
54688,129213,5
54649,129108,4
54620,129030,5
54563,128937,5
54493,128815,5
54437,128697,5
54366,128580,4
54300,128460,5
54227,128361,5
54182,128259,5
54136,128188,5
54096,128110,4
54044,128035,5
54003,127945,5
53943,127858,5
53898,127755,5
53829,127636,5
53746,127485,4
53646,127276,5
53518,127050,5
53382,126803,6
53256,126591,3
53144,126418,5
53078,126287,5
53000,126154,5
52955,126085,4
52928,126037,5
52919,126023,5
52914,126020,5
52914,126010,5
52922,126035,4
52934,126092,5
52988,126170,5
53033,126245,5
53065,126282,5
53085,126336,4
53115,126366,5
53148,126453,5
53251,126632,5
53363,126819,5
53464,126993,4
53527,127091,6
53562,127127,4
53584,127163,5
53611,127178,5
53584,127141,4
53538,127060,5
53481,126946,5
53396,126797,5
53299,126608,4
53188,126451,5
53102,126282,5
53025,126143,5
52901,125887,5
52717,125559,4
52543,125274,5
52467,125167,5
52437,125137,5
52467,125181,5
52473,125206,4
52474,125201,5
52450,125126,5
52353,124945,5
52224,124667,5
52049,124378,4
51949,124197,5
51904,124134,6
51873,124081,4
51834,124005,5
51808,123948,4
51793,123939,5
51778,123932,5
51779,123884,5
51744,123854,4
51743,123841,4
51734,123825,5
51714,123777,5
51677,123725,5
51658,123681,4
51621,123616,5
51576,123536,5
51491,123448,5
51501,123426,5
51492,123421,4
51511,123425,5
51411,123427,5
51503,123411,5
51492,123383,5
51465,123358,4
51347,123339,5
51458,123313,5
51428,123267,6
51399,123217,4
51360,123163,4
51348,123119,5
51339,123104,5
51335,123101,5
51438,123104,5
51350,123122,4
51360,123156,5
51383,123190,5
51524,123208,5
51395,123215,4
51405,123238,4
51423,123265,5
51483,123290,5
51447,123287,5
51443,123285,4
51442,123275,5
51438,123256,5
51422,123255,5
51415,123253,5
51427,123247,5
51411,123148,4
51402,123210,5
51396,123198,5
51387,123197,5
51385,123059,4
51381,123166,5
51381,123167,5
51368,123164,5
51379,123127,5
51384,123190,4
51396,123216,5
51422,123239,5
51438,123344,5
51454,123291,5
51466,123320,4
51472,123345,5
51493,123494,5
51502,123383,5
51505,123417,4
51536,123446,4
51550,123566,5
51586,123539,5
51614,123577,5
51628,123616,4
51647,123680,6
51671,123693,4
51714,123770,5
51748,123832,5
51757,123837,4
51770,123840,5
51768,123864,5
51784,123901,5
51807,123917,5
51824,123923,4
51827,123953,5
51844,123981,5
51850,124003,5
51867,124016,5
51880,124040,4
51884,124061,5
51892,124060,5
51900,124058,5
51888,124070,5
51886,124050,4
51872,124022,5
51859,123999,5
51842,123975,5
51826,123924,4
51803,123901,4
51783,123863,6
51758,123832,4
51745,123810,5
51732,123773,4
51709,123742,5
51688,123695,5
51659,123653,5
51612,123580,5
51566,123477,4
51502,123357,5
51424,123221,5
51362,123122,5
51315,123034,5
51276,122970,4
51231,122915,5
51227,122900,5
51216,122888,5
51223,122890,5
51236,122932,4
51245,122956,5
51281,123011,5
51328,123110,5
51389,123210,5
51448,123311,4
51476,123350,5
51492,123357,6
51471,123324,4
51467,123302,4
51442,123258,4
51437,123261,5
51442,123272,5
51446,123298,5
51484,123374,4
51564,123517,5
51660,123699,5
51776,123894,5
51851,123999,5
51888,124063,4
51943,124157,5
52008,124274,5
52071,124381,5
52161,124561,5
52244,124702,4
52326,124835,5
52387,124956,5
52464,125089,5
52513,125157,5
52515,125172,4
52520,125165,5
52538,125206,5
52583,125282,5
52614,125325,5
52613,125349,4
52638,125362,5
52653,125433,5
52720,125555,5
52726,125710,4
52884,125821,4
52959,125952,5
53037,126088,5
52953,126144,5
53110,126210,4
53146,126288,5
53272,126513,5
53380,126815,5
53620,127159,5
53776,127400,4
53827,127482,5
53952,127545,5
53906,127628,5
53989,127785,5
54143,128072,5
54477,128424,4
54509,128677,5
54587,128803,5
54607,128820,5
54650,128757,4
54571,128749,5
54562,128742,5
54582,128796,5
54690,128988,4
54893,129405,4
55164,129857,5
55313,130069,5
55260,129844,5
55128,129679,4
55050,129605,5
55090,129676,5
55090,129523,5
55023,129509,5
54883,129254,5
54782,129118,4
54790,129046,6
54785,129133,4
54777,129127,5
54779,129124,4
54767,129136,7
54735,129047,3
54707,128981,5
54685,128973,5
54687,129107,4
54694,128991,5
54661,128917,5
54613,128833,5
54547,128802,5
54504,128652,4
54507,128675,5
54513,128666,5
54487,128654,5
54424,128488,4
54348,128389,4
54331,128362,5
54298,128277,5
54198,128073,5
54071,127886,4
54005,127779,5
53976,127736,5
53949,127688,6
53926,127661,4
53966,127751,4
54036,127854,5
54062,127862,5
54012,127761,5
53932,127625,5
53888,127580,4
53894,127591,5
53903,127619,5
53935,127666,5
53948,127695,5
53947,127668,4
53924,127614,5
53873,127542,5
53828,127489,5
53823,127460,5
53797,127408,4
53768,127343,5
53726,127283,5
53695,127245,5
53692,127242,5
53706,127284,4
53745,127345,5
53765,127374,5
53785,127414,6
53791,127408,3
53781,127389,5
53739,127308,5
53704,127275,5
53732,127323,5
53786,127408,4
53822,127471,5
53859,127535,5
53864,127533,5
53838,127486,5
53808,127428,4
53769,127364,5
53754,127341,5
53766,127398,5
53827,127513,5
53931,127695,4
54021,127827,5
54047,127859,5
54030,127816,5
54006,127775,5
53973,127734,5
53982,127741,4
53995,127776,5
54010,127801,5
54032,127815,6
54062,127880,3
54081,127916,5
54071,127878,5
54026,127796,5
53973,127720,4
53962,127708,5
53948,127695,5
53968,127719,5
53963,127684,5
53950,127688,4
53961,127731,5
53986,127768,5
54013,127800,5
54011,127791,5
54003,127788,4
54012,127812,5
54065,127882,5
54061,127863,5
54006,127767,5
53939,127630,4
53886,127582,6
53849,127627,4
53941,127671,5
53925,127618,5
53862,127511,4
53657,127365,5
53696,127258,5
53703,127270,5
53757,127365,4
53663,127398,6
53766,127359,3
53735,127325,5
53745,127333,5
53812,127385,4
53788,127424,5
53796,127434,5
53784,127394,5
53870,127315,5
53701,127238,4
53634,127146,5
53594,127085,5
53686,127050,5
53555,127019,5
53558,127020,4
53578,127049,5
53626,127096,6
53641,127163,4
53672,127234,5
53705,127275,4
53714,127240,5
53715,127287,5
53722,127297,5
53722,127296,5
53731,127208,4
53734,127316,5
53729,127297,5
53721,127303,5
53738,127194,4
53755,127378,4
53784,127413,5
53796,127436,5
53808,127451,5
53819,127471,4
53828,127500,5
53845,127509,5
53850,127631,5
53847,127537,5
53855,127544,4
53862,127535,5
53864,127675,5
53859,127543,6
53872,127564,4
53887,127599,4
53901,127678,5
53916,127641,5
53928,127652,5
53917,127625,5
53915,127633,4
53902,127600,5
53900,127616,5
53934,127666,5
53943,127695,5
53958,127710,4
53953,127728,5
53961,127724,5
53973,127722,5
53963,127723,4
53974,127749,4
53992,127783,5
54016,127806,5
54027,127832,5
54035,127851,5
54044,127872,4
54057,127890,5
54074,127933,5
54096,127968,6
54114,128001,3
54121,128012,5
54127,128024,5
54141,128036,5
54150,128059,5
54162,128080,4
54175,128085,5
54185,128118,5
54195,128135,5
54211,128177,5
54237,128210,4
54256,128241,5
54279,128293,5
54323,128371,5
54359,128438,5
54387,128486,4
54430,128545,5
54460,128609,5
54491,128657,5
54512,128710,4
54547,128776,5
54574,128828,4
54608,128883,5
54638,128907,5
54658,128956,4
54670,128969,5
54675,128966,5
54655,128955,5
54645,128942,5
54648,128934,4
54652,128934,5
54645,128939,5
54644,128939,5
54649,128935,5
54650,128933,4
54655,128958,5
54660,128947,5
54657,128944,5
54650,128954,5
54657,128962,4
54666,128979,5
54654,128963,5
54677,128971,5
54674,128991,5
54675,128992,4
54683,128999,6
54691,129011,4
54692,129009,5
54707,129031,4
54712,129055,4
54720,129055,5
54721,129065,5
54718,129071,5
54725,129075,4
54730,129069,5
54725,129075,5
54722,129072,5
54735,129087,5
54703,129092,4
54740,129107,5
54747,129105,5
54747,129115,5
54642,129116,5
54754,129112,4
54746,129105,5
54756,129110,5
54624,129121,5
54755,129122,5
54750,129127,4
54755,129137,5
54761,129156,6
54772,129166,4
54777,129164,5
54777,129169,4
54889,129172,5
54772,129169,5
54778,129176,5
54788,129179,4
54928,129181,4
54794,129192,5
54796,129193,5
54804,129200,5
54873,129233,4
54835,129257,5
54829,129268,5
54833,129266,5
54858,129276,5
54860,129309,4
54871,129310,5
54857,129320,5
54854,129215,5
54850,129289,5
54850,129278,4
54862,129321,5
54875,129210,5
54870,129319,5
54860,129316,5
54856,129305,4
54849,129236,5
54836,129283,5
54843,129281,5
54850,129309,5
54870,129426,4
54880,129343,5
54884,129359,5
54901,129385,5
54923,129565,4
54935,129455,4
54957,129481,5
54977,129515,5
54981,129608,5
55009,129565,4
55016,129590,5
55045,129642,5
55075,129717,5
55102,129740,5
55119,129775,6
55146,129805,3
55151,129842,5
55171,129869,5
55190,129912,5
55217,129944,4
55242,129991,5
55278,130051,5
55286,130083,5
55310,130126,5
55343,130172,4
55362,130215,5
55386,130244,5
55403,130299,5
55426,130343,5
55445,130376,4
55484,130417,5
55495,130471,5
55542,130525,5
55569,130607,4
55604,130660,4
55636,130719,5
55667,130774,5
55706,130835,5
55748,130903,4
55771,130951,6
55814,131021,4
55843,131070,5
55876,131119,5
55895,131152,4
55916,131172,5
55922,131193,5
55931,131215,5
55955,131260,5
55977,131310,4
56001,131346,5
56019,131379,5
56032,131415,5
56064,131453,5
56077,131480,4
56105,131519,5
56125,131549,5
56127,131570,5
56144,131591,5
56153,131599,4
56151,131607,5
56155,131621,6
56173,131625,4
56166,131629,4
56163,131627,4
56171,131638,5
56192,131669,5
56204,131691,5
56219,131719,4
56229,131728,5
56238,131739,5
56244,131753,5
56245,131760,5
56260,131775,4
56261,131788,5
56267,131815,5
56287,131842,5
56301,131863,5
56320,131886,4
56322,131907,5
56325,131905,5
56336,131906,5
56334,131916,5
56331,131917,4
56320,131923,5
56332,131923,5
56335,131928,6
56346,131939,4
56346,131938,4
56350,131935,5
56328,131948,5
56358,131959,5
56366,131985,4
56383,132010,4
56299,132020,5
56402,132007,5
56372,131993,5
56369,131955,4
56212,131931,5
56327,131928,5
56329,131908,5
56291,131837,5
56187,131724,4
56159,131614,5
56081,131464,5
55989,131297,5
55964,131095,5
55772,130932,5
55692,130816,4
55623,130691,5
55679,130549,5
55444,130363,6
55331,130189,3
55242,130058,5
55243,129942,5
55111,129819,5
55025,129691,4
54959,129582,4
54920,129484,5
54858,129394,5
54792,129295,5
54739,129227,4
54713,129096,5
54684,129126,5
54654,129064,5
54635,129027,5
54618,128886,4
54607,128980,5
54598,128965,5
54597,128968,5
54593,128877,5
54581,128957,4
54601,128979,6
54615,129003,4
54626,129091,5
54638,129031,5
54645,129056,6
54665,129109,3
54694,129278,5
54714,129193,5
54765,129256,5
54810,129343,4
54847,129482,5
54866,129426,5
54888,129468,5
54899,129489,4
54928,129557,4
54957,129587,5
54993,129644,5
55016,129676,5
55035,129715,4
55050,129751,5
55067,129765,5
55090,129780,5
55099,129809,5
55110,129829,4
55116,129842,5
55125,129861,6
55146,129890,4
55168,129922,5
55189,129947,4
55199,129978,5
55194,129970,5
55191,129958,5
55190,129949,5
55197,129966,4
55194,129962,5
55212,129994,5
55233,130033,5
55266,130088,5
55293,130157,4
55334,130240,5
55387,130322,5
55432,130386,5
55470,130444,4
55494,130480,4
55518,130505,5
55510,130497,5
55505,130498,5
55506,130491,4
55494,130482,5
55471,130454,5
55467,130419,6
55452,130405,4
55435,130394,4
55435,130365,5
55433,130377,5
55436,130390,5
55449,130421,5
55469,130444,4
55485,130462,5
55483,130466,5
55492,130470,5
55497,130482,5
55519,130537,4
55556,130588,5
55568,130600,5
55565,130616,5
55587,130660,5
55604,130676,4
55620,130706,5
55651,130754,5
55684,130809,5
55721,130859,5
55741,130900,4
55743,130927,5
55753,130932,5
55763,130933,6
55771,130946,3
55777,130959,5
55778,130969,5
55781,130979,5
55797,131000,5
55808,131021,4
55831,131052,5
55834,131071,5
55849,131097,5
55865,131125,5
55879,131142,4
55880,131156,5
55885,131147,5
55879,131151,5
55893,131150,5
55885,131159,4
55881,131147,5
55894,131184,5
55898,131180,5
55830,131186,5
55915,131193,5
55913,131192,4
55902,131190,5
55790,131197,5
55914,131185,4
55918,131193,4
55911,131216,5
55833,131217,5
55925,131222,5
55929,131216,4
55921,131232,5
56002,131231,5
55946,131258,5
55949,131270,5
55955,131275,4
56096,131269,5
55962,131280,5
55968,131295,5
55970,131305,5
56075,131317,4
55987,131318,5
55978,131309,10
55974,131301,5
55999,131306,4
55979,131310,6
55981,131314,4
55986,131315,5
55976,131266,5
55984,131317,4
55987,131323,5
55993,131330,5
55995,131217,5
56004,131349,5
55998,131342,4
56004,131357,5
55999,131214,5
55992,131347,5
55997,131338,4
55989,131334,5
55995,131370,5
56002,131348,5
56017,131367,5
56008,131362,4
56020,131490,5
56012,131358,5
56012,131366,5
56007,131357,5
56019,131503,4
56020,131385,5
56026,131399,6
56033,131399,4
56041,131457,5
56042,131429,4
56057,131427,5
56064,131456,5
56069,131473,5
56088,131479,5
56089,131494,4
56084,131487,5
56070,131463,5
56062,131435,5
56070,131445,4
56079,131470,4
56071,131463,5
56074,131464,5
56079,131456,5
56066,131469,4
56073,131469,5
56069,131469,5
56068,131465,5
56083,131476,5
56083,131485,4
56089,131478,5
56071,131488,5
56074,131474,5
56079,131485,5
56071,131483,4
56078,131468,5
56083,131481,5
56083,131488,5
56082,131490,5
56080,131486,4
56083,131489,5
56090,131495,5
56094,131497,5
56089,131489,5
56098,131494,4
56090,131489,5
56089,131487,5
56090,131493,5
56079,131499,4
56094,131493,4
56067,131466,5
56066,131458,5
56069,131472,5
56066,131466,5
56077,131463,4
56062,131454,5
56052,131433,5
56045,131430,5
56035,131425,4
56040,131413,5
56055,131432,5
56055,131444,5
56062,131460,5
56066,131456,4
56068,131455,5
56067,131476,5
56086,131474,5
56086,131483,5
56088,131484,4
56086,131489,5
56085,131489,5
56094,131494,5
56090,131518,5
56104,131506,4
56106,131522,5
56113,131531,5
56115,131517,5
56103,131526,4
56098,131510,6
56107,131516,4
56099,131525,5
56099,131517,5
56108,131515,4
56106,131527,5
56104,131525,5
56108,131522,5
56108,131519,5
56093,131528,4
56109,131529,5
56111,131539,5
56046,131530,5
56114,131536,5
56106,131541,4
56107,131536,5
55989,131533,5
56110,131532,5
56113,131532,5
56110,131535,4
55981,131536,5
56108,131531,6
56116,131536,4
56104,131526,4
56149,131510,4
56106,131508,6
56100,131514,4
56101,131510,5
56225,131498,4
56067,131455,5
56053,131420,5
56052,131426,5
56168,131438,5
56045,131420,4
56034,131392,5
56040,131399,5
56070,131407,5
56035,131409,5
56032,131402,4
56038,131406,5
56038,131353,5
56042,131403,5
56030,131402,5
56036,131399,4
56032,131289,5
56035,131393,5
56040,131406,5
56043,131409,4
56053,131308,4
56050,131413,5
56048,131427,5
56047,131408,5
56037,131415,4
56017,131352,4
55982,131297,5
55948,131223,5
55907,131273,5
55855,131069,4
55804,130985,5
55752,130896,5
55698,130957,5
55665,130749,5
55631,130687,4
55583,130612,5
55544,130590,5
55496,130458,5
55441,130351,5
55366,130216,5
55276,130077,4
55195,129946,5
55153,129839,5
55069,129710,6
54992,129569,3
54905,129410,5
54807,129253,5
54734,129112,5
54668,128986,5
54586,128858,4
54523,128754,5
54458,128622,5
54355,128453,5
54252,128265,4
54146,128074,4
54045,127903,5
53959,127747,5
53895,127650,5
53843,127572,4
53789,127480,5
53740,127379,5
53682,127274,5
53616,127162,5
53547,127050,4
53461,126873,6
53354,126675,4
53225,126424,5
53065,126146,5
52927,125938,6
52850,125789,3
52781,125666,5
52717,125560,5
52659,125450,5
52578,125317,4
52525,125196,5
52468,125109,5
52430,125040,5
52395,124983,5
52359,124896,4
52282,124789,5
52239,124668,5
52171,124560,5
52128,124503,4
52098,124446,4
52087,124418,5
52072,124389,5
52044,124332,5
51977,124190,4
51902,124054,5
51844,123960,6
51815,123933,4
51812,123922,5
51807,123909,4
51800,123905,5
51811,123917,5
51812,123912,5
51809,123919,5
51819,123919,4
51823,123913,5
51815,123912,5
51805,123910,5
51808,123920,5
51813,123923,4
51809,123930,5
51824,123917,5
51808,123908,5
51802,123885,5
51791,123873,4
51778,123861,5
51788,123856,5
51784,123872,5
51784,123871,4
51775,123846,4
51771,123837,5
51768,123846,6
51758,123832,4
51770,123833,4
51739,123852,5
51768,123861,5
51781,123847,5
51783,123872,5
51689,123864,4
51781,123861,5
51774,123839,5
51769,123846,5
51648,123848,5
51769,123829,4
51772,123825,5
51760,123819,5
51750,123804,5
51740,123789,5
51737,123794,4
51745,123788,5
51817,123739,5
51705,123719,5
51698,123720,5
51695,123709,4
51823,123711,5
51697,123716,5
51688,123689,6
51670,123655,3
51704,123630,5
51656,123633,5
51663,123658,5
51668,123669,5
51678,123672,4
51679,123684,5
51679,123677,5
51679,123685,5
51671,123580,5
51669,123669,4
51676,123670,5
51670,123686,5
51679,123573,5
51696,123708,5
51715,123735,4
51734,123790,5
51766,123785,5
51785,123885,5
51807,123921,5
51831,123953,5
51850,124071,4
51873,124040,5
51908,124080,5
51927,124116,6
51946,124266,3
51961,124168,5
51980,124203,5
52011,124254,5
52046,124410,4
52109,124452,5
52181,124566,5
52249,124695,5
52304,124796,5
52335,124831,4
52353,124878,5
52380,124930,5
52425,124995,5
52483,125123,5
52549,125218,4
52586,125280,5
52632,125377,5
52661,125431,5
52701,125483,5
52736,125550,4
52770,125612,6
52805,125661,4
52827,125715,5
52847,125741,5
52871,125802,4
52917,125878,5
52959,125961,5
53017,126055,5
53059,126138,4
53096,126204,4
53141,126282,5
53182,126336,5
53209,126399,5
53244,126476,4
53289,126545,5
53332,126604,5
53360,126660,5
53384,126692,5
53388,126715,4
53412,126747,5
53426,126756,5
53439,126791,5
53432,126799,5
53453,126822,4
53455,126823,5
53463,126829,6
53465,126841,4
53468,126850,5
53464,126852,4
53471,126868,5
53467,126863,5
53468,126859,5
53479,126867,5
53484,126878,4
53483,126891,5
53500,126902,5
53492,126891,5
53496,126901,4
53487,126897,4
53487,126892,5
53489,126891,5
53490,126901,5
53495,126889,4
53504,126902,5
53502,126902,5
53511,126912,5
53508,126929,5
53515,126926,4
53510,126927,5
53518,126935,5
53521,126950,6
53526,126952,4
53531,126967,4
53550,126991,5
53570,127024,5
53585,127063,5
53593,127077,5
53596,127087,4
53606,127099,5
53604,127099,5
53607,127102,5
53606,127093,5
53603,127092,4
53610,127080,5
53604,127086,5
53602,127095,5
53605,127098,4
53603,127091,4
53601,127090,5
53531,127101,5
53611,127102,5
53620,127122,5
53623,127133,4
53515,127136,5
53633,127144,5
53622,127120,5
53629,127133,4
53541,127134,5
53637,127141,5
53629,127138,5
53622,127132,5
53694,127140,4
53642,127171,5
53676,127226,5
53702,127273,5
53854,127301,5
53730,127319,4
53739,127352,5
53762,127378,5
53871,127405,5
53790,127412,5
53781,127400,4
53771,127388,5
53787,127359,5
53749,127362,5
53767,127394,4
53780,127413,6
53787,127371,4
53809,127462,5
53824,127503,5
53832,127519,4
53857,127433,5
53880,127589,5
53904,127647,5
53931,127692,5
53935,127574,7
53942,127700,2
53940,127684,5
53931,127684,5
53934,127700,5
53916,127657,4
53908,127637,5
53904,127634,5
53906,127767,5
53917,127669,5
53923,127667,4
53919,127676,5
53948,127710,56
53940,127707,4
53940,127706,2
53935,127700,5
53943,127720,5
53968,127756,5
53993,127804,5
54039,127900,4
54088,127982,5
54125,128058,5
54189,128169,5
54216,128204,5
54247,128251,4
54263,128303,5
54288,128341,5
54316,128394,5
54359,128461,5
54385,128503,4
54408,128548,5
54427,128588,5
54450,128638,5
54490,128712,4
54521,128743,4
54532,128761,5
54523,128745,5
54515,128734,5
54505,128723,4
54498,128718,5
54508,128717,5
54513,128746,5
54536,128785,5
54566,128841,4
54608,128912,5
54649,128981,5
54676,129046,5
54710,129060,5
54722,129103,4
54747,129166,5
54791,129244,5
54832,129308,5
54873,129368,5
54905,129431,3
54922,129463,5
54936,129486,5
54968,129544,5
54996,129599,5
55025,129655,4
55042,129664,5
55026,129651,5
55017,129614,5
54995,129591,4
54978,129588,4
54985,129572,5
54978,129585,5
54989,129599,5
55010,129626,4
55034,129686,5
55076,129746,5
55116,129825,5
55167,129920,5
55235,130045,4
55314,130179,6
55378,130276,4
55409,130353,5
55440,130383,5
55439,130376,6
55433,130378,3
55444,130391,5
55452,130408,5
55444,130385,5
55442,130368,4
55428,130360,5
55423,130359,5
55371,130380,5
55471,130435,5
55522,130540,4
55579,130661,5
55525,130754,5
55671,130787,5
55671,130778,4
55664,130775,5
55549,130792,5
55685,130795,5
55682,130814,5
55691,130822,4
55731,130821,5
55682,130814,6
55683,130804,4
55684,130810,5
55807,130797,4
55681,130809,5
55689,130842,5
55727,130910,5
55890,131006,5
55831,131083,4
55855,131105,5
55852,131123,5
55910,131176,5
55907,131232,5
55918,131225,4
55905,131218,5
55903,131155,5
55912,131199,5
55915,131246,4
55969,131344,4
56037,131322,5
56092,131552,5
56149,131657,5
56188,131706,5
56219,131627,4
56231,131762,5
56227,131772,6
56225,131765,4
56214,131775,4
56225,131791,5
56275,131880,5
56359,132061,5
56501,132428,5
56650,132556,4
56771,132764,5
56859,132915,5
56935,133184,5
56973,133101,5
57013,133163,4
57049,133238,5
57094,133372,5
57168,133450,5
57237,133572,5
57310,133703,4
57385,133828,5
57423,133883,5
57429,133895,5
57431,133896,5
57436,133914,4
57453,133930,5
57483,133979,5
57513,134055,6
57577,134142,3
57627,134277,5
57704,134398,5
57793,134557,5
57858,134652,5
57898,134719,4
57929,134791,5
57961,134828,5
57971,134850,5
57986,134866,5
57978,134861,4
57964,134832,5
57938,134782,5
57923,134751,5
57910,134738,5
57920,134778,4
57972,134853,5
58026,134969,5
58075,135036,5
58060,135010,5
58008,134889,5
57914,134722,4
57812,134526,5
57675,134324,5
57586,134169,6
57534,134118,3
57547,134147,5
57567,134158,5
57560,134149,5
57504,134029,4
57416,133864,5
57352,133772,5
57339,133768,5
57342,133789,5
57327,133740,4
57276,133660,5
57214,133546,5
57154,133441,5
57098,133357,5
57056,133274,4
56983,133141,5
56906,132992,5
56788,132765,5
56607,132435,5
56407,132107,4
56277,131896,6
56181,131736,4
56166,131742,5
56200,131803,5
56215,131815,4
56206,131767,5
56166,131706,5
56118,131640,5
56069,131542,4
56027,131478,5
55984,131374,5
55857,131120,5
55670,130767,5
55475,130421,4
55330,130210,5
55253,130105,5
55274,130173,5
55362,130347,5
55455,130470,4
55468,130475,5
55408,130331,5
55259,130044,5
55090,129775,5
55013,129651,4
54951,129682,5
55033,129696,6
55011,129666,4
54994,129616,5
54822,129529,4
54887,129422,5
54860,129396,5
54846,129364,5
54685,129290,4
54731,129124,4
54590,128828,5
54357,128409,5
54123,127909,5
53932,127699,4
53874,127601,5
53793,127462,5
53861,127395,5
53748,127424,5
53765,127453,4
53737,127367,5
53675,127056,5
53415,126770,5
53240,126472,5
53159,126323,4
53172,126339,5
53173,126421,5
53245,126533,6
53270,126564,4
53303,126573,4
53322,126657,5
53370,126730,5
53395,126778,5
53403,126703,5
53421,126839,4
53453,126884,5
53469,126911,5
53464,126767,5
53441,126862,4
53439,126839,4
53422,126828,5
53446,126897,5
53498,126976,5
53556,127101,4
53626,127221,5
53686,127406,5
53724,127383,5
53758,127433,5
53793,127489,5
53833,127695,4
53898,127648,5
53931,127731,5
53959,127750,5
53935,127771,4
53906,127669,5
53876,127610,5
53872,127603,5
53871,127635,5
53868,127602,4
53840,127570,5
53840,127543,5
53833,127534,5
53822,127518,5
53816,127511,4
53818,127506,5
53811,127494,5
53791,127471,5
53784,127459,4
53767,127427,4
53756,127399,5
53744,127398,5
53764,127425,5
53796,127463,4
53811,127491,6
53800,127481,4
53795,127470,5
53777,127439,5
53752,127411,4
53745,127400,5
53738,127382,5
53725,127346,5
53706,127339,5
53700,127321,4
53686,127308,5
53678,127278,5
53665,127244,5
53634,127198,5
53596,127126,4
53580,127089,5
53558,127055,5
53521,127015,5
53502,126942,5
53465,126894,4
53446,126878,5
53450,126865,5
53439,126846,5
53415,126834,4
53416,126798,5
53407,126790,6
53401,126798,4
53404,126807,5
53408,126815,4
53429,126841,5
53445,126870,5
53463,126899,5
53474,126921,5
53486,126927,4
53483,126932,5
53480,126928,5
53484,126931,5
53488,126931,5
53486,126926,4
53478,126924,5
53470,126901,5
53453,126881,5
53447,126840,5
53427,126834,4
53430,126829,5
53438,126841,5
53432,126837,5
53434,126841,4
53441,126849,4
53438,126849,5
53426,126833,5
53427,126822,5
53411,126805,4
53399,126771,5
53392,126747,5
53371,126722,5
53366,126702,5
53350,126683,4
53342,126651,5
53326,126632,5
53319,126620,5
53274,126625,5
53319,126628,4
53322,126618,5
53326,126627,5
53232,126653,5
53344,126658,5
53337,126646,4
53334,126641,5
53202,126631,5
53325,126635,5
53329,126643,5
53327,126634,4
53346,126642,5
53340,126655,5
53351,126664,5
53353,126689,4
53481,126717,4
53385,126753,5
53405,126784,5
53419,126791,5
53553,126809,4
53435,126801,5
53438,126832,5
53453,126854,5
53516,126882,5
53489,126906,4
53486,126934,5
53506,126943,5
53511,126920,5
53510,126959,5
53520,126980,4
53541,127009,6
53557,126933,4
53565,127033,5
53559,127037,5
53557,127048,6
53566,126914,3
53571,127046,5
53574,127058,5
53585,127070,5
53572,127049,4
53590,127083,5
53601,127100,5
53595,127092,5
53592,127186,4
53573,127062,4
53572,127059,5
53572,127057,5
53567,127176,5
53567,127055,4
53573,127062,5
53585,127063,5
53580,127141,5
53589,127086,5
53590,127078,4
53589,127079,5
53584,127107,10
53605,127107,5
53604,127110,4
53608,127118,7
53609,127115,3
53614,127120,5
53620,127130,5
53621,127130,4
53621,127121,5
53611,127126,5
53609,127117,5
53605,127120,4
53603,127109,4
53598,127106,5
53600,127106,5
53606,127111,5
53596,127102,4
53597,127100,5
53588,127074,5
53586,127068,5
53582,127059,5
53583,127060,4
53574,127065,5
53578,127072,5
53578,127067,6
53584,127079,4
53594,127092,4
53593,127084,5
53591,127101,5
53602,127094,5
53601,127096,5
53605,127106,4
53598,127102,5
53609,127098,5
53606,127097,5
53600,127117,5
53621,127132,4
53619,127131,5
53616,127143,5
53611,127124,5
53608,127121,4
53623,127122,4
53594,127105,5
53591,127078,5
53576,127066,5
53580,127061,5
53588,127084,4
53592,127089,5
53589,127071,5
53581,127061,6
53577,127037,3
53565,127029,5
53567,127043,5
53573,127057,5
53587,127058,5
53575,127061,4
53580,127064,5
53573,127057,5
53579,127058,5
53573,127064,5
53570,127069,4
53587,127077,5
53584,127074,5
53582,127064,5
53580,127063,5
53567,127054,4
53567,127053,5
53576,127056,5
53578,127051,5
53574,127040,4
53573,127029,5
53558,127015,4
53554,127012,5
53541,126997,5
53533,126983,6
53527,126983,8
53525,126979,5
53484,126951,9
53467,126843,10
53467,126843,5
53430,126794,5
53412,126759,10
53265,126712,5
53352,126672,5
53309,126604,10
53288,126540,5
53231,126270,4
53231,126270,2
53231,126270,1
53120,126265,5
53111,126252,4
53111,126233,6
53240,126241,4
53104,126239,5
53111,126253,4
53115,126265,4
