RED,IR,EKG,TIME
56940,135087,9
56937,135107,5
56978,135212,7
57114,135427,8
57302,135706,9
57203,135432,5
56682,134679,8
56682,134679,7
56816,134925,5
56995,135277,8
57104,135365,7
57027,135210,7
57031,135218,10
57031,135218,5
56921,135079,5
56819,134869,8
56712,134612,7
56607,134501,10
57305,135821,9
57305,135821,11
57439,135948,7
57338,135734,5
57305,135724,8
57305,135724,7
57224,135561,5
57055,135203,8
56855,134959,7
56853,135004,9
57309,135714,10
57309,135714,5
57212,135558,5
57224,135672,10
57367,135907,5
57485,136056,5
57289,135710,10
57289,135710,5
57275,135714,5
57178,135743,10
57266,135668,5
57225,135623,7
57190,135496,8
56907,135315,5
56971,135180,7
57259,135689,8
57259,135689,5
57274,135675,7
57388,135717,8
57243,135641,5
57230,135665,7
57253,135716,8
57527,135869,5
57446,136073,7
57446,136073,8
57655,136521,5
58096,137322,7
58501,137859,8
58496,137796,5
57450,135961,7
57880,136844,8
57880,136844,7
58008,136949,8
58182,137343,5
58245,137394,7
57190,135496,8
58116,137027,5
58184,137269,7
58184,137269,8
58140,137131,5
58029,137012,2
57946,137077,1
57987,137003,5
58158,137354,4
58355,137675,5
58442,137923,4
58494,137846,6
58358,137534,4
58134,137150,5
57990,137022,5
58056,137142,4
58302,137635,5
58591,138084,5
58744,138324,5
58808,138344,4
58667,138093,5
58558,137964,5
58573,138070,5
58687,138254,5
58821,138475,4
58912,138620,5
58974,138676,5
58897,138509,5
58769,138280,5
58611,138045,4
58572,138027,5
58604,138092,5
58666,138204,5
58709,138282,4
58803,138435,4
58835,138495,5
58880,138593,5
59033,138917,5
59176,139087,5
59107,138897,4
58923,138586,5
58841,138473,5
58786,138307,5
58612,138048,4
58481,137856,5
58467,137866,5
58538,138013,5
58678,138269,5
58865,138613,4
59096,138964,5
59199,139131,5
59256,139218,5
59338,139419,5
59473,139601,5
59458,139553,4
59386,139403,5
59191,139025,5
58919,138535,6
58637,138086,3
58512,137954,5
58603,138176,5
58885,138734,5
59243,139282,5
59383,139438,4
59351,139358,5
59263,139174,5
59090,138890,5
58949,138680,4
58907,138658,4
58940,138722,5
58999,138788,5
58942,138660,5
58824,138445,4
58699,138225,5
58564,138000,5
58453,137845,5
58449,137865,5
58541,138056,4
58707,138290,6
58727,138338,4
58787,138450,5
58877,138613,5
58907,138641,6
58879,138611,3
58917,138684,5
58971,138755,5
58935,138685,5
58840,138505,4
58736,138330,5
58684,138258,5
58639,138194,5
58646,138191,4
58634,138194,4
58661,138211,5
58631,138116,5
58436,137919,5
58445,137843,4
58456,137865,5
58439,137828,5
58293,137861,5
58530,138003,5
58504,137933,4
58427,137787,5
58184,137647,6
58267,137535,4
58248,137489,5
58207,137465,4
58276,137520,5
58317,137660,5
58372,137739,5
58345,137635,5
58374,137405,4
58120,137270,5
58102,137244,5
58097,137280,5
58319,137396,4
58245,137525,4
58314,137631,5
58348,137679,5
58401,137669,5
58345,137692,4
58453,137908,5
58550,138038,5
58578,138016,5
58515,137953,5
58448,137823,4
58386,137750,5
58331,137518,5
58280,137564,6
58266,137547,4
58242,137540,4
58273,137426,5
58346,137715,5
58389,137755,5
58387,137751,5
58327,137610,4
58253,137518,5
58219,137470,5
58168,137386,5
58146,137489,5
58153,137380,4
58156,137378,5
58173,137385,5
58158,137581,5
58185,137436,4
58247,137536,5
58296,137636,5
58325,137772,5
58354,137722,5
58335,137667,5
58283,137573,4
58214,137452,5
58136,137315,5
58121,137308,6
58089,137243,3
58052,137194,5
58046,137184,5
58025,137157,5
58010,137111,5
57959,137037,4
57915,136959,5
57915,136964,5
57908,136972,5
57942,137026,5
57988,137089,4
57966,137051,5
57943,137011,5
57918,136957,5
57897,136904,4
57885,136922,4
57885,136897,5
57874,136875,5
57864,136881,5
57894,136900,4
57877,136871,6
57851,136849,4
57854,136842,5
57853,136843,5
57840,136832,4
57849,136859,5
57874,136895,5
57881,136896,5
57861,136853,5
57836,136813,4
57803,136760,5
57786,136752,5
57801,136757,5
57779,136736,5
57797,136755,4
57804,136757,5
57795,136744,5
57775,136737,5
57768,136699,4
57744,136660,4
57730,136634,5
57731,136639,5
57736,136669,5
57768,136701,4
57738,136648,5
57701,136581,6
57679,136530,4
57630,136468,5
57643,136466,4
57628,136475,5
57634,136472,5
57631,136433,5
57566,136346,5
57548,136295,4
57485,136193,5
57405,136060,5
57385,136020,5
57340,135958,5
57337,135974,4
57366,136002,5
57376,136015,8
57346,135940,2
57262,135816,5
57227,135749,4
57225,135743,5
57200,135701,5
57197,135713,5
57219,135743,4
57207,135714,5
57202,135703,5
57177,135663,6
57168,135642,4
57170,135654,4
57159,135661,5
57173,135695,5
57192,135709,5
57182,135668,5
57179,135664,4
57050,135626,5
57121,135576,5
57116,135543,5
57077,135476,5
56894,135435,4
57040,135405,5
56988,135304,5
56911,135166,5
56745,134999,5
56736,134863,4
56707,134831,5
56667,134761,5
56760,134755,5
56666,134782,5
56658,134737,4
56627,134706,5
56799,134695,5
56617,134672,5
56625,134682,4
56619,134679,5
56729,134732,5
56656,134747,5
56623,134695,5
56602,134648,4
56606,134609,5
56535,134527,5
56529,134524,5
56512,134493,5
56502,134389,4
56487,134437,5
56411,134278,5
56296,134079,5
56168,133697,5
56074,133697,4
56048,133631,5
55977,133534,5
55950,133363,5
55951,133500,4
55915,133412,5
55867,133354,4
55841,133375,5
55805,133231,5
55793,133225,4
55789,133235,5
55826,133478,5
55886,133383,5
55866,133370,5
55871,133369,4
55861,133493,5
55854,133330,5
55843,133310,5
55840,133316,5
55852,133396,4
55859,133333,5
55873,133384,5
55899,133415,5
55877,133375,5
55876,133374,4
55851,133332,5
55793,133215,5
55706,133065,5
55623,132924,4
55559,132843,4
55551,132829,7
55569,132864,3
55606,132909,5
55603,132916,4
55593,132905,5
55607,132893,5
55610,132923,5
55650,132993,5
55668,133015,4
55671,133038,5
55670,133023,5
55642,132956,5
55581,132837,5
55535,132786,4
55544,132799,5
55566,132853,5
55587,132881,5
55583,132899,5
55575,132874,4
55555,132809,5
55503,132744,5
55528,132801,5
55588,132902,5
55633,132973,4
55655,132996,5
55655,132994,5
55603,132876,8
55505,132702,5
55434,132652,5
55449,132690,7
55521,132775,8
55578,132857,5
55602,132895,7
55595,132804,8
55519,132775,9
55519,132775,8
55533,132771,5
55548,132814,7
55538,132727,8
55428,132582,5
55383,132544,7
55686,133028,8
55686,133028,5
55628,132910,7
55519,132718,8
55462,132682,5
55520,132788,7
55564,132859,8
55576,132870,5
55657,133040,7
55657,133040,8
55782,133286,7
55887,133420,5
55940,133503,8
55987,133534,7
55979,133572,10
55979,133572,9
56053,133679,9
55985,133845,10
55985,133845,5
56284,134137,8
56415,134302,7
56392,134269,5
56195,134184,8
56273,134133,7
56273,134133,5
56438,134425,8
56607,134695,7
56903,134947,5
56821,135008,8
56809,134973,7
56821,135016,5
57199,135591,8
57199,135591,7
57095,135454,5
56977,135266,8
55848,133310,7
57096,135491,5
57206,135675,8
57245,135763,7
57180,135654,7
57180,135654,10
57252,135649,5
57310,135858,5
57326,135915,10
57335,135907,5
57302,135771,5
57463,136123,10
57463,136123,5
57479,136158,5
57501,136193,10
57511,136385,5
57465,136117,5
57941,137010,10
57941,137010,5
57999,137086,5
57988,137088,10
58009,137124,5
58121,137346,5
58240,137616,10
58342,137702,5
58373,137699,5
58073,137224,10
58073,137224,5
58145,137311,7
58155,137329,8
58154,137310,5
58126,137288,7
58100,137214,8
58223,137472,5
58223,137472,7
58267,137549,8
58284,137563,5
58281,137520,7
58259,137496,3
58319,137645,1
58461,137893,4
58533,138006,5
58588,138092,5
58698,138271,5
58742,138329,4
58734,138308,5
58717,138287,5
58766,138421,5
58894,138608,5
58945,138653,4
58890,138550,6
58822,138417,4
58713,138248,5
58627,138081,5
58582,138079,6
58679,138292,3
58822,138501,5
58879,138557,5
58877,138552,5
58862,138503,4
58778,138360,5
58700,138251,5
58704,138301,5
58834,138502,4
58947,138702,4
59003,138765,5
59081,138938,5
59190,139102,5
59228,139131,4
59169,139061,5
59192,139118,5
59334,139391,5
59495,139653,5
59590,139800,4
59661,139919,5
59702,139968,6
59688,139915,4
59602,139778,5
59573,139732,4
59595,139776,5
59616,139814,5
59617,139796,5
59607,139794,5
59599,139789,4
59596,139779,5
59591,139791,5
59656,139914,5
59807,140163,5
59892,140295,4
59928,140316,5
59902,140278,5
59879,140252,5
59872,140246,4
59843,140174,5
59849,140201,5
59785,140313,5
59934,140349,5
59929,140321,4
59888,140256,5
59698,140219,5
59852,140193,6
59820,140135,4
59819,140148,4
59767,140231,5
59908,140290,5
59897,140261,5
59850,140187,5
59926,140129,4
59797,140101,5
59766,140035,5
59756,140065,5
59988,140141,5
59860,140241,4
59884,140258,5
59882,140251,5
60030,140321,5
59963,140418,4
60000,140464,4
60023,140507,5
60114,140620,5
60172,140769,5
60199,140783,5
60175,140733,4
60160,140625,5
60128,140669,5
60094,140607,6
60062,140568,3
60082,140437,5
60126,140662,5
60160,140705,5
60157,140717,5
60195,140635,4
60230,140857,5
60254,140899,5
60304,140986,5
60354,141126,5
60380,141106,4
60388,141101,5
60366,141089,5
60380,141331,5
60405,141152,4
60404,141125,4
60392,141121,5
60397,141299,5
60391,141103,5
60339,141007,4
60295,140949,6
60274,140996,4
60272,140928,5
60276,140931,5
60289,140950,4
60291,140943,5
60274,140910,5
60233,140834,5
60153,140689,5
60100,140640,4
60091,140578,5
60049,140504,5
59994,140452,5
60007,140461,5
59978,140397,4
59871,140172,5
59714,139899,5
59639,139848,5
59650,139854,5
59641,139856,4
59654,139894,5
59693,139928,5
59697,139934,5
59689,139936,4
59679,139911,5
59693,139933,6
59688,139918,4
59699,139943,5
59729,139991,4
59733,139976,5
59716,139956,5
59681,139879,5
59623,139792,5
59608,139787,4
59586,139729,5
59523,139617,5
59420,139422,5
59194,139015,5
58968,138630,4
58769,138286,5
58638,138093,5
58600,138033,5
58500,137823,5
58326,137538,4
58196,137307,5
58016,136993,5
57869,136738,5
57705,136432,4
57546,136181,5
57460,136039,5
57367,135876,6
57299,135775,4
57208,135619,4
57107,135443,5
56953,135118,5
56731,134733,5
56522,134423,5
56367,134167,4
56269,134030,5
56258,134021,5
56234,133962,5
56181,133902,5
56188,133915,4
56189,133916,5
56168,133869,5
56107,133763,5
56071,133705,5
56006,133564,4
55923,133419,5
55838,133264,5
55740,133060,5
55630,132905,5
55596,132852,4
55534,132746,5
55496,132720,5
55578,132901,5
55736,133178,4
55870,133400,5
55933,133498,6
56000,133641,4
56102,133799,5
56175,133950,4
56270,134236,5
56456,134385,5
56457,134385,5
56430,134335,5
56233,134240,4
56375,134255,5
56332,134166,5
56298,134121,5
56137,134123,5
56275,134033,4
56194,133927,6
56127,133785,4
56072,133652,5
56019,133635,4
55991,133610,5
56024,133655,4
56181,133664,5
56018,133645,5
55986,133582,4
55903,133412,5
55963,133276,5
55751,133136,5
55670,133036,5
55703,133094,4
55724,133015,5
55586,132878,5
55506,132737,5
55434,132650,5
55473,132662,4
55459,132681,5
55439,132683,5
55483,132747,5
55494,132630,5
55481,132719,4
55441,132647,5
55412,132631,5
55435,132474,5
55399,132613,5
55428,132647,5
55431,132640,5
55413,132587,4
55379,132532,5
55287,132370,4
55226,132300,5
55159,132284,5
55097,132095,5
55109,132091,5
55058,131970,4
54952,131963,5
54812,131524,5
54660,131293,5
54580,131127,5
54371,130830,4
54192,130468,5
54101,130288,5
53926,129961,5
53768,129721,5
53659,129525,4
53585,129397,5
53516,129261,5
53471,129224,5
53492,129249,5
53463,129186,4
53440,129145,5
53432,129127,5
53370,128999,5
53265,128831,4
53127,128530,4
52967,128307,5
52928,128253,5
52872,128128,5
52786,127974,4
52661,127734,5
52544,127562,5
52457,127398,5
52331,127202,5
52309,127147,4
52267,127054,5
52191,126914,5
52127,126813,5
52034,126636,5
51988,126600,4
51976,126559,4
51978,126587,5
52030,126693,5
52055,126699,5
52032,126673,3
52004,126613,5
51976,126578,5
51968,126558,5
51929,126500,4
51951,126540,4
51960,126545,5
51904,126441,5
51867,126368,5
51812,126265,4
51751,126173,5
51699,126077,5
51640,125983,5
51637,125980,5
51589,125845,4
51444,125608,5
51293,125312,5
51107,125022,5
51032,124892,5
50950,124748,4
50871,124623,6
50860,124610,4
50833,124564,5
50805,124523,5
50778,124488,6
50769,124445,3
50757,124436,5
50744,124448,5
50791,124523,5
50795,124503,4
50755,124428,5
50695,124355,5
50650,124266,5
50611,124218,4
50577,124150,5
50530,124106,5
50533,124108,5
50483,123998,5
50410,123886,4
50367,123819,5
50327,123750,5
50314,123708,5
50264,123634,5
50243,123597,4
50204,123507,5
50164,123428,6
50149,123419,4
50131,123381,5
50123,123355,4
50096,123301,5
50098,123325,5
50024,123327,5
50075,123248,5
50018,123167,4
50008,123145,5
49875,123162,5
50013,123174,5
49968,123109,4
49959,123077,4
49849,122964,5
49828,122842,5
49826,122849,5
49815,122804,4
49875,122785,5
49773,122737,5
49722,122653,5
49697,122600,5
49744,122423,4
49480,122186,5
49347,121957,5
49245,121823,6
49291,121756,4
49172,121681,4
49137,121618,5
49870,121480,5
49792,121303,5
49685,121156,5
49619,121063,4
49620,121093,5
49669,121115,5
49687,121193,5
49700,121219,4
49666,121134,4
49607,120907,5
49545,120900,5
49476,120776,5
49419,120671,4
49359,120446,5
49222,120284,5
49030,119879,5
48788,119464,5
48612,119211,5
48568,119064,4
48575,119064,5
48544,118970,5
48440,118832,6
48274,118412,3
48161,118227,5
48080,118072,5
48008,118058,5
47978,117924,5
47975,117897,4
47912,117747,5
47819,117594,5
47718,117386,5
47591,117145,4
47511,117029,4
47463,116960,5
47477,116963,5
47465,116929,5
47406,116775,4
47309,116606,5
47239,116510,5
47242,116508,5
47265,116538,5
47284,116577,4
47288,116570,6
47259,116482,4
47195,116360,5
47145,116291,5
47123,116267,4
47121,116263,5
47130,116273,5
47179,116358,5
47202,116359,5
47130,116226,4
47091,116174,5
47089,116149,5
47083,116167,5
47110,116223,5
47155,116302,4
47184,116327,5
47159,116246,5
47082,116141,5
47051,116100,4
47080,116163,5
47103,116196,5
47134,116265,5
47172,116303,5
47140,116211,4
47024,116027,5
46983,115940,6
46962,115946,4
46986,115983,5
47021,116049,4
47096,116179,5
47127,116236,5
47112,116176,5
47098,116190,5
47159,116308,4
47238,116461,5
47305,116578,5
47396,116733,5
47421,116755,5
47390,116694,4
47346,116621,5
47353,116635,5
47386,116727,5
47415,116762,4
47431,116788,4
47448,116792,5
47416,116719,5
47344,116620,5
47343,116650,4
47403,116753,5
47453,116838,5
47498,116937,6
47587,117078,4
47590,117065,4
47563,117036,5
47549,116998,5
47543,117015,5
47560,117047,5
47572,117056,4
47579,117072,5
47603,117131,5
47615,117151,5
47606,117126,5
47628,117194,4
47666,117258,5
47691,117282,5
47707,117330,5
47764,117454,4
47911,117661,4
47807,117605,5
47857,117582,5
47865,117625,5
47925,117751,5
47902,117867,4
48039,117952,5
48083,118024,5
48127,118121,6
48062,118192,3
48238,118347,5
48328,118548,5
48460,118765,5
48589,118916,5
48602,119022,4
48640,119069,5
48639,119073,5
48790,119224,5
48858,119562,5
49067,119964,4
49298,120390,5
49656,120915,5
49873,121466,5
50091,121821,4
50192,122029,4
50338,122250,5
50513,122736,5
50884,123387,5
51163,123857,4
51330,124063,6
51360,124148,4
51280,123984,5
51227,123980,5
51377,124191,4
51563,124606,5
51660,124744,5
51680,124770,5
51676,124659,5
51630,124672,4
51504,124463,5
51405,124316,5
51354,124261,5
51334,124244,5
51321,124223,4
51323,124205,5
51235,124140,5
51074,123714,5
50859,123379,5
50728,123132,4
50676,123234,5
50682,123096,5
50662,123059,5
50622,122968,4
50535,122850,4
50361,122473,6
50184,122189,4
50120,122090,5
50097,122069,4
50073,122032,5
50086,122031,5
50053,121974,5
49979,121806,5
49887,121678,4
49878,121680,5
49934,121819,5
50012,121932,5
50043,121992,5
50058,122029,4
50042,121957,5
49975,121850,5
49958,121838,5
49974,121903,5
50015,121981,4
50053,122011,5
50033,121957,5
49981,121898,5
49943,121794,4
49872,121680,4
49825,121596,5
49814,121599,7
49788,121528,3
49748,121453,4
49729,121426,5
49682,121346,5
49652,121279,5
49599,121192,5
49556,121146,4
49582,121193,5
49660,121326,5
49702,121388,5
49712,121398,5
49681,121340,4
49668,121328,5
49650,121281,5
49636,121280,5
49647,121277,5
49621,121218,4
49587,121158,5
49563,121141,5
49438,120839,5
49328,120664,5
49228,120456,4
49152,120325,5
49087,120211,5
49027,120093,5
48984,120012,4
48928,119875,5
48771,119578,5
48660,119356,5
48583,119234,5
48555,119166,4
48512,119068,5
48424,118909,5
48348,118782,5
48290,118664,5
48218,118543,4
48158,118401,5
48053,118182,5
47925,117942,5
47777,117645,5
47613,117359,4
47535,117208,5
47454,117022,5
47344,116821,5
47276,116706,5
47206,116589,5
47137,116410,4
47056,116266,5
46977,116120,5
46929,116023,4
46850,115871,4
46752,115692,5
46707,115596,5
46633,115439,5
46519,115295,4
46503,115206,5
46484,115205,5
46522,115249,5
46419,115212,5
46484,115184,4
46453,115117,5
46393,115010,5
46280,114996,5
46363,114957,5
46366,114946,8
46325,114857,1
46238,114729,5
46222,114702,5
46194,114635,5
46163,115287,4
46180,115152,6
46042,115060,4
46058,115090,5
46061,115056,4
46166,115063,4
46065,115059,5
46034,114999,5
46003,114939,5
46019,114849,4
45916,114768,5
45898,114699,5
45839,114551,5
45771,114417,5
45697,114279,4
45633,114172,5
45617,114150,5
45620,114071,5
45612,114135,5
45616,114120,4
45572,113992,5
45494,113740,5
45392,113615,6
45284,113430,4
45201,113253,4
45130,113057,5
45111,113082,5
45095,113024,5
45038,112928,4
45016,112956,4
45021,112872,5
45025,112902,5
45052,112945,5
45068,113089,4
45102,113045,5
45121,113063,5
45107,113050,5
45097,113081,5
45060,112919,4
45011,112827,5
44947,112702,5
44876,112583,5
44833,112486,5
44805,112418,5
44775,112366,4
44783,112367,5
44764,112329,5
44766,112311,6
44752,112289,3
44725,112233,5
44714,112188,5
44673,112110,5
44652,112075,5
44638,112042,4
44605,111966,5
44583,111940,5
44583,111929,5
44580,111925,4
44570,111894,4
44526,111799,5
44497,111751,5
44452,111633,5
44388,111490,4
44341,111424,5
44315,111359,5
44306,111353,5
44325,111356,5
44294,111318,4
44305,111323,6
44268,111233,4
44209,111107,5
44151,111023,5
44113,110929,6
44097,110934,3
44112,110912,5
44101,110904,5
44095,110876,5
44032,110708,4
43925,110520,5
43859,110358,5
43774,110188,5
43722,110095,5
43694,110011,4
43682,109990,5
43683,109986,5
43661,109929,5
43628,109878,4
43619,109835,5
43594,109794,5
43594,109791,5
43563,109711,5
43535,109687,4
43536,109658,5
43474,109544,6
43428,109449,4
43368,109318,5
43310,109211,4
43290,109194,5
43267,109142,5
43289,109163,5
43279,109126,5
43211,109009,4
43163,108908,5
43113,108809,5
43071,108720,5
43051,108684,5
43021,108622,4
43009,108598,5
42971,108480,5
42880,108298,5
42817,108169,4
42755,108051,4
42739,108032,5
42712,107965,5
42673,107864,5
42634,107759,4
42594,107675,5
42543,107571,5
42528,107525,6
42507,107476,4
42493,107432,4
42468,107377,5
42423,107370,5
42457,107334,5
42391,107205,5
42322,107081,4
42211,106984,5
42232,106885,5
42192,106772,5
42118,106648,5
42013,106606,4
42082,106582,5
42051,106504,5
42045,106476,5
42052,106475,5
42026,106463,4
42027,106428,5
42018,106413,5
42115,106463,5
42052,106479,5
42052,106492,4
42094,106563,5
42215,106629,5
42160,106669,6
42146,106632,3
42140,106626,5
42164,106612,5
42126,106615,5
42153,106686,5
42208,106757,4
42222,106762,5
42222,106777,5
42212,106763,5
42223,106795,5
42217,106709,4
42192,106722,5
42165,106665,5
42140,106623,5
42126,106532,5
42150,106634,4
42144,106645,5
42148,106658,5
42152,106623,5
42140,106628,4
42125,106593,5
42100,106556,4
42097,106586,5
42057,106457,5
42029,106389,4
41991,106324,5
41959,106369,5
41963,106289,5
41959,106283,5
41966,106271,4
41959,106309,5
41941,106200,5
41890,106112,5
41851,106038,5
41842,106029,4
41836,106004,5
41826,105997,5
41842,105994,5
41835,105973,5
41812,105924,4
41793,105882,5
41802,105920,5
41833,105978,5
41865,106018,5
41876,106054,4
41902,106091,6
41888,106053,4
41835,105947,5
41797,105861,4
41762,105792,4
41721,105709,5
41693,105648,5
41656,105565,5
41632,105511,4
41585,105408,5
41515,105245,5
41468,105172,5
41475,105176,5
41478,105165,4
41458,105130,5
41450,105125,5
41435,105087,5
41391,104995,5
41340,104920,4
41310,104870,5
41297,104842,5
41271,104772,5
41256,104751,5
41254,104735,4
41217,104652,5
41148,104507,6
41105,104422,4
41083,104381,5
41056,104285,4
41009,104173,5
40963,104079,5
40935,104007,5
40887,103881,4
40791,103680,5
40715,103513,5
40673,103432,5
40638,103343,5
40591,103234,4
40555,103147,5
40496,103024,5
40417,102852,5
40338,102681,5
40299,102625,4
40279,102557,5
40235,102483,5
40217,102430,5
40234,102427,5
40201,102350,4
40154,102244,5
40132,102224,5
40156,102262,6
40159,102246,4
40139,102203,4
40123,102158,5
40103,102108,5
40055,102021,5
40035,101970,4
40020,101951,4
40016,101945,5
40027,101934,5
40041,101963,5
40045,101975,4
40039,101954,5
40005,101892,5
40001,101889,5
40028,101940,5
40030,101936,4
40021,101904,5
39993,101856,5
39976,101771,5
39857,101604,5
39834,101477,5
39810,101438,4
39802,101395,5
39694,101298,5
39715,101197,5
39666,101095,4
39595,100968,5
39451,100754,5
39436,100626,5
39404,100528,5
39337,100378,4
39297,100211,5
39189,100018,5
39115,99859,5
39058,99718,4
39048,99565,4
38927,99419,5
38883,99271,5
38812,99106,5
38793,98903,4
38649,98703,5
38565,98497,6
38450,98212,4
38358,98501,5
38261,98292,4
38174,98037,6
38060,97748,4
37983,97519,5
37916,97362,5
37866,97221,4
37806,96979,5
37701,96698,5
37621,96526,5
37575,96352,5
37506,96187,4
37445,95967,5
37412,95867,5
37358,95665,5
37257,95467,5
37232,95344,4
37231,95297,5
37211,95252,5
37203,95224,5
37200,95227,4
37183,95158,5
37175,95116,5
37182,95115,5
37191,95187,5
37188,95141,4
37179,95123,5
37184,95134,6
37194,95182,4
37208,95160,5
37202,95164,4
37224,95201,5
37266,95286,5
37291,95355,5
37322,95412,5
37363,95491,4
37387,95557,5
37388,95558,5
37395,95587,5
37444,95686,5
37495,95800,4
37521,95852,5
37551,95922,5
37596,96022,5
37659,96148,4
37698,96237,4
37741,96350,5
37824,96479,5
37884,96617,5
37914,96668,4
37931,96734,5
37980,96806,5
37993,96827,5
38001,96858,5
38048,96984,4
38123,97132,5
38190,97253,5
38237,97385,5
38304,97515,5
38354,97620,4
38370,97652,5
38377,97674,5
38401,97740,5
38439,97787,5
38450,97827,4
38489,97899,5
38527,97993,5
38567,98072,5
38576,98073,5
38586,98129,4
38634,98240,4
38701,98386,5
38767,98502,5
38831,98651,6
38898,98785,3
38936,98864,5
38938,98873,5
38947,98904,5
38990,98969,4
39009,99005,5
39020,99033,5
39045,99095,5
39059,99117,5
39061,99112,4
39062,99135,5
39102,99222,5
39153,99333,5
39182,99368,5
39179,99376,4
39180,99369,5
39167,99355,5
39171,99350,5
39169,99360,5
39182,99394,4
39199,99411,6
39194,99403,4
39184,99387,5
39187,99391,4
39179,99371,6
39160,99333,3
39148,99330,5
39163,99384,5
39204,99450,4
39228,99498,5
39249,99531,5
39265,99581,5
39268,99575,5
39253,99543,4
39244,99543,5
39257,99571,5
39277,99586,5
39278,99617,5
39310,99687,4
39316,99779,5
39387,99846,5
39404,99879,5
39422,99906,5
39385,99944,4
39448,99952,5
39432,99927,6
39423,99907,4
39411,99938,5
39440,99947,4
39421,99938,5
39443,99956,5
39499,100003,5
39473,100037,4
39486,100060,4
39501,100101,5
39602,100187,5
39567,100228,6
39583,100262,3
39582,100272,5
39615,100263,5
39579,100244,5
39568,100218,5
39541,100190,4
39556,100207,5
39546,100195,5
39554,100204,5
39564,100218,5
39552,100178,4
39549,100210,5
39545,100208,5
39552,100250,6
39593,100261,4
39612,100338,4
39608,100363,5
39631,100396,5
39642,100360,5
39647,100440,5
39652,100442,5
39660,100476,4
39689,100532,5
39699,100526,5
39697,100519,4
39696,100521,5
39704,100591,5
39711,100556,5
39723,100584,5
39763,100662,4
39822,100853,5
39873,100922,5
39919,100995,5
39944,101050,5
39948,101070,5
39954,101066,4
39952,101073,5
39957,101068,5
39969,101073,6
39961,101078,3
39964,101085,5
39952,101057,5
39931,101032,5
39924,100994,5
39921,100995,4
39912,100977,5
39905,100967,5
39898,100955,5
39904,100958,4
39883,100941,4
39878,100900,5
39854,100889,5
39863,100855,5
39823,100824,4
39827,100811,5
39811,100791,5
39816,100789,5
39805,100766,5
39775,100689,4
39751,100655,6
39732,100607,4
39704,100567,5
39687,100525,5
39671,100495,4
39671,100506,5
39661,100493,5
39655,100474,5
39664,100472,5
39658,100464,4
39645,100461,5
39651,100444,5
39639,100430,5
39647,100444,4
39639,100422,4
39612,100377,5
39594,100345,5
39576,100303,5
39559,100273,4
39550,100244,5
39529,100218,5
39519,100213,5
39518,100196,5
39508,100158,4
39514,100183,5
39518,100182,6
39514,100198,4
39521,100198,5
39530,100219,4
39546,100245,5
39553,100232,5
39546,100227,5
39547,100239,5
39571,100268,4
39575,100307,5
39585,100318,5
39596,100353,5
39614,100371,5
39607,100359,4
39620,100381,5
39620,100389,5
39618,100363,5
39599,100359,4
39599,100353,5
39590,100329,5
39587,100319,5
39589,100317,5
39591,100316,4
39582,100305,5
39575,100307,5
39593,100330,6
39601,100338,4
39597,100330,4
39589,100349,5
39602,100340,5
39598,100336,5
39552,100319,5
39591,100307,4
39579,100306,5
39584,100300,5
39513,100268,5
39558,100267,5
39566,100266,4
39560,100257,5
39513,100256,5
39550,100246,5
39549,100226,4
39543,100213,4
39543,100188,5
39512,100193,5
39519,100177,5
39505,100142,5
39561,100132,4
39491,100130,5
39476,100108,5
39481,100101,5
39502,100063,4
39450,100054,5
39443,100030,5
39426,99990,5
39423,99957,5
39395,99931,4
39393,99916,5
39396,99910,5
39379,99866,5
39372,99892,5
39357,99872,4
39349,99811,5
39320,99725,5
39304,99737,5
39284,99720,5
39285,99676,4
39247,99562,5
39235,99613,5
39230,99572,5
39211,99529,4
39201,99545,6
39195,99529,4
39188,99525,5
39184,99517,5
39186,99568,4
39201,99528,5
39185,99499,5
39160,99442,5
39140,99461,5
39128,99386,4
39137,99392,5
39132,99378,5
39122,99389,5
39111,99357,5
39089,99292,4
39065,99242,5
39043,99209,5
39012,99149,5
39011,99123,4
38983,99066,4
38951,99031,5
38938,98975,5
38905,98913,5
38886,98880,4
38874,98863,5
38878,98854,6
38870,98848,4
38869,98843,5
38875,98856,4
38872,98825,5
38860,98812,5
38853,98819,5
38860,98820,5
38862,98819,4
38847,98801,5
38856,98815,5
38855,98814,5
38861,98805,5
38861,98826,4
38875,98846,5
38884,98879,5
38899,98902,5
38904,98904,5
38907,98905,4
38908,98903,5
38886,98872,5
38889,98867,5
38884,98871,4
38896,98892,5
38902,98901,5
38901,98880,6
38887,98870,4
38880,98848,4
38870,98835,5
38876,98840,5
38886,98864,5
38913,98902,5
38913,98915,4
38889,98880,5
38880,98863,5
38876,98849,5
38887,98853,5
38889,98876,4
38918,98918,5
38923,98926,5
38926,98897,5
38892,98866,5
38890,98868,4
38900,98892,5
38916,98919,5
38922,98957,5
38939,98974,5
38934,98941,4
38904,98879,5
38901,98883,5
38905,98908,5
38916,98922,4
38916,98924,5
38921,98924,5
38923,98922,5
38904,98885,5
38862,98803,4
38848,98815,5
38883,98863,5
38892,98892,5
38922,98938,5
38926,98948,4
38923,98944,5
38892,98867,5
38877,98853,5
38888,98880,5
38908,98897,4
38914,98913,5
38905,98948,5
38932,98949,5
38926,98897,4
38888,98854,5
38841,98891,4
38931,98986,5
38979,99067,5
39034,99163,4
39005,99199,5
39055,99184,5
39009,99106,5
38990,99081,5
39024,99121,4
39039,99173,5
39053,99212,5
39073,99246,5
39127,99246,5
39055,99185,4
39007,99105,5
38997,99114,5
39072,99129,5
39010,99126,5
39024,99174,4
39070,99248,5
39108,99265,5
39091,99274,5
39113,99372,5
39204,99519,4
39240,99579,6
39265,99632,4
39286,99672,5
39282,99671,4
39258,99573,5
39228,99547,5
39228,99584,5
39265,99644,5
39291,99617,4
39286,99693,5
39300,99715,5
39301,99708,5
39281,99645,5
39263,99664,4
39291,99714,5
39317,99739,5
39319,99773,5
39314,99746,5
39347,99817,4
39391,99907,5
39423,100068,5
39496,100176,6
39586,100343,4
39637,100437,4
39684,100535,5
39728,100583,5
39722,100578,5
39711,100535,4
39672,100467,4
39671,100475,5
39688,100518,5
39698,100519,5
39680,100501,4
39692,100496,5
39692,100494,5
39660,100454,5
39661,100468,5
39682,100508,4
39702,100530,5
39691,100505,5
39696,100506,5
39672,100467,5
39636,100391,5
39616,100389,4
39664,100492,5
39740,100655,5
39799,100754,6
39834,100843,3
39887,100906,5
39927,100986,5
39931,100998,5
39942,101045,4
39994,101156,4
40041,101216,5
39993,101114,5
39949,101044,5
39910,100943,4
39853,100837,5
39811,100781,5
39849,100866,5
39926,101051,5
40042,101268,4
40151,101503,5
40233,101644,5
40258,101667,5
40244,101655,5
40255,101682,4
40322,101837,6
40395,101995,4
40438,102053,5
40448,102086,5
40471,102129,6
40479,102124,3
40456,102087,5
40467,102123,5
40506,102207,4
40502,102179,4
40469,102132,5
40492,102172,5
40498,102174,5
40486,102130,4
40476,102152,5
40517,102257,5
40603,102423,5
40690,102613,5
40765,102761,4
40799,102803,5
40764,102703,5
40694,102582,5
40675,102573,5
40706,102637,4
40756,102735,5
40757,102714,6
40725,102653,4
40712,102608,5
40701,102590,4
40701,102614,5
40735,102696,5
40813,102857,5
40901,103046,5
40968,103147,4
40995,103236,5
41038,103309,5
41068,103357,5
41065,103376,4
41066,103429,5
41124,103528,5
41144,103524,5
41116,103480,5
41092,103555,4
41182,103651,5
41237,103767,5
41303,103924,5
41336,104115,5
41443,104188,4
41411,104118,5
41367,104018,5
41343,104012,6
41373,104070,4
41423,104178,4
41486,104326,5
41632,104576,5
41707,104819,5
41754,104896,5
41742,104837,4
41788,104803,5
41689,104773,5
41668,104715,5
41639,104682,4
41690,104767,4
41760,104971,5
41836,105126,5
41883,105221,5
41924,105302,4
41922,105311,5
41893,105251,5
41881,105241,5
41909,105259,5
41961,105419,5
42010,105508,4
42018,105527,9
42026,105468,1
42015,105526,6
42007,105520,4
42042,105612,4
42104,105740,5
42222,105983,5
42310,106157,5
42380,106293,4
42423,106415,5
42416,106337,5
42367,106249,5
42338,106216,4
42332,106282,4
42334,106209,5
42335,106181,5
42305,106167,5
42305,106176,4
42260,106063,5
42209,105977,5
42182,105926,5
42172,105912,5
42147,105830,4
42073,105684,6
42004,105571,4
41982,105530,5
41944,105434,5
41891,105363,4
41878,105318,5
41859,105275,5
41819,105213,5
41786,105139,5
41751,105080,4
41752,105086,5
41751,105077,5
41749,105091,5
41739,105048,4
41703,104992,4
41670,104923,5
41651,104861,5
41625,104848,5
41627,104845,4
41621,104830,5
41607,104814,5
41609,104818,5
41592,104772,5
41565,104714,4
41531,104639,5
41498,104569,6
41488,104547,4
41469,104521,5
41447,104471,4
41430,104437,5
41413,104406,5
41401,104364,5
41373,104329,5
41368,104313,4
41356,104279,5
41320,104191,5
41260,104090,5
41247,104076,5
41238,104050,4
41225,104023,5
41199,103964,5
41169,103928,5
41165,103919,4
41164,103912,5
41151,103923,5
41165,103924,5
41147,103868,5
41116,103809,4
41080,103725,5
41050,103702,5
41056,103692,6
41027,103622,4
41014,103614,4
41007,103616,5
40996,103565,5
40965,103520,5
40941,103453,5
40926,103452,4
40931,103445,5
40927,103427,5
40915,103432,5
40898,103364,5
40847,103265,4
40792,103165,5
40760,103096,5
40754,103095,5
40745,103062,4
40684,102930,4
40665,102885,5
40629,102803,5
40591,102721,5
40563,102690,5
40569,102674,4
40572,102694,5
40579,102732,5
40614,102802,5
40658,102871,4
40652,102838,5
40632,102832,5
40579,102803,5
40606,102741,5
40593,102722,4
40562,102658,5
40476,102641,5
40568,102694,5
40562,102692,5
40574,102695,4
40539,102690,5
40576,102698,5
40588,102714,5
40571,102689,5
40617,102733,4
40598,102751,5
40592,102737,5
40589,102732,5
40643,102692,4
40555,102657,6
40540,102631,4
40529,102606,5
40597,102650,5
40554,102635,4
40508,102564,5
40496,102542,5
40476,102468,5
40450,102462,5
40448,102437,4
40423,102396,5
40429,102404,5
40443,102443,5
40445,102425,5
40421,102389,4
40389,102249,5
40351,102244,5
40329,102191,5
40323,102208,5
40362,102244,4
40392,102309,5
40373,102295,6
40370,102273,4
40329,102215,4
40306,102158,4
40297,102129,7
40280,102090,3
40285,102183,5
40265,102062,4
40227,101974,5
40177,101881,5
40135,101852,5
40115,101754,5
40084,101689,4
40083,101692,5
40102,101750,5
40098,101720,5
40080,101701,5
40083,101671,4
40060,101632,5
40056,101630,5
40041,101617,5
40059,101652,5
40087,101692,4
40079,101667,5
40054,101615,5
40019,101537,5
39974,101471,4
39978,101474,4
39971,101451,5
39983,101507,5
40004,101510,5
39976,101421,4
39909,101290,5
39840,101163,5
39807,101089,5
39774,101032,5
39777,101050,4
39809,101111,5
39817,101098,5
39788,101042,5
39772,101010,5
39745,100967,4
39739,100960,5
39738,100974,5
39754,100993,5
39799,101060,5
39799,101046,4
39765,100963,5
39714,100879,5
39677,100816,5
39669,100819,5
39679,100802,4
39673,100814,5
39688,100847,5
39700,100836,5
39674,100776,4
39649,100753,5
39639,100710,5
39625,100688,5
39606,100660,5
39602,100672,4
39629,100698,5
39618,100677,5
39605,100631,5
39586,100593,5
39555,100539,4
39533,100491,5
39522,100473,5
39522,100480,5
39530,100507,5
39532,100474,4
39490,100396,5
39456,100299,5
39412,100230,5
39403,100179,5
39373,100159,5
39385,100175,3
39434,100258,5
39445,100270,5
39430,100257,4
39406,100177,4
39367,100122,5
39359,100099,5
39350,100067,5
39361,100113,4
39383,100159,5
39378,100125,5
39349,100067,5
39323,100010,5
39291,99943,4
39268,99928,5
39266,99913,5
39293,99992,5
39360,100084,5
39342,100053,4
39295,100009,5
39304,99935,6
39243,99850,4
39229,99804,5
39145,99736,4
39195,99751,7
39223,99775,3
39213,99751,5
39125,99705,4
39148,99617,4
39114,99563,5
39114,99571,5
39142,99601,5
39174,99699,4
39190,99718,5
39174,99677,5
39205,99630,5
39124,99556,5
39106,99534,4
39102,99529,5
39166,99552,5
39143,99607,5
39146,99588,5
39105,99536,4
39131,99503,5
39083,99462,5
39072,99451,6
39076,99469,4
39128,99573,4
39175,99669,5
39158,99612,5
39118,99540,5
39094,99434,5
39057,99397,4
39045,99395,5
39035,99375,5
39035,99312,5
39045,99396,4
39021,99358,5
39010,99330,5
39021,99333,5
39034,99380,5
39055,99411,4
39076,99485,5
39142,99653,5
39160,99607,5
39124,99533,5
39093,99465,5
39056,99477,4
39063,99412,5
39068,99452,5
39107,99554,6
39156,99660,3
39183,99674,5
39189,99668,5
39156,99583,5
39098,99511,5
39090,99494,4
39088,99488,5
39096,99486,5
39096,99485,5
39086,99459,4
39088,99471,4
39099,99502,5
39120,99537,5
39153,99606,5
39161,99621,4
39154,99593,5
39160,99616,5
39166,99623,5
39169,99637,5
39193,99691,4
39208,99717,6
39225,99731,4
39205,99718,5
39209,99732,5
39221,99745,6
39210,99703,3
39199,99680,5
39195,99665,5
39169,99581,5
39095,99441,4
39041,99365,5
39040,99370,5
39065,99437,5
39099,99504,4
39155,99599,4
39174,99641,5
39188,99654,5
39177,99638,5
39206,99724,4
39271,99850,5
39293,99860,5
39286,99860,5
39308,99874,5
39287,99846,4
39245,99743,5
39194,99672,6
39202,99716,4
39261,99830,5
39279,99850,4
39303,99892,5
39298,99889,5
39321,99925,5
39312,99903,5
39319,99936,4
39332,99966,5
39351,99980,5
39341,99961,5
39345,99970,5
39339,99964,4
39325,99935,5
39332,99961,5
39373,100077,5
39448,100211,4
39480,100232,5
39468,100218,5
39441,100149,5
39405,100082,5
39352,99998,4
39362,100035,5
39416,100180,5
39499,100331,6
39574,100483,4
39648,100583,4
39647,100585,5
39606,100504,5
39570,100440,5
39598,100513,5
39664,100665,4
39739,100823,5
39786,100918,5
39797,100928,5
39778,100881,5
39720,100740,4
39688,100695,5
39694,100731,5
39669,100772,5
39686,100692,4
39672,100669,4
39661,100629,5
39554,100556,5
39613,100591,5
39683,100736,5
39770,100905,4
39817,101019,5
39896,101146,5
39951,101233,6
39964,101242,3
39987,101215,5
39950,101261,5
39975,101307,5
39995,101344,5
40002,101163,4
39819,100937,5
39730,100756,5
39678,100693,5
39729,100769,5
39799,100991,4
39909,101180,5
39932,101198,5
39919,101143,5
39870,101047,4
39818,100942,4
39784,100901,5
39853,101054,5
40030,101507,5
40220,101863,4
40322,102038,5
40350,101992,4
40320,101973,5
40240,101819,5
40184,101765,4
40260,101900,5
40315,102021,5
40310,102005,5
40298,101962,5
40253,101916,4
40206,101772,5
40175,101708,5
40153,101704,5
40181,101842,5
40272,101972,4
40362,102150,7
40478,102433,3
40650,102812,5
40733,102855,5
40676,102772,4
40711,102908,5
40844,103130,5
40782,102928,5
40613,102570,4
40459,102291,5
40391,102157,6
40361,102127,4
40379,102233,5
40531,102566,4
40743,103008,5
40934,103395,5
41089,103640,5
41075,103588,5
41046,103529,4
41007,103453,5
41006,103491,5
41093,103706,5
41194,103897,5
41249,103966,4
41292,104077,5
41354,104215,5
41420,104358,5
41496,104553,5
41566,104654,4
41633,104789,5
41629,104731,5
41573,104635,5
41578,104661,4
41590,104709,4
41612,104739,5
41642,104834,6
41714,104961,4
41698,104885,4
41576,104640,5
41511,104554,5
41534,104611,5
41582,104713,5
41677,104922,4
41811,105216,5
41929,105447,5
41983,105537,5
41948,105409,5
41891,105313,4
41885,105342,5
41928,105447,5
42018,105630,5
42134,105894,5
42239,106095,4
42296,106168,5
42235,106020,5
42179,105921,5
42152,105905,5
42173,105942,4
42231,106052,5
42332,106344,5
42476,106562,5
42431,106416,4
42312,106199,5
42211,106011,5
42123,105825,5
42079,105757,5
42056,105731,4
42112,105862,5
42197,106045,5
42290,106209,5
42294,106169,5
42249,106108,4
42185,105956,5
42115,105813,5
42063,105726,5
42074,105788,5
42122,105872,4
42154,105903,5
42113,105820,5
42066,105715,5
41992,105578,5
41962,105541,5
41978,105583,4
42039,105721,5
42079,105784,5
42086,105770,4
42061,105722,4
42013,105748,5
42093,105817,5
42152,105926,5
42227,106098,4
42270,106329,5
42417,106431,5
42355,106276,5
42234,106040,5
42103,105924,4
42164,105933,5
42128,105868,5
42130,105904,5
42220,106008,5
42223,106056,4
42221,106031,5
42208,106031,5
42284,106045,5
42232,106074,5
42238,106091,4
42253,106116,6
42276,106036,4
42110,105793,5
41940,105443,4
41796,105187,4
41731,105060,5
41709,105052,5
41705,105037,5
41728,105120,4
41826,105267,5
41863,105343,5
41866,105352,5
41862,105339,5
41867,105326,4
41914,105463,5
41957,105563,5
41966,105563,5
41959,105471,5
41931,105443,4
41813,105204,5
41702,104992,5
41659,104962,5
41694,105031,5
41768,105230,4
41946,105597,5
42122,105967,5
42145,105890,5
42036,105631,4
41882,105346,4
41780,105239,5
41742,105115,5
41758,105155,5
41841,105330,4
41905,105474,5
41930,105491,5
41939,105493,5
41907,105424,5
41900,105404,4
41885,105382,5
41880,105384,5
41906,105432,5
41910,105458,5
41917,105442,4
41901,105413,4
41865,105347,5
41851,105340,5
41863,105349,6
41869,105366,3
41909,105456,5
41969,105550,5
41982,105588,5
42001,105639,5
42012,105639,4
42011,105638,5
42002,105599,5
41898,105409,5
41870,105368,4
41875,105377,4
41866,105374,5
41885,105406,5
41913,105458,5
41944,105521,4
41994,105610,5
42022,105655,5
42036,105705,5
42076,105774,5
42071,105762,4
42062,105745,6
42042,105690,4
42021,105660,5
42020,105654,5
42011,105649,6
42022,105664,3
42014,105614,5
41922,105419,5
41813,105230,5
41724,105042,4
41645,104891,5
41625,104872,5
41633,104901,5
41670,104987,4
41733,105098,4
41731,105064,5
41715,105040,5
41710,105040,5
41698,105040,4
41724,105087,5
41737,105090,5
41740,105119,5
41779,105181,5
41777,105159,4
41747,105110,5
41718,105066,6
41690,105028,4
41705,105043,5
41718,105072,4
41731,105094,5
41741,105120,5
41735,105095,5
41686,104999,5
41649,104921,4
41605,104827,5
41588,104818,5
41585,104809,5
41589,104828,4
41615,104892,4
41636,104905,5
41617,104882,5
41612,104864,5
41600,104855,4
41630,104905,5
41653,104937,5
41699,105068,5
41749,105137,5
41692,105044,4
41631,104880,5
41558,104743,5
41509,104637,6
41409,104588,4
41455,104573,4
41490,104656,5
41514,104657,5
41416,104573,5
41411,104439,5
41314,104243,4
41218,104057,5
41223,104049,5
41202,104053,5
41237,104144,5
41324,104308,4
41422,104346,5
41318,104225,5
41245,104103,5
41214,104084,4
41316,104140,4
41255,104147,5
41290,104236,5
41344,104299,5
41352,104266,5
41292,104207,4
41252,104110,5
41188,103999,5
41160,103929,6
41127,103864,3
41124,103894,5
41117,103864,5
41065,103713,5
41021,103657,5
40970,103575,4
40974,103599,5
40984,103545,5
40999,103660,5
41041,103710,5
41035,103683,4
40991,103597,5
40966,103570,5
40936,103508,5
40917,103480,4
40920,103535,4
40920,103509,5
40985,103629,5
41010,103637,5
40984,103674,4
40973,103564,6
40951,103533,4
40927,103493,5
40899,103476,5
40896,103454,4
40919,103478,5
40897,103424,5
40869,103388,5
40853,103337,5
40814,103247,4
40799,103219,5
40772,103200,5
40775,103208,5
40816,103279,5
40808,103244,4
40762,103170,5
40722,103071,5
40686,103004,5
40664,102947,5
40618,102887,4
40628,102902,5
40641,102924,5
40620,102877,5
40591,102814,4
40551,102733,4
40534,102708,6
40538,102717,4
40528,102696,5
40529,102697,4
40527,102662,5
40470,102542,5
40428,102466,5
40402,102416,5
40384,102376,4
40366,102342,5
40343,102322,5
40358,102339,5
40346,102317,5
40303,102211,4
40242,102080,5
40189,101965,5
40164,101940,5
40188,101981,5
40209,102027,4
40252,102123,5
40278,102141,5
40239,102057,5
40182,101958,5
40147,101918,4
40157,101945,5
40190,101991,6
40204,102016,4
40249,102111,4
40259,102118,5
40216,102028,5
40152,101867,5
40080,101740,5
40060,101708,4
40063,101701,5
40044,101694,5
40065,101742,5
40083,101763,5
40083,101752,4
40079,101773,5
40091,101785,5
40115,101847,5
40135,101853,5
40108,101812,4
40106,101811,5
40092,101753,5
40036,101656,5
39995,101551,5
39950,101454,4
39927,101425,5
39925,101438,5
39949,101474,6
39973,101526,3
39969,101511,4
39951,101479,5
39920,101393,5
39898,101344,5
39881,101330,4
39878,101307,5
39858,101293,5
39877,101314,5
39871,101273,5
39833,101212,4
39807,101176,5
39754,101162,5
39806,101168,5
39824,101197,5
39841,101245,4
39819,101317,5
39870,101302,5
39866,101286,5
39865,101274,5
39803,101238,5
39836,101211,4
39815,101191,5
39810,101166,5
39823,101138,5
39766,101093,4
39768,101074,5
39759,101061,5
39831,101096,5
39800,101153,4
39822,101188,4
39826,101174,5
39861,101175,5
39816,101176,5
39816,101191,4
39841,101211,5
39868,101245,5
39856,101256,5
39849,101227,5
39808,101158,4
39799,101122,5
39826,101209,5
39854,101238,5
39882,101300,5
39912,101324,4
39924,101372,6
39875,101267,4
39796,101101,5
39741,100965,5
39730,101006,4
39725,100988,5
39733,100986,5
39737,101010,5
39736,100993,4
39694,100888,4
39658,100849,5
39669,100944,5
39700,100942,5
39743,101006,4
39755,101045,5
39775,101144,5
39767,101057,5
39754,101038,5
39784,101128,4
39872,101323,5
39914,101364,5
39931,101377,5
39917,101339,5
39870,101261,4
39791,101076,5
39726,100960,7
39719,100985,3
39766,101045,9
39786,101093,5
39832,101213,5
39896,101317,5
39916,101349,5
39923,101367,4
39957,101474,5
40010,101580,5
40021,101562,5
40007,101561,4
39995,101505,4
39967,101429,5
39899,101284,5
39841,101215,5
39866,101299,4
39958,101447,5
40005,101536,5
40043,101601,5
40079,101719,5
40137,101813,4
40148,101886,5
40273,102151,5
40420,102432,5
40514,102596,5
40555,102689,4
40588,102712,5
40571,102671,5
40519,102594,5
40523,102601,5
40568,102738,4
40660,102905,5
40700,102955,5
40688,102945,5
40691,102947,5
40685,102906,4
40645,102887,5
40696,102993,5
40805,103208,5
40907,103417,4
40975,103554,5
41028,103649,5
41056,103705,5
41061,103676,5
41050,103673,5
41087,103802,4
41176,103961,5
41136,103845,5
41062,103691,5
40999,103581,4
40949,103502,5
40914,103415,5
40893,103402,5
40940,103545,5
41045,103709,4
41111,103835,5
41157,103930,5
41196,103990,5
41210,104000,5
41201,104015,4
41270,104177,5
41378,104384,5
41372,104303,5
41266,104101,4
41214,104001,4
41190,103993,5
41200,103969,5
41184,103991,5
41261,104161,4
41354,104326,6
41414,104423,3
41445,104465,5
41430,104446,5
41424,104428,4
41412,104432,5
41454,104511,5
41504,104637,5
41554,104711,5
41548,104814,4
41647,104889,5
41650,104910,5
41680,104970,5
41624,105013,5
41756,105140,4
41755,105108,5
41707,104983,5
41580,104812,5
41518,104614,5
41449,104486,4
41398,104383,5
41398,104357,6
41435,104542,4
41558,104780,4
41676,104991,4
41830,105166,5
41855,105364,5
41957,105564,5
42055,105760,4
42216,106017,5
42301,106284,5
42339,106302,5
42230,106065,5
42141,105857,4
42056,105729,5
42031,105713,5
42035,105740,5
42122,105944,5
42274,106225,4
42301,106259,5
42268,106208,5
42275,106141,5
42300,106234,5
42310,106270,4
42341,106347,5
42423,106428,5
42411,106457,6
42316,106222,3
42204,106053,4
42161,105978,5
42158,105968,5
42168,106009,5
42221,106152,4
42316,106370,5
42384,106449,5
42478,106610,5
42530,106702,5
42538,106779,4
42533,106674,5
42476,106594,5
42507,106694,5
42614,106930,5
42682,107015,4
42721,107095,5
42756,107165,5
42752,107127,5
42704,107019,5
42681,107001,5
42777,107250,4
42992,107711,5
43133,107915,5
43173,108038,6
43269,108176,3
43252,108150,5
43214,108084,5
43193,108061,5
43180,108052,4
43178,108024,4
43153,108004,5
43173,108014,5
43152,107945,5
43133,107936,4
43139,107958,5
43176,108072,5
43292,108308,5
43388,108503,5
43406,108475,4
43364,108400,5
43347,108362,5
43321,108307,5
43262,108219,5
43284,108307,4
43400,108572,6
43475,108639,4
43397,108463,5
43359,108405,5
43330,108342,6
43304,108306,3
43287,108293,5
43354,108489,5
43544,108841,5
43593,108882,4
43553,108809,5
43527,108743,5
43469,108647,5
43442,108604,4
43416,108577,4
43421,108568,5
43426,108595,5
43472,108718,5
43555,108867,4
43654,109063,5
43733,109219,5
43818,109370,5
43791,109287,5
43722,109182,4
43678,109091,5
43610,108963,6
43534,108823,4
43529,108857,5
43525,108815,4
43509,108813,5
43459,108678,5
43371,108533,5
43364,108536,5
43360,108529,4
43345,108493,5
43360,108538,5
43383,108615,5
43475,108785,4
43573,108961,4
43591,108945,5
43517,108785,5
43409,108577,5
43317,108441,4
43297,108428,5
43311,108442,5
43338,108511,5
43358,108525,5
43347,108472,4
43282,108371,5
43217,108262,5
43152,108177,6
43204,108257,4
43257,108388,4
43373,108590,5
43365,108648,5
43401,108571,5
43247,108237,5
43096,107952,4
42914,107771,5
42956,107729,5
42967,107782,5
43019,107861,5
43036,107938,4
42996,107784,5
42937,107697,5
42930,107668,5
42920,107551,4
42813,107449,4
42823,107509,5
42928,107714,5
43127,107951,5
43146,108102,5
43135,108068,4
43112,108016,5
43074,107862,5
43017,107891,6
43095,108039,3
43164,108165,5
43211,108204,5
43163,108086,5
43033,107846,5
42920,107640,4
42850,107506,5
42871,107612,5
42916,107676,5
42930,107719,5
43000,107794,4
43001,107802,5
42910,107620,5
42821,107406,5
42658,107060,5
42593,107052,5
42647,107189,4
42774,107462,5
42961,107849,5
43076,107961,4
43020,107821,6
42938,107677,4
42835,107548,5
42765,107373,5
42779,107404,4
42794,107454,5
42802,107497,5
42727,107250,5
42572,106900,5
42350,106475,4
42235,106313,5
42267,106379,5
42341,106523,5
42426,106743,5
42636,107143,4
42691,107141,5
42550,106882,5
42455,106704,5
42414,106636,5
42435,106716,4
42525,106907,5
42624,107088,5
42668,107132,5
42583,106934,4
42369,106447,4
42138,106055,6
42004,105785,4
41935,105701,5
41961,105740,4
42014,105859,5
42092,105994,5
42098,105977,5
42016,105814,5
41922,105611,4
41847,105474,5
41809,105442,5
41839,105507,5
41928,105726,5
42058,105973,4
42101,105969,5
41966,105648,5
41744,105216,5
41572,104919,5
41514,104870,4
41530,104878,5
41555,104953,5
41649,105149,5
41744,105303,5
41766,105307,4
41725,105226,5
41690,105156,6
41616,105049,4
41584,104971,4
41568,104962,4
41586,104997,5
41562,104937,5
41517,104821,5
41443,104653,4
41362,104502,5
41323,104458,5
41339,104496,5
41423,104712,5
41580,104987,4
41600,104998,5
41546,104872,5
41463,104717,5
41393,104606,5
41391,104616,4
41434,104701,5
41521,104890,5
41610,105033,5
41585,104918,5
41414,104569,4
41266,104300,5
41180,104137,5
41119,104040,5
41099,104008,5
41156,104152,4
41268,104349,5
41284,104375,5
41271,104323,5
41223,104236,4
41172,104164,5
41195,104229,5
41237,104307,5
41287,104389,5
41302,104392,4
41241,104275,5
41160,104103,5
41109,104041,5
41133,104090,5
41141,104167,4
41172,104142,6
41166,104151,4
41200,104226,5
41166,104242,5
41205,104203,5
41143,104055,4
41041,103861,5
40921,103751,5
40937,103676,5
40942,103708,4
41011,103826,5
41002,103815,5
40995,103785,5
40940,103666,4
40878,103551,4
40912,103491,5
40808,103397,5
40765,103356,5
40795,103400,4
40863,103379,5
40778,103329,5
40748,103261,5
40707,103209,5
40740,103246,4
40733,103279,5
40767,103349,5
40803,103394,5
40794,103328,5
40694,103132,4
40546,102834,6
40414,102556,4
40335,102384,5
40291,102302,5
40261,102274,4
40302,102369,5
40320,102302,5
40288,102286,5
40240,102206,5
40221,102169,4
40264,102247,5
40330,102398,5
40399,102558,5
40513,102778,4
40573,102906,5
40530,102753,5
40445,102575,5
40355,102402,5
40306,102398,4
40276,102271,5
40284,102335,5
40359,102453,5
40388,102544,5
40390,102509,4
40395,102515,5
40376,102463,5
40329,102401,5
40317,102356,5
40292,102318,4
40320,102379,5
40323,102351,5
40283,102294,5
40263,102251,5
40254,102224,4
40258,102252,5
40265,102247,5
40270,102287,5
40312,102356,4
40306,102312,4
40261,102263,5
40271,102293,7
40275,102273,3
40273,102268,4
40258,102251,4
40284,102312,5
40304,102314,5
40283,102288,5
40276,102275,3
40250,102223,5
40238,102204,5
40252,102229,5
40266,102277,5
40307,102335,4
40330,102387,5
40332,102362,5
40314,102327,5
40285,102308,5
40284,102278,4
40288,102296,5
40294,102312,5
40293,102324,5
40293,102300,5
40271,102249,4
40242,102205,5
40234,102196,5
40246,102213,5
40251,102229,4
40245,102219,5
40221,102154,4
40213,102163,5
40265,102291,5
40350,102432,6
40395,102522,3
40427,102597,5
40459,102617,5
40458,102613,5
40432,102587,4
40423,102557,5
40410,102533,5
40387,102508,5
40398,102506,5
40413,102574,4
40472,102658,5
40500,102687,5
40477,102670,5
40495,102725,5
40526,102778,4
40531,102775,5
40538,102788,5
40558,102847,5
40572,102887,5
40587,102884,4
40559,102839,6
40546,102835,4
40578,102897,5
40608,102934,4
40615,102939,7
40608,102911,3
40591,102900,5
40570,102850,5
40576,102874,4
40630,102995,5
40664,103064,5
40663,103058,5
40658,103034,5
40646,102983,4
40631,102969,5
40561,102890,5
40580,102901,5
40623,102989,5
40673,103068,4
40647,103130,5
40756,103242,5
40802,103326,5
40808,103327,5
40739,103329,4
40837,103429,5
40877,103474,6
40878,103463,4
40852,103386,4
40790,103282,4
40749,103204,5
40690,103099,5
40744,103124,5
40733,103234,4
40791,103310,5
40832,103399,5
40960,103527,5
40947,103623,5
40977,103663,4
40952,103624,5
41007,103716,5
41038,103831,5
41091,103912,5
41120,103965,4
41125,103956,5
41108,103945,5
41106,103913,5
41082,103901,5
41110,103924,4
41122,103975,5
41107,103914,5
41055,103836,6
41042,103713,4
41010,103765,4
41006,103741,4
41022,103787,5
41110,103976,5
41263,104313,4
41406,104589,4
41524,104847,5
41636,105065,5
41672,105065,5
41654,105048,4
41678,105120,5
41780,105428,5
41827,105390,5
41835,105409,5
41828,105391,4
41803,105422,5
41787,105326,5
41762,105287,5
41786,105359,5
41809,105392,5
41793,105327,4
41758,105265,5
41724,105207,5
41710,105194,6
41715,105204,3
41735,105275,5
41819,105433,5
41890,105578,5
41935,105633,4
41961,105676,4
41962,105694,5
41985,105745,5
41994,105767,5
42039,105888,4
42106,106023,5
42138,106047,5
42131,106007,5
42083,105940,5
42055,105873,4
42037,105823,5
42002,105779,5
42041,105904,5
42153,106129,5
42260,106329,4
42307,106404,6
42312,106416,4
42291,106360,5
42254,106276,5
42257,106325,4
42362,106576,5
42522,106911,5
42646,107115,5
42670,107121,5
42594,106971,4
42542,106867,5
42457,106699,5
42400,106630,5
42451,106753,4
42546,106935,4
42639,107124,5
42769,107385,5
42903,107649,5
43006,107835,4
43053,107980,5
43168,108221,5
43300,108488,5
43353,108559,5
43373,108591,4
43359,108559,5
43302,108420,6
43210,108267,4
43143,108149,5
43153,108223,4
43242,108370,5
43291,108459,5
43335,108526,5
43380,108640,5
43450,108776,4
43515,108903,5
43588,109073,5
43703,109310,5
43797,109478,5
43854,109571,4
43885,109652,5
43913,109716,5
43948,109769,5
43950,109792,4
44031,110000,4
44172,110330,5
44319,110569,5
44347,110618,5
44357,110626,4
44358,110621,5
44345,110591,5
44310,110559,6
44348,110671,4
44456,110868,4
44468,110837,5
44416,110756,5
44409,110716,5
44356,110703,5
44352,110639,4
44377,110731,5
44499,110956,5
44526,111132,5
44631,111204,5
44649,111233,4
44650,111226,5
44555,111172,5
44583,111095,5
44586,111145,4
44632,111257,4
44732,111408,5
44762,111488,5
44767,111492,5
44762,111474,5
44836,111470,4
44730,111421,5
44741,111471,5
44825,111638,5
44944,111687,4
44840,111622,5
44787,111544,5
44759,111482,5
44770,111456,5
44736,111447,4
44733,111439,5
44739,111466,5
44747,111459,5
44723,111425,5
44679,111337,4
44646,111278,5
44628,111214,5
44636,111282,5
44651,111335,5
44745,111529,4
44870,111683,5
44961,111904,5
44926,111823,5
44903,111804,4
44907,111798,5
44910,111804,4
44889,111786,5
44905,111812,5
44899,111864,4
44887,111752,5
44848,111685,5
44845,111686,5
44846,111802,5
44876,111787,4
44898,111820,5
44917,111843,5
44920,111888,5
44879,111726,5
44781,111555,4
44722,111464,5
44683,111411,5
44662,111357,5
44652,111364,5
44672,111392,4
44650,111350,5
44613,111260,5
44547,111131,5
44508,111078,5
44466,110990,4
44440,110950,7
44432,110963,3
44470,111019,5
44500,111067,4
44530,111122,5
44544,111164,5
44574,111218,5
44602,111249,5
44624,111284,4
44615,111262,5
44536,111050,5
44311,110621,5
43983,109982,5
43690,109485,4
43552,109284,5
43550,109316,5
43653,109522,5
43828,109844,5
44069,110306,4
44294,110673,5
44388,110815,5
44431,110907,5
44474,110986,5
44529,111087,4
44530,111106,5
44545,111116,5
44582,111210,5
44634,111278,4
44653,111334,4
44674,111359,5
44670,111384,5
44724,111474,5
44759,111535,4
44794,111630,5
44868,111746,5
44876,111785,5
44893,111778,5
44868,111750,4
44856,111723,5
44880,111807,5
44896,111841,5
44910,111853,5
44916,111861,4
44884,111786,5
44829,111675,5
44759,111552,5
44700,111454,5
44663,111393,4
44630,111319,5
44577,111235,5
44547,111181,5
44498,111060,5
44432,110966,4
44400,110891,5
44363,110828,5
44363,110850,5
44385,110874,4
44367,110867,4
44384,110914,5
44409,110918,5
44385,110884,5
44374,110842,4
44351,110821,5
44357,110847,5
44366,110849,5
44362,110849,5
44388,110888,4
44381,110864,5
44332,110784,5
44279,110672,5
44218,110558,5
44176,110487,5
44127,110444,4
44092,110302,5
44006,110165,5
43970,110086,5
43816,109927,4
43841,109841,5
43827,109820,5
43807,109783,5
43699,109722,5
43750,109711,4
43753,109692,5
43696,109557,5
43649,109434,5
43589,109347,4
43531,109247,5
43512,109231,5
43604,109256,5
43515,109214,5
43499,109186,4
43474,109118,5
43461,108930,6
43288,108752,4
43209,108600,5
43159,108529,4
43147,108436,7
43081,108344,3
43065,108339,5
43051,108322,5
43035,108233,4
42977,108126,5
42908,108009,5
42871,107949,5
42855,107835,5
42820,107826,4
42794,107800,5
42779,107746,5
42722,107555,5
42688,107554,5
42663,107488,4
42644,107482,5
42639,107468,5
42641,107470,5
42636,107476,4
42600,107363,5
42527,107267,5
42442,107031,6
42357,106861,4
42307,106792,4
42288,106853,5
42256,106686,5
42241,106654,5
42239,106671,5
42224,106667,4
42188,106521,5
42148,106468,5
42151,106478,5
42131,106440,5
42106,106403,4
42135,106452,5
42133,106429,5
42111,106391,5
42096,106339,5
42058,106287,4
42054,106265,5
42043,106263,5
42042,106244,5
42070,106307,5
42117,106402,4
42116,106389,5
42122,106382,5
42102,106366,6
42108,106364,3
42106,106361,5
42101,106366,5
42122,106416,5
42143,106412,5
42145,106418,9
42145,106418,5
42137,106400,5
42131,106409,5
42130,106396,4
42129,106380,5
42115,106370,5
42112,106357,5
42115,106369,5
42117,106368,4
42122,106372,5
42121,106402,5
42129,106397,5
42122,106381,5
42098,106344,5
42082,106295,4
42064,106284,5
42061,106241,5
42005,106133,6
41955,106056,3
41939,106015,5
41923,105964,5
41864,105829,5
41805,105744,4
41805,105751,5
41804,105724,5
41786,105688,5
41781,105688,5
41775,105676,4
41750,105608,5
41694,105496,5
41631,105369,5
41603,105318,5
41574,105264,4
41556,105235,5
41569,105250,5
41567,105223,5
41533,105155,5
41503,105087,4
41462,104999,6
41430,104939,4
41402,104853,5
41362,104777,4
41351,104766,4
41333,104710,5
41300,104642,5
41284,104620,5
41284,104622,4
41291,104626,5
41271,104584,5
41268,104602,5
41249,104537,5
41203,104439,4
41173,104388,5
41171,104376,5
41155,104354,5
41154,104359,5
41159,104370,4
41129,104369,5
41154,104347,5
41142,104314,5
41131,104290,5
41057,104290,4
41137,104329,5
41165,104353,6
41161,104341,4
41093,104348,5
41155,104354,4
41157,104351,5
41167,104365,5
41201,104378,5
41193,104426,4
41191,104414,4
41177,104373,5
41212,104316,5
41129,104277,5
41110,104268,4
41129,104285,5
41212,104345,5
41189,104411,5
41203,104408,5
41164,104347,4
41162,104311,5
41155,104346,5
41176,104370,5
41179,104403,5
41209,104421,4
41211,104462,5
41223,104449,5
41193,104399,6
41182,104318,4
41177,104388,4
41176,104406,5
41203,104441,5
41238,104435,5
41257,104546,4
41251,104503,4
41200,104421,5
41186,104405,5
41198,104425,5
41210,104465,4
41256,104549,5
41272,104619,5
41253,104496,5
41179,104369,5
41142,104328,4
41152,104423,5
41158,104343,5
41178,104387,5
41223,104451,5
41219,104479,5
41169,104330,4
41126,104277,5
41128,104298,5
41162,104364,5
41195,104424,4
41208,104462,5
41226,104457,5
41219,104443,5
41189,104379,5
41150,104339,4
41176,104384,5
41202,104426,5
41228,104477,5
41250,104526,4
41260,104541,4
41255,104502,5
41224,104441,5
41234,104512,5
41266,104551,4
41295,104605,5
41311,104625,5
41316,104641,5
41319,104643,5
41310,104601,4
41279,104584,6
41304,104647,4
41373,104762,5
41408,104823,5
41411,104816,4
41402,104806,5
41406,104792,5
41372,104739,5
41369,104738,5
41398,104828,4
41460,104941,5
41511,105051,5
41565,105141,5
41600,105198,4
41639,105261,4
41618,105253,5
41652,105324,5
41712,105447,5
41752,105520,4
41786,105573,5
41814,105608,5
41834,105653,5
41837,105632,5
41814,105610,4
41835,105666,5
41867,105734,6
41878,105727,4
41870,105725,5
41874,105715,4
41865,105705,5
41841,105674,5
41853,105726,5
41911,105822,5
41946,105860,4
41929,105827,5
41924,105831,5
41918,105818,5
41916,105818,5
41896,105766,4
41897,105798,5
41953,105911,5
42009,106018,5
42053,106087,4
42066,106121,4
42060,106100,5
42017,105984,5
41947,105890,5
41972,105952,4
42023,106074,5
42068,106150,5
42101,106200,6
42125,106250,4
42167,106325,4
42172,106317,5
42200,106421,5
42320,106682,5
42427,106890,5
42488,106959,4
42475,106940,5
42449,106880,5
42370,106819,5
42359,106709,5
42339,106712,4
42390,106802,5
42371,106902,5
42469,106927,5
42498,106994,5
42520,107049,5
42536,107101,4
42558,107115,5
42594,107197,5
42630,107259,5
42661,107202,4
42580,107137,5
42567,107114,5
42540,107073,5
42586,107020,4
42480,107005,5
42520,107076,5
42581,107177,5
42664,107248,5
42647,107308,4
42683,107361,5
42704,107383,5
42723,107399,5
42738,107505,5
42866,107773,4
42967,107932,5
42983,107944,5
42998,108000,5
43017,108001,5
43009,108008,4
43019,107944,5
43021,108037,5
43062,108136,5
43128,108270,5
43192,108305,5
43232,108439,4
43249,108478,5
43277,108533,5
43287,108593,4
43349,108713,5
43439,108929,5
43538,109094,5
43610,109283,5
43642,109276,4
43673,109317,5
43690,109373,5
43706,109442,5
43699,109389,5
43732,109457,4
43754,109482,5
43723,109439,5
43680,109336,5
43636,109260,5
43611,109211,4
43564,109122,5
43542,109100,5
43557,109146,5
43582,109184,5
43601,109200,4
43600,109222,6
43651,109294,4
43677,109371,5
43712,109409,4
43752,109519,5
43848,109731,5
43959,109932,5
43990,109961,5
43965,109905,4
43939,109865,5
43928,109844,5
43891,109759,5
43830,109675,5
43830,109679,4
43834,109687,5
43828,109688,5
43841,109708,5
43886,109787,5
43931,109888,4
43965,109929,5
43960,109943,5
43988,110004,6
44025,110053,4
44021,110015,4
43958,109919,5
43939,109872,5
43914,109819,5
43874,109774,4
43857,109746,4
43860,109753,5
43856,109734,5
43827,109660,5
43795,109608,4
43790,109615,5
43801,109629,5
43795,109613,5
43797,109621,5
43804,109638,4
43820,109658,5
43823,109651,5
43811,109634,5
43804,109636,5
43795,109625,5
43791,109612,4
43784,109616,5
43805,109642,5
43826,109699,6
43837,109686,3
43784,109583,5
43727,109508,5
43724,109471,5
43698,109416,5
43655,109327,4
43630,109319,5
43630,109318,5
43636,109328,5
43644,109340,4
43660,109385,4
43703,109452,5
43709,109441,5
43699,109425,5
43706,109455,4
43711,109473,5
43723,109495,5
43729,109492,5
43730,109501,5
43746,109563,4
43782,109617,6
43797,109622,4
43801,109627,5
43799,109632,5
43779,109576,6
43693,109463,3
43648,109323,5
43603,109267,5
43613,109268,5
43534,109238,4
43581,109214,5
43581,109225,5
43591,109253,5
43528,109253,4
43592,109240,4
43593,109269,5
43634,109335,5
43668,109364,5
43664,109382,4
43695,109423,5
43720,109469,5
43782,109461,5
43685,109421,5
43666,109366,4
43645,109359,5
43758,109404,6
43677,109424,4
43680,109424,5
43698,109450,4
43736,109459,5
43703,109446,5
43685,109425,5
43697,109443,5
43718,109477,4
43740,109502,5
43728,109486,5
43753,109567,5
43793,109557,5
43792,109616,4
43782,109569,5
43747,109520,5
43729,109429,5
43751,109539,4
43754,109531,4
43741,109537,5
43777,109567,5
43772,109576,5
43760,109565,4
43746,109519,5
43731,109549,5
43729,109520,6
43742,109530,4
43733,109526,4
43759,109662,5
43773,109589,5
43762,109568,5
43750,109539,5
43721,109539,4
43713,109494,5
43725,109502,5
43712,109483,5
43730,109518,5
43740,109529,4
43733,109524,5
43740,109514,5
43726,109505,5
43728,109504,5
43751,109547,4
43744,109539,5
43748,109543,5
43767,109583,5
43752,109552,5
43742,109523,4
43728,109514,5
43708,109481,5
43727,109500,6
43721,109504,3
43712,109476,5
43723,109508,5
43722,109499,5
43704,109459,5
43670,109389,4
43644,109344,5
43635,109355,5
43652,109366,5
43646,109348,5
43650,109358,4
43647,109361,5
43614,109302,5
43590,109249,5
43563,109217,5
43569,109221,4
43578,109261,5
43575,109234,5
43574,109241,7
43571,109213,3
43511,109109,5
43479,109025,4
43439,108950,5
43406,108899,5
43395,108887,4
43369,108821,5
43341,108778,5
43322,108723,5
43245,108585,5
43175,108446,4
43121,108347,5
43100,108320,5
43076,108283,5
43045,108217,5
43022,108185,4
43034,108207,5
43022,108161,5
42972,108063,5
42914,107928,5
42856,107813,4
42826,107767,5
42802,107734,5
42824,107781,5
42859,107832,5
42841,107800,4
42823,107766,6
42799,107709,4
42752,107608,5
42726,107578,4
42689,107513,4
42654,107450,5
42668,107464,5
42666,107448,5
42656,107418,4
42633,107387,5
42622,107390,5
42644,107414,5
42646,107429,5
42644,107429,4
42668,107468,5
42658,107433,5
42639,107394,5
42615,107364,5
42619,107366,4
42644,107429,5
42676,107462,5
42651,107514,5
42754,107631,5
42793,107686,4
42804,107716,5
42746,107744,6
42812,107736,4
42829,107771,5
42849,107787,4
42771,107764,5
42850,107816,5
42868,107825,5
42850,107788,4
42870,107771,4
42824,107739,5
42815,107724,5
42816,107717,5
42890,107738,4
42853,107818,5
42906,107899,5
42897,107895,5
42959,107866,5
42864,107801,4
42837,107770,5
42836,107767,5
42862,107784,5
42853,107809,5
42860,107821,4
42837,107758,5
42782,107633,5
42754,107599,6
42747,107583,4
42741,107596,4
42758,107551,5
42764,107620,5
42775,107639,5
42783,107668,5
42802,107633,4
42801,107701,5
42812,107721,5
42843,107801,5
42881,107871,4
42889,107862,5
42865,107782,5
42787,107658,5
42740,107645,5
42730,107548,4
42723,107558,5
42754,107612,5
42794,107748,5
42810,107689,5
42803,107711,5
42821,107738,4
42841,107767,5
42817,107710,5
42800,107685,5
42790,107665,4
42784,107660,5
42767,107646,5
42792,107687,5
42813,107715,5
42799,107674,4
42753,107615,5
42755,107634,5
42776,107640,5
42766,107626,4
42736,107545,4
42686,107474,5
42661,107439,5
42670,107458,5
42693,107499,4
42736,107602,5
42775,107652,5
42808,107699,5
42782,107663,5
42791,107704,4
42853,107804,6
42880,107850,4
42925,107959,5
42994,108077,5
43057,108192,4
43086,108213,5
43058,108174,5
43043,108173,5
43078,108261,5
43121,108326,4
43157,108371,5
43160,108365,5
43127,108320,5
43101,108259,5
43066,108206,4
43077,108237,5
43129,108327,5
43159,108383,5
43160,108384,4
43196,108452,4
43237,108545,5
43278,108625,5
43345,108763,5
43434,108927,4
43477,108990,5
43477,108942,6
43378,108746,4
43287,108594,5
43261,108565,4
43241,108518,5
43232,108547,5
43310,108706,5
43411,108852,5
43438,108902,4
43457,108972,5
43503,109023,5
43538,109100,5
43550,109117,5
43558,109152,4
43596,109231,5
43671,109374,5
43715,109449,5
43729,109458,5
43719,109437,4
43686,109386,5
43658,109340,5
43700,109438,5
43760,109530,4
43742,109461,5
43646,109259,5
43590,109214,5
43624,109259,5
43625,109271,4
43604,109245,5
43624,109330,5
43771,109585,5
43881,109806,5
43952,109887,4
43945,109887,5
43918,109810,5
43909,109801,5
43891,109787,5
43853,109822,4
43937,109892,5
43985,109966,5
43968,109906,5
43868,109866,5
43921,109845,4
43922,109841,4
43949,109919,5
44016,110093,5
44124,110248,5
44120,110191,4
44042,110051,5
44068,110034,5
44047,110124,5
44128,110245,4
44130,110234,5
44217,110246,5
44128,110230,5
44078,110123,5
43992,109968,4
44019,109981,5
44027,110088,5
44106,110204,5
44127,110285,5
44211,110427,4
44310,110676,5
44408,110836,5
44412,110792,5
44346,110618,5
44285,110567,4
44277,110569,6
44289,110591,4
44348,110643,5
44447,110920,5
44558,111136,6
44623,111240,3
44665,111227,5
44673,111320,5
44707,111409,4
44783,111581,5
44898,111852,4
45053,112153,5
45174,112359,5
45183,112347,4
45138,112345,5
45075,112129,5
44997,111968,5
44896,111801,5
44865,111859,4
44930,111933,5
45045,112164,5
45133,112318,5
45170,112385,5
45198,112420,4
45223,112458,5
45231,112506,6
45324,112742,4
45524,113137,5
45675,113423,4
45727,113500,5
45719,113501,5
45723,113492,5
45688,113431,5
45650,113374,4
45650,113401,5
45706,113501,5
45729,113547,5
45739,113560,4
45743,113593,4
45802,113691,5
45856,113810,5
45902,113893,5
45923,113941,4
45992,114118,5
46128,114392,5
46241,114611,5
46324,114748,5
46396,114347,4
46442,114422,5
46427,114381,5
46395,114350,6
46402,114372,4
46438,114420,4
46405,114331,5
46338,114204,5
46297,114144,5
46278,114128,5
46265,114094,4
46268,114102,5
46284,114140,5
46290,114126,5
46245,114015,5
46140,113843,4
46104,113761,5
46072,113750,5
46067,113748,5
46074,113769,4
46138,113907,5
46259,114140,5
46324,114219,5
46285,114122,5
46230,114006,5
46170,113907,4
46126,113857,5
46088,113766,5
46059,113726,6
46077,113750,3
46066,113733,5
46014,113602,5
45926,113451,5
45896,113422,5
45900,113433,4
45914,113457,5
45906,113443,5
45913,113469,5
45938,113491,5
45913,113432,4
45869,113369,5
45878,113369,5
45875,113387,5
45889,113380,4
45886,113389,4
45893,113414,5
45902,113402,5
45896,113391,5
45877,113358,4
45863,113349,6
45862,113343,4
45856,113339,5
45854,113333,5
45847,113309,6
45823,113257,3
45758,113100,5
45634,112937,5
45604,112865,5
45608,112859,4
45589,112809,5
45474,112739,5
45537,112757,5
45569,112784,5
45570,112783,4
45472,112756,5
45544,112762,5
45566,112789,5
45572,112792,5
45566,112794,4
45582,112834,5
45621,112873,5
45598,112831,5
45609,112723,4
45481,112607,4
45425,112527,6
45425,112506,4
45482,112429,5
45364,112409,4
45377,112441,5
45387,112444,5
45413,112409,5
45344,112357,5
45312,112286,4
45317,112323,5
45327,112320,5
45306,112286,5
45304,112303,5
45311,112305,4
45306,112225,5
45287,112258,5
45300,112290,5
45359,112427,5
45448,112480,4
45474,112602,5
45493,112645,5
45491,112602,5
45414,112401,5
45317,112288,4
45225,112115,5
45158,112017,6
45168,112072,4
45131,111947,4
45106,111909,4
45134,111962,5
45156,112104,5
45169,112003,5
45171,112011,4
45173,112024,5
45198,112145,5
45208,112088,5
45174,112007,5
45139,111972,4
45130,111965,5
45099,111861,5
45056,111793,5
45049,111775,5
45042,111788,4
45058,111800,5
45048,111781,5
45039,111751,5
45043,111738,5
44994,111637,4
44939,111578,5
44929,111548,5
44934,111581,6
44981,111671,4
45015,111706,4
45032,111732,5
45050,111746,5
44997,111631,5
44931,111515,4
44892,111465,4
44872,111436,5
44905,111525,5
44938,111561,5
44936,111538,4
44931,111573,5
44916,111473,5
44756,111142,5
44601,110852,5
44494,110671,4
44494,110701,5
44529,110746,5
44512,110707,5
44496,110713,5
44497,110666,5
44453,110601,4
44410,110493,5
44343,110342,5
44299,110306,5
44331,110356,4
44339,110394,5
44361,110451,5
44439,110616,5
44476,110637,4
44445,110530,9
44348,110352,5
44264,110206,5
44236,110188,4
44263,110227,5
44270,110238,5
44318,110341,5
44335,110350,5
44310,110298,4
44267,110212,5
44210,110110,5
44168,110019,5
44143,109989,5
44124,109978,4
44184,110107,6
44242,110178,4
44195,110062,5
44100,109869,5
43972,109605,4
43811,109311,5
43757,109216,5
43745,109187,5
43733,109187,5
43758,109237,4
43760,109222,5
43737,109172,5
43716,109117,5
43693,109109,4
43734,109179,4
43762,109217,5
43774,109288,5
43886,109491,5
43945,109546,4
43912,109484,5
43853,109337,5
43761,109181,5
43715,109109,5
43656,109021,4
43615,108976,5
43648,109008,6
43660,109012,4
43639,108971,5
43526,108880,4
43552,108798,5
43576,108881,5
43667,109016,5
43613,109055,5
43710,109130,4
43735,109137,5
43694,109049,5
43626,108872,5
43481,108617,5
43387,108484,4
43412,108540,5
43504,108567,5
43430,108541,5
43421,108547,5
43429,108534,4
43486,108483,5
43333,108320,5
43258,108184,6
43248,108199,3
43297,108208,5
43252,108194,5
43259,108196,5
43241,108151,5
43205,108063,4
43155,107963,5
43092,107858,5
43056,107811,5
43082,107801,5
43135,107950,4
43194,108080,5
43241,108134,5
43199,107946,5
43129,107891,5
43077,107809,5
43063,107787,4
43077,107778,5
43082,107832,5
43108,107890,5
43157,107979,4
43159,108015,5
43137,107942,5
43116,107873,5
43078,107801,5
43062,107882,4
43077,107814,5
43115,107924,5
43209,108078,5
43224,108142,4
43192,108025,5
43112,107842,5
43005,107637,5
42939,107532,5
42879,107422,4
42869,107428,5
42895,107459,5
42889,107450,5
42878,107432,5
42874,107403,4
42863,107397,5
42896,107460,5
42905,107465,5
42906,107511,5
42948,107557,4
42907,107461,5
42842,107334,5
42748,107141,5
42663,106977,5
42624,106904,5
42561,106783,4
42532,106715,5
42547,106752,5
42553,106767,4
42568,106784,5
42580,106807,5
42587,106796,5
42574,106797,5
42585,106783,4
42571,106795,5
42599,106834,5
42584,106794,5
42553,106741,5
42516,106662,4
42507,106642,5
42528,106704,5
42558,106747,5
42589,106816,5
42646,106902,4
42613,106835,5
42573,106732,5
42505,106587,4
42406,106396,5
42337,106249,4
42286,106159,7
42260,106145,3
42293,106198,5
42295,106200,4
42304,106206,4
42307,106198,5
42291,106153,5
42265,106147,5
42250,106107,4
42237,106065,5
42236,106079,5
42245,106090,5
42257,106117,5
42269,106141,4
42279,106166,5
42304,106195,5
42312,106195,5
42291,106191,5
42316,106227,4
42326,106215,5
42318,106224,5
42317,106218,6
42319,106238,4
42341,106269,4
42350,106274,5
42340,106260,5
42326,106215,5
42309,106206,5
42318,106224,4
42327,106260,5
42370,106352,5
42398,106378,5
42405,106387,4
42414,106404,4
42413,106397,5
42406,106400,5
42407,106378,5
42373,106336,4
42377,106327,5
42375,106308,5
42299,106229,5
42311,106202,5
42315,106220,5
42344,106289,4
42306,106336,5
42388,106375,5
42409,106377,6
42403,106370,3
42280,106260,5
42299,106190,5
42309,106207,5
42348,106309,5
42416,106392,4
42449,106472,5
42468,106505,5
42452,106447,5
42485,106416,5
42429,106440,4
42425,106423,5
42381,106319,5
42433,106281,5
42315,106205,4
42257,106077,4
42161,105877,5
42124,105799,5
42117,105858,5
42156,105943,4
42190,106000,6
42230,106059,4
42236,106055,5
42215,105996,5
42147,105884,6
42168,105902,3
42222,106051,5
42249,106084,5
42266,106122,5
42273,106040,4
42251,106040,5
42163,105905,5
42132,105871,5
42180,105967,5
42247,106120,4
42308,106203,5
42327,106239,5
42322,106272,5
42299,106158,4
42245,106066,4
42254,106120,5
42316,106335,5
42365,106286,5
42355,106264,4
42331,106225,5
42307,106233,6
42294,106168,4
42322,106258,5
42410,106436,4
42529,106654,5
42544,106651,5
42519,106597,5
42478,106529,5
42455,106471,4
42408,106371,5
42381,106359,5
42429,106484,5
42507,106608,5
42564,106713,4
42626,106827,5
42656,106864,5
42646,106829,5
42597,106768,5
42625,106854,4
42694,106956,5
42707,106959,5
42676,106910,5
42664,106854,4
42629,106796,4
42549,106634,5
42485,106537,6
42485,106554,4
42514,106620,4
42541,106674,5
42559,106712,5
42593,106760,5
42612,106784,5
42585,106741,4
42599,106816,5
42706,106988,5
42724,107006,5
42706,106952,5
42679,106915,4
42643,106836,5
42586,106718,5
42545,106671,5
42607,106840,5
42729,107057,4
42809,107192,5
42865,107284,5
42897,107329,5
42890,107334,5
42863,107293,4
42895,107385,5
42955,107484,5
42991,107553,6
43030,107631,3
43081,107717,4
43108,107765,5
43098,107741,5
43068,107672,5
43062,107684,4
43070,107701,5
43034,107602,5
42917,107390,5
42881,107323,5
42854,107268,4
42798,107166,5
42812,107219,5
42905,107431,5
43033,107663,5
43089,107770,4
43145,107891,5
43240,108054,5
43316,108189,5
43353,108272,5
43424,108452,5
43500,108561,4
43499,108529,5
43446,108412,5
43380,108308,5
43358,108306,4
43369,108325,5
43390,108371,5
43481,108588,5
43650,108918,4
43822,109254,5
43960,109492,5
44017,109557,5
43987,109489,5
43897,109387,4
43908,109372,5
43949,109473,5
43983,109501,5
43885,109413,5
43875,109289,4
43848,109221,5
43815,109178,5
43727,109182,5
43883,109381,5
44035,109677,4
44124,109797,6
44101,109682,4
44035,109621,5
44014,109569,5
43958,109456,4
43951,109335,5
43881,109371,5
43983,109595,5
44111,109808,4
44244,109945,4
44286,110143,5
44393,110359,5
44538,110634,5
44642,110784,4
44641,110811,5
44582,110674,5
44455,110386,5
44236,109936,5
44064,109685,4
44036,109672,5
44091,109812,5
44193,109943,5
44339,110321,5
44535,110663,4
44534,110540,5
44387,110224,6
44328,110199,4
44317,110205,5
44320,110197,4
44335,110259,5
44396,110354,5
44388,110332,5
44342,110234,5
44297,110212,4
44271,110094,5
44272,110101,5
44266,110111,5
44303,110299,4
44356,110278,4
44333,110230,5
44303,110162,5
44242,110088,5
44201,109975,4
44202,109993,5
44238,110079,5
44336,110283,5
44470,110546,5
44490,110460,4
44326,110185,5
44208,109973,5
44131,109841,6
44075,109738,4
44020,109659,4
44044,109730,5
44154,109947,5
44262,110118,5
44270,110110,5
44230,110014,4
44165,109889,5
44103,109787,5
44012,109641,5
43985,109556,5
43980,109585,4
43993,109609,5
43971,109557,5
43941,109520,5
43949,109507,4
43994,109633,5
44094,109827,5
44203,110020,5
44247,110087,5
44247,110057,5
44148,109837,4
44025,109623,5
43984,109568,5
43980,109567,5
43994,109610,4
44082,109804,5
44135,109859,5
44041,109616,5
43839,109219,5
43657,108884,4
43582,108773,5
43597,108822,5
43639,108933,5
43715,109080,5
43821,109288,4
43890,109367,5
43875,109345,5
43876,109357,5
43939,109522,4
44037,109662,4
44029,109633,5
44025,109636,5
43969,109519,7
43855,109264,2
43652,108834,6
43469,108551,4
43436,108527,5
43462,108569,5
43478,108562,4
43499,108663,5
43558,108719,5
43537,108677,5
43511,108640,5
43526,108714,4
43613,108894,5
43720,109102,5
43828,109285,5
43863,109299,5
43801,109160,4
43667,108862,5
43474,108530,5
43389,108429,5
43439,108529,5
43488,108623,4
43506,108649,5
43562,108746,5
43579,108766,5
43563,108722,4
43514,108648,4
43526,108678,6
43591,108830,4
43667,108912,5
43667,108967,4
43720,109039,5
43615,108890,5
43554,108690,5
43458,108538,5
43448,108529,4
43405,108586,5
43505,108658,5
43589,108836,5
43626,108819,5
43498,108653,4
43449,108476,5
43359,108335,5
43340,108308,5
43414,108397,5
43447,108521,4
43508,108657,5
43589,108793,5
43671,108763,5
43490,108526,5
43358,108294,4
43305,108249,5
43395,108309,5
43367,108372,5
43425,108504,4
43496,108605,5
43497,108556,5
43458,108506,5
43426,108456,5
43411,108446,4
43454,108508,5
43525,108681,5
43612,108832,5
43617,108798,5
43481,108436,4
43298,108148,5
43184,107981,5
43178,107999,5
43222,107985,5
43253,108172,5
43347,108340,4
43420,108458,5
43457,108535,5
43450,108451,6
43365,108329,3
43344,108297,5
43358,108386,5
43350,108304,5
43350,108328,4
43372,108357,4
43359,108394,5
43327,108258,5
43293,108197,5
43297,108212,4
43312,108277,5
43322,108278,5
43363,108381,5
43425,108451,5
43414,108426,4
43377,108344,5
43328,108249,5
43286,108182,5
43267,108152,5
43245,108126,4
43260,108150,6
43271,108158,4
43271,108148,5
43267,108135,5
43244,108116,6
43219,108061,3
43184,107978,5
43133,107908,5
43135,107899,5
43116,107866,4
43087,107803,5
43078,107782,5
43066,107760,5
43062,107764,4
43077,107792,4
43091,107802,5
43127,107883,5
43141,107893,5
43104,107822,4
43059,107737,5
43009,107654,5
42990,107597,5
42974,107566,5
42942,107513,4
42944,107534,5
42979,107599,6
43009,107644,4
43017,107661,5
43025,107656,4
43036,107705,5
43075,107751,5
43082,107743,5
43070,107766,5
43066,107726,4
43015,107609,5
42913,107401,5
42812,107240,5
42777,107191,4
42788,107199,4
42771,107187,5
42808,107268,5
42864,107344,5
42871,107340,4
42862,107338,5
42860,107336,5
42868,107353,5
42872,107358,5
42875,107361,4
42895,107444,5
42924,107460,5
42882,107380,6
42841,107292,4
42809,107225,4
42793,107204,5
42800,107238,5
42817,107249,5
42864,107372,5
42909,107398,4
42872,107331,5
42816,107220,5
42727,107043,5
42659,106921,5
42629,106851,4
42591,106782,5
42568,106749,5
42575,106738,5
42551,106704,4
42523,106665,4
42482,106563,5
42442,106507,5
42449,106486,5
42399,106454,5
42428,106485,4
42439,106489,5
42408,106408,5
42325,106373,6
42354,106322,3
42334,106294,5
42352,106291,5
42255,106257,5
42319,106259,5
42355,106339,4
42360,106304,5
42317,106243,5
42298,106185,5
42281,106185,5
42333,106275,4
42429,106340,5
42409,106458,5
42482,106531,5
42440,106468,4
42474,106341,4
42301,106168,5
42219,106021,5
42194,105999,5
42226,106000,4
42223,106070,6
42239,106070,4
42188,105945,5
42106,105765,5
42025,105623,4
41980,105560,5
42013,105622,5
42052,105653,5
42092,105795,5
42169,105911,4
42181,105924,5
42163,105824,5
42119,105830,5
42113,105815,5
42145,105886,4
42179,105899,5
42200,105989,5
42232,106032,5
42208,105984,5
42173,105967,4
42127,105834,5
42128,105845,5
42136,105895,5
42157,105987,4
42156,105929,4
42187,105957,6
42169,105918,4
42141,105908,5
42108,105791,4
42086,105784,5
42114,105824,5
42128,105854,5
42134,105855,5
42119,105834,4
42087,105750,5
42054,105683,5
42014,105627,5
42013,105617,5
42013,105620,4
42002,105607,5
41976,105534,5
41952,105508,5
41961,105525,5
41983,105567,4
42003,105609,5
42029,105663,5
42067,105721,5
42076,105719,5
42058,105693,4
42060,105710,5
42086,105756,6
42103,105792,4
42136,105842,4
42163,105898,5
42169,105911,5
42155,105841,5
42106,105797,5
42129,105837,4
42151,105870,5
42161,105903,5
42195,105979,5
42232,106035,5
42240,106047,4
42226,105991,5
42179,105928,5
42186,105965,5
42236,106056,5
42262,106102,4
42279,106133,5
42296,106133,5
42278,106111,5
42218,106007,5
42197,105987,4
42234,106054,5
42283,106137,5
42314,106219,6
42357,106301,3
42392,106329,4
42373,106296,5
42319,106205,5
42314,106216,5
42352,106278,4
42377,106329,5
42385,106330,5
42394,106331,5
42388,106313,5
42338,106236,4
42316,106231,5
42372,106316,5
42426,106411,5
42451,106485,5
42491,106554,4
42509,106578,5
42480,106505,5
42415,106376,5
42403,106405,5
42449,106512,5
42505,106587,4
42542,106651,5
42564,106684,5
42545,106654,5
42516,106559,4
42456,106487,5
42457,106521,5
42509,106587,5
42524,106618,4
42531,106613,4
42542,106646,5
42572,106715,5
42564,106687,5
42595,106766,4
42662,106898,5
42649,106931,5
42690,106913,5
42647,106822,5
42586,106729,4
42485,106629,5
42468,106495,5
42455,106489,5
42473,106528,5
42441,106589,4
42557,106680,6
42568,106692,4
42543,106629,5
42507,106533,5
42488,106568,4
42557,106681,5
42592,106769,5
42699,106842,5
42692,106984,4
42758,107086,4
42805,107149,5
42861,107160,5
42838,107249,5
42887,107308,4
42828,107202,5
42807,107114,5
42755,107050,5
42708,106981,5
42658,106856,4
42611,106786,5
42649,106894,5
42718,107013,6
42726,106992,4
42698,106885,4
42699,106947,5
42710,106972,5
42720,106998,5
42757,107006,5
42833,107224,4
42860,107275,5
42856,107257,5
42854,107247,5
42851,107236,5
42830,107194,4
42858,107290,5
42979,107638,5
43145,107896,5
43239,108019,4
43259,108064,4
43247,108089,5
43184,107871,5
43105,107751,5
43090,107745,4
43149,107888,5
43227,108028,5
43292,108140,5
43330,108188,5
43342,108213,4
43320,108181,5
43300,108153,5
43342,108262,5
43445,108463,5
43493,108537,4
43481,108509,5
43442,108429,5
43411,108357,5
43362,108282,5
43374,108328,4
43425,108416,5
43442,108452,5
43437,108409,5
43391,108316,5
43351,108261,4
43347,108252,5
43378,108372,5
43524,108651,5
43668,108905,4
43707,108917,4
43592,108710,5
43551,108651,5
43543,108623,5
43478,108478,5
43423,108432,4
43457,108497,5
43477,108509,5
43464,108506,5
43467,108504,4
43491,108522,5
43498,108571,5
43492,108556,5
43493,108551,5
43465,108497,4
43442,108437,5
43355,108259,5
43314,108187,5
43270,108124,5
43271,108151,4
43349,108353,5
43561,108776,5
43797,109223,5
43965,109493,4
44024,109560,4
44027,109565,5
43987,109507,4
43973,109462,5
43971,109502,4
44086,109765,7
44259,110090,3
44323,110185,5
44288,110076,5
44240,109970,4
44162,109823,5
44053,109639,5
44028,109644,5
44123,109790,5
44139,109824,4
44130,109791,10
44084,109720,5
44060,109669,5
44040,109651,4
44102,109811,5
44326,110337,5
44698,111073,5
44914,111333,5
44729,110894,4
44452,110392,5
44254,110009,6
44123,109805,4
44048,109684,4
44067,109768,4
44163,109942,5
44183,109959,5
44151,109867,5
44088,109735,4
44021,109665,5
44054,109704,5
44106,109833,5
44194,110003,5
44228,110159,4
44296,110138,5
44214,109955,5
44122,109813,5
43997,109724,5
43995,109590,4
43979,109594,5
44016,109630,5
43971,109627,5
44014,109611,5
43951,109472,4
43859,109291,5
43851,109216,5
43817,109271,6
43856,109345,4
43891,109397,4
43997,109419,5
43855,109291,5
43794,109170,5
43764,109148,4
43824,109173,4
43839,109328,5
43897,109403,5
43923,109456,5
43959,109470,4
43911,109393,5
43879,109378,5
43938,109490,5
43995,109563,5
44056,109700,4
44075,109679,5
43921,109341,5
43703,108899,5
43566,108698,5
43458,108549,5
43431,108479,4
43418,108417,5
43482,108622,5
43517,108663,6
43528,108679,3
43526,108695,5
43506,108619,5
43489,108589,5
43496,108613,4
43524,108737,4
43527,108652,5
43423,108373,5
43165,107853,5
42988,107627,4
42897,107419,5
42887,107408,5
42914,107472,5
42956,107590,5
43050,107721,4
43024,107664,5
42993,107588,5
42910,107413,5
42824,107267,5
42808,107262,4
42823,107263,6
42847,107330,4
42890,107377,5
42827,107213,5
42645,106853,4
42450,106460,5
42300,106172,5
42261,106135,5
42286,106185,5
42336,106323,4
42423,106435,5
42428,106471,5
42453,106501,5
42450,106475,4
42436,106499,4
42551,106708,5
42650,106917,5
42747,107098,5
42832,107258,4
42809,107158,5
42690,106926,5
42592,106767,5
42546,106680,5
42522,106632,4
42497,106593,5
42476,106554,6
42450,106469,4
42411,106419,5
42394,106361,4
42355,106317,5
42387,106402,5
42408,106425,5
42404,106417,5
42401,106369,4
42347,106268,5
42291,106177,5
42262,106116,5
42210,106010,5
42189,105983,4
42169,105941,5
42194,106018,5
42266,106150,5
42274,106084,4
42104,105716,4
41911,105327,5
41758,105041,5
41694,104967,5
41764,105141,4
41932,105498,5
42059,105686,5
42039,105626,6
41963,105446,4
41830,105175,4
41718,104985,5
41716,105016,5
41771,105127,5
41858,105307,5
41909,105365,4
41850,105205,5
41677,104859,5
41513,104513,5
41396,104336,5
41428,104405,4
41526,104638,5
41642,104800,5
41611,104697,5
41470,104387,4
41300,104020,4
41124,103686,5
41067,103582,5
41057,103574,5
41076,103634,5
41144,103783,4
41203,103867,5
41191,103849,5
41170,103765,6
41116,103702,3
41134,103747,5
41107,103768,5
41156,103767,5
41189,103855,5
41232,103925,4
41179,103927,5
41207,103831,5
41154,103732,5
41125,103703,5
41058,103629,4
41038,103529,5
40988,103398,5
40888,103191,5
40839,102992,5
40743,102902,4
40714,102860,5
40726,102875,5
40804,102888,5
40756,102973,4
40869,103204,5
40944,103328,4
41001,103334,5
40924,103244,5
40857,103112,4
40823,103084,5
40839,103064,5
40798,103032,5
40816,103066,5
40828,103077,4
40791,102946,5
40743,102879,5
40668,102718,5
40637,102720,5
40679,102739,4
40745,102952,5
40858,103141,5
40810,103007,5
40687,102692,5
40563,102501,5
40449,102275,4
40407,102201,5
40394,102214,5
40429,102265,5
40494,102378,4
40494,102364,6
40487,102420,4
40454,102253,5
40400,102185,4
40409,102221,4
40425,102291,5
40455,102301,5
40428,102215,5
40352,102028,4
40289,101914,5
40244,101843,5
40255,101865,5
40306,101968,5
40328,102013,4
40341,102042,5
40328,101970,5
40246,101790,5
40166,101624,5
40088,101487,4
40061,101427,5
40058,101427,5
40033,101386,5
40062,101448,5
40116,101538,4
40107,101470,5
40024,101322,6
39903,101028,4
39761,100725,5
39710,100642,4
39692,100635,5
39744,100755,5
39809,100840,5
39801,100812,4
39753,100695,4
39675,100521,5
39590,100379,5
39544,100277,5
39502,100195,4
39527,100245,5
39510,100172,5
39442,100007,5
39364,99813,5
39287,99688,4
39286,99683,5
39306,99733,5
39373,99911,5
39466,100075,5
39481,100053,4
39446,100000,5
39425,99961,5
39401,99919,5
39394,99894,5
39388,99882,4
39411,99938,5
39430,99980,5
39401,99912,5
39371,99860,4
39349,99800,4
39304,99734,5
39278,99653,5
39249,99607,5
39262,99640,4
39278,99655,5
39272,99615,5
39279,99629,5
39271,99604,5
39251,99568,4
39242,99570,5
39280,99680,5
39332,99731,5
39290,99645,5
39225,99526,5
39180,99398,4
39128,99304,5
39123,99292,5
39137,99330,5
39167,99396,4
39189,99419,5
39175,99416,5
39202,99441,5
39193,99426,5
39179,99410,4
39169,99379,5
39153,99365,5
39148,99356,5
39167,99378,4
39164,99386,4
39154,99378,5
39163,99380,5
39164,99381,5
39157,99372,4
39141,99321,5
39125,99290,5
39116,99281,5
39065,99292,5
39133,99326,4
39169,99383,6
39176,99398,4
39119,99400,5
39174,99396,5
39181,99445,4
39247,99566,5
39275,99631,5
39283,99587,5
39228,99473,5
39166,99350,4
39161,99248,5
39083,99214,5
39094,99251,5
39156,99390,5
39294,99520,4
39232,99506,5
39206,99417,5
39146,99326,5
39126,99229,4
39094,99255,4
39152,99377,5
39207,99468,5
39233,99497,4
39226,99496,4
39221,99472,5
39229,99496,5
39253,99523,5
39310,99689,5
39321,99693,4
39276,99566,5
39179,99338,5
39128,99259,5
39068,99154,5
39048,99097,4
39063,99140,5
39111,99258,5
39149,99301,5
39158,99360,5
39222,99491,4
39265,99546,5
39307,99640,5
39305,99654,5
39326,99769,5
39321,99660,4
39262,99523,5
39138,99259,5
39069,99201,6
39059,99115,3
39040,99088,4
39047,99132,5
39121,99297,5
39203,99450,5
39278,99590,4
39303,99628,5
39316,99650,5
39340,99686,5
39320,99664,5
39326,99710,4
39379,99803,5
39407,99822,5
39396,99773,5
39343,99690,5
39309,99619,4
39270,99537,5
39216,99461,5
39217,99446,5
39218,99450,5
39214,99447,5
39220,99473,4
39236,99492,5
39237,99500,5
39252,99546,6
39300,99641,3
39393,99837,5
39478,99995,5
39499,100000,5
39436,99858,4
39383,99773,5
39345,99676,5
39291,99593,5
39314,99677,5
39411,99893,4
39503,100049,5
39534,100079,5
39513,100022,5
39439,99878,5
39358,99699,4
39311,99650,5
39360,99759,5
39457,99964,5
39529,100134,5
39654,100397,4
39796,100657,6
39853,100743,4
39835,100698,5
39837,100721,5
39841,100704,6
39803,100666,3
39787,100628,5
39797,100666,5
39834,100718,4
39841,100739,4
39829,100728,5
39829,100705,5
39792,100638,5
39746,100547,4
39724,100506,5
39716,100487,5
39737,100515,5
39745,100529,5
39742,100556,4
39814,100723,5
39931,100952,5
39966,100997,5
39968,101009,5
39959,100948,4
39888,100794,5
39785,100606,6
39730,100527,4
39769,100613,7
39838,100772,2
39917,100935,5
39982,101034,5
40006,101050,5
40020,101101,5
40036,101162,4
40101,101329,5
40172,101445,5
40174,101431,5
40127,101327,4
40093,101262,4
40042,101182,5
40024,101129,5
40032,101131,5
40051,101195,4
40061,101331,5
40186,101452,5
40169,101401,5
40129,101318,5
40036,101270,4
40071,101221,5
40085,101270,5
40120,101329,6
40144,101380,4
40157,101418,4
40177,101439,5
40184,101459,5
40268,101521,5
40254,101624,5
40332,101806,4
40448,102034,5
40560,102074,5
40443,101966,5
40393,101866,5
40362,101791,4
40338,101677,5
40261,101633,5
40285,101697,5
40369,101867,4
40450,102023,4
40539,102224,5
40614,102342,5
40639,102374,5
40642,102325,5
40668,102444,4
40716,102529,5
40736,102580,5
40741,102524,6
40725,102537,4
40709,102499,4
40671,102441,5
40643,102347,5
40661,102441,5
40716,102571,4
40761,102659,5
40813,102811,5
40883,102915,5
40952,103051,5
41004,103166,4
41040,103290,5
41064,103280,5
41113,103360,5
41117,103386,5
41088,103331,4
41017,103152,5
40963,103053,5
40878,102886,5
40810,102790,4
40821,102807,6
40858,102885,4
40891,102934,5
40904,102968,5
40937,103028,4
40970,103103,5
40984,103115,5
40998,103158,5
41053,103267,5
41061,103272,4
41048,103247,5
41031,103183,5
40990,103134,5
40981,103095,5
40939,103057,4
40934,103040,5
40966,103095,5
40969,103102,5
40959,103064,5
40935,103021,4
40911,102972,5
40896,102943,5
40875,102899,5
40868,102898,4
40884,102939,4
40903,102951,6
40900,102958,4
40915,103002,5
40958,103084,4
40984,103140,5
41019,103197,5
41062,103288,5
41091,103354,5
41117,103373,4
41111,103364,5
41119,103391,5
41132,103424,5
41157,103453,5
41148,103451,4
41143,103451,5
41154,103471,5
41156,103452,5
41119,103377,5
41096,103332,4
41092,103347,5
41091,103353,5
41098,103365,5
41098,103389,5
41109,103398,4
41116,103403,5
41108,103380,6
41109,103372,4
41119,103410,4
41129,103424,4
41124,103413,5
41117,103419,5
41117,103412,5
41127,103408,4
41113,103403,5
41127,103432,5
41157,103490,5
41181,103530,5
41195,103556,4
41210,103580,5
41209,103572,5
41193,103531,5
41161,103461,5
41121,103402,4
41128,103434,5
41149,103449,5
41150,103461,5
41159,103494,5
41198,103558,4
41225,103610,5
41250,103675,5
41285,103720,5
41302,103758,5
41328,103823,4
41367,103897,5
41424,104031,5
41454,104113,5
41481,104106,4
41473,104099,4
41450,104053,5
41382,104027,5
41447,104043,5
41446,104042,4
41433,104008,5
41352,103984,5
41419,104003,5
41412,103981,5
41406,103957,4
41393,103940,5
41406,103977,5
41423,104013,5
41424,104020,5
41498,104037,5
41453,104069,4
41469,104082,5
41466,104077,5
41534,104075,5
41480,104121,4
41498,104160,5
41503,104177,5
41545,104202,5
41529,104234,4
41537,104247,4
41533,104246,5
41547,104262,5
41559,104313,5
41579,104364,4
41588,104356,5
41575,104308,5
41591,104384,5
41603,104400,5
41613,104401,4
41586,104306,5
41590,104382,6
41606,104384,4
41596,104374,5
41587,104351,4
41604,104396,7
41610,104408,3
41599,104381,5
41585,104410,5
41586,104364,4
41587,104383,5
41580,104371,5
41581,104451,5
41594,104393,5
41600,104402,4
41595,104386,5
41592,104417,5
41581,104370,5
41580,104392,4
41593,104383,4
41580,104385,5
41575,104360,5
41576,104322,5
41555,104296,4
41518,104242,5
41484,104193,5
41484,104181,5
41471,104153,5
41445,104106,4
41436,104094,5
41429,104079,6
41399,104016,4
41373,103972,5
41367,103971,4
41392,104008,5
41385,103973,5
41359,103933,5
41348,103921,5
41340,103922,4
41343,103909,5
41322,103868,5
41317,103850,5
41313,103846,5
41316,103838,4
41300,103837,5
41312,103854,5
41303,103831,5
41310,103826,4
41294,103805,5
41279,103787,5
41276,103788,5
41279,103781,5
41264,103763,4
41269,103755,5
41256,103756,5
41253,103730,5
41238,103705,5
41218,103681,4
41235,103684,5
41239,103694,5
41224,103668,5
41200,103645,5
41205,103637,4
41199,103618,5
41164,103562,5
41153,103522,5
41147,103524,5
41153,103541,4
41144,103512,5
41139,103506,5
41138,103500,5
41118,103458,5
41091,103385,4
41045,103316,4
41020,103279,5
41024,103278,5
40994,103211,5
40968,103170,3
40974,103174,5
40957,103147,5
40946,103129,5
40936,103109,4
40925,103075,5
40925,103082,5
40907,103035,5
40897,103017,5
40897,103005,4
40874,102966,5
40847,102936,5
40840,102913,5
40830,102898,5
40840,102905,4
40828,102884,5
40824,102883,5
40825,102881,5
40803,102846,5
40797,102814,4
40768,102763,6
40753,102759,4
40756,102743,5
40734,102691,4
40679,102669,6
40716,102659,8
40628,102473,9
40628,102473,5
40609,102378,8
40589,102384,5
40578,102373,5
40599,102345,8
40574,102343,5
40544,102349,5
40560,102346,8
40562,102320,5
40552,102343,5
40572,102353,5
40547,102294,2
40511,102224,2
40478,102144,4
40444,102091,5
40423,102068,6
40417,102014,4
40376,101961,5
40377,101955,4
40353,101893,5
40321,101843,5
40326,101851,5
40334,101881,4
40345,101904,4
40361,101927,5
40372,101950,5
40378,101951,5
40374,101938,4
40359,101920,5
40356,101902,5
40370,101910,5
40358,101909,5
40360,101915,4
40353,101891,5
40332,101846,5
40328,101847,5
40330,101855,5
40326,101865,4
40330,101860,5
40325,101843,5
40307,101805,6
40289,101780,4
40277,101768,4
40294,101780,5
40295,101800,5
40345,101892,5
40371,101965,5
