RED,IR,EKG,TIME
65210,144843,8
65204,144850,8
65195,144863,7
65206,144842,5
65201,144829,8
65184,144826,7
65180,144799,5
65142,144732,8
65142,144732,7
65120,144726,5
65134,144723,8
65138,144719,7
65121,144719,7
65135,144736,8
65135,144736,7
65135,144728,5
65142,144728,10
65137,144741,9
65121,144725,8
65121,144725,7
65139,144710,10
65109,144711,8
65113,144695,5
64897,144660,8
64897,144660,7
65103,144660,9
65083,144641,10
65081,144642,5
65193,144610,8
65193,144610,7
65022,144594,9
65047,144607,10
65052,144595,9
65052,144595,10
65162,144587,9
65020,144544,10
65020,144544,5
65017,144530,5
65014,144535,10
65014,144402,5
65009,144530,5
64998,144515,10
64998,144515,5
65000,144508,5
64999,144382,10
64996,144510,5
64996,144499,5
65002,144497,10
65017,144613,5
64992,144482,5
64979,144468,10
64979,144468,5
64970,144414,7
64969,144588,8
64966,144449,9
64969,144456,10
64969,144456,5
64964,144456,7
64957,144453,8
64961,144444,5
64950,144439,7
64919,144374,8
64919,144374,5
64912,144376,7
64906,144359,8
64892,144320,5
64897,144333,6
64908,144332,8
64911,144316,5
64884,144291,7
64836,144241,8
64836,144241,5
64799,144220,7
64823,144225,8
64824,144210,5
64797,144175,7
64797,144140,8
64802,144202,9
64802,144202,5
64969,144456,8
64814,144204,7
64808,144197,5
64799,144191,8
64793,144200,7
64802,144187,10
64802,144187,7
64793,144180,5
64797,144168,8
64792,144191,7
64787,144178,5
64766,144141,8
64766,144141,7
64731,144132,5
64748,144112,8
64746,144115,7
64753,144133,7
64695,144024,8
64695,144024,7
64680,143985,5
64664,143940,8
64639,143906,7
64610,143864,10
64547,143785,7
64547,143785,5
64534,143763,8
64504,143752,7
64519,143722,5
64525,143695,5
64496,143709,10
64480,143662,5
64384,143578,5
64438,143604,10
64438,143604,5
64439,143594,5
64438,143588,10
64236,143595,5
64441,143594,5
64415,143548,10
64415,143548,5
64414,143555,5
64606,143569,10
64447,143583,5
64432,143591,7
64419,143617,8
64639,143632,5
64468,143640,7
64526,143745,8
64526,143745,9
64551,143770,10
64615,143707,9
64615,143707,10
64622,143856,5
64630,143909,7
64642,143910,8
64645,143715,5
64654,143934,7
64654,143934,8
64646,143946,5
64642,143918,7
64645,144129,8
64651,143946,5
64658,143983,7
64692,144001,8
64692,144001,5
64676,144101,7
64683,144032,8
64710,144028,5
64702,144027,7
64694,143991,13
64694,143991,10
64693,144011,9
64665,143962,9
64665,143962,8
64662,143905,7
64665,143954,8
64671,143979,5
64677,143972,7
64660,143953,8
64660,143953,5
64658,143930,7
64666,143919,8
64659,143949,9
64651,143955,5
64627,143900,8
64627,143900,7
64627,143868,5
64583,143837,3
64568,143804,1
64553,143747,5
64545,143756,5
64524,143733,4
64511,143720,5
64523,143719,5
64514,143727,5
64508,143713,5
64514,143718,4
64516,143717,5
64500,143707,5
64487,143659,5
64456,143616,5
64429,143596,4
64424,143561,5
64412,143558,5
64415,143536,5
64406,143546,5
64410,143568,4
64423,143572,5
64439,143593,5
64451,143611,5
64455,143623,4
64474,143649,4
64486,143682,6
64502,143705,4
64524,143744,5
64545,143778,4
64562,143803,5
64576,143815,5
64574,143817,5
64573,143820,5
64577,143814,4
64576,143834,5
64579,143828,5
64592,143844,5
64593,143841,5
64588,143854,4
64592,143858,5
64597,143854,5
64611,143867,5
64609,143867,5
64608,143873,4
64613,143876,5
64607,143877,5
64620,143884,5
64495,143894,5
64617,143892,4
64629,143895,5
64618,143910,6
64445,143915,4
64638,143900,4
64635,143920,4
64636,143913,5
64512,143923,5
64640,143916,5
64635,143922,4
64631,143906,5
64743,143900,5
64632,143896,5
64622,143904,5
64629,143914,4
64844,143923,5
64643,143933,5
64641,143926,5
64645,143943,5
64778,143935,4
64644,143948,5
64641,143957,5
64654,143948,5
64674,143939,5
64654,143952,4
64656,143953,5
64657,143953,5
64657,143849,6
64663,143949,4
64650,143963,4
64661,143946,5
64647,143760,5
64645,143951,5
64653,143946,4
64651,143956,5
64659,143794,5
64654,143955,5
64650,143948,5
64649,143952,5
64645,144031,4
64642,143922,5
64638,143918,5
64633,143911,5
64623,144120,4
64628,143908,5
64619,143894,5
64614,143878,5
64618,144039,5
64614,143887,5
64606,143864,4
64610,143881,5
64619,143931,5
64611,143893,5
64614,143902,4
64613,143882,5
64612,143877,5
64613,143876,5
64606,143878,4
64598,143878,4
64600,143858,5
64590,143866,5
64588,143853,5
64584,143859,4
64593,143853,5
64602,143858,5
64585,143870,5
64588,143860,5
64598,143862,4
64605,143862,5
64603,143864,5
64603,143879,5
64594,143865,5
64603,143871,4
64605,143860,6
64604,143863,4
64598,143871,5
64608,143884,5
64600,143886,4
64610,143905,5
64608,143876,5
64608,143881,5
64609,143889,5
64609,143877,4
64600,143870,5
64597,143871,5
64593,143869,5
64598,143864,4
64595,143864,4
64585,143872,5
64598,143868,5
64591,143867,5
64598,143869,4
64592,143877,5
64604,143866,5
64607,143880,5
64614,143888,5
64606,143888,4
64604,143891,5
64619,143906,6
64625,143892,4
64619,143890,5
64621,143904,4
64622,143902,5
64624,143905,5
64620,143910,5
64631,143906,5
64619,143924,4
64633,143923,5
64627,143920,5
64644,143939,5
64644,143944,4
64650,143944,4
64658,143968,5
64657,143974,5
64677,143985,5
64679,143986,4
64680,143998,5
64676,144006,5
64688,144007,5
64681,144021,5
64693,144016,4
64693,144026,5
64689,144024,5
64701,144021,5
64695,144029,5
64705,144045,4
64705,144042,5
64709,144038,5
64661,144053,5
64713,144058,5
64720,144062,4
64718,144064,5
64572,144074,5
64723,144085,5
64737,144095,5
64739,144102,4
64546,144115,5
64750,144119,5
64760,144137,5
64760,144128,4
64733,144136,4
64766,144142,4
64768,144145,5
64772,144135,5
64925,144140,5
64780,144163,3
64792,144172,5
64801,144177,5
65019,144196,5
64800,144218,4
64825,144241,5
64838,144274,5
64957,144323,5
64907,144380,5
64929,144420,4
64944,144426,5
64952,144399,5
64949,144430,5
64930,144412,5
64928,144408,4
64914,144244,5
64923,144402,5
64922,144395,5
64906,144369,5
64911,144168,4
64916,144380,6
64916,144400,4
64927,144398,5
64940,144386,4
64965,144463,6
64985,144509,3
64998,144536,5
65021,144707,5
65022,144565,4
65034,144580,5
65057,144626,5
65081,144904,5
65105,144717,5
65133,144767,4
65157,144806,5
65185,144947,5
65203,144857,5
65224,144907,5
65236,144926,4
65255,144975,5
65267,144978,5
65282,145002,5
65276,145012,5
65294,145035,4
65314,145058,5
65331,145088,6
65338,145110,4
65358,145135,5
65371,145155,4
65385,145182,5
65407,145220,5
65426,145234,5
65427,145245,4
65440,145256,4
65442,145263,5
65444,145270,5
65451,145286,5
65462,145303,4
65467,145306,5
65472,145324,5
65484,145334,5
65487,145349,5
65498,145357,4
65501,145374,5
65512,145378,5
65509,145390,5
65524,145390,5
65517,145393,4
65522,145397,5
65527,145396,5
65520,145409,6
65518,145405,4
65533,145417,4
65537,145416,5
65538,145431,5
65542,145444,5
65543,145441,5
65542,145423,4
65550,145433,5
65535,145425,5
65532,145425,5
65524,145417,4
65539,145405,4
65523,145405,5
65519,145404,5
65523,145395,5
65516,145396,4
65524,145387,5
65516,145401,5
65519,145396,5
65517,145392,5
65516,145382,5
65525,145387,4
65512,145381,5
65509,145375,5
65512,145378,6
65498,145356,3
65487,145351,5
65492,145346,5
65482,145329,5
65477,145331,5
65459,145304,4
65457,145270,5
65438,145253,5
65414,145234,5
65410,145206,5
65389,145172,4
65353,145126,5
65320,145060,5
65274,144988,5
65247,144928,4
65216,144878,4
65182,144814,5
65149,144786,5
65120,144745,5
65086,144681,4
64973,144590,6
64983,144479,4
64921,144361,5
64859,144275,5
64633,144194,4
64767,144133,5
64744,144091,5
64710,144031,5
64453,143947,5
64600,143862,4
64571,143798,5
64531,143731,5
64506,143675,5
64461,143607,5
64432,143575,4
64415,143552,5
64567,143516,5
64385,143505,5
64363,143482,5
64353,143443,4
64534,143416,5
64321,143386,5
64303,143357,5
64283,143339,4
64344,143328,4
64262,143305,6
64254,143282,4
64226,143239,5
64228,143183,4
64208,143219,5
64216,143214,5
64199,143209,5
64207,143046,5
64213,143202,4
64203,143188,5
64180,143147,5
64136,142877,5
64079,142968,5
64007,142847,4
63937,142751,5
63896,142638,5
63855,142613,5
63831,142573,5
63805,142547,4
63794,142688,5
63787,142520,5
63784,142501,5
63778,142508,5
63785,142732,4
63782,142504,5
63787,142525,6
63786,142509,4
63781,142594,4
63780,142497,4
63770,142504,5
63772,142501,5
63788,142550,5
63819,142569,4
63849,142618,5
63870,142653,5
63888,142692,5
63923,142749,5
63953,142798,4
63981,142846,5
64006,142889,5
64024,142915,5
64051,142938,5
64068,142975,4
64090,143007,5
64108,143055,5
64140,143094,5
64158,143134,5
64183,143162,4
64205,143204,5
64230,143242,5
64243,143268,6
64261,143297,4
64282,143341,4
64304,143362,5
64327,143407,5
64360,143461,5
64384,143502,7
64405,143538,2
64443,143562,5
64443,143601,5
64464,143640,5
64469,143648,4
64481,143667,5
64503,143707,5
64521,143730,5
64538,143766,5
64553,143793,4
64579,143802,5
64584,143815,5
64590,143851,5
64605,143876,5
64619,143895,5
64622,143899,4
64627,143897,5
64629,143892,5
64628,143895,5
64626,143889,4
64624,143884,5
64616,143877,5
64620,143899,5
64625,143886,5
64622,143886,4
64618,143882,5
64616,143875,5
64604,143876,5
64605,143864,4
64620,143866,4
64613,143875,5
64610,143873,5
64601,143856,5
64609,143866,4
64616,143870,5
64616,143869,5
64610,143883,5
64625,143909,5
64633,143921,4
64638,143922,6
64645,143944,4
64659,143939,5
64651,143940,5
64654,143934,4
64661,143939,5
64653,143951,5
64649,143935,5
64649,143948,5
64649,143925,4
64647,143945,5
64637,143922,5
64563,143926,5
64630,143899,5
64622,143886,4
64607,143854,5
64423,143833,5
64575,143805,5
64560,143785,4
64544,143755,4
64329,143750,5
64540,143754,5
64525,143737,5
64530,143753,4
64550,143721,5
64502,143690,6
64478,143655,4
64443,143602,5
64586,143542,4
64367,143471,5
64334,143410,5
64291,143363,5
64484,143327,5
64257,143308,4
64235,143263,5
64212,143220,5
64255,143185,5
64162,143149,5
64151,143116,4
64132,143082,5
64121,142986,5
64069,142965,5
64031,142902,5
63991,142855,4
63974,142676,5
63967,142823,5
63960,142824,5
63987,142842,5
63989,142662,4
63997,142862,5
63997,142883,5
63989,142861,5
63975,142773,4
63954,142782,5
63938,142766,5
63915,142741,5
63901,142843,5
63878,142655,4
63865,142650,5
63859,142642,5
63866,142874,5
63879,142656,5
63883,142676,4
63898,142684,5
63917,142837,5
63945,142774,5
63977,142825,5
64007,142872,4
64039,142947,5
64065,142969,5
64091,143010,5
64102,143038,6
64120,143061,3
64137,143085,5
64160,143119,5
64178,143157,5
64208,143211,4
64249,143259,4
64267,143294,5
64275,143316,5
64288,143330,5
64297,143368,4
64331,143410,5
64351,143440,5
64383,143475,5
64378,143488,5
64401,143529,4
64430,143591,5
64456,143613,5
64469,143647,5
64498,143694,5
64531,143755,4
64568,143792,5
64572,143815,4
64589,143826,5
64599,143840,5
64606,143856,5
64621,143882,3
64632,143903,5
64648,143931,5
64668,143960,5
64682,143994,4
64695,144002,5
64714,144024,5
64716,144047,5
64744,144086,4
64755,144109,4
64754,144107,5
64757,144123,5
64770,144137,5
64773,144139,4
64778,144149,5
64789,144161,5
64800,144168,5
64801,144196,5
64814,144210,4
64827,144224,5
64852,144258,6
64854,144263,4
64870,144298,5
64873,144303,4
64880,144317,7
64893,144314,3
64887,144331,5
64893,144330,5
64893,144346,4
64904,144348,5
64913,144362,5
64917,144372,5
64917,144378,5
64924,144386,4
64938,144419,5
64951,144442,5
64980,144471,5
64975,144481,4
64985,144491,4
64993,144496,5
65002,144513,5
65010,144537,5
65018,144538,4
65023,144542,5
65024,144545,5
65025,144538,6
65023,144540,4
65015,144551,4
64939,144537,5
65020,144534,5
65010,144539,5
65026,144539,5
64847,144545,4
65028,144559,5
65023,144554,5
65025,144555,5
64832,144557,5
65029,144551,4
65023,144542,5
65037,144549,5
65057,144541,5
65020,144533,5
65010,144510,4
64988,144492,5
65159,144466,5
64967,144432,5
64954,144416,5
64938,144406,4
65117,144378,5
64926,144370,5
64918,144369,6
64911,144359,3
64954,144322,5
64869,144271,5
64851,144251,5
64827,144220,5
64799,144100,4
64764,144089,5
64724,144019,5
64655,143919,5
64613,143688,5
64585,143802,4
64551,143756,5
64543,143749,5
64548,143550,5
64549,143771,5
64558,143779,4
64569,143774,5
64565,143771,5
64553,143779,5
64559,143781,5
64565,143787,5
64564,143972,4
64566,143800,5
64562,143778,5
64558,143781,6
64554,143992,3
64559,143762,5
64538,143738,5
64525,143710,5
64490,143753,4
64467,143594,5
64434,143556,5
64412,143527,5
64398,143521,5
64384,143485,4
64376,143450,5
64351,143431,5
64351,143445,5
64349,143446,5
64352,143435,4
64354,143443,5
64346,143436,5
64342,143408,5
64332,143404,5
64330,143400,4
64325,143394,6
64332,143396,4
64333,143395,5
64337,143406,5
64348,143420,4
64342,143425,5
64349,143421,5
64352,143429,5
64353,143429,4
64354,143428,4
64338,143420,5
64345,143431,5
64342,143427,5
64353,143433,4
64343,143433,5
64346,143431,5
64341,143416,5
64339,143402,5
64324,143382,4
64311,143377,5
64312,143366,5
64300,143355,5
64303,143339,5
64298,143337,4
64280,143329,5
64274,143303,6
64263,143279,4
64241,143256,5
64227,143216,4
64199,143176,5
64180,143137,5
64157,143113,5
64129,143077,5
64124,143055,4
64106,143023,5
64088,143000,5
64078,142963,5
64058,142924,4
64031,142912,4
64023,142889,5
64019,142873,5
64005,142849,5
63998,142833,4
63974,142809,5
63956,142771,5
63923,142703,5
63876,142627,5
63851,142596,4
63831,142561,5
63797,142508,5
63771,142443,6
63729,142385,4
63681,142307,4
63641,142241,5
63613,142183,5
63574,142125,5
63550,142078,5
63533,142069,4
63520,142037,5
63500,142007,5
63463,141957,5
63442,141919,5
63419,141886,4
63398,141850,5
63383,141812,5
63258,141788,5
63348,141768,4
63327,141732,4
63317,141721,5
63127,141697,5
63284,141654,5
63257,141610,5
63234,141565,4
63030,141540,5
63197,141527,5
63195,141522,6
63195,141515,3
63257,141516,5
63193,141509,5
63183,141494,5
63173,141494,5
63365,141479,4
63159,141465,5
63148,141452,5
63144,141438,5
63290,141397,5
63108,141390,4
63099,141351,5
63077,141310,5
63094,141276,5
63039,141261,5
63021,141241,4
63010,141213,5
63004,141110,5
62976,141144,5
62950,141126,4
62932,141083,5
62915,140885,4
62902,141034,5
62911,141041,5
62916,141043,5
62914,140856,4
62912,141039,5
62916,141057,5
62915,141042,5
62909,141077,4
62919,141055,5
62917,141057,5
62930,141070,5
62925,141254,5
62932,141074,4
62931,141078,5
62924,141072,5
62923,141271,5
62928,141069,5
62931,141084,4
62940,141077,5
62941,141150,5
62937,141089,5
62938,141086,5
62940,141083,4
62936,141079,6
62932,141073,4
62929,141062,5
62935,141069,4
62931,141076,4
62931,141075,5
62932,141067,5
62928,141068,5
62928,141066,4
62924,141072,5
62940,141081,5
62933,141083,5
62942,141090,5
62947,141097,4
62948,141109,5
62960,141121,5
62964,141133,5
62969,141139,5
62970,141150,4
62979,141151,5
62986,141168,5
62982,141152,5
62983,141169,5
62979,141166,4
62995,141169,5
62986,141172,6
63000,141181,4
62999,141182,5
63007,141190,4
62999,141190,5
62992,141175,5
62984,141176,5
62988,141160,4
62991,141166,4
62982,141152,5
62977,141142,5
62977,141139,5
62974,141146,4
62968,141150,5
62976,141142,5
62975,141153,5
62982,141172,5
62992,141162,4
62987,141155,10
62985,141149,5
62977,141147,5
62970,141137,4
62965,141130,5
62963,141116,5
62953,141115,5
62943,141089,5
62932,141073,4
62925,141061,5
62917,141057,5
62920,141049,5
62922,141054,5
62922,141054,4
62917,141040,5
62902,141024,5
62886,140993,5
62867,140970,4
62851,140941,4
62838,140914,5
62818,140876,5
62805,140882,5
62810,140868,4
62803,140872,5
62810,140871,5
62789,140832,5
62758,140796,5
62752,140770,5
62729,140722,4
62694,140675,5
62664,140636,5
62648,140606,5
62633,140580,4
62618,140554,5
62505,140525,5
62584,140494,5
62570,140471,5
62547,140452,4
62364,140435,5
62530,140412,5
62522,140403,5
62498,140366,5
62310,140348,4
62476,140304,5
62455,140280,5
62430,140251,5
62487,140229,4
62404,140186,4
62377,140157,6
62373,140142,4
62549,140116,5
62339,140084,4
62323,140056,6
62302,140011,4
62429,139991,5
62253,139950,5
62250,139938,4
62236,139918,5
62276,139919,5
62238,139922,5
62226,139918,5
62236,139929,4
62234,139855,5
62235,139925,5
62232,139926,5
62237,139916,5
62236,139762,4
62242,139925,5
62247,139942,5
62262,139955,5
62278,139789,5
62293,140007,4
62304,140027,5
62306,140031,6
62296,140054,4
62304,140036,4
62294,140013,4
62283,140000,5
62284,140168,5
62279,139975,5
62259,139970,4
62248,139948,5
62252,140131,5
62244,139936,5
62236,139922,5
62242,139931,4
62243,139994,5
62240,139937,5
62233,139917,5
62220,139923,5
62229,139899,4
62215,139909,5
62214,139876,5
62185,139833,5
62166,139810,5
62146,139763,4
62136,139750,5
62099,139693,5
62065,139650,6
62051,139623,4
62039,139591,4
62012,139567,5
62009,139545,5
61994,139520,5
61993,139521,5
61988,139507,4
61968,139482,5
61961,139466,5
61954,139450,5
61938,139431,4
61926,139406,4
61912,139394,5
61919,139392,5
61906,139390,5
61900,139374,4
61890,139351,5
61875,139314,5
61863,139288,5
61834,139268,5
61830,139243,5
61822,139232,4
61806,139213,5
61791,139171,5
61755,139129,6
61739,139082,3
61710,139028,5
61673,139000,5
61667,138967,5
61643,138944,5
61628,138914,4
61605,138892,5
61588,138845,5
61565,138801,5
61540,138782,5
61535,138761,4
61519,138752,5
61499,138711,5
61487,138690,5
61473,138666,4
61463,138624,4
61440,138610,5
61440,138597,5
61428,138591,5
61428,138586,4
61431,138590,6
61433,138591,4
61431,138606,5
61442,138598,5
61437,138605,6
61451,138612,3
61462,138648,5
61473,138685,5
61510,138737,5
61550,138796,4
61586,138861,5
61621,138889,5
61633,138921,5
61636,138942,5
61653,138945,4
61647,138948,5
61657,138960,5
61668,138965,5
61680,138995,5
61693,139024,4
61712,139054,5
61726,139077,5
61744,139104,5
61660,139129,4
61772,139165,4
61808,139209,6
61827,139235,4
61678,139300,5
61888,139339,4
61909,139368,5
61914,139376,5
61765,139407,5
61942,139437,5
61959,139466,4
61993,139517,5
62103,139581,5
62059,139616,5
62088,139673,5
62119,139754,4
62370,139808,5
62198,139844,5
62192,139857,5
62211,139892,5
62379,139912,4
62250,139944,5
62291,140008,5
62326,140086,5
62410,140141,5
62402,140212,4
62442,140264,5
62468,140301,6
62500,140267,4
62518,140394,4
62546,140435,4
62583,140488,5
62605,140382,5
62636,140586,5
62665,140628,5
62683,140672,4
62707,140529,5
62741,140760,5
62777,140810,5
62802,140863,4
62843,140971,5
62880,140990,5
62895,141032,5
62924,141079,5
62967,141348,4
63004,141217,5
63046,141283,5
63083,141358,5
63132,141615,5
63177,141485,4
63200,141537,5
63241,141593,5
63263,141696,6
63282,141672,4
63313,141701,4
63334,141747,5
63358,141795,5
63385,141841,5
63412,141879,4
63432,141933,4
63455,141966,5
63482,142001,5
63496,142017,5
63501,142042,4
63515,142049,5
63514,142056,5
63509,142065,5
63525,142065,5
63535,142070,4
63538,142087,5
63553,142104,5
63567,142156,5
63590,142190,5
63630,142246,5
63664,142308,4
63683,142333,5
63718,142397,5
63754,142450,5
63779,142496,4
63817,142542,5
63839,142602,5
63881,142659,5
63923,142744,5
63966,142828,4
64025,142898,5
64070,142978,5
64113,143057,5
64163,143123,4
64200,143197,4
64241,143261,5
64272,143319,5
64316,143389,5
64363,143470,4
64392,143536,5
64450,143615,5
64504,143681,5
64529,143762,5
64579,143829,4
64621,143892,6
64642,143928,4
64674,143972,5
64691,144008,5
64704,144042,4
64730,144075,5
64753,144106,5
64763,144136,5
64786,144161,5
64798,144194,4
64814,144226,5
64834,144255,5
64847,144280,5
64872,144314,5
64887,144339,4
64913,144380,5
64937,144419,5
64959,144441,5
64990,144496,4
65021,144551,4
65045,144599,5
65081,144651,5
65104,144710,5
65128,144742,4
65150,144772,5
65157,144788,6
65174,144812,4
65177,144822,5
65191,144846,4
65203,144849,5
65206,144857,5
65202,144873,5
65200,144866,5
65214,144865,4
65217,144886,5
65131,144901,5
65242,144917,5
65259,144965,5
65276,145006,4
65117,145038,5
65325,145057,5
65339,145093,5
65342,145108,5
65160,145117,4
65369,145133,5
65374,145151,5
65380,145183,5
65467,145218,5
65440,145271,4
65463,145315,5
65503,145363,6
65743,145427,4
65573,145486,4
65613,145550,5
65650,145611,5
65848,145641,5
65673,145638,5
65671,145642,4
65669,145623,5
65715,145615,5
65658,145606,5
65657,145633,5
65666,145614,4
65643,145535,5
65655,145617,5
65660,145619,5
65659,145634,5
65671,145461,4
65682,145674,5
65705,145696,5
65719,145724,5
65719,145512,5
65717,145718,4
65707,145712,5
65715,145699,5
65700,145707,5
65699,145677,5
65691,145671,4
65670,145630,5
65656,145795,5
65649,145601,5
65644,145600,4
65641,145589,5
65627,145789,5
65609,145529,5
65589,145494,5
65565,145453,4
65517,145476,5
65499,145350,5
65457,145292,5
65433,145250,5
65393,145191,4
65344,145097,5
65264,144941,5
65183,144808,5
65091,144649,5
64989,144512,5
64930,144406,4
64856,144283,5
64772,144137,5
64695,144018,5
64622,143882,4
64548,143763,5
64495,143690,5
64449,143617,5
64406,143538,5
64348,143454,4
64299,143353,5
64230,143243,5
64167,143129,5
64114,143043,4
64058,142947,4
63990,142848,5
63929,142741,5
63859,142632,5
63782,142504,4
63716,142361,5
63633,142227,5
63562,142123,5
63514,142051,5
63467,141975,4
63421,141894,6
63372,141823,3
63352,141779,5
63317,141739,5
63296,141705,4
63264,141639,5
63211,141560,5
63158,141445,5
63078,141321,5
63006,141198,4
62924,141068,5
62848,140928,5
62780,140815,5
62712,140704,5
62650,140595,4
62588,140512,5
62557,140439,5
62520,140378,5
62476,140313,4
62427,140217,4
62378,140133,5
62324,140080,6
62309,140035,4
62278,140000,4
62256,139939,5
62225,139901,5
62179,139825,5
62148,139772,5
62133,139736,4
62108,139687,5
62084,139673,5
62063,139657,7
62072,139635,3
62044,139614,4
62018,139563,5
61991,139500,5
61967,139463,5
61951,139452,5
61939,139418,4
61922,139392,5
61879,139327,5
61839,139267,5
61818,139228,5
61792,139181,4
61774,139141,5
61752,139110,5
61736,139090,6
61662,139070,3
61723,139076,4
61725,139078,5
61716,139078,5
61574,139088,5
61722,139059,4
61726,139072,5
61721,139084,5
61533,139079,5
61732,139073,5
61729,139080,4
61732,139089,5
61735,139086,5
61733,139103,5
61749,139130,5
61772,139147,4
61951,139176,5
61805,139217,5
61836,139267,5
61879,139327,5
62114,139403,5
61976,139502,4
62039,139596,5
62095,139702,5
62247,139814,6
62214,139882,3
62271,139971,5
62303,140045,5
62349,140066,5
62358,140120,5
62378,140151,4
62398,140190,5
62418,140087,5
62434,140239,5
62442,140257,5
62453,140282,4
62460,140084,5
62458,140287,5
62463,140292,5
62472,140304,4
62475,140244,5
62488,140324,5
62496,140335,5
62505,140370,5
62526,140531,4
62548,140417,6
62577,140457,4
62585,140488,5
62604,140745,5
62624,140554,6
62637,140582,3
62659,140606,5
62665,140740,5
62692,140660,5
62701,140690,4
62721,140717,5
62755,140768,5
62743,140771,5
62757,140770,5
62773,140790,4
62773,140798,5
62777,140803,5
62793,140807,5
62784,140816,4
62801,140831,4
62798,140840,5
62823,140865,5
62825,140887,5
62850,140913,4
62859,140941,5
62885,140969,6
62894,140983,4
62914,141006,5
62923,141014,4
62930,141032,5
62934,141061,5
62939,141064,5
62948,141062,5
62929,141037,4
62918,141021,5
62907,141017,5
62913,141009,5
62911,141009,5
62903,140992,4
62883,140967,5
62873,140962,5
62884,140969,5
62888,140964,5
62885,140976,4
62895,140996,5
62903,141030,5
62915,141030,5
62927,141024,4
62933,141044,4
62939,141055,5
62950,141056,6
62954,141080,4
62954,141103,4
62978,141113,5
62979,141131,5
62988,141146,5
62992,141152,5
63001,141168,4
63013,141180,5
63024,141195,5
63013,141194,5
63013,141185,5
63007,141182,4
63010,141178,5
63002,141162,5
62998,141151,5
63000,141163,5
62993,141143,4
62985,141139,5
62989,141150,5
62989,141127,5
62972,141110,5
62966,141097,4
62945,141046,5
62894,140979,5
62872,140936,6
62825,140869,3
62779,140813,4
62759,140758,5
62734,140715,5
62700,140656,5
62659,140593,4
62603,140508,5
62559,140413,5
62517,140345,5
62471,140276,5
62419,140197,4
62377,140127,5
62324,140083,5
62318,140031,5
62292,139979,5
62259,139940,4
62058,139821,5
62114,139670,5
61999,139480,5
61890,139302,5
61598,139123,5
61704,138989,4
61620,138864,5
61558,138733,5
61437,138652,5
61469,138599,4
61439,138549,5
61412,138530,5
61535,138500,5
61377,138444,5
61323,138366,4
61266,138256,5
61411,138178,5
61156,138068,5
61104,137989,4
61083,137954,5
61159,137917,5
61033,137875,5
61012,137829,5
61002,137809,4
61007,137793,5
60974,137771,5
60962,137754,5
60952,137727,5
60916,137541,4
60869,137592,6
60849,137546,4
60818,137520,5
60799,137303,5
60768,137413,4
60749,137397,5
60742,137386,5
60746,137238,5
60737,137385,5
60757,137417,5
60781,137463,4
60805,137584,5
60816,137496,5
60822,137506,5
60817,137501,4
60817,137698,5
60813,137503,5
60822,137504,5
60826,137512,4
60820,137659,5
60825,137508,5
60829,137522,5
60833,137546,5
60852,137606,4
60876,137583,5
60885,137619,7
60902,137635,3
60907,137666,5
60921,137684,4
60939,137696,5
60952,137723,5
60954,137732,5
60980,137774,5
61014,137825,4
61037,137879,5
61065,137928,5
61089,137945,5
61113,137985,5
61116,137999,4
61124,138005,5
61127,138017,5
61134,138016,5
61145,138048,5
61170,138074,4
61181,138116,5
61216,138150,5
61226,138182,5
61247,138206,4
61250,138227,4
61270,138250,5
61290,138289,6
61325,138322,4
61339,138358,4
61362,138387,5
61372,138397,5
61382,138422,5
61388,138446,5
61404,138478,4
61432,138504,5
61445,138533,5
61460,138562,5
61482,138584,5
61488,138599,4
61505,138627,5
61519,138644,5
61533,138661,5
61531,138679,5
61541,138671,4
61538,138671,5
61543,138688,5
61549,138696,5
61555,138695,5
61545,138700,4
61556,138696,5
61561,138704,5
61556,138717,5
61556,138709,4
61554,138700,4
61548,138691,5
61550,138698,5
61560,138700,5
61552,138687,4
61545,138673,5
61544,138663,5
61523,138672,5
61521,138657,5
61510,138639,4
61499,138601,5
61489,138588,5
61489,138589,5
61470,138589,5
61474,138590,4
61478,138595,5
61491,138599,5
61490,138606,5
61483,138599,5
61489,138599,5
61491,138589,4
61490,138589,5
61485,138594,5
61485,138602,5
61486,138604,4
61495,138607,5
61494,138605,5
61393,138608,5
61495,138600,4
61486,138608,4
61491,138595,5
61307,138583,5
61483,138582,5
61477,138578,4
61457,138556,5
61309,138544,5
61441,138544,5
61438,138517,5
61446,138521,4
61527,138518,5
61451,138517,5
61444,138524,5
61439,138513,5
61627,138506,4
61426,138498,6
61429,138488,3
61415,138458,5
61548,138462,5
61399,138452,4
61397,138458,5
61399,138452,5
61449,138456,5
61410,138463,5
61406,138462,4
61407,138465,5
61410,138389,5
61406,138471,5
61408,138479,5
61411,138462,4
61404,138295,5
61402,138457,5
61401,138451,5
61391,138447,4
61387,138256,4
61387,138441,5
61394,138441,6
61394,138439,4
61391,138471,4
61391,138431,5
61380,138426,5
61374,138422,5
61380,138598,5
61373,138406,4
61370,138414,5
61366,138417,5
61365,138599,5
61362,138417,5
61373,138419,4
61375,138406,5
61364,138468,5
61357,138387,5
61346,138358,5
61331,138343,4
61326,138341,5
61320,138325,5
61309,138318,5
61315,138311,5
61304,138295,4
61287,138268,5
61257,138216,5
61218,138141,6
61172,138055,3
61118,137990,4
61074,137913,5
61036,137859,5
61013,137791,5
60965,137725,4
60939,137690,5
60926,137649,5
60893,137609,5
60868,137585,5
60876,137585,4
60872,137584,5
60873,137585,5
60841,137533,5
60801,137455,5
60741,137358,4
60689,137263,5
60626,137168,5
60581,137082,5
60536,137021,5
60493,136946,5
60464,136888,4
60423,136845,5
60400,136775,5
60365,136742,6
60352,136714,3
60350,136722,5
60359,136734,5
60357,136740,5
60378,136778,4
60403,136803,4
60397,136804,5
60396,136791,5
60405,136812,5
60411,136822,4
60419,136827,5
60418,136826,5
60412,136805,5
60399,136805,5
60392,136793,4
60388,136792,5
60394,136777,5
60394,136782,5
60390,136788,5
60390,136795,4
60402,136796,6
60396,136798,4
60395,136810,5
60408,136829,5
60433,136854,4
60460,136894,5
60483,136942,5
60494,136972,5
60526,137006,5
60548,137040,4
60574,137077,5
60582,137097,5
60594,137110,5
60600,137130,4
60610,137137,4
60624,137151,5
60624,137178,5
60648,137199,5
60661,137225,4
60682,137260,5
60705,137279,5
60725,137338,5
60739,137364,9
60760,137396,5
60685,137416,6
60794,137424,4
60815,137493,5
60852,137554,4
60700,137576,5
60891,137598,5
60900,137625,5
60906,137644,5
60741,137667,4
60924,137676,5
60930,137676,5
60941,137691,5
60998,137696,5
60956,137707,4
60969,137738,5
60973,137771,5
61184,137803,5
61026,137842,5
61052,137868,4
61075,137910,5
61255,137942,5
61097,137957,5
61107,137965,4
61097,137976,5
61162,137953,5
61102,137951,6
61097,137976,4
61107,137967,4
61116,137907,5
61106,137973,5
61115,137989,5
61116,137996,5
61115,137846,4
61133,138025,5
61151,138064,5
61184,138118,5
61206,137943,5
61208,138159,5
61223,138161,4
61220,138167,5
61233,138180,5
61247,138190,5
61239,138192,4
61236,138207,5
61247,138374,5
61249,138196,5
61248,138211,5
61253,138222,4
61262,138449,5
61272,138235,5
61263,138251,6
61269,138259,3
61273,138352,4
61283,138257,5
61279,138258,5
61282,138275,5
61295,138304,4
61306,138318,5
61311,138329,5
61332,138350,5
61324,138351,5
61327,138334,4
61326,138340,5
61319,138342,5
61330,138340,5
61330,138366,5
61334,138370,4
61349,138376,5
61348,138397,5
61362,138405,5
61368,138409,5
61364,138408,5
61374,138417,4
61372,138434,5
61385,138428,5
61388,138454,5
61408,138469,4
61406,138491,5
61418,138501,5
61423,138522,5
61441,138533,4
61442,138555,4
61460,138568,5
61474,138592,5
61485,138616,5
61486,138621,4
61503,138634,5
61503,138649,5
61511,138667,5
61527,138684,5
61531,138684,4
61544,138698,5
61545,138716,5
61547,138725,5
61559,138728,5
61560,138748,4
61574,138760,6
61588,138769,4
61589,138790,5
61590,138805,5
61600,138816,4
61613,138842,5
61636,138854,5
61646,138872,5
61653,138914,5
61665,138932,4
61690,138970,5
61710,138997,5
61737,139028,5
61750,139067,4
61775,139106,4
61792,139123,5
61797,139155,5
61820,139187,5
61829,139193,4
61843,139214,5
61864,139250,5
61892,139292,5
61912,139323,5
61940,139385,4
61961,139413,5
61981,139452,6
61987,139474,4
62014,139498,5
62033,139535,4
62050,139566,5
62063,139583,5
62079,139610,5
62091,139634,5
62113,139662,4
62121,139672,5
62123,139673,5
62122,139680,5
62065,139684,5
62142,139698,4
62143,139699,5
62139,139700,5
61970,139705,5
62140,139698,5
62140,139700,4
62130,139694,5
61959,139709,5
62151,139736,5
62175,139763,4
62181,139772,5
62176,139779,5
62181,139776,5
62183,139781,5
62180,139787,4
62353,139792,5
62192,139789,5
62188,139800,5
62187,139794,5
62408,139811,4
62195,139813,5
62204,139825,5
62206,139841,5
62298,139849,5
62226,139839,4
62218,139841,5
62225,139847,5
62229,139825,5
62221,139849,5
62229,139862,4
62221,139871,5
62233,139745,5
62237,139887,5
62246,139900,5
62241,139891,4
62242,139688,5
62232,139877,5
62230,139862,5
62231,139852,4
62215,139781,4
62219,139837,5
62217,139836,5
62207,139834,5
62218,139982,4
62213,139833,5
62207,139833,5
62209,139822,5
62206,140039,5
62197,139828,4
62199,139833,5
62205,139832,5
62209,139953,5
62212,139841,5
62217,139836,4
62211,139839,5
62219,139883,5
62226,139846,5
62214,139857,5
62225,139854,5
62226,139867,4
62228,139886,5
62234,139887,5
62240,139886,5
62236,139883,4
62237,139881,5
62237,139881,5
62243,139878,5
62236,139889,4
62241,139884,4
62239,139882,5
62249,139889,5
62251,139903,5
62252,139920,4
62260,139927,5
62276,139945,5
62279,139955,5
62292,139964,5
62299,139990,4
62295,140003,5
62321,140024,5
62329,140039,4
62350,140061,5
62372,140095,4
62389,140130,6
62397,140150,3
62423,140182,5
62432,140199,5
62447,140226,4
62462,140251,5
62474,140277,5
62489,140290,5
62499,140315,5
62514,140347,4
62534,140374,5
62541,140406,5
62558,140412,5
62556,140419,4
62558,140424,4
62559,140431,5
62567,140441,5
62557,140440,5
62570,140441,4
62568,140440,5
62571,140448,5
62566,140440,6
62572,140454,4
62574,140467,4
62586,140469,5
62597,140492,5
62617,140516,5
62619,140527,5
62632,140538,4
62644,140561,5
62642,140559,5
62645,140558,5
62639,140557,5
62651,140586,4
62665,140598,5
62666,140596,5
62674,140616,5
62688,140636,5
62688,140653,4
62693,140668,5
62715,140684,5
62720,140711,5
62743,140737,5
62761,140786,4
62774,140799,5
62779,140818,5
62807,140844,6
62823,140884,3
62844,140926,4
62862,140967,5
62893,140990,5
62907,141018,5
62914,141049,4
62801,141069,5
62942,141087,5
62948,141092,5
62955,141096,5
62771,141116,4
62961,141106,5
62960,141109,5
62963,141119,5
62866,141124,5
62967,141118,4
62966,141146,5
62987,141148,5
63087,141147,5
63002,141183,5
63007,141189,5
63014,141204,4
63223,141230,5
63027,141236,5
63038,141253,6
63039,141265,3
63176,141270,5
63066,141311,5
63071,141315,5
63081,141342,4
63143,141367,4
63118,141404,5
63146,141420,5
63140,141446,5
63156,141361,4
63184,141497,5
63200,141521,5
63204,141535,5
63224,141377,5
63228,141574,5
63237,141584,4
63244,141608,5
63256,141430,5
63267,141631,5
63266,141642,4
63272,141644,6
63286,141722,4
63289,141667,5
63283,141675,5
63302,141682,6
63299,141889,3
63296,141696,5
63316,141707,5
63310,141709,5
63312,141907,4
63327,141726,5
63321,141735,5
63338,141750,5
63338,141813,5
63349,141766,4
63350,141783,5
63360,141782,5
63365,141811,5
63376,141822,4
63391,141843,5
63404,141864,5
63407,141891,5
63423,141911,5
63446,141934,4
63457,141954,5
63470,141985,6
63493,142012,4
63500,142035,5
63525,142047,4
63530,142077,5
63538,142097,5
63564,142132,5
63590,142182,5
63614,142211,4
63633,142249,5
63655,142278,5
63672,142319,5
63693,142356,5
63717,142381,4
63727,142423,5
63751,142441,5
63770,142486,5
63785,142491,5
63795,142513,4
63816,142546,5
63840,142587,5
63881,142656,5
63923,142711,4
63947,142756,4
63950,142761,5
63955,142778,6
63964,142797,4
63975,142817,4
64003,142872,5
64017,142882,5
64023,142878,5
64043,142924,5
64054,142955,4
64078,142984,5
64099,143027,5
64127,143069,5
64155,143112,5
64185,143152,4
64201,143183,5
64203,143214,5
64225,143249,5
64261,143302,5
64303,143368,4
64355,143456,5
64396,143532,5
64453,143614,5
64488,143663,5
64513,143712,4
64537,143758,5
64560,143791,5
64574,143807,6
64586,143825,4
64588,143832,4
64592,143841,5
64597,143838,5
64597,143845,5
64591,143837,4
64589,143831,4
64589,143829,5
64573,143825,5
64585,143825,5
64584,143814,4
64570,143814,5
64572,143808,5
64563,143784,5
64551,143784,5
64544,143759,4
64543,143762,5
64536,143759,5
64469,143756,5
64536,143767,5
64542,143752,5
64543,143760,4
64381,143771,5
64552,143774,5
64546,143778,5
64550,143787,4
64348,143788,5
64560,143791,5
64558,143797,5
64555,143792,5
64565,143800,6
64560,143800,3
64568,143806,5
64570,143814,5
64738,143809,4
64577,143822,4
64583,143829,5
64597,143838,5
64807,143845,5
64589,143855,4
64603,143849,5
64600,143845,5
64681,143845,5
64591,143848,5
64599,143851,4
64600,143854,6
64616,143830,4
64599,143851,5
64606,143846,5
64592,143845,4
64601,143698,5
64595,143856,5
64595,143854,5
64592,143848,5
64593,143643,4
64598,143846,5
64585,143839,5
64592,143842,5
64588,143758,5
64582,143827,4
64574,143821,5
64572,143805,5
64574,143947,5
64566,143801,4
64564,143791,4
64547,143782,5
64552,144000,5
64554,143767,5
64553,143754,4
64536,143753,5
64532,143865,6
64528,143742,4
64532,143732,5
64524,143737,4
64523,143757,5
64507,143702,5
64482,143658,5
64455,143611,5
64431,143564,4
64401,143527,5
64400,143515,5
64374,143469,5
64327,143402,5
64318,143395,4
64308,143379,5
64303,143360,5
64295,143361,5
64297,143376,5
64325,143394,4
64318,143412,5
64334,143407,5
64332,143415,5
64326,143406,5
64334,143434,4
64341,143436,5
64343,143449,7
64356,143459,3
64367,143467,4
64368,143461,4
64361,143460,5
64355,143448,5
64352,143428,5
64341,143422,4
64321,143388,5
64307,143353,5
64286,143323,5
64264,143290,5
64234,143249,4
64215,143205,5
64194,143185,5
64175,143140,5
64151,143113,5
64135,143102,4
64119,143055,5
64106,143042,5
64096,143005,5
64068,142960,5
64036,142920,4
64021,142891,5
63999,142873,5
63995,142875,5
64001,142883,5
64005,142884,4
64012,142894,5
64013,142900,5
64016,142895,5
64010,142890,4
64012,142882,4
64011,142887,5
64009,142882,5
63996,142872,5
64002,142865,4
63995,142860,5
63992,142859,5
63991,142842,5
63985,142840,5
63968,142823,4
63965,142806,5
63957,142781,5
63949,142768,5
63943,142772,5
63937,142764,5
63931,142754,4
63935,142760,5
63925,142745,5
63922,142726,5
63905,142702,4
63888,142682,5
63864,142654,5
63864,142629,5
63846,142605,5
63818,142594,4
63829,142590,5
63830,142570,5
63810,142544,5
63652,142511,4
63765,142477,4
63744,142430,5
63728,142396,5
63504,142357,5
63673,142297,4
63641,142256,5
63622,142216,5
63522,142200,4
63599,142178,5
63593,142181,4
63583,142160,6
63679,142099,3
63511,142036,5
63470,141967,5
63442,141932,4
63643,141911,5
63401,141856,5
63351,141766,5
63320,141702,5
63412,141673,4
63261,141623,5
63225,141559,5
63194,141527,5
63201,141488,5
63165,141467,4
63131,141408,5
63086,141315,5
63022,141106,5
62963,141113,5
62906,141020,4
62863,140968,5
62852,140754,6
62844,140927,4
62844,140914,4
62831,140906,4
62822,140721,5
62803,140868,5
62777,140816,5
62747,140751,4
62697,140762,5
62648,140576,5
62590,140467,5
62521,140357,5
62449,140457,4
62380,140117,5
62308,140032,5
62301,140030,5
62310,140187,5
62310,140049,4
62320,140058,5
62337,140068,5
62329,140118,5
62338,140078,5
62325,140062,4
62331,140061,5
62332,140069,5
62329,140064,6
62320,140067,4
62331,140058,4
62316,140051,5
62323,140049,5
62321,140036,5
62314,140036,4
62304,140036,4
62302,140030,5
62310,140038,5
62315,140037,5
62323,140057,4
62323,140062,5
62335,140075,5
62356,140107,5
62390,140143,5
62403,140177,4
62419,140212,5
62446,140251,5
62462,140295,5
62490,140325,5
62512,140364,5
62538,140416,4
62558,140455,5
62582,140483,5
62599,140507,6
62606,140514,3
62604,140517,5
62608,140521,5
62608,140518,5
62601,140511,5
62607,140532,4
62611,140518,5
62615,140532,5
62614,140537,5
62627,140531,4
62616,140545,4
62615,140536,5
62622,140526,5
62621,140534,5
62613,140527,4
62596,140498,5
62577,140485,5
62584,140483,5
62580,140483,5
62564,140446,4
62552,140424,6
62545,140407,4
62535,140385,5
62511,140367,5
62492,140338,6
62489,140310,3
62473,140298,5
62466,140276,5
62454,140252,5
62435,140225,4
62424,140192,5
62408,140171,5
62392,140155,5
62369,140128,5
62355,140092,4
62316,140011,5
62263,139946,5
62233,139883,5
62209,139854,5
62189,139814,4
62170,139777,5
62142,139723,5
62114,139682,5
62081,139630,4
62051,139578,4
62030,139535,6
62016,139550,4
62025,139551,5
62037,139574,4
62049,139586,5
61962,139588,5
62045,139573,5
62029,139540,5
61994,139479,4
61791,139410,5
61924,139360,5
61914,139342,5
61915,139360,5
61727,139349,4
61923,139361,5
61922,139369,5
61932,139376,5
61984,139397,5
61955,139410,4
61967,139429,5
61976,139428,5
62156,139442,5
61960,139423,5
61949,139405,4
61927,139370,5
62106,139378,6
61924,139379,4
61939,139381,4
61937,139375,4
62000,139378,5
61922,139367,5
61934,139392,5
61935,139391,4
61950,139359,5
61946,139421,5
61961,139423,5
61959,139426,5
61955,139265,4
61961,139424,5
61961,139421,5
61955,139427,5
61957,139240,5
61950,139427,5
61964,139429,4
61955,139426,5
61963,139394,5
61966,139429,5
61970,139438,4
61979,139470,5
61997,139635,5
61985,139469,6
61990,139450,4
61982,139459,4
61981,139668,5
61985,139449,5
61955,139423,5
61922,139365,5
61899,139420,4
61865,139262,5
61832,139205,5
61807,139168,5
61803,139167,4
61802,139156,4
61803,139160,5
61798,139173,5
61813,139181,5
61819,139211,4
61839,139223,5
61852,139259,5
61876,139290,5
61891,139303,5
61897,139321,5
61906,139329,4
61915,139352,5
61922,139376,5
61940,139390,5
61952,139408,4
61961,139423,5
61961,139428,5
61971,139432,5
61971,139432,5
61970,139462,4
61995,139479,5
62012,139505,5
62038,139544,5
62050,139576,5
62077,139616,4
62096,139645,5
62109,139662,5
62112,139665,5
62118,139669,4
62125,139680,4
62116,139672,5
62113,139679,5
62121,139681,5
62121,139692,4
62129,139702,6
62135,139713,4
62135,139728,5
62143,139740,5
62151,139749,4
62166,139774,5
62179,139768,5
62173,139787,5
62187,139793,5
62200,139803,4
62190,139791,5
62194,139802,5
62193,139798,5
62192,139807,5
62193,139806,4
62193,139805,5
62192,139805,5
62194,139805,5
62201,139797,5
62194,139805,4
62204,139817,5
62206,139828,5
62211,139844,5
62224,139858,4
62231,139871,4
62244,139870,6
62247,139886,4
62260,139908,5
62264,139917,4
62274,139944,5
62291,139962,5
62283,139949,5
62277,139949,5
62277,139933,4
62275,139922,5
62258,139919,5
62254,139898,5
62235,139871,5
62226,139863,4
62226,139872,5
62226,139861,5
62228,139855,5
62190,139865,5
62225,139874,4
62230,139869,5
62224,139867,5
62081,139855,5
62225,139849,5
62223,139834,4
62212,139843,5
62020,139831,6
62214,139829,4
62209,139833,5
62209,139818,4
62174,139835,5
62208,139835,5
62213,139835,5
62209,139835,4
62351,139821,4
62198,139806,5
62188,139792,5
62173,139779,5
62373,139767,4
62163,139744,5
62146,139748,5
62145,139733,5
62236,139736,5
62152,139729,5
62146,139731,8
62137,139710,1
62148,139720,5
62136,139716,6
62133,139719,3
62124,139691,5
62119,139562,5
62125,139690,5
62126,139702,5
62128,139706,4
62127,139512,5
62132,139691,5
62132,139686,5
62132,139698,5
62130,139596,4
62136,139708,5
62140,139715,5
62135,139712,5
62141,139832,4
62151,139728,4
62148,139735,5
62156,139736,5
62148,139953,5
62151,139748,4
62162,139750,5
62167,139756,5
62162,139905,5
62168,139766,5
62170,139763,5
62159,139767,4
62172,139804,5
62177,139768,5
62173,139757,5
62169,139772,4
62163,139770,5
62169,139758,5
62172,139771,5
62175,139776,5
62178,139776,4
62179,139787,5
62179,139791,5
62179,139793,5
62185,139806,5
62189,139797,4
62191,139798,5
62195,139807,5
62192,139814,5
62202,139811,4
62196,139826,4
62202,139841,5
62209,139844,4
62209,139839,5
62205,139831,4
62205,139818,6
62197,139799,3
62189,139808,5
62192,139811,5
62183,139793,4
62184,139800,5
62192,139797,5
62175,139789,5
62162,139769,5
62166,139772,4
62166,139777,5
62179,139793,5
62181,139803,5
62187,139808,5
62186,139802,4
62193,139812,5
62199,139829,5
62202,139834,5
62203,139835,5
62212,139843,4
62222,139858,5
62225,139859,6
62237,139864,4
62237,139884,5
62239,139884,4
62241,139898,5
62252,139912,5
62261,139918,5
62265,139929,4
62261,139933,4
62261,139933,5
62262,139934,5
62269,139929,5
62277,139934,4
62268,139951,5
62271,139962,5
62270,139948,5
62277,139949,5
62280,139955,4
62277,139956,5
62283,139960,5
62283,139971,5
62288,139971,5
62290,139981,4
62308,139992,5
62316,140010,5
62308,140012,6
62328,140017,4
62328,140026,4
62333,140044,5
62342,140071,5
62364,140092,5
62379,140128,5
62391,140130,4
62382,140138,5
62387,140135,5
62383,140127,5
62389,140132,4
62270,140144,4
62396,140149,5
62405,140159,5
62411,140179,5
62224,140180,4
62419,140187,5
62424,140187,5
62436,140215,5
62324,140221,5
62448,140244,5
62451,140246,4
62451,140255,5
62574,140264,5
62467,140280,6
62470,140281,3
62478,140281,5
62680,140292,5
62480,140296,5
62489,140302,5
62489,140299,4
62622,140289,5
62490,140297,5
62477,140293,5
62489,140287,5
62514,140280,4
62485,140296,5
62490,140307,5
62478,140305,5
62493,140216,5
62487,140319,4
62499,140333,5
62506,140331,5
62511,140163,5
62521,140361,5
62524,140370,5
62530,140368,4
62512,140163,5
62520,140351,5
62513,140347,6
62513,140345,3
62520,140385,5
62505,140324,5
62501,140315,5
62494,140321,4
62494,140507,5
62497,140320,5
62502,140338,5
62518,140361,5
62527,140556,4
62518,140372,5
62527,140361,5
62519,140372,5
62527,140440,5
62532,140386,4
62528,140397,5
62541,140391,5
62533,140403,5
62542,140391,5
62544,140398,4
62542,140393,6
62542,140384,4
62529,140370,5
62522,140356,4
62517,140356,4
62508,140343,5
62511,140337,5
62495,140320,5
62499,140313,4
62496,140318,5
62496,140318,5
62485,140312,5
62487,140304,5
62471,140276,4
62462,140272,5
62459,140268,5
62470,140272,5
62452,140264,5
62459,140259,4
62466,140270,5
62456,140268,5
62460,140270,5
62465,140270,5
62461,140277,4
62452,140264,5
62461,140268,6
62459,140267,4
62462,140260,5
62458,140255,4
62450,140258,5
62456,140252,5
62444,140240,5
62440,140246,4
62437,140245,4
62429,140243,5
62434,140239,5
62437,140227,5
62439,140232,4
62433,140219,5
62442,140221,5
62427,140223,5
62424,140214,5
62429,140208,4
62414,140217,5
62423,140200,5
62422,140206,5
62432,140210,5
62422,140204,4
62427,140225,5
62425,140216,5
62428,140220,6
62437,140231,4
62435,140232,4
62442,140251,5
62451,140234,5
62441,140236,5
62438,140238,5
62447,140221,4
62435,140228,5
62434,140214,5
62426,140197,5
62416,140193,5
62412,140175,4
62405,140164,5
62383,140142,5
62376,140116,5
62355,140104,4
62355,140084,4
62347,140086,5
62357,140078,5
62355,140094,5
62347,140091,5
62355,140090,4
62363,140108,5
62320,140133,5
62390,140149,5
62405,140191,4
62426,140220,5
62282,140263,5
62469,140292,5
62475,140319,5
62494,140333,4
62310,140345,5
62505,140365,5
62510,140353,5
62501,140347,5
62493,140318,4
62495,140302,5
62483,140313,5
62489,140312,5
62648,140311,5
62477,140297,4
62472,140290,5
62486,140312,5
62715,140351,5
62539,140396,4
62534,140391,5
62542,140417,4
62655,140445,5
62587,140475,5
62596,140472,4
62590,140480,5
62615,140491,5
62635,140578,5
62677,140637,5
62699,140663,4
62708,140536,5
62716,140689,5
62746,140743,5
62765,140798,5
62803,140673,4
62841,140923,5
62895,140999,5
62936,141080,5
62975,141047,5
63005,141188,4
63043,141236,5
63070,141287,5
63092,141460,5
63123,141370,5
63143,141411,4
63161,141447,6
63212,141752,4
63278,141646,5
63333,141753,4
63387,141811,4
63412,141982,5
63433,141901,5
63489,141995,5
63523,142047,4
63563,142167,5
63615,142200,5
63638,142242,5
63663,142285,5
63693,142338,4
63728,142385,5
63738,142415,5
63737,142410,5
63758,142442,5
63787,142494,4
63797,142507,5
63794,142503,5
63789,142484,5
63773,142475,5
63794,142496,4
63807,142530,5
63847,142596,6
63855,142639,4
63877,142661,5
63894,142681,4
63907,142710,5
63930,142730,5
63937,142752,5
63953,142779,5
63980,142821,4
64017,142886,5
64032,142935,5
64059,142961,5
64090,143001,4
64117,143048,4
64141,143096,5
64159,143133,5
64180,143152,5
64195,143192,4
64227,143229,5
64256,143280,5
64270,143325,5
64309,143372,5
64345,143418,4
64362,143454,5
64377,143487,5
64396,143536,5
64431,143571,5
64455,143619,4
64486,143686,5
64513,143732,5
64570,143799,5
64595,143843,5
64618,143895,4
64645,143931,5
64664,143992,5
64710,144048,5
64747,144108,5
64768,144151,4
64800,144193,5
64833,144258,5
64880,144332,5
64908,144389,4
64925,144402,4
64935,144402,5
64927,144401,5
64928,144407,5
64943,144415,5
64947,144435,4
64940,144430,5
64943,144426,5
64961,144453,5
64965,144470,4
64972,144501,5
65001,144548,5
65049,144634,5
65100,144718,5
65148,144791,4
65196,144866,5
65216,144912,5
65258,144970,5
65287,145017,5
65324,145075,4
65347,145114,5
65360,145147,5
65389,145185,5
65289,145201,5
65410,145215,4
65413,145238,5
65421,145237,4
65241,145251,5
65426,145269,4
65456,145288,5
65464,145315,3
65315,145350,5
65501,145367,5
65510,145377,4
65508,145387,5
65604,145412,5
65544,145451,5
65543,145437,5
65545,145433,4
65747,145430,5
65530,145422,5
65532,145415,5
65530,145421,5
65697,145427,4
65532,145417,5
65534,145413,5
65538,145424,5
65588,145413,5
65531,145418,4
65516,145393,5
65518,145384,6
65523,145327,4
65514,145388,5
65511,145393,4
65521,145391,5
65507,145224,5
65512,145382,5
65501,145375,5
65500,145370,4
65494,145159,5
65501,145370,6
65498,145358,4
65495,145356,4
65489,145361,5
65496,145365,5
65488,145360,5
65497,145348,5
65483,145524,4
65485,145341,5
65477,145330,5
65472,145312,5
65463,145534,5
65455,145303,4
65455,145287,5
65444,145265,5
65440,145344,6
65422,145221,4
65396,145206,4
65376,145155,5
65352,145137,5
65340,145102,5
65334,145081,5
65319,145071,4
65314,145061,5
65309,145062,5
65303,145064,5
65312,145057,5
65309,145059,4
65314,145064,5
65311,145067,5
65304,145046,5
65293,145041,4
65286,145011,5
65273,144994,5
65271,144989,5
65280,144988,5
65265,144990,5
65263,144985,4
65264,144985,5
65269,144985,5
65266,144984,6
65263,144980,3
65252,144974,5
65256,144968,5
65256,144965,5
65245,144947,5
65223,144903,4
65188,144857,5
65164,144805,5
65157,144795,5
65162,144800,5
65131,144745,4
65114,144731,5
65097,144723,5
65105,144715,5
65110,144717,4
65101,144720,4
65106,144737,5
65117,144734,5
65116,144736,5
65115,144722,4
65102,144713,6
65094,144684,4
65083,144666,5
65063,144663,5
65064,144654,6
65065,144645,3
65059,144641,5
65067,144640,5
65067,144637,5
65064,144651,4
65070,144647,5
65067,144637,5
65063,144631,5
65052,144625,5
65035,144594,4
65021,144594,5
65031,144589,5
65023,144566,5
65020,144563,5
65012,144561,4
65020,144569,5
65026,144561,5
65020,144582,5
65017,144574,4
65023,144564,4
65018,144554,6
65012,144561,4
65006,144552,5
64999,144538,4
64996,144527,5
65002,144531,5
64993,144528,5
64986,144520,5
64983,144509,4
64987,144498,5
64916,144509,5
64986,144504,5
64986,144506,5
64983,144510,4
64807,144503,5
64981,144504,5
64977,144488,5
64973,144497,5
64774,144492,4
64983,144478,5
64967,144494,5
64974,144491,5
64984,144486,5
64966,144485,4
64976,144488,5
64975,144489,6
65148,144485,4
64977,144502,4
64980,144499,4
64989,144516,5
65199,144525,5
64998,144534,5
65008,144539,4
65011,144539,5
65075,144530,5
64998,144533,5
64997,144532,5
64995,144529,4
65006,144486,5
64997,144523,5
64986,144522,5
64998,144512,5
64980,144361,4
64982,144508,5
64976,144498,5
64970,144484,5
64972,144282,5
64973,144478,5
64975,144480,4
64963,144478,5
64955,144400,6
64932,144417,4
64926,144400,4
64912,144402,5
64926,144553,5
64926,144391,5
64903,144369,4
64901,144379,4
64907,144609,5
64905,144372,5
64912,144387,5
64912,144400,4
64906,144512,5
64914,144397,5
64924,144400,5
64916,144390,5
64913,144417,4
64923,144395,5
64929,144405,5
64930,144402,5
64926,144417,5
64939,144418,5
64932,144427,4
64930,144420,5
64928,144416,5
64928,144424,5
64920,144423,4
64931,144421,5
64933,144415,5
64935,144429,5
64939,144424,5
64939,144425,4
64935,144429,5
64939,144411,5
64934,144418,5
64943,144434,4
64928,144424,4
64936,144425,5
64940,144422,5
64933,144413,5
64923,144415,4
64929,144402,5
64918,144405,5
64918,144406,5
64914,144405,5
64915,144416,4
64924,144409,6
64929,144415,4
64919,144413,5
64927,144420,5
64927,144427,4
64934,144417,5
64935,144437,5
64930,144422,5
64936,144421,5
64937,144435,4
64937,144425,5
64945,144429,5
64940,144430,5
64939,144437,5
64945,144428,4
64941,144435,5
64936,144437,5
64951,144428,5
64941,144437,4
64941,144432,5
64947,144442,5
64956,144458,5
64957,144462,5
64963,144481,4
64984,144486,5
64977,144490,6
64992,144505,4
64995,144517,5
64998,144526,4
65007,144523,5
64999,144528,5
65002,144529,5
65004,144525,5
65013,144536,4
65018,144535,5
65027,144557,5
65027,144575,5
65043,144580,5
65057,144602,4
65062,144606,5
65046,144600,5
65054,144612,5
65052,144612,4
65058,144628,4
65067,144620,5
65068,144623,5
65063,144635,5
65008,144640,4
65077,144645,5
65093,144666,5
65105,144693,5
64954,144722,5
65131,144721,4
65116,144709,5
65116,144693,5
64905,144695,5
65121,144720,5
65110,144680,4
65085,144675,5
65087,144660,5
65089,144673,5
65095,144674,5
65096,144681,4
65279,144701,5
65119,144722,5
65133,144742,5
65137,144737,5
65347,144747,4
65133,144745,5
65139,144744,5
65152,144764,5
65234,144767,5
65158,144784,4
65168,144794,5
65182,144819,5
65196,144794,5
65192,144830,4
65194,144846,5
65194,144831,5
65199,144682,5
65191,144841,5
65191,144826,4
65190,144833,5
65195,144615,5
65191,144824,5
65195,144837,5
65206,144855,4
65211,144822,5
65214,144867,5
65224,144875,5
65227,144883,5
65231,145057,4
65227,144895,6
65238,144902,4
65230,144895,5
65231,145123,5
65229,144905,6
65229,144889,3
65242,144901,5
65251,145020,5
65256,144935,4
65262,144934,4
65252,144946,5
65257,144970,5
65269,144962,5
65266,144950,4
65263,144953,5
65269,144957,5
65276,144967,5
65281,144961,5
65277,144990,4
65292,144985,5
65287,145001,5
65299,145003,5
65304,145006,5
65288,145006,4
65306,145003,5
65306,145015,5
65306,145010,4
65305,145006,5
65312,145015,4
65308,145025,7
65304,145014,3
65300,145020,5
65312,145011,5
65308,145014,4
65310,145010,5
65306,145032,5
65307,145013,5
65307,145016,4
65295,145018,4
65298,145013,5
65298,145024,5
65308,145028,5
65323,145037,4
65313,145034,5
65319,145040,5
65320,145048,5
65317,145043,5
65325,145049,4
65327,145053,5
65330,145057,5
65330,145067,6
65325,145064,4
65332,145062,4
65332,145065,5
65336,145070,5
65334,145062,5
65343,145075,5
65342,145075,4
65347,145082,5
65361,145096,5
65360,145110,5
65367,145107,5
65349,145077,4
65341,145073,5
65333,145068,5
65337,145049,5
65333,145072,4
65329,145041,4
65311,145036,5
65327,145050,5
65327,145043,5
65320,145048,5
65330,145049,4
65338,145069,5
65341,145083,5
65355,145091,6
65345,145086,3
65348,145087,5
65350,145091,5
65355,145100,5
65353,145093,5
65362,145102,4
65364,145113,5
65361,145105,5
65363,145114,5
65359,145118,5
65365,145117,4
65367,145115,5
65273,145114,5
65361,145107,5
65360,145098,4
65355,145108,4
65190,145111,5
65365,145108,5
65357,145103,5
65360,145114,4
65162,145103,6
65367,145120,4
65376,145131,5
65377,145126,5
65425,145135,6
65369,145131,3
65367,145125,5
65369,145119,5
65568,145105,5
65359,145092,4
65352,145082,5
65345,145094,5
65536,145094,5
65350,145092,5
65353,145094,4
65348,145071,5
65397,145066,5
65338,145066,5
65334,145051,5
65338,145062,4
65341,144992,5
65346,145080,5
65345,145094,5
65354,145088,4
65355,144924,4
65354,145094,6
65357,145098,4
65359,145114,5
65357,144914,4
65363,145107,5
65359,145104,4
65353,145095,5
65348,145098,5
65360,145094,4
65354,145100,5
65355,145093,5
65358,145267,5
65357,145086,5
65355,145093,4
65345,145088,5
65347,145313,5
65351,145081,5
65354,145085,5
65342,145083,4
65351,145156,5
65342,145084,5
65345,145096,5
65343,145093,8
65344,145104,1
65343,145088,5
65347,145092,6
65339,145098,4
65344,145078,4
65354,145080,4
65348,145087,5
65336,145086,5
65349,145080,5
65346,145073,4
65337,145071,5
65338,145063,5
65336,145052,5
65338,145059,5
65334,145055,4
65327,145046,5
65310,145022,5
65282,144977,5
65270,144962,5
65258,144930,4
65249,144918,5
65236,144896,5
65219,144860,5
65196,144846,5
65190,144834,4
65173,144796,5
65157,144786,5
65161,144790,6
65165,144784,4
65165,144788,4
65154,144797,5
65154,144771,5
65139,144756,5
65145,144743,4
65123,144734,4
65122,144715,5
65095,144686,5
65097,144678,5
65091,144658,4
65086,144643,5
65063,144633,5
65062,144616,5
65049,144592,5
65037,144580,4
65018,144551,5
65014,144545,5
65002,144520,5
64998,144522,5
64993,144513,5
64994,144502,4
64993,144499,5
64994,144494,5
64984,144505,5
64986,144510,4
64992,144511,5
64984,144505,5
64996,144510,5
64997,144505,5
64995,144488,4
64990,144498,5
64985,144498,5
64973,144495,5
64979,144487,4
64971,144501,4
64986,144505,5
64983,144503,5
64986,144502,5
64982,144504,4
64979,144501,5
64977,144513,5
64993,144505,5
64995,144519,5
65003,144528,4
64996,144528,6
65005,144534,4
65009,144533,5
65002,144520,5
64908,144533,4
65001,144525,5
64994,144522,5
64986,144516,5
64812,144513,5
64982,144507,4
64980,144503,5
64987,144506,5
64778,144494,5
64976,144487,5
64972,144481,4
64979,144488,5
65039,144500,5
64974,144489,5
64973,144489,4
64980,144486,4
65162,144493,5
64972,144501,5
64978,144495,5
64980,144499,4
65163,144498,5
64980,144493,6
64986,144510,4
64976,144507,5
65046,144524,4
64993,144535,5
64998,144534,5
65014,144543,5
65020,144500,5
65013,144549,4
65015,144554,5
65017,144544,5
65017,144385,5
65015,144553,5
65021,144557,4
65020,144554,5
65023,144350,5
65010,144547,5
65011,144545,5
65001,144539,4
65000,144535,5
65006,144541,5
65016,144538,5
65008,144538,4
65000,144723,4
65003,144540,5
65014,144538,6
64991,144518,4
64984,144743,4
64984,144501,5
64993,144517,5
64991,144511,5
64972,144579,5
64982,144491,4
64972,144489,5
64971,144482,5
64966,144495,5
64979,144488,5
64990,144502,4
64992,144504,5
64994,144516,5
64993,144503,5
64993,144504,5
64986,144502,4
64991,144503,5
64988,144505,5
64992,144500,5
64985,144510,5
65001,144522,4
65006,144539,5
65004,144528,5
65004,144525,5
65007,144526,5
64988,144527,4
64997,144522,5
64983,144520,5
64989,144505,5
64987,144502,4
64973,144497,5
64970,144472,5
64961,144453,5
64951,144453,5
64956,144459,4
64948,144456,5
64946,144435,5
64924,144389,5
64876,144325,5
64851,144279,4
64828,144227,5
64815,144206,5
64783,144191,5
64787,144185,5
64790,144186,5
64784,144189,4
64799,144201,5
64796,144205,5
64795,144205,5
64803,144207,4
64805,144223,5
64822,144229,5
64826,144262,5
64838,144273,5
64858,144299,4
64870,144322,5
64881,144332,5
64877,144344,5
64881,144344,4
64891,144357,4
64899,144360,5
64898,144362,5
64901,144361,5
64898,144361,4
64893,144354,5
64878,144345,5
64883,144353,5
64888,144343,5
64895,144356,4
64893,144360,6
64902,144380,4
64903,144387,5
64921,144412,5
64929,144423,4
64939,144421,5
64940,144432,5
64937,144429,5
64945,144424,5
64946,144433,4
64950,144439,5
64933,144434,5
64931,144424,5
64933,144415,5
64922,144405,4
64920,144396,5
64858,144379,5
64910,144373,5
64901,144380,4
64910,144365,4
64750,144387,5
64914,144393,5
64913,144393,4
64924,144424,4
64734,144434,5
64950,144446,5
64952,144463,5
64955,144460,5
64932,144462,4
64948,144448,5
64938,144438,5
64930,144409,5
65069,144385,5
64893,144363,4
64891,144352,5
64883,144348,5
65097,144316,5
64874,144319,5
64869,144313,4
64844,144269,5
64912,144241,5
64799,144169,5
64744,144101,5
64701,144043,4
64701,143993,5
64668,143972,5
64629,143915,6
64584,143840,3
64550,143642,4
64495,143688,5
64446,143612,5
64416,143585,5
64419,143378,4
64417,143580,5
64418,143577,5
64421,143579,5
64422,143485,5
64405,143573,4
64400,143562,5
64405,143570,5
64421,143714,5
64447,143630,5
64474,143665,4
64495,143718,5
64522,143963,5
64511,143720,5
64500,143696,5
64484,143669,5
64467,143783,4
64445,143600,5
64410,143571,5
64407,143547,6
64397,143561,3
64378,143492,5
64366,143471,5
64372,143486,5
64392,143537,5
64429,143576,4
64429,143575,5
64413,143542,5
64402,143521,5
64421,143568,4
64462,143626,4
64469,143636,5
64469,143627,5
64468,143633,5
64484,143667,4
64510,143714,5
64511,143694,5
64498,143679,5
64500,143666,5
64498,143696,4
64509,143683,6
64487,143653,4
64468,143619,5
64467,143637,5
64504,143696,6
64547,143768,3
64585,143813,5
64576,143791,5
64550,143756,5
64536,143740,4
64548,143756,5
64551,143773,5
64562,143788,5
64565,143785,5
64566,143800,4
64560,143779,5
64550,143739,5
64498,143663,5
64474,143640,4
64500,143695,4
64525,143724,5
64524,143718,5
64492,143658,5
64456,143629,4
64468,143633,5
64461,143616,6
64446,143586,4
64422,143557,5
64416,143571,4
64464,143625,5
64474,143647,5
64468,143618,5
64440,143606,5
64443,143592,4
64449,143605,5
64457,143619,5
64448,143588,5
64447,143596,5
64449,143609,4
64474,143633,5
64482,143657,5
64480,143667,5
64517,143741,5
64579,143841,4
64644,143927,5
64692,144014,5
64742,144111,5
64797,144189,4
64823,144221,4
64827,144214,5
64818,144208,6
64802,144184,4
64792,144157,4
64786,144157,5
64784,144154,5
64793,144169,5
64783,144153,5
64776,144154,4
64793,144177,5
64796,144173,5
64789,144161,5
64654,144156,5
64777,144156,4
64779,144168,5
64803,144187,5
64622,144195,5
64819,144223,5
64831,144251,4
64864,144305,5
64770,144356,5
64929,144389,5
64943,144436,5
64965,144468,4
65099,144497,5
65006,144499,5
65014,144513,6
65004,144512,3
65231,144529,4
65025,144537,5
65015,144541,5
65010,144507,5
65133,144487,4
64973,144447,5
64969,144450,5
64969,144437,5
64990,144442,5
64962,144443,4
64974,144460,5
64979,144461,5
64977,144373,5
64981,144489,5
65008,144518,4
65036,144568,5
65067,144463,5
65129,144729,5
65155,144770,5
65198,144838,5
65232,144685,4
65261,144947,5
65288,144970,5
65290,145000,5
65303,145071,4
65324,145054,5
65350,145094,5
65383,145138,5
65405,145402,4
65434,145221,4
65457,145275,5
65481,145322,5
65513,145557,5
65540,145431,4
65577,145478,5
65593,145518,5
65616,145601,5
65634,145570,5
65659,145609,4
65691,145665,5
65725,145724,5
65754,145770,5
65790,145804,5
65801,145855,4
65824,145879,6
65844,145904,4
65847,145910,5
65859,145940,5
65879,145977,4
65891,145997,5
65904,146018,5
65932,146049,5
65949,146087,5
65962,146113,4
65985,146150,6
66001,146163,4
66004,146177,5
66006,146189,4
66023,146205,4
66031,146221,5
66015,146215,5
66019,146206,5
66011,146187,4
66015,146193,5
66012,146200,5
66009,146193,5
66019,146189,5
66014,146188,4
66001,146170,5
65994,146162,6
65982,146147,4
65983,146144,5
65988,146149,4
65995,146164,5
65983,146154,5
65977,146144,5
65976,146121,5
65964,146118,4
65963,146111,5
65968,146135,5
65973,146132,5
65951,146099,5
65938,146089,4
65946,146084,5
65935,146074,5
65933,146062,5
65945,146089,5
65961,146099,4
65968,146127,5
65979,146139,5
65989,146149,5
65988,146155,4
65977,146158,5
65983,146178,5
66011,146205,6
66023,146211,4
66037,146228,4
66045,146246,5
66043,146250,5
66048,146274,5
66074,146296,5
66074,146306,4
66073,146298,5
66080,146299,5
66083,146302,5
66075,146302,5
66076,146291,4
66071,146286,5
66048,146264,5
66036,146232,5
66016,146207,5
65999,146179,4
65999,146197,5
65983,146184,5
66001,146187,5
65993,146182,5
65985,146157,4
65895,146141,5
65949,146104,5
65940,146061,5
65910,146025,4
65708,145990,4
65873,145971,5
65847,145946,5
65838,145921,5
65621,145912,4
65813,145880,5
65804,145870,5
65804,145849,5
65838,145832,5
65762,145789,4
65741,145754,5
65718,145709,5
65893,145683,5
65665,145631,5
65652,145607,4
65623,145564,5
65785,145520,5
65571,145472,5
65556,145454,5
65547,145422,5
65587,145411,4
65513,145390,5
65508,145363,5
65488,145352,5
65487,145275,4
65468,145295,5
65441,145263,5
65424,145242,5
65403,145039,4
65387,145163,4
65378,145154,5
65366,145147,5
65360,144937,5
65361,145127,5
65354,145123,4
65360,145131,5
65346,145108,5
65349,145120,5
65348,145120,4
65346,145114,5
65348,145271,5
65337,145108,5
65339,145101,5
65338,145085,4
65339,145320,6
65332,145098,4
65336,145099,5
65327,145090,5
65322,145167,4
65304,145052,5
65283,145004,5
65262,144956,5
65234,144946,5
65224,144901,4
65184,144844,5
65156,144797,5
65149,144789,5
65133,144746,4
65098,144702,4
65086,144661,5
65070,144647,5
65063,144636,5
65045,144604,4
65022,144546,5
64991,144509,5
64976,144477,6
64961,144472,4
64970,144479,4
64962,144463,5
64964,144469,5
64957,144469,5
64959,144475,5
64952,144463,4
64952,144448,5
64951,144437,5
64941,144409,5
64918,144399,5
64902,144360,4
64889,144331,5
64868,144301,5
64845,144254,5
64805,144179,5
64752,144097,4
64696,143985,5
64613,143878,5
64572,143802,5
64516,143701,5
64465,143646,4
64432,143584,5
64399,143516,5
64361,143455,6
64330,143405,3
64286,143348,5
64254,143296,5
64234,143262,5
64205,143208,5
64164,143134,4
64109,143046,5
64057,142928,5
63979,142812,5
63915,142689,5
63853,142602,4
63785,142485,5
63727,142379,5
63665,142280,5
63602,142174,5
63536,142079,4
63493,142004,5
63446,141928,5
63401,141867,5
63371,141811,5
63323,141735,5
63275,141626,4
63189,141468,5
63098,141324,5
63006,141177,6
62920,141057,3
62864,140939,5
62795,140837,5
62744,140739,5
62696,140667,4
62672,140631,5
62635,140577,5
62625,140536,5
62589,140486,5
62551,140413,4
62504,140344,5
62455,140275,5
62422,140189,5
62306,140131,5
62327,140048,4
62289,139982,5
62237,139885,5
62015,139787,5
62120,139696,5
62060,139596,4
62008,139522,6
61777,139444,4
61925,139362,5
61853,139261,5
61776,139121,6
61709,139005,3
61646,138904,5
61590,138827,5
61527,138720,5
61660,138658,4
61460,138622,5
61423,138552,5
61365,138445,5
61508,138333,4
61254,138269,4
61210,138197,5
61181,138146,5
61222,138096,5
61120,138054,4
61086,137986,5
61041,137914,5
61001,137799,5
60939,137737,5
60875,137619,4
60780,137467,5
60699,137174,6
60612,137184,4
60537,137075,5
60482,136970,4
60423,136665,5
60336,136723,5
60264,136568,5
60168,136422,5
60088,136247,4
60011,136174,5
59944,136078,5
59899,135995,5
59847,136039,5
59779,135781,4
59699,135631,5
59588,135448,5
59483,135477,5
59401,135138,4
59323,134999,4
59248,134877,5
59167,134841,5
59114,134664,5
59072,134600,4
59047,134555,5
59025,134534,5
59003,134473,6
58973,134414,4
58920,134329,4
58876,134259,5
58845,134212,5
58817,134159,5
58790,134105,5
58757,134030,4
58699,133946,5
58656,133884,5
58617,133829,5
58590,133773,5
58567,133730,4
58529,133667,5
58487,133583,5
58433,133507,5
58391,133432,5
58351,133370,4
58331,133332,5
58330,133318,5
58315,133310,5
58312,133291,5
58302,133277,4
58287,133249,5
58262,133202,5
58222,133137,6
58174,133043,3
58127,132968,5
58087,132880,5
58034,132814,5
58012,132779,5
57994,132766,4
57991,132767,5
58006,132759,5
57998,132764,5
57990,132747,5
57975,132720,4
57974,132706,5
57966,132715,5
57967,132704,5
57965,132679,5
57953,132674,4
57964,132698,5
57977,132704,5
57977,132713,5
57964,132701,5
57950,132683,5
57942,132663,4
57939,132632,5
57919,132600,5
57906,132581,4
57903,132566,4
57884,132552,5
57872,132516,5
57862,132502,5
57850,132481,4
57843,132469,5
57830,132468,5
57837,132475,5
57839,132470,5
57838,132476,4
57836,132477,5
57851,132481,5
57851,132489,5
57840,132473,5
57828,132458,4
57818,132441,5
57815,132424,5
57800,132408,5
57787,132368,5
57768,132337,4
57735,132287,6
57699,132231,4
57673,132187,5
57650,132143,5
57635,132134,4
57569,132120,5
57619,132102,5
57614,132084,5
57605,132075,4
57447,132042,4
57572,132034,5
57570,132011,5
57563,131985,5
57368,131970,4
57531,131949,5
57526,131943,5
57526,131924,5
57496,131899,5
57492,131871,4
57468,131840,5
57463,131812,5
57588,131798,5
57451,131795,5
57457,131807,4
57457,131815,5
57648,131816,6
57460,131823,4
57462,131817,5
57461,131825,4
57533,131829,5
57468,131813,5
57474,131818,5
57460,131803,5
57462,131780,4
57445,131789,5
57439,131785,5
57442,131780,5
57441,131649,4
57436,131777,4
57439,131778,5
57443,131788,5
57447,131608,5
57445,131777,5
57443,131778,4
57443,131778,5
57449,131727,5
57451,131783,6
57453,131792,3
57451,131790,5
57455,131907,5
57460,131795,7
57474,131826,3
57480,131850,4
57514,132084,5
57536,131942,5
57579,132002,5
57608,132043,5
57640,132226,4
57696,132203,5
57743,132283,5
57791,132374,5
57845,132461,5
57873,132478,4
57901,132544,5
57941,132609,5
57969,132640,5
57987,132672,5
58001,132704,4
58025,132727,5
58033,132746,5
58052,132771,5
58058,132802,5
58077,132835,4
58109,132885,5
58146,132935,5
58177,132990,5
58214,133032,4
58233,133091,5
58265,133119,5
58293,133174,5
58330,133243,5
58365,133302,4
58412,133368,5
58454,133437,5
58487,133497,5
58511,133540,5
58535,133586,4
58572,133639,5
58598,133692,5
58644,133751,5
58677,133819,5
58722,133891,4
58770,133954,5
58818,134042,8
58854,134110,2
58886,134171,5
58923,134230,5
58957,134294,4
59008,134379,5
59061,134457,5
59114,134533,4
59160,134627,5
59221,134708,5
59271,134793,5
59309,134853,5
59362,134934,4
59395,135023,5
59447,135109,5
59505,135204,5
59567,135298,5
59614,135378,4
59671,135465,5
59709,135550,5
59748,135608,5
59789,135672,5
59839,135744,4
59886,135824,5
59930,135893,5
59975,135974,5
60012,136045,5
60062,136126,4
60108,136176,6
60145,136255,4
60174,136307,5
60210,136358,5
60234,136395,4
60260,136437,5
60281,136491,5
60301,136507,5
60302,136523,4
60311,136532,4
60319,136546,5
60314,136549,5
60325,136555,5
60322,136562,4
60335,136562,5
60338,136572,5
60335,136593,5
60309,136611,5
60367,136622,4
60371,136633,5
60376,136642,5
60234,136645,5
60382,136664,4
60395,136669,4
60405,136682,5
60220,136692,5
60417,136703,5
60422,136725,5
60435,136730,4
60415,136737,5
60441,136749,5
60441,136755,5
60452,136761,5
60612,136780,4
60462,136785,5
60462,136781,5
60459,136788,5
60663,136791,4
60467,136792,4
60461,136785,5
60455,136778,5
60535,136759,5
60457,136754,5
60437,136749,4
60421,136718,5
60420,136683,5
60411,136701,6
60396,136681,3
60402,136685,5
60407,136568,5
60415,136713,5
60423,136725,5
60428,136729,4
60434,136552,5
60431,136745,5
60434,136745,5
60446,136757,5
60451,136718,4
60457,136782,5
60464,136782,5
60474,136807,5
60477,136949,5
60482,136818,4
60487,136822,5
60491,136831,5
60497,137047,5
60490,136838,4
60495,136846,5
60493,136853,4
60496,136964,5
60505,136867,5
60507,136861,6
60506,136863,3
60510,136895,5
60523,136903,5
60535,136911,5
60531,136899,4
60530,136907,5
60536,136906,5
60544,136924,5
60534,136924,5
60538,136919,4
60549,136937,5
60553,136952,5
60564,136985,5
60591,137004,5
60599,137026,4
60617,137035,5
60611,137051,5
60627,137074,5
60633,137076,5
60647,137108,4
60659,137143,6
60691,137167,4
60706,137199,5
60722,137229,4
60741,137249,4
60740,137278,5
60757,137287,5
60771,137315,5
60785,137338,4
60799,137363,5
60815,137389,5
60823,137411,5
60830,137423,5
60842,137438,4
60853,137433,5
60852,137454,5
60863,137470,5
60870,137476,5
60879,137483,4
60886,137503,5
60877,137502,5
60889,137529,5
60903,137528,5
60924,137567,4
60917,137580,5
60946,137599,6
60956,137624,4
60962,137638,5
60980,137670,4
60990,137679,5
60996,137689,5
61001,137708,5
61015,137724,4
61019,137746,4
61042,137778,5
61060,137813,5
61086,137860,5
61104,137902,4
61135,137931,5
61155,137968,5
61170,137993,5
61188,138015,5
61195,138026,4
61204,138051,5
61218,138068,5
61228,138103,5
61264,138142,5
61285,138170,4
61287,138213,5
61319,138242,5
61324,138281,6
61359,138309,4
61374,138345,4
61406,138373,5
61413,138403,5
61423,138423,5
61434,138427,5
61439,138447,4
61423,138472,5
61465,138492,5
61478,138523,5
61483,138534,4
61368,138554,4
61510,138577,5
61523,138620,5
61548,138638,5
61378,138668,4
61583,138701,5
61594,138723,5
61613,138739,5
61564,138754,5
61622,138777,5
61629,138776,4
61630,138774,5
61766,138771,5
61620,138763,6
61626,138770,3
61629,138777,5
61832,138772,5
61626,138768,5
61616,138779,5
61625,138779,4
61733,138792,5
61654,138835,5
61684,138884,5
61703,138924,5
61747,138941,4
61739,138973,5
61751,138991,5
61754,138995,5
61770,138907,5
61789,139070,4
61823,139113,5
61838,139144,5
61865,138988,5
61883,139211,5
61897,139247,5
61908,139254,4
61914,139166,5
61934,139298,5
61943,139319,4
61955,139330,5
61962,139456,5
61971,139370,5
61988,139402,5
62005,139411,4
62015,139645,5
62035,139467,5
62049,139514,5
62072,139545,5
62090,139713,4
62107,139588,5
62097,139582,5
62105,139591,5
62123,139653,5
62120,139621,4
62125,139644,5
62135,139656,5
62147,139678,5
62170,139703,5
62186,139725,4
62203,139750,6
62202,139763,4
62203,139764,5
62207,139759,4
62210,139765,5
62211,139781,5
62216,139788,5
62223,139787,5
62230,139823,4
62249,139840,5
62256,139854,5
62272,139873,5
62281,139893,5
62294,139907,4
62307,139924,5
62314,139946,5
62325,139961,5
62333,139972,5
62340,139974,4
62338,139999,5
62344,140002,5
62354,140001,5
62364,140019,5
62369,140027,4
62372,140047,5
62384,140044,7
62381,140059,3
62390,140066,5
62399,140072,4
62398,140079,5
62401,140095,5
62409,140099,5
62400,140108,4
62410,140106,4
62410,140120,5
62429,140122,5
62416,140123,5
62421,140118,4
62422,140125,5
62424,140130,5
62429,140141,5
62452,140169,5
62451,140164,4
62448,140172,5
62458,140186,5
62462,140193,5
62471,140211,5
62468,140211,4
62470,140203,5
62466,140211,5
62479,140208,5
62476,140215,5
62488,140228,4
62488,140234,5
62495,140231,5
62490,140242,5
62494,140244,5
62497,140242,4
62489,140250,5
62505,140263,5
62503,140274,5
62512,140274,4
62515,140289,4
62519,140294,5
62526,140304,5
62531,140303,5
62521,140296,4
62533,140300,5
62528,140312,5
62528,140308,5
62533,140304,5
62529,140311,5
62531,140306,4
62532,140307,5
62410,140310,5
62525,140314,5
62541,140321,4
62544,140326,5
62356,140341,5
62549,140348,5
62543,140340,5
62548,140342,4
62429,140346,5
62558,140351,5
62550,140351,5
62548,140347,5
62653,140338,4
62538,140322,5
62526,140292,5
62508,140261,5
62701,140254,4
62499,140252,4
62484,140227,5
62476,140229,5
62601,140230,5
62475,140232,4
62474,140210,6
62485,140230,4
62520,140242,5
62501,140248,5
62499,140266,4
62503,140257,5
62504,140150,5
62495,140254,5
62497,140272,5
62509,140289,4
62535,140129,5
62536,140331,5
62549,140358,5
62569,140381,5
62591,140229,4
62603,140434,5
62616,140449,5
62623,140451,5
62628,140539,5
62629,140472,4
62621,140470,5
62616,140469,5
62627,140680,5
62624,140474,5
62626,140482,4
62642,140503,6
62652,140686,4
62663,140528,5
62676,140572,4
62688,140582,5
62693,140649,5
62694,140606,5
62700,140604,5
62705,140616,4
62716,140635,5
62721,140632,5
62719,140646,5
62739,140662,5
62747,140690,4
62767,140727,5
62791,140757,5
62804,140785,5
62825,140816,5
62853,140902,4
62919,141000,5
62989,141122,5
63060,141234,5
63115,141335,4
63167,141422,4
63220,141496,5
63253,141568,5
63296,141630,5
63328,141689,5
63354,141724,4
63369,141753,5
63393,141772,5
63404,141813,5
63431,141862,4
63459,141930,4
63530,142046,5
63598,142164,5
63659,142276,5
63708,142348,4
63749,142401,5
63780,142459,5
63794,142488,5
63800,142502,5
63823,142524,5
63840,142551,4
63853,142566,5
63846,142579,5
63859,142597,6
63879,142622,3
63894,142649,5
63916,142684,5
63932,142712,5
63936,142735,5
63947,142749,4
63965,142766,5
63973,142793,5
63989,142826,5
64012,142863,5
64028,142885,4
64032,142879,5
64036,142892,5
64044,142922,5
64052,142925,4
64049,142936,4
64065,142939,5
64059,142934,5
64063,142939,5
64064,142922,4
64037,142913,6
64044,142909,4
64052,142932,5
64067,142948,5
64086,142994,6
64120,143039,3
64143,143088,5
64176,143135,5
64185,143138,5
64180,143147,4
64192,143156,5
64207,143178,5
64226,143220,5
64240,143241,5
64261,143265,4
64286,143317,5
64322,143376,5
64348,143437,5
64393,143503,5
64329,143564,4
64456,143599,5
64467,143629,5
64482,143659,5
64316,143680,4
64506,143694,4
64517,143695,6
64539,143747,4
64368,143766,5
64585,143830,4
64626,143889,5
64667,143948,5
64763,144012,5
64731,144067,5
64757,144098,4
64786,144151,5
64993,144159,5
64795,144164,5
64806,144180,5
64806,144177,4
64967,144169,5
64804,144182,5
64798,144181,5
64804,144183,5
64859,144193,4
64847,144227,5
64843,144253,5
64850,144262,5
64885,144244,5
64896,144332,4
64907,144355,5
64918,144359,6
64938,144232,4
64978,144476,5
65012,144538,4
65060,144595,5
65096,144476,5
65132,144734,5
65173,144801,4
65205,144846,5
65222,144891,5
65231,144891,5
65236,144904,5
65238,144911,4
65246,145084,5
65243,144916,5
65245,144906,5
65252,144921,5
65267,145174,4
65300,144996,5
65314,145022,5
65333,145063,5
65358,145173,5
65384,145152,4
65409,145179,5
65428,145213,5
65452,145263,6
65474,145282,4
65501,145350,4
65548,145412,5
65577,145468,5
65616,145530,5
65655,145586,5
65676,145630,4
65701,145658,5
65716,145685,5
65728,145701,5
65738,145705,4
65744,145717,5
65745,145726,5
65748,145733,5
65752,145729,5
65748,145742,4
65737,145725,5
65745,145730,5
65751,145736,5
65749,145726,5
65748,145733,5
65753,145741,4
65756,145747,5
65753,145753,5
65760,145760,6
65756,145746,3
65753,145746,5
65758,145746,5
65756,145750,5
65763,145768,5
65764,145763,4
65764,145752,5
65758,145745,5
65749,145729,5
65732,145707,5
65727,145699,4
65722,145698,5
65715,145680,5
65683,145632,5
65680,145630,4
65687,145641,4
65686,145635,5
65685,145646,5
65683,145634,5
65689,145634,4
65689,145643,6
65671,145635,4
65677,145633,5
65679,145621,5
65683,145630,4
65687,145639,5
65687,145647,5
65688,145644,5
65681,145630,5
65673,145629,4
65682,145626,5
65668,145603,5
65660,145587,5
65645,145558,5
65615,145552,4
65625,145518,5
65614,145515,5
65605,145503,5
65601,145499,5
65593,145497,4
65583,145493,5
65597,145487,5
65585,145473,5
65581,145476,4
65587,145469,4
65582,145476,6
65590,145482,4
65590,145475,5
65587,145477,4
65586,145469,5
65577,145463,5
65496,145451,5
65576,145456,5
65576,145469,4
65584,145459,5
65407,145456,5
65582,145463,5
65585,145465,5
65583,145477,4
65386,145485,5
65600,145489,5
65602,145491,5
65601,145500,5
65621,145498,4
65599,145497,5
65600,145502,5
65599,145498,5
65775,145495,5
65595,145487,4
65599,145486,5
65604,145488,6
65801,145490,4
65606,145500,4
65597,145492,4
65600,145494,5
65676,145489,5
65599,145484,5
65611,145497,4
65603,145502,5
65606,145454,5
65605,145495,5
65594,145483,5
65598,145483,4
65601,145323,5
65598,145486,5
65593,145485,5
65600,145487,5
65598,145276,4
65587,145478,5
65593,145485,5
65590,145478,5
65593,145438,5
65595,145481,4
65590,145482,5
65606,145491,5
65602,145668,5
65610,145499,5
65615,145508,4
65608,145509,5
65613,145745,5
65614,145514,5
65616,145518,4
65612,145515,4
65609,145624,5
65600,145488,5
65593,145472,5
65582,145467,4
65592,145493,5
65589,145482,5
65579,145459,5
65568,145438,5
65568,145443,4
65578,145457,5
65580,145460,5
65577,145456,5
65597,145480,5
65593,145500,5
65615,145512,4
65610,145507,5
65616,145508,5
65618,145509,5
65619,145525,4
65620,145526,5
65628,145544,5
65631,145543,5
65634,145557,5
65650,145567,4
65648,145565,5
65645,145560,5
65650,145563,5
65639,145564,4
65641,145549,4
65641,145545,5
65628,145551,5
65632,145532,5
65630,145526,4
65636,145540,5
65628,145534,5
65619,145539,5
65639,145548,5
65631,145550,4
65648,145554,6
65639,145554,4
65632,145546,5
65638,145560,5
65646,145555,4
65640,145547,5
65652,145552,5
65636,145554,5
65631,145547,5
65642,145546,4
65647,145558,5
65645,145569,5
65644,145572,5
65653,145569,5
65651,145561,4
65655,145579,5
65656,145589,5
65660,145576,5
65661,145577,5
65641,145570,4
65650,145565,5
65646,145566,5
65648,145575,5
65650,145569,4
65650,145572,4
65654,145565,6
65644,145556,4
65652,145571,5
65654,145561,4
65656,145574,5
65663,145571,5
65657,145572,5
65656,145563,5
65658,145569,4
65656,145575,5
65649,145564,5
65654,145569,5
65656,145566,5
65657,145577,4
65656,145584,5
65675,145593,5
65671,145601,5
65675,145601,5
65638,145601,4
65678,145603,5
65676,145604,5
65684,145603,6
65520,145600,4
65676,145605,4
65679,145603,5
65684,145608,5
65476,145619,5
65690,145612,4
65683,145609,4
65684,145608,5
65621,145560,5
65632,145525,5
65626,145510,4
65612,145483,5
65756,145472,5
65583,145436,5
65540,145373,5
65511,145346,4
65720,145323,5
65468,145286,5
65463,145255,5
65447,145217,5
65529,145207,5
65414,145181,4
65402,145144,5
65372,145112,5
65371,145052,6
65314,145002,3
65278,144931,5
65221,144832,5
65143,144580,5
65072,144597,5
65002,144463,4
64914,144330,5
64827,143982,5
64725,144016,5
64631,143854,4
64539,143683,4
64426,143400,5
64330,143351,5
64247,143234,5
64188,143145,4
64146,143171,5
64095,142999,5
64056,142928,5
64030,142855,5
63987,143024,4
63940,142710,6
63890,142646,4
63864,142576,5
63802,142648,5
63747,142418,6
63689,142306,3
63634,142207,5
63561,142127,5
63502,142000,5
63452,141928,4
63406,141825,5
63339,141735,5
63285,141642,5
63234,141565,5
63187,141484,4
63141,141417,5
63104,141349,5
63040,141253,5
62995,141159,4
62928,141045,4
62861,140950,5
62818,140874,5
62764,140784,5
62711,140697,4
62658,140581,5
62594,140493,6
62543,140395,4
62487,140301,5
62435,140212,4
62378,140122,5
62318,140019,5
62242,139886,5
62154,139729,5
62059,139565,4
61970,139412,5
61882,139269,5
61806,139154,5
61752,139051,5
61679,138954,4
61631,138864,5
61596,138807,5
61566,138747,5
61523,138677,5
61481,138608,4
61436,138528,5
61380,138438,5
61338,138359,5
61279,138275,4
61241,138179,4
61184,138101,5
61143,138021,6
61080,137901,4
60991,137748,4
60904,137618,5
60843,137502,5
60782,137405,5
60703,137258,5
60612,137092,4
60518,136964,5
60471,136887,5
60448,136850,5
60424,136818,5
60418,136795,4
60398,136765,5
60372,136719,5
60335,136636,5
60278,136548,5
60231,136483,4
60223,136479,5
60233,136459,5
60220,136458,5
60221,136475,5
60232,136489,7
60229,136467,2
60215,136471,5
60233,136476,6
60262,136499,3
60233,136470,4
60216,136448,5
60198,136432,5
60193,136405,5
60168,136356,4
60138,136310,5
60113,136268,5
60091,136271,5
60102,136270,5
60113,136278,4
60124,136286,5
59994,136283,5
60104,136257,5
60089,136211,5
60020,136098,4
59793,136009,5
59921,135934,5
59879,135874,5
59838,135798,5
59719,135715,5
59702,135547,4
59600,135381,5
59535,135266,5
59592,135179,6
59431,135101,3
59383,135033,5
59349,134983,5
59539,134958,5
59329,134953,5
59317,134929,4
59308,134912,5
59400,134892,5
59290,134878,5
59283,134869,4
59282,134886,5
59321,134901,5
59304,134909,5
59322,134925,5
59338,134974,4
59372,134924,5
59413,135094,5
59454,135179,5
59513,135264,5
59580,135198,4
59648,135500,6
59718,135619,4
59786,135743,5
59865,135721,5
59943,136010,5
60030,136152,4
60104,136277,5
60182,136484,5
60237,136495,5
60285,136571,4
60326,136628,5
60356,136872,5
60365,136698,5
60371,136693,5
60377,136712,4
60381,136872,5
60402,136762,5
60427,136787,5
60444,136809,4
60443,136857,4
60454,136848,5
60465,136861,5
60485,136887,5
60504,136921,4
60524,136944,5
60529,136959,6
60548,137014,4
60587,137077,5
60632,137132,4
60675,137235,5
60737,137337,5
60804,137456,5
60870,137552,5
60931,137647,4
60983,137762,5
61049,137869,5
61127,137987,5
61196,138105,5
61269,138229,4
61337,138349,5
61402,138449,5
61457,138549,5
61502,138612,5
61533,138665,4
61549,138685,5
61558,138708,5
61580,138722,5
61584,138734,4
61589,138741,4
61587,138746,5
61598,138762,6
61606,138768,4
61607,138777,4
61612,138799,5
61630,138823,5
61654,138855,5
61667,138884,5
61680,138893,4
61682,138888,5
61670,138882,5
61662,138878,5
61659,138870,5
61652,138850,4
61653,138865,5
61659,138861,5
61648,138846,5
61653,138853,5
61646,138843,4
61646,138835,5
61640,138831,5
61637,138832,5
61631,138813,5
61636,138822,4
61631,138810,5
61620,138800,5
61619,138793,5
61614,138762,4
61598,138776,4
61594,138763,5
61588,138759,5
61584,138749,5
61578,138726,4
61566,138710,5
61569,138689,5
61539,138681,5
61533,138655,5
61524,138646,4
61525,138643,5
61526,138648,5
61519,138641,5
61527,138632,5
61516,138638,4
61513,138629,5
61513,138632,5
61513,138628,5
61509,138629,5
61498,138624,5
61508,138619,4
61500,138619,5
61521,138626,5
61396,138637,5
61526,138654,4
61540,138667,5
61542,138671,5
61382,138695,5
61564,138710,4
61573,138723,4
61589,138742,5
61461,138752,5
61579,138755,5
61586,138763,4
61582,138751,5
61685,138772,5
61607,138779,5
61606,138776,5
61609,138797,4
61814,138820,5
61628,138813,6
61630,138835,4
61648,138863,5
61805,138858,4
61663,138880,6
61679,138899,4
61680,138891,5
61725,138898,5
61687,138924,4
61703,138929,5
61697,138921,5
61688,138830,5
61687,138902,5
61681,138912,4
61681,138916,5
61680,138722,5
61667,138883,5
61664,138873,4
61656,138866,4
61650,138661,5
61647,138851,5
61637,138852,5
61653,138865,4
61659,138895,5
61660,138866,5
61656,138886,5
61673,138878,5
61667,139086,4
61676,138905,5
61692,138924,6
61696,138921,4
61698,139113,5
61706,138943,4
61695,138940,5
61712,138944,5
61707,138996,5
61695,138946,5
61706,138930,4
61699,138936,5
61696,138943,5
61694,138920,5
61685,138932,5
61689,138917,4
61680,138915,5
61687,138920,5
61685,138903,5
61678,138897,5
61671,138891,4
61665,138887,5
61651,138863,5
61636,138848,5
61633,138829,3
61636,138829,4
61622,138813,5
61619,138815,5
61626,138815,5
61617,138813,4
61606,138790,5
61599,138774,5
61579,138741,5
61570,138744,5
61575,138753,4
61588,138769,5
61613,138799,5
61635,138846,5
61676,138916,5
61722,138989,4
61755,139042,5
61793,139092,5
61795,139103,5
61800,139114,5
61814,139107,5
61807,139112,4
61798,139096,5
61792,139084,5
61774,139066,6
61740,139004,3
61713,138952,5
61684,138907,5
61665,138895,5
61660,138883,4
61661,138880,4
61664,138879,5
61661,138881,5
61670,138889,5
61679,138893,4
61672,138899,5
61670,138902,5
61690,138921,5
61695,138927,5
61703,138958,4
61719,138966,5
61722,138982,5
61740,139005,5
61759,139027,5
61777,139062,4
61783,139090,6
61801,139125,4
61825,139155,5
61830,139166,5
61850,139199,6
61871,139226,3
61901,139258,5
61915,139303,5
61922,139317,5
61932,139330,4
61931,139326,5
61934,139326,5
61932,139327,5
61929,139326,4
61923,139322,4
61933,139334,5
61933,139321,5
61930,139309,5
61916,139308,4
61919,139311,5
61838,139289,5
61912,139293,5
61907,139282,5
61894,139265,4
61717,139233,5
61867,139206,6
61832,139168,4
61816,139120,5
61596,139091,4
61776,139074,5
61777,139070,5
61759,139041,5
61766,139012,5
61733,138997,4
61716,138962,5
61704,138946,5
61857,138948,5
61688,138933,5
61687,138936,4
61683,138944,5
61866,138934,5
61690,138915,5
61671,138914,4
61671,138893,4
61738,138898,5
61656,138888,5
61658,138871,5
61637,138851,4
61639,138801,5
61624,138833,5
61622,138820,6
61605,138795,4
61589,138614,4
61558,138732,5
61546,138697,5
61513,138637,5
61490,138414,5
61474,138567,5
61453,138551,4
61449,138545,5
61442,138519,5
61446,138543,5
61445,138535,4
61433,138526,5
61430,138650,5
61388,138422,5
61346,138375,5
61320,138338,4
61309,138528,5
61300,138284,5
61289,138267,5
61265,138239,5
61265,138318,4
61258,138208,5
61243,138191,5
61226,138179,6
61210,138163,3
61191,138113,5
61186,138105,5
61174,138106,5
61174,138086,5
61177,138069,4
61148,138039,5
61125,137998,5
61107,137960,5
61085,137924,5
61068,137901,4
61060,137894,5
61056,137902,5
61061,137897,5
61069,137902,5
61061,137898,4
61055,137909,5
61064,137898,5
61042,137873,5
61038,137858,5
61034,137865,5
61038,137862,4
61033,137866,5
61038,137850,5
61041,137849,5
61021,137853,4
61022,137837,5
61014,137814,5
61004,137784,5
60986,137772,4
60969,137751,5
60961,137732,5
60949,137719,5
60937,137696,5
60946,137704,4
60937,137708,5
60947,137695,5
60931,137686,5
60936,137704,5
60954,137699,4
60957,137724,5
60959,137720,5
60951,137716,5
60955,137726,5
60963,137744,4
60983,137758,6
60988,137785,4
60986,137770,5
60998,137787,5
61005,137815,4
61029,137843,5
61046,137865,5
61053,137884,5
61064,137897,4
61076,137916,4
61086,137948,5
61117,137985,5
61146,138040,5
61173,138101,4
61191,138113,5
61209,138144,5
61245,138190,5
61268,138239,5
61300,138293,4
61332,138355,5
61375,138421,5
61405,138481,5
61446,138549,5
61483,138610,4
61520,138691,5
61574,138750,6
61622,138825,4
61659,138909,5
61704,138981,4
61743,139045,5
61783,139112,5
61814,139154,5
61777,139193,5
61871,139254,4
61888,139277,5
61908,139316,5
61778,139374,5
61973,139423,4
62002,139473,4
62040,139524,5
61880,139592,5
62104,139652,5
62131,139691,4
62169,139745,5
62200,139778,5
62217,139838,5
62253,139894,5
62270,139940,4
62486,140000,5
62342,140045,5
62365,140076,6
62379,140129,4
62620,140192,4
62460,140252,5
62516,140336,5
62558,140426,5
62677,140502,5
62659,140587,4
62715,140674,5
62771,140779,5
62827,140843,5
62885,140979,5
62933,141039,4
62966,141106,5
63009,141034,5
63042,141246,5
63065,141285,5
63090,141331,4
63112,141167,5
63131,141394,5
63156,141443,5
63172,141453,5
63175,141424,4
63175,141472,5
63185,141473,5
63188,141492,5
63194,141652,4
63209,141526,5
63219,141541,5
63237,141574,5
63260,141834,5
63287,141666,4
63324,141732,5
63358,141779,5
63408,141970,5
63459,141962,5
63516,142080,4
63603,142200,5
63664,142341,5
63735,142418,5
63793,142526,5
63839,142611,4
63881,142687,5
63949,142755,5
63973,142840,5
64033,142918,5
64083,143005,5
64130,143068,4
64159,143135,5
64201,143204,5
64242,143263,4
64272,143321,4
64321,143413,5
64368,143475,5
64407,143554,5
64451,143619,4
64491,143679,5
64530,143758,5
64572,143816,5
64614,143888,5
64638,143922,4
64663,143970,5
64695,144013,5
64710,144044,5
64739,144098,5
64772,144137,4
64793,144186,5
64825,144228,5
64848,144278,5
64889,144342,5
64919,144378,4
64929,144401,6
64931,144417,4
64943,144442,5
64947,144435,5
64953,144446,4
64970,144484,5
64996,144524,5
65011,144541,5
65023,144573,4
65063,144622,5
65083,144693,5
65114,144740,5
65151,144796,5
65203,144886,4
65247,144958,5
65287,145035,5
65334,145106,5
65370,145149,5
65393,145210,4
65425,145276,5
65470,145341,5
65507,145398,5
65537,145441,5
65565,145489,4
65578,145531,5
65604,145567,5
65621,145584,5
65617,145574,5
65626,145586,4
65615,145586,5
65621,145590,5
65617,145589,5
65619,145584,4
65631,145588,4
65629,145597,5
65634,145614,5
65653,145640,5
65663,145652,4
65669,145665,5
65688,145683,5
65677,145668,5
65678,145687,5
65684,145683,4
65675,145669,4
65597,145666,5
65669,145661,5
65669,145657,5
65666,145664,3
65496,145662,5
65672,145663,5
65667,145652,5
65664,145649,5
65456,145653,4
65664,145654,5
65663,145660,5
65668,145672,5
65695,145660,5
65666,145662,4
65662,145660,5
65674,145670,5
65864,145670,5
65682,145663,4
65665,145660,4
65674,145666,5
65879,145680,5
65675,145668,5
65666,145668,4
65669,145670,6
65736,145654,4
65673,145659,5
65675,145661,5
65677,145657,6
65679,145610,3
65669,145658,5
65662,145667,5
65666,145659,5
65676,145495,4
65667,145654,5
65669,145653,5
65668,145650,5
65676,145457,5
65677,145668,5
65670,145655,4
65672,145665,5
65668,145638,5
65664,145637,5
65670,145652,4
65671,145646,5
65662,145816,5
65659,145643,5
65664,145643,5
65656,145632,4
65658,145863,6
65656,145641,4
65655,145634,5
65659,145642,4
65660,145750,7
65669,145650,3
65680,145668,5
65674,145670,5
65680,145693,4
65671,145675,5
65676,145665,5
65677,145675,5
65687,145692,5
65687,145693,4
65677,145672,5
65666,145663,5
65651,145634,5
65641,145606,5
65630,145593,4
65631,145611,5
65637,145583,5
65614,145568,5
65608,145571,5
65610,145565,4
65603,145555,5
65594,145539,6
65578,145526,4
65566,145487,5
65543,145449,4
65516,145399,5
65478,145334,5
65444,145275,5
65404,145219,4
65381,145181,5
65345,145128,5
65316,145061,5
65274,145001,5
65240,144952,4
65215,144903,5
65192,144862,5
65159,144823,5
65147,144780,5
65117,144738,4
65085,144686,5
65049,144610,5
65001,144539,5
64956,144477,5
64935,144428,4
64908,144377,5
64891,144370,5
64880,144348,6
64865,144315,4
64851,144293,4
64827,144231,5
64789,144199,5
64778,144156,5
64753,144122,5
64719,144085,4
64710,144055,5
64692,144031,5
64681,144021,5
64675,144013,4
64676,144013,4
64675,143999,5
64664,143985,5
64649,143966,5
64641,143947,4
64628,143929,5
64616,143912,5
64598,143888,5
64585,143842,5
64555,143795,5
64536,143764,4
64507,143721,5
64490,143685,5
64458,143651,6
64446,143621,3
64438,143594,5
64410,143561,5
64396,143541,5
64385,143510,5
64368,143484,4
64334,143429,5
64313,143389,5
64296,143352,5
64226,143349,5
64272,143324,4
64243,143279,5
64249,143288,5
64095,143287,5
64235,143256,4
64199,143196,4
64161,143139,5
63907,143040,5
64048,142921,5
63958,142775,4
63884,142656,6
63804,142555,4
63746,142443,5
63692,142340,5
63614,142229,4
63715,142116,5
63496,142016,5
63463,141948,5
63437,141942,5
63639,141916,4
63416,141904,5
63439,141941,5
63458,141977,5
63570,142005,5
63492,142030,4
63511,142051,5
63517,142083,5
63562,142088,5
63560,142145,5
63588,142190,4
63607,142204,5
63615,142083,5
63643,142272,5
63663,142310,4
63696,142351,4
63715,142194,6
63734,142429,4
63761,142478,5
63788,142515,4
63788,142444,5
63802,142540,5
63816,142567,5
63842,142605,5
63873,142797,4
63898,142710,5
63938,142754,5
63964,142818,5
64006,143083,5
64022,142900,4
64037,142925,5
64048,142946,5
64069,143072,5
64065,142956,5
64075,142968,4
64088,142985,5
64091,143034,5
64101,143020,5
64104,143033,5
64114,143060,4
64136,143084,5
64136,143076,6
64155,143106,4
64160,143121,4
64169,143134,4
64187,143164,5
64197,143176,5
64191,143179,5
64196,143186,4
64199,143187,5
64200,143177,5
64192,143177,5
64202,143176,5
64203,143192,4
64200,143191,5
64210,143182,5
64196,143193,5
64210,143186,5
64200,143193,4
64202,143189,5
64207,143191,5
64209,143202,5
64209,143204,5
64205,143201,4
64203,143199,5
64213,143191,5
64215,143192,5
64209,143194,5
64216,143190,4
64216,143194,5
64206,143189,5
64203,143166,5
64190,143183,4
64196,143170,4
64199,143181,5
64191,143186,5
64194,143174,5
64199,143172,4
64197,143176,5
64193,143182,5
64200,143187,5
64208,143199,5
64205,143198,4
64210,143198,5
64208,143188,5
64213,143187,5
64189,143179,5
64180,143154,5
64172,143125,4
64156,143097,5
64131,143071,5
64116,143030,5
64094,142997,4
64075,142957,5
64055,142947,5
64040,142935,5
64045,142919,5
64029,142907,4
64012,142864,5
63991,142834,5
63991,142816,5
63992,142823,4
63982,142830,4
63983,142822,5
63982,142814,5
63980,142820,5
63979,142814,4
63983,142829,5
63977,142824,5
63986,142842,5
64010,142859,5
64010,142857,4
64009,142860,6
63951,142857,4
63993,142849,5
64000,142837,5
63992,142834,4
63826,142835,5
63978,142827,5
63988,142823,5
63982,142810,5
63784,142816,4
63982,142822,5
63980,142809,5
63976,142805,5
63965,142798,5
63959,142793,9
63953,142777,5
63957,142777,10
63957,142777,9
64181,142783,5
63971,142799,13
63971,142799,7
63937,142791,10
63958,142794,7
63963,142755,5
63940,142744,10
63940,142744,2
63926,142741,3
63931,142728,5
63929,142532,5
63927,142735,5
63928,142739,5
63930,142736,5
63933,142673,4
63927,142738,5
63934,142741,5
63929,142733,5
63933,142877,4
63930,142741,5
63933,142727,5
63924,142730,6
63928,142958,3
