RED,IR,EKG,TIME
64216,143147,183774
64230,143175,0
64252,143193,4
64217,142364,4
64245,142393,5
64263,142424,5
64271,142447,5
64294,142460,4
64299,142492,4
64313,142526,5
64341,142553,5
64369,142602,5
64394,142651,4
64426,142721,5
64469,142783,5
64506,142860,5
64548,142915,5
64572,142967,5
64611,143032,4
64659,143106,5
64707,143183,5
64746,143265,6
64812,143368,3
64855,143451,5
64911,143541,5
64976,143645,5
65026,143746,5
65082,143843,4
65135,143932,5
65180,144005,5
65223,144072,5
65257,144116,4
65270,144161,4
65306,144201,5
65327,144247,5
65358,144296,5
65389,144341,4
65419,144405,5
65439,144459,5
65444,144511,5
65513,144562,5
65538,144621,4
64815,144682,6
64702,144754,4
64889,144823,5
64918,144899,5
64961,144946,4
64826,145009,5
65040,145073,5
65074,145137,5
65120,145204,5
65115,145246,4
65155,145289,5
65193,145345,5
65219,145390,5
65372,145383,4
65222,145384,4
65214,145375,5
65211,145349,5
65397,145357,5
65211,145372,4
65208,145370,5
65198,145357,5
65264,145345,5
65200,145353,5
65198,145356,4
65206,145386,5
65233,145387,6
65237,145439,4
65247,145454,5
65261,145471,4
65271,145347,5
65285,145516,5
65296,145525,5
65304,145533,5
65310,145362,4
65318,145546,5
65310,145553,5
65315,145559,5
65325,145548,4
65330,145601,4
65344,145625,5
65359,145645,5
65375,145818,5
65383,145689,4
65397,145706,5
65404,145724,5
65415,145929,5
65426,145744,5
65427,145781,4
65454,145820,5
65491,145941,5
65511,145918,6
65541,145923,4
65533,145936,4
65542,145963,5
65538,145954,5
65541,145939,5
65539,145946,5
65552,145969,4
65553,145971,5
65554,145979,5
65571,145994,5
65571,146002,4
65578,146021,4
65593,146050,5
65618,146081,5
65633,146119,5
65656,146167,4
65686,146199,5
65705,146231,5
65720,146258,5
65735,146269,5
65743,146286,5
65734,146270,4
65733,146284,5
65729,146278,5
65733,146260,5
65727,146259,4
65716,146243,5
65708,146224,5
65696,146214,5
65685,146191,5
65663,146162,4
65646,146124,5
65621,146089,5
65599,146059,5
65583,146024,5
65561,146008,4
65549,145979,5
65534,145963,5
65528,145950,5
65508,145935,4
65534,145935,5
65525,145938,5
65535,145965,5
65550,146000,5
65570,146031,4
65597,146064,6
65629,146109,4
65635,146141,5
65641,146149,5
65652,146154,4
65657,146156,5
65649,146149,5
65648,146138,5
65636,146128,5
65622,146097,4
65610,146078,5
65592,146046,5
65572,146031,5
65558,146002,5
65544,145970,4
65515,145924,5
65500,145900,5
65488,145889,5
65472,145879,4
65474,145863,4
65474,145866,5
65483,145877,5
65471,145875,5
65479,145880,4
65481,145889,5
65478,145904,6
65490,145915,4
65480,145911,5
65504,145921,4
65500,145930,5
65509,145940,5
65512,145953,5
65521,145960,5
65528,145972,4
65444,145980,5
65541,145991,5
65551,146015,5
65563,146022,5
65397,146032,4
65569,146030,5
65573,146031,5
65556,146024,5
65410,146017,4
65559,146005,4
65550,146010,5
65552,146004,5
65619,145998,5
65538,146001,4
65545,145993,5
65535,145989,5
65723,145978,5
65540,145991,5
65550,146002,4
65553,146017,5
65701,146023,5
65557,146014,5
65549,145998,5
65537,145992,4
65577,145992,5
65543,145997,5
65550,146005,5
65562,146014,5
65556,145939,4
65556,146016,5
65555,146005,5
65551,146005,5
65555,145862,5
65565,146022,4
65573,146044,5
65582,146046,5
65575,145866,5
65566,146044,5
65575,146053,4
65579,146065,4
65583,146122,5
65598,146088,5
65598,146091,4
65608,146095,5
65609,146293,5
65622,146115,5
65612,146127,5
65620,146119,4
65618,146284,5
65615,146106,5
65619,146119,5
65606,146107,5
65606,146170,4
65616,146112,5
65602,146116,5
65600,146104,5
65602,146105,8
65604,146099,1
65593,146100,6
65600,146126,4
65602,146100,5
65597,146088,4
65597,146082,6
65591,146080,3
65583,146075,5
65581,146080,5
65589,146079,4
65582,146078,5
65580,146072,5
65589,146079,5
65599,146107,5
65605,146115,4
65610,146130,5
65624,146137,5
65626,146153,5
65636,146170,5
65648,146189,4
65650,146195,5
65666,146208,5
65667,146220,5
65673,146232,5
65677,146227,4
65694,146250,5
65694,146273,6
65716,146281,4
65727,146313,5
65735,146329,4
65757,146352,5
65772,146376,5
65782,146417,5
65797,146427,4
65810,146448,5
65821,146470,5
65841,146495,5
65843,146509,5
65857,146520,4
65866,146525,5
65861,146526,5
65871,146542,5
65866,146548,5
65884,146566,4
65886,146581,5
65887,146585,5
65890,146590,5
65907,146600,5
65905,146611,4
65909,146623,5
65922,146631,5
65922,146627,6
65926,146630,4
65914,146629,4
65923,146635,5
65929,146642,5
65937,146665,5
65946,146678,4
65949,146678,4
65945,146694,5
65960,146701,5
65960,146707,5
65959,146700,4
65960,146693,5
65964,146708,5
65972,146698,5
65965,146701,5
65972,146703,4
65976,146706,5
65968,146719,5
65968,146727,5
65984,146734,5
65985,146744,5
65985,146747,4
65992,146744,5
65991,146751,5
65871,146735,6
65980,146740,3
65988,146728,5
65973,146729,5
65804,146741,5
65984,146746,5
65984,146748,4
65992,146747,5
65886,146746,5
66001,146750,5
65987,146759,4
66002,146762,5
66106,146773,5
66018,146803,5
66037,146823,5
66055,146855,4
66252,146865,5
66059,146856,5
66060,146860,5
66048,146836,5
66162,146850,4
66049,146847,6
66042,146848,4
66054,146856,5
66062,146834,5
66033,146840,4
66028,146824,5
66035,146842,5
66037,146731,5
66045,146851,5
66040,146864,4
66044,146842,5
66050,146688,5
66051,146853,5
66059,146864,5
66060,146878,4
66075,146760,5
66089,146921,5
66090,146949,5
66106,146971,4
66130,147083,5
66142,147025,5
66163,147046,5
66176,147072,5
66193,147296,4
66205,147131,5
66218,147146,6
66219,147148,4
66231,147309,5
66238,147180,4
66245,147189,5
66252,147205,5
66269,147253,5
66257,147223,5
66272,147236,4
66268,147248,5
66294,147274,5
66313,147302,5
66315,147305,5
66311,147328,4
66329,147335,5
66334,147343,5
66339,147354,5
66346,147387,4
66378,147430,5
66399,147469,5
66438,146859,5
66474,146916,5
66504,146966,4
66540,147018,5
66570,147076,5
66590,147106,6
66621,147162,4
66649,147203,4
66665,147246,5
66702,147289,5
66715,147325,5
66740,147358,5
66755,147390,4
66781,147421,5
66799,147454,5
66811,147475,5
66822,147497,5
66842,147513,4
66852,147547,5
66852,147546,5
66864,147571,5
66880,147588,4
66882,147608,4
66896,147626,5
66923,147661,5
66938,147709,5
66963,147733,5
66991,147762,4
67008,147813,5
67025,147838,5
67039,147850,5
67044,147864,4
67045,147863,5
67044,147869,5
67049,147865,5
67044,147861,5
67048,147866,4
67036,147852,5
67035,147846,5
67038,147839,5
67023,147835,5
67028,147830,4
67029,147841,5
67028,147838,5
67024,147834,5
67013,147825,4
67015,147828,4
67014,147819,5
67023,147825,5
67011,147827,5
67018,147827,4
67016,147832,6
67030,147836,4
67031,147828,5
67021,147840,5
67018,147831,4
67029,147834,5
67034,147829,5
67014,147835,5
67009,147821,5
67003,147809,4
66992,147793,5
66986,147795,5
66959,147787,5
66981,147788,5
66975,147757,4
66979,147769,5
66838,147757,5
66971,147751,5
66974,147752,5
66979,147757,4
66787,147747,5
66952,147720,5
66917,147645,5
66857,147551,4
66769,147471,5
66765,147398,6
66693,147272,4
66613,147150,5
66649,146988,4
66400,146807,5
66281,146611,5
66161,146424,5
66248,146244,5
65941,146054,4
65812,145861,5
65696,145675,5
65654,145469,5
65417,145234,5
65285,145024,4
65163,144828,5
65060,144625,5
64934,144463,5
64828,144293,5
64739,144153,4
64671,143939,5
64619,143955,5
64577,143888,6
64545,143851,3
64520,143643,4
64513,143804,5
64497,143781,5
64501,143780,5
64496,143709,4
64492,143791,5
64508,143796,5
64504,143808,5
64526,143933,5
64546,143850,4
64572,143898,5
64592,143931,5
64620,144188,5
64658,144036,5
64669,144053,4
64664,144068,5
64689,144195,5
64691,144096,5
64713,144127,5
64726,144155,4
64749,144201,5
64775,144226,5
64785,144255,5
64812,144272,5
64836,144325,4
64872,144381,5
64901,144425,5
64926,144472,5
64962,144528,4
64992,144574,5
65023,144641,5
65065,144679,5
65098,144749,5
65139,144803,4
65184,144876,5
65228,144953,5
65287,145048,5
65343,145150,5
65404,145226,4
65453,145330,5
65525,145423,5
65579,145520,5
65639,145607,5
65697,145705,4
65737,145775,5
65781,145832,5
65818,145890,5
65847,145947,5
65870,145974,5
65887,145994,4
65906,146023,5
65926,146058,5
65952,146106,4
65975,146153,4
66005,146197,5
66031,146224,5
66045,146256,5
66049,146267,4
66054,146269,5
66057,146272,5
66052,146283,5
66073,146290,5
66073,146298,4
66077,146314,5
66078,146314,5
66090,146327,5
66091,146344,5
66098,146347,4
66108,146378,5
66124,146386,5
66133,146407,5
66126,146387,5
66137,146391,4
66119,146392,6
66131,146390,3
66138,146403,5
66135,146395,5
66132,146401,4
66142,146392,5
66126,146391,5
66126,146411,5
66144,146408,4
66148,146439,4
66164,146455,5
66179,146478,5
66192,146485,5
66203,146507,4
66215,146522,5
66215,146542,5
66229,146546,5
66231,146570,5
66240,146586,4
66248,146581,5
66246,146580,5
66246,146574,6
66255,146577,4
66246,146573,4
66211,146574,5
66243,146575,5
66253,146574,5
66251,146587,5
66115,146590,4
66246,146591,5
66249,146588,5
66258,146592,5
66070,146595,5
66247,146592,4
66259,146604,5
66270,146615,5
66237,146639,5
66296,146656,4
66295,146660,5
66306,146676,5
66453,146683,5
66324,146701,5
66327,146720,5
66348,146738,4
66542,146758,5
66367,146772,5
66376,146794,6
66388,146801,3
66489,146830,5
66409,146860,5
66429,146883,5
66444,146925,5
66491,146946,4
66491,146988,5
66512,147026,5
66533,147048,5
66548,146959,5
66565,147099,4
66576,147136,5
66610,147174,5
66629,147010,5
66639,147220,4
66660,147263,4
66683,147288,5
66689,147239,5
66716,147340,5
66720,147372,4
66733,147375,6
66751,147507,4
66744,147385,5
66735,147392,5
66740,147383,6
66747,147590,3
66734,147385,5
66751,147389,5
66747,147395,5
66751,147512,4
66760,147409,5
66767,147423,5
66769,147431,5
66773,147465,5
66781,147450,4
66772,147448,5
66775,147448,5
66781,147439,5
66784,147460,5
66789,147457,4
66804,147480,5
66804,147493,5
66802,147471,5
66788,147470,4
66795,147464,5
66793,147462,6
66788,147455,4
66777,147439,5
66760,147405,4
66738,147375,5
66724,147365,5
66720,147342,5
66706,147342,5
66724,147349,4
66728,147350,5
66725,147366,5
66715,147362,6
66720,147358,4
66736,147372,4
66735,147367,5
66740,147366,5
66741,147382,5
66752,147374,5
66743,147396,4
66754,147413,5
66760,147403,5
66760,147410,5
66764,147416,4
66766,147408,4
66760,147418,5
66754,147389,6
66731,147358,4
66705,147322,4
66675,147264,5
66646,147213,5
66604,147161,5
66568,147077,5
66524,147005,4
66492,146951,5
66461,146914,5
66441,146899,5
66427,146875,5
66404,146833,4
66387,146808,5
66376,146800,5
66376,146786,5
66373,146789,5
66376,146787,4
66375,146793,5
66380,146791,5
66387,146804,5
66389,146802,5
66396,146821,4
66397,146841,5
66407,146833,5
66407,146838,6
66408,146827,3
66407,146835,5
66414,146832,5
66407,146848,5
66422,146856,5
66434,146877,4
66436,146890,5
66448,146914,5
66473,146938,5
66488,146958,5
66503,146973,4
66506,146986,5
66507,146989,5
66522,147017,5
66455,147030,5
66542,147053,4
66553,147072,5
66572,147107,5
66426,147135,5
66614,147173,5
66638,147205,5
66669,147260,4
66516,147317,5
66725,147341,5
66737,147381,4
66763,147411,4
66811,147446,5
66801,147485,5
66828,147527,5
66855,147562,4
67032,147570,5
66855,147558,5
66849,147552,5
66848,147554,5
67036,147550,4
66856,147559,5
66855,147566,5
66852,147563,5
66906,147556,5
66855,147560,4
66863,147575,5
66870,147583,5
66884,147548,5
66885,147612,5
66885,147603,4
66882,147611,6
66880,147474,4
66902,147633,5
66906,147652,5
66918,147670,4
66940,147505,5
66937,147692,5
66957,147719,5
66954,147727,4
66962,147731,4
66973,147753,5
66985,147751,5
66973,147763,5
66979,147928,4
66990,147779,5
66991,147783,5
67001,147789,5
67013,148025,5
67020,147836,4
67018,147839,5
67033,147874,5
67052,147963,5
67066,147906,5
67078,147923,4
67098,147963,5
67119,147995,6
67127,148004,4
67135,148002,5
67133,148026,4
67138,148029,5
67141,148045,5
67168,148072,5
67176,148100,4
67197,148126,4
67205,148136,5
67212,148147,5
67218,148160,5
67227,148193,4
67240,148201,5
67259,148204,5
67264,148219,5
67269,148229,5
67272,148227,4
67270,148243,5
67291,148263,5
67294,148275,5
67303,148295,5
67321,148303,4
67326,148342,5
67332,148358,5
67359,148377,6
67374,148418,4
67393,148448,4
67406,148464,5
67425,148477,5
67431,148501,5
67436,148504,5
67438,148509,4
67432,148501,5
67430,148506,5
67428,148480,5
67416,148480,4
67408,148456,4
67391,148437,5
67375,148409,5
67367,148377,5
67347,148352,4
67321,148313,5
67303,148281,5
67279,148243,5
67242,148163,5
67193,148102,5
67166,148053,4
67149,148030,5
67142,148018,5
67125,148010,5
67122,147979,4
67085,147912,5
67041,147855,5
67007,147794,5
66969,147747,5
66970,147745,4
66971,147734,5
66954,147722,5
66942,147701,5
66928,147662,5
66903,147613,4
66867,147567,5
66840,147546,5
66840,147525,5
66823,147520,4
66820,147494,5
66795,147458,5
66775,147421,5
66756,147393,5
66754,147373,4
66742,147368,6
66731,147351,4
66724,147346,5
66722,147344,5
66724,147345,4
66729,147339,5
66632,147339,5
66729,147353,5
66748,147367,5
66747,147384,4
66601,147400,5
66766,147398,5
66771,147398,5
66762,147404,5
66594,147404,4
66763,147404,5
66763,147405,5
66760,147405,5
66849,147425,4
66797,147448,4
66818,147485,5
66813,147508,5
67020,147525,5
66857,147533,4
66854,147557,5
66871,147576,6
67027,147583,4
66877,147587,5
66890,147596,4
66888,147612,5
66935,147609,5
66883,147613,5
66884,147620,5
66895,147616,4
66896,147557,5
66903,147634,5
66904,147641,5
66904,147643,5
66909,147486,4
66906,147641,5
66910,147646,5
66916,147668,5
66925,147463,5
66921,147652,4
66927,147675,5
66941,147680,5
66942,147729,5
66934,147694,4
66938,147687,4
66940,147689,5
66935,147861,5
66933,147685,5
66936,147685,4
66928,147666,5
66919,147842,5
66927,147661,5
66915,147640,5
66910,147648,4
66907,147682,5
66901,147623,5
66898,147608,5
66896,147609,5
66895,147613,4
66887,147603,5
66889,147599,5
66876,147577,5
66847,147542,5
66831,147509,5
66819,147481,4
66805,147465,5
66795,147458,5
66785,147437,6
66759,147401,3
66740,147370,5
66715,147342,5
66700,147311,5
66691,147294,4
66698,147299,5
66679,147274,5
66675,147265,5
66665,147235,5
66658,147226,4
66647,147214,5
66646,147204,5
66631,147197,5
66633,147203,5
66634,147188,4
66633,147192,5
66628,147185,5
66636,147191,5
66621,147180,5
66621,147181,4
66623,147176,6
66618,147183,4
66630,147177,5
66623,147179,5
66621,147178,6
66616,147192,3
66624,147199,5
66630,147201,5
66645,147234,4
66657,147237,4
66661,147246,5
66669,147243,5
66660,147260,5
66671,147272,4
66678,147270,5
66678,147274,5
66690,147279,5
66689,147292,5
66696,147321,4
66710,147334,5
66717,147355,5
66722,147355,5
66723,147365,5
66738,147360,4
66739,147375,5
66748,147391,6
66759,147406,4
66772,147422,5
66775,147448,4
66782,147435,5
66771,147445,5
66782,147440,5
66789,147446,5
66779,147462,4
66783,147465,5
66780,147457,5
66792,147463,5
66790,147469,4
66796,147466,5
66805,147474,5
66792,147482,5
66813,147478,5
66815,147500,4
66818,147504,5
66832,147517,5
66832,147527,5
66842,147531,5
66734,147549,4
66853,147574,5
66865,147573,5
66876,147584,6
66702,147601,4
66880,147612,4
66880,147623,5
66896,147629,5
66786,147637,5
66911,147638,5
66905,147635,4
66906,147635,5
67004,147642,5
66906,147649,5
66908,147653,4
66916,147668,4
67125,147686,5
66931,147700,5
66957,147728,5
66955,147733,4
67085,147745,5
66961,147732,5
66963,147737,5
66963,147728,5
66990,147725,5
66954,147729,4
66948,147725,5
66954,147714,5
66951,147618,6
66948,147704,3
66949,147716,5
66952,147724,5
66946,147548,5
66955,147718,5
66955,147715,4
66953,147734,4
66950,147569,5
66963,147727,5
66962,147742,5
66967,147751,4
66978,147834,5
66973,147773,5
66975,147783,5
66984,147779,4
66992,147973,5
66994,147784,5
66997,147778,5
66998,147796,5
67000,147950,4
67006,147814,6
67000,147814,4
67007,147811,5
67014,147871,5
67016,147829,4
67020,147829,5
67023,147825,5
67014,147821,5
67002,147803,5
67002,147790,4
66976,147774,5
66975,147768,5
66970,147749,5
66962,147745,5
66950,147719,4
66934,147705,5
66928,147693,5
66929,147693,5
66922,147682,4
66940,147696,4
66943,147701,5
66935,147690,5
66923,147670,5
66892,147617,4
66880,147598,5
66879,147594,6
66883,147594,4
66880,147602,5
66879,147603,4
66870,147589,5
66862,147595,5
66865,147578,5
66863,147588,5
66875,147592,4
66868,147587,5
66863,147560,5
66849,147536,5
66830,147518,5
66808,147476,4
66806,147476,5
66793,147464,5
66792,147468,5
66788,147466,5
66800,147480,4
66801,147494,5
66807,147486,5
66802,147485,5
66792,147478,4
66797,147473,8
66793,147457,1
66773,147446,6
66774,147393,4
66753,147403,4
66741,147375,5
66725,147356,5
66718,147329,5
66699,147319,5
66690,147300,4
66681,147290,5
66680,147262,5
66671,147261,5
66654,147246,5
66634,147221,4
66639,147206,5
66611,147159,5
66581,147113,5
66542,147065,5
66518,147001,4
66485,146955,5
66460,146920,5
66441,146902,5
66417,146864,5
66414,146858,4
66397,146831,5
66388,146807,5
66389,146816,6
66393,146812,3
66393,146829,5
66389,146814,5
66390,146809,5
66379,146809,5
66384,146816,4
66384,146812,5
66382,146791,5
66237,146743,5
66335,146706,5
66305,146678,4
66276,146632,5
66080,146584,5
66233,146557,5
66214,146528,5
66187,146484,4
66092,146452,5
66172,146445,5
66164,146425,5
66142,146417,5
66271,146421,5
66155,146416,4
66162,146423,5
66155,146430,5
66360,146445,4
66162,146441,4
66161,146447,5
66167,146455,5
66278,146449,5
66171,146455,4
66173,146457,5
66173,146448,5
66186,146460,5
66167,146444,5
66158,146431,4
66145,146412,5
66133,146265,5
66094,146330,5
66080,146304,5
66049,146272,4
66042,146070,5
66029,146210,5
66012,146175,5
66001,146162,5
65987,146031,4
65983,146138,6
65966,146123,4
65955,146115,5
65970,146226,5
65978,146137,4
65986,146151,5
65985,146151,5
65993,146351,5
65977,146141,4
65974,146138,4
65977,146137,5
65972,146267,5
65982,146130,5
65969,146125,4
65969,146118,5
65970,146149,5
65960,146112,5
65961,146114,5
65970,146130,4
65972,146137,5
65981,146147,5
65988,146152,5
65993,146164,5
65997,146171,4
66004,146171,5
66010,146193,7
66017,146197,3
66016,146200,5
66022,146198,4
66022,146196,5
66014,146192,5
66014,146174,5
65997,146168,4
65986,146146,4
65977,146134,5
65963,146108,5
65945,146099,5
65946,146066,4
65918,146052,5
65919,146044,5
65918,146034,5
65903,146016,5
65892,146005,4
65904,146014,5
65887,146004,5
65875,145977,5
65863,145959,5
65854,145928,4
65837,145913,5
65816,145871,5
65792,145844,5
65783,145821,5
65772,145813,4
65778,145806,5
65760,145787,5
65751,145780,5
65753,145770,5
65751,145749,4
65734,145741,5
65715,145719,5
65707,145707,5
65695,145691,4
65703,145688,4
65702,145699,5
65696,145694,5
65707,145697,5
65698,145692,4
65706,145692,5
65703,145709,5
65703,145711,5
65709,145719,5
65712,145714,5
65722,145709,4
65726,145728,5
65726,145721,5
65720,145728,5
65728,145720,4
65731,145724,5
65723,145734,5
65725,145736,5
65729,145725,5
65727,145733,4
65726,145734,5
65733,145739,5
65749,145770,5
65749,145779,5
65763,145790,4
65772,145808,5
65778,145838,5
65803,145855,5
65810,145884,4
65828,145898,5
65805,145910,5
65834,145914,4
65844,145935,5
65857,145951,4
65726,145955,6
65869,145975,3
65874,145985,5
65889,145989,5
65716,146007,4
65913,146025,5
65917,146029,5
65918,146036,5
65876,146019,5
65916,146021,4
65904,146019,5
65901,146016,5
66046,146018,5
65911,146028,5
65903,146042,4
65917,146037,5
66097,146007,5
65894,146000,5
65886,145994,4
65894,145998,4
65988,146014,5
65908,146036,6
65925,146058,4
65939,146077,4
65971,146099,5
65978,146137,5
66008,146174,5
66016,146205,5
66038,146120,4
66055,146255,5
66065,146282,5
66082,146315,5
66090,146158,5
66102,146339,4
66092,146343,5
66106,146343,5
66105,146272,5
66115,146364,5
66122,146379,4
66135,146401,5
66144,146552,5
66171,146463,5
66193,146491,5
66203,146516,4
66224,146771,5
66250,146592,5
66276,146649,6
66304,146692,3
66328,146827,4
66346,146739,5
66357,146770,5
66375,146811,5
66411,146884,4
66435,146900,5
66455,146952,5
66475,146974,5
66496,147005,5
66520,147041,4
66533,147072,5
66569,147113,5
66586,147151,5
66609,147180,5
66621,147207,4
66643,147254,5
66659,147297,5
66694,147337,5
66723,147366,5
66744,147407,5
66762,147459,4
66789,147503,5
66841,147566,5
66860,147617,6
66885,147633,3
66906,147670,5
66905,147671,5
66907,147679,5
66907,147676,4
66898,147670,5
66888,147643,5
66882,147643,5
66864,147621,5
66854,147598,4
66843,147586,5
66830,147555,5
66820,147542,5
66806,147515,5
66794,147498,4
66778,147475,5
66761,147446,5
66752,147419,5
66732,147393,5
66711,147362,4
66668,147307,6
66648,147260,4
66618,147226,5
66600,147191,5
66588,147167,4
66560,147122,5
66526,147076,5
66500,147025,5
66466,146964,4
66426,146902,4
66406,146855,5
66382,146825,5
66364,146784,5
66338,146739,4
66292,146674,5
66249,146610,5
66193,146518,5
66165,146469,5
66138,146425,4
66098,146374,5
66071,146316,5
66038,146267,5
66009,146207,5
65982,146184,4
65969,146152,5
65961,146141,6
65963,146140,4
65968,146128,5
65960,146117,4
65948,146115,5
65930,146096,5
65916,146063,5
65902,146045,5
65894,146024,4
65886,146008,5
65879,145999,5
65874,145996,5
65823,145994,4
65875,145987,4
65867,146005,5
65882,146020,5
65751,146018,5
65890,146028,4
65896,146027,5
65908,146034,5
65719,146032,5
65892,146034,5
65892,146042,4
65904,146042,5
65871,146049,5
65914,146061,6
65915,146062,4
65927,146068,4
66067,146084,5
65917,146078,5
65919,146073,5
65913,146062,5
66113,146073,4
65920,146064,5
65922,146069,5
65918,146073,5
65998,146070,5
65917,146070,4
65922,146074,5
65924,146071,5
65951,146061,5
65931,146091,4
65938,146111,5
65946,146118,5
65958,146009,5
65969,146155,5
65979,146157,5
65978,146169,4
65995,146000,5
65993,146178,5
65995,146192,5
66008,146202,4
66013,146146,5
66024,146228,5
66032,146236,5
66043,146266,5
66045,146381,4
66053,146271,5
66047,146273,5
66055,146284,5
66057,146488,5
66061,146295,4
66063,146297,5
66067,146290,5
66071,146417,5
66075,146321,4
66077,146317,4
66079,146323,5
66083,146343,5
66084,146310,5
66088,146334,4
66090,146345,6
66108,146365,4
66119,146366,5
66125,146388,5
66138,146397,4
66134,146421,5
66152,146423,5
66156,146456,5
66150,146444,5
66148,146424,4
66147,146427,5
66124,146399,5
66111,146351,5
66081,146309,5
66063,146266,4
66035,146222,5
65996,146185,5
65979,146152,5
65971,146139,5
65963,146118,4
65953,146077,5
65899,145998,5
65849,145904,5
65787,145808,4
65758,145778,4
65733,145733,6
65700,145650,4
65643,145582,5
65583,145476,4
65515,145369,5
65435,145229,5
65336,145072,5
65246,144918,5
65164,144774,4
65085,144642,5
65009,144519,5
64945,144418,5
64884,144329,5
64836,144236,4
64799,144175,5
64758,144104,5
64704,144028,5
64663,143940,5
64598,143840,4
64536,143732,5
64462,143613,5
64402,143486,5
64315,143374,5
64251,143260,4
64176,143121,5
64101,143001,6
64031,142874,4
63941,142752,4
63856,142587,5
63774,142435,5
63689,142306,5
63606,142167,5
63511,141993,4
63409,141826,5
63314,141660,5
63249,141557,5
63166,141424,6
63088,141273,3
62980,141089,5
62881,140911,5
62774,140726,5
62670,140579,5
62611,140473,4
62550,140359,5
62479,140229,5
62410,140121,5
62339,140004,5
62274,139894,4
62218,139809,5
62108,139705,5
62108,139607,5
62036,139507,5
61991,139419,4
61793,139320,5
61886,139239,5
61861,139192,5
61815,139108,4
61598,139009,5
61702,138910,5
61645,138811,5
61596,138742,5
61571,138676,4
61514,138595,5
61478,138536,5
61440,138469,5
61549,138420,5
61376,138380,4
61341,138313,6
61309,138227,4
61420,138149,5
61221,138092,5
61181,138010,5
61114,137917,4
61131,137837,5
61029,137757,5
60968,137673,5
60924,137592,4
60885,137496,5
60833,137456,5
60797,137383,5
60755,137302,4
60698,137073,4
60651,137110,5
60613,137046,5
60580,137002,5
60552,136792,4
60531,136908,5
60497,136851,5
60444,136760,5
60404,136657,5
60366,136614,4
60316,136536,5
60270,136463,5
60227,136523,5
60208,136363,5
60198,136344,4
60198,136343,6
60191,136512,4
60190,136323,5
60171,136310,5
60166,136303,4
60167,136390,5
60186,136312,5
60191,136331,5
60195,136338,5
60210,136375,4
60211,136369,5
60223,136372,5
60232,136397,5
60239,136411,4
60247,136435,4
60262,136443,5
60267,136457,5
60276,136466,5
60288,136481,4
60295,136491,5
60296,136495,5
60310,136519,5
60310,136522,4
60320,136547,4
60340,136570,5
60370,136624,5
60399,136666,5
60438,136732,5
60479,136813,4
60519,136865,5
60558,136944,5
60608,137026,5
60656,137100,5
60705,137181,4
60744,137244,5
60778,137306,5
60823,137364,5
60843,137401,5
60870,137439,4
60888,137484,5
60910,137526,5
60943,137574,5
60986,137645,5
61031,137732,4
61082,137812,5
61138,137913,5
61197,138007,6
61253,138119,3
61314,138224,5
61387,138346,5
61456,138451,5
61534,138585,5
61599,138699,4
61676,138830,5
61759,138944,5
61815,139056,5
61885,139177,5
61957,139276,4
62026,139407,5
62084,139491,5
62126,139573,5
62157,139629,5
62183,139663,4
62209,139713,5
62229,139744,5
62246,139782,5
62274,139819,4
62287,139842,5
62304,139869,4
62322,139907,5
62347,139937,5
62374,139992,6
62399,140028,3
62428,140071,5
62453,140138,5
62497,140202,5
62547,140263,4
62557,140289,5
62558,140296,5
62553,140293,5
62558,140299,5
62566,140310,4
62564,140332,5
62576,140334,5
62588,140339,5
62581,140342,5
62550,140358,4
62614,140405,5
62625,140414,5
62649,140454,5
62526,140477,5
62682,140499,4
62701,140535,6
62715,140559,4
62562,140574,5
62745,140599,4
62766,140633,4
62785,140675,5
62802,140716,5
62822,140742,5
62839,140769,4
62862,140807,5
63014,140825,5
62878,140827,5
62875,140827,5
62880,140821,4
63062,140834,5
62888,140837,5
62890,140855,5
62891,140850,5
62960,140865,4
62910,140887,5
62918,140923,5
62945,140945,5
62965,140941,5
62973,141005,4
62996,141029,5
62996,141041,6
63012,140925,4
63013,141072,4
63017,141071,4
63031,141088,5
63039,140928,5
63042,141121,5
63060,141150,5
63074,141169,4
63085,141158,5
63092,141209,5
63112,141224,5
63117,141254,4
63129,141410,5
63135,141287,5
63150,141314,5
63171,141332,5
63184,141552,4
63203,141393,5
63228,141433,5
63246,141471,5
63275,141588,5
63284,141548,4
63320,141594,5
63335,141624,5
63349,141669,6
63378,141691,4
63385,141710,4
63409,141735,5
63413,141742,5
63423,141763,5
63432,141766,4
63434,141767,4
63434,141788,5
63446,141791,5
63447,141810,5
63463,141813,4
63465,141839,5
63477,141870,5
63493,141883,5
63507,141901,5
63517,141927,4
63534,141958,5
63553,141993,5
63557,142016,5
63582,142048,5
63604,142081,5
63621,142118,4
63642,142141,5
63663,142180,5
63683,142210,6
63696,142234,3
63722,142262,5
63723,142280,5
63744,142317,5
63761,142334,4
63770,142356,4
63771,142352,5
63760,142323,5
63745,142305,5
63742,142301,4
63734,142284,5
63726,142283,5
63725,142279,5
63709,142252,5
63692,142229,4
63686,142217,5
63688,142216,5
63681,142214,5
63674,142216,5
63684,142218,4
63690,142216,6
63685,142223,4
63679,142223,5
63680,142227,5
63676,142216,4
63672,142213,5
63668,142197,5
63655,142173,5
63636,142139,5
63614,142108,4
63601,142087,5
63583,142048,5
63566,142041,5
63549,142018,4
63549,142017,4
63547,142016,5
63549,142005,5
63557,142013,5
63554,142023,4
63551,142025,5
63560,142028,5
63561,142041,5
63570,142050,5
63580,142041,4
63568,142025,5
63564,142042,6
63569,142041,4
63564,142041,5
63569,142034,4
63556,142032,5
63565,142032,5
63482,142036,5
63564,142038,5
63573,142040,4
63573,142039,5
63408,142051,5
63571,142041,5
63567,142034,4
63560,142037,4
63398,142032,5
63558,142039,5
63561,142032,5
63561,142037,4
63614,142018,5
63562,142016,5
63548,142015,5
63556,142007,5
63712,141993,4
63522,141962,5
63502,141927,5
63489,141889,6
63597,141853,4
63436,141825,4
63412,141772,5
63385,141743,5
63404,141690,5
63332,141638,5
63310,141595,4
63278,141547,5
63253,141440,5
63246,141495,5
63238,141485,5
63239,141489,4
63238,141342,5
63243,141488,5
63242,141494,5
63253,141508,4
63259,141365,4
63276,141547,5
63294,141566,5
63292,141575,5
63294,141640,5
63303,141588,4
63297,141591,5
63295,141588,5
63297,141770,5
63305,141608,4
63317,141615,5
63324,141630,5
63319,141787,5
63339,141657,5
63348,141678,4
63355,141698,5
63367,141761,5
63388,141745,5
63397,141765,5
63404,141779,4
63422,141803,5
63438,141833,5
63450,141854,5
63465,141877,4
63474,141894,4
63477,141920,5
63507,141949,5
63533,141988,5
63558,142036,4
63585,142066,6
63597,142067,4
63589,142063,5
63583,142059,5
63582,142059,4
63575,142054,5
63575,142052,5
63563,142022,5
63537,141973,5
63515,141943,4
63498,141928,5
63481,141918,5
63488,141919,5
63489,141917,5
63484,141915,4
63485,141897,5
63474,141904,5
63469,141900,5
63463,141878,5
63459,141879,4
63458,141873,5
63452,141851,5
63434,141839,5
63424,141809,4
63398,141773,4
63371,141741,6
63361,141704,4
63337,141669,5
63306,141625,4
63270,141562,5
63240,141485,5
63190,141419,5
63139,141344,5
63098,141267,4
63055,141213,5
63038,141191,5
63029,141176,5
63024,141167,5
63034,141171,4
63023,141142,5
63023,141171,5
63010,141155,5
63028,141151,5
63010,141146,4
63018,141155,5
63007,141146,5
63005,141142,5
63013,141162,4
63020,141178,4
63048,141197,5
63046,141215,5
63046,141216,5
63053,141225,4
63051,141224,5
63053,141215,5
63052,141213,5
63040,141208,5
63037,141199,4
63029,141168,5
63027,141178,5
63024,141177,5
63023,141183,5
63029,141185,4
63039,141194,5
63028,141193,5
63046,141211,5
63046,141218,5
63049,141212,4
62938,141223,4
63058,141230,5
63065,141251,5
63070,141263,5
62913,141277,3
63093,141269,5
63094,141281,5
63092,141276,5
63018,141261,4
63065,141235,4
63044,141196,5
63039,141170,5
63128,141158,5
63003,141142,4
63001,141137,5
63003,141129,5
63185,141130,5
62990,141115,5
62983,141113,4
62982,141116,5
63077,141109,5
62980,141094,5
62980,141104,5
62984,141096,4
63010,141108,6
62984,141104,4
62986,141110,5
62983,141126,5
62992,141018,6
62992,141115,3
62997,141124,5
62997,141113,5
62987,140945,5
62971,141079,4
62954,141037,5
62928,141013,5
62935,140894,5
62935,141009,4
62929,141001,6
62928,140984,4
62895,141044,5
62871,140887,5
62841,140862,4
62839,140861,5
62832,141024,5
62826,140835,5
62800,140785,5
62773,140736,4
62741,140805,5
62730,140671,6
62727,140665,4
62728,140678,5
62733,140703,4
62734,140676,5
62723,140676,5
62723,140667,5
62719,140654,5
62709,140644,4
62700,140638,5
62693,140627,5
62688,140614,5
62675,140593,4
62664,140556,4
62633,140536,5
62623,140515,5
62611,140501,5
62617,140506,4
62618,140500,5
62608,140493,5
62606,140484,5
62607,140480,5
62602,140465,4
62588,140449,5
62574,140432,5
62558,140400,6
62545,140386,4
62553,140383,4
62539,140378,5
62532,140375,5
62527,140350,5
62513,140337,5
62519,140343,4
62518,140333,5
62496,140298,5
62493,140293,5
62488,140296,5
62490,140289,4
62490,140302,5
62493,140298,5
62498,140302,5
62498,140297,4
62500,140293,4
62491,140303,5
62498,140312,5
62515,140337,5
62538,140351,5
62535,140358,4
62529,140353,5
62529,140349,5
62525,140339,6
62508,140327,3
62515,140335,5
62510,140326,5
62516,140328,5
62512,140322,5
62515,140331,4
62514,140334,5
62521,140353,5
62534,140356,5
62539,140390,5
62553,140393,4
62571,140425,5
62573,140434,5
62581,140453,5
62601,140472,5
62613,140498,4
62624,140506,5
62638,140525,5
62644,140552,5
62662,140574,4
62674,140608,6
62699,140647,4
62727,140694,5
62753,140739,5
62771,140755,6
62781,140790,3
62795,140802,5
62800,140821,5
62808,140826,5
62780,140832,4
62823,140854,5
62830,140857,5
62839,140882,5
62714,140889,5
62861,140909,4
62866,140945,5
62901,140976,5
62744,141014,5
62927,141024,5
62925,141020,4
62924,141013,5
62891,141017,5
62936,141044,5
62942,141067,4
62947,141092,4
63097,141097,6
62965,141096,4
62973,141120,5
62975,141135,4
63190,141171,5
63024,141216,5
63053,141251,5
63069,141288,5
63174,141326,4
63104,141353,5
63115,141355,5
63114,141366,5
63134,141358,5
63137,141400,4
63151,141430,5
63167,141454,5
63177,141359,5
63195,141521,5
63229,141551,4
63244,141589,5
63265,141449,5
63289,141666,5
63305,141714,5
63327,141737,4
63351,141730,5
63373,141802,6
63386,141826,4
63393,141843,4
63402,141986,4
63406,141868,5
63408,141857,5
63406,141861,5
63397,142039,4
63379,141820,5
63368,141818,5
63356,141799,5
63353,141883,5
63350,141787,4
63359,141798,5
63376,141828,5
63388,141878,5
63408,141906,5
63445,141962,4
63475,142020,5
63512,142104,5
63574,142186,5
63624,142290,5
63714,142449,4
63830,142644,5
63945,142831,5
64049,143009,6
64133,143157,4
64217,143306,4
64299,143409,5
64338,143493,5
64393,143584,5
64435,143649,4
64471,143714,5
64474,143722,5
64461,143703,5
64451,143675,5
64425,143634,4
64394,143575,5
64356,143520,5
64328,143457,5
64286,143416,5
64271,143396,4
64262,143380,5
64266,143385,5
64281,143400,5
64293,143426,5
64322,143476,5
64344,143521,4
64375,143589,5
64410,143629,5
64445,143696,5
64477,143760,4
64507,143812,5
64541,143841,5
64550,143862,5
64568,143895,4
64583,143909,4
64579,143910,5
64579,143903,5
64574,143889,5
64552,143869,4
64534,143817,5
64497,143774,5
64486,143742,5
64457,143699,5
64424,143646,4
64382,143582,5
64340,143492,5
64272,143401,5
64216,143310,5
64165,143215,4
64092,143104,6
64025,142979,4
63953,142859,5
63854,142685,5
63727,142464,4
63570,142187,5
63377,141854,5
63180,141527,5
63021,141284,5
62908,141093,4
62809,140924,5
62702,140761,5
62612,140608,5
62512,140431,4
62406,140236,4
62286,140039,5
62185,139861,5
62087,139696,5
61954,139471,4
61800,139188,5
61634,138913,5
61405,138626,5
61325,138376,5
61163,138108,4
61020,137875,5
60752,137662,6
60765,137444,4
60630,137218,5
60505,137001,4
60226,136800,5
60269,136609,5
60160,136433,5
60074,136287,5
60038,136143,4
59914,136008,5
59822,135878,5
59771,135763,5
59882,135683,5
59688,135633,4
59652,135564,5
59621,135533,5
59757,135511,5
59603,135490,4
59581,135464,5
59557,135409,5
59564,135345,5
59489,135296,5
59472,135283,4
59459,135251,5
59438,135171,5
59427,135204,5
59408,135182,5
59409,135175,4
59411,135053,5
59433,135237,5
59470,135297,5
59503,135361,5
59556,135270,4
59603,135509,5
59660,135595,5
59696,135654,5
59731,135713,5
59767,135772,4
59813,135846,5
59854,135927,5
59899,136140,5
59933,136072,4
59984,136143,4
60034,136214,5
60072,136464,5
60134,136391,5
60201,136499,6
60270,136621,3
60348,136816,5
60416,136871,5
60478,136971,5
60538,137059,4
60577,137139,5
60618,137177,5
60636,137234,5
60664,137281,5
60695,137324,4
60718,137358,5
60730,137386,5
60745,137403,5
60735,137408,5
60746,137399,4
60740,137401,5
60737,137406,5
60741,137409,5
60735,137399,5
60739,137395,4
60743,137407,5
60751,137415,5
60762,137430,5
60761,137435,4
60755,137433,5
60755,137423,3
60747,137402,5
60739,137404,5
60747,137406,4
60743,137403,5
60741,137399,5
60731,137391,5
60729,137368,5
60715,137372,4
60714,137364,5
60711,137367,5
60719,137360,5
60715,137351,5
60707,137353,4
60701,137334,5
60706,137337,5
60699,137336,5
60711,137350,5
60717,137374,4
60731,137396,5
60749,137419,6
60764,137445,4
60766,137465,5
60788,137478,4
60792,137507,5
60800,137518,5
60821,137533,5
60827,137554,4
60839,137557,4
60847,137589,5
60850,137606,5
60876,137625,5
60882,137654,4
60890,137673,5
60915,137713,5
60931,137745,5
60969,137799,5
60991,137838,4
61004,137853,5
61024,137894,5
61045,137918,5
61069,137953,5
61090,137993,4
61111,138042,5
61130,138087,5
61167,138136,6
61194,138183,4
61227,138235,4
61274,138307,5
61299,138351,5
61332,138413,5
61371,138486,4
61411,138536,4
61440,138595,5
61474,138651,5
61501,138691,5
61523,138728,4
61460,138763,5
61565,138803,5
61607,138850,5
61623,138910,5
61508,138955,4
61679,139008,5
61714,139050,5
61740,139095,5
61640,139147,5
61802,139204,5
61836,139255,4
61869,139301,5
61973,139348,5
61910,139379,6
61934,139417,3
61954,139449,5
62145,139464,5
61982,139481,5
61991,139504,5
62007,139540,4
62138,139557,5
62031,139574,5
62044,139590,5
62054,139610,4
62092,139623,4
62070,139644,5
62084,139656,5
62107,139686,5
62114,139634,6
62117,139710,3
62105,139683,5
62081,139672,5
62081,139530,5
62094,139673,4
62097,139673,6
62094,139684,4
62087,139496,5
62086,139660,5
62088,139663,6
62100,139688,3
62103,139745,5
62110,139717,5
62137,139748,5
62146,139762,4
62151,139938,5
62161,139786,5
62174,139819,5
62180,139834,5
62194,140016,4
62215,139890,5
62228,139913,5
62248,139938,5
62250,140011,4
62274,139987,5
62278,139997,5
62285,140003,5
62287,140020,5
62294,140022,4
62298,140019,5
62294,140033,6
62297,140030,4
62302,140042,5
62308,140045,4
62311,140039,5
62310,140062,5
62336,140079,5
62339,140106,5
62366,140149,4
62378,140145,5
62369,140136,5
62371,140156,5
62370,140149,5
62379,140143,4
62390,140164,5
62394,140177,5
62392,140209,5
62422,140230,4
62433,140248,4
62440,140267,5
62451,140270,5
62455,140285,5
62456,140299,4
62461,140293,5
62456,140284,5
62460,140297,6
62455,140304,4
62458,140314,4
62465,140318,5
62481,140328,5
62501,140352,5
62511,140379,5
62534,140418,4
62559,140446,5
62565,140485,5
62587,140511,5
62602,140524,5
62617,140560,4
62636,140583,5
62651,140622,5
62665,140653,5
62688,140677,5
62698,140695,4
62708,140714,5
62710,140710,5
62718,140735,5
62716,140737,5
62723,140727,4
62725,140740,5
62720,140732,5
62726,140746,6
62733,140744,3
62735,140748,5
62731,140746,5
62738,140752,5
62736,140761,5
62747,140778,4
62763,140793,5
62753,140783,5
62756,140784,5
62743,140771,5
62746,140768,4
62743,140772,5
62753,140775,5
62764,140783,5
62755,140774,5
62753,140786,4
62748,140783,5
62757,140783,5
62764,140806,5
62768,140833,5
62779,140827,5
62791,140840,4
62789,140843,5
62671,140851,5
62800,140859,4
62809,140880,4
62813,140886,5
62652,140899,5
62822,140898,5
62825,140916,4
62828,140915,5
62756,140913,5
62820,140913,5
62825,140916,5
62825,140910,4
62949,140927,5
62836,140926,5
62836,140924,5
62842,140938,5
63033,140948,4
62859,140958,5
62870,140976,5
62878,140996,5
62981,141023,5
62894,141026,4
62907,141050,6
62923,141043,4
62934,141044,5
62906,141047,5
62914,141062,4
62907,141042,5
62913,140954,5
62916,141052,5
62919,141064,4
62913,141072,4
62921,140908,5
62921,141068,5
62911,141064,5
62922,141061,4
62925,140970,5
62923,141087,5
62939,141096,5
62942,141099,5
62944,141219,4
62957,141133,5
62967,141152,5
62987,141182,5
62996,141398,5
63011,141226,4
63028,141249,5
63032,141266,6
63040,141390,4
63046,141281,5
63060,141292,4
63067,141298,5
63063,141323,5
63064,141302,5
63058,141298,4
63057,141298,4
63056,141307,5
63071,141309,5
63068,141317,5
63061,141313,4
63067,141310,5
63069,141318,5
63069,141309,5
63068,141329,5
63065,141324,4
63073,141336,5
63067,141321,5
63082,141325,5
63072,141323,5
63075,141312,4
63068,141313,5
63072,141318,5
63066,141315,5
63072,141318,5
63074,141330,4
63076,141337,5
63075,141330,5
63071,141311,5
63068,141293,5
63049,141269,4
63028,141248,5
63023,141236,5
63007,141228,5
63014,141229,4
63004,141208,4
62991,141178,5
62985,141167,5
62965,141158,5
62968,141158,4
62960,141150,5
62972,141159,5
62960,141147,5
62960,141135,5
62950,141144,5
62952,141131,4
62956,141121,5
62951,141130,5
62947,141124,5
62947,141115,4
62941,141110,5
62933,141089,5
62924,141072,5
62916,141039,5
62893,141022,4
62873,141004,5
62865,140976,5
62858,140952,5
62833,140937,5
62822,140913,4
62817,140891,5
62804,140894,5
62809,140905,5
62815,140898,4
62821,140898,5
62814,140889,5
62799,140874,5
62784,140854,5
62786,140854,4
62760,140813,6
62743,140796,4
62734,140765,5
62716,140750,5
62718,140723,4
62701,140720,5
62693,140716,5
62700,140707,5
62696,140699,5
62684,140684,4
62677,140673,5
62650,140671,5
62673,140690,5
62662,140666,5
62667,140672,4
62545,140652,5
62656,140650,5
62649,140648,5
62645,140639,4
62484,140643,4
62649,140634,5
62655,140652,5
62645,140629,4
62602,140623,4
62644,140622,5
62640,140616,5
62631,140600,5
62745,140592,5
62610,140579,4
62620,140573,5
62611,140571,5
62788,140557,5
62603,140557,5
62599,140541,4
62592,140529,5
62673,140518,5
62573,140517,5
62580,140515,5
62580,140514,4
62594,140508,5
62577,140508,5
62585,140514,5
62566,140504,5
62567,140412,4
62569,140507,5
62567,140504,5
62570,140496,6
62570,140340,3
62560,140506,4
62562,140505,5
62562,140484,5
62563,140402,5
62557,140482,4
62560,140483,5
62549,140479,5
62567,140592,5
62559,140487,5
62559,140492,4
62569,140493,5
62559,140672,5
62554,140463,5
62531,140439,5
62529,140413,4
62517,140516,5
62519,140420,5
62509,140399,5
62480,140362,5
62460,140355,5
62449,140304,4
62430,140292,5
62439,140308,5
62452,140293,6
62443,140304,3
62447,140317,5
62455,140313,5
62457,140317,5
62461,140324,4
62466,140322,5
62468,140328,5
62467,140337,5
62475,140330,5
62472,140340,4
62474,140342,5
62471,140346,5
62475,140343,5
62468,140334,5
62474,140337,4
62468,140342,5
62461,140339,5
62466,140322,5
62462,140309,5
62448,140311,4
62455,140299,6
62454,140304,4
62448,140297,5
62450,140312,5
62445,140290,6
62428,140276,3
62426,140273,5
62426,140256,5
62416,140263,4
62419,140249,4
62404,140229,5
62403,140236,5
62402,140230,5
62402,140229,4
62393,140217,5
62397,140218,5
62390,140205,5
62380,140206,5
62388,140202,4
62384,140197,5
62383,140198,5
62382,140190,5
62382,140198,5
62379,140189,4
62381,140188,5
62373,140175,6
62372,140182,4
62373,140176,5
62367,140172,4
62368,140163,5
62359,140165,5
62366,140156,5
62359,140164,5
62361,140157,4
62367,140167,5
62366,140158,5
62367,140170,5
62362,140169,4
62366,140184,5
62377,140171,5
62371,140180,5
62375,140191,5
62365,140188,4
62381,140191,5
62374,140179,5
62374,140193,5
62376,140184,5
62371,140183,4
62370,140179,5
62373,140179,5
62364,140194,6
62376,140195,4
62334,140186,4
62372,140194,5
62377,140193,5
62375,140196,5
62249,140196,5
62385,140212,4
62379,140209,5
62387,140215,5
62225,140223,5
62390,140227,4
62402,140221,4
62394,140219,5
62384,140212,5
62388,140219,5
62395,140222,4
62390,140225,5
62529,140221,5
62384,140216,5
62391,140214,5
62391,140203,5
62576,140209,4
62384,140202,5
62389,140205,5
62385,140203,6
62450,140199,3
62391,140208,5
62392,140223,5
62398,140225,5
62405,140188,5
62386,140206,4
62383,140186,5
62379,140186,5
62371,140066,5
62370,140188,5
62363,140171,4
62347,140145,5
62337,139959,5
62329,140100,5
62327,140103,5
62319,140100,4
62320,140080,5
62322,140102,5
62322,140100,5
62317,140096,4
62321,140228,6
62312,140097,4
62318,140088,5
62315,140090,5
62313,140265,4
62313,140081,5
62305,140077,5
62299,140073,6
62290,140134,4
62279,140024,4
62272,140010,5
62253,139990,5
62247,139973,5
62215,139929,5
62208,139893,4
62181,139874,5
62171,139844,5
62163,139824,5
62142,139811,5
62144,139802,4
62134,139785,5
62126,139780,5
62113,139743,5
62108,139730,4
62097,139712,5
62075,139688,6
62057,139660,4
62045,139632,5
62036,139626,4
62024,139595,5
62018,139590,5
62005,139571,5
61997,139567,5
61989,139545,4
61982,139551,5
61989,139531,5
61978,139526,5
61970,139514,5
61971,139498,4
61960,139494,5
61953,139491,5
61942,139479,5
61941,139471,5
61942,139460,4
61932,139471,5
61935,139465,5
61939,139459,5
61937,139468,4
61936,139459,4
61942,139464,5
61933,139448,6
61945,139462,4
61941,139459,4
61946,139470,5
61940,139468,5
61946,139460,5
61946,139472,5
61950,139472,4
61944,139467,5
61952,139476,5
61944,139473,5
61950,139484,5
61954,139476,4
61949,139474,5
61944,139478,5
61956,139474,5
61952,139476,5
61941,139473,4
61951,139479,5
61949,139477,5
61943,139475,5
61948,139471,5
61944,139470,4
61950,139479,5
61950,139481,5
61954,139483,5
61955,139487,4
61956,139499,4
61964,139493,5
61968,139512,5
61970,139521,5
61977,139523,4
61982,139531,5
61987,139531,5
61988,139561,5
61998,139564,5
62007,139575,4
62002,139586,5
62018,139595,5
61963,139598,5
62026,139599,5
62021,139600,4
62015,139583,5
61849,139533,5
61979,139530,5
61971,139518,5
61970,139511,5
61798,139476,4
61946,139463,5
61921,139440,5
61930,139433,5
61948,139433,4
61915,139437,5
61934,139450,5
61927,139462,5
62093,139463,4
61942,139466,4
61943,139469,5
61945,139474,5
62100,139482,5
61963,139493,4
61959,139510,5
61969,139524,5
62031,139535,5
61995,139559,5
62005,139576,4
62018,139589,5
62030,139556,5
62032,139613,5
62030,139631,5
62067,139672,4
62092,139602,6
62123,139777,4
62149,139822,5
62169,139863,5
62197,139724,4
62206,139907,5
62220,139949,5
62233,139952,5
62241,139973,5
62253,139990,4
62254,139987,5
62254,139995,5
62257,140141,5
62262,140016,4
62262,140017,5
62274,140034,5
62287,140227,5
62287,140069,5
62299,140074,4
62310,140080,5
62310,140166,5
62308,140099,5
62309,140101,5
62317,140120,4
62340,140153,5
62353,140172,6
62377,140215,4
62414,140277,5
62460,140335,4
62501,140420,5
62530,140484,5
62574,140542,5
62620,140616,5
62644,140661,4
62674,140695,5
62679,140734,5
62702,140744,5
62722,140779,4
62725,140803,4
62735,140822,5
62759,140849,5
62773,140877,5
62789,140913,4
62814,140935,5
62830,140973,5
62841,141011,5
62864,141030,5
62878,141051,4
62888,141073,5
62898,141085,5
62921,141101,5
62917,141122,5
62927,141128,4
62930,141142,5
62935,141151,5
62932,141165,5
62949,141182,5
62960,141203,4
62978,141227,5
63005,141253,5
63019,141290,5
63036,141306,5
63047,141341,4
63063,141359,5
63074,141388,5
63093,141431,5
63130,141499,4
63156,141539,4
63185,141587,4
63201,141622,5
63236,141656,5
63249,141689,6
63263,141717,3
63290,141742,5
63301,141776,5
63325,141831,5
63356,141863,4
63380,141914,5
63404,141935,5
63398,141940,5
63394,141937,5
63383,141911,4
63379,141905,5
63371,141915,5
63366,141893,5
63366,141896,5
63354,141877,4
63348,141855,5
63338,141862,5
63337,141855,5
63343,141864,5
63347,141860,4
63341,141862,6
63340,141855,4
63337,141863,5
63344,141840,4
63331,141851,6
63336,141838,3
63330,141848,5
63328,141829,5
63318,141822,4
63227,141816,5
63310,141812,5
63308,141809,5
63313,141810,5
63146,141794,4
63300,141799,5
63301,141775,5
63295,141774,5
63122,141763,5
63283,141755,4
63277,141735,5
63270,141740,5
63333,141727,5
63253,141720,5
63256,141721,4
63250,141711,5
63430,141714,6
63249,141717,4
63249,141696,5
63226,141678,4
63356,141665,5
63228,141664,5
63221,141665,5
63222,141669,4
63267,141658,5
63227,141668,5
63215,141661,5
63221,141656,5
63223,141591,4
63222,141675,5
63229,141659,5
63224,141670,5
63235,141527,5
63225,141684,4
63236,141686,5
63247,141702,5
63247,141526,5
63249,141700,5
63249,141704,5
63253,141713,4
63252,141755,5
63262,141711,6
63252,141714,4
63253,141705,4
63270,141896,5
63264,141720,5
63255,141718,5
63258,141721,4
63259,141887,4
63267,141723,5
63261,141731,5
63259,141723,5
63266,141787,4
63272,141730,5
63261,141726,5
63263,141720,5
63272,141741,5
63268,141740,4
63270,141744,5
63272,141738,5
63274,141742,5
63272,141743,5
63281,141749,5
63276,141749,4
63289,141754,5
63286,141763,5
63292,141775,6
63294,141781,3
63302,141788,5
63300,141788,5
63302,141789,5
63305,141794,5
63310,141805,4
63306,141798,5
63299,141807,5
63318,141815,5
63323,141829,4
63346,141856,4
63360,141878,5
63360,141883,5
63359,141875,5
63352,141858,4
63342,141856,5
63349,141865,5
63343,141861,5
63350,141867,5
63356,141860,4
63352,141862,6
63347,141861,4
63347,141873,5
63361,141866,5
63362,141871,4
63365,141880,5
63363,141890,5
63362,141888,5
63365,141886,5
63359,141875,4
63364,141885,5
63363,141884,5
63367,141871,5
63366,141880,5
63360,141875,4
63365,141876,5
63349,141862,5
63353,141862,5
63347,141868,4
63352,141859,4
63353,141860,5
63347,141857,5
63344,141852,5
63339,141840,4
63335,141842,5
63335,141844,6
63326,141837,4
63330,141836,5
63337,141853,4
63339,141836,5
63330,141841,5
63341,141845,5
63339,141836,5
63323,141830,4
63327,141824,5
63320,141824,5
63327,141818,5
63325,141830,5
63323,141839,4
63345,141858,5
63351,141878,5
63367,141905,5
63378,141918,4
63400,141951,4
63408,141975,5
63430,141989,5
63329,142007,5
63437,142012,4
63441,142014,5
63436,142012,5
63275,142008,6
63433,142002,4
63427,142006,4
63439,141994,5
63313,141991,5
63426,142001,5
63435,141999,5
63432,141994,4
63528,141993,5
63439,141996,5
63430,141999,5
63434,142001,5
63623,142007,4
63444,142010,5
63445,142024,5
63448,142026,5
63570,142048,5
63469,142058,4
63470,142077,5
63487,142089,5
63520,142093,5
63506,142095,5
63502,142121,4
63523,142127,5
63519,142047,5
63516,142147,6
63530,142153,3
63537,142159,5
63537,142003,5
63540,142171,5
63546,142166,5
63539,142171,4
63534,142013,5
63540,142166,5
63540,142177,5
63546,142173,5
63536,142224,4
63525,142127,5
63509,142117,5
63505,142113,5
63504,142307,5
63509,142133,4
63510,142123,5
63513,142119,5
63499,142267,5
63509,142124,5
63503,142117,5
63520,142137,4
63522,142175,5
63517,142131,5
63520,142148,4
63525,142153,4
63531,142138,5
63519,142142,5
63526,142155,5
63529,142174,4
63535,142167,5
63535,142165,5
63535,142158,5
63530,142164,5
63527,142152,4
63526,142149,5
63515,142132,5
63518,142140,5
63515,142140,5
63508,142132,6
63514,142139,3
63514,142152,5
63526,142155,5
63532,142164,5
63533,142167,4
63547,142180,6
63546,142206,4
63553,142217,5
63568,142219,5
63563,142206,4
63552,142199,5
63550,142198,5
63545,142183,5
63536,142183,4
63540,142175,5
63545,142178,5
63534,142183,5
63534,142182,5
63544,142167,4
63531,142163,5
63537,142166,5
63535,142162,5
63540,142167,5
63531,142172,4
63547,142177,5
63546,142177,5
63533,142175,5
63535,142169,5
63528,142166,4
63529,142160,5
63524,142154,6
63527,142141,4
63518,142141,5
63516,142145,4
63520,142144,5
63508,142136,5
63510,142120,5
63498,142111,4
63518,142125,4
63515,142123,5
63510,142132,5
63504,142129,5
63518,142141,4
63523,142143,5
63524,142156,5
63522,142152,5
63537,142153,5
63524,142157,4
63535,142161,5
63530,142153,5
63532,142171,5
63538,142168,5
63533,142162,4
63528,142154,5
63530,142153,5
63526,142148,5
63529,142164,5
63535,142173,4
63539,142166,5
63519,142152,5
63514,142137,5
63503,142125,5
63512,142128,4
63393,142126,5
63516,142130,5
63510,142117,5
63502,142120,4
63340,142121,4
63516,142126,5
63519,142129,5
63513,142148,5
63467,142145,4
63519,142143,5
63530,142144,5
63511,142134,5
63643,142125,5
63518,142140,5
63520,142140,4
63518,142147,5
63704,142142,5
63519,142147,5
63524,142148,4
63529,142143,5
63608,142144,5
63516,142135,5
63523,142134,5
63516,142135,4
63541,142144,5
63525,142147,5
63524,142146,5
63522,142143,5
63529,142050,4
63528,142161,5
63530,142162,5
63530,142152,5
63537,142007,4
63547,142168,5
63539,142169,6
63533,142163,4
63529,142054,5
63533,142159,4
63531,142148,7
63526,142140,3
63527,142253,5
63525,142165,5
63521,142161,4
63535,142173,5
63544,142361,5
63541,142172,5
63555,142189,5
63570,142201,4
63562,142334,5
63571,142224,5
63573,142223,5
63580,142233,5
63582,142271,4
63581,142243,5
63581,142244,5
63587,142243,5
63593,142263,4
63596,142257,4
63608,142276,5
63602,142272,6
63598,142281,4
63602,142282,4
63604,142272,5
63609,142276,5
63609,142281,5
63613,142286,5
63608,142271,4
63614,142287,5
63609,142285,5
63608,142291,5
63617,142307,5
63625,142307,4
63635,142316,5
63635,142338,5
63642,142339,5
63654,142353,5
63651,142351,4
63652,142356,5
63673,142381,5
63683,142402,5
63687,142408,5
63689,142411,4
63684,142404,5
63675,142380,5
63666,142371,6
63659,142364,3
63655,142354,4
63659,142357,5
63649,142349,5
63644,142329,5
63638,142320,4
63634,142319,5
63640,142320,5
63642,142333,5
63646,142331,5
63644,142340,4
63646,142339,5
63641,142343,5
63648,142343,5
63654,142339,5
63655,142347,4
63649,142353,5
63656,142352,5
63651,142354,5
63664,142384,5
63663,142377,5
63677,142386,4
63666,142385,5
63672,142380,5
63668,142374,6
63675,142390,3
63668,142372,5
63668,142361,5
63664,142366,5
63667,142379,4
63675,142382,4
63672,142396,5
63687,142399,5
63689,142417,5
63689,142404,4
63682,142394,5
63677,142390,5
63657,142370,5
63648,142355,5
63648,142346,4
63645,142337,5
63638,142330,5
63646,142343,5
63651,142351,5
63633,142363,4
63654,142360,6
63653,142366,4
63663,142365,5
63542,142374,5
63666,142373,4
63660,142371,5
63671,142375,5
63492,142370,5
63667,142365,5
63658,142374,4
63658,142375,5
63585,142366,5
63650,142348,5
63646,142344,4
63653,142350,4
63747,142332,5
63633,142337,5
63633,142336,5
63636,142325,4
63812,142323,5
63631,142315,5
63631,142320,5
63630,142323,5
63741,142332,4
63634,142336,5
63645,142332,6
63643,142343,4
63661,142334,5
63642,142333,4
63631,142325,5
63638,142328,5
63636,142225,5
63630,142304,5
63618,142307,4
63610,142301,5
63617,142132,5
63619,142304,5
63612,142299,5
63617,142303,4
63610,142162,5
63618,142294,5
63616,142294,5
63612,142280,4
63587,142335,4
63569,142199,5
63544,142167,5
63531,142151,5
63524,142322,4
63509,142115,5
63487,142082,5
63455,142028,6
63433,142114,4
63413,141953,4
63406,141962,5
63402,141962,5
63398,141978,5
63404,141933,5
63389,141919,4
63389,141906,5
63368,141906,5
63378,141902,5
63366,141901,5
63360,141892,4
63369,141881,5
63364,141883,5
63361,141871,5
63360,141867,5
63361,141877,4
63358,141862,5
63350,141859,5
63342,141853,5
63345,141837,5
63331,141811,4
63307,141785,5
63291,141753,5
63260,141704,6
63231,141656,3
63209,141622,5
63188,141580,5
63164,141517,5
63117,141479,5
63091,141429,4
63072,141383,5
63038,141351,5
63008,141299,5
62988,141254,5
62964,141207,4
62933,141160,5
62902,141119,5
62894,141123,5
62894,141112,5
62893,141102,4
62882,141075,5
62877,141062,5
62863,141056,5
62867,141047,5
62860,141043,5
62851,141043,4
62859,141038,5
62839,141014,5
62841,141019,4
62829,140999,4
62821,140995,5
62818,140978,5
62815,140980,5
62803,140951,4
62807,140941,5
62799,140939,5
62779,140917,5
62778,140913,5
62779,140912,4
62778,140905,5
62784,140912,5
62789,140926,5
62788,140936,5
62795,140939,4
62798,140946,5
62798,140951,5
62801,140947,5
62804,140954,5
62813,140961,4
62812,140968,6
62821,140979,4
62830,140995,5
62821,140994,5
62834,141007,4
62834,140998,5
62832,141000,5
62841,140985,5
62824,140991,4
62822,140985,5
62816,140984,5
62816,140976,5
62815,140976,5
62817,140969,4
62820,140971,5
62719,140987,5
62818,140991,5
62832,140988,5
62823,141004,4
62676,141010,5
62838,141008,5
62835,141012,5
62832,141013,5
62721,141007,4
62822,140996,5
62837,141000,6
62827,141002,4
62898,140960,5
62798,140945,4
62788,140948,5
62788,140930,5
62958,140935,5
62778,140900,5
62755,140879,4
62736,140855,5
62838,140829,5
62717,140811,5
62719,140811,4
62719,140803,5
62728,140780,5
62684,140751,5
62667,140715,5
62644,140681,4
62612,140558,5
62607,140618,5
62588,140592,5
62564,140565,5
62555,140387,4
62534,140511,5
62518,140496,5
62520,140479,5
62513,140304,5
62511,140478,4
62509,140474,5
62507,140470,5
62515,140521,5
62512,140464,5
62513,140461,4
62498,140453,5
62492,140616,5
62478,140428,5
62471,140411,4
62457,140376,4
62430,140483,5
62381,140259,5
62363,140220,5
62344,140179,4
62321,140192,5
62285,140097,5
62271,140079,5
62260,140044,5
62249,140032,5
62243,140032,4
62245,140023,5
62244,140017,5
62240,140021,5
62236,140016,4
62247,140038,5
62257,140052,5
62263,140067,5
62274,140074,5
62281,140083,4
62297,140105,5
62303,140120,5
62317,140156,5
62340,140180,5
62346,140204,4
62359,140222,5
62384,140259,5
62388,140268,5
62400,140287,4
62406,140306,4
62428,140332,5
62434,140341,5
62439,140362,5
62451,140374,4
62455,140383,6
62459,140394,4
62478,140407,5
62487,140417,5
62486,140418,4
62495,140442,5
62494,140445,5
62513,140466,5
62525,140472,5
62526,140486,4
62523,140503,5
62545,140502,5
62546,140526,5
62553,140548,5
62566,140551,4
62576,140576,5
62591,140587,5
62599,140607,5
62593,140610,5
62602,140619,4
62601,140621,5
62610,140618,5
62609,140625,4
62605,140634,4
62601,140626,4
62613,140621,6
62599,140631,3
62618,140635,5
62615,140634,4
62627,140652,5
62633,140660,5
62630,140668,5
62640,140670,5
62638,140682,4
62649,140692,5
62649,140674,5
62626,140652,5
62623,140634,5
62619,140630,4
62614,140625,5
62612,140634,5
62610,140620,5
62596,140609,5
62587,140592,4
62579,140575,5
62572,140575,5
62568,140578,6
62574,140569,4
62580,140575,4
62580,140571,5
62562,140567,5
62567,140557,5
62478,140557,4
62574,140548,4
62571,140552,5
62565,140562,5
62408,140559,5
62563,140573,4
62575,140571,5
62573,140567,5
62401,140558,5
62574,140551,5
62561,140562,4
62557,140540,5
62602,140529,5
62545,140519,5
62538,140510,5
62529,140487,5
62686,140489,4
62522,140484,5
62525,140485,5
62510,140485,6
62667,140474,3
62512,140463,5
62509,140455,5
62492,140448,5
62539,140428,5
62487,140428,4
62484,140415,5
62475,140417,5
62483,140364,5
62485,140429,4
62490,140427,4
62491,140439,5
62488,140302,5
62490,140440,5
62491,140443,5
62488,140445,4
62493,140262,5
62494,140454,5
62498,140455,5
62501,140459,4
62498,140465,6
62503,140460,4
62505,140458,5
62506,140459,5
62509,140624,6
62509,140459,3
62511,140474,5
62514,140471,5
62504,140650,5
62514,140461,4
62512,140459,5
62501,140464,5
62511,140529,5
62502,140469,5
62506,140455,4
62506,140457,5
62511,140468,5
62498,140446,5
62496,140456,4
62506,140455,4
62505,140448,5
62504,140460,5
62508,140462,5
62515,140472,4
62522,140491,5
62536,140508,6
62540,140527,4
62551,140537,5
62569,140566,4
62571,140577,5
62583,140583,5
62593,140601,5
62597,140620,5
62610,140634,4
62621,140669,5
62630,140681,5
62656,140708,5
62658,140719,5
62662,140724,4
62677,140736,5
62688,140746,5
62693,140766,5
62689,140767,5
62680,140773,4
62687,140761,5
62697,140764,5
62696,140783,5
62713,140787,4
62702,140788,4
62699,140781,5
62708,140780,6
62702,140783,4
62704,140791,4
62700,140799,5
62705,140807,5
62705,140803,5
62715,140811,5
62723,140812,4
62723,140822,5
62729,140818,5
62731,140834,5
62737,140860,5
62759,140883,4
62779,140928,5
62784,140916,5
62780,140910,5
62760,140884,5
62757,140864,4
62754,140883,5
62771,140907,5
62776,140935,5
62817,140975,5
62823,140998,4
62845,141038,5
62864,141064,5
62878,141102,6
62907,141146,3
62936,141193,5
62951,141218,5
62964,141240,5
62981,141267,5
62986,141267,4
62994,141274,5
62993,141299,5
62999,141310,5
63016,141312,5
63018,141315,4
63023,141338,5
63026,141331,5
63029,141358,5
63039,141361,5
63045,141383,4
63044,141375,5
62978,141383,5
63052,141393,5
63052,141389,5
63050,141395,5
62900,141384,4
63049,141389,5
63057,141398,5
63057,141405,4
62891,141413,4
63076,141432,5
63079,141435,5
63082,141445,5
63113,141446,4
63080,141455,5
63090,141447,5
63089,141446,5
63259,141458,5
63098,141475,4
63103,141492,5
63122,141515,5
63285,141530,5
63133,141538,5
63146,141565,4
63158,141589,5
63226,141611,5
63190,141628,5
63203,141650,5
63216,141679,4
63225,141652,6
63241,141731,4
63260,141763,5
63273,141776,5
63286,141656,4
63299,141816,5
63297,141805,5
63308,141818,5
63308,141658,4
63305,141833,5
63303,141843,5
63304,141828,5
63311,141819,5
63313,141827,4
63305,141825,5
63304,141827,5
63308,141981,5
63315,141837,5
63312,141840,4
63320,141847,5
63320,142040,5
63326,141850,5
63331,141863,5
63326,141858,4
63322,141930,5
63339,141859,6
63327,141861,4
63338,141864,5
63338,141881,4
63327,141864,5
63328,141872,5
63342,141869,5
63333,141877,5
63336,141871,4
63329,141864,5
63337,141876,5
63339,141871,5
63337,141863,4
63339,141870,5
63336,141862,5
63330,141860,5
63332,141863,5
63334,141877,4
63330,141875,5
63335,141872,5
63331,141867,5
63338,141876,5
63344,141880,4
63348,141898,5
63357,141910,5
63355,141900,5
63361,141913,5
63378,141939,4
63387,141976,5
63407,141990,5
63419,141999,5
63414,141990,5
63401,141976,4
63390,141957,5
63385,141964,5
63392,141948,5
63378,141950,4
63381,141935,4
63369,141912,5
63348,141898,5
63344,141882,5
63341,141880,4
63344,141875,5
63343,141882,5
63347,141885,5
63343,141886,5
63352,141880,5
63344,141881,4
63338,141882,5
63342,141886,5
63347,141882,5
63345,141893,4
63357,141890,5
63353,141904,5
63353,141898,5
63355,141894,5
63350,141904,4
63348,141899,5
63341,141894,5
63334,141882,5
63335,141861,5
63319,141854,4
63309,141823,5
63296,141806,5
63282,141792,5
63277,141784,4
63263,141754,4
63259,141743,5
63247,141730,5
63242,141737,5
63239,141713,4
63246,141725,6
63232,141714,4
63233,141705,5
63228,141694,5
63223,141698,4
63218,141694,5
63230,141707,5
63225,141702,5
63232,141726,5
63162,141722,4
63250,141737,5
63255,141746,5
63254,141752,5
63116,141761,5
63275,141774,4
63272,141782,5
63283,141800,5
63111,141788,5
63289,141797,5
63285,141812,4
63299,141810,5
63332,141808,5
63295,141810,5
63301,141816,4
63301,141825,4
63468,141821,6
63303,141833,4
63317,141836,5
63321,141863,4
63486,141867,5
63337,141887,5
63343,141885,5
63344,141884,5
63402,141895,4
63351,141891,5
63349,141892,5
63343,141900,5
63361,141846,5
63347,141912,4
63367,141919,5
63362,141928,5
63382,141802,5
63379,141946,5
63391,141960,4
63396,141969,5
63396,141804,5
63398,141981,5
63395,141970,5
63387,141962,4
63386,141966,5
63391,141968,5
63391,141971,5
63397,141969,4
63402,142127,5
63398,141986,5
63404,141989,5
63412,141999,5
63414,142195,4
63419,142012,5
63430,142036,5
63436,142039,5
63446,142115,5
63435,142039,4
63426,142032,5
63426,142028,5
63438,142043,5
63434,142033,5
63430,142038,5
63434,142022,4
63415,142012,5
63423,142011,5
63423,142014,6
63421,142015,3
63421,142021,5
63427,142016,5
63425,142013,5
63424,142010,4
63417,142009,4
63410,142013,5
63410,141996,5
63414,141993,5
63409,141994,4
63408,141983,5
63401,141976,5
63403,141995,5
63394,141983,5
63399,141976,4
63395,141979,5
63384,141973,5
63393,141957,5
63392,141951,5
63386,141956,4
63382,141954,6
63377,141941,4
63372,141936,5
63379,141953,5
63383,141959,6
63384,141958,3
63387,141956,5
63383,141961,5
63389,141962,5
63388,141968,4
63394,141978,5
63392,141971,5
63382,141952,5
63390,141967,4
63381,141956,4
63396,141967,5
63399,141977,5
63393,141978,5
63395,141973,4
63408,141984,5
63420,142001,5
63410,141999,5
63419,142010,5
63421,142008,6
63423,142004,3
63426,142022,6
63428,142018,4
63416,142026,5
63431,142032,4
63430,142023,5
63434,142023,5
63434,142040,5
63439,142030,5
63440,142042,4
63441,142032,5
63444,142040,5
63442,142059,5
63453,142051,5
63446,142075,4
63464,142070,5
63459,142067,5
63464,142077,5
63461,142085,4
63471,142083,4
63477,142088,5
63477,142103,5
63468,142090,5
63479,142111,4
63479,142105,5
63484,142109,5
63408,142107,6
63479,142119,4
63498,142128,4
63500,142147,5
63351,142144,5
63512,142166,5
63514,142174,5
63522,142175,4
63370,142191,5
63551,142207,5
63558,142215,5
63549,142206,5
63570,142190,4
63534,142170,5
63534,142186,5
63530,142181,5
63694,142184,5
63511,142157,4
63499,142130,5
63488,142126,5
63656,142130,5
63489,142139,5
63502,142139,4
63521,142169,5
63576,142187,5
63546,142185,6
63545,142198,3
63546,142201,5
63550,142176,5
63565,142248,5
63574,142254,5
63580,142271,4
63582,142130,5
63583,142282,5
63586,142273,5
63576,142266,5
63580,142088,4
63587,142275,5
63584,142260,5
63574,142255,5
63575,142246,5
63562,142231,4
63561,142230,5
63553,142235,5
63566,142393,5
63562,142239,5
63573,142258,5
63577,142264,4
63578,142482,5
63599,142302,5
63604,142306,6
63600,142307,3
63603,142374,5
63593,142285,5
63589,142278,5
63592,142287,4
63589,142291,5
63585,142288,5
63596,142297,5
63597,142303,5
63602,142314,4
63610,142331,5
63634,142366,5
63651,142389,5
63673,142437,5
63690,142453,4
63715,142494,5
63740,142538,5
63750,142569,5
63777,142615,5
63804,142631,4
63813,142655,6
63828,142671,4
63823,142672,5
63819,142670,5
63815,142662,4
63816,142660,5
63808,142656,5
63803,142643,5
63800,142635,4
63788,142623,5
63781,142607,5
63776,142605,5
63774,142601,5
63774,142599,4
63782,142599,5
63784,142602,5
63773,142604,5
63783,142613,5
63785,142618,4
63798,142632,5
63808,142645,5
63806,142655,5
63817,142664,5
63820,142666,4
63832,142684,5
63828,142687,6
63835,142689,4
63827,142677,5
63813,142660,4
63810,142639,5
63806,142635,5
63803,142624,5
63807,142623,5
63795,142616,4
63779,142607,5
63770,142587,5
63777,142595,5
63779,142587,4
63779,142599,5
63788,142617,5
63793,142618,5
63780,142609,5
63776,142607,4
63774,142601,5
63778,142586,5
63777,142602,5
63776,142591,5
63781,142598,4
63779,142602,5
63782,142601,5
63780,142611,6
63791,142624,4
63791,142629,4
63800,142646,5
63801,142640,5
63806,142652,5
63812,142652,5
63809,142658,4
63805,142649,5
63819,142656,5
63822,142672,5
63834,142688,4
63772,142705,4
63845,142723,5
63861,142734,5
63860,142750,5
63724,142783,4
63875,142762,5
63865,142764,5
63867,142752,5
63698,142757,5
63863,142739,5
63858,142748,4
63864,142742,5
63885,142752,5
63865,142737,5
63862,142756,4
63870,142746,5
64034,142760,5
63871,142757,5
63874,142772,5
63880,142778,4
64047,142775,5
63883,142778,5
63893,142787,5
63897,142794,5
63956,142807,4
63901,142816,5
63903,142812,5
63909,142817,5
63910,142780,4
63914,142820,4
63906,142822,6
63912,142815,4
63912,142681,5
63909,142823,4
63911,142834,7
63920,142830,3
63925,142664,5
63927,142842,5
63925,142841,5
63920,142840,4
63934,142839,5
63925,142855,5
63927,142855,5
63928,142853,4
63924,142999,5
63928,142848,5
63938,142859,5
63927,142855,5
63926,143047,4
63929,142841,5
63925,142847,5
63920,142850,5
63930,142925,5
63926,142829,4
63906,142800,5
63898,142770,5
63871,142760,5
63870,142745,4
63858,142732,4
63847,142724,6
63828,142681,4
63816,142676,5
63815,142660,4
63812,142654,5
63808,142657,5
63809,142663,5
63812,142664,5
63821,142663,4
63815,142658,5
63811,142665,5
63802,142655,5
63811,142675,5
63814,142667,4
63804,142661,5
63802,142661,5
63802,142656,5
63801,142647,5
63803,142649,4
63801,142646,5
63797,142634,5
63795,142620,5
63777,142600,4
63763,142589,4
63760,142571,5
63757,142576,5
63748,142558,5
63746,142555,4
63740,142555,5
63747,142563,5
63755,142554,5
63752,142578,5
63748,142570,4
63764,142568,5
63751,142568,5
63753,142558,5
63747,142542,5
63738,142539,4
63734,142535,5
63742,142536,5
63737,142535,5
63731,142533,5
63724,142527,4
63720,142518,4
63706,142509,5
63711,142498,5
63708,142498,5
63709,142501,4
63715,142503,5
63717,142499,5
63708,142521,5
63717,142517,4
63725,142525,4
63725,142527,5
63732,142529,5
63730,142529,5
63724,142528,4
63732,142536,5
63725,142524,5
63731,142522,5
63717,142515,5
63716,142496,4
63690,142477,5
63686,142458,5
63664,142428,5
63653,142402,5
63634,142377,4
63628,142358,6
63611,142345,4
63609,142329,5
63597,142315,5
63591,142292,6
63589,142299,3
63583,142281,5
63498,142285,5
63583,142279,5
63575,142273,4
63564,142271,5
63420,142270,5
63559,142259,5
63556,142248,4
63553,142235,4
63378,142234,5
63553,142245,5
63538,142226,5
63541,142224,4
63580,142197,5
63514,142176,5
63510,142153,5
63475,142113,5
63624,142071,4
63419,142013,5
63384,141947,6
63356,141904,4
63476,141860,5
63309,141828,4
63285,141792,5
63274,141786,5
63313,141768,5
63270,141768,5
63264,141757,4
63257,141760,5
63262,141682,5
63242,141735,5
63251,141724,5
63241,141709,4
63235,141554,5
63221,141683,5
63203,141659,5
63164,141590,4
63125,141324,5
63069,141406,5
63011,141333,5
62959,141238,5
62902,141136,4
62805,140978,5
62726,140838,5
62661,140725,6
62614,140806,4
62586,140627,4
62569,140592,5
62549,140541,5
62509,140681,5
62478,140442,5
62458,140394,4
62451,140380,5
62432,140434,5
62427,140355,5
62422,140336,5
62407,140328,4
62399,140317,5
62394,140293,5
62381,140286,5
62378,140265,4
62365,140234,4
62333,140195,5
62312,140141,5
62271,140080,5
62228,140007,5
62182,139926,4
62141,139866,5
62107,139804,5
62074,139751,6
62046,139692,3
62019,139667,5
62002,139631,5
61972,139592,5
61954,139541,5
61928,139515,4
61921,139505,5
61917,139489,5
61910,139480,5
61898,139481,5
61905,139482,4
61907,139478,5
61925,139489,5
61910,139493,5
61916,139489,5
61928,139499,4
61929,139512,5
61939,139529,5
61937,139534,5
61936,139519,4
61926,139500,5
61915,139491,4
61916,139485,5
61914,139504,5
61916,139500,6
61916,139497,3
61920,139500,5
61921,139497,5
61911,139498,5
61914,139494,4
61905,139500,5
61917,139504,5
61925,139514,5
61937,139533,5
61936,139544,4
61952,139550,5
61959,139563,5
61966,139583,5
61989,139609,5
62006,139632,4
62014,139666,5
62033,139691,5
62046,139709,5
62066,139731,5
62077,139757,4
62096,139769,6
62106,139806,4
62126,139821,5
62138,139861,4
62155,139899,4
62179,139928,5
62201,139975,5
62224,140024,5
62258,140057,4
62287,140116,5
62322,140162,5
62354,140231,5
62392,140291,5
62421,140346,4
62446,140393,5
62473,140436,5
62499,140462,5
62512,140504,5
62539,140536,4
62492,140575,5
62590,140616,5
62608,140648,5
62628,140682,5
62499,140709,4
62667,140742,5
62673,140757,6
62695,140796,4
62544,140833,5
62721,140823,4
62714,140819,5
62705,140804,5
62750,140813,5
62704,140817,4
62714,140816,4
62720,140828,5
62875,140825,5
62713,140830,5
62722,140829,4
62725,140834,5
62882,140856,5
62746,140874,5
62766,140914,5
62772,140905,4
62824,140918,5
62780,140936,5
62784,140926,5
62783,140939,5
62793,140877,4
62785,140952,5
62791,140936,5
62780,140944,6
62789,140791,4
62780,140939,4
62781,140934,5
62777,140936,5
62771,140755,5
62780,140939,5
62778,140929,5
62766,140928,4
62763,140928,5
62766,140919,5
62759,140914,4
62769,140922,5
62760,141090,5
62768,140915,5
62769,140915,5
62757,140896,4
62753,141087,5
62756,140898,5
62745,140876,5
62747,140877,5
62739,140946,5
62733,140866,4
62735,140876,5
62742,140865,5
62736,140882,5
62740,140866,4
62731,140856,5
62736,140863,5
62729,140864,5
62730,140857,5
62735,140875,4
62733,140872,5
62745,140878,5
62742,140881,5
62750,140874,5
62744,140895,4
62757,140894,5
62757,140901,5
62763,140916,5
62769,140928,4
62773,140930,5
62782,140932,5
62783,140957,5
62799,140971,5
62804,140986,4
62808,140983,6
62813,140986,4
62810,140983,5
62813,140985,5
62812,140989,4
62813,140983,5
62815,140986,5
62813,140990,5
62812,140994,5
62814,140994,4
62810,140998,5
62817,141001,5
62813,140998,5
62819,141002,5
62823,141003,4
62819,141009,5
62815,141012,5
62820,141024,5
62831,141016,4
62819,141026,4
62828,141026,5
62832,141026,5
62832,141044,5
62843,141036,4
62844,141045,5
62848,141042,6
62842,141063,4
62841,141050,5
62855,141067,4
62859,141067,5
62859,141084,5
62868,141082,5
62878,141096,5
62880,141105,4
62876,141110,5
62880,141095,5
62891,141119,5
62889,141123,5
62890,141128,4
62887,141136,5
62901,141142,5
62901,141155,5
62904,141161,5
62919,141172,4
62918,141180,5
62921,141182,5
62927,141190,5
62937,141205,4
62931,141198,4
62943,141192,5
62946,141192,5
62941,141200,5
62928,141200,4
62927,141189,5
62930,141193,5
62931,141191,5
62834,141202,5
62932,141202,4
62945,141223,5
62952,141242,5
62801,141254,5
62971,141260,5
62970,141269,4
62985,141273,5
62859,141287,5
62996,141296,5
63001,141305,5
63007,141317,4
63099,141337,5
63033,141366,5
63048,141395,5
63066,141416,5
63248,141445,4
63100,141474,5
63124,141526,5
63147,141554,5
63299,141610,4
63201,141666,5
63229,141697,5
63237,141715,5
63260,141699,5
63226,141697,4
63247,141720,5
63249,141746,5
63269,141683,5
63275,141791,5
63287,141806,4
63293,141806,5
63293,141667,5
63303,141838,5
63324,141884,5
63350,141924,4
63382,141839,5
63400,142016,5
63416,142039,5
63445,142079,5
63462,142193,5
63492,142169,4
63519,142206,5
63542,142240,5
63558,142469,4
63577,142326,5
63598,142356,5
63617,142383,5
63635,142523,5
63641,142427,4
63658,142429,5
63656,142438,5
63659,142499,5
63672,142465,5
63677,142485,4
63695,142507,5
63690,142521,5
63708,142528,5
63719,142557,5
63732,142574,4
63743,142592,5
63753,142619,6
63772,142650,4
63798,142688,5
63809,142728,4
63832,142753,7
63847,142779,3
63869,142816,5
63887,142843,4
63907,142893,4
63937,142933,5
63962,142962,5
63978,143009,5
63992,143023,4
64013,143059,5
64019,143072,5
64036,143103,5
64043,143110,5
64044,143119,4
64055,143129,5
64047,143132,5
64043,143128,5
64049,143126,5
64042,143109,4
64041,143110,5
64028,143096,5
64031,143081,6
64016,143073,4
63997,143055,4
63997,143041,5
63999,143024,5
63982,143005,5
63982,143002,5
63966,142985,4
63958,142969,5
63948,142963,5
63946,142948,5
63930,142945,4
63921,142903,5
63907,142856,5
63878,142829,5
63847,142774,5
63817,142731,4
63794,142674,5
63759,142625,5
63721,142564,5
63678,142495,5
63627,142414,5
63577,142318,4
63524,142228,5
63473,142163,5
63432,142096,6
63416,142059,3
63388,142029,5
63382,142014,5
63379,142021,5
63376,142026,5
63395,142022,4
63393,142030,5
63402,142039,5
63410,142065,5
63423,142064,4
63426,142081,4
63428,142095,5
63447,142114,5
63452,142122,5
63477,142148,4
63483,142182,5
63503,142208,5
63450,142203,5
63496,142185,5
63475,142153,4
63463,142132,6
63305,142125,4
63448,142113,5
63435,142094,5
63419,142068,6
63231,142028,3
63385,142008,5
63370,141994,5
63363,141987,5
63374,141978,4
63374,141994,5
63381,142006,5
63382,142003,5
63546,142021,4
63391,142027,4
63407,142041,5
63413,142062,5
63596,142077,5
63432,142096,4
63445,142117,5
63462,142138,5
63531,142143,5
63476,142156,5
63475,142164,4
63478,142168,5
63487,142113,6
63486,142172,4
63482,142154,5
63470,142147,4
63445,141980,5
63447,142095,5
63421,142069,5
63401,142043,5
63384,141843,4
63378,142006,5
63360,141956,5
63334,141931,5
63325,141907,5
63305,141877,4
63291,141851,5
63293,141848,5
63279,142001,5
63280,141835,4
63283,141849,5
63291,141846,5
63295,142043,5
63291,141859,5
63303,141881,4
63317,141888,5
63322,141974,5
63333,141926,6
63343,141934,4
63347,141948,4
63363,141976,5
63373,141997,5
63383,142012,5
63395,142032,5
63413,142054,4
63427,142077,5
63430,142084,5
63440,142101,5
63445,142106,5
63458,142129,4
63467,142143,5
63476,142149,5
63483,142166,5
63489,142183,4
63509,142205,4
63522,142219,5
63531,142240,5
63553,142296,5
63571,142325,5
63596,142357,4
63626,142399,5
63652,142433,5
63671,142466,6
63693,142501,3
63705,142534,5
63722,142566,5
63732,142586,5
63756,142591,5
63759,142618,4
63754,142625,5
63756,142622,5
63771,142637,5
63770,142639,5
63781,142638,4
63781,142645,5
63779,142646,5
63774,142641,5
63771,142624,5
63755,142614,4
63761,142614,5
63766,142623,5
63764,142622,5
63765,142629,4
63765,142618,5
63759,142607,4
63752,142610,5
63750,142589,5
63741,142590,4
63736,142563,5
63730,142563,5
63727,142548,5
63725,142549,5
63711,142550,4
63707,142541,5
63705,142534,5
63702,142518,5
63695,142511,5
63696,142496,4
63677,142488,5
63680,142461,5
63675,142464,5
63654,142440,5
63642,142415,4
63626,142400,5
63615,142363,5
63587,142332,5
63576,142306,5
63561,142279,4
63549,142267,6
63546,142259,4
63534,142244,5
63538,142253,4
63539,142258,5
63540,142257,5
63540,142247,5
63531,142237,5
63522,142201,4
63404,142187,5
63482,142150,5
63480,142137,5
63478,142135,5
63308,142141,4
63474,142138,5
63480,142146,5
63483,142149,5
63391,142160,5
63497,142190,4
63510,142204,5
63530,142226,5
63639,142242,5
63553,142284,5
63578,142312,6
63597,142338,3
63798,142358,6
63617,142383,4
63631,142406,4
63646,142418,4
63763,142433,5
63670,142453,5
63675,142469,5
63690,142510,4
63732,142533,5
63730,142554,5
63744,142588,5
63755,142615,5
63766,142510,4
63766,142637,5
63780,142639,5
63797,142640,5
63791,142476,5
63787,142647,4
63786,142646,5
63795,142658,5
63794,142524,5
63788,142655,5
63787,142663,5
63786,142660,4
63794,142748,5
63802,142660,5
63792,142677,5
63805,142681,4
63816,142878,5
63822,142711,5
63834,142738,5
63849,142754,4
63862,142900,5
63864,142780,5
63855,142776,5
63859,142776,5
63870,142809,4
63866,142773,5
63862,142775,5
63855,142771,5
63863,142773,5
63854,142761,4
63861,142777,5
63865,142771,5
63874,142783,5
63873,142795,5
63883,142799,6
63888,142806,3
63881,142818,5
63900,142840,5
63908,142849,5
63907,142856,4
63919,142875,5
63926,142893,5
63944,142912,5
63950,142924,4
63958,142923,4
63952,142911,5
63964,142919,5
63948,142915,5
63940,142918,4
63948,142906,5
63942,142914,5
63933,142904,5
63926,142891,5
63936,142901,4
63929,142889,5
63928,142880,5
63925,142876,5
63927,142879,5
63921,142885,4
63927,142888,6
63932,142874,4
63920,142878,5
63922,142890,5
63925,142881,4
63934,142883,5
63932,142887,5
63936,142900,5
63957,142928,5
63973,142942,4
63978,142972,5
63994,142991,5
64015,143008,5
64015,143024,4
64021,143034,5
64019,143036,5
64032,143040,5
64022,143043,5
64031,143049,4
64037,143058,5
64035,143073,5
64045,143076,5
64058,143099,5
64066,143117,4
64079,143139,5
64091,143154,5
64101,143175,5
64108,143179,5
64113,143190,4
64125,143209,5
64130,143222,5
64138,143222,5
64134,143231,5
64138,143236,4
64142,143229,5
64141,143240,5
64136,143235,5
64153,143248,4
64146,143260,4
64161,143274,5
64170,143280,5
64183,143304,5
64109,143308,4
64186,143319,4
64208,143341,5
64231,143372,5
64086,143390,5
64233,143374,3
64229,143377,5
64237,143376,5
64059,143363,5
64224,143377,5
64221,143363,4
64226,143363,5
64244,143351,5
64205,143349,5
64208,143343,5
64197,143346,4
64378,143339,5
64210,143354,5
64213,143349,5
64205,143344,5
64366,143353,4
64213,143351,5
64209,143360,5
64215,143361,5
64259,143353,4
64216,143355,6
64212,143364,4
64211,143368,5
64224,143293,5
64232,143380,6
64228,143388,3
64237,143396,5
64248,143245,5
64239,143397,5
64243,143394,4
64241,143401,4
64235,143225,5
64244,143396,5
64242,143402,5
64245,143402,4
64248,143455,5
64243,143414,5
64256,143426,5
64257,143428,5
64253,143602,4
64247,143425,5
64248,143417,5
64241,143415,5
64247,143559,4
64237,143400,4
64247,143405,6
64256,143414,4
64246,143458,5
64248,143415,4
64248,143426,7
64254,143432,3
64258,143441,5
64272,143451,5
64271,143454,4
64287,143483,5
64293,143480,5
64305,143502,5
64304,143521,5
64319,143546,4
64338,143561,5
64345,143585,5
64357,143598,5
64368,143602,5
64365,143602,4
64368,143608,5
64366,143603,5
64355,143597,5
64357,143594,5
64369,143611,4
64357,143611,5
64368,143605,6
64374,143603,4
64373,143606,4
64366,143610,4
64371,143615,5
64366,143603,5
64368,143603,5
64362,143603,4
64365,143604,5
64378,143605,5
64371,143599,5
64368,143603,5
64358,143602,4
64371,143607,5
64360,143614,5
64371,143614,5
64379,143617,5
64374,143615,4
64374,143621,5
64373,143615,5
64350,143584,5
64338,143562,5
64321,143545,4
64311,143517,5
64303,143496,5
64288,143466,6
64255,143417,3
64231,143387,4
64217,143355,5
64208,143344,5
64201,143340,5
64199,143344,4
64191,143337,5
64185,143321,5
64185,143306,5
64191,143312,5
64180,143314,4
64190,143319,5
64186,143318,5
64183,143315,5
64186,143316,5
64182,143309,4
64172,143308,5
64165,143301,5
64170,143286,5
64162,143279,5
64141,143249,5
64129,143231,4
64124,143209,5
64114,143197,5
64103,143170,6
64098,143146,3
64068,143133,5
64054,143100,5
64033,143100,5
64045,143086,4
64037,143057,4
64015,143021,5
63869,143007,5
63985,142992,5
63980,142974,4
63965,142966,5
63804,142960,5
63964,142953,5
63972,142961,5
63964,142953,4
63910,142953,5
63962,142947,5
63965,142946,5
63967,142958,5
64094,142945,4
63968,142955,6
63961,142954,4
63963,142964,5
64161,142972,5
63977,142966,4
63973,142976,5
63976,142958,5
64063,142972,5
63978,142974,4
63976,142979,4
63987,142971,5
64007,142986,5
63989,142994,5
63985,142988,4
63990,142980,5
63984,142871,5
63984,142990,5
63985,142974,5
63976,142969,4
63972,142810,5
63972,142971,5
63977,142979,5
63972,142985,5
63974,142898,4
63983,142984,5
63982,142982,6
63978,142989,4
63977,143093,5
63977,142975,4
63980,142970,5
63982,142962,5
63970,143159,5
63963,142942,5
63958,142938,4
63962,142935,5
63955,143047,5
63956,142941,5
63958,142950,4
63962,142938,4
63967,142965,5
63953,142954,5
63956,142950,5
63960,142952,4
63970,142954,5
63958,142952,5
63970,142966,5
63973,142962,5
63975,142962,4
63969,142962,5
63980,142964,5
63973,142957,6
63973,142960,4
63972,142966,4
63970,142975,5
63971,142967,5
63979,142976,5
63987,142985,5
63971,142980,4
63978,142965,5
63980,142969,5
63966,142971,5
63969,142974,4
63968,142964,4
63977,142963,5
63960,142960,5
63969,142954,5
63970,142962,4
63970,142957,5
63961,142959,5
63968,142952,5
63966,142943,5
63952,142954,5
63951,142940,4
63959,142930,5
63953,142935,5
63965,142937,5
63956,142932,4
63955,142931,5
63935,142903,5
63942,142916,5
63939,142914,5
63936,142907,4
63934,142897,5
63921,142875,5
63897,142850,5
63884,142820,5
63876,142819,4
63874,142804,5
63875,142800,5
63871,142792,5
63854,142770,4
63836,142753,4
63828,142722,5
63808,142712,5
63796,142690,5
63792,142671,4
63779,142664,6
63781,142648,4
63772,142640,5
63765,142634,5
63760,142625,4
63760,142615,5
63756,142614,5
63758,142606,5
63743,142601,5
63753,142589,4
63731,142570,5
63732,142565,5
63732,142565,5
63726,142561,5
63725,142552,4
63726,142554,5
63723,142548,5
63719,142550,5
63711,142542,5
63695,142525,4
63612,142481,5
63673,142465,5
63653,142449,5
63641,142425,4
63485,142392,4
63605,142352,6
63584,142321,4
63578,142316,5
63394,142311,4
63560,142290,5
63556,142280,5
63555,142278,5
63568,142261,5
63551,142264,4
63554,142269,5
63548,142259,5
63700,142276,5
63547,142264,5
63550,142276,4
63557,142265,5
63723,142285,5
63559,142285,5
63563,142281,5
63564,142295,4
63618,142278,5
63553,142285,5
63552,142272,6
63558,142266,3
63553,142213,4
63546,142255,5
63541,142255,5
63539,142254,5
63538,142098,4
63528,142237,5
63524,142220,5
63514,142218,5
63529,142043,5
63520,142215,4
63517,142200,5
63511,142208,5
63518,142217,5
63522,142215,5
63510,142205,4
63517,142207,5
63517,142371,5
63511,142210,5
63515,142214,5
63515,142202,4
63512,142389,5
63513,142211,5
63512,142212,5
63505,142216,5
63508,142275,4
63519,142218,5
63529,142220,5
63517,142219,5
63526,142225,4
63521,142229,5
63524,142226,5
63527,142236,5
63524,142240,5
63531,142235,4
63530,142237,5
63522,142245,5
63531,142239,5
63536,142249,5
63540,142247,4
63542,142255,5
63534,142254,5
63542,142268,5
63543,142263,5
63552,142257,4
63541,142264,5
63554,142275,4
63549,142270,5
63557,142291,5
63563,142305,5
63569,142297,3
63573,142320,5
63570,142309,5
63582,142318,4
63583,142318,4
63574,142323,5
63577,142328,5
63590,142331,5
63588,142313,4
63573,142297,5
63563,142280,5
63544,142257,5
63534,142230,5
63528,142228,4
63507,142201,5
63496,142186,5
63481,142155,5
63458,142113,5
63440,142082,4
63411,142051,5
63410,142051,6
63398,142043,4
63402,142037,5
63401,142034,4
63406,142033,7
63390,142024,3
63403,142019,5
63397,142030,5
63402,142041,4
63405,142035,5
63407,142040,5
63412,142041,5
63414,142033,4
63405,142043,4
63410,142037,5
63396,142020,5
63402,142027,5
63396,142024,4
63386,142015,5
63377,141995,5
63375,141989,5
63354,141974,5
63352,141956,4
63348,141940,5
63344,141943,5
63344,141932,6
63334,141927,4
63329,141923,4
63332,141914,5
63321,141895,5
63314,141884,5
63312,141884,5
63312,141882,4
63296,141865,5
63296,141854,5
63292,141850,5
63191,141849,5
63291,141848,4
63292,141851,5
63292,141851,5
63126,141843,5
63289,141856,4
63293,141848,5
63295,141851,5
63170,141858,5
63303,141859,5
63297,141863,5
63301,141860,4
63390,141855,5
63303,141850,5
63298,141852,6
63296,141857,3
63471,141842,5
63290,141846,5
63291,141843,5
63282,141838,5
63401,141838,4
63279,141825,5
63275,141831,5
63278,141831,5
63300,141823,5
63267,141813,4
63268,141815,5
63261,141802,5
63263,141719,5
63261,141796,5
63256,141780,4
63247,141786,5
63254,141622,5
63240,141775,5
63248,141777,5
63245,141789,5
63252,141610,4
63254,141783,5
63249,141789,5
63244,141780,6
63243,141840,3
63247,141781,5
63249,141779,5
63245,141776,5
63245,141950,4
63254,141779,5
63250,141787,5
63255,141786,5
63251,141930,5
63256,141791,4
63248,141788,5
63256,141774,5
63246,141823,5
63254,141779,5
63241,141781,4
63256,141787,5
63261,141786,5
63253,141801,5
63260,141786,4
63256,141797,4
63267,141797,6
63267,141804,4
63263,141799,5
63279,141814,4
63279,141815,5
63285,141832,5
63283,141828,5
63281,141835,5
63298,141836,4
63296,141846,5
63302,141879,5
63309,141893,5
63333,141915,5
63345,141934,4
63353,141954,5
63376,141976,5
63371,141999,5
63374,141989,5
63389,141998,4
63392,142005,5
63385,142000,5
63387,142007,5
63393,142029,5
63418,142045,4
63418,142051,5
63423,142054,6
63422,142037,4
63402,142035,4
63427,142087,4
63457,142128,5
63464,142166,5
63499,142200,5
63507,142210,4
63506,142213,5
63506,142221,5
63526,142234,5
63535,142253,5
63553,142291,4
63583,142336,5
63613,142388,5
63624,142424,5
63646,142450,5
63670,142480,4
63686,142512,5
63702,142540,5
63693,142544,5
63700,142532,5
63696,142545,4
63719,142563,5
63731,142591,5
63745,142590,6
63742,142611,4
63746,142610,4
63751,142631,5
63758,142643,5
63757,142639,5
63762,142650,4
63768,142646,4
63766,142638,5
63765,142649,5
63768,142644,5
63768,142659,4
63780,142677,5
63783,142676,5
63786,142682,5
63793,142690,5
63799,142712,4
63803,142724,5
63820,142742,5
63830,142775,5
63854,142811,5
63873,142846,5
63897,142900,4
63821,142938,5
63956,142971,5
63964,142997,5
63981,143025,4
63849,143081,5
64036,143116,5
64062,143154,5
64088,143196,5
64007,143243,4
64122,143267,5
64144,143300,5
64158,143321,5
64272,143348,4
64189,143368,4
64198,143381,5
64198,143380,5
64390,143400,5
64210,143394,4
64209,143400,5
64220,143404,5
64328,143400,5
64212,143406,5
64203,143393,4
64200,143386,6
64223,143374,4
64187,143369,5
64176,143349,5
64168,143338,4
64166,143245,5
64160,143326,5
64169,143323,5
64156,143311,5
64149,143147,4
64146,143301,5
64143,143302,5
64149,143292,5
64141,143140,5
64140,143285,4
64146,143289,5
64147,143301,5
64134,143353,5
64134,143290,4
64140,143280,5
64140,143290,5
64137,143452,5
64129,143289,5
64138,143262,4
64122,143259,5
64119,143406,6
64120,143253,4
64119,143252,5
64120,143245,4
64119,143297,5
64116,143250,5
64111,143251,5
64111,143248,5
64117,143250,4
64111,143244,5
64110,143246,5
64116,143253,5
64115,143248,5
64109,143225,4
64096,143208,5
64080,143168,5
64051,143122,5
64021,143096,4
64016,143096,4
64013,143072,5
64000,143064,5
63997,143059,5
63982,143026,4
63977,143016,5
63968,143013,5
63962,142990,6
63964,142993,4
63965,143002,4
63963,143003,5
63965,143000,5
63967,142992,5
63957,142997,5
63970,142999,4
63966,142996,5
63962,142995,5
63957,142992,5
63956,142982,5
63946,142961,4
63939,142949,5
63932,142940,5
63916,142925,5
63919,142918,5
63918,142916,4
63909,142905,5
63911,142910,5
63903,142897,5
63898,142906,5
63899,142898,4
63898,142889,5
63907,142902,5
63900,142885,5
63907,142891,4
63896,142895,5
63911,142901,5
63908,142902,5
63895,142887,5
63912,142893,4
63902,142887,5
63895,142894,5
63891,142877,5
63885,142880,5
63895,142877,4
63888,142886,5
63893,142888,5
63905,142904,5
63909,142900,5
63909,142911,4
63915,142906,5
63915,142928,5
63924,142929,5
63924,142938,5
63943,142950,5
63944,142953,4
63941,142947,5
63941,142953,5
63930,142945,4
63938,142950,4
63934,142947,5
63932,142939,5
63934,142953,5
63929,142950,4
63932,142960,5
63955,142973,5
63954,142980,5
63966,142994,5
63856,143005,4
63974,143024,5
63980,143035,5
63985,143034,5
63840,143045,5
64010,143059,4
64011,143079,5
64011,143070,5
63926,143088,5
64020,143089,5
64010,143082,4
64012,143069,6
64109,143057,3
64004,143066,5
64002,143039,5
63988,143041,4
64169,143032,5
63988,143027,5
63975,143026,5
63981,143031,4
64095,143026,4
63979,143030,5
63983,143030,5
63987,143033,5
64017,143033,4
63995,143046,5
64004,143045,5
63997,143035,5
63992,142944,5
63993,143033,4
64001,143041,5
64000,143065,5
64001,142916,6
64002,143069,4
64013,143063,5
64011,143047,4
64004,142897,5
64004,143058,5
64010,143068,5
64009,143047,4
64007,143124,5
64002,143045,5
63994,143045,5
63985,143033,5
63997,143217,4
63998,143035,5
63996,143032,5
63990,143037,5
63996,143191,4
63995,143047,4
64005,143051,5
64001,143048,5
64001,143108,5
64005,143062,5
64006,143059,4
64014,143068,5
64005,143067,5
64013,143069,6
64015,143085,3
64024,143096,7
64031,143099,3
64034,143111,5
64026,143111,5
64039,143107,4
64031,143108,5
64034,143112,5
64037,143113,5
64034,143106,5
64023,143096,4
64024,143092,5
64015,143081,5
64025,143096,5
64029,143103,5
64039,143115,4
64042,143123,5
64056,143139,5
64055,143151,5
64077,143164,4
64078,143171,5
64083,143196,4
64099,143207,5
64099,143221,5
64118,143235,6
64122,143242,3
64131,143265,5
64135,143269,5
64143,143269,5
64139,143280,4
64140,143279,5
64155,143291,5
64145,143285,5
64160,143309,5
64164,143292,4
64158,143302,5
64165,143315,5
64174,143321,5
64182,143326,5
64173,143325,4
64176,143334,5
64176,143337,5
64171,143319,5
64181,143334,5
64178,143336,4
64184,143323,6
64170,143326,4
64175,143329,5
64175,143334,4
64175,143332,4
64171,143325,5
64187,143328,5
64183,143329,5
64176,143328,4
64173,143331,5
64174,143350,5
64186,143338,5
64191,143337,5
64195,143358,4
64192,143347,5
64192,143352,5
64192,143355,5
64205,143375,5
64207,143377,4
64204,143381,5
64213,143376,5
64211,143387,5
64213,143378,5
64211,143382,4
64208,143380,5
64220,143393,6
64220,143398,4
64225,143400,5
64217,143405,4
64217,143380,5
64112,143358,5
64195,143337,5
64189,143356,4
64189,143347,4
64019,143331,5
64184,143330,5
64171,143306,5
64166,143313,4
64003,143301,5
64163,143296,5
64170,143308,5
64168,143320,5
64231,143334,4
64177,143337,5
64177,143332,5
64190,143325,5
64355,143344,5
64184,143347,4
64201,143356,5
64196,143353,5
64336,143363,6
64202,143346,4
64192,143357,4
64195,143342,5
64230,143331,5
64188,143344,5
64181,143338,5
64185,143339,4
64183,143273,5
64174,143322,5
64168,143315,5
64162,143297,4
64146,143133,4
64140,143264,5
64135,143256,5
64123,143253,5
64117,143050,4
64117,143228,5
64112,143223,5
64118,143239,5
64119,143239,5
64116,143221,5
64105,143219,4
64098,143212,5
64101,143361,5
64100,143193,6
64105,143181,3
64086,143203,5
64100,143388,5
64092,143194,5
64101,143197,5
64097,143202,4
64095,143278,5
64098,143193,5
64097,143192,5
64103,143198,5
64093,143202,4
64091,143192,5
64087,143188,5
64086,143196,5
64094,143182,4
64088,143180,5
64076,143165,5
64079,143172,5
64077,143163,5
64074,143150,4
64068,143156,6
64074,143157,4
64066,143147,5
64066,143133,5
64064,143142,4
64053,143130,5
64059,143134,5
64055,143136,5
64059,143134,5
64054,143135,4
64056,143131,5
64046,143121,5
64048,143124,5
64050,143119,5
64058,143113,4
64045,143118,5
64041,143120,5
64039,143115,5
64052,143122,5
64062,143122,4
64058,143140,5
64069,143155,5
64067,143163,5
64064,143151,4
64066,143147,5
64068,143142,6
64061,143138,4
64064,143150,5
64065,143136,4
64061,143141,5
64050,143139,5
64061,143145,5
64053,143139,5
64066,143143,4
64062,143154,5
64084,143178,5
64085,143180,5
64101,143197,5
64106,143207,4
64106,143220,5
64120,143238,5
64127,143250,5
64145,143279,5
64159,143289,4
64167,143303,5
64171,143311,5
64173,143311,5
64175,143311,5
64166,143303,4
64157,143305,5
64161,143301,6
64156,143294,4
64154,143282,4
64155,143295,5
64153,143295,5
64159,143301,5
64153,143307,5
64165,143313,4
64167,143318,5
64166,143328,5
64176,143322,5
64184,143334,5
64186,143350,4
64190,143350,5
64185,143353,5
64191,143358,5
64186,143346,5
64129,143354,4
64204,143366,5
64206,143387,5
64230,143411,5
64089,143435,5
64257,143471,4
64272,143487,5
64290,143508,5
64124,143530,5
64299,143532,4
64313,143540,4
64320,143555,5
64339,143553,5
64314,143557,5
64321,143549,4
64315,143540,5
64472,143545,5
64300,143531,5
64310,143529,5
64299,143528,4
64483,143531,5
64295,143522,5
64300,143524,5
64308,143538,5
64379,143533,4
64314,143541,5
64315,143551,5
64329,143568,5
64345,143548,5
64344,143598,10
64364,143615,9
64365,143633,5
64361,143450,8
64361,143450,7
64378,143604,5
64342,143572,8
64318,143546,7
64303,143475,7
64149,143262,10
64149,143262,5
64120,143224,5
64101,143202,10
64085,143361,5
64061,143135,5
64044,143086,10
64020,143067,5
64023,143126,5
64010,143046,10
64010,143046,5
63998,143039,5
63991,143010,10
63992,143013,5
63986,142992,5
63815,142715,10
63815,142715,5
63791,142684,5
63768,142682,10
63771,142656,5
63779,142665,5
63784,142690,10
63772,142670,5
63729,142571,7
63729,142571,8
63707,142541,5
63681,142509,7
63659,142460,8
63631,142424,5
63579,142380,7
63576,142320,8
63576,142320,5
63569,142297,7
63543,142264,8
63545,142241,5
63534,142238,7
63473,142224,8
63502,142220,5
63511,142215,7
63520,142216,8
63520,142216,9
63527,142226,8
63520,142230,5
63529,142179,7
63544,142271,8
63544,142271,5
63543,142277,7
63560,142295,8
63573,142326,5
63566,142324,7
63582,142305,8
63585,142344,5
63612,142389,7
63612,142389,8
63665,142403,5
63636,142411,7
63632,142411,8
63641,142435,7
63648,142448,5
63671,142480,8
63671,142480,7
63708,142491,5
63688,142493,8
63684,142504,7
63694,142513,7
63625,142541,8
63711,142542,7
63711,142542,5
63721,142589,8
63724,142569,7
63554,142563,10
63727,142572,9
63727,142572,5
63716,142565,8
63726,142552,7
63874,142545,9
63702,142522,10
63702,142522,9
63699,142531,10
63693,142506,9
63693,142506,10
63668,142405,5
63655,142455,5
63655,142436,7
63627,142398,0
63596,142209,1
63577,142318,5
63526,142283,5
63521,142220,5
63501,142011,4
63484,142162,5
63451,142135,6
63433,142072,4
63395,142029,5
63367,141974,4
63341,141921,5
63321,141917,5
63327,142074,5
63332,141914,4
