RED,IR,EKG,TIME
72766,157549,8
72743,157500,8
72703,157427,5
72670,157371,7
72539,157164,8
72539,157164,5
72535,157149,7
72528,157159,8
72524,157152,5
72536,157160,7
72520,157180,8
72523,157195,5
72546,157213,7
72554,157204,8
72554,157204,9
72559,157211,5
72548,157210,8
72553,157167,7
72554,157167,5
72533,157172,8
72533,157172,7
72522,157156,5
72531,157159,8
72521,157149,7
72501,157141,5
72333,157101,8
72499,157102,7
72499,157102,5
72488,157102,8
72513,157103,7
72382,157106,5
72482,157093,8
72470,157088,7
72467,157086,5
72774,157133,8
72774,157133,7
72531,157138,8
72511,157144,7
72521,157158,7
72676,157168,8
72552,157217,7
72552,157217,5
72567,157240,8
72558,157243,7
72563,157071,5
72573,157242,8
72582,157248,7
72586,157250,5
72614,157162,8
72614,157162,7
72623,157304,7
72627,157329,10
72646,157352,5
72662,157508,5
72661,157363,10
72661,157363,5
72657,157368,5
72657,157386,10
72665,157553,5
72656,157384,5
72667,157418,10
72667,157418,5
72686,157429,5
72700,157440,10
72716,157458,5
72727,157474,5
72751,157514,10
72773,157518,5
72767,157547,5
72787,157573,9
72787,157573,5
72761,157583,5
72785,157601,10
72794,157581,5
72793,157592,5
72790,157557,10
72787,157551,5
72824,157619,7
72824,157619,8
72818,157630,5
72832,157635,7
72838,157651,8
72838,157668,1
72834,157679,2
72852,157690,5
72840,157688,5
72852,157696,4
72859,157700,5
72854,157696,5
72863,157708,5
72856,157718,5
72872,157705,4
72866,157704,5
72858,157706,5
72863,157708,5
72865,157719,4
72868,157696,4
72869,157701,9
72849,157709,5
72869,157704,5
72865,157724,7
72864,157707,8
72857,157694,9
72857,157694,8
72784,157577,5
72850,157678,7
72880,157686,8
72856,157677,5
72834,157677,7
72792,157580,8
72792,157580,5
72774,157550,7
72765,157558,8
72754,157547,5
72764,157538,7
72745,157528,8
72753,157512,5
72729,157485,7
72729,157485,8
72724,157499,7
72719,157476,5
72621,157450,8
72684,157396,7
72685,157402,5
72645,157346,8
72645,157346,7
72382,157356,7
72637,157344,8
72629,157338,7
72622,157322,5
72881,157370,8
72881,157370,7
72682,157401,5
72686,157421,8
72691,157434,7
72951,157452,7
72744,157519,10
72744,157519,5
72757,157547,5
72773,157569,10
72794,157551,5
72807,157622,5
72827,157620,10
72838,157674,5
72863,157443,10
72863,157443,10
72865,157716,12
72865,157716,5
72867,157741,5
72865,157723,10
72859,157894,5
72867,157733,5
72882,157756,10
72914,157771,5
72901,158052,5
72936,157838,10
72936,157838,5
72931,157832,5
72952,157858,10
72952,157882,5
72964,157869,5
72990,157917,10
72990,157917,5
72957,157921,5
72981,157927,10
72996,157926,5
72991,157943,5
72993,157958,10
73005,157911,5
73003,157940,7
73003,157940,8
73000,157945,5
73005,157944,7
73010,157939,8
72996,157935,5
72968,157945,7
73004,157913,8
73004,157913,5
72984,157927,7
73000,157930,8
72993,157944,5
72996,157941,7
72980,157934,8
73000,157947,5
73018,157963,7
73018,157963,8
73020,157973,5
73020,157978,4
73021,157975,5
73028,157997,5
73027,157986,5
73027,157990,5
73030,157985,4
73025,157984,5
73025,157980,5
73016,157976,5
73025,157970,4
73020,157979,4
73029,157977,5
73024,157969,5
73014,157976,5
73019,157985,4
73028,157992,5
73023,158001,5
73029,157992,6
73026,157994,4
73024,157992,4
73035,157997,5
73027,158002,5
73026,157991,5
73029,157996,5
73029,157980,4
73021,157993,5
73021,157984,5
73034,157985,5
73027,157982,5
73026,157996,4
73030,157991,5
73037,158001,5
73034,157995,5
73038,158009,5
73047,158022,4
73040,158033,5
73060,158043,5
72920,158059,5
73084,158060,5
73092,158066,4
73088,158077,5
72858,158084,5
73090,158093,6
73095,158097,3
73099,158098,5
72933,158118,5
73102,158114,5
73103,158111,5
73111,158105,4
73233,158102,5
73099,158101,5
73101,158095,5
73088,158077,5
73340,158059,4
73067,158049,5
73053,158019,5
73037,157984,5
73176,157965,5
73017,157978,4
73008,157955,5
72987,157938,5
73025,157941,5
72995,157944,4
72992,157934,5
72991,157939,4
72994,157813,5
73009,157971,5
73028,157996,4
73039,158002,5
73042,157787,5
73058,158033,5
73071,158065,5
73091,158088,4
73102,157920,5
73112,158141,5
73126,158152,5
73145,158171,5
73152,158319,4
73167,158213,5
73177,158233,5
73182,158246,5
73186,158517,5
73184,158241,4
73178,158241,5
73179,158244,5
73178,158428,5
73182,158246,5
73183,158253,4
73197,158264,6
73195,158319,4
73205,158271,5
73220,158297,4
73213,158302,4
73210,158310,5
73212,158302,5
73223,158305,5
73224,158307,4
73220,158311,5
73224,158309,5
73223,158309,5
73227,158317,5
73228,158324,4
73231,158332,5
73232,158336,5
73232,158339,5
73239,158359,5
73257,158359,4
73263,158371,5
73271,158383,5
73274,158406,5
73288,158409,5
73293,158415,4
73285,158431,5
73299,158431,6
73308,158450,4
73321,158463,5
73321,158475,4
73333,158487,5
73346,158508,5
73356,158520,5
73359,158541,4
73366,158548,4
73379,158572,5
73388,158591,5
73408,158599,5
73414,158605,4
73415,158618,5
73408,158609,5
73396,158607,5
73399,158589,5
73387,158583,4
73385,158561,5
73364,158529,5
73349,158517,5
73339,158503,5
73330,158486,4
73322,158468,5
73317,158456,5
73297,158433,5
73290,158404,5
73277,158388,4
73258,158380,5
73259,158377,5
73254,158364,5
73260,158360,5
73251,158346,4
73253,158346,5
73249,158349,5
73235,158344,5
73246,158353,4
73250,158349,4
73242,158345,5
73239,158340,5
73242,158348,5
73241,158325,4
73225,158312,5
73230,158317,5
73229,158323,5
73223,158320,5
73238,158344,5
73225,158324,4
73214,158283,5
73192,158268,5
73179,158236,5
73146,158204,4
73132,158171,5
73076,158167,5
73121,158156,5
73121,158152,5
73116,158137,4
72908,158128,5
73100,158114,5
73089,158111,5
73095,158116,5
72853,158117,4
73105,158119,5
73104,158112,5
73107,158099,5
73062,158089,4
73081,158076,4
73077,158071,6
73069,158060,4
73269,158050,5
73049,158047,4
73057,158029,6
73055,158028,4
73314,158025,5
73040,158016,5
73039,158013,4
73030,158011,5
73145,158007,5
73047,158023,5
73049,158019,5
73029,158010,4
73037,157968,5
73007,157958,5
72992,157938,5
72973,157902,5
72951,157713,4
72950,157864,5
72942,157853,5
72946,157864,5
72943,157615,5
72953,157881,4
72974,157908,5
72975,157928,5
72998,157865,5
73004,157976,4
73023,157991,4
73033,158004,6
73050,158207,4
73051,158041,5
73057,158056,4
73079,158075,5
73092,158372,5
73100,158118,5
73108,158135,5
73130,158152,4
73136,158308,5
73137,158179,5
73158,158193,5
73162,158206,5
73175,158257,4
73190,158253,5
73195,158253,5
73202,158280,5
73224,158303,5
73235,158327,4
73249,158350,5
73263,158377,5
73278,158404,6
73288,158412,4
73302,158443,4
73318,158462,5
73336,158478,5
73346,158518,5
73357,158511,4
73358,158529,4
73371,158540,5
73365,158546,5
73366,158549,5
73375,158569,4
73380,158562,5
73400,158591,5
73400,158598,5
73413,158599,5
73394,158586,4
73398,158581,5
73393,158590,5
73389,158573,5
73397,158585,5
73401,158603,5
73394,158573,4
73396,158581,5
73408,158599,5
73412,158604,6
73410,158606,3
73427,158630,5
73450,158667,5
73468,158714,5
73493,158735,5
73499,158750,4
73519,158784,5
73523,158794,5
73534,158814,5
73554,158827,4
73560,158858,4
73567,158860,5
73576,158867,5
73587,158887,5
73591,158878,4
73594,158892,5
73593,158887,5
73592,158893,5
73594,158893,5
73595,158896,4
73605,158901,6
73600,158913,4
73598,158908,5
73601,158925,5
73609,158918,6
73616,158925,3
73623,158940,5
73615,158940,5
73624,158950,5
73627,158959,4
73634,158951,5
73621,158949,5
73635,158945,5
73633,158966,5
73634,158973,4
73652,158995,5
73668,159021,5
73679,159042,5
73695,159066,4
73696,159080,4
73710,159089,5
73726,159114,5
73737,159135,5
73693,159153,4
73763,159176,5
73762,159185,6
73774,159191,4
73582,159212,5
73796,159208,4
73796,159219,5
73814,159240,5
73555,159258,5
73823,159271,5
73837,159289,4
73831,159277,5
73816,159285,5
73838,159283,5
73839,159280,5
73841,159289,4
74046,159293,5
73840,159295,5
73836,159300,5
73840,159302,5
74128,159300,4
73853,159312,5
73860,159305,5
73856,159308,5
73960,159319,4
73857,159318,4
73854,159322,5
73866,159338,6
73890,159307,4
73882,159368,4
73899,159375,5
73898,159384,5
73906,159199,5
73899,159403,5
73912,159410,4
73913,159412,4
73914,159157,5
73916,159407,5
73907,159386,5
73891,159368,4
73885,159289,5
73890,159373,5
73897,159371,5
73882,159347,5
73869,159524,4
73868,159355,5
73876,159353,5
73878,159352,5
73889,159656,5
73903,159397,4
73919,159415,5
73928,159430,5
73939,159583,6
73932,159443,3
73939,159448,4
73943,159458,5
73952,159503,8
73962,159479,2
73968,159501,4
73947,159498,5
73975,159517,5
73982,159512,5
73988,159528,5
73983,159533,4
73985,159531,5
73998,159529,5
73992,159524,5
73990,159534,5
73991,159535,4
73994,159535,5
74001,159549,5
74009,159567,5
74000,159555,5
74013,159580,5
74027,159574,4
74031,159593,5
74048,159622,5
74037,159623,6
74041,159614,3
74054,159630,5
74058,159637,5
74060,159647,5
74057,159653,5
74070,159665,4
74084,159688,5
74084,159686,5
74098,159695,5
74102,159708,4
74115,159717,4
74122,159749,5
74130,159765,5
74140,159764,5
74161,159801,4
74163,159814,5
74175,159824,5
74192,159852,5
74196,159863,5
74202,159860,4
74191,159865,6
74199,159868,4
74209,159867,5
74207,159874,5
74196,159871,4
74207,159874,5
74215,159890,5
74216,159893,5
74217,159897,5
74223,159896,4
74224,159907,5
74226,159916,5
74238,159926,5
74241,159933,5
74240,159930,4
74251,159946,5
74254,159941,5
74252,159941,5
74250,159939,4
74256,159942,4
74256,159949,5
74245,159942,5
74238,159940,5
74250,159925,4
74243,159929,5
74241,159914,6
74218,159884,4
74186,159832,5
74179,159823,4
74161,159808,5
74151,159793,5
74147,159745,5
74091,159701,5
74084,159672,4
74061,159633,5
73967,159585,5
74013,159557,5
74007,159567,5
74015,159569,4
73811,159570,5
74014,159558,5
73998,159550,5
74003,159533,5
73728,159536,4
73982,159525,5
73989,159527,5
73986,159516,5
73947,159484,4
73954,159449,4
73922,159400,5
73879,159334,6
74036,159264,4
73782,159181,4
73729,159102,5
73689,159034,5
73921,158965,5
73614,158908,5
73572,158854,4
73546,158811,5
73635,158782,5
73527,158780,5
73518,158775,5
73523,158767,4
73540,158754,5
73535,158792,5
73529,158793,5
73518,158756,5
73497,158551,4
73457,158653,5
73414,158584,5
73383,158518,5
73343,158227,5
73317,158430,4
73311,158404,5
73282,158376,5
73261,158247,5
73238,158302,4
73230,158296,4
73217,158271,5
73215,158455,5
73218,158268,5
73222,158284,4
73230,158299,5
73235,158587,5
73249,158333,5
73256,158344,5
73270,158362,4
73272,158503,5
73277,158373,5
73273,158376,5
73263,158354,5
73271,158373,4
73262,158330,5
73250,158312,5
73244,158296,5
73229,158295,5
73237,158289,5
73235,158297,4
73239,158309,5
73237,158307,5
73246,158305,5
73242,158314,4
73240,158308,5
73248,158312,5
73250,158318,5
73251,158324,4
73242,158316,4
73248,158332,5
73271,158337,5
73243,158333,5
73238,158297,4
73236,158293,5
73234,158287,5
73229,158285,5
73224,158286,5
73208,158268,4
73208,158273,5
73210,158266,5
73212,158269,5
73205,158278,5
73215,158298,4
73235,158321,6
73263,158345,4
73272,158382,5
73290,158389,5
73292,158409,4
73305,158422,5
73310,158432,5
73312,158442,5
73324,158440,5
73299,158431,4
73296,158419,5
73289,158401,5
73277,158369,5
73256,158333,4
73229,158290,4
73197,158244,5
73150,158179,5
73121,158103,5
73080,158048,4
73039,158008,5
73009,157937,5
72970,157883,5
72937,157836,5
72921,157790,4
72895,157760,5
72876,157742,6
72862,157712,4
72849,157695,5
72841,157670,4
72796,157612,5
72763,157534,5
72714,157480,5
72687,157403,5
72652,157380,4
72641,157350,5
72612,157322,5
72609,157278,5
72584,157262,5
72562,157231,4
72560,157212,5
72552,157216,5
72539,157205,5
72532,157168,5
72506,157132,4
72498,157120,5
72485,157099,5
72471,157078,6
72418,157079,3
72461,157059,5
72449,157044,5
72444,157032,5
72241,157003,5
72407,156972,4
72368,156913,5
72352,156867,5
72065,156824,5
72275,156761,5
72245,156697,4
72205,156631,5
72089,156530,5
72095,156444,5
72043,156360,5
71987,156287,4
72143,156235,5
71924,156178,5
71893,156129,5
71866,156091,5
72107,156059,5
71828,156024,4
71808,155989,5
71773,155930,5
71865,155861,6
71686,155775,3
71633,155679,5
71561,155559,5
71502,155398,5
71406,155304,4
71332,155186,4
71284,155098,5
71243,154878,5
71202,154977,5
71183,154950,4
71172,154944,4
71155,154691,5
71155,154918,5
71147,154893,5
71136,154879,4
71125,154741,5
71114,154845,5
71085,154789,5
71055,154744,5
71029,154829,4
70993,154662,6
70977,154621,4
70956,154583,5
70925,154819,5
70892,154501,6
70873,154435,3
70845,154399,5
70814,154515,5
70779,154295,5
70754,154240,4
70716,154195,5
70670,154148,5
70624,154039,5
70586,153966,4
70552,153899,4
70520,153858,5
70496,153830,5
70477,153804,5
70465,153798,4
70460,153765,5
70432,153732,5
70417,153707,5
70407,153661,5
70373,153636,4
70347,153579,5
70316,153518,6
70281,153480,4
70255,153424,5
70246,153406,4
70221,153376,5
70196,153320,5
70158,153253,5
70124,153214,5
70089,153151,4
70053,153092,5
70026,153048,5
69991,152998,5
69969,152953,5
69952,152941,4
69943,152929,5
69935,152906,5
69934,152900,5
69926,152875,4
69911,152850,4
69890,152830,5
69883,152800,5
69853,152765,5
69834,152735,4
69822,152705,5
69813,152690,5
69798,152673,6
69784,152647,4
69768,152617,4
69753,152582,5
69734,152549,5
69705,152515,5
69685,152477,5
69661,152436,4
69637,152382,5
69605,152331,5
69571,152271,5
69544,152245,5
69523,152195,4
69494,152160,5
69474,152120,5
69467,152096,5
69444,152066,5
69424,152024,4
69398,151994,5
69375,151949,5
69358,151917,5
69338,151879,5
69313,151853,4
69298,151815,5
69275,151800,5
69283,151796,6
69284,151795,3
69274,151787,5
69272,151786,5
69266,151787,5
69271,151794,5
69277,151794,4
69277,151783,5
69266,151760,5
69249,151732,5
69220,151703,5
69211,151667,4
69183,151614,5
69117,151570,5
69103,151512,5
69053,151410,5
69001,151322,4
68788,151237,5
68906,151168,5
68874,151110,5
68844,151059,5
68579,150997,5
68753,150916,4
68715,150843,5
68667,150768,5
68561,150738,4
68629,150699,4
68601,150654,5
68574,150628,5
68725,150598,5
68527,150551,4
68497,150483,5
68459,150423,5
68657,150342,5
68365,150284,5
68349,150226,4
68320,150181,5
68410,150147,5
68262,150093,5
68228,150014,5
68175,149955,4
68169,149875,5
68105,149833,5
68098,149815,5
68075,149781,5
68060,149597,4
68040,149730,6
68028,149704,4
68009,149666,5
67982,149387,5
67949,149546,4
67897,149460,5
67841,149362,5
67789,149155,5
67750,149214,4
67711,149146,4
67676,149091,5
67640,149166,5
67585,148935,5
67538,148870,4
67491,148789,5
67456,148976,5
67398,148630,5
67350,148536,5
67296,148448,4
67235,148501,5
67155,148201,5
67040,148027,5
66947,147851,5
66839,147716,4
66742,147525,5
66640,147358,6
66570,147233,4
66467,147043,5
66358,146860,4
66240,146670,5
66128,146480,5
66026,146307,5
65933,146138,5
65844,145998,4
65755,145829,5
65665,145688,5
65561,145507,5
65434,145288,5
65294,145031,4
65128,144754,5
64980,144493,5
64849,144283,5
64708,144060,5
64569,143814,4
64443,143619,5
64315,143392,5
64168,143167,5
64047,142968,4
63937,142794,5
63845,142644,5
63774,142516,6
63686,142360,4
63595,142211,4
63519,142075,5
63428,141915,5
63335,141757,5
63229,141564,5
63111,141376,4
63021,141201,5
62920,141040,5
62828,140890,5
62727,140711,5
62610,140517,4
62503,140324,5
62368,140112,5
62244,139895,5
62108,139668,4
61978,139399,4
61823,139157,5
61695,138936,5
61578,138736,5
61468,138538,5
61365,138382,4
61273,138196,5
61161,138011,5
61050,137825,5
60950,137652,4
60875,137546,5
60814,137411,5
60707,137245,5
60622,137084,5
60543,136948,4
60470,136825,5
60386,136701,5
60327,136581,5
60268,136485,5
60214,136412,4
60176,136346,5
60139,136280,5
60103,136227,5
60079,136179,5
60057,136132,4
60024,136084,5
60006,136053,5
59994,136009,5
59954,135943,5
59910,135871,5
59885,135829,4
59860,135814,5
59826,135736,5
59772,135684,4
59742,135585,4
59677,135478,5
59607,135350,5
59405,135242,5
59482,135149,4
59438,135079,5
59385,135005,5
59173,134967,5
59353,134948,5
59364,134972,4
59380,134978,5
59257,134933,5
59323,134878,5
59294,134825,5
59261,134773,4
59337,134705,5
59170,134618,5
59120,134532,5
59076,134464,5
59252,134432,4
59046,134434,6
59044,134410,4
59030,134387,5
59122,134334,5
58974,134292,4
58940,134225,5
58863,134081,5
58801,133919,5
58654,133739,4
58566,133602,4
58484,133459,5
58401,133224,5
58322,133194,5
58255,133080,4
58203,133010,5
58167,132772,5
58121,132883,5
58063,132789,5
58030,132738,4
58000,132497,5
57912,132497,5
57802,132320,6
57700,132171,4
57610,132086,4
57532,131875,5
57440,131723,5
57345,131548,5
57259,131597,5
57172,131278,4
57073,131104,5
56981,130911,5
56856,131544,5
56743,131211,5
56651,131034,4
56511,130824,5
56399,130677,5
56278,130434,5
56153,130234,4
56044,130050,4
55910,129831,5
55768,129595,5
55649,129415,5
55531,129236,4
55432,129077,4
55342,128913,5
55235,128751,5
55157,128620,6
55081,128499,3
55026,128414,5
54985,128368,5
54967,128348,5
54947,128320,5
54945,128301,4
54904,128245,5
54872,128206,5
54862,128210,5
54868,128221,5
54867,128230,4
54884,128263,5
54899,128296,5
54896,128269,5
54883,128271,5
54890,128284,4
54876,128270,5
54845,128223,5
54820,128189,5
54834,128241,4
54852,128281,5
54882,128324,4
54902,128381,5
54923,128426,5
54940,128455,6
54951,128500,3
54973,128537,5
55015,128631,5
55092,128762,5
55175,128919,4
55262,129083,5
55349,129244,5
55437,129381,5
55490,129480,5
55554,129592,4
55614,129711,5
55664,129801,5
55740,129920,5
55813,130066,5
55912,130263,4
56051,130500,5
56189,130729,5
56268,130850,5
56304,130918,5
56332,130949,4
56336,130955,6
56346,130985,4
56383,131066,5
56421,131163,4
56505,131314,6
56617,131527,3
56754,131771,5
56874,131972,5
56938,132098,4
57011,132216,5
57059,132304,5
57093,132353,5
57108,132369,5
57109,132355,4
57089,132329,5
57064,132304,5
57055,132266,5
57026,132223,5
56951,132037,4
56823,131846,5
56738,131738,5
56679,131631,5
56605,131516,5
56571,131465,4
56432,131394,5
56448,131260,6
56376,131122,4
56285,130994,5
56021,130775,4
56043,130572,5
55949,130418,5
55853,130260,5
55578,130077,5
55640,129895,4
55482,129647,5
55365,129412,5
55238,129117,5
55000,128784,4
54823,128503,4
54685,128277,5
54729,128091,5
54465,127914,5
54373,127757,4
54260,127587,5
54272,127349,5
54020,127148,5
53896,126924,5
53758,126700,4
53666,126457,5
53512,126295,5
53416,126095,6
53277,125843,4
53163,125609,4
53081,125529,5
53006,125392,5
52933,125285,5
52880,125069,5
52836,125099,4
52768,124996,5
52709,124906,5
52672,124684,5
52651,124814,5
52614,124737,5
52577,124668,4
52561,124675,5
52560,124658,5
52529,124632,4
52538,124621,4
52509,124709,5
52492,124547,5
52474,124505,5
52453,124498,5
52471,124702,4
52487,124545,5
52442,124472,5
52436,124458,6
52440,124527,3
52437,124451,5
52420,124440,5
52434,124448,5
52398,124381,5
52358,124313,4
52340,124277,5
52319,124258,5
52301,124206,5
52261,124145,5
52253,124155,4
52255,124154,5
52279,124193,5
52310,124252,5
52341,124297,5
52343,124276,4
52317,124261,5
52325,124260,5
52321,124252,5
52309,124226,4
52322,124256,5
52332,124265,4
52315,124249,5
52308,124234,5
52306,124246,4
52308,124223,5
52294,124206,5
52283,124174,5
52250,124134,5
52238,124116,4
52236,124113,5
52236,124096,5
52214,124060,5
52199,124022,5
52177,123968,4
52117,123894,5
52062,123783,5
52015,123726,5
51986,123655,5
51922,123542,4
51858,123456,5
51811,123343,5
51731,123187,5
51643,123054,5
51579,122964,4
51548,122899,6
51509,122833,4
51486,122785,5
51456,122750,4
51431,122699,4
51406,122653,5
51363,122590,5
51347,122552,5
51310,122511,4
51295,122456,5
51260,122386,5
51211,122303,5
51188,122256,5
51150,122198,4
51130,122166,5
51110,122120,5
51082,122102,5
51072,122092,5
51079,122083,4
51060,122053,5
51024,121983,5
50980,121892,5
50923,121787,5
50866,121688,4
50805,121575,5
50758,121487,6
50692,121370,4
50604,121213,5
50529,121065,4
50457,120970,5
50420,120882,5
50374,120802,5
50279,120618,4
50191,120470,4
50133,120359,5
50078,120266,5
49995,120212,5
50004,120108,4
49937,120000,5
49855,119837,5
49651,119673,5
49675,119486,5
49559,119282,4
49488,119162,5
49303,119085,5
49399,118982,5
49283,118743,5
49170,118577,4
49114,118448,5
49811,118302,5
49748,118171,6
49696,118109,4
49794,118066,4
49625,117941,5
49523,117727,5
49384,117479,5
49416,117272,5
49121,116980,4
48971,116713,5
48860,116529,5
48849,116402,5
48721,116226,5
48603,116018,4
48509,115877,5
48449,115698,5
48375,115616,5
48333,115536,4
48291,115428,5
48179,115114,5
48072,115008,5
47986,114881,5
47910,114732,5
47801,114334,4
47689,115007,5
47628,114901,5
47549,114756,5
47475,114588,4
47421,114549,5
47362,114443,5
47261,114232,5
47149,114118,5
47031,113813,4
46940,113649,5
46813,113357,5
46693,113281,5
46586,112973,5
46532,112877,4
46484,112774,5
46413,112712,5
46330,112450,5
46227,112262,5
46127,112065,4
46024,111876,5
45898,111618,5
45819,111487,5
45768,111383,4
45710,111253,6
45637,111158,4
45599,111102,5
45586,111048,5
45518,110888,4
45409,110690,5
45306,110507,5
45219,110356,5
45153,110199,5
45060,110015,4
44944,109783,5
44834,109579,5
44769,109449,5
44722,109339,5
44645,109127,4
44544,108952,5
44462,108755,5
44346,108524,5
44227,108249,5
44075,107961,4
43967,107729,5
43893,107570,5
43811,107418,5
43734,107228,4
43645,107043,4
43588,106928,6
43519,106756,4
43436,106584,5
43344,106370,4
43248,106171,8
43144,105946,2
43053,105783,5
42947,105584,5
42827,105322,4
42721,105132,5
42683,105064,5
42606,104915,5
42538,104767,5
42449,104620,4
42407,104530,5
42349,104431,5
42324,104401,5
42323,104343,5
42287,104269,4
42242,104175,5
42217,104126,5
42205,104100,5
42163,103980,5
42097,103877,4
42052,103758,5
42001,103651,5
41928,103501,5
41842,103339,5
41772,103214,4
41748,103166,5
41738,103141,5
41714,103094,5
41709,103090,4
41696,103037,5
41650,102962,5
41624,102923,5
41603,102854,5
41553,102757,4
41505,102643,5
41443,102520,5
41403,102440,5
41365,102379,5
41339,102318,4
41321,102272,4
41290,102207,5
41271,102183,5
41277,102189,6
41272,102174,3
41235,102132,5
41260,102148,5
41265,102147,5
41261,102150,5
41188,102144,4
41235,102069,5
41194,102001,5
41172,101953,5
41053,101920,5
41155,101920,4
41165,101952,5
41186,102001,5
41182,102033,5
41220,102054,4
41235,102078,5
41246,102118,5
41344,102143,5
41274,102140,5
41271,102156,4
41282,102158,6
41394,102181,4
41300,102197,5
41334,102263,5
41372,102345,6
41450,102410,3
41434,102454,5
41462,102523,5
41518,102626,5
41590,102733,4
41620,102822,5
41665,102903,5
41706,102993,5
41778,103053,5
41811,103185,4
41850,103250,5
41902,103386,5
41987,103445,5
42070,103696,5
42142,103843,4
42236,104013,5
42323,104124,5
42414,104339,5
42482,104466,4
42521,104527,5
42546,104638,6
42581,104643,4
42599,104678,5
42632,104736,4
42657,104885,5
42687,104851,5
42723,104920,5
42773,105006,5
42842,105212,4
42923,105283,5
42989,105421,5
43064,105565,5
43143,105726,5
43220,105869,4
43313,106033,5
43385,106183,5
43462,106320,5
43524,106450,5
43578,106561,4
43627,106646,5
43654,106698,5
43674,106720,5
43681,106761,5
43719,106818,4
43765,106910,5
43789,106952,6
43809,107002,4
43843,107057,4
43884,107126,5
43919,107187,5
43933,107225,5
43951,107245,5
43960,107267,4
43968,107287,5
43999,107317,5
44017,107367,5
44048,107430,5
44082,107486,4
44106,107516,5
44120,107544,5
44147,107591,5
44163,107638,5
44179,107671,4
44215,107727,5
44254,107789,5
44276,107837,5
44311,107898,5
44345,107966,4
44385,108064,5
44442,108168,5
44489,108247,6
44536,108331,3
44594,108448,4
44624,108514,5
44660,108559,5
44673,108582,5
44684,108611,4
44717,108622,5
44712,108647,5
44722,108668,5
44736,108684,5
44741,108699,4
44747,108705,5
44753,108727,5
44772,108742,5
44770,108745,5
44766,108738,4
44757,108726,5
44755,108728,5
44760,108744,5
44771,108753,5
44782,108769,5
44798,108796,4
44806,108813,5
44805,108836,5
44820,108855,6
44847,108905,3
44880,108942,5
44890,108973,5
44902,109004,5
44924,109024,5
44931,109041,4
44940,109065,5
44960,109106,5
44981,109123,5
44988,109136,4
44993,109153,5
44993,109179,5
45005,109176,5
45013,109207,5
45038,109239,4
45046,109251,5
45054,109259,5
44988,109263,5
45057,109255,5
45040,109246,4
45032,109233,6
44936,109220,4
45020,109213,5
45022,109201,5
45017,109207,4
44946,109211,5
45022,109217,5
45036,109241,5
45046,109253,5
45110,109274,4
45066,109286,5
45072,109314,5
45072,109318,5
45199,109332,5
45076,109341,4
45088,109342,5
45097,109359,5
45193,109388,5
45125,109384,4
45135,109425,5
45153,109451,5
45181,109469,5
45170,109493,5
45182,109509,4
45192,109530,5
45215,109513,6
45232,109593,4
45244,109635,5
45274,109679,4
45294,109644,5
45317,109779,5
45344,109809,5
45369,109856,5
45392,109796,4
45419,109959,5
45451,110020,5
45477,110075,5
45496,110151,5
45529,110172,4
45568,110236,5
45599,110318,5
45627,110483,5
45651,110394,5
45657,110419,4
45677,110443,5
45692,110576,5
45698,110505,5
45736,110562,4
45775,110624,5
45812,110748,5
45869,110815,6
45908,110908,4
45971,111029,4
46028,111128,5
46089,111244,5
46147,111336,5
46192,111410,5
46239,111495,4
46285,111600,5
46345,111715,5
46403,111818,5
46462,111946,5
46528,112038,4
46575,112134,5
46621,112237,5
46685,112338,5
46736,112456,5
46783,112546,4
46839,112630,5
46876,112715,5
46934,112818,5
46992,112922,5
47039,113019,4
47118,113139,5
47168,113246,5
47216,113329,5
47262,113411,4
47305,113483,4
47356,113574,5
47398,113681,5
47460,113779,5
47514,113877,4
47552,113981,5
47612,114069,5
47663,114152,5
47700,114232,5
47733,114294,4
47771,114374,5
47805,114425,5
47824,114482,5
47858,114549,5
47901,114605,4
47931,114654,5
47952,114694,5
47962,114726,5
47984,114765,5
47997,114797,5
48024,114831,4
48043,114880,5
48069,114920,5
48106,114975,5
48130,115054,4
48165,115119,5
48207,115181,5
48235,115219,5
48268,115298,4
48300,115345,4
48337,115418,5
48365,115476,5
48405,115543,5
48432,115610,4
48467,115678,5
48508,115741,5
48550,115809,5
48579,115893,5
48623,115945,4
48648,115996,5
48698,116086,5
48739,116176,5
48778,116238,5
48799,116266,4
48815,116283,6
48827,116305,4
48837,116334,5
48850,116351,5
48855,116365,4
48871,116414,5
48896,116461,5
48922,116516,5
48978,116597,5
48951,116671,4
49052,116761,5
49098,116828,5
49131,116883,5
49042,116919,4
49181,116961,4
49193,117008,5
49231,117080,5
49153,117144,5
49306,117202,4
49336,117252,5
49361,117294,5
49417,117329,5
49401,117373,5
49421,117422,4
49464,117478,5
49614,117547,6
49510,117598,4
49562,117676,5
49596,117731,4
49730,117804,5
49669,117861,5
49701,117923,5
49728,117964,5
49786,118009,4
49764,118037,5
49782,118084,5
49804,118114,5
49823,118111,5
49842,118195,4
49864,118233,5
49889,118268,5
49905,118185,5
49915,118330,4
49927,118359,5
49960,118370,5
49957,118268,5
49963,118413,5
49985,118448,5
49993,118466,4
49999,118504,5
50019,118509,5
50032,118543,5
50052,118570,4
50068,118725,5
50091,118649,5
50109,118687,5
50134,118738,5
50152,118913,4
50191,118830,5
50217,118883,5
50242,118915,5
50266,119008,5
50290,119008,4
50311,119052,5
50340,119098,5
50371,119162,5
50391,119184,5
50404,119228,4
50432,119263,4
50450,119297,5
50465,119320,5
50478,119332,6
50494,119352,3
50501,119395,5
50538,119453,5
50578,119501,5
50597,119549,4
50609,119568,5
50608,119583,5
50623,119606,5
50650,119645,5
50670,119685,4
50688,119720,5
50720,119770,5
50748,119831,5
50789,119899,5
50832,119976,4
50867,120049,5
50912,120127,5
50961,120202,5
50987,120260,5
51016,120321,4
51053,120383,6
51086,120431,4
51123,120494,5
51161,120568,5
51204,120645,6
51233,120709,3
51275,120774,5
51319,120836,5
51361,120918,4
51384,120969,5
51437,121045,5
51470,121108,5
51504,121156,5
51524,121212,4
51557,121249,5
51580,121299,5
51618,121361,5
51644,121409,5
51663,121457,4
51685,121495,5
51693,121520,5
51712,121557,5
51744,121610,5
51763,121661,4
51799,121725,5
51842,121783,6
51873,121849,4
51908,121913,5
51936,121971,4
51975,122020,5
52007,122100,5
52046,122149,5
52085,122219,5
52106,122277,4
52128,122307,5
52166,122355,5
52193,122440,5
52216,122489,4
52250,122538,5
52290,122594,5
52311,122647,5
52332,122699,5
52369,122752,4
52388,122797,5
52423,122836,5
52452,122891,5
52470,122934,5
52498,122971,4
52499,122993,5
52515,123022,5
52477,123061,6
52561,123089,4
52569,123116,4
52590,123156,5
52481,123177,5
52629,123207,5
52638,123242,5
52654,123261,4
52546,123298,5
52707,123346,5
52747,123426,5
52791,123500,4
52877,123563,4
52841,123597,5
52849,123616,5
52853,123618,5
52999,123636,4
52877,123640,5
52886,123668,5
52898,123682,5
53046,123741,5
52957,123802,5
52987,123851,4
53030,123929,5
53108,123995,5
53111,124082,6
53163,124165,3
53196,124238,5
53243,124247,5
53273,124354,5
53304,124417,5
53354,124510,4
53405,124470,5
53458,124677,5
53495,124760,5
53543,124842,5
53583,124778,4
53636,125004,5
53676,125059,5
53710,125133,5
53746,125205,4
53781,125260,4
53822,125332,5
53846,125380,5
53876,125583,5
53920,125519,4
53956,125565,6
53983,125624,4
54010,125824,5
54028,125696,5
54053,125727,4
54067,125767,5
54084,125870,5
54138,125883,5
54163,125934,5
54199,125975,4
54219,126033,5
54239,126069,5
54270,126105,5
54273,126125,5
54307,126175,4
54323,126218,5
54354,126257,5
54388,126335,5
54423,126389,5
54453,126456,4
54506,126531,5
54540,126605,5
54578,126673,5
54618,126743,4
54650,126781,4
54684,126831,6
54709,126892,4
54731,126935,5
54770,126985,4
54804,127039,5
54835,127107,5
54871,127152,5
54883,127191,5
54907,127225,4
54921,127252,5
54944,127291,5
54953,127305,5
54969,127338,5
54973,127346,4
54980,127372,5
54995,127391,5
55014,127419,5
55031,127460,5
55053,127505,4
55085,127565,5
55126,127649,5
55184,127697,5
55190,127721,5
55181,127712,4
55170,127705,5
55179,127714,6
55182,127719,4
55181,127714,4
55174,127707,4
55175,127728,5
55209,127753,5
55211,127784,5
55240,127843,4
55275,127896,5
55315,127960,5
55354,128025,5
55386,128082,5
55404,128105,4
55425,128147,5
55439,128189,5
55459,128214,5
55476,128249,5
55501,128283,4
55528,128323,5
55543,128348,5
55561,128399,5
55591,128442,5
55618,128490,4
55628,128514,5
55646,128561,5
55673,128582,6
55691,128614,4
55711,128656,4
55718,128669,5
55733,128699,5
55754,128720,5
55758,128743,4
55770,128758,4
55764,128765,5
55783,128776,5
55783,128788,5
55793,128823,4
55751,128861,5
55840,128900,5
55882,128956,5
55914,129017,5
55802,129053,4
55962,129101,5
55983,129145,5
56008,129184,5
55888,129220,5
56047,129259,5
56072,129290,4
56085,129312,5
56152,129341,5
56114,129374,5
56140,129408,4
56167,129451,5
56332,129495,5
56215,129528,5
56223,129576,5
56255,129613,4
56404,129631,5
56290,129678,5
56315,129703,5
56330,129719,4
56387,129766,4
56369,129798,5
56389,129829,5
56397,129832,5
56403,129798,4
56424,129886,5
56425,129893,6
56444,129923,4
56445,129814,5
56458,129964,4
56463,129977,7
56487,129999,3
56496,129875,5
56525,130060,5
56531,130100,5
56561,130133,4
56598,130209,5
56612,130236,5
56636,130259,5
56625,130257,4
56628,130393,5
56610,130220,5
56612,130225,5
56610,130214,5
56588,130342,4
56588,130180,5
56581,130187,5
56601,130203,5
56598,130282,4
56616,130241,4
56631,130270,5
56647,130309,5
56658,130342,5
56681,130367,4
56702,130402,5
56714,130432,6
56742,130478,4
56761,130514,5
56795,130573,4
56816,130628,5
56849,130669,5
56870,130692,5
56886,130733,5
56907,130763,4
56914,130790,5
56928,130804,5
56937,130825,5
56952,130840,5
56953,130861,4
56976,130892,5
56986,130914,5
57004,130935,5
57036,131000,5
57049,131021,4
57071,131050,5
57081,131068,5
57089,131073,5
57091,130354,4
57106,130376,4
57124,130395,5
57142,130425,5
57160,130471,5
57200,130516,4
57208,130561,5
57238,130599,5
57277,130647,5
57286,130692,5
57308,130735,4
57324,130762,5
57343,130796,5
57353,130804,5
57375,130842,5
57388,130871,4
57399,130895,5
57420,130909,5
57431,130951,5
57445,130974,5
57480,131006,4
57489,131055,5
57519,131095,5
57541,131120,5
57556,131151,5
57570,131186,4
57591,131212,5
57600,131240,5
57631,131280,5
57651,131314,4
57660,131334,4
57669,131349,5
57678,131376,5
57708,131412,5
57716,131433,4
57729,131448,5
57741,131475,5
57744,131474,5
57752,131485,5
57760,131501,4
57769,131510,5
57777,131522,5
57788,131556,5
57804,131604,5
57831,131633,4
57847,131634,6
57837,131629,4
57833,131622,5
57816,131613,5
57827,131622,6
57821,131604,3
57809,131599,5
57742,131602,5
57823,131615,5
57831,131645,4
57848,131664,5
57724,131698,5
57887,131732,5
57913,131780,4
57939,131821,4
57793,131838,5
57962,131856,5
57971,131873,5
57975,131892,4
58035,131911,5
58004,131951,5
58035,131985,5
58043,132013,5
58236,132048,4
58087,132079,5
58105,132102,6
58125,132134,4
58275,132150,5
58146,132153,4
58144,132160,7
58156,132184,3
58208,132190,5
58163,132212,5
58184,132236,4
58199,132256,5
58195,132203,5
58197,132264,5
58199,132257,5
58195,132266,4
58206,132135,5
58202,132274,5
58215,132279,5
58222,132299,4
58234,132170,4
58249,132353,5
58272,132382,5
58286,132415,5
58306,132457,4
58337,132493,5
58359,132532,5
58388,132590,6
58406,132761,4
58435,132647,4
58452,132689,5
58472,132729,5
58489,132941,5
58510,132785,5
58530,132832,4
58551,132864,5
58573,132964,5
58595,132937,5
58618,132974,5
58643,132999,4
58660,133038,5
58668,133060,5
58692,133079,5
58708,133125,5
58733,133183,4
58765,133242,5
58798,133279,5
58811,133304,5
58831,133334,5
58837,133361,4
58867,133393,5
58868,133405,5
58886,133436,6
58894,133449,3
58910,133472,5
58921,133501,5
58940,133533,5
58963,133576,5
58989,133629,4
59032,133694,5
59070,133765,5
59116,133824,5
59138,133847,5
59136,133844,4
59135,133840,5
59109,133812,5
59122,133821,5
59117,133814,5
59118,133815,4
59116,133816,5
59121,133828,5
59126,133848,5
59140,133859,5
59148,133893,5
59170,133934,4
59200,133973,5
59215,134008,5
59229,134031,6
59244,134040,3
59245,134054,5
59256,134062,5
59255,134080,5
59271,134103,4
59288,134118,5
59301,134140,5
59307,134159,5
59318,134177,5
59337,134199,4
59339,134211,5
59340,134218,5
59344,134227,5
59355,134234,5
59352,134250,4
59366,134254,5
59362,134263,5
59368,134270,5
59370,134286,5
59374,134293,4
59382,134292,6
59375,134287,4
59373,134292,5
59371,134276,5
59375,134282,4
59369,134275,5
59380,134298,5
59374,134307,5
59392,134326,7
59402,134325,3
59413,134338,4
59432,134346,5
59410,134356,5
59430,134366,4
59435,134387,5
59434,134382,5
59447,134400,5
59446,134415,5
59465,134422,4
59395,134436,5
59473,134451,5
59475,134457,5
59483,134475,5
59345,134486,4
59502,134495,5
59509,134524,6
59528,134548,4
59375,134572,5
59551,134584,4
59569,134603,5
59573,134631,5
59614,134646,5
59592,134669,5
59611,134688,4
59626,134719,5
59804,134758,5
59658,134773,5
59661,134786,4
59680,134804,4
59842,134816,5
59689,134820,5
59697,134835,5
59703,134850,4
59757,134841,5
59709,134858,5
59706,134855,5
59721,134881,5
59733,134861,4
59736,134913,5
59753,134937,5
59778,134998,6
59807,134902,4
59821,135060,4
59824,135049,5
59813,135041,5
59814,134866,5
59815,135046,5
59815,135038,5
59811,135046,4
59814,135045,5
59824,135077,5
59843,135091,5
59847,135111,4
59870,135294,5
59881,135176,5
59911,135217,5
59934,135258,4
59940,135477,4
59967,135306,5
59973,135325,5
59980,135352,5
60005,135461,5
60030,135407,4
60041,135438,5
60056,135471,5
60076,135511,5
60088,135521,4
60112,135535,5
60126,135570,5
60138,135592,5
60148,135618,5
60165,135643,4
60164,135664,5
60183,135689,5
60206,135708,5
60209,135729,5
60230,135758,4
60239,135764,5
60235,135768,5
60238,135766,5
60243,135774,5
60240,135785,4
60249,135787,5
60255,135816,5
60268,135836,5
60285,135868,4
60305,135890,5
60329,135916,4
60340,135949,5
60353,135979,5
60360,135987,4
60373,136008,5
60370,136022,5
60383,136017,5
60397,136043,5
60404,136057,4
60419,136073,5
60439,136127,5
60462,136168,5
60486,136206,5
60521,136254,4
60556,136302,5
60573,136347,5
60598,136381,5
60616,136420,5
60635,136438,4
60640,136455,5
60666,136489,5
60668,136515,5
60676,136529,5
60688,136530,4
60692,136556,6
60705,136571,4
60716,136592,5
60744,136626,4
60760,136663,4
60781,136697,5
60800,136722,5
60808,136760,5
60829,136786,4
60854,136810,5
60865,136834,5
60873,136851,5
60883,136860,5
60880,136871,4
60893,136890,5
60906,136889,5
60903,136908,5
60921,136936,5
60935,136956,4
60957,137001,5
60984,137036,5
60989,137027,5
60976,137021,5
60959,137001,4
60956,136988,5
60956,137001,6
60949,136992,4
60945,136975,5
60945,136985,4
60948,137002,5
60956,137007,5
60908,137037,5
60989,137068,4
61023,137105,4
61039,137162,5
60912,137204,5
61083,137244,5
61110,137273,4
61133,137306,5
60984,137349,5
61174,137388,5
61202,137429,5
61235,137493,4
61297,137521,5
61289,137561,5
61299,137596,5
61316,137633,5
61509,137664,4
61350,137688,5
61366,137714,5
61372,137715,5
61542,137726,5
61379,137744,4
61393,137741,5
61396,137750,5
61465,137782,5
61423,137798,5
61427,137799,4
61429,137808,5
61423,137763,5
61433,137823,5
61447,137833,4
61448,137836,4
61457,137717,5
61469,137870,5
61478,137887,5
61482,137905,4
61498,137737,5
61505,137934,5
61517,137963,5
61537,137991,5
61555,138006,5
61568,138061,4
61588,138090,5
61599,138100,5
61607,138272,5
61619,138132,4
61641,138156,5
61628,138151,5
61645,138356,5
61652,138167,5
61655,138189,4
61661,138202,5
61667,138289,5
61677,138213,5
61675,138232,5
61697,138235,4
61705,138276,5
61710,138282,5
61720,138297,5
61742,138331,4
61757,138365,4
61788,138406,6
61804,138437,4
61833,138475,5
61855,138500,4
61858,138525,7
61873,138542,3
61880,138553,5
61878,138552,5
61894,138561,4
61890,138575,5
61891,138587,5
61904,138586,5
61896,138608,5
61900,138598,4
61910,138610,5
61926,138650,5
61950,138670,5
61966,138689,5
61965,138697,4
61952,138697,5
61957,138690,5
61961,138695,5
61978,138722,5
61982,138726,4
61977,138730,5
61993,138751,6
62009,138781,4
62012,138793,4
62035,138823,4
62060,138866,5
62076,138911,5
62110,138949,5
62127,138985,4
62144,139011,5
62159,139041,5
62173,139063,5
62184,139088,5
62214,139130,4
62224,139160,5
62252,139201,5
62266,139239,5
62280,139262,5
62311,139299,4
62325,139332,5
62339,139338,5
62344,139353,5
62351,139368,5
62364,139379,4
62376,139403,5
62392,139426,5
62398,139448,6
62413,139472,4
62441,139521,4
62452,139549,5
62467,139566,5
62483,139588,5
62498,139596,4
62514,139644,4
62516,139654,5
62531,139671,5
62545,139698,5
62571,139749,4
62586,139773,5
62612,139806,5
62628,139847,5
62665,139895,5
62688,139947,4
62720,139993,5
62744,140037,5
62780,140076,5
62802,140123,5
62828,140168,5
62782,140199,4
62862,140226,5
62892,140262,5
62898,140296,6
62773,140340,3
62935,140360,5
62962,140394,5
62976,140428,5
62820,140467,5
63026,140497,4
63039,140521,5
63057,140551,5
63078,140592,5
63079,140609,4
63091,140620,4
63101,140647,5
63287,140671,5
63132,140713,5
63158,140747,4
63181,140787,5
63388,140835,5
63234,140887,5
63268,140914,5
63269,140936,4
63352,140959,6
63288,140970,4
63294,140988,5
63306,140996,5
63317,140966,6
63322,141020,3
63330,141043,5
63346,141062,5
63354,140939,5
63361,141095,4
63372,141126,5
63405,141167,5
63427,141048,5
63455,141259,5
63459,141268,5
63453,141241,4
63446,141192,5
63424,141210,5
63429,141220,4
63420,141212,4
63429,141359,5
63439,141224,5
63440,141241,5
63459,141275,4
63470,141496,5
63489,141323,6
63510,141359,4
63532,141413,5
63556,141548,4
63580,141488,5
63601,141523,5
63614,141539,5
63625,141572,5
63647,141589,4
63670,141630,5
63689,141663,5
63697,141686,5
63714,141713,5
63724,141722,4
63724,141733,5
63741,141727,5
63732,141762,5
63744,141754,5
63748,141764,4
63746,141755,5
63757,141775,5
63764,141778,5
63762,141781,4
63768,141793,4
63790,141812,5
63779,141811,6
63783,141831,4
63783,141831,4
63789,141831,5
63797,141833,5
63795,141837,5
63787,141845,5
63800,141851,4
63801,141863,5
63807,141861,5
63825,141880,5
63830,141898,5
63830,141913,4
63835,141926,5
63851,141931,5
63862,141953,5
63868,141973,5
63875,141990,4
63886,142005,5
63897,142022,5
63904,142042,5
63914,142052,5
63928,142065,4
63929,142077,5
63938,142090,5
63941,142098,6
63949,142116,3
63958,142123,4
63956,142143,5
63960,142143,5
63978,142155,5
63986,142176,4
63992,142206,5
64006,142214,5
64019,142225,5
64041,142256,5
64044,142279,4
64055,142300,5
64078,142323,5
64086,142341,5
64084,142343,5
64090,142344,4
64094,142361,5
64102,142373,5
64105,142383,5
64110,142386,5
64122,142397,5
64129,142416,4
64125,142428,5
64141,142434,5
64143,142445,5
64160,142467,4
64182,142512,5
64209,142547,5
64228,142571,5
64221,142554,4
64212,142539,4
64198,142504,5
64188,142509,5
64137,142518,5
64180,142496,4
64178,142491,5
64177,142488,5
64024,142492,5
64178,142503,5
64192,142507,4
64190,142520,10
64021,142565,5
64230,142585,5
64247,142602,4
64256,142625,6
64258,142652,4
64269,142653,5
64286,142675,5
64299,142707,4
64466,142721,5
64329,142735,5
64330,142751,5
64333,142752,5
64549,142777,4
64348,142782,5
64359,142794,5
64356,142816,5
64446,142820,4
64365,142816,4
64367,142816,5
64363,142814,5
64371,142784,5
64354,142802,4
64376,142819,5
64360,142805,5
64350,142673,5
64359,142803,5
64356,142799,4
64356,142787,5
64341,142599,6
64344,142789,4
64358,142796,5
64353,142795,4
64358,142739,5
64355,142823,5
64360,142817,5
64367,142810,5
64369,142960,4
64383,142834,5
64383,142845,5
64377,142862,5
64385,143073,5
64393,142858,4
64400,142887,5
64410,142899,5
64417,143022,5
64423,142931,4
64423,142928,4
64429,142936,5
64438,142965,5
64441,142952,6
64458,142961,3
64442,142964,5
64453,142959,5
64451,142975,5
64449,142956,5
64454,142968,4
64458,142974,5
64457,142964,5
64453,142981,5
64464,142966,5
64467,142990,4
64470,143002,5
64473,143008,5
64468,143001,5
64466,142995,5
64475,143008,4
64473,142997,5
64464,142995,5
64468,143002,5
64472,142998,5
64466,143003,4
64466,143007,5
64473,143020,5
64480,143015,5
64477,143030,5
64495,143051,4
64523,143088,5
64543,143111,5
64536,143095,5
64515,143085,4
64513,143056,5
64493,143022,5
64489,143041,5
64492,143021,5
64465,143011,4
64464,142998,5
64468,143010,5
64468,143009,5
64471,143007,5
64480,143020,4
64494,143037,5
64507,143057,5
64515,143069,5
64513,143080,5
64523,143087,4
64517,143079,5
64518,143099,5
64536,143111,5
64541,143127,5
64552,143138,5
64566,143155,4
64578,143199,5
64577,143205,5
64594,143203,4
64596,143222,4
64602,143224,5
64608,143227,5
64602,143220,5
64610,143228,4
64615,143239,5
64612,143240,5
64614,143255,5
64623,143258,5
64633,143282,4
64629,143264,5
64633,143273,5
64630,143269,5
64632,143264,5
64624,143265,4
64621,143261,5
64615,143257,6
64614,143253,4
64611,143256,5
64615,143259,4
64612,143257,7
64564,143248,3
64619,143244,5
64607,143245,5
64619,143247,4
64468,143252,5
64622,143255,5
64624,143263,5
64620,143263,5
64433,143267,4
64637,143290,5
64642,143294,5
64638,143291,5
64635,143310,4
64649,143306,5
64650,143301,5
64646,143302,5
64797,143297,5
64642,143307,4
64647,143296,5
64653,143290,5
64844,143303,6
64641,143304,4
64647,143303,4
64653,143311,5
64733,143317,5
64660,143326,5
64664,143322,5
64663,143342,4
64680,143317,5
64667,143349,5
64667,143340,5
64673,143353,5
64671,143218,4
64684,143356,5
64668,143344,5
64665,143345,5
64666,143153,5
64657,143339,4
64673,143341,4
64676,143347,5
64673,143294,5
64688,143378,5
64704,143398,4
64709,143401,5
64702,143524,5
64689,143368,6
64669,143343,3
64667,143339,5
64672,143569,5
64667,143325,5
64658,143319,5
64666,143323,4
64662,143449,5
64669,143341,5
64661,143347,5
64673,143351,5
64680,143382,4
64678,143371,5
64684,143371,5
64689,143369,5
64680,143370,5
64688,143378,4
64681,143380,5
64688,143383,5
64703,143410,5
64708,143410,5
64713,143415,5
64711,143416,4
64715,143427,5
64720,143426,5
64716,143436,6
64728,143433,3
64719,143446,5
64734,143447,5
64731,143450,5
64741,143446,4
64732,143467,5
64740,143466,5
64745,143472,5
64749,143476,5
64749,143477,4
64755,143487,5
64757,143489,5
64759,143491,5
64767,143489,5
64752,143496,4
64753,143487,5
64747,143484,5
64747,143476,5
64745,143484,5
64742,143485,4
64748,143472,6
64748,143474,4
64733,143478,5
64739,143473,5
64745,143474,4
64745,143479,5
64749,143490,5
64760,143487,5
64757,143505,4
64766,143512,5
64767,143517,5
64783,143546,5
64786,143540,5
64782,143548,4
64803,143552,5
64797,143557,5
64797,143565,5
64799,143568,5
64803,143578,4
64805,143575,5
64817,143580,5
64824,143588,5
64829,143616,5
64829,143611,4
64831,143623,5
64838,143638,6
64843,143656,4
64847,143652,5
64859,143667,4
64863,143660,5
64857,143669,5
64854,143661,5
64846,143652,5
64851,143648,4
64843,143642,5
64837,143630,5
64839,143625,5
64826,143612,4
64827,143606,5
64822,143606,5
64821,143608,5
64819,143604,5
64769,143621,4
64837,143643,5
64848,143644,5
64844,143648,5
64685,143624,5
64827,143605,4
64811,143581,5
64804,143588,5
64622,143584,6
64801,143566,4
64797,143572,4
64813,143584,5
64813,143581,5
64796,143579,5
64806,143590,5
64812,143599,4
65007,143631,5
64841,143641,5
64853,143662,5
64861,143661,5
65052,143659,4
64861,143666,5
64858,143674,5
64868,143690,5
64938,143698,4
64879,143700,4
64874,143702,5
64880,143705,5
64884,143673,5
64883,143702,5
64878,143702,4
64885,143701,5
64869,143552,5
64881,143696,5
64870,143686,4
64873,143695,5
64878,143504,5
64879,143698,5
64881,143709,5
64893,143730,4
64891,143667,5
64892,143721,5
64888,143719,5
64883,143715,5
64896,143873,4
64880,143731,5
64891,143740,5
64899,143756,5
64904,143969,5
64919,143761,4
64915,143767,5
64925,143775,5
64918,143878,5
64922,143772,4
64917,143773,5
64918,143771,4
64917,143792,5
64918,143768,5
64916,143763,4
64908,143767,5
64907,143767,5
64901,143760,5
64908,143754,5
64897,143744,4
64900,143744,5
64893,143735,5
64878,143721,5
64885,143730,5
64872,143711,4
64871,143710,5
64878,143726,5
64888,143726,5
64889,143730,5
64889,143735,4
64889,143732,5
64881,143732,5
64890,143739,5
64890,143742,5
64895,143748,4
64904,143748,6
64905,143772,4
64906,143776,5
64914,143778,4
64922,143790,4
64930,143808,5
64944,143821,5
64945,143834,5
64950,143835,4
64948,143845,5
64961,143850,5
64961,143861,5
64970,143853,5
64969,143870,4
64972,143857,5
64978,143887,5
64968,143871,5
64981,143902,5
65001,143916,4
65011,143942,5
65035,143972,5
65048,144003,5
65052,144009,5
65056,143998,4
65034,143982,5
65020,143950,6
65017,143957,4
65027,143972,5
65019,143948,4
65013,143945,5
65022,143963,5
65023,143967,5
65022,143960,4
65019,143961,4
65028,143971,5
65030,143989,5
65041,143995,5
65043,143996,4
65038,143994,5
65038,143983,5
65037,143992,5
65044,143992,5
65047,143998,4
65054,144019,5
65059,144016,5
65063,144035,5
65072,144049,5
65080,144051,4
65082,144074,5
65097,144088,5
65099,144084,5
65101,144090,5
65097,144085,4
65097,144100,5
65049,144099,5
65105,144105,5
65112,144117,5
65118,144139,4
64978,144153,5
65145,144165,5
65138,144155,5
65145,144172,4
64945,144162,4
65136,144175,5
65138,144157,5
65138,144167,5
65145,144181,4
65163,144195,6
65159,144205,4
65177,144234,5
65359,144263,5
65204,144290,5
65229,144313,4
65240,144337,5
65455,144344,5
65257,144361,5
65265,144385,4
65279,144397,5
65360,144412,5
65293,144439,7
65313,144439,3
65316,144449,4
65331,144446,5
65328,144466,5
65329,144466,5
65329,144469,5
65328,144329,4
65333,144481,5
65336,144487,5
65330,144502,5
65344,144309,4
65336,144499,4
65340,144512,5
65343,144524,5
65350,144469,5
65368,144550,4
65387,144585,6
65392,144601,4
65419,144755,5
65430,144646,5
65446,144658,4
65441,144676,5
65451,144904,5
65471,144706,5
65469,144719,5
65485,144736,4
65495,144883,5
65522,144791,5
65526,144805,5
65537,144830,5
64793,144890,4
64805,144919,5
64819,144942,5
64821,144955,5
64831,144946,5
64838,144960,4
64843,144964,5
64839,144966,6
64840,144967,4
64847,144972,4
64844,144976,4
64848,144967,5
64850,144978,5
64841,144978,5
64847,144992,4
64847,144998,5
64865,145012,5
64864,145029,5
64871,145040,5
64883,145038,4
64882,145048,5
64881,145017,5
64860,144993,5
64849,144979,5
64846,144985,4
64847,144975,5
64839,144966,5
64833,144967,5
64837,144965,5
64837,144959,4
64840,144981,5
64857,144998,5
64875,145023,6
64880,145055,4
64898,145067,4
64893,145063,5
64891,145062,5
64896,145081,5
64899,145088,4
64920,145103,4
64926,145118,5
64928,145121,5
64929,145130,5
64933,145142,4
64948,145141,5
64944,145154,5
64946,145162,5
64955,145163,5
64947,145162,4
64950,145154,5
64939,145153,5
64931,145140,5
64932,145141,5
64932,145119,5
64931,145130,4
64936,145123,5
64931,145129,5
64936,145151,6
64929,145136,3
64934,145133,5
64931,145133,5
64924,145131,5
64934,145123,5
64921,145125,4
64928,145122,5
64930,145131,5
64939,145142,5
64948,145146,4
64940,145142,4
64946,145146,5
64943,145142,5
64939,145147,5
64951,145157,4
64930,145141,5
64942,145149,5
64945,145149,5
64938,145138,5
64904,145144,4
64944,145155,6
64940,145158,4
64945,145148,5
64799,145144,5
64936,145157,6
64950,145151,3
64951,145161,5
64752,145162,5
64948,145160,5
64946,145164,4
64948,145166,5
64914,145155,5
64946,145163,5
64947,145161,5
64959,145165,4
65104,145172,5
64954,145165,5
64947,145173,5
64965,145165,4
65171,145175,4
64959,145181,5
64967,145179,5
64962,145180,5
65048,145190,4
64966,145197,5
64980,145206,6
64976,145204,4
64996,145200,5
64982,145217,4
64982,145199,5
64987,145205,5
64985,145070,5
64979,145209,5
64976,145215,4
64982,145204,5
64988,145023,5
64981,145206,5
64981,145212,5
64978,145216,4
64981,145127,5
64995,145234,5
65012,145255,5
65014,145259,5
65014,145374,4
64999,145228,5
64982,145201,5
64961,145186,5
64974,145412,4
64974,145199,4
64952,145174,5
64947,145172,6
64957,145302,4
64953,145157,4
64948,145156,5
64944,145171,5
64955,145211,5
64967,145184,5
64972,145204,4
64972,145195,5
64976,145185,5
64965,145195,5
64968,145192,5
64975,145196,4
64975,145201,5
64983,145211,5
64980,145223,5
64998,145223,5
64990,145229,4
65001,145234,5
65009,145236,5
64993,145233,5
64998,145231,5
64997,145229,4
64985,145215,5
64973,145215,5
64976,145207,6
64973,145206,3
64975,145207,4
64980,145197,5
64987,145221,5
64984,145209,5
64977,145210,4
64984,145205,5
64975,145200,5
64962,145189,5
64964,145184,5
64971,145191,4
64961,145191,5
64966,145200,5
64971,145192,5
64976,145206,5
64976,145218,4
64985,145213,5
64982,145213,5
64973,145216,5
64985,145205,5
64981,145216,5
64981,145220,4
64983,145228,5
64989,145230,5
64998,145242,5
65001,145229,4
65000,145246,5
65005,145244,5
65005,145250,5
65002,145239,4
64994,145244,4
64993,145228,5
65000,145239,5
64992,145228,5
64991,145237,4
64998,145225,5
64990,145234,5
64996,145231,5
64998,145247,5
65010,145257,4
65014,145248,5
65001,145264,5
65012,145262,5
65007,145266,5
65015,145282,4
65018,145277,6
65022,145291,4
65032,145291,5
65023,145308,5
65034,145288,4
65037,145302,5
65027,145316,5
65032,145307,5
65048,145314,5
65052,145310,4
65054,145309,5
65004,145312,5
65040,145308,5
65037,145312,4
65045,145321,4
64912,145341,5
65063,145349,5
65053,145335,5
65055,145320,4
64843,145301,5
65029,145277,5
65015,145276,5
65030,145296,5
64974,145270,4
65010,145272,5
65017,145278,6
65015,145263,4
65157,145260,5
65016,145269,4
65024,145279,5
65031,145301,5
65249,145305,5
65043,145312,5
65038,145310,4
65038,145310,5
65138,145318,5
65050,145318,5
65063,145345,5
65077,145365,4
65100,145355,5
65084,145372,5
65083,145377,5
65103,145401,4
65098,145294,4
65107,145415,5
65120,145415,5
65105,145422,5
65112,145231,4
65111,145425,5
65110,145437,5
65121,145434,6
65119,145316,4
65119,145431,5
65125,145454,4
65132,145454,5
65125,145540,5
65129,145453,5
65126,145453,4
65129,145451,5
65118,145664,5
65120,145455,5
65123,145449,5
65132,145458,4
65139,145626,5
65149,145498,5
65164,145517,5
65178,145540,5
65185,145583,4
65188,145571,5
65211,145596,5
65221,145601,5
65229,145621,5
65235,145621,4
65242,145638,5
65241,145641,5
65239,145636,5
65235,145647,4
65243,145645,5
65248,145636,5
65244,145640,5
65237,145641,5
65233,145641,4
65235,145619,5
65222,145611,5
65222,145625,5
65232,145619,5
65232,145615,4
65235,145632,5
65251,145635,5
65253,145657,5
65259,145677,5
65275,145701,4
65290,145719,5
65304,145748,5
65315,145759,5
65333,145775,5
65330,145789,5
65336,145800,4
65341,145796,5
65345,145817,5
65356,145828,4
65360,145832,4
65369,145839,5
65378,145846,5
65382,145876,5
65384,145872,4
65396,145891,5
65407,145917,5
65425,145943,5
65439,145968,5
65434,145949,4
65426,145922,5
65402,145886,5
65387,145883,5
65403,145891,5
65407,145898,4
65398,145878,5
65384,145889,5
65391,145897,5
65391,145897,5
65402,145904,4
65410,145918,6
65428,145945,4
65443,145959,5
65445,145982,5
65461,146022,4
65468,146023,5
65485,146039,5
65502,146065,5
65519,146104,4
65539,146137,4
65575,146175,5
65583,146204,5
65600,146237,5
65626,146273,4
65630,146312,5
65656,146315,5
65663,146315,5
65665,146336,5
65670,146347,4
65675,146343,5
65670,146352,5
65677,146360,6
65675,146364,4
65674,146355,4
65675,146362,5
65688,146375,5
65691,146360,5
65549,146368,5
65682,146367,4
65680,146369,5
65683,146357,5
65497,146372,5
65701,146383,5
65706,146409,4
65724,146439,5
65647,146476,5
65767,146508,5
65785,146544,4
65809,146570,4
65942,146587,5
65840,146621,5
65845,146631,5
65854,146647,5
66084,146661,4
65870,146673,5
65872,146693,5
65867,146690,6
65997,146685,3
65869,146689,5
65874,146682,5
65877,146681,5
65898,146674,5
65870,146681,4
65866,146670,5
65864,146677,5
65867,146582,5
65873,146677,5
65874,146686,4
65873,146691,5
65879,146524,5
65889,146705,5
65895,146726,5
65907,146743,4
65909,146561,5
65923,146752,5
65922,146773,5
65962,146817,9
65962,146817,5
65953,147028,5
65956,146829,5
65969,146844,6
65969,146845,3
65990,147052,5
65992,146899,5
66018,146921,5
66023,146932,4
66023,146963,5
65999,146885,5
65980,146868,5
65972,146837,5
65971,146849,4
65975,146833,5
65949,146800,5
65934,146795,5
65946,146799,5
65938,146801,4
65939,146816,5
65959,146813,5
65971,146840,5
65971,146839,5
65981,146851,4
65975,146856,6
65977,146848,4
65976,146856,5
65978,146848,4
65980,146857,4
65984,146861,5
65979,146857,5
65987,146870,5
65983,146873,4
65990,146880,5
65991,146881,5
65996,146888,5
66003,146906,5
66002,146901,4
65999,146909,5
66001,146893,5
65999,146894,5
66001,146904,5
66003,146892,4
66001,146895,5
66002,146885,5
66013,146912,5
66007,146912,5
66017,146917,4
66018,146918,5
66015,146916,6
66007,146914,4
66007,146910,5
66004,146905,4
65998,146904,5
66010,146907,5
66011,146908,5
66010,146910,4
66004,146905,4
66018,146911,5
66024,146939,5
66023,146950,5
66031,146970,4
66051,146973,5
66047,146987,5
66063,146993,5
66067,147001,5
66069,147005,4
66081,147029,5
66078,147033,5
66090,147041,5
66092,147035,5
66097,147059,4
66100,147060,5
66102,147058,5
66105,147060,6
66097,147057,4
66096,147057,4
66095,147052,5
66093,147050,5
66098,147048,5
66088,147055,5
66101,147055,4
66100,147054,5
66111,147062,5
66105,147081,5
66118,147090,5
66119,147090,4
66119,147090,5
66131,147103,5
66122,147107,5
66037,147099,4
66120,147100,5
66130,147107,5
66136,147113,5
65959,147133,5
66142,147122,5
66138,147120,4
66139,147133,5
65968,147154,5
66164,147183,6
66181,147190,3
66174,147176,5
66213,147154,5
66158,147142,5
66130,147102,5
66133,147109,4
66334,147101,5
66109,147082,5
66106,147089,5
66120,147088,5
66292,147081,4
66117,147090,5
66127,147107,5
66133,147128,5
66200,147137,5
66162,147158,4
66158,147156,5
66168,147169,5
66178,147117,5
66180,147196,4
66195,147215,6
66210,147228,4
66207,147068,5
66206,147235,5
66214,147246,4
66209,147247,5
66209,147047,5
66210,147243,5
66214,147251,5
66212,147243,5
66215,147250,4
66216,147244,5
66215,147238,5
66217,147239,5
66216,147429,4
66221,147247,5
66218,147243,5
66214,147252,5
66217,147482,5
66221,146576,4
66225,146586,5
66220,146582,5
66215,146660,5
66218,146569,5
66218,146558,4
66212,146575,6
66222,146587,4
66231,146582,5
66234,146593,4
66228,146601,5
66244,146608,5
66244,146612,5
66245,146626,5
66268,146645,4
66268,146663,5
66278,146672,5
66290,146683,5
66292,146687,5
66300,146694,4
66305,146709,5
66308,146706,5
66298,146715,5
66299,146712,5
66310,146707,4
66292,146697,5
66289,146683,5
66286,146675,5
66278,146667,5
66272,146646,4
66262,146646,5
66258,146634,6
66266,146633,4
66247,146629,5
66258,146645,4
66273,146636,5
66258,146638,5
66262,146639,5
66256,146622,4
66247,146629,5
66254,146607,5
66244,146609,5
66228,146578,5
66219,146576,4
66217,146562,5
66204,146543,5
66190,146531,5
66193,146524,5
66194,146517,4
66189,146505,5
66177,146504,5
66171,146487,5
66155,146449,5
66123,146413,4
66088,146349,5
66045,146298,5
66022,146223,5
65997,146207,5
65974,146165,4
65945,146115,5
65909,146070,5
65899,146047,5
65892,146020,5
65878,146002,4
65878,145999,5
65874,146002,5
65872,146006,5
65883,146005,4
65870,145989,5
65857,145989,5
65856,145980,5
65869,145982,5
65863,145992,4
65859,145980,5
65856,145980,5
65863,145985,5
65857,145977,5
65844,145970,5
65837,145955,4
65837,145934,5
65823,145932,5
65818,145909,5
65814,145893,4
65789,145871,5
65694,145836,5
65749,145798,5
65723,145768,5
65719,145749,4
65511,145699,5
65664,145672,5
65634,145607,5
65594,145551,4
65373,145503,4
65544,145458,5
65507,145407,5
65477,145354,5
65489,145319,4
65438,145292,5
65422,145268,5
65414,145259,5
65598,145250,5
65391,145224,4
65382,145207,6
65375,145198,4
65551,145197,5
65377,145198,5
65372,145195,4
65377,145203,5
65437,145201,5
65382,145217,5
65381,145220,5
65382,145231,4
65389,145167,5
65391,145240,5
65404,145243,5
65412,145267,5
65419,145108,4
65429,145272,5
65422,145281,5
65428,145270,5
65420,145072,4
65420,145270,4
65422,145272,5
65421,145279,6
65419,145256,4
65417,145254,4
65420,145270,5
65409,145262,5
65414,145428,5
65402,145263,5
65415,145270,4
65409,145278,5
65422,145503,5
65420,145273,5
65418,145274,5
65425,145283,4
65427,145364,5
65430,145285,5
65435,145309,5
65449,145315,5
65449,145345,4
65454,145330,5
65453,145332,5
65462,145330,5
65458,145335,5
65454,145330,4
65457,145324,5
65445,145328,5
65455,145326,6
65449,145329,3
65456,145336,4
65453,145334,5
65459,145330,5
65460,145334,5
65464,145349,4
65465,145352,5
65476,145368,5
65479,145370,5
65482,145382,5
65481,145367,4
65461,145343,5
65452,145308,5
65452,145321,5
65456,145318,5
65441,145307,4
65446,145311,5
65438,145301,5
65433,145287,5
65433,145301,5
65428,145302,5
65442,145315,4
65455,145322,5
65451,145319,5
65454,145325,6
65454,145323,3
65450,145320,5
65452,145321,5
65453,145333,5
65464,145335,4
65458,145337,4
65463,145320,5
65464,145338,5
65462,145354,5
65470,145346,4
65474,145364,5
65478,145356,5
65469,145356,5
65472,145344,5
65475,145344,4
65470,145338,5
65472,145342,5
65473,145338,5
65468,145346,5
65479,145353,4
65475,145358,6
65479,145361,4
65463,145340,5
65461,145347,5
65468,145359,6
65464,145351,3
65460,145349,5
65473,145350,5
65462,145351,5
65474,145352,4
65475,145361,5
65487,145373,5
65491,145380,5
65496,145388,4
65491,145399,4
65508,145419,5
65508,145426,5
65519,145436,5
65526,145447,4
65535,145453,5
65549,145462,5
65532,145458,5
65543,145468,5
65449,145472,4
65537,145469,5
65537,145479,6
65549,145471,4
65368,145473,5
65538,145465,4
65540,145456,5
65541,145458,5
65343,145461,5
65532,145461,5
65533,145463,4
65528,145464,5
65603,145467,5
65546,145460,5
65540,145464,5
65537,145457,4
65725,145458,5
65536,145457,5
65533,145448,5
65532,145460,4
65706,145462,4
65538,145455,5
65531,145457,5
65537,145462,5
65588,145467,4
65540,145464,5
65541,145471,5
65551,145482,6
65547,145404,4
65545,145477,4
65556,145490,5
65567,145505,5
65573,145340,5
65564,145509,5
65567,145506,4
65552,145500,5
65552,145283,5
65546,145479,5
65535,145451,5
65530,145446,5
65527,145459,4
65505,145427,5
65505,145407,5
65493,145393,5
65489,145580,4
65487,145390,5
65492,145392,5
65492,145384,5
65491,145596,5
65487,145400,4
65482,145374,5
65480,145363,5
65469,145398,6
65435,145285,3
65402,145246,5
65395,145241,5
65392,145250,5
65393,145231,5
65395,145229,4
65388,145220,5
65389,145227,7
65384,145220,3
65392,145239,5
65399,145246,4
65403,145262,5
65415,145270,5
65418,145268,5
65409,145264,5
65409,145268,4
65423,145271,5
65424,145284,5
65418,145287,5
65424,145284,5
65444,145299,5
65432,145304,4
65441,145299,5
65440,145300,5
65437,145309,4
65437,145298,4
65439,145290,5
65432,145294,5
65424,145280,5
65413,145272,4
65413,145258,5
65403,145244,5
65391,145233,5
65399,145242,5
65399,145241,4
65400,145249,5
65395,145231,5
65391,145227,5
65390,145231,5
65394,145239,4
65384,145222,5
65386,145214,5
65377,145212,5
65369,145215,5
65383,145209,4
65381,145227,6
65382,145220,4
65398,145215,5
65388,145229,5
65382,145225,4
65388,145230,5
65398,145239,5
65389,145238,5
65394,145233,4
65397,145248,4
65394,145251,5
65409,145246,5
65402,145255,5
65409,145248,4
65400,145255,5
65408,145263,5
65415,145258,5
65418,145265,5
65412,145271,4
65413,145270,5
65418,145272,5
65413,145269,5
65410,145262,5
65416,145268,4
65419,145266,5
65414,145276,6
65425,145273,4
65424,145284,5
65421,145271,4
65425,145282,5
65419,145285,5
65420,145278,5
65430,145280,5
65432,145299,4
65428,145298,5
65328,145295,5
65423,145277,5
65423,145267,4
65425,145282,4
65253,145275,5
65417,145275,5
65425,145270,5
65415,145284,4
65232,145273,4
65419,145282,5
65424,145278,5
65421,145293,5
65504,145305,4
65441,145303,5
65446,145321,5
65450,145324,6
65650,145349,4
65464,145370,4
65486,145390,5
65490,145394,5
65668,145417,5
65511,145438,5
65526,145451,4
65530,145463,5
65596,145490,5
65563,145517,5
65570,145529,5
65578,145551,4
65597,145491,5
65593,145575,5
65602,145583,5
65622,145603,4
65635,145444,4
65634,145637,5
65645,145656,5
65659,145660,5
65675,145478,5
65673,145677,4
65677,145695,5
65684,145722,5
65714,145777,5
65743,145771,4
65728,145777,5
65728,145771,5
65717,145953,5
65702,145726,5
65690,145720,4
65710,145733,5
65705,145933,5
65691,145723,5
65694,145743,5
65714,145763,4
65726,145848,5
65744,145804,5
65757,145823,5
65773,145868,5
65799,145922,4
65835,145941,5
65855,145979,5
65868,146024,5
65895,146058,4
65931,146124,5
65959,146177,4
65985,146213,5
66008,146249,5
66032,146281,4
66036,146289,5
66038,146297,5
66045,146305,5
66040,146307,5
66032,146295,4
66034,146288,5
66026,146278,5
66023,146262,5
66026,146256,5
66010,146254,4
66018,146266,5
66018,146277,5
66029,146268,5
66030,146266,5
66043,146297,4
66028,146272,5
66031,146293,5
66026,146272,5
66016,146274,5
66018,146269,4
66017,146267,6
66018,146259,4
66020,146273,5
66022,146273,4
66026,146269,4
66025,146278,5
66023,146265,5
66026,146273,5
66018,146273,4
66021,146280,5
66025,146278,5
66034,146276,5
66023,146282,5
66031,146289,4
66030,146294,5
66025,146284,5
66029,146291,5
66026,146295,5
66036,146292,4
66034,146307,5
66032,146302,5
66041,146300,5
66042,146307,4
66046,146301,4
66050,146296,5
66046,146314,5
66056,146313,5
66055,146325,5
66046,146329,4
66063,146331,5
66064,146346,5
66060,146340,5
66078,146353,4
66087,146367,4
66103,146392,5
66106,146403,5
66120,146423,5
66138,146439,4
66137,146463,5
66153,146488,5
66159,146498,5
66171,146524,5
66181,146527,5
66186,146546,4
66199,146560,5
66218,146570,5
66218,146586,6
66119,146601,3
66219,146596,5
66227,146594,5
66221,146608,5
66050,146598,5
66215,146597,4
66220,146591,5
66212,146587,5
66025,146584,5
66218,146580,5
66211,146583,4
66214,146582,5
66276,146586,5
66213,146591,5
66228,146600,4
66226,146604,4
66424,146589,5
66224,146582,5
66211,146573,5
66205,146561,4
66378,146580,6
66214,146604,4
66220,146586,5
66208,146579,5
66264,146580,6
66212,146592,3
66214,146586,5
66214,146584,5
66226,146526,5
66231,146610,4
66229,146607,5
66227,146610,5
66227,146432,5
66229,146589,5
66226,146600,4
66220,146611,5
66232,146404,5
66234,146614,5
66238,146636,5
66246,146639,5
66250,146660,4
66258,146662,5
66266,146677,5
66273,146687,4
66287,146866,4
66265,146686,6
66270,146691,4
66273,146701,5
66267,146900,4
66275,146673,5
66270,146679,5
66270,146664,5
66266,146757,5
66277,146673,4
66273,146673,5
66274,146682,5
66277,146691,5
66266,146667,5
66255,146653,4
66254,146658,5
66255,146660,5
66259,146664,5
66260,146663,5
66259,146660,4
66264,146683,5
66263,146672,5
66277,146686,5
66276,146689,5
66274,146682,4
66278,146699,5
66283,146698,6
66282,146711,4
66287,146717,4
66295,146722,4
66294,146728,5
66303,146732,5
66303,146724,5
66301,146723,4
66301,146734,5
66304,146728,5
66303,146730,5
66308,146737,5
66318,146749,4
66322,146741,5
66319,146758,5
66331,146759,5
66329,146759,5
66337,146781,4
66343,146790,5
66350,146802,5
66339,146802,5
66351,146805,5
66367,146827,4
66374,146828,5
66374,146824,5
66374,146832,6
66368,146834,4
66366,146821,4
66359,146810,5
66363,146816,5
66360,146812,5
66351,146815,4
66365,146805,4
66358,146805,5
66341,146803,5
66344,146791,5
66333,146776,4
66333,146782,5
66342,146773,5
66330,146768,5
66329,146759,5
66308,146736,4
66298,146704,5
66278,146667,5
66266,146653,5
66269,146662,5
66258,146657,5
66238,146629,4
66238,146633,5
66244,146634,5
66249,146631,6
66246,146639,3
66254,146655,5
66270,146670,5
66274,146676,5
66265,146670,5
66268,146678,4
66275,146681,5
66282,146679,5
66275,146683,5
66279,146694,4
66285,146707,4
66291,146711,5
66225,146718,5
66304,146728,5
66304,146732,4
66311,146734,5
66142,146732,5
66308,146743,5
66308,146727,5
66304,146705,4
66105,146715,6
66292,146719,4
66292,146721,5
66302,146730,5
66329,146717,4
66313,146731,5
66312,146736,5
66305,146723,5
66487,146742,5
66303,146738,4
66297,146709,5
66292,146707,5
66477,146707,5
66283,146710,5
66287,146699,4
66295,146709,5
66361,146724,5
66302,146727,5
66307,146738,4
66305,146732,4
66318,146662,5
66309,146719,5
66304,146715,5
66291,146717,4
66289,146558,5
66299,146713,6
66295,146713,4
66291,146711,5
66292,146510,4
66294,146708,5
66292,146714,5
66290,146703,5
66292,146698,5
66296,146707,4
66290,146694,5
66304,146711,5
66305,146886,5
66308,146723,5
66305,146718,4
66312,146722,5
66318,146958,5
66307,146731,5
66315,146731,5
66312,146726,4
66321,146816,5
66306,146728,5
66308,146726,5
66318,146730,4
66314,146735,4
66312,146725,5
66314,146732,6
66323,146726,4
66316,146739,4
66324,146732,5
66316,146732,5
66311,146725,5
66314,146739,5
66312,146724,4
66313,146712,5
66289,146664,5
66268,146649,5
66255,146636,5
66247,146630,4
66253,146612,5
66242,146602,5
66219,146579,5
66230,146591,5
66234,146589,4
66237,146598,5
66240,146616,5
66253,146632,9
66254,146640,5
66266,146627,5
66274,146648,5
66278,146653,5
66282,146655,4
66281,146668,4
66286,146677,5
66288,146686,5
66289,146689,5
66285,146688,4
66290,146677,5
66288,146687,5
66294,146676,5
66290,146668,5
66285,146680,4
66289,146681,5
66283,146682,5
66281,146661,5
66269,146656,5
66263,146637,4
66247,146627,5
66240,146618,5
66248,146619,5
66234,146605,5
66240,146608,5
66242,146612,4
66246,146632,5
66252,146626,5
66251,146616,5
66254,146613,4
66248,146619,5
66243,146607,5
66241,146612,5
66235,146610,4
66247,146613,5
66255,146616,5
66243,146619,5
66241,146622,5
66237,146611,4
66248,146613,5
66246,146618,5
66248,146609,5
66245,146625,5
66250,146628,4
66252,146632,5
66244,146621,5
66245,146617,5
66246,146618,5
66250,146627,4
66245,146608,6
66239,146616,4
66248,146617,5
66249,146629,5
66261,146631,4
66192,146640,5
66276,146647,5
66281,146659,5
66284,146666,5
66108,146669,4
66287,146671,5
66283,146674,5
66292,146683,5
66095,146696,4
66298,146694,5
66295,146689,5
66302,146694,5
66314,146700,5
66299,146691,4
66300,146691,5
66300,146699,5
66480,146705,5
66307,146709,5
66297,146686,4
66273,146657,5
66472,146644,6
66260,146626,4
66250,146622,5
66244,146589,4
66286,146565,5
66216,146567,5
66218,146564,5
66213,146568,5
66228,146544,4
66236,146601,5
66252,146629,5
66272,146642,5
66274,146502,5
66281,146665,4
66288,146668,5
66282,146669,5
66281,146486,5
66300,146706,4
66316,146718,4
66325,146731,4
66327,146708,5
66328,146746,5
66325,146744,4
66333,146748,5
66335,146908,5
66329,146745,5
66318,146738,5
66320,146719,4
66303,146931,5
66299,146698,5
66297,146681,5
66294,146678,5
66288,146795,4
66282,146687,5
66290,146677,5
66290,146664,5
66276,146669,5
66271,146647,4
66257,146624,5
66261,146617,5
66250,146613,5
66238,146599,5
66232,146595,5
66234,146589,4
66241,146603,5
66243,146611,5
66241,146615,6
66249,146617,3
66254,146622,5
66256,146619,5
66255,146631,5
66258,146645,4
66257,146637,5
66261,146628,5
66260,146620,5
66243,146596,5
66228,146579,4
66217,146553,5
66196,146532,5
66180,146510,5
66167,146474,5
66163,146490,4
66164,146467,5
66158,146471,5
66151,146478,5
66153,146456,5
66155,146466,4
66159,146472,6
66151,146455,4
66155,146453,5
66145,146439,5
66133,146433,6
66131,146413,3
66106,146397,5
66099,146367,5
66080,146342,4
66075,146318,4
66063,146306,5
66042,146290,5
66029,146261,5
66010,146231,4
65987,146184,5
65969,146160,5
65970,146135,5
65947,146118,5
65932,146108,4
65921,146070,5
65884,146018,5
65851,145974,5
65831,145925,5
65798,145871,4
65769,145848,5
65774,145853,6
65786,145871,4
65791,145877,5
65792,145883,4
65794,145871,5
65799,145893,5
65795,145889,5
65799,145900,5
65797,145877,4
65795,145880,5
65795,145873,5
65790,145859,5
65773,145848,4
65764,145825,4
65746,145795,5
65726,145762,5
65710,145733,5
65681,145691,4
65663,145669,5
65636,145639,5
65614,145595,5
65543,145570,5
65583,145541,4
65559,145508,5
65537,145455,5
65344,145406,6
65456,145333,4
65442,145310,4
65436,145286,5
65229,145273,5
65411,145253,5
65396,145224,5
65382,145224,4
65379,145201,5
65339,145145,5
65322,145096,5
65282,145025,5
65416,144975,4
65221,144939,5
65197,144896,5
65183,144863,5
65378,144857,4
65155,144828,4
65143,144814,5
65130,144801,5
65201,144779,5
65123,144769,5
65118,144770,4
65111,144745,5
65121,144712,5
65104,144740,6
65097,144713,3
65080,144694,5
65070,144546,5
65059,144673,5
65060,144686,5
65063,144664,4
65064,144487,5
65063,144680,5
65069,144677,5
65069,144694,5
65074,144643,4
65074,144690,5
65078,144692,5
65081,144700,5
65086,144844,5
65076,144696,4
65082,144709,5
65087,144703,5
65085,144918,5
65089,144704,4
65078,144690,5
65074,144675,4
65069,144783,5
65071,144682,5
65066,144672,4
65079,144697,5
65081,144718,5
65100,144714,5
65105,144735,5
65122,144754,4
65128,144776,5
65129,144776,5
65145,144789,5
65147,144797,5
65139,144790,4
65138,144777,5
65116,144759,5
65112,144735,5
65112,144741,5
65100,144715,4
65089,144707,5
65090,144704,5
65079,144701,5
65083,144704,5
65083,144705,4
65105,144735,6
65119,144766,4
65134,144788,5
65153,144806,4
65160,144820,4
65174,144838,5
65174,144859,5
65199,144878,5
65205,144894,4
65207,144903,5
65215,144916,5
65222,144936,5
65240,144938,5
65243,144942,4
65237,144940,5
65235,144947,5
65230,144937,5
65223,144948,5
65238,144937,4
65223,144939,5
65235,144942,5
65230,144947,5
65234,144945,5
65235,144958,4
65244,144965,5
65254,144975,6
65242,144963,4
65247,144955,5
65246,144959,4
65248,144970,5
65250,144975,5
65258,144969,5
65250,144965,4
65257,144972,4
65255,144977,5
65254,144973,5
65250,144958,5
65253,144966,4
65238,144960,5
65236,144955,5
65240,144946,5
65242,144958,5
65240,144957,4
65249,144962,5
65252,144972,5
65264,144994,5
65258,144991,5
65258,144990,4
65275,145007,5
65273,145016,5
65285,145015,6
65282,145034,4
65290,145022,4
65286,145031,5
65290,145036,5
65285,145037,5
65288,145049,5
65299,145042,4
65235,145038,5
65300,145040,5
65291,145046,5
65292,145045,4
65132,145042,4
65284,145030,5
65280,145033,5
65280,145023,5
65073,145017,4
65268,145018,5
65269,145005,5
65265,145017,5
65261,144999,5
65260,145012,5
65262,145003,4
65268,144991,5
65415,144982,5
65251,144980,5
65249,144969,4
65245,144966,5
65456,144969,5
65246,144955,5
65237,144966,5
65239,144963,4
65330,144967,5
65252,144974,5
65250,144979,5
65255,144989,5
65271,144973,4
65269,144997,5
65272,145013,5
65279,145020,5
65270,144872,4
65274,145019,4
65282,145027,6
65280,145031,4
65274,144804,5
65267,144987,4
65254,144967,7
65251,144986,3
65250,144924,5
65244,144957,5
65232,144960,4
65241,144969,5
65225,145087,5
65234,144946,5
65239,144969,5
65257,145008,4
65276,145256,5
65289,145041,5
65292,145035,5
65286,145032,5
65284,145137,4
65278,145021,5
65286,145034,5
65283,145035,5
65291,145064,5
65307,145072,4
65332,145107,5
65344,145141,5
65366,145160,5
65374,145174,5
65370,145182,4
65356,145166,6
65352,145134,4
65341,145124,5
65332,145091,4
65316,145068,5
65303,145060,5
65298,145060,5
65298,145068,5
65295,145063,4
65318,145093,5
65316,145098,5
65316,145086,5
65323,145099,5
65322,145093,4
65312,145087,5
65305,145076,5
65304,145075,5
65313,145077,5
65306,145083,4
65312,145080,5
65310,145088,5
65321,145092,5
65322,145088,5
65316,145075,4
65315,145084,5
65320,145092,5
65314,145087,5
65306,145080,5
65306,145065,4
65284,145052,5
65302,145050,5
65292,145057,5
65300,145070,4
65308,145075,6
65313,145084,3
65318,145093,5
65325,145084,5
65317,145088,4
65317,145082,5
65302,145077,5
65294,145067,5
65296,145057,5
65282,145044,4
65282,145033,5
65282,145033,5
65276,145029,5
65279,145025,5
65271,145017,4
65272,145006,5
65265,145000,5
65250,144992,5
65251,144980,5
65239,144993,4
65249,144974,5
65250,144977,5
65239,144970,5
65246,144966,5
65238,144978,4
65236,144962,5
65243,144963,5
65238,144957,5
65230,144956,4
65225,144948,4
65224,144937,5
65213,144923,5
65208,144911,5
65202,144906,4
65205,144916,6
65208,144916,4
65206,144924,5
65156,144923,5
65211,144933,6
65218,144932,3
65220,144943,5
65065,144926,5
65215,144919,5
65203,144920,4
65197,144903,5
65003,144896,5
65189,144876,5
65181,144865,5
65178,144863,4
65141,144854,5
65163,144839,5
65159,144834,5
65158,144831,5
65319,144839,4
65162,144836,5
65157,144830,5
65153,144819,5
65361,144822,4
65145,144805,4
65120,144764,6
65100,144732,4
65172,144727,5
65103,144736,4
65093,144722,7
65081,144711,3
65092,144676,5
65070,144703,5
65071,144686,4
65063,144684,5
65060,144544,5
65065,144693,5
65064,144691,5
65072,144693,4
65070,144491,5
65061,144686,5
65065,144688,5
65069,144688,5
65076,144622,4
65063,144699,5
65077,144697,5
65073,144701,5
65084,144849,5
65090,144720,4
65098,144733,5
65102,144743,6
65101,144954,4
65096,144730,4
65096,144737,4
65093,144719,5
65082,144830,5
65076,144715,5
65074,144704,4
65075,144704,5
65062,144727,5
65076,144701,5
65076,144715,5
65076,144708,4
65084,144716,5
65085,144716,5
65090,144720,5
65091,144722,5
65094,144726,4
65094,144742,5
65103,144752,5
65105,144763,5
65126,144781,5
65127,144798,4
65118,144786,5
65128,144787,5
65132,144803,6
65145,144800,4
65148,144813,4
65153,144829,5
65149,144837,5
65154,144822,5
65163,144829,4
65154,144827,4
65156,144832,5
65168,144842,5
65172,144857,5
65187,144878,4
65192,144880,5
65196,144900,5
65205,144912,5
65218,144932,5
65220,144937,4
65221,144942,5
65238,144963,5
65244,144982,5
65261,144996,5
65272,145017,5
65286,145042,4
65302,145049,5
65302,145072,5
65305,145080,6
65307,145096,3
65322,145095,5
65319,145098,5
65318,145099,5
65328,145101,5
65328,145100,4
65331,145113,5
65326,145110,5
65331,145120,5
65349,145144,4
65356,145155,4
65362,145177,5
65381,145195,5
65390,145216,5
65394,145228,4
65414,145258,5
65410,145258,5
65425,145279,5
65442,145294,5
65446,145310,4
65449,145316,6
65456,145332,4
65472,145350,5
65478,145362,5
65488,145368,4
65481,145372,5
65490,145376,5
65492,145379,5
65494,145379,5
65496,145395,4
65501,145397,5
65516,145423,5
65531,145441,5
65542,145454,5
65536,145452,4
65491,145445,5
65519,145424,5
65524,145419,5
65514,145403,4
65356,145411,4
65505,145411,5
65497,145389,5
65497,145387,5
65291,145389,4
65498,145387,5
65491,145385,6
65498,145391,4
65472,145410,5
65515,145423,4
65522,145426,5
65525,145442,5
65683,145439,5
65528,145441,5
65529,145435,4
65535,145445,5
65760,145467,5
65559,145481,5
65555,145504,5
65565,145490,4
65654,145488,5
65571,145498,5
65562,145496,5
65560,145510,5
65585,145501,4
65575,145514,5
65567,145515,5
65564,145505,5
65565,145382,4
65569,145513,4
65570,145527,5
65575,145522,6
65585,145346,4
65594,145535,4
65587,145531,5
65577,145542,5
65575,145445,5
65586,145531,5
65589,145533,4
65588,145530,5
65584,145666,5
65586,145540,5
65601,145551,5
65598,145560,4
65613,145802,5
65621,145589,5
65621,145595,5
65637,145606,5
65641,145763,4
65662,145656,5
65665,145673,5
65678,145692,5
65676,145732,5
65685,145704,4
65699,145711,5
65691,145725,5
65703,145716,6
65703,145726,4
65714,145728,4
65715,145745,5
65719,145760,5
65715,145755,5
65719,145751,4
65715,145742,5
65713,145750,5
65717,145738,5
65716,145738,5
65711,145742,4
65712,145737,5
65723,145741,5
65717,145743,5
65717,145738,5
65713,145744,4
65716,145749,5
65723,145751,5
65718,145750,5
65723,145761,5
65728,145765,5
65727,145775,4
65733,145777,5
65739,145788,5
65739,145802,5
65751,145796,4
65742,145798,5
65742,145784,5
65729,145776,5
65743,145781,5
65737,145781,4
65734,145777,5
65738,145781,5
65734,145776,5
65741,145771,4
65727,145781,5
65736,145780,5
65734,145778,5
65741,145786,5
65743,145793,4
65747,145790,5
65744,145799,5
65744,145784,5
65730,145773,5
65737,145771,4
65734,145768,6
65748,145778,4
65753,145800,5
65744,145786,5
65745,145787,4
65753,145814,5
65748,145811,5
65747,145805,5
65767,145826,5
65772,145838,4
65776,145845,5
65780,145851,5
65780,145841,5
65783,145867,5
65792,145871,4
65807,145901,5
65827,145916,5
65842,145943,5
65853,145968,4
65866,145979,5
65877,146008,5
65878,146008,5
65883,146014,5
65877,146024,4
65886,146014,5
65878,146005,6
65862,145988,4
65828,145990,5
65866,145984,4
65856,145980,5
65855,145984,5
65709,145985,5
65848,145976,5
65858,145982,4
65864,145974,5
65669,145980,5
65866,145995,5
65865,145996,5
65871,146001,4
65831,146003,5
65884,146003,5
65884,146012,5
65895,146038,5
66051,146055,4
65907,146067,5
65919,146090,5
65926,146084,5
66143,146095,4
65939,146115,4
65948,146128,5
65959,146123,5
66054,146131,5
65958,146136,4
65962,146150,5
65971,146146,5
65989,146155,5
65964,146161,5
65971,146161,4
65972,146172,5
65971,146049,5
65977,146175,5
65975,146168,5
65975,146164,4
65975,145980,5
65978,146172,5
65980,146180,5
65980,146161,5
65972,146074,4
65984,146182,5
65982,146184,5
65989,146206,5
66002,146332,5
66011,146220,4
66019,146241,5
66024,146263,5
66036,146484,5
66033,146260,4
66043,146277,5
66041,146273,5
66030,146399,5
66036,146264,5
66030,146262,4
66033,146255,5
66033,146287,5
66024,146265,5
66035,146264,5
66033,146272,4
66032,146261,5
66042,146270,5
66043,146274,5
66045,146289,5
66059,146307,4
66054,146294,6
66052,146296,4
66042,146281,5
66034,146274,5
66048,146274,6
66033,146278,3
66046,146282,5
66037,146264,5
66030,146253,5
66032,146269,4
66035,146262,5
66040,146270,5
66037,146273,5
66051,146290,4
66053,146310,4
66062,146319,5
66074,146331,5
66075,146323,5
66070,146328,4
66074,146333,5
66079,146343,5
66087,146359,5
66098,146359,5
66097,146384,4
66110,146384,5
66124,146396,6
66119,146399,4
66125,146411,5
66125,146414,4
66134,146423,5
66134,146420,5
66129,146421,5
66135,146430,5
66135,146431,4
66138,146432,5
66144,146433,5
66133,146416,5
66141,146436,5
66147,146431,4
66142,146434,5
66143,146441,5
66144,146429,5
66140,146432,4
66153,146446,4
66144,146449,5
66152,146445,5
66146,146449,5
66152,146460,4
66170,146480,5
66167,146479,9
66169,146488,3
66167,146489,3
66176,146459,4
66162,146485,5
66160,146482,5
66156,146464,5
66160,146468,5
66147,146464,4
66160,146474,5
66160,146473,5
66161,146468,5
66155,146469,5
66159,146461,4
66162,146469,5
66158,146462,5
66163,146467,5
66156,146459,5
66153,146449,4
66109,146438,5
66135,146444,5
66121,146420,5
66127,146394,5
65960,146377,4
66103,146363,5
66091,146352,5
66085,146340,6
65875,146333,3
66068,146326,5
66074,146318,5
66074,146325,5
66035,146323,5
66069,146305,4
66068,146325,5
66077,146331,5
66230,146328,5
66075,146335,5
66077,146333,4
66088,146339,5
66302,146336,5
66091,146339,5
66097,146360,5
66096,146358,4
66175,146338,5
66078,146324,5
66064,146325,5
66067,146317,5
66093,146301,5
66076,146316,4
66060,146303,5
66057,146322,5
66066,146189,6
66074,146341,3
66088,146347,5
66108,146381,5
66116,146194,5
66122,146402,4
66120,146420,5
66136,146410,5
66120,146347,5
66119,146406,5
66121,146400,4
66120,146391,5
66108,146554,5
66115,146390,5
66115,146394,5
66106,146399,4
66106,146616,5
66112,146400,5
66113,146401,5
66125,146403,5
66114,146497,4
66118,146386,6
66116,146383,4
66103,146375,5
66108,146388,4
66105,146368,4
66092,146365,5
66100,146362,5
66082,146346,5
66099,146345,4
66086,146340,5
66085,146337,5
66073,146324,5
66060,146307,5
66061,146299,4
66047,146283,5
66043,146264,5
66041,146267,5
66049,146274,5
66052,146280,4
66048,146283,5
66053,146278,5
66059,146295,5
66060,146294,5
66056,146301,4
66060,146312,5
66061,146302,6
66057,146289,4
66060,146295,5
66046,146284,4
66048,146271,5
66039,146260,5
66030,146249,5
66023,146231,4
66014,146215,4
66003,146202,5
66006,146197,5
65993,146192,5
65995,146192,4
65984,146179,5
65988,146171,5
65979,146172,5
65973,146165,5
65974,146173,4
65967,146159,5
65974,146170,5
65973,146165,5
65978,146155,5
65979,146167,4
65981,146173,5
65984,146170,5
65978,146174,6
65971,146173,4
65969,146161,4
65971,146154,5
65969,146155,5
65968,146145,5
65960,146133,5
65956,146142,4
65963,146141,5
65948,146135,5
65944,146078,5
65921,146067,4
65919,146059,4
65895,146039,5
65900,146036,5
65879,146014,5
65862,145981,4
65864,145992,5
65859,145980,5
65861,145974,5
65849,145968,5
65859,145971,5
65861,145992,4
65869,145997,5
65869,145992,5
65863,145993,5
65855,145982,4
65853,145971,5
65854,145970,5
65844,145955,5
65733,145949,5
65846,145951,4
65834,145944,5
65840,145932,5
65653,145930,5
65838,145932,4
65824,145922,4
65813,145899,5
65624,145899,5
65791,145869,5
65778,145857,4
65779,145841,5
65853,145832,5
65760,145819,5
65760,145810,5
65750,145819,4
65948,145796,6
65755,145797,4
65734,145790,5
65727,145768,5
65880,145740,4
65716,145734,5
65697,145724,5
65690,145692,5
65724,145678,5
65676,145669,4
65675,145673,5
65678,145679,5
65681,145600,5
65681,145680,5
65678,145680,4
65678,145687,5
65682,145525,5
65694,145712,5
65700,145719,5
65703,145727,4
65706,145532,5
65707,145738,5
65712,145743,5
65719,145747,4
65721,145813,5
65736,145761,6
65738,145778,4
65737,145774,5
65737,145978,4
65733,145769,5
65733,145764,5
65730,145777,5
65732,145945,5
65732,145767,4
65733,145789,5
65742,145784,5
65747,145844,5
65761,145801,5
65746,145797,4
65758,145800,5
65747,145811,5
65761,145806,5
65759,145808,5
65749,145815,4
65762,145813,5
65774,145814,5
65767,145815,5
65771,145828,4
65756,145824,4
65762,145838,5
65779,145834,5
65770,145843,5
65774,145842,4
65773,145831,5
65771,145837,5
65771,145834,5
65767,145855,5
65772,145841,4
65780,145839,5
65783,145849,5
65783,145859,5
65786,145883,5
65808,145890,4
65814,145902,5
65817,145911,5
65822,145913,5
65827,145933,5
65841,145939,4
65840,145941,5
65851,145944,5
65833,145948,5
65848,145931,5
65837,145938,4
65832,145933,5
65832,145926,5
65834,145940,5
65838,145930,4
65816,145927,5
65829,145932,5
65833,145919,5
65828,145917,5
65822,145915,4
65830,145941,5
65851,145971,5
65871,145977,5
65868,146005,5
65876,146021,4
65888,146021,5
65888,146035,5
65897,146038,5
65909,146060,5
65916,146072,4
65912,146073,5
65918,146086,5
65925,146083,5
65930,146096,5
65941,146102,5
65938,146119,3
65941,146131,5
65946,146122,5
65937,146122,4
65937,146111,4
65929,146114,5
65950,146115,5
65950,146126,5
65951,146135,4
65954,146135,5
65965,146139,5
65963,146147,5
65976,146168,5
65975,146162,4
65964,146161,5
65982,146160,5
65937,146146,5
65964,146148,5
65962,146154,4
65968,146144,5
65812,146151,6
65964,146153,4
65971,146162,5
65974,146164,4
65784,146166,7
65980,146176,3
65983,146174,5
65981,146172,5
65924,146180,4
65989,146187,5
65995,146184,5
65997,146200,5
66135,146212,4
65993,146205,4
65998,146206,5
66011,146210,5
66231,146224,5
66021,146229,4
66015,146233,5
66016,146243,5
66124,146238,5
66013,146237,5
66019,146233,4
66009,146235,5
66045,146234,5
66021,146247,6
66012,146234,4
66022,146238,4
66019,146112,5
66026,146247,5
66023,146245,5
66014,146243,5
66031,146042,4
66022,146236,5
66013,146241,5
66017,146248,5
66015,146134,5
66012,146242,4
66020,146234,5
66024,146239,5
66007,146357,5
66008,146233,4
66024,146244,4
66018,146243,5
66017,146465,5
66012,146233,5
66008,146228,5
66018,146227,4
66019,146349,5
66007,146233,5
66016,146227,6
66013,146227,3
66023,146251,5
66004,146225,5
66008,146219,5
66014,146221,5
66002,146220,4
66013,146227,5
66010,146217,5
66007,146222,5
66001,146215,5
66001,146215,4
66012,146218,5
65996,146210,5
65995,146210,5
65999,146218,5
65993,146207,4
65999,146201,5
65994,146199,5
65992,146198,5
65994,146206,4
65994,146202,6
66002,146199,4
65995,146217,5
66004,146211,5
66000,146212,6
66009,146219,3
66005,146227,5
66016,146231,5
66015,146245,5
66022,146243,4
66018,146251,5
66031,146249,5
66031,146268,5
66042,146276,5
66047,146280,4
66048,146303,5
66057,146305,5
66056,146308,5
66051,146298,5
66051,146304,4
66054,146294,5
66052,146300,5
66053,146307,5
66052,146298,4
66051,146283,4
66050,146290,6
66056,146303,4
66048,146301,5
66058,146294,4
66059,146299,5
66064,146308,5
66067,146307,5
66049,146280,5
66032,146253,4
66013,146235,5
66005,146211,5
65984,146197,5
65995,146204,5
65992,146189,4
65978,146169,5
65988,146182,5
65991,146190,5
65977,146180,5
65977,146171,4
65974,146182,5
65982,146186,5
65975,146186,5
65994,146183,5
65987,146196,4
65985,146179,5
65990,146185,6
65987,146198,4
65990,146188,4
65978,146188,4
65985,146179,5
65977,146178,5
65977,146183,5
65978,146161,4
65917,146165,5
65972,146159,5
65966,146154,5
65960,146140,5
65795,146136,6
65946,146117,3
65933,146120,5
65934,146106,5
65736,146100,5
65919,146094,4
65922,146083,5
65927,146072,5
65922,146075,5
65907,146074,5
65902,146069,4
65907,146067,5
66069,146068,5
65907,146064,6
65903,146049,4
65887,146040,4
66085,146022,5
65878,146001,5
65858,145987,5
65855,145993,4
65923,145967,4
65837,145974,5
65835,145957,5
65832,145938,5
65839,145889,4
65836,145931,5
65824,145928,5
65822,145917,5
65813,145766,5
65823,145926,4
65811,145917,5
65824,145922,5
65819,145726,5
65816,145929,5
65809,145923,5
65827,145930,4
65818,145913,5
65814,145922,5
65813,145916,5
65813,145912,4
65809,146070,5
65808,145900,5
65802,145893,5
65797,145885,5
65789,146115,4
65794,145882,5
65785,145886,5
65792,145881,5
65789,145973,4
65783,145872,5
65782,145858,5
65770,145838,5
65763,145843,5
65757,145819,4
65751,145816,5
65745,145806,5
65748,145807,5
65740,145799,5
65750,145802,4
65750,145814,6
65750,145823,4
65746,145815,5
65753,145818,5
65754,145826,4
65751,145838,5
65752,145820,5
65761,145835,5
65763,145831,5
65765,145848,4
65766,145843,5
65767,145863,5
65779,145855,5
65778,145861,4
65774,145855,4
65768,145861,5
65782,145858,5
65783,145861,5
65776,145861,4
65774,145867,5
65778,145868,5
65786,145868,5
65790,145886,5
65787,145872,4
65773,145856,5
65766,145833,6
65763,145823,4
65758,145810,5
65752,145820,4
65746,145826,5
65747,145801,5
65728,145801,5
65735,145812,5
65745,145809,4
65748,145796,5
65748,145815,5
65746,145835,5
65757,145833,5
65762,145847,4
65766,145840,5
65766,145845,5
65761,145836,5
65763,145838,4
65762,145843,4
65760,145832,5
65769,145844,5
65774,145858,5
65773,145856,4
65775,145860,5
65791,145872,5
65778,145866,5
65780,145873,5
65780,145865,4
65785,145869,5
65782,145868,5
65772,145857,5
65780,145856,5
65775,145862,4
65786,145853,5
65780,145860,5
65789,145872,5
65780,145858,5
65780,145873,4
65785,145881,5
65767,145866,5
65780,145872,5
65776,145865,5
65777,145859,4
65767,145850,5
65766,145847,5
65668,145838,5
65770,145852,5
65765,145852,4
65769,145852,5
65586,145867,5
65777,145860,5
65778,145860,4
65786,145868,5
65618,145889,5
65793,145896,5
65790,145893,5
65804,145912,4
65878,145896,5
65799,145894,5
65796,145903,5
65806,145906,5
66012,145908,4
65798,145898,5
65808,145907,5
65813,145911,5
65953,145912,5
65796,145908,4
65802,145914,6
65804,145903,4
65845,145900,5
65798,145898,5
65806,145904,6
65794,145897,3
65800,145821,5
65801,145904,5
65796,145906,4
65811,145904,5
65811,145738,5
65812,145911,5
65814,145905,5
65808,145910,4
65803,145716,5
65812,145907,5
65801,145917,5
65811,145908,5
65808,145967,4
65803,145892,5
65804,145899,5
65791,145897,5
65798,146100,5
65800,145892,4
65800,145906,5
65795,145907,5
65802,146087,5
65806,145901,5
65806,145909,4
65805,145904,6
65801,145960,3
65803,145914,5
65803,145910,4
65803,145915,4
65806,145914,5
65805,145915,5
65807,145914,5
65816,145912,4
65804,145913,5
65824,145917,5
65821,145928,5
65827,145921,5
65801,145911,4
65806,145894,5
65793,145880,5
65783,145862,5
65775,145857,5
65772,145848,4
65774,145862,5
65761,145844,5
65770,145845,6
65766,145847,4
65765,145850,4
65768,145847,5
65775,145853,5
65775,145873,5
65781,145876,5
65787,145878,4
65791,145879,5
65788,145875,5
65798,145890,5
65792,145889,4
65808,145909,4
65811,145926,5
65828,145937,5
65822,145943,5
65824,145949,4
65832,145952,5
65834,145954,5
65837,145956,5
65845,145964,5
65835,145963,5
65847,145965,4
65833,145970,5
65838,145966,5
65846,145978,6
65852,145975,3
65852,145980,5
65851,145989,5
65858,145996,5
65863,146004,5
65868,146016,4
65874,146013,5
65872,146022,5
65878,146021,5
65874,146017,5
65863,146015,4
65872,146012,5
65864,146012,5
65870,146027,5
65881,146034,4
65895,146050,5
65896,146052,5
65900,146056,5
65897,146079,5
65902,146075,4
65902,146079,6
65909,146077,4
65916,146082,5
65916,146085,5
65914,146097,6
65921,146096,3
65911,146092,5
65918,146095,5
65914,146090,5
65929,146090,4
65920,146095,5
65903,146096,5
65923,146106,5
65922,146107,5
65936,146107,4
65787,146107,5
65933,146119,5
65939,146125,5
65934,146130,4
65741,146129,4
65937,146119,5
65933,146114,5
65943,146134,5
65870,146117,4
65942,146116,5
65942,146121,6
65945,146121,4
66081,146122,5
65947,146130,4
65943,146129,5
65939,146142,5
66158,146132,5
65946,146130,5
65938,146128,4
65944,146120,5
66038,146113,5
65937,146114,5
65936,146113,5
65940,146119,4
65952,146112,5
65939,146115,5
65936,146117,5
65933,146104,5
65934,145981,4
65934,146102,5
65933,146087,5
65925,146096,5
65922,145901,4
65926,146093,4
65927,146101,5
65921,146088,6
65925,145981,4
65915,146091,4
65913,146083,5
65921,146088,5
65916,146201,5
65925,146091,5
65918,146084,4
65898,146054,5
65903,146289,5
65915,146079,5
65906,146067,5
65902,146073,4
65910,146192,5
65911,146069,5
65918,146095,5
65921,146087,5
65916,146119,4
65922,146081,5
65913,146085,5
65915,146088,5
65923,146091,5
65921,146089,4
65927,146104,5
65927,146109,5
65928,146097,6
65925,146100,3
65925,146106,5
65931,146095,5
65928,146097,5
65924,146092,5
65922,146096,4
65921,146095,5
65916,146089,5
65920,146084,5
65915,146072,5
65905,146080,4
65908,146080,5
65918,146065,5
65910,146080,5
65913,146085,5
65913,146082,4
65912,146080,5
65919,146089,5
65914,146076,5
65908,146074,5
65914,146079,5
65911,146079,4
65920,146078,5
65923,146083,5
65927,146092,4
65921,146116,4
65932,146120,5
65942,146128,5
65951,146136,5
65960,146152,4
65968,146168,5
65958,146165,5
65963,146156,5
65957,146151,5
65956,146154,4
65962,146154,5
65956,146152,5
65959,146152,5
65954,146146,5
65954,146137,4
65949,146152,5
65960,146155,5
65965,146159,5
65966,146169,5
65969,146175,4
65978,146183,6
65974,146176,4
65984,146188,5
65992,146205,5
66002,146224,4
65998,146212,5
66000,146220,5
66003,146235,5
66001,146234,4
66003,146217,4
66009,146225,5
66003,146221,5
66000,146225,5
66008,146233,4
66016,146240,5
66017,146235,5
66010,146230,5
66006,146232,5
66004,146242,4
66020,146240,5
66020,146254,5
66035,146256,5
66023,146250,5
65949,146233,4
66005,146222,5
65995,146208,6
65991,146202,4
65825,146208,5
65989,146187,4
65976,146178,5
65974,146183,5
65782,146195,5
65986,146192,5
65982,146195,4
65989,146210,5
66017,146222,5
66017,146228,5
66013,146231,4
66015,146242,4
66194,146247,5
66020,146250,5
66026,146256,5
66025,146269,4
66232,146275,5
66037,146283,5
66049,146298,5
66053,146293,5
66123,146314,4
66057,146312,5
66053,146302,9
66047,146296,3
66052,146240,3
66039,146254,4
66034,146272,5
66036,146284,5
66031,146106,5
66020,146253,5
66024,146272,8
66033,146265,5
66027,146053,8
66032,146289,5
66046,146307,7
66027,146264,8
66027,146264,5
65990,146413,7
65999,146240,8
66013,146233,7
66010,146231,10
65998,146303,5
65998,146303,4
65999,146208,0
65999,146208,3
65990,146203,4
65986,146200,5
65978,146196,5
65979,146189,5
65978,146184,5
65973,146178,4
65973,146176,5
65971,146163,5
65947,146127,5
65925,146091,5
65892,146044,4
