RED,IR,EKG,TIME
63927,142732,8
63923,142733,5
63913,142721,5
63929,142825,10
63923,142746,5
63931,142722,7
63921,142693,8
63911,142729,5
63881,142650,7
63881,142650,8
63908,142639,5
63874,142633,7
63856,142600,8
63851,142593,5
63847,142595,7
63838,142564,8
63838,142564,5
63843,142530,7
63790,142472,8
63742,142421,5
63731,142388,7
63703,142368,8
63546,142072,5
63546,142072,7
63508,142033,8
63481,141983,7
63456,141928,8
63436,141920,5
63371,141788,7
63371,141788,8
63350,141764,5
63341,141750,7
63337,141750,8
63333,141740,5
63335,141730,7
63333,141740,8
63333,141740,5
63326,141735,7
63322,141738,8
63316,141711,5
63310,141696,7
63302,141668,8
63292,141677,5
63313,141715,7
63313,141715,8
63327,141699,5
63299,141687,7
63286,141645,8
63281,141643,7
63276,141654,5
63247,141589,8
63247,141589,7
63245,141593,5
63244,141596,8
63238,141591,7
63245,141589,7
63262,141617,8
63262,141617,7
63260,141614,5
63253,141626,8
63250,141581,7
63205,141630,10
63261,141610,9
63261,141610,10
63255,141602,9
63247,141602,5
63206,141551,8
63206,141551,7
63186,141532,9
63207,141525,5
63189,141497,4
63348,141460,5
63161,141440,5
63124,141384,5
63096,141328,5
63283,141299,4
63049,141265,5
63036,141232,5
63014,141210,5
63078,141175,5
62981,141143,4
62965,141115,5
62951,141110,5
62972,141077,5
62952,141108,5
62958,141106,4
62952,141096,5
62950,140945,5
62946,141082,6
62945,141076,3
62934,141074,5
62930,140867,5
62908,141031,5
62889,140990,5
62860,140924,4
62832,140826,5
62794,140815,5
62761,140782,5
62756,140749,5
62721,140856,4
62700,140674,5
62690,140651,5
62677,140650,5
62680,140860,5
62685,140653,4
62710,140688,5
62717,140722,5
62751,140872,5
62766,140790,5
62785,140833,5
62808,140855,4
62838,140924,5
62870,140940,5
62893,140993,6
62913,141025,3
62934,141060,5
62952,141086,5
62959,141099,5
62964,141114,4
62978,141130,4
62985,141127,5
62986,141131,5
62988,141145,5
62998,141162,4
62999,141162,5
63007,141171,5
63020,141191,5
63022,141199,5
63025,141217,4
63033,141210,5
63035,141241,5
63056,141244,5
63052,141256,5
63050,141251,4
63056,141262,6
63068,141269,4
63059,141276,5
63065,141271,5
63066,141284,4
63068,141285,5
63077,141295,5
63075,141298,5
63078,141292,5
63074,141299,4
63082,141292,5
63082,141290,5
63080,141285,5
63082,141300,4
63087,141298,4
63082,141306,5
63091,141315,5
63090,141312,5
63093,141321,4
63089,141322,5
63101,141330,5
63097,141343,5
63100,141340,5
63105,141341,4
63102,141343,5
63113,141360,6
63116,141352,4
63121,141361,5
63127,141380,4
63139,141400,5
63147,141407,5
63148,141419,5
63156,141434,5
63175,141447,4
63181,141472,5
63199,141491,5
63208,141518,5
63224,141535,5
63226,141544,4
63241,141553,5
63241,141565,5
63254,141579,5
63253,141589,4
63268,141606,4
63270,141621,5
63271,141636,5
63281,141622,5
63282,141642,4
63292,141643,5
63290,141656,5
63303,141652,6
63298,141660,4
63305,141657,4
63299,141670,5
63242,141678,5
63310,141683,5
63305,141676,5
63312,141691,4
63155,141708,5
63334,141718,5
63338,141721,5
63329,141723,5
63136,141729,4
63341,141736,5
63337,141736,5
63344,141737,5
63351,141737,5
63341,141731,4
63346,141737,5
63339,141741,5
63516,141715,5
63329,141723,5
63331,141708,4
63340,141716,5
63549,141705,5
63325,141718,5
63342,141732,4
63349,141760,5
63443,141774,5
63367,141793,5
63379,141790,5
63380,141800,4
63394,141780,5
63385,141823,5
63405,141839,5
63411,141847,5
63410,141726,4
63423,141871,5
63420,141875,5
63427,141874,5
63436,141683,5
63423,141881,5
63418,141872,4
63423,141874,5
63420,141831,5
63429,141873,5
63430,141887,5
63432,141886,4
63434,142027,5
63429,141895,5
63430,141892,5
63447,141915,4
63453,142157,5
63464,141947,5
63454,141929,5
63456,141934,8
63450,142041,5
63464,141937,5
63459,141939,7
63454,141926,8
63454,141926,7
63394,141780,8
63459,141926,9
63460,141954,7
63460,141954,8
63461,141956,7
63475,141958,5
63472,141969,8
63484,141976,7
63490,141999,5
63528,142065,8
63528,142065,7
63538,142077,5
63554,142088,8
63552,142040,7
63553,142092,5
63583,142105,8
63574,142108,7
63569,142132,5
63585,142174,8
63585,142174,7
63450,141945,7
63610,142181,10
63614,142196,5
63648,142251,8
63648,142251,7
63651,142269,5
63659,142280,8
63667,142284,7
63679,142291,7
63719,142363,10
63719,142363,5
63724,142409,5
63736,142395,8
63732,142360,7
63746,142417,10
63778,142465,9
63778,142465,9
63791,142474,10
63779,142480,5
63819,142529,8
63819,142529,7
63778,142525,9
63797,142513,10
63798,142506,9
63798,142506,10
63800,142502,9
63811,142520,10
63811,142520,5
63814,142523,5
63802,142520,10
63620,142493,5
63801,142502,5
63796,142497,10
63768,142465,5
63768,142465,5
63772,142444,10
63750,142421,5
63750,142409,7
63744,142407,8
63925,142407,5
63733,142391,7
63738,142427,8
63738,142427,5
63733,142367,7
63810,142395,8
63739,142412,9
63765,142463,8
63765,142463,5
63807,142470,5
63784,142325,7
63756,142493,8
63788,142484,7
63785,142489,8
63784,142321,5
63806,142537,7
63806,142537,13
63818,142544,7
63822,142550,8
63833,142730,5
63839,142575,7
63839,142575,2
63837,142593,0
63837,142593,4
63832,142562,4
63828,142649,5
63829,142564,6
63841,142566,4
63836,142573,5
63833,142596,4
63839,142572,5
63845,142578,5
63841,142584,5
63858,142595,5
63852,142592,4
63864,142619,5
63863,142612,5
63869,142618,5
63876,142628,4
63874,142635,4
63878,142632,5
63879,142649,5
63890,142657,5
63888,142647,4
63885,142643,5
63875,142648,5
63878,142633,5
63874,142633,5
63868,142631,4
63878,142635,5
63867,142626,5
63871,142637,6
63869,142635,4
63875,142630,4
63884,142639,5
63877,142610,5
63865,142613,5
63867,142614,5
63850,142605,4
63857,142594,5
63850,142589,5
63855,142587,5
63844,142586,5
63842,142582,4
63853,142581,5
63845,142579,5
63837,142579,5
63837,142583,4
63836,142564,4
63839,142567,5
63838,142564,5
63831,142573,5
63836,142566,5
63830,142568,4
63820,142561,5
63822,142566,5
63830,142566,6
63820,142554,3
63824,142554,5
63820,142555,5
63822,142553,5
63817,142550,5
63813,142540,4
63814,142546,5
63805,142525,5
63814,142533,5
63811,142534,5
63809,142519,4
63809,142531,5
63805,142512,5
63804,142510,5
63805,142519,5
63805,142531,4
63807,142521,5
63800,142513,5
63791,142501,5
63784,142481,5
63769,142470,5
63765,142454,4
63764,142455,5
63770,142472,5
63756,142455,6
63757,142448,3
63756,142449,5
63761,142447,5
63770,142450,5
63681,142459,4
63773,142480,5
63780,142499,5
63782,142495,5
63622,142507,5
63792,142507,4
63799,142514,5
63810,142530,5
63620,142550,5
63817,142561,5
63820,142560,4
63829,142575,5
63872,142602,5
63863,142626,5
63877,142648,5
63886,142661,4
64080,142682,6
63907,142693,4
63916,142703,5
63915,142719,5
64123,142732,4
63936,142749,5
63951,142774,5
63962,142796,5
64049,142837,4
63999,142858,4
64019,142877,5
64033,142916,5
64047,142866,5
64042,142928,4
64065,142942,5
64060,142946,5
64063,142803,5
64087,142988,5
64094,143011,4
64123,143068,5
64152,142909,5
64191,143174,5
64218,143219,5
64236,143260,5
64253,143261,4
64279,143317,6
64288,143343,4
64309,143364,5
64319,143556,4
64326,143403,5
64337,143408,5
64338,143429,5
64364,143695,5
64397,143511,4
64418,143560,5
64441,143597,5
64465,143732,5
64487,143675,4
64517,143708,4
64528,143733,5
64547,143801,5
64560,143790,5
64573,143800,4
64577,143831,5
64582,143844,5
64607,143862,5
64617,143882,5
64625,143891,4
64629,143907,5
64642,143909,5
64639,143934,6
64667,143942,4
64660,143970,4
64668,143959,5
64674,143971,5
64691,143987,5
64682,143998,5
64693,144002,4
64691,144008,5
64703,144022,5
64703,144036,5
64713,144048,5
64730,144064,4
64732,144064,5
64722,144076,5
64733,144058,5
64722,144063,4
64734,144069,4
64728,144077,5
64735,144088,5
64748,144097,5
64755,144102,5
64765,144125,4
64776,144139,5
64771,144146,5
64782,144159,5
64788,144162,4
64800,144175,5
64809,144199,5
64816,144223,5
64815,144217,5
64805,144208,4
64805,144200,5
64808,144191,5
64806,144177,5
64810,144194,5
64805,144189,4
64800,144176,5
64787,144181,5
64787,144175,5
64796,144168,5
64789,144169,4
64787,144167,5
64807,144203,5
64827,144221,5
64837,144257,4
64850,144261,5
64843,144268,4
64851,144283,5
64860,144293,5
64869,144319,4
64884,144314,5
64885,144324,5
64904,144346,5
64892,144338,5
64894,144348,4
64889,144349,5
64895,144352,5
64889,144336,5
64889,144326,5
64880,144314,4
64869,144306,5
64873,144311,5
64856,144297,5
64859,144295,5
64859,144295,4
64863,144289,5
64777,144288,5
64868,144295,5
64864,144299,5
64853,144289,4
64682,144293,6
64857,144287,4
64861,144276,5
64852,144274,4
64649,144267,4
64843,144261,5
64847,144264,5
64854,144274,5
64900,144279,4
64863,144296,5
64869,144307,5
64863,144307,5
65075,144318,5
64880,144313,4
64874,144317,5
64872,144313,5
65060,144310,5
64879,144321,5
64873,144316,4
64872,144311,5
64942,144311,5
64891,144319,5
64882,144318,5
64880,144314,4
64884,144269,5
64879,144306,6
64878,144318,4
64874,144314,5
64874,144148,4
64879,144313,5
64885,144331,5
64886,144328,5
64893,144135,5
64895,144336,4
64897,144368,5
64904,144357,5
64916,144365,5
64915,144374,4
64929,144396,5
64933,144402,5
64934,144585,5
64938,144411,5
64937,144404,4
64942,144408,5
64942,144639,5
64948,144425,5
64954,144434,5
64943,144428,4
64950,144515,5
64945,144426,5
64943,144421,5
64953,144446,5
64951,144446,4
64958,144437,5
64951,144433,5
64958,144440,5
64950,144426,5
64946,144416,4
64942,144424,5
64948,144415,5
64948,144433,5
64942,144419,5
64945,144414,4
64935,144424,5
64950,144437,5
64964,144456,5
64960,144456,4
64965,144471,5
64990,144505,4
65001,144506,5
64990,144499,5
64990,144494,6
64984,144494,3
64987,144486,5
64986,144487,5
64990,144505,5
64997,144512,4
64990,144510,5
64998,144509,5
64999,144517,5
65002,144514,5
65006,144515,4
65010,144523,5
65012,144520,5
65013,144534,5
65009,144531,5
65009,144532,4
65015,144534,5
65010,144524,5
65013,144539,5
65013,144542,5
65020,144546,4
65019,144554,6
65025,144559,4
65034,144567,5
65038,144576,4
65043,144585,6
65033,144581,3
65044,144573,5
65040,144577,5
65046,144584,4
65046,144583,5
65046,144598,5
65049,144584,5
65051,144601,5
65059,144608,4
65063,144608,5
65063,144619,5
65067,144616,5
65070,144630,5
65073,144635,4
65069,144644,5
65080,144643,5
65081,144659,5
65090,144663,5
65097,144666,4
65092,144668,5
65095,144680,6
65108,144687,4
65110,144701,5
65113,144699,4
65124,144709,5
65131,144717,5
65131,144723,5
65132,144738,4
65139,144742,4
65153,144765,5
65153,144767,5
65160,144778,5
65070,144775,4
65168,144795,5
65166,144791,5
65176,144790,5
64991,144802,5
65181,144807,4
65185,144800,5
65184,144808,5
64987,144809,5
65190,144805,5
65190,144809,4
65178,144805,5
65245,144806,5
65183,144799,6
65181,144804,4
65179,144807,4
65381,144816,5
65192,144819,5
65183,144802,5
65174,144777,5
65336,144792,4
65174,144789,5
65170,144806,5
65167,144784,5
65224,144782,4
65178,144792,4
65179,144799,5
65177,144805,5
65196,144739,5
65194,144839,4
65216,144878,5
65226,144897,5
65235,144715,5
65231,144892,5
65233,144891,5
65224,144878,4
65221,144657,5
65213,144842,5
65199,144817,6
65183,144789,4
65154,144779,4
65124,144718,5
65097,144673,5
65062,144623,5
65032,144746,4
64999,144493,5
64967,144447,5
64936,144403,5
64921,144575,5
64895,144342,4
64884,144324,5
64873,144309,5
64875,144383,5
64870,144307,4
64874,144297,4
64877,144311,5
64866,144317,5
64870,144310,5
64869,144307,4
64863,144283,6
64859,144284,7
64849,144282,2
64844,144286,5
64868,144300,4
64866,144313,5
64895,144330,5
64903,144356,5
64923,144368,5
64926,144403,4
64950,144424,5
64967,144453,5
64972,144472,5
64986,144490,5
64995,144499,4
65004,144512,5
65010,144526,5
65021,144557,5
65050,144578,5
65054,144582,4
65062,144598,5
65064,144613,5
65063,144594,5
65066,144604,4
65059,144607,4
65064,144613,6
65061,144610,4
65080,144620,5
65071,144632,4
65078,144625,5
65086,144635,5
65090,144649,5
65100,144661,5
65108,144675,4
65112,144689,5
65116,144706,5
65115,144701,5
65126,144713,5
65121,144711,4
65125,144714,5
65130,144719,5
65141,144735,5
65142,144754,5
65150,144751,4
65152,144732,5
65138,144715,5
65136,144718,5
65137,144714,5
65124,144699,4
65113,144682,5
65080,144647,6
65083,144642,4
65084,144636,4
65075,144627,4
65073,144613,5
65073,144618,5
65078,144609,5
65061,144607,4
65053,144580,5
65036,144541,5
65021,144522,5
65000,144494,5
64994,144480,4
64986,144473,5
64975,144469,5
64964,144444,5
64956,144426,5
64950,144401,4
64919,144366,5
64900,144319,5
64863,144284,5
64850,144233,5
64825,144197,4
64796,144149,5
64672,144108,5
64748,144070,6
64708,144007,4
64669,143933,4
64444,143870,5
64597,143819,5
64576,143786,5
64550,143753,4
64373,143735,4
64535,143726,5
64533,143713,5
64515,143695,5
64592,143672,4
64503,143672,5
64506,143671,5
64503,143675,5
64713,143669,5
64515,143690,4
64517,143682,5
64512,143697,5
64678,143683,5
64518,143693,5
64529,143722,5
64531,143717,4
64589,143737,5
64548,143760,5
64564,143776,5
64579,143793,4
64582,143734,5
64606,143831,5
64619,143859,5
64631,143887,5
64644,143728,4
64649,143915,5
64653,143931,5
64672,143942,5
64674,143758,5
64685,143969,4
64686,143968,5
64698,143984,5
64688,144032,5
64703,143987,4
64708,144006,5
64720,144007,6
64715,144216,4
64735,144025,5
64732,144040,4
64740,144043,7
64737,144248,3
64749,144054,5
64752,144067,5
64751,144068,4
64748,144141,5
64744,144061,5
64735,144055,5
64740,144049,5
64736,144035,4
64722,144013,5
64703,143984,5
64693,143976,5
64694,143968,5
64676,143964,4
64676,143955,5
64682,143944,5
64681,143955,5
64683,143958,5
64683,143958,4
64679,143959,5
64679,143956,5
64680,143951,5
64683,143947,4
64686,143961,4
64691,143971,6
64688,143970,4
64685,143969,5
64693,143963,4
64684,143973,5
64696,143971,5
64685,143972,5
64687,143977,5
64682,143972,4
64688,143970,5
64690,143966,5
64681,143958,5
64684,143960,5
64687,143956,4
64688,143963,5
64682,143973,5
64675,143977,5
64685,143956,5
64687,143971,4
64689,143946,5
64671,143949,5
64670,143939,5
64663,143929,5
64650,143908,4
64646,143888,5
64633,143889,5
64633,143884,5
64635,143875,4
64628,143866,4
64624,143849,5
64615,143843,5
64607,143846,5
64605,143849,4
64615,143840,5
64610,143845,5
64612,143833,5
64607,143828,5
64603,143817,4
64591,143804,5
64590,143786,5
64579,143773,5
64572,143776,5
64563,143766,4
64561,143773,5
64567,143771,5
64565,143765,5
64566,143773,5
64569,143766,4
64567,143768,5
64555,143760,5
64554,143756,5
64559,143763,5
64565,143740,4
64556,143746,5
64557,143753,5
64556,143745,5
64556,143752,4
64544,143751,4
64562,143745,5
64558,143754,5
64554,143749,5
64438,143750,4
64558,143746,5
64558,143748,5
64552,143739,5
64342,143732,5
64529,143727,4
64538,143724,5
64518,143701,4
64395,143701,5
64513,143675,5
64501,143674,6
64499,143667,3
64603,143657,5
64487,143643,5
64480,143642,5
64483,143647,4
64706,143657,5
64496,143660,5
64499,143650,5
64501,143662,5
64622,143656,4
64507,143667,5
64513,143681,5
64502,143661,5
64527,143652,4
64496,143654,4
64489,143653,5
64486,143642,5
64484,143526,5
64477,143628,4
64469,143617,5
64455,143599,6
64446,143399,4
64445,143575,5
64430,143565,4
64430,143558,5
64427,143375,5
64420,143536,5
64424,143533,5
64427,143547,5
64426,143629,4
64422,143517,5
64401,143499,5
64391,143484,5
64378,143680,4
64374,143461,5
64360,143446,5
64356,143433,5
64361,143591,5
64346,143415,4
64343,143409,5
64337,143396,5
64331,143441,5
64328,143397,4
64328,143384,4
64318,143379,5
64324,143370,6
64310,143372,4
64324,143381,4
64323,143365,5
64316,143363,5
64308,143360,5
64306,143348,5
64311,143349,4
64305,143347,5
64309,143353,5
64301,143336,5
64299,143336,5
64292,143333,4
64288,143323,5
64291,143325,5
64291,143329,5
64281,143312,5
64288,143330,4
64296,143320,5
64291,143329,5
64291,143342,5
64312,143356,5
64306,143341,4
64303,143341,5
64301,143337,5
64298,143340,6
64298,143325,3
64285,143329,4
64294,143329,5
64288,143328,5
64292,143324,5
64294,143331,4
64290,143336,5
64288,143332,5
64280,143325,5
64285,143314,5
64273,143305,4
64278,143304,5
64276,143293,5
64278,143297,5
64262,143296,5
64274,143301,4
64279,143303,5
64275,143284,5
64269,143293,5
64267,143294,5
64264,143283,5
64255,143274,4
64255,143282,5
64261,143276,5
64261,143287,6
64253,143269,3
64243,143246,5
64233,143237,5
64228,143212,5
64213,143207,4
64212,143188,4
64191,143141,5
64173,143133,5
64167,143128,5
64145,143095,4
64139,143082,5
64136,143081,5
64154,143081,5
64152,143093,5
64146,143087,4
64146,143079,5
64123,143060,5
64137,143056,5
64127,143057,5
64127,143062,4
64120,143057,6
64122,143058,4
64094,143058,5
64128,143064,5
64134,143068,4
64123,143056,5
63961,143034,5
64103,143021,5
64083,143000,5
64074,142960,4
63850,142923,5
64036,142910,5
64013,142876,5
64015,142870,4
63972,142869,5
64014,142870,5
64005,142878,5
64018,142884,5
64177,142876,4
64009,142862,5
64017,142877,5
64015,142877,5
64239,142879,5
64020,142890,4
64027,142896,5
64021,142891,6
64114,142896,4
64022,142899,5
64022,142879,4
64017,142878,5
64023,142862,5
64006,142866,5
64005,142853,5
64003,142855,4
64005,142711,5
64004,142848,5
63995,142842,5
63993,142847,5
63987,142639,4
63981,142815,5
63979,142820,5
63975,142815,5
63973,142738,4
63982,142810,5
63974,142801,5
63973,142805,5
63962,142918,5
63957,142796,4
63964,142799,5
63965,142790,5
63976,143034,6
63992,142834,4
63999,142846,4
64011,142865,5
64028,143007,5
64022,142889,5
64034,142903,5
64039,142902,4
64045,142945,5
64051,142935,5
64049,142930,5
64058,142931,5
64067,142938,4
64052,142939,5
64058,142939,5
64067,142952,5
64068,142954,4
64070,142957,4
64076,142964,5
64081,142964,5
64078,142968,5
64090,142987,5
64097,142997,4
64099,143007,5
64098,143000,5
64104,143002,5
64106,143015,4
64113,143022,5
64109,143033,5
64120,143044,5
64120,143059,5
64133,143066,4
64134,143067,5
64135,143078,5
64136,143083,5
64152,143080,5
64148,143096,4
64154,143089,5
64152,143092,5
64146,143085,5
64131,143058,5
64125,143048,4
64111,143018,5
64093,142986,5
64072,142946,5
64059,142944,4
64061,142931,5
64032,142907,4
64034,142903,5
64027,142888,5
64026,142883,4
64015,142879,5
64031,142896,5
64039,142908,5
64041,142926,5
64040,142913,4
64052,142919,5
64059,142926,5
64050,142927,5
64047,142932,5
64050,142937,4
64052,142930,5
64056,142937,5
64051,142936,5
64057,142940,5
64055,142942,4
64063,142944,5
64070,142952,5
64068,142968,5
64082,142970,5
64075,142985,4
64079,142994,6
64087,143000,4
64087,143003,5
64105,143014,4
64104,143024,4
64122,143046,5
64139,143073,5
64140,143076,5
64151,143072,4
64140,143070,5
64135,143068,5
64144,143078,5
64128,143067,5
64132,143052,4
64077,143051,5
64123,143053,5
64127,143056,5
64125,143062,5
63967,143056,4
64138,143069,5
64140,143065,5
64134,143073,5
63929,143061,5
64126,143064,4
64136,143065,5
64140,143065,6
64125,143074,4
64144,143092,5
64147,143106,4
64162,143093,5
64319,143102,5
64161,143104,5
64166,143131,5
64171,143132,4
64395,143144,5
64182,143147,5
64178,143141,5
64183,143136,4
64257,143116,4
64171,143121,5
64159,143109,5
64156,143100,5
64172,143094,4
64157,143113,5
64156,143111,5
64154,143114,5
64165,142984,5
64178,143147,4
64189,143170,5
64203,143175,5
64218,143003,5
64212,143209,5
64221,143216,4
64245,143237,5
64243,143179,5
64246,143252,5
64247,143244,5
64237,143241,4
64253,143390,5
64246,143247,5
64243,143261,5
64256,143277,5
64251,143510,4
64275,143299,5
64278,143302,5
64290,143327,5
64292,143439,4
64293,143335,4
64300,143332,5
64293,143326,5
64295,143357,5
64298,143345,5
64303,143337,4
64310,143345,5
64303,143356,5
64322,143366,5
64325,143377,4
64332,143393,5
64355,143423,5
64366,143452,5
64374,143460,5
64373,143462,4
64370,143457,5
64370,143470,5
64380,143466,5
64396,143506,5
64418,143541,4
64415,143545,5
64429,143558,5
64448,143578,5
64450,143596,5
64452,143598,4
64473,143629,6
64493,143656,4
64517,143699,5
64529,143717,4
64542,143743,6
64541,143749,3
64553,143777,5
64574,143798,5
64593,143831,4
64604,143848,5
64609,143876,5
64635,143900,5
64650,143926,5
64663,143954,4
64685,143984,5
64678,143989,5
64702,144002,5
64706,144010,5
64703,144026,4
64717,144030,5
64716,144028,5
64723,144042,5
64718,144052,5
64731,144061,4
64740,144068,5
64731,144079,6
64762,144124,4
64773,144136,5
64772,144151,4
64788,144163,5
64803,144175,5
64801,144185,5
64806,144196,4
64809,144215,4
64819,144217,5
64845,144242,5
64850,144271,5
64873,144304,4
64886,144333,5
64910,144366,5
64942,144418,5
64962,144464,5
64987,144506,4
65016,144552,5
65036,144580,5
65061,144614,5
65078,144646,5
65093,144686,4
65130,144724,5
65140,144758,5
65167,144795,6
65197,144847,4
65218,144882,4
65246,144916,5
65255,144943,5
65200,144961,5
65276,144961,5
65278,144981,4
65285,144985,5
65124,144990,5
65297,145013,5
65314,145018,4
65325,145053,4
65131,145076,5
65349,145100,5
65370,145125,5
65373,145158,4
65390,145174,5
65412,145199,5
65425,145223,5
65441,145272,5
65645,145292,5
65480,145318,4
65496,145340,5
65498,145346,5
65720,145343,6
65500,145340,3
65510,145352,5
65512,145350,5
65602,145370,5
65519,145384,5
65528,145405,4
65564,145456,5
65608,145478,5
65622,145562,5
65660,145618,5
65696,145669,4
65725,145564,5
65735,145759,5
65771,145782,5
65780,145815,5
65802,145623,4
65797,145847,5
65806,145861,5
65817,145869,5
65825,145833,4
65846,145922,6
65867,145965,4
65894,146017,5
65930,146213,5
65940,146080,6
65947,146092,3
65949,146098,5
65958,146340,5
65966,146111,5
65954,146098,4
65939,146065,5
65926,146158,5
65909,146014,5
65887,145985,5
65868,145979,4
65866,145982,5
65849,145914,5
65827,145884,5
65825,145894,5
65827,145885,4
65812,145870,5
65811,145863,5
65812,145868,5
65813,145882,4
65810,145870,4
65808,145868,6
65810,145852,4
65789,145849,5
65785,145816,4
65780,145809,5
65770,145804,5
65765,145790,5
65769,145791,5
65762,145786,4
65754,145783,5
65763,145781,5
65761,145779,5
65769,145783,5
65755,145771,4
65746,145745,5
65712,145696,5
65678,145639,5
65639,145561,5
65588,145493,4
65553,145431,5
65534,145403,5
65511,145367,5
65497,145351,5
65491,145329,4
65460,145286,5
65449,145288,6
65443,145261,4
65429,145261,4
65441,145266,4
65443,145273,5
65448,145274,5
65452,145285,5
65476,145315,4
65487,145333,5
65485,145346,5
65493,145328,5
65476,145324,5
65479,145323,4
65481,145324,5
65478,145312,5
65481,145320,5
65470,145316,5
65480,145302,4
65472,145306,5
65458,145288,5
65445,145262,5
65428,145232,5
65411,145217,4
65407,145197,5
65380,145162,5
65359,145116,6
65340,145088,4
65317,145052,4
65305,145033,5
65291,145020,5
65291,145026,5
65295,145026,5
65293,145017,4
65291,145020,5
65297,145009,5
65296,145022,5
65282,145002,4
65273,144985,5
65252,144937,5
65224,144886,5
65197,144848,5
65158,144803,4
65105,144793,5
65152,144780,5
65150,144786,5
65151,144785,5
64995,144785,5
65143,144773,4
65138,144755,5
65131,144749,5
64906,144718,5
65112,144702,4
65089,144672,5
65059,144625,5
65021,144592,5
65007,144528,5
64979,144486,4
64943,144429,5
65075,144372,5
64885,144323,5
64862,144294,5
64858,144290,4
65075,144286,5
64854,144278,5
64837,144235,5
64802,144203,4
64901,144200,4
64801,144201,5
64791,144198,5
64806,144206,5
64809,144177,4
64793,144186,6
64799,144192,4
64795,144191,5
64788,144028,5
64788,144171,4
64780,144171,5
64783,144165,5
64790,143979,5
64797,144184,5
64795,144182,4
64792,144189,5
64802,144124,5
64805,144203,5
64811,144220,5
64819,144229,4
64813,144353,5
64819,144218,5
64818,144220,5
64817,144219,5
64818,144432,4
64809,144204,5
64813,144203,5
64818,144210,5
64813,144335,4
64837,144232,4
64814,144213,6
64813,144217,4
64806,144224,5
64802,144193,4
64808,144184,5
64808,144180,5
64806,144202,5
64819,144223,5
64821,144223,4
64813,144193,5
64802,144189,5
64809,144189,5
64807,144180,5
64796,144164,4
64788,144147,5
64796,144150,5
64793,144169,5
64815,144196,5
64818,144210,4
64818,144193,5
64821,144184,5
64802,144163,5
64784,144148,5
64788,144132,4
64770,144100,5
64737,144053,7
64698,143984,3
64642,143883,4
64601,143812,4
64574,143767,5
64559,143761,5
64546,143744,5
64541,143734,4
64536,143705,5
64517,143675,5
64509,143672,5
64501,143651,5
64484,143640,4
64482,143642,5
64484,143637,5
64478,143626,5
64474,143601,5
64438,143565,4
64433,143556,5
64428,143544,5
64417,143521,5
64401,143474,5
64356,143411,7
64310,143321,2
64301,143304,5
64286,143320,5
64296,143325,5
64297,143333,4
64287,143329,5
64279,143302,5
64278,143309,5
64294,143315,4
64306,143354,4
64314,143373,5
64318,143346,5
64307,143343,5
64312,143359,4
64315,143371,5
64316,143368,5
64326,143378,5
64329,143393,5
64332,143384,4
64330,143388,5
64333,143383,5
64326,143371,5
64321,143359,5
64316,143366,5
64317,143359,4
64303,143338,5
64298,143334,5
64286,143310,5
64292,143304,4
64265,143298,5
64268,143284,5
64229,143273,5
64245,143248,5
64234,143232,4
64229,143221,5
64075,143205,5
64217,143198,5
64201,143181,5
64189,143160,4
63986,143140,5
64162,143088,5
64131,143049,5
64117,143022,4
64039,143008,4
64100,143010,6
64109,143017,4
64102,143011,5
64238,143000,4
64095,142988,7
64091,142994,3
64082,142992,5
64307,142994,5
64089,142985,4
64094,143004,5
64089,143001,5
64200,142990,5
64086,142992,5
64073,142974,4
64064,142951,5
64073,142931,5
64048,142913,5
64028,142893,5
64024,142881,4
64013,142752,5
64011,142861,5
64000,142848,5
63995,142838,5
63982,142627,4
63971,142806,5
63971,142794,6
63962,142788,4
63975,142678,4
63963,142795,4
63978,142796,5
63965,142795,5
63972,142916,5
63968,142791,4
63967,142783,5
63962,142776,5
63962,142980,5
63944,142749,5
63932,142723,4
63922,142700,5
63913,142834,5
63901,142672,5
63884,142649,5
63887,142639,4
63886,142674,5
63874,142617,5
63867,142616,5
63862,142604,5
63847,142571,4
63813,142502,5
63786,142481,5
63789,142489,6
63792,142483,4
63776,142484,4
63766,142434,5
63738,142411,5
63725,142367,5
63703,142327,4
63682,142315,4
63685,142311,5
63679,142308,5
63672,142300,5
63667,142289,4
63670,142293,5
63670,142303,5
63678,142304,5
63684,142300,5
63696,142327,4
63713,142367,5
63728,142382,5
63737,142381,5
63717,142359,5
63715,142342,5
63696,142310,4
63690,142321,5
63698,142339,5
63713,142341,6
63701,142314,3
63671,142275,5
63660,142250,5
63641,142229,5
63639,142256,5
63664,142291,4
63697,142363,5
63787,142480,5
63876,142648,5
63967,142783,4
64034,142860,4
64041,142894,5
64092,142973,5
64149,143066,5
64202,143146,4
64238,143215,5
64274,143283,5
64326,143355,5
64364,143409,5
64385,143434,4
64396,143450,6
64397,143460,4
64408,143478,5
64414,143494,5
64418,143491,4
64430,143501,5
64424,143503,5
64408,143494,5
64402,143485,5
64403,143471,4
64389,143456,5
64397,143462,5
64392,143464,5
64391,143463,5
64398,143475,4
64405,143490,5
64412,143510,5
64427,143533,5
64443,143541,4
64446,143560,4
64461,143579,5
64478,143607,5
64490,143628,5
64510,143654,4
64499,143696,5
64547,143740,6
64559,143754,4
64582,143792,5
64452,143811,4
64606,143820,5
64615,143827,5
64617,143838,5
64429,143842,5
64616,143816,4
64598,143797,5
64609,143798,5
64537,143805,5
64594,143790,5
64577,143757,4
64562,143738,5
64703,143723,5
64545,143709,5
64524,143699,5
64528,143698,4
64748,143685,5
64518,143684,5
64517,143674,5
64506,143666,4
64604,143647,4
64501,143657,5
64494,143635,6
64499,143630,4
64518,143635,4
64503,143641,5
64498,143643,5
64506,143664,5
64512,143516,5
64510,143658,4
64505,143657,5
64513,143655,5
64507,143453,5
64503,143660,5
64492,143650,4
64498,143645,5
64502,143530,5
64492,143626,5
64486,143613,5
64481,143602,4
64475,143722,5
64468,143586,5
64461,143585,5
64445,143563,5
64431,143753,4
64424,143523,5
64414,143503,5
64398,143466,6
64381,143596,3
64366,143434,4
64365,143428,5
64364,143432,5
64358,143466,5
64367,143415,4
64361,143412,5
64367,143416,5
64362,143426,5
64365,143434,5
64371,143444,4
64373,143458,5
64375,143458,5
64374,143460,5
64382,143460,5
64374,143444,4
64384,143449,5
64372,143450,5
64380,143441,5
64370,143444,5
64358,143426,5
64352,143400,4
64343,143374,5
64331,143360,5
64318,143363,5
64304,143334,4
64301,143327,5
64281,143310,5
64283,143298,5
64276,143285,4
64271,143285,4
64275,143293,5
64280,143291,5
64276,143299,5
64283,143305,4
64286,143311,5
64292,143322,5
64288,143325,5
64289,143309,5
64274,143302,4
64276,143288,5
64265,143269,5
64251,143233,5
64221,143190,5
64201,143166,4
64172,143121,6
64154,143084,4
64129,143037,5
64099,143009,5
64085,142978,4
64064,142948,5
64051,142928,5
64032,142893,5
64023,142881,5
64012,142855,4
63999,142829,5
63967,142785,5
63957,142769,5
63935,142737,5
63912,142698,4
63893,142686,5
63907,142683,5
63904,142674,5
63901,142682,4
63903,142692,5
63920,142725,5
63933,142748,5
63947,142756,5
63959,142761,4
63956,142782,5
63955,142796,6
63992,142810,4
63989,142837,5
64006,142857,4
64030,142880,5
64029,142904,5
64038,142915,5
64040,142925,5
64056,142932,4
64064,142947,5
64058,142947,5
64058,142953,5
64065,142965,5
64076,142968,4
64086,142987,5
63959,143005,5
64100,143016,5
64116,143048,5
64128,143072,4
63958,143114,5
64166,143130,5
64188,143158,5
64190,143169,4
64101,143171,4
64216,143215,5
64217,143221,5
64227,143231,5
64363,143250,4
64247,143258,5
64263,143277,5
64268,143287,5
64479,143283,5
64277,143292,4
64280,143305,5
64282,143317,5
64413,143341,5
64306,143369,5
64323,143400,4
64354,143447,5
64409,143490,5
64406,143533,5
64445,143581,5
64470,143616,5
64476,143533,4
64505,143694,5
64526,143720,5
64545,143743,6
64557,143587,3
64570,143778,5
64579,143803,5
64583,143827,5
64605,143670,4
64614,143856,4
64614,143855,5
64611,143879,5
64617,143962,5
64625,143877,4
64628,143893,5
64637,143892,5
64635,144117,5
64649,143920,5
64660,143943,4
64672,143947,5
64682,144145,5
64707,144010,5
64711,144026,5
64725,144055,4
64732,144094,5
64738,144064,5
64734,144069,5
64740,144079,5
64745,144080,5
64741,144080,4
64749,144077,5
64739,144071,5
64739,144071,5
64738,144079,4
64738,144074,5
64743,144066,5
64738,144067,5
64744,144087,5
64745,144070,4
64736,144064,5
64739,144075,5
64744,144081,5
64747,144068,4
64730,144052,5
64711,144035,5
64709,144012,5
64704,144015,5
64709,144024,4
64698,144010,5
64696,144011,6
64693,144003,4
64688,143996,5
64680,143979,4
64692,143983,7
64691,144003,3
64698,144012,5
64700,144018,5
64708,144007,4
64684,143990,5
64682,143998,5
64691,143972,5
64679,143978,5
64678,143966,4
64669,143963,5
64662,143947,5
64651,143942,5
64650,143926,5
64653,143928,4
64644,143909,5
64646,143907,5
64642,143904,5
64619,143885,4
64626,143883,4
64622,143887,5
64622,143887,6
64620,143887,4
64621,143892,4
64630,143897,5
64633,143916,5
64646,143923,5
64646,143939,5
64656,143936,4
64647,143942,5
64660,143955,5
64659,143945,5
64653,143943,5
64661,143953,4
64667,143946,5
64666,143964,5
64678,143974,5
64682,143988,5
64693,143995,4
64689,144012,5
64695,144022,5
64714,144027,5
64720,144045,5
64728,144061,4
64736,144062,5
64728,144053,5
64723,144039,6
64722,144044,3
64708,144037,4
64708,144033,5
64716,144036,5
64717,144035,5
64582,144032,4
64710,144040,5
64709,144036,5
64713,144032,5
64518,144030,5
64706,144031,4
64705,144043,5
64715,144025,5
64596,144024,5
64709,144033,5
64723,144043,4
64725,144050,5
64844,144057,5
64735,144077,5
64743,144085,5
64753,144100,5
64981,144109,4
64759,144128,5
64774,144149,5
64786,144149,6
64925,144176,3
64810,144197,5
64829,144218,5
64844,144253,5
64887,144285,4
64876,144305,4
64881,144316,5
64889,144326,5
64895,144238,5
64904,144343,4
64906,144354,5
64920,144376,5
64932,144208,5
64939,144398,5
64941,144413,4
64956,144440,5
64960,144254,5
64968,144451,5
64973,144475,5
64994,144492,5
65007,144603,5
65016,144532,4
65013,144527,5
65008,144544,5
65020,144758,4
65026,144532,5
65015,144513,5
65005,144507,5
65000,144676,5
64999,144502,4
64992,144496,5
64978,144485,5
64974,144529,5
64968,144467,4
64966,144462,4
64972,144450,5
64973,144467,5
64982,144484,5
64989,144497,4
64994,144496,5
64985,144497,5
64991,144491,5
64989,144488,5
64977,144478,4
64993,144494,5
64991,144492,6
64996,144493,4
64985,144501,5
64991,144508,4
65005,144496,5
64994,144510,5
65005,144504,5
64992,144500,5
64992,144496,4
64992,144487,5
64990,144484,5
64980,144472,5
64989,144476,5
64984,144478,4
64985,144490,5
64986,144490,5
64978,144467,5
64983,144469,4
64958,144436,4
64932,144381,5
64913,144366,5
64903,144354,5
64902,144343,4
64893,144335,5
64897,144336,5
64897,144334,6
64894,144335,4
64896,144341,4
64901,144346,5
64903,144347,5
64911,144361,5
64913,144388,5
64935,144399,4
64949,144432,5
64951,144449,5
64958,144444,5
64963,144457,5
64966,144452,4
64972,144460,5
64964,144456,5
64966,144458,5
64961,144445,5
64959,144438,4
64955,144428,5
64945,144430,5
64949,144430,5
64939,144433,5
64960,144434,4
64959,144444,5
64960,144451,5
64966,144451,6
64968,144444,3
64962,144450,5
64965,144441,5
64961,144450,5
64966,144439,5
64963,144450,4
64956,144441,5
64952,144432,5
64949,144426,5
64953,144427,5
64949,144428,4
64955,144437,5
64953,144432,5
64946,144443,5
64957,144436,5
64944,144448,4
64953,144439,5
64809,144431,5
64954,144438,5
64954,144436,5
64947,144445,5
64756,144453,4
64961,144445,5
64957,144432,5
64943,144438,4
64878,144437,4
64953,144435,5
64951,144443,5
64954,144444,5
65087,144441,4
64957,144437,5
64951,144436,5
64945,144441,5
65159,144430,5
64954,144428,4
64958,144448,5
64963,144451,5
65062,144463,5
64965,144472,5
64975,144464,4
64976,144482,5
65006,144485,5
64999,144520,5
65013,144528,5
65018,144541,4
65013,144409,7
65012,144532,3
65010,144531,5
64997,144523,5
65004,144316,4
65003,144520,5
65015,144552,5
65028,144557,5
65029,144468,4
65046,144595,4
65052,144605,5
65056,144617,5
65067,144779,5
65095,144676,4
65115,144715,5
65140,144755,5
65156,145010,5
65174,144801,5
65198,144845,4
65218,144903,5
65246,145063,5
65283,145000,5
65319,145064,5
65355,145127,4
65389,145208,5
65418,145219,6
65448,145263,4
65468,145310,5
65490,145343,4
65508,145361,5
65517,145371,5
65523,145392,5
65533,145410,4
65543,145426,4
65547,145445,5
65556,145464,5
65575,145486,5
65594,145516,4
65615,145560,5
65651,145598,5
65660,145618,5
65678,145661,5
65702,145693,4
65725,145719,5
65737,145752,5
65759,145783,5
65781,145827,5
65803,145867,4
65833,145909,5
65857,145949,5
65875,145988,5
65894,146001,5
65917,146040,4
65946,146093,5
65973,146117,5
65995,146189,5
66030,146234,5
66062,146288,4
66094,146339,5
66121,146389,5
66152,146445,5
66187,146491,4
66209,146535,4
66224,146554,5
66251,146598,5
66271,146606,5
66283,146639,4
66295,146661,5
66314,146693,5
66338,146730,5
66355,146780,5
66380,146816,5
66404,146856,4
66431,146899,5
66452,146943,5
66492,146985,5
66516,147043,4
66566,147102,5
66597,147159,5
66635,147205,5
66656,147253,5
66673,147288,4
66699,147329,5
66730,147377,5
66757,147415,5
66778,147474,5
66821,147518,4
66850,147597,5
66897,147662,5
66947,147737,5
66987,147807,4
67038,147879,4
67074,147955,5
67111,148008,5
67134,148049,5
67174,148102,4
67198,148144,6
67229,148202,4
67264,148245,5
67281,148292,5
67312,148331,4
67252,148355,5
67357,148408,5
67378,148428,5
67389,148449,5
67225,148470,4
67418,148482,5
67427,148503,5
67440,148521,5
67243,148529,5
67468,148562,4
67475,148594,5
67494,148611,5
67553,148654,5
67532,148693,5
67557,148723,4
67565,148749,5
67790,148772,6
67617,148819,4
67642,148858,4
67652,148860,4
67834,148851,5
67647,148837,5
67637,148841,5
67633,148828,4
67700,148849,5
67650,148858,5
67648,148843,5
67629,148848,5
67644,148790,4
67663,148885,5
67665,148895,5
67677,148917,5
67705,148782,5
67730,148998,4
67751,149020,5
67761,149039,5
67773,148845,5
67792,149111,5
67814,149132,4
67842,149190,5
67863,149265,5
67895,149264,6
67925,149290,3
67929,149317,4
67961,149545,5
67961,149365,5
67970,149389,5
67980,149405,4
67988,149621,5
67996,149422,5
67995,149415,5
67991,149429,5
68005,149487,4
68003,149430,5
68023,149436,5
68020,149456,5
68019,149451,5
68025,149466,4
68032,149477,5
68036,149486,5
68054,149498,5
68049,149509,5
68057,149498,5
68039,149489,4
68040,149493,5
68042,149501,5
68046,149502,6
68047,149500,3
68054,149503,5
68053,149497,5
68051,149508,5
68052,149506,4
68061,149503,4
68076,149544,5
68077,149564,5
68095,149570,5
68120,149594,4
68130,149626,5
68128,149632,5
68137,149648,5
68161,149659,5
68164,149677,4
68158,149684,5
68184,149688,5
68181,149703,5
68187,149707,5
68191,149718,4
68197,149724,6
68211,149749,4
68225,149775,5
68244,149783,5
68246,149803,6
68252,149809,3
68253,149805,5
68245,149798,5
68236,149787,5
68236,149774,4
68221,149776,5
68227,149780,5
68233,149794,5
68252,149794,4
68248,149809,5
68253,149825,5
68252,149831,5
68267,149824,5
68251,149817,4
68256,149813,5
68253,149807,5
68251,149801,5
68236,149800,5
68232,149785,4
68229,149778,5
68229,149764,6
68219,149757,4
68224,149759,5
68217,149751,4
68207,149749,5
68213,149746,5
68206,149744,5
68210,149738,5
68197,149737,4
68205,149737,5
68203,149731,5
68189,149722,5
68188,149718,4
68184,149700,4
68176,149683,5
68166,149675,5
68171,149679,5
68136,149672,4
68150,149653,5
68143,149631,5
68116,149610,5
67956,149592,5
68103,149578,4
68098,149578,5
68099,149582,5
67878,149545,6
68057,149496,6
68029,149455,2
67998,149396,5
67898,149336,5
67921,149268,5
67896,149227,5
67873,149202,4
68005,149170,5
67834,149142,5
67805,149103,5
67801,149076,5
68022,149083,4
67792,149091,5
67807,149100,5
67814,149118,5
67933,149148,4
67842,149172,4
67863,149180,5
67879,149209,5
67910,149225,5
67900,149246,5
67907,149248,4
67897,149230,5
67888,149080,5
67881,149218,6
67882,149211,3
67871,149200,5
67871,148977,5
67859,149182,5
67861,149184,5
67864,149183,5
67875,149123,4
67877,149215,5
67877,149220,5
67894,149242,5
67892,149379,4
67896,149244,5
67903,149243,5
67893,149244,5
67892,149492,5
67896,149248,4
67908,149251,5
67898,149255,5
67918,149382,5
67912,149261,4
67921,149268,6
67928,149279,4
67932,149313,5
67933,149309,5
67958,149320,4
67958,149324,5
67954,149327,5
67950,149330,5
67942,149326,5
67943,149323,4
67959,149328,5
67948,149323,5
67948,149308,5
67944,149313,5
67941,149312,4
67946,149300,5
67944,149307,5
67936,149289,5
67938,149292,5
67930,149286,4
67935,149295,5
67932,149295,5
67943,149304,5
67936,149309,4
67941,149299,4
67935,149304,6
67937,149313,4
67936,149300,5
67948,149317,4
67955,149308,5
67939,149307,5
67933,149298,5
67939,149288,5
67925,149290,4
67923,149278,5
67912,149277,5
67922,149272,5
67916,149256,5
67915,149254,4
67913,149254,5
67906,149238,5
67899,149230,5
67889,149199,5
67874,149203,4
67870,149199,5
67878,149206,5
67889,149224,5
67887,149209,5
67883,149216,4
67895,149222,5
67894,149223,6
67897,149226,4
67880,149210,4
67880,149188,4
67855,149169,5
67843,149122,5
67794,149081,5
67773,149033,4
67771,149025,5
67772,149031,5
67781,149056,5
67790,149064,5
67817,149108,4
67842,149132,5
67856,149182,5
67881,149201,5
67893,149231,5
67906,149220,4
67895,149226,5
67899,149223,5
67885,149203,5
67858,149166,5
67835,149120,4
67807,149074,5
67789,149035,5
67760,149019,5
67768,149016,5
67746,149012,4
67758,149016,5
67672,149038,5
67802,149065,5
67831,149112,4
67837,149136,5
67658,149179,5
67882,149201,5
67892,149226,5
67913,149243,4
67703,149268,5
67932,149276,5
67923,149262,5
67920,149257,5
67971,149252,4
67908,149248,5
67910,149238,5
67905,149236,5
68110,149222,5
67901,149233,5
67892,149224,4
67899,149230,5
68080,149225,5
67903,149250,5
67917,149257,4
67922,149272,5
68004,149301,5
67965,149327,5
67973,149345,4
67995,149369,4
68000,149297,5
67999,149391,5
68011,149396,5
68010,149403,4
68019,149230,5
68024,149414,5
68015,149403,5
68015,149411,5
68009,149174,4
67996,149385,5
67986,149368,5
67984,149352,5
67975,149387,5
67961,149333,4
67947,149324,6
67936,149295,4
67943,149512,5
67940,149297,5
67951,149306,4
67948,149302,5
67961,149530,5
67973,149340,5
67963,149334,5
67966,149316,4
67975,149387,5
67963,149318,5
67963,149331,5
67963,149312,4
67941,149294,4
67943,149265,5
67940,149266,5
67916,149260,5
67909,149242,4
67905,149236,5
67898,149241,5
67906,149227,5
67910,149225,5
67894,149217,4
67898,149216,5
67889,149216,5
67893,149219,5
67907,149228,5
67916,149256,4
67933,149272,5
67941,149297,5
67950,149317,5
67970,149353,5
67982,149362,4
67996,149380,5
68005,149392,5
68013,149387,5
68021,149391,5
68017,149409,4
68019,149405,5
68023,149408,5
68017,149409,5
68017,149406,4
68029,149408,4
68019,149390,5
68021,149412,5
68029,149410,6
68029,149415,3
68028,149414,5
68038,149420,5
68031,149424,5
68033,149435,5
68044,149435,4
68042,149439,5
68049,149452,5
68074,149462,5
68072,149491,5
68074,149479,4
68073,149482,5
68086,149505,5
68092,149523,5
68116,149532,5
68106,149542,4
68122,149556,5
68120,149565,5
68135,149570,5
68125,149556,4
68117,149555,5
68116,149546,4
68119,149548,5
68101,149536,5
68101,149525,6
68094,149505,3
68082,149491,5
68080,149474,5
68074,149461,5
68061,149456,4
68055,149452,5
68050,149435,5
68033,149418,5
68031,149409,5
68031,149401,4
68014,149383,5
68008,149361,5
67988,149339,5
67962,149303,5
67937,149268,4
67891,149224,5
67883,149178,5
67853,149124,5
67825,149061,5
67628,149016,4
67755,148949,6
67695,148850,4
67632,148753,5
67382,148692,4
67552,148610,6
67504,148548,3
67450,148450,5
67329,148373,5
67344,148304,4
67316,148263,5
67289,148224,5
67434,148182,5
67255,148155,5
67244,148153,4
67249,148132,5
67461,148096,5
67202,148053,5
67180,148031,5
67172,147993,4
67261,147966,5
67137,147962,5
67121,147921,5
67102,147882,5
67087,147801,4
67016,147731,5
66959,147642,6
66912,147549,4
66868,147332,4
66832,147421,4
66804,147372,5
66748,147306,5
66724,147039,5
66702,147225,4
66690,147211,5
66684,147196,5
66680,147122,5
66688,147218,5
66691,147200,4
66705,147230,5
66706,147370,5
66693,147213,5
66685,147208,5
66676,147181,4
66672,147404,5
66645,147143,5
66637,147118,5
66624,147090,5
66606,147190,4
66605,147069,5
66592,147040,5
66573,147004,6
66542,146974,4
66505,146898,4
66476,146873,5
66462,146845,5
66447,146794,5
66420,146746,4
66401,146722,4
66365,146674,5
66345,146629,5
66322,146594,5
66297,146560,4
66269,146510,5
66236,146449,5
66195,146386,5
66171,146346,5
66153,146320,4
66135,146302,5
66131,146295,5
66134,146266,5
66105,146250,5
66077,146190,5
66046,146128,4
66007,146072,5
65956,145974,5
65890,145852,6
65798,145694,3
65700,145554,5
65623,145410,5
65542,145286,5
65476,145170,5
65406,145049,4
65339,144969,5
65296,144903,5
65277,144877,5
65275,144859,4
65266,144858,4
65264,144849,5
65265,144854,5
65261,144843,5
65259,144857,4
65273,144867,5
65279,144879,5
65291,144899,5
65309,144921,5
65318,144966,4
65346,144986,6
65360,145018,4
65385,145046,5
65416,145105,5
65448,145153,4
65473,145202,5
65492,145239,5
65518,145272,5
65533,145297,5
65563,145343,4
65599,145405,5
65625,145433,5
65651,145474,5
65660,145516,5
65698,145540,4
65693,145564,5
65702,145563,5
65714,145566,5
65706,145567,4
65704,145558,5
65689,145559,5
65693,145551,5
65692,145544,5
65686,145544,4
65682,145547,5
65698,145556,6
65707,145589,4
65732,145637,5
65763,145671,4
65785,145707,5
65794,145704,5
65792,145710,5
65681,145718,5
65795,145701,4
65775,145708,5
65774,145693,5
65583,145685,5
65772,145685,5
65768,145666,4
65763,145678,5
65573,145673,5
65773,145676,5
65773,145679,4
65774,145687,4
65853,145697,5
65786,145724,5
65799,145736,5
65801,145755,4
66011,145759,5
65823,145769,5
65827,145784,6
65832,145796,4
66007,145808,4
65841,145823,5
65858,145835,5
65867,145848,5
65920,145841,5
65874,145857,4
65868,145864,5
65867,145854,5
65879,145778,5
65878,145854,5
65868,145852,4
65871,145838,5
65866,145661,5
65860,145831,5
65850,145818,5
65842,145813,4
65840,145581,4
65835,145794,5
65839,145785,5
65826,145788,5
65835,145825,3
65837,145782,5
65841,145784,5
65842,145789,5
65832,146001,4
65833,145790,5
65840,145792,5
65828,145795,5
65841,145991,5
65840,145815,4
65848,145809,5
65841,145802,5
65839,145859,5
65823,145771,5
65810,145753,4
65796,145718,5
65782,145706,5
65756,145675,5
65752,145668,5
65746,145660,4
65748,145654,5
65754,145658,5
65754,145672,5
65753,145647,5
65732,145635,5
65717,145593,4
65691,145576,5
65674,145547,5
65668,145519,4
65643,145468,4
65608,145425,5
65595,145404,5
65581,145400,5
65574,145379,4
65573,145360,5
65560,145372,5
65565,145382,5
65567,145378,5
65567,145374,4
65566,145363,5
65552,145348,5
65550,145341,5
65545,145327,5
65529,145317,4
65530,145302,5
65508,145280,5
65489,145231,5
65477,145210,5
65449,145178,4
65436,145162,6
65421,145144,4
65417,145129,5
65406,145121,5
65419,145131,4
65409,145132,5
65422,145150,5
65425,145161,5
65443,145188,4
65470,145222,5
65499,145269,5
65523,145333,5
65560,145368,5
65586,145405,4
65576,145402,5
65596,145421,5
65607,145442,5
65611,145443,5
65613,145456,4
65635,145498,5
65650,145510,5
65676,145564,5
65696,145591,5
65713,145630,4
65737,145664,5
65747,145674,6
65763,145700,4
65771,145708,5
65780,145713,4
65772,145714,5
65773,145711,5
65773,145697,5
65778,145700,4
65754,145701,4
65764,145700,5
65765,145699,5
65762,145704,5
65769,145709,4
65770,145711,5
65781,145709,5
65754,145718,5
65780,145725,5
65768,145708,4
65765,145677,5
65603,145694,5
65745,145669,5
65738,145654,5
65728,145635,4
65509,145617,5
65703,145586,5
65690,145569,5
65679,145558,5
65583,145527,4
65647,145498,5
65629,145484,5
65622,145490,5
65764,145478,5
65621,145471,4
65617,145460,5
65608,145453,5
65827,145449,5
65608,145454,4
65601,145439,4
65603,145441,5
65712,145445,5
65593,145441,5
65596,145443,4
65596,145429,6
65602,145431,4
65587,145435,5
65591,145439,5
65599,145437,6
65598,145311,3
65590,145442,5
65596,145426,5
65592,145424,5
65582,145222,4
65592,145409,5
65580,145410,5
65586,145415,5
65579,145290,5
65590,145402,4
65585,145392,5
65569,145377,5
65532,145446,5
65498,145259,5
65458,145188,4
65418,145144,5
65412,145361,5
65415,145124,5
65396,145109,4
65401,145112,4
65400,145250,6
65397,145103,4
65417,145133,5
65445,145198,4
65489,145285,7
65513,145296,3
65523,145299,5
65521,145292,5
65504,145264,4
65485,145236,5
65474,145216,5
65459,145197,5
65457,145185,5
65443,145168,4
65442,145166,5
65439,145168,5
65446,145181,5
65454,145205,5
65468,145196,4
65462,145214,5
65460,145207,5
65470,145215,5
65467,145217,5
65476,145230,4
65480,145246,5
65487,145260,6
65495,145268,4
65511,145288,4
65508,145284,4
65512,145288,5
65506,145290,5
65493,145267,5
65485,145230,4
65474,145226,5
65468,145219,5
65459,145198,5
65441,145186,5
65428,145174,4
65439,145173,5
65452,145186,5
65458,145199,5
65465,145221,5
65466,145228,4
65476,145242,5
65483,145244,5
65476,145231,5
65472,145214,5
65457,145186,4
65433,145169,5
65436,145178,5
65435,145160,6
65420,145142,4
65429,145157,4
65441,145170,5
65442,145183,5
65454,145188,5
65459,145205,4
65448,145204,5
65454,145212,5
65459,145214,5
65467,145233,5
65487,145273,4
65514,145316,5
65539,145357,5
65568,145381,5
65590,145423,5
65612,145456,4
65636,145493,5
65647,145519,5
65670,145546,5
65675,145556,5
65681,145554,5
65681,145548,4
65676,145558,5
65674,145545,5
65672,145562,6
65684,145585,3
65698,145601,5
65713,145613,5
65709,145616,5
65720,145621,4
65632,145615,4
65716,145618,5
65719,145620,5
65701,145615,5
65535,145616,4
65710,145608,5
65710,145617,5
65721,145629,5
65532,145653,5
65747,145677,4
65752,145674,5
65752,145673,5
65775,145670,5
65741,145671,5
65754,145676,4
65747,145670,6
65937,145653,4
65730,145649,5
65723,145638,5
65721,145627,4
65910,145624,5
65726,145642,5
65719,145624,5
65697,145599,5
65764,145595,4
65695,145598,5
65684,145575,5
65680,145581,5
65690,145514,4
65680,145576,4
65694,145591,5
65695,145592,5
65697,145414,5
65694,145590,4
65695,145585,5
65691,145583,5
65693,145385,5
65710,145618,5
65722,145645,4
65746,145673,5
65759,145715,6
65781,145751,4
65812,145784,5
65833,145809,4
65842,146017,5
65846,145831,5
65846,145833,5
65840,145824,5
65826,146037,4
65827,145803,5
65814,145795,5
65816,145809,5
65827,145886,5
65826,145817,4
65839,145834,5
65846,145844,5
65859,145855,5
65865,145864,4
65862,145889,4
65875,145896,5
65880,145910,5
65888,145936,5
65916,145950,4
65930,145987,5
65953,146021,5
65974,146063,6
65990,146085,4
66010,146112,4
66015,146124,5
66021,146137,5
66018,146139,5
66023,146122,5
66017,146141,4
66030,146145,5
66037,146144,5
66042,146168,5
66054,146179,5
66064,146203,4
66083,146231,5
66095,146240,5
66108,146254,5
66116,146277,5
66120,146284,4
66120,146287,5
66126,146283,5
66121,146291,5
66127,146286,5
66122,146293,4
66117,146282,5
66123,146292,5
66130,146291,5
66125,146297,4
66134,146308,5
66128,146304,5
66124,146291,5
66128,146290,5
66123,146292,4
66126,146286,5
66127,146288,5
66133,146300,5
66138,146313,5
66146,146337,4
66158,146362,5
66178,146374,5
66190,146395,5
66190,146392,5
66201,146409,4
66197,146425,5
66206,146432,5
66210,146437,5
66213,146440,5
66218,146446,5
66224,146451,4
66232,146475,5
66236,146482,5
66242,146493,4
66253,146511,5
66265,146526,5
66279,146551,5
66297,146572,5
66297,146583,4
66318,146607,5
66314,146613,5
66318,146623,5
66334,146636,5
66334,146637,4
66335,146643,5
66336,146638,5
66336,146637,5
66335,146647,5
66345,146656,4
66336,146645,5
66331,146633,5
66214,146635,5
66319,146614,5
66312,146620,4
66328,146643,6
66142,146640,4
66323,146628,5
66326,146640,4
66338,146671,4
66180,146662,5
66352,146680,5
66365,146707,5
66382,146725,4
66495,146753,5
66402,146752,5
66404,146760,5
66402,146755,5
66617,146756,4
66401,146761,5
66415,146781,5
66425,146789,5
66579,146811,5
66436,146819,4
66442,146819,5
66448,146827,5
66484,146842,5
66449,146842,5
66457,146844,4
66460,146845,5
66454,146739,6
66453,146844,4
66452,146845,5
66451,146841,4
66457,146667,5
66463,146870,5
66481,146888,5
66487,146903,5
66501,146746,4
66507,146926,5
66507,146933,5
66508,146937,5
66494,147016,4
66499,146913,5
66492,146894,5
66478,146885,5
66472,147099,5
66467,146871,4
66463,146872,5
66475,146875,5
66475,147041,5
66472,146900,5
66487,146901,4
66483,146900,5
66492,146954,5
66488,146894,5
66490,146906,7
66485,146901,2
66491,146902,5
66488,146905,5
66480,146881,5
66475,146889,5
66477,146876,4
66474,146883,5
66474,146871,5
66464,146863,5
66470,146859,4
66469,146874,4
66470,146868,5
66462,146862,5
66456,146856,5
66449,146832,4
66442,146830,5
66445,146846,5
66449,146840,5
66449,146851,5
66451,146857,5
66464,146867,4
66467,146870,5
66477,146883,5
66480,146883,5
66467,146884,4
66462,146857,5
66465,146865,5
66475,146867,5
66465,146861,5
66462,146864,4
66463,146872,5
66469,146869,5
66461,146856,5
66453,146858,5
66454,146848,4
66446,146845,5
66450,146839,5
66440,146832,5
66439,146839,4
66432,146821,5
66426,146820,6
66424,146808,4
66423,146797,5
66429,146803,4
66424,146805,7
66436,146822,3
66439,146833,5
66436,146829,5
66446,146820,4
66447,146833,5
66461,146837,5
66450,146861,5
66468,146875,5
66469,146876,4
66462,146863,5
66462,146866,5
66460,146868,5
66462,146865,5
66458,146859,4
66457,146874,5
66461,146869,5
66470,146882,5
66467,146867,4
66471,146867,4
66462,146868,5
66465,146867,6
66467,146884,4
66479,146898,4
66491,146926,5
66503,146936,5
66521,146961,5
66541,146995,5
66556,147038,4
66573,147045,5
66531,147054,5
66578,147048,5
66569,147041,5
66559,147020,4
66391,147006,5
66542,147000,5
66535,146988,5
66538,146979,5
66334,146986,4
66539,146989,5
66549,146998,5
66561,147013,5
66542,147036,5
66583,147058,4
66597,147076,5
66607,147100,5
66799,147125,6
66646,147161,3
66657,147194,4
66671,147217,5
66914,147240,5
66696,147244,5
66694,147248,4
66693,147243,5
66765,147213,5
66670,147191,5
66657,147174,5
66646,147149,4
66639,147119,5
66630,147145,5
66629,147131,5
66631,147133,5
66634,146984,4
66619,147124,5
66611,147108,5
66593,147082,5
66574,146840,5
66562,147011,5
66539,146992,4
66518,146961,5
66517,146906,5
66501,146942,6
66504,146923,3
66507,146940,5
66504,147111,5
66510,146956,5
66526,146973,4
66532,146994,4
66545,147242,5
66553,147013,5
66564,147027,5
66558,147019,4
66551,147103,5
66536,146990,5
66524,146951,5
66505,146924,5
66494,146924,4
66473,146888,5
66473,146881,5
66465,146874,5
66469,146873,5
66463,146884,4
66468,146888,6
66483,146891,4
66475,146902,5
66489,146911,5
66486,146921,4
66492,146924,5
66498,146922,5
66492,146918,5
66482,146882,5
66474,146879,4
66457,146870,5
66456,146862,5
66457,146870,5
66441,146847,4
66434,146834,4
66448,146850,5
66458,146866,5
66460,146878,5
66468,146898,4
66490,146911,5
66500,146942,5
66512,146946,5
66518,146963,5
66519,146967,4
66537,146983,5
66545,147000,6
66560,147023,4
66575,147046,5
66574,147054,4
66572,147048,5
66568,147048,5
66566,147030,5
66559,147037,5
66553,147018,4
66550,147004,5
66538,146998,5
66542,146983,5
66532,146986,5
66519,146969,4
66527,146960,5
66517,146955,5
66514,146966,5
66513,146959,4
66512,146954,4
66515,146947,5
66494,146897,5
66461,146859,5
66419,146786,4
66362,146696,5
66289,146563,5
66220,146460,6
66178,146429,4
66192,146442,4
66239,146545,5
66337,146713,5
66462,146910,5
66578,147082,5
66666,147193,4
66710,147246,5
66699,147219,5
66652,147137,5
66581,147036,5
66512,146902,4
66400,146748,5
66309,146586,5
66246,146488,5
66201,146431,4
66181,146396,4
66150,146359,5
66141,146351,5
66161,146356,5
66043,146375,5
66166,146377,4
66181,146412,5
66206,146439,5
66024,146452,6
66216,146468,3
66230,146464,5
66223,146443,5
66025,146405,5
66155,146335,5
66087,146207,4
66008,146099,5
66043,145975,5
65864,145866,5
65803,145770,5
65775,145715,4
65955,145661,5
65715,145630,5
65694,145590,5
65686,145551,5
65814,145544,4
65661,145532,5
65635,145479,5
65613,145421,5
65594,145320,4
65473,145176,5
65349,144989,4
65249,144813,5
65131,144538,5
65013,144421,4
64880,144211,5
64761,144027,5
64690,143754,5
64664,143880,5
64623,143831,4
64597,143780,5
64577,143536,5
64546,143688,5
64507,143616,5
64448,143527,5
64364,143432,4
64237,143171,5
64132,142972,5
64004,142767,5
63906,142791,4
63819,142452,5
63755,142343,5
63705,142266,5
63673,142374,5
63644,142163,4
63617,142121,6
63611,142112,4
63604,142168,5
63605,142094,4
63580,142054,4
63548,141990,5
63512,141923,5
63438,141799,5
63350,141637,4
63244,141481,5
63145,141320,5
63051,141173,5
62997,141073,5
62941,140962,4
62881,140863,5
62802,140746,5
62727,140615,5
62657,140486,5
62584,140360,4
62499,140209,5
62427,140104,5
62366,140024,5
62323,139931,5
62284,139856,4
62239,139769,5
62175,139663,7
62099,139541,3
62008,139388,5
61902,139192,4
61766,138980,5
61640,138757,5
61531,138571,5
61433,138420,4
61334,138269,4
61270,138158,5
61209,138048,5
61149,137941,5
61097,137854,4
61023,137751,5
60948,137605,5
60853,137455,5
60773,137298,5
60675,137146,4
60576,136960,5
60453,136757,5
60325,136557,5
60221,136368,5
60140,136239,4
60071,136114,5
59990,136000,5
59936,135905,5
59879,135797,5
59814,135716,4
59762,135616,5
59704,135515,5
59652,135415,5
59579,135308,5
59529,135197,4
59433,135036,5
59322,134843,5
59238,134695,5
59147,134540,4
59070,134393,4
58993,134264,5
58879,134077,5
58786,133937,5
58726,133838,4
58681,133756,5
58623,133651,5
58559,133541,5
58471,133402,5
58402,133285,5
58342,133189,4
58281,133096,5
58240,133008,5
58171,132917,5
58139,132842,4
58093,132768,5
58037,132662,5
57953,132544,5
57905,132462,5
57862,132398,4
57835,132325,5
57673,132266,5
57751,132187,5
57714,132150,5
57711,132139,4
57526,132133,5
57694,132126,5
57704,132130,5
57691,132125,4
57616,132106,4
57680,132080,5
57658,132061,5
57651,132043,5
57751,132018,4
57622,131996,6
57605,131958,4
57577,131936,5
57760,131912,5
57557,131891,4
57542,131843,5
57532,131833,5
57611,131804,5
57500,131806,5
57501,131788,4
57494,131765,5
57504,131746,5
57474,131735,5
57485,131764,5
57488,131760,4
57484,131659,5
57486,131773,5
57487,131782,5
57497,131774,5
57500,131626,4
57507,131802,5
57520,131823,6
57539,131841,4
57544,131742,4
57565,131899,4
57595,131942,5
57625,132017,5
57669,132189,5
57726,132182,4
57770,132245,5
57817,132334,5
57868,132583,5
57884,132456,5
57921,132511,4
57969,132584,5
58010,132784,5
58050,132729,5
58101,132820,5
58170,132928,4
58218,133043,5
58273,133109,5
58316,133163,5
58338,133211,5
58367,133254,4
58389,133292,5
58412,133338,5
58439,133361,6
58454,133395,4
58455,133392,4
58467,133430,5
58488,133451,5
58506,133497,5
58518,133503,4
58554,133566,4
58596,133651,5
58643,133735,5
58687,133794,5
58719,133846,4
58744,133890,5
58766,133908,5
58779,133953,5
58791,133966,5
58799,133981,4
58805,133989,10
58818,134016,5
58823,134020,5
58837,134060,5
58869,134103,4
58897,134150,5
58921,134179,5
58927,134201,6
58933,134206,3
58931,134205,5
58944,134215,5
58937,134200,5
58949,134214,5
58949,134238,4
58972,134256,5
58976,134294,5
59001,134325,5
59018,134346,4
59045,134392,4
59070,134426,5
59069,134429,5
59075,134439,5
59080,134464,4
59091,134485,5
59112,134492,5
59111,134499,5
59116,134502,5
59113,134497,4
59114,134493,6
59124,134504,4
59125,134525,5
59151,134579,5
59184,134626,6
59218,134690,3
59253,134759,5
59303,134816,5
59328,134874,5
59354,134921,4
59385,134981,5
59424,135033,5
59457,135080,5
59494,135140,5
59534,135200,4
59550,135259,5
59582,135290,5
59603,135319,5
59632,135371,4
59660,135435,4
59705,135496,5
59738,135581,5
59802,135667,5
59857,135794,4
59924,135881,5
59951,135963,6
60018,136028,4
60060,136092,5
60090,136168,4
59995,136213,5
60162,136267,5
60188,136317,5
60205,136339,5
60031,136359,4
60219,136377,5
60227,136377,5
60227,136373,5
60151,136356,5
60197,136320,4
60182,136284,5
60153,136254,5
60265,136234,5
60151,136249,5
60151,136247,4
60152,136244,5
60347,136247,5
60161,136257,5
60167,136277,4
60178,136299,4
60297,136342,5
60220,136382,6
60243,136411,4
60270,136443,4
60300,136455,5
60278,136477,5
60284,136481,5
60288,136487,5
60301,136374,4
60296,136507,5
60302,136487,5
60287,136493,5
60289,136306,5
60275,136458,4
60267,136450,5
60262,136437,5
60256,136327,5
60255,136437,5
60262,136443,4
60269,136452,5
60285,136576,5
60283,136502,5
60319,136536,5
60339,136583,4
60373,136856,5
60405,136703,5
60432,136731,6
60432,136739,3
60440,136891,4
60461,136785,5
60479,136813,5
60499,136861,5
60521,136940,4
60567,136970,5
60619,137059,5
60677,137170,5
60732,137268,5
60799,137366,4
60860,137481,5
60926,137595,5
60999,137712,5
61068,137828,5
61134,137944,4
61191,138032,5
61242,138126,5
61289,138204,5
61326,138271,5
61354,138335,5
61389,138380,4
61427,138436,5
61457,138500,5
61493,138553,5
61520,138598,4
61534,138611,5
61544,138632,5
61547,138639,5
61557,138660,4
61581,138704,4
61597,138720,5
61610,138730,5
61621,138767,5
61632,138788,4
61663,138836,5
61681,138873,5
61704,138922,5
61732,138965,5
61759,139014,4
61798,139081,5
61832,139144,5
61874,139216,5
61903,139268,5
61931,139307,4
61952,139332,6
61968,139357,4
61979,139376,5
61993,139390,5
61996,139416,4
62003,139437,5
62015,139438,5
62018,139456,5
62029,139470,5
62037,139479,4
62043,139500,5
62051,139504,5
62060,139524,5
62074,139536,4
62083,139548,4
62087,139572,5
62115,139590,5
62113,139597,5
62115,139604,4
62116,139603,5
62117,139610,5
62141,139650,5
62146,139659,5
62146,139669,4
62158,139688,5
62162,139689,6
62160,139694,4
62177,139709,5
62184,139727,4
62195,139763,5
62209,139779,5
62224,139792,5
62227,139800,5
62238,139828,4
62257,139851,5
62275,139895,5
62295,139935,5
62297,139960,5
62328,139992,4
62352,140016,5
62361,140045,5
62248,140068,5
62398,140100,4
62410,140128,4
62423,140131,5
62235,140140,5
62427,140156,5
62436,140155,4
62438,140187,5
62382,140190,5
62453,140204,6
62462,140214,4
62471,140238,4
62617,140266,5
62503,140275,5
62495,140272,5
62495,140281,5
62711,140290,4
62511,140295,5
62511,140297,5
62514,140312,5
62635,140323,5
62532,140346,4
62541,140348,5
62543,140376,5
62581,140379,5
62561,140377,5
62564,140392,5
62570,140405,4
62586,140315,5
62587,140434,5
62591,140445,6
62604,140459,3
62591,140268,5
62605,140452,5
62608,140444,5
62592,140447,4
62600,140316,5
62591,140445,5
62591,140433,5
62584,140429,5
62596,140534,4
62593,140447,5
62585,140450,5
62593,140438,5
62594,140656,5
62592,140457,4
62600,140470,5
62618,140480,5
62623,140640,5
62624,140491,5
62628,140500,4
62637,140515,5
62641,140546,5
62638,140514,5
62641,140511,5
62635,140506,5
62631,140507,4
62629,140506,5
62623,140504,5
62626,140500,4
62620,140482,4
62610,140475,5
62607,140468,5
62608,140465,5
62604,140453,4
62604,140466,5
62597,140462,5
62605,140461,5
62598,140455,5
62600,140467,4
62615,140477,5
62613,140475,5
62613,140481,5
62631,140515,5
62642,140537,4
62650,140551,5
62659,140537,5
62663,140542,5
62661,140551,5
62650,140540,4
62634,140517,6
62630,140503,4
62640,140520,5
62633,140514,5
62624,140485,4
62621,140483,5
62609,140466,5
62591,140438,5
62584,140435,4
62592,140440,4
62589,140451,5
62598,140457,5
62598,140445,5
62601,140453,4
62608,140480,5
62615,140485,5
62635,140513,5
62649,140541,5
62647,140541,4
62660,140559,5
62673,140570,5
62685,140599,6
62693,140622,4
62701,140622,4
62700,140639,5
62709,140647,5
62719,140646,5
62715,140650,5
62722,140657,4
62713,140653,5
62713,140667,5
62723,140678,5
62733,140693,5
62744,140705,4
62757,140731,5
62773,140756,5
62790,140755,5
62792,140786,4
62804,140805,4
62820,140841,5
62834,140873,5
62861,140898,5
62874,140930,5
62905,140971,4
62935,141018,5
62956,141077,5
62988,141128,6
63022,141188,3
63068,141280,5
63148,141428,5
63246,141573,5
63308,141691,5
63352,141768,4
63261,141836,5
63435,141884,5
63448,141905,5
63478,141943,5
63304,141979,4
63500,141996,5
63510,142005,5
63511,142010,5
63414,141998,5
63497,141982,4
63490,141969,5
63488,141968,5
63615,141974,5
63497,141973,4
63499,141982,5
63518,142020,4
63760,142078,5
63584,142140,5
63619,142211,6
63668,142271,3
63820,142335,5
63735,142394,5
63776,142457,5
63810,142513,4
63867,142578,5
63883,142649,5
63920,142701,5
63949,142729,5
63958,142640,4
63966,142774,5
63979,142790,5
63982,142791,5
63989,142604,5
64005,142821,4
64017,142854,5
64036,142874,5
64057,142786,5
64078,142962,5
64108,142999,5
64126,143033,5
64160,143179,4
64175,143127,5
64215,143176,4
64262,143274,4
64314,143558,5
64341,143398,5
64367,143442,5
64385,143473,4
64404,143648,5
64418,143534,5
64461,143616,5
64511,143699,5
64559,143822,4
64610,143870,5
64687,143992,5
64754,144121,5
64832,144233,5
64910,144347,4
64982,144482,5
65069,144624,5
65135,144748,5
65196,144852,5
65250,144921,4
65300,144997,5
65334,145060,6
65371,145125,4
65410,145204,5
65462,145278,4
65491,145329,5
65513,145370,5
65539,145414,5
65562,145442,4
65581,145484,4
65616,145537,5
65642,145591,5
65669,145643,5
65705,145717,4
65739,145762,5
65775,145824,5
65806,145860,5
65841,145915,5
65861,145944,4
65878,145980,5
65891,146002,5
65895,146001,5
65909,146032,5
65909,146035,4
65926,146061,5
65945,146086,5
65955,146123,6
65968,146146,4
65986,146168,4
65998,146177,5
66010,146181,5
66008,146190,7
66011,146204,3
66022,146221,4
66036,146227,5
66043,146234,5
66042,146259,5
66040,146259,4
66047,146257,4
66042,146262,5
66049,146260,5
66053,146269,5
66060,146276,4
66065,146285,5
66067,146305,5
66080,146327,5
66090,146325,5
66095,146333,5
66104,146349,4
66107,146354,5
66114,146355,5
66114,146362,6
66116,146365,3
66112,146358,5
66112,146365,5
66108,146353,5
66117,146358,5
66100,146355,4
66098,146351,5
66097,146326,5
66096,146338,5
66092,146337,5
66102,146330,4
66097,146345,5
66098,146345,5
66102,146344,5
66094,146338,4
66092,146338,4
66090,146326,5
66088,146325,5
65944,146302,5
66076,146301,4
66071,146307,6
66077,146309,4
65876,146297,5
66080,146309,5
66078,146298,4
66085,146290,5
65963,146301,5
66072,146310,5
66079,146304,5
66083,146301,4
66198,146306,5
66089,146317,5
66086,146312,5
66089,146328,5
66306,146324,4
66092,146333,5
66113,146351,5
66125,146379,5
66257,146362,5
66105,146343,4
66086,146296,5
66071,146281,5
66091,146265,5
66063,146264,5
66051,146247,4
66026,146220,6
66027,146121,4
66030,146215,5
66011,146205,4
66008,146189,5
66016,145998,5
66014,146186,5
66008,146183,5
66001,146173,4
65982,145956,5
65979,146122,5
65962,146113,5
65952,146107,5
65951,146169,4
65943,146078,5
65941,146081,5
65926,146057,5
65933,146267,5
65930,146058,4
65926,146048,5
65913,146032,5
65911,146196,5
65905,146018,5
65908,146015,4
65906,146003,5
65892,146059,6
65891,145999,4
65888,146000,5
65887,145994,4
65886,146004,5
65911,146021,5
65898,146036,5
65918,146038,4
65932,146057,4
65922,146054,5
65922,146046,5
65927,146053,5
65922,146050,4
65910,146029,5
65901,146012,5
65889,145981,5
65876,145946,5
65833,145897,4
65797,145836,5
65759,145764,5
65724,145705,5
65684,145637,5
65654,145587,4
65620,145525,5
65583,145476,5
65549,145437,5
65527,145410,5
65512,145377,4
65513,145367,5
65506,145374,5
65509,145367,5
65509,145364,5
65509,145362,4
65512,145351,5
65502,145352,5
65499,145351,5
65499,145355,4
65498,145359,4
65503,145368,5
65514,145372,5
65513,145379,5
65522,145395,4
65529,145399,5
65532,145410,5
65542,145420,5
65541,145428,5
65552,145427,5
65553,145439,4
65557,145442,5
65559,145448,5
65572,145465,5
65567,145454,4
65562,145454,5
65558,145465,5
65560,145465,5
65554,145462,5
65563,145468,4
65578,145478,5
65586,145481,5
65591,145486,5
65590,145492,5
65584,145466,4
65569,145452,5
65578,145482,5
65578,145498,5
65587,145479,4
65574,145468,4
65565,145444,5
65552,145434,5
65536,145399,5
65508,145358,4
65478,145320,6
65464,145285,4
65437,145251,5
65418,145220,5
65388,145162,4
65367,145131,5
65344,145103,5
65340,145088,5
65317,145056,5
65321,145038,4
65166,145029,5
65299,145009,5
65279,144993,5
65270,144969,5
65045,144921,4
65199,144866,5
65145,144759,5
65071,144637,5
64924,144543,5
64959,144443,4
64915,144374,5
64884,144328,5
64979,144297,5
64834,144238,4
64811,144217,4
64806,144205,6
65006,144183,4
64787,144176,5
64789,144168,4
64773,144155,5
64901,144151,5
64766,144161,5
64788,144177,5
64781,144170,4
64827,144176,5
64790,144182,5
64790,144172,5
64783,144169,5
64771,144026,4
64755,144126,5
64740,144079,5
64716,144062,5
64697,143843,5
64682,144010,4
64687,143999,5
64683,143994,5
64678,143833,6
64687,144001,4
64688,144006,5
64690,144009,4
64690,144113,5
64693,144010,5
64686,143998,4
64672,143987,4
64649,144179,5
64656,143951,5
64647,143953,5
64655,143947,4
64641,144097,5
64637,143909,5
64630,143907,5
64613,143901,5
64605,143911,4
64593,143840,5
64568,143820,5
64567,143787,5
64549,143765,5
64531,143733,5
64490,143668,4
64460,143615,5
64412,143557,5
64368,143459,6
64312,143352,3
64240,143235,5
64176,143128,5
64117,143010,5
64026,142853,5
63941,142728,4
63879,142623,5
63812,142528,5
63731,142366,5
63629,142189,4
63529,142044,5
63450,141903,5
63373,141798,5
63327,141710,5
63288,141632,4
63236,141554,5
63160,141429,5
63078,141271,5
62969,141077,5
62850,140892,4
62770,140755,6
62711,140663,4
62678,140617,5
62675,140608,5
62663,140580,6
62642,140546,3
62614,140488,5
62573,140425,5
62539,140357,5
62508,140318,4
62486,140300,5
62485,140290,5
62487,140276,5
62465,140269,5
62468,140259,4
62466,140244,5
62432,140195,5
62397,140112,5
62331,140006,4
62266,139879,5
62172,139722,5
62085,139567,5
61973,139385,5
61860,139194,4
61747,138999,5
61620,138783,6
61504,138595,4
61409,138445,5
61343,138353,4
61301,138270,5
61274,138225,5
61247,138174,5
61202,138105,5
61162,138020,4
61112,137941,5
61075,137879,5
61026,137795,5
60988,137746,5
60956,137662,4
60911,137577,5
60853,137482,5
60788,137389,5
60738,137306,5
60686,137213,4
60632,137129,5
60576,137034,5
60523,136915,5
60437,136811,4
60398,136702,5
60320,136598,5
60251,136485,6
60072,136372,4
60132,136263,4
60053,136151,5
60008,136041,5
59748,135934,5
59857,135801,5
59780,135662,4
59691,135521,5
59570,135419,5
59579,135332,5
59546,135284,5
59509,135208,4
59585,135122,5
59400,135012,5
59317,134864,5
59219,134681,5
59316,134520,4
59043,134396,5
58973,134268,5
58880,134112,5
58894,133991,5
58739,133896,4
58679,133802,5
58629,133688,5
58588,133588,6
58522,133519,3
58457,133405,5
58389,133293,5
58328,133084,5
58286,133122,5
58252,133075,4
58244,133047,5
58234,132864,5
58224,133023,5
58205,133004,5
58200,132968,4
58179,132854,5
58170,132923,5
58148,132896,5
58123,132837,5
58093,132892,4
58048,132690,5
57982,132588,5
57914,132471,5
57845,132559,5
57776,132246,5
57738,132174,4
57710,132128,5
57683,132190,5
57630,132014,4
57604,131960,4
57570,131886,5
57538,131868,5
57508,131792,5
57495,131769,4
57482,131741,5
57453,131703,5
57414,131644,5
57381,131579,5
57351,131535,4
57317,131481,5
57297,131435,5
57278,131412,5
57254,131384,5
57254,131369,4
57258,131377,5
57256,131363,5
57241,131340,5
57226,131312,5
57217,131309,4
57208,131301,6
57219,131298,4
57225,131309,5
57241,131336,5
57248,131363,4
57267,131384,5
57271,131391,5
57275,131401,5
57278,131401,4
57270,131392,4
57265,131389,5
57267,131373,5
57259,131384,5
57254,131374,4
57260,131381,5
57263,131373,5
57264,131374,5
57257,131359,5
57249,131346,4
57249,131346,5
57239,131345,5
57237,131314,5
57206,131262,5
57180,131232,4
57158,131181,5
57124,131129,6
57095,131069,4
57058,131690,5
57034,131663,4
57030,131667,5
57017,131667,5
57027,131648,5
57023,131650,5
57017,131651,4
57017,131631,5
57003,131605,5
56980,131587,5
56963,131551,5
56965,131549,4
56964,131559,5
56969,131546,5
56969,131556,5
56963,131552,9
56954,131536,5
56943,131516,5
56934,131484,5
56918,131482,4
56916,131473,5
56913,131472,5
56915,131483,6
56920,131478,4
56915,131479,4
56922,131480,5
56915,131479,5
56908,131479,5
56911,131473,5
56911,131465,4
56906,131453,5
56889,131419,5
56833,131398,5
56870,131378,5
56858,131358,4
56831,131327,5
56691,131303,5
56788,131262,5
56773,131217,5
56734,131171,4
56547,131137,5
56712,131118,5
56705,131124,5
56701,131110,5
56672,131110,4
56704,131119,5
56702,131113,5
56688,131095,5
56818,131082,4
56678,131070,5
56654,131039,5
56654,131026,5
56843,131025,5
56665,131047,4
56664,131063,5
56693,131095,5
56780,131123,5
56722,131142,5
56719,131154,4
56723,131147,5
56728,131135,5
56717,131130,5
56706,131115,5
56688,131091,4
56685,130952,5
56677,131071,5
56663,131044,5
56644,131016,4
56638,130840,5
56643,131010,4
56639,131023,5
56649,131036,5
56653,130977,4
56657,131045,5
56657,131038,5
56656,131027,5
56658,131142,5
56636,130997,4
56622,130974,5
56604,130943,5
56598,131124,5
56594,130935,5
56594,130935,4
56595,130944,5
56612,131068,5
56634,130999,5
56648,131015,5
56648,131035,4
56652,131062,5
56659,131039,5
56655,131036,5
56665,131050,5
56661,131041,4
56647,131040,7
56661,131048,3
56659,131041,5
56665,131042,4
56665,131057,4
56668,131060,5
56669,131063,5
56677,131079,5
56684,131090,4
56692,131089,5
56689,131089,5
56683,131092,5
56682,131096,5
56686,131091,4
56683,131087,5
56688,131087,5
56680,131078,5
56686,131086,5
56681,131095,4
56678,131083,5
56680,131069,5
56683,131091,5
56671,131077,4
56682,131075,4
56682,131093,5
56676,131086,5
56677,131079,5
56675,131075,5
56671,131059,4
56667,131068,5
56675,131068,5
56678,131073,5
56685,131110,4
56701,131123,4
56720,131145,5
56728,131164,5
56738,131181,5
56757,131199,4
56773,131234,5
56801,131284,5
56835,131344,5
56863,131406,5
56898,131464,5
56926,131521,4
56969,131584,5
57015,131661,5
57064,131749,6
57117,131833,3
57177,131927,5
57237,132032,5
57301,132161,5
57389,132296,5
57475,132442,4
57556,132582,5
57628,132687,5
57691,132816,5
57757,132916,5
57819,133008,4
57858,133088,5
57917,133178,5
57962,133256,5
58017,133365,4
58093,133468,4
58163,133585,5
58232,133729,5
58299,133832,5
58350,133924,4
58406,134013,6
58479,134136,4
58533,134230,5
58592,134328,5
58642,134436,6
58649,134555,3
58790,134670,5
58847,134788,5
58929,134921,5
58861,135067,4
59108,135220,5
59183,135360,5
59261,135482,5
59156,135616,5
59423,135751,4
59516,135901,5
59599,136055,5
59682,136173,5
59738,136280,5
59792,136379,4
59855,136466,5
60062,136543,5
59940,136632,5
59984,136684,4
60033,136758,4
60238,136801,6
60078,136854,4
60100,136877,5
60133,136933,4
60207,136973,5
60181,136999,5
60188,137039,5
60216,137079,5
60232,137050,4
60234,137097,5
60239,137114,5
60241,137114,5
60242,136974,5
60242,137134,4
60255,137143,5
60268,137164,5
60281,137007,5
60293,137227,5
60329,137269,4
60338,137297,5
60351,137307,5
60377,137343,5
60403,137394,5
60433,137446,4
60448,137652,5
60478,137530,6
60494,137566,4
60512,137581,4
60515,137823,4
60539,137642,5
60556,137673,5
60569,137676,5
60577,137787,4
60582,137713,5
60590,137721,5
60594,137738,5
60600,137753,5
60602,137742,4
60605,137746,5
60611,137750,5
60605,137760,5
60619,137769,5
60627,137777,4
60630,137798,5
60649,137806,5
60647,137816,5
60657,137826,5
60659,137841,4
60674,137864,5
60671,137857,5
60675,137842,6
60669,137849,4
60673,137844,4
60667,137851,5
60675,137868,5
60675,137851,5
60672,137869,4
60673,137859,4
60674,137867,5
60683,137862,5
60672,137874,5
60683,137885,4
60686,137890,5
60696,137893,5
60701,137895,5
60700,137904,5
60700,137911,4
60714,137939,5
60716,137934,5
60715,137930,5
60705,137908,5
60695,137897,5
60698,137915,4
60699,137902,5
60689,137898,5
60693,137885,6
60684,137892,3
60684,137902,5
60696,137902,5
60707,137916,5
60714,137940,5
60723,137951,4
60741,137975,5
60744,137983,5
60748,137987,5
60752,138009,4
60762,138008,4
60772,138031,5
60784,138052,5
60789,138062,5
60793,138071,4
60792,138090,5
60805,138106,5
60815,138120,5
60825,138134,5
60839,138132,4
60840,138144,6
60848,138154,4
60858,138170,5
60858,138179,5
60866,138190,4
60874,138217,5
60897,138244,5
60918,138271,5
60930,138306,5
60922,138303,4
60941,138315,5
60937,138331,5
60949,138334,5
60947,138348,5
60953,138350,4
60966,138375,5
60985,138408,5
60914,138434,5
61014,138479,4
61043,138504,4
61050,138519,5
60906,138551,5
61088,138584,5
61113,138625,4
61138,138674,5
60986,138709,6
61190,138764,4
61222,138814,5
61251,138858,4
61328,138900,5
61297,138928,5
61316,138962,5
61331,138988,5
61543,139005,4
61363,139044,5
61375,139058,5
61383,139078,5
61557,139109,5
61416,139122,4
61425,139133,5
61430,139165,5
61498,139186,5
61482,139224,5
61475,139254,4
61507,139266,5
61521,139215,5
61516,139300,5
61515,139297,4
61521,139303,4
61523,139143,5
61528,139310,5
61529,139329,5
61553,139340,4
61545,139173,5
61567,139391,5
61581,139409,5
61597,139429,5
61601,139490,4
61618,139475,5
61631,139492,5
61648,139535,5
61666,139743,5
61686,139585,4
61711,139616,5
61725,139656,5
61733,139867,5
61763,139723,5
61778,139750,4
61802,139782,5
61819,139883,5
61841,139860,5
61861,139893,5
61881,139919,4
61910,139946,5
61899,139938,5
61894,139924,5
61889,139933,4
61905,139966,4
61916,139978,5
61921,139989,5
61935,140010,5
61946,140017,4
61953,140041,5
61974,140067,5
61996,140111,5
62031,140178,5
62055,140215,4
62074,140245,5
62087,140259,5
62085,140274,5
62092,140273,5
62091,140292,4
62102,140295,5
62113,140317,5
62128,140346,5
62147,140367,5
62170,140409,5
62195,140434,4
62217,140493,5
62244,140549,5
62267,140572,5
62294,140632,4
62312,140670,5
62328,140687,5
62353,140721,5
62368,140754,4
62386,140790,4
62419,140827,5
62423,140851,5
62452,140912,5
62463,140908,4
62469,140918,5
62473,140917,5
62469,140908,5
62464,140903,5
62458,140901,4
62454,140899,5
62452,140901,5
62459,140912,5
62473,140939,5
62498,140975,4
62527,141016,6
62556,141075,4
62590,141132,5
62633,141212,5
62681,141278,4
62716,141339,5
62743,141383,5
62760,141421,5
62797,141470,5
62825,141525,4
62866,141575,5
62898,141635,5
62939,141703,5
62972,141752,4
62990,141798,4
63010,141824,5
63030,141853,5
63028,141863,5
63030,141863,4
63048,141885,5
63055,141905,5
63067,141910,5
63073,141926,5
63084,141941,4
63082,141954,5
63091,141979,6
63105,141997,4
63124,142021,5
63130,142034,4
63036,142056,5
63154,142074,7
63160,142086,3
63166,142100,5
62990,142108,4
63182,142105,5
63187,142127,5
63192,142118,5
63045,142126,5
63190,142144,4
63198,142145,5
63202,142149,5
63304,142158,5
63220,142161,5
63227,142188,4
63238,142207,5
63450,142235,5
63273,142258,6
63279,142296,3
63290,142304,5
63443,142320,5
63304,142326,5
63314,142337,5
63319,142334,4
63355,142350,5
63323,142371,5
63330,142358,5
63337,142374,5
63339,142285,4
63337,142373,5
63340,142375,5
63334,142389,5
63351,142233,5
63365,142430,4
63365,142417,4
63372,142440,5
63369,142227,5
63368,142419,5
63365,142419,5
63382,142466,4
63394,142530,5
63382,142471,5
63387,142476,6
63408,142493,3
63409,142692,5
63395,142496,5
63419,142515,5
63431,142534,4
63434,142723,5
63444,142549,5
63444,142556,5
63434,142559,5
63441,142603,4
63440,142560,5
63452,142568,5
63460,142580,5
63458,142574,5
63462,142583,4
63464,142594,5
63476,142618,5
63492,142637,5
63495,142660,5
63516,142677,4
63525,142687,6
63535,142709,4
63546,142724,5
63546,142743,5
63561,142754,6
63563,142756,3
63579,142779,5
63575,142775,5
63592,142809,4
63600,142813,4
63599,142826,5
63609,142827,5
63610,142828,5
63610,142827,4
63607,142832,5
63606,142810,5
63602,142824,5
63606,142827,5
63609,142829,4
63608,142839,5
63619,142838,5
63615,142847,5
63621,142864,5
63636,142878,4
63640,142895,5
63659,142917,6
63660,142923,4
63660,142938,5
63676,142955,4
63675,142956,5
63676,142952,5
63678,142958,5
63685,142965,5
63680,142956,4
63686,142968,5
63688,142967,5
63700,142982,5
63690,142985,4
63706,142987,4
63705,142994,5
63711,143005,5
63719,143025,5
63738,143057,4
63756,143069,5
63769,143097,5
63785,143124,5
63796,143145,5
63805,143167,4
63815,143187,5
63824,143200,5
63838,143217,6
63836,143210,4
63835,143216,4
63847,143218,5
63833,143215,5
63834,143213,5
63834,143209,5
63828,143201,4
63835,143201,5
63829,143202,5
63830,143195,5
63826,143201,5
63825,143201,4
63835,143195,5
63836,143207,5
63831,143208,5
63830,143204,4
63830,143214,4
63834,143225,5
63849,143218,5
63717,143227,5
63840,143223,5
63840,143218,4
63836,143221,5
63646,143230,5
63858,143258,6
63862,143256,3
63860,143255,5
63757,143275,5
63873,143289,5
63889,143301,5
63882,143307,4
64020,143328,5
63930,143368,5
63926,143373,5
63929,143361,5
64136,143367,4
63915,143361,5
63923,143358,5
63917,143366,5
64058,143370,5
63924,143348,4
63925,143353,5
63915,143334,5
63941,143334,5
63907,143323,4
63898,143298,5
63885,143279,4
63870,143150,5
63846,143233,5
63852,143228,4
63834,143207,5
63836,143023,5
63840,143211,5
63847,143216,5
63846,143227,4
63851,143067,5
63855,143245,5
63853,143242,5
63860,143260,5
63857,143329,4
63858,143241,5
63865,143248,5
63864,143262,5
63856,143454,5
63873,143256,4
63859,143246,5
63862,143256,5
63858,143403,5
63867,143249,5
63871,143253,4
63870,143263,6
63875,143303,4
63870,143246,5
63868,143264,4
63869,143253,4
63881,143261,5
63880,143270,5
63884,143268,5
63879,143268,4
63876,143276,5
63881,143296,5
63880,143287,5
63886,143291,5
63901,143299,4
63900,143301,5
63901,143322,5
63911,143320,5
63905,143311,5
63911,143319,4
63896,143309,5
63894,143284,5
63885,143281,5
63885,143279,5
63879,143271,4
63877,143256,5
63859,143233,6
63844,143206,4
63826,143197,5
63821,143152,4
63804,143157,5
63806,143151,5
63806,143153,5
63802,143143,4
63812,143146,4
63800,143153,5
63804,143154,5
63801,143153,5
63811,143152,4
63807,143153,5
63809,143165,5
63798,143121,5
63764,143059,5
63713,142995,4
63688,142960,5
63678,142937,5
63652,142882,5
63606,142809,5
63580,142765,4
63564,142755,5
63551,142730,5
63535,142697,6
63519,142685,4
63522,142678,4
63515,142674,5
63506,142652,5
63494,142629,5
63466,142601,5
63456,142586,4
63444,142557,5
63424,142520,5
63409,142495,5
63386,142464,4
63362,142423,4
63334,142386,5
63328,142354,5
63317,142333,5
63297,142294,4
63270,142276,5
63251,142229,5
63229,142188,5
63186,142122,5
63136,142022,5
63072,141916,4
63004,141789,5
62907,141657,5
62837,141526,5
62754,141409,4
62698,141305,5
62638,141212,5
62582,141119,5
62511,141007,5
62456,140907,4
62281,140822,5
62363,140755,5
62333,140704,5
62299,140658,5
62095,140621,4
62261,140577,5
62239,140553,5
62247,140538,5
62137,140530,4
62226,140533,4
62218,140522,5
62215,140496,5
62310,140470,5
62163,140425,4
62153,140416,6
62133,140379,4
62324,140360,5
62099,140327,5
62093,140315,4
62085,140284,5
62178,140243,5
62035,140206,5
62003,140158,5
61983,140130,4
62002,140106,5
61985,140119,5
61977,140103,5
61980,140112,5
61983,139989,4
61979,140092,5
61960,140082,5
61958,140057,5
61939,139849,5
61913,140002,4
61900,139971,4
61885,139962,5
61880,139825,5
61871,139940,5
61875,139935,4
61874,139947,6
61889,140060,4
61893,139972,5
61913,139998,4
61917,140007,5
61912,140208,5
61909,139985,5
61907,139993,5
61919,139994,4
61910,140129,5
61899,139980,5
61887,139951,5
61885,139948,5
61887,139979,4
61873,139925,5
61883,139932,5
61886,139955,5
61896,139969,5
61901,139975,4
61898,139974,5
61905,139990,5
61917,139994,5
61927,140029,5
61954,140062,4
61973,140102,5
61994,140140,5
62011,140171,5
62033,140204,4
62048,140224,4
62060,140236,5
62070,140253,5
62083,140274,5
62094,140306,4
62114,140318,5
62125,140343,5
62130,140351,5
62138,140363,5
62145,140388,4
62164,140420,5
62174,140428,5
62191,140450,5
62202,140472,5
62209,140480,4
62222,140485,4
62213,140486,5
62206,140473,5
62209,140469,5
62204,140475,3
62206,140477,5
62212,140483,5
62215,140477,5
62207,140487,5
62220,140498,4
62226,140508,5
62222,140517,5
62229,140520,5
62235,140512,4
62239,140527,4
62228,140527,5
62241,140537,5
62246,140550,5
62251,140561,4
62245,140554,5
62265,140562,5
62260,140564,5
62271,140568,5
62270,140569,4
62260,140565,6
62266,140565,4
62263,140558,5
62271,140567,5
62270,140568,6
62267,140568,3
62261,140564,5
62280,140582,5
62283,140599,5
62293,140612,4
62304,140635,5
62308,140634,5
62315,140659,5
62324,140672,5
62333,140685,4
62336,140681,5
62341,140694,5
62346,140712,5
62361,140712,4
62358,140728,4
62356,140705,5
62348,140694,5
62344,140685,5
62297,140695,4
62338,140688,5
62319,140653,6
62307,140638,4
62166,140659,5
62311,140645,4
62313,140639,7
62307,140644,3
62131,140659,5
62328,140668,5
62329,140680,4
62342,140688,5
62318,140697,5
62338,140695,5
62341,140712,5
62350,140706,4
62517,140715,5
62359,140719,5
62361,140733,5
62363,140738,5
62574,140734,4
62365,140722,5
62363,140728,5
62367,140740,9
62440,140718,1
62365,140716,4
62347,140707,5
62332,140664,6
62344,140644,4
62323,140679,4
62316,140664,5
62318,140667,5
62323,140521,5
62314,140663,5
62317,140660,4
62311,140657,5
62312,140452,5
62303,140627,5
62291,140608,5
62280,140596,4
62273,140536,5
62271,140581,5
62256,140572,5
62257,140573,5
62263,140703,4
62257,140557,5
62247,140540,5
62251,140542,5
62252,140766,5
62240,140540,4
62243,140536,5
62236,140527,5
62223,140608,6
62220,140507,3
62215,140503,4
62209,140494,5
62210,140507,5
62216,140499,5
62205,140485,4
62213,140492,5
62209,140487,5
62211,140493,5
62217,140503,5
62218,140497,4
62223,140511,5
62234,140524,5
62229,140532,5
62241,140534,5
62236,140532,4
62235,140528,5
62232,140520,5
62229,140517,5
62222,140500,5
62213,140490,5
62199,140457,4
62179,140437,5
62170,140420,5
62159,140416,6
62160,140404,3
62160,140391,5
62147,140399,5
62157,140405,5
62152,140409,5
62166,140406,4
62161,140405,5
62162,140401,5
62157,140398,5
62138,140372,4
62141,140378,5
62146,140385,5
62138,140371,5
62133,140378,5
62141,140369,4
62132,140364,5
62132,140364,5
62132,140371,5
62138,140376,5
62145,140375,4
62144,140384,6
62148,140380,4
62143,140380,5
62143,140385,5
62141,140378,4
62138,140375,5
62134,140371,5
62136,140378,5
62136,140364,5
62132,140379,4
62148,140388,5
62138,140382,5
62146,140396,5
62153,140398,5
62152,140398,4
62152,140397,5
62143,140382,5
62140,140369,5
62125,140356,4
62122,140339,4
62114,140341,5
62112,140322,5
62102,140308,5
62094,140301,4
62080,140279,5
62071,140276,6
62078,140269,4
62084,140285,5
62074,140282,4
62077,140281,5
62095,140287,5
62092,140298,5
62080,140287,5
62082,140285,4
62068,140249,5
61978,140230,5
62049,140211,5
62042,140216,5
62031,140218,4
61875,140221,5
62045,140229,5
62053,140251,5
62067,140266,5
61886,140277,4
62089,140304,5
62103,140323,5
62113,140334,5
62169,140362,4
62144,140389,5
62145,140403,5
62162,140403,6
62342,140409,4
62159,140405,4
62151,140400,5
62153,140397,5
62323,140398,5
62149,140390,5
62157,140392,4
62148,140405,5
62211,140413,5
62161,140415,5
62161,140408,5
62163,140409,4
62161,140351,5
62159,140412,5
62165,140419,5
62169,140436,5
62177,140283,4
62174,140439,5
62182,140441,5
62187,140448,5
62186,140269,5
62200,140477,5
62195,140488,4
62209,140509,5
62228,140516,5
62236,140524,4
62236,140541,4
62229,140527,5
62226,140695,5
62226,140514,5
62213,140491,4
62204,140492,5
62217,140713,5
62208,140487,5
62199,140481,5
62197,140483,4
62198,140549,5
62197,140473,5
62196,140476,5
62216,140512,5
62225,140539,4
62246,140550,5
62258,140575,5
62268,140582,5
62279,140588,5
62286,140624,5
62310,140657,3
62325,140675,5
62325,140688,5
62327,140694,5
62336,140692,4
62339,140682,5
62335,140696,5
62323,140703,5
62339,140698,4
62327,140685,4
62330,140678,5
62331,140680,5
62323,140669,5
62316,140668,4
62321,140671,5
62318,140670,5
62320,140685,5
62330,140703,5
62334,140698,4
62331,140692,5
62336,140698,5
62333,140711,5
62341,140716,5
62342,140712,4
62344,140721,6
62354,140734,4
62362,140753,5
62373,140766,5
62382,140772,4
62376,140780,5
62382,140767,5
62381,140774,5
62378,140782,5
62380,140803,4
62399,140795,5
62400,140811,5
62413,140822,5
62417,140825,4
62412,140831,4
62414,140834,5
62417,140829,5
62425,140834,5
62423,140844,4
62426,140848,5
62420,140850,5
62426,140850,5
62424,140848,5
62426,140845,4
62430,140843,5
62433,140864,6
62440,140859,4
62440,140868,5
62443,140879,4
62449,140886,5
62439,140888,5
62457,140890,5
62452,140893,5
62453,140893,4
62452,140891,5
62447,140880,5
62438,140880,5
62440,140872,5
62432,140872,4
62433,140863,5
62430,140860,5
62423,140857,5
62428,140848,4
62433,140850,4
62436,140848,5
62423,140842,5
62421,140857,5
62344,140866,4
62421,140847,5
62429,140862,5
62430,140853,5
62255,140845,5
62424,140846,4
62418,140854,5
62418,140854,5
62238,140855,5
62427,140858,5
62430,140852,4
62431,140864,5
62484,140879,5
62435,140878,5
62433,140880,5
62437,140878,4
62626,140879,5
62435,140877,5
62425,140873,5
62438,140869,5
62606,140866,4
62426,140872,5
62436,140865,5
62431,140872,5
62491,140873,5
62449,140884,3
62453,140898,5
62458,140916,5
62467,140854,5
62459,140904,4
62459,140912,5
62458,140882,5
62423,140697,5
62430,140855,5
62415,140846,4
62406,140816,5
62389,140611,5
62393,140807,5
62384,140782,5
62366,140773,4
62368,140772,5
62371,140756,5
62374,140774,5
62370,140775,5
62375,140929,4
62359,140759,6
62358,140750,4
62351,140747,5
62353,140958,5
62350,140738,6
62346,140720,3
62340,140717,5
62344,140793,5
62339,140722,4
62352,140729,4
62362,140741,5
62363,140761,5
62360,140748,5
62360,140745,4
62362,140747,5
62359,140747,5
62357,140737,5
62350,140729,5
62343,140734,4
62351,140725,5
62354,140731,5
62352,140736,5
62358,140748,5
62355,140738,4
62349,140734,5
62349,140738,6
62355,140725,4
62347,140723,5
62348,140722,4
62346,140724,5
62342,140734,5
62339,140732,5
62352,140739,5
62355,140726,4
62351,140742,5
62354,140758,5
62359,140753,5
62362,140757,4
62364,140759,4
62367,140770,5
62374,140769,5
62373,140770,5
62374,140768,4
62374,140764,5
62373,140769,5
62371,140770,5
62367,140774,5
62368,140784,4
62374,140766,5
62369,140760,5
62372,140760,6
62358,140765,4
62361,140760,4
62363,140750,5
62362,140767,5
62357,140763,5
62375,140778,5
62388,140802,4
62396,140821,5
62413,140845,5
62422,140859,5
62443,140887,5
62445,140892,4
62445,140895,5
62445,140892,5
62444,140895,5
62452,140906,4
62459,140912,4
62459,140923,5
62469,140942,5
62480,140959,5
62497,140989,5
62520,141022,4
62537,141044,5
62539,141076,5
62566,141102,6
62587,141134,3
62605,141169,5
62627,141204,5
62648,141239,5
62681,141297,5
62711,141358,4
62752,141410,5
62793,141476,5
62820,141542,5
62868,141602,5
62879,141626,4
62895,141641,5
62808,141637,5
62892,141640,5
62888,141640,5
62901,141653,4
62725,141654,5
62877,141626,5
62892,141638,5
62889,141652,4
62706,141669,5
62915,141698,4
62939,141731,5
62960,141779,5
63049,141807,6
63009,141857,3
63029,141886,5
63060,141935,5
63291,142001,5
63144,142101,4
63208,142208,5
63278,142311,5
63498,142411,5
63386,142494,5
63434,142572,4
63486,142664,5
63591,142749,5
63578,142824,5
63634,142897,5
63691,143001,4
63754,143031,5
63815,143198,5
63854,143265,5
63883,143305,5
63906,143189,4
63951,143421,6
63978,143479,4
64024,143578,5
64112,143495,4
64188,143827,5
64295,144014,4
64412,144220,5
64546,144497,5
64698,144710,4
64845,144967,8
64996,145214,2
65152,145680,5
65314,145737,5
65492,146011,4
65634,146287,5
65794,146740,5
65943,146764,5
66081,147009,5
66216,147222,4
66334,147481,5
66447,146915,5
66553,147078,5
66640,147217,5
66712,147335,4
66780,147441,5
66858,147587,6
66966,147747,4
67052,147887,5
67125,148010,4
67190,148116,5
67254,148218,5
67320,148329,5
67371,148406,4
67422,148483,5
67462,148540,5
67507,148610,5
67554,148685,5
67570,148719,4
67575,148717,5
67571,148706,5
67548,148687,5
67534,148630,5
67478,148549,4
67422,148446,5
67345,148318,5
67256,148173,5
67173,148038,5
67083,147904,4
66995,147745,5
66894,147579,5
66786,147412,6
66699,147259,4
66628,147146,4
66537,147011,5
66473,146900,5
66395,146784,5
66330,146679,4
66263,146569,4
66193,146431,5
66103,146292,5
66016,146143,5
65927,146004,4
65847,145867,5
65783,145770,5
65731,145672,5
65692,145612,5
65629,145505,4
65558,145361,5
65461,145199,5
65355,145032,5
65262,144870,5
65187,144760,5
65145,144697,4
65087,144604,5
65043,144544,5
65013,144492,5
64973,144427,4
64930,144343,5
64905,144308,5
64889,144280,5
64852,144238,5
64830,144187,4
64806,144152,5
64784,144101,5
64769,144074,5
64741,144033,4
64715,143995,4
64694,143944,5
64672,143917,5
64645,143863,5
64622,143851,4
64619,143812,5
64608,143808,5
64587,143757,5
64550,143693,5
64514,143651,4
64470,143629,6
64486,143601,4
64475,143576,5
64453,143541,5
64284,143525,4
64438,143516,5
64407,143479,5
64389,143431,5
64152,143370,5
64307,143291,4
64283,143263,5
64269,143229,5
64211,143183,5
64229,143157,4
64206,143132,4
64195,143131,5
64363,143124,5
64206,143135,5
64212,143137,4
64215,143153,5
64433,143155,5
64214,143150,6
64211,143124,4
64183,143091,4
64251,143053,5
64159,143054,6
64160,143055,4
64158,143051,5
64151,142985,4
64117,142993,5
64109,142954,5
64074,142921,5
64061,142751,5
64042,142853,4
64025,142813,5
64009,142804,5
64016,142619,5
64017,142830,5
64021,142837,4
64036,142861,5
64058,142834,5
64060,142884,5
64061,142893,4
64070,142911,4
64070,143065,5
64066,142916,5
64073,142919,5
64069,142930,4
64083,143147,5
64077,142924,5
64072,142910,5
64070,142905,5
64070,142989,4
64066,142891,5
64060,142890,5
64053,142889,5
64049,142896,5
64048,142868,4
64039,142863,5
64040,142848,5
64030,142844,5
64036,142843,5
64039,142851,4
64041,142864,5
64034,142852,5
64025,142840,5
64018,142820,5
64010,142820,4
64019,142819,5
64021,142830,5
64016,142815,5
63994,142789,5
64013,142794,4
64002,142797,5
63997,142786,5
63997,142795,5
64001,142812,4
64013,142809,5
64025,142822,5
64020,142829,5
64020,142832,5
64018,142817,4
64024,142829,5
64029,142841,5
64031,142846,5
64027,142838,5
64027,142847,4
64029,142826,5
64023,142831,5
64034,142830,5
64013,142821,5
64021,142814,4
64011,142816,5
64015,142806,4
64011,142806,5
64014,142809,4
64012,142809,5
64014,142817,4
64022,142819,5
64024,142820,5
64023,142842,4
64025,142826,5
64020,142834,5
64022,142825,5
64018,142820,5
64023,142822,4
64019,142825,10
64028,142837,5
64027,142836,5
64052,142867,8
64052,142867,5
64050,142873,5
64062,142889,8
64053,142898,5
64063,142879,5
64050,142846,5
64047,142859,8
64044,142861,5
64063,142853,5
64039,142854,8
64036,142844,3
64043,142854,1
64032,142858,4
64053,142866,5
64052,142863,5
64053,142869,5
64059,142882,4
64054,142890,5
64068,142887,5
64061,142888,5
64061,142891,5
64069,142888,4
64076,142898,5
64072,142903,5
64071,142898,5
64082,142913,5
64081,142939,4
64092,142942,5
64108,142942,5
64109,142950,6
64098,142951,4
64107,142969,4
64124,142996,5
64132,143008,5
64138,143022,5
64145,143027,5
64160,143032,4
64156,143049,5
64165,143063,5
64179,143083,5
64191,143095,4
64195,143110,4
64204,143122,5
64203,143112,5
64190,143097,5
64186,143092,4
64188,143091,5
64190,143095,5
64198,143101,5
64187,143082,5
64180,143082,5
64193,143097,4
64179,143085,5
64183,143089,5
64202,143099,6
64199,143113,3
64222,143136,5
64214,143140,5
64222,143150,5
