RED,IR,EKG,TIME
93801,175332,8
93830,175352,4
93858,175384,8
94046,175671,9
94046,175671,4
94063,175702,4
94112,175782,9
94161,175864,4
94205,175940,6
94232,176028,7
94299,176109,4
94469,176429,6
94469,176429,7
94512,176512,4
94543,176536,7
94553,176573,8
94594,176643,4
94637,176696,7
94673,176806,8
94673,176806,4
94681,176856,7
94676,176843,7
94651,176818,8
94512,176633,7
94512,176633,4
94454,176589,6
94413,176535,7
94373,176488,4
94327,176439,7
94249,176384,7
94242,176354,4
94198,176289,6
94023,176064,8
94023,176064,8
93983,175984,7
93928,175925,4
94512,176512,6
93711,175651,8
93711,175651,4
93661,175619,6
92595,175591,8
93605,175562,4
93550,175514,6
93504,175449,7
92233,175405,5
93260,175169,7
93260,175169,7
93228,175101,4
93174,175090,12
94160,174806,7
94160,174806,6
92894,174788,7
92868,174760,6
92847,174711,5
93293,174681,7
92796,174626,6
92700,174614,6
92700,174614,7
92718,174658,6
92758,173769,4
92780,174670,8
92779,174686,6
92781,174655,4
92854,174413,8
92854,174413,6
92879,174787,4
92867,174811,8
92872,174824,6
92875,175658,6
93007,175052,9
93007,175052,4
93026,174919,1
93069,175100,3
93066,175745,5
93078,175110,5
93083,175072,4
93084,175085,5
93094,175250,5
93094,175096,5
93099,175109,5
93096,175107,4
93103,175118,5
93105,175116,5
93077,175113,5
93076,175120,5
93059,175097,4
93063,175114,5
93086,175156,5
93097,175175,6
93104,175212,4
93173,175282,4
93213,175322,5
93238,175394,5
93256,175426,5
93275,175431,4
93301,175481,4
93311,175499,5
93328,175528,5
93319,175528,5
93333,175554,4
93352,175595,5
93366,175605,5
93385,175653,5
93391,175641,5
93422,175674,4
93451,175714,5
93467,175717,5
93492,175715,5
93525,175759,5
93573,175749,5
93585,175754,4
93605,175741,5
93615,175739,5
93622,175738,5
93630,175725,4
93647,175711,5
93631,175691,5
93644,175683,5
93671,175701,5
93680,175697,4
93697,175689,5
93700,175679,5
93705,175677,5
93709,175654,4
93722,175650,4
93716,175641,5
93726,175638,5
93716,175633,5
93714,175596,4
93687,175570,5
93653,175517,5
93614,175477,5
93600,175448,5
93577,175401,4
93559,175360,6
93532,175339,4
93522,175307,5
93506,175267,5
93476,175223,4
93439,175170,5
93389,175111,5
93340,175060,5
93313,175024,5
93254,174972,4
93215,174924,5
93166,174873,5
93104,174790,5
93019,174712,4
92937,174625,4
92887,174567,5
92842,174511,5
92806,174491,5
92806,174491,4
92810,174478,5
92745,174492,5
92832,174517,5
92853,174521,5
92858,174523,4
92075,174526,5
92877,174487,10
92880,174489,4
92884,174491,6
91706,174488,4
92883,174464,7
92894,174462,6
92896,174480,4
93508,174351,7
93508,174351,6
92797,174310,4
92771,174249,7
93340,175060,6
93993,174246,9
92642,174111,7
92642,174111,4
92621,174098,8
92603,174016,6
92767,173997,5
92564,173998,7
92551,173983,6
92391,173811,7
92391,173811,9
92341,172654,4
92322,173731,4
92298,173713,10
92295,173755,4
92293,172579,5
92199,173663,9
92199,173663,8
92187,173658,9
92167,173653,4
92142,174841,5
92049,173546,9
92049,173546,4
92024,173522,5
91989,173524,10
91952,173814,4
91929,173495,4
91934,173612,10
91934,173612,4
91944,173648,4
91933,173636,10
91913,173650,4
91899,173674,4
91900,173705,10
91881,173708,4
91847,173714,5
91846,173858,9
91846,173858,8
91818,173848,9
91800,173859,4
91835,174010,7
91835,174010,7
91828,174045,5
91842,174089,7
91854,174166,7
91849,174201,4
91831,174206,7
91828,174281,8
91828,174281,4
91850,174294,7
91859,174308,8
91828,174309,4
91825,174317,6
91817,174297,8
91808,174306,4
91846,174437,7
91846,174437,7
91862,174485,9
91880,174495,7
91896,174525,4
91916,174548,6
91881,174540,8
91881,174540,4
91864,174545,7
91825,174532,8
91782,174486,4
91752,174481,7
91742,174508,7
91739,174564,5
91630,174613,7
91630,174613,7
91614,174615,5
91607,174610,7
91617,174636,7
91642,174682,6
91663,174760,4
91830,174968,8
91830,174968,6
91805,175007,5
91866,175044,8
91885,175068,6
91905,175097,7
90803,175143,7
90803,175143,6
91906,175147,3
91899,175104,2
91876,175143,4
90644,175168,5
91900,175168,5
91894,175170,6
91898,175180,3
92121,175202,5
91920,175225,5
91952,175252,5
91957,175255,5
93073,175258,4
91957,175283,5
91969,175298,5
91979,175342,5
93131,175371,5
91996,175399,4
91999,175445,5
91987,175494,5
92354,175486,5
91914,175489,4
91841,175451,4
91765,175424,5
91755,175150,5
91651,175440,5
91639,175547,4
91583,175613,6
91550,174760,4
91477,175716,5
91461,175819,5
91444,175944,4
91466,174914,4
91443,176150,5
91417,176221,5
91427,176270,5
91416,176099,4
91384,176348,5
91368,176356,5
91353,176415,5
91328,177311,5
91308,176437,4
91288,176456,5
91255,176455,5
91255,177779,5
91255,176519,5
91236,176546,4
91239,176588,5
91241,177230,5
91231,176681,5
91218,176709,4
91203,176764,4
91194,176940,6
91219,176852,4
91215,176899,5
91205,176949,4
91204,176970,5
91198,176965,5
91176,176994,5
91197,177065,5
91200,177155,4
91207,177220,5
91228,177247,5
91250,177300,5
91266,177357,5
91288,177424,4
91315,177527,5
91372,177659,5
91392,177730,5
91433,177817,5
91455,177872,4
91482,177940,5
91500,177988,5
91534,178036,5
91532,178087,4
91542,178086,4
91550,178143,5
91557,178178,6
91575,178211,4
91593,178269,4
91608,178293,5
91616,178312,5
91607,178324,5
91618,178344,5
91615,178325,4
91620,178345,5
91612,178358,5
91621,178375,5
91641,178401,5
91638,178408,4
91652,178442,5
91655,178465,5
91665,178504,5
91670,178527,5
91684,178563,4
91710,178595,5
91726,178643,5
91737,178680,5
91750,178737,5
91790,178781,4
91821,178837,5
91855,178904,5
91881,178958,6
91916,178997,3
91925,179024,4
91937,179058,5
91965,179090,5
91992,179121,5
92007,179133,4
92016,179140,5
92059,179194,5
92095,179239,5
92115,179246,5
92124,179234,4
92163,179245,5
92199,179301,5
92232,179334,5
92267,179366,5
92282,179377,4
92304,179389,5
92342,179440,5
92375,179471,5
92401,179497,5
92414,179493,5
92429,179511,4
92456,179528,5
92476,179589,5
92518,179623,6
92545,179685,3
92527,179741,5
92614,179789,5
92645,179839,5
92675,179877,4
91974,179905,4
92732,179944,5
92753,179972,5
92773,179997,5
91715,179999,4
92788,179996,5
92786,179981,5
92790,179997,5
92255,180031,5
92824,180044,4
92833,179981,5
92778,179903,5
93390,179873,5
92781,179903,5
92792,179907,4
92776,179865,6
93901,179826,4
92746,179794,5
92747,179758,5
92736,179730,4
93424,179697,5
92722,179660,5
92724,179621,5
92714,179568,5
92886,179524,4
92699,179497,5
92693,179462,5
92673,179429,5
92661,178794,4
92650,179322,4
92630,179268,5
92628,179247,5
92608,178195,5
92597,179159,4
92588,179122,5
92575,179078,5
92570,177977,5
92582,179053,5
92587,179036,4
92590,179020,5
92561,179352,5
92534,178983,4
92514,178999,5
92491,179015,4
92487,180142,5
92479,179022,5
92471,178998,5
92455,178954,5
92453,179915,4
92461,178929,5
92467,178927,5
92503,178955,5
92498,179270,5
92507,178950,4
92513,178945,5
92523,178938,5
92541,178970,5
92549,178941,4
92550,178944,5
92561,178934,5
92559,178927,5
92567,178937,5
92565,178922,4
92581,178917,5
92583,178914,5
92592,178916,6
92601,178910,4
92612,178925,4
92621,178915,5
92638,178913,5
92650,178919,5
92673,178930,5
92693,178940,4
92708,178955,5
92733,178969,5
92739,179000,5
92784,179062,5
92855,179144,4
92913,179218,5
92965,179263,5
93026,179317,5
93069,179366,4
93111,179417,4
93158,179487,5
93193,179509,5
93218,179555,5
93256,179596,5
93308,179668,4
93386,179780,5
93540,180004,5
93773,180252,5
94070,180577,4
94349,180850,5
94588,181023,5
94763,181170,5
94946,181352,5
95154,181509,4
95320,181642,5
95496,181726,5
95711,181881,5
95960,182050,5
96232,182208,4
96510,182339,5
96738,182470,5
97002,182588,5
97192,182631,5
97428,182695,4
97645,182803,5
97811,182807,5
97879,182769,5
97966,182760,4
98104,182841,5
98258,182940,4
98394,183010,5
98460,183039,5
98507,183009,4
98568,183037,5
98633,183050,5
98680,183077,5
98763,183137,5
98874,183221,4
98978,183288,5
99093,183341,5
99181,183383,5
99280,183422,5
99367,183430,4
99433,183439,5
99473,183453,5
99511,183485,5
99586,183534,5
99698,183638,4
99800,183694,5
99859,183729,5
99416,183723,5
99951,183738,5
99982,183770,4
100040,183775,6
98924,183720,4
100097,183738,5
100141,183738,4
100237,183785,4
98933,183790,5
100350,183789,5
100381,183761,5
100327,183638,4
100283,183569,5
100203,183533,5
100176,183516,5
100164,183504,5
101213,183427,4
100082,183382,5
100066,183376,5
100039,183356,5
101391,183350,5
99986,183283,4
99931,183230,5
99941,183287,5
100482,183326,5
99976,183318,5
99946,183286,4
99902,183244,5
99948,183049,5
99793,183170,5
99680,183054,5
99518,182959,4
99444,182025,5
99356,182834,5
99322,182844,5
99227,182742,5
99104,181567,4
99026,182766,5
99033,182808,5
99020,182786,5
99064,182338,4
99079,182886,5
99100,182899,5
98984,182759,5
98914,183363,5
98695,182497,4
98546,182308,4
98455,182252,5
98357,183175,5
98144,181886,5
97977,181705,4
97831,181530,5
97729,182107,5
97619,181395,5
97440,181263,5
97379,181095,4
97213,181040,5
97045,180680,5
96946,180565,5
96816,180448,4
96635,180241,4
96499,180033,5
96402,179858,5
96377,179814,5
96374,179810,4
96387,179805,5
96401,179774,5
96383,179757,5
96313,179695,5
96285,179666,4
96269,179699,6
96259,179694,4
96255,179678,5
96265,179713,5
96298,179733,6
96308,179766,3
96300,179822,5
96306,179857,5
96325,179902,5
96315,179909,4
96298,179895,5
96299,179873,5
96295,179879,5
96285,179890,5
96268,179881,4
96274,179876,5
96271,179842,5
96251,179824,5
96239,179829,4
96227,179829,4
96192,179791,5
96161,179721,5
96135,179674,5
96102,179624,4
96064,179557,5
96034,179512,6
95975,179425,4
95935,179375,5
95888,179309,4
95839,179235,7
95789,179137,3
95750,179101,5
95708,179048,5
95673,178998,4
95636,178941,5
95594,178896,5
95541,178826,5
95465,178739,5
95375,178643,4
95313,178603,5
95269,178546,5
95209,178487,5
95158,178466,5
95084,178393,4
95014,178337,5
94920,178252,5
94812,178152,5
94720,178078,4
94588,177971,5
94488,177926,5
94392,177894,6
94332,177864,4
94241,177760,4
94130,177657,5
94066,177652,5
94000,177604,5
93900,177547,5
93811,177520,4
93769,177485,5
93689,177421,5
93645,177396,5
93604,177375,5
93550,177383,4
93465,177339,5
93417,177314,5
93366,177263,5
93308,177242,5
92749,177185,4
93210,177135,5
93159,177110,5
93132,177135,5
92338,177095,5
93044,177052,4
93020,177035,5
93026,177048,5
92647,177062,6
93025,177049,3
93022,177032,5
93013,177024,5
93437,177015,5
92996,177030,5
92996,177052,4
93028,177058,5
93832,177080,5
93070,177099,5
93089,177129,5
93089,177132,4
93561,177176,5
93147,177235,5
93222,177303,5
93292,177372,5
93461,177432,4
93414,177495,5
93465,177558,5
93501,177587,5
93526,177202,4
93542,177643,5
93563,177637,4
93553,177643,5
93575,176931,5
93617,177670,6
93681,177731,3
93749,177774,5
93848,177177,5
93971,177948,5
94057,177994,4
94130,178050,6
94209,178451,4
94265,178151,5
94324,178228,5
94398,178300,4
94476,179223,5
94580,178456,5
94630,178507,5
94702,178539,5
94796,179245,4
94836,178583,5
94874,178591,5
94945,178607,5
95024,178845,5
95101,178715,4
95218,178799,6
95331,178848,4
95406,178874,5
95491,178952,4
95564,179016,4
95631,179052,5
95714,179089,5
95785,179084,5
95879,179099,4
95943,179093,5
96068,179191,5
96152,179182,5
96225,179190,5
96307,179229,4
96349,179208,5
96394,179166,5
96511,179186,5
96571,179177,5
96626,179123,4
96665,179096,5
96701,179040,5
96699,178869,5
96751,178756,5
96795,178683,4
96859,178636,5
96904,178561,6
96930,178476,4
97015,178444,4
97053,178365,4
97117,178336,5
97221,178378,5
97291,178413,5
97355,178448,4
97412,178506,5
97487,178547,5
97555,178612,5
97611,178690,5
97652,178765,4
97683,178853,5
97693,178927,5
97650,179037,5
97610,179194,5
97610,179383,4
97596,179612,5
97609,179868,5
97642,180069,5
97693,180247,5
97755,180419,4
97831,180658,5
97885,180867,5
97945,181137,6
97974,181403,4
98017,181707,4
98088,182028,5
98154,182300,5
98190,182523,5
98219,182804,4
98270,183020,4
98309,183206,5
98318,183355,5
98340,183520,5
98383,183642,4
98434,183773,5
98471,183865,5
98503,183933,5
98542,184059,5
98598,184137,4
98635,184239,5
98657,184319,5
98664,184396,5
98697,184514,5
98736,184622,5
98781,184734,4
98811,184827,5
98814,184898,5
98830,184977,5
98870,185081,4
98893,185144,5
98908,185193,5
98335,185262,5
98941,185325,5
98981,185394,4
99048,185560,5
98106,185694,5
99163,185811,5
99187,185907,4
99211,186003,4
98302,186121,5
99280,186237,5
99293,186362,5
99301,186468,4
99680,186581,5
99318,186757,5
99340,186928,5
99357,187042,5
100419,187161,4
99357,187318,6
99376,187481,4
99379,187625,5
100190,187701,5
99362,187839,4
99371,187972,5
99351,188095,5
99617,188245,5
99372,188422,5
99385,188605,4
99411,188731,5
99414,188413,5
99415,188895,5
99420,189050,4
99418,189175,4
99407,188426,5
99418,189429,5
99388,189528,5
99377,189626,5
99357,188668,4
99343,189852,5
99374,189994,5
99381,190165,5
99379,190386,4
99407,190389,8
99433,190481,3
99424,190572,4
99438,191571,5
99461,190699,4
99466,190750,5
99471,190808,5
99489,191920,5
99515,190923,5
99529,190985,4
99542,191028,5
99560,191468,5
99576,191121,5
99582,191139,5
99605,191145,4
99601,191233,5
99644,191236,5
99668,191276,5
99671,191304,4
99684,191328,4
99694,191336,5
99706,191369,5
99717,191415,5
99748,191459,4
99762,191504,5
99776,191555,5
99796,191590,5
99799,191612,5
99806,191670,4
99833,191716,5
99839,191777,5
99853,191823,5
99847,191866,5
99851,191891,4
99859,191919,5
99871,191938,5
99865,191968,5
99887,191978,5
99894,191994,4
99893,191979,5
99910,192002,5
99910,191999,5
99931,192003,5
99940,192001,4
99941,192003,5
99950,192005,5
99961,191983,5
99958,191973,5
99966,191961,4
99975,191952,5
99980,191951,5
99991,191949,5
100006,191946,4
100036,191941,5
100043,191940,5
100030,191912,5
100046,191904,5
100064,191924,4
100061,191926,5
100076,191916,5
100081,191933,5
100072,191937,5
100074,191939,4
100075,191959,5
100075,191962,5
100096,191960,5
100087,191963,5
100092,191969,4
100082,191964,5
100070,191959,5
100058,191940,5
100045,191955,5
100042,191934,5
100021,191926,4
100028,191953,5
100022,191982,5
100029,192001,4
100025,192019,4
100020,192035,5
100006,192047,5
99997,192058,5
100004,192097,4
99990,192108,5
99993,192127,5
99990,192142,5
99992,192156,5
99985,192179,4
99974,192211,5
99956,192231,5
99953,192242,5
99949,192273,5
99959,192309,4
99697,192345,5
99985,192385,5
100002,192412,4
100004,192412,5
99161,192443,4
100021,192480,6
100057,192509,3
100081,192530,5
99002,192573,4
100092,192602,4
100096,192644,5
100112,192670,5
99962,192709,5
100123,192742,4
100129,192775,4
100160,192814,5
101008,192839,5
100217,192892,5
100236,192946,4
100262,192993,5
101442,193109,5
100365,193164,5
100383,193222,5
100402,193271,4
100863,193304,5
100421,193318,5
100429,193335,6
100425,193363,4
100510,193300,4
100451,193399,5
100465,193412,5
100474,193427,5
100482,192769,5
100495,193477,4
100496,193497,5
100500,193516,5
100490,192547,5
100499,193556,4
100482,193557,4
100496,193568,5
100500,193104,5
100490,193606,5
100516,193618,4
100521,193623,5
100530,194246,5
100540,193639,5
100550,193649,5
100568,193665,5
100603,194783,4
100644,193661,5
100674,193604,5
100712,193518,6
100733,194149,3
100809,193494,5
100868,193475,5
100919,193433,5
100971,193601,5
101016,193421,4
101028,193414,5
101071,193401,5
101088,193429,5
101080,193424,5
101085,193443,4
101116,193458,5
101158,193470,5
101283,193492,5
101394,193477,4
101532,193414,4
101581,193324,5
101664,193273,5
101716,193259,5
101805,193188,4
101951,193212,6
102183,193203,4
102441,193230,5
102707,193324,5
102902,193350,6
102964,193320,3
102970,193239,5
102961,193215,5
102923,193195,5
102935,193190,4
102930,193169,5
102926,193130,5
102920,193089,5
102911,193036,5
102896,192989,4
102874,192961,5
102841,192894,5
102784,192814,5
102735,192721,5
102680,192649,4
102639,192590,5
102581,192529,5
102500,192471,5
102394,192387,4
102333,192328,4
102270,192278,6
102193,192220,4
102114,192163,5
102049,192100,4
101992,192030,5
101945,191987,5
101895,191914,5
101828,191828,5
101760,191736,4
101718,191672,5
101664,191589,5
101630,191511,5
101574,191444,5
101535,191378,4
101483,191317,5
101399,191249,5
101300,191190,5
101195,191103,5
101127,191058,4
101018,191013,5
100935,191035,5
100828,191002,5
100742,190971,5
100627,190927,4
100542,190918,5
100493,190933,6
100395,190896,4
100312,190905,4
100270,190917,5
100250,190930,5
100210,190938,5
100182,190938,5
100162,190964,4
100168,190963,5
100157,190970,5
100141,191001,5
100130,191009,5
100123,191045,4
100130,191100,5
100133,191139,5
99596,191192,5
100157,191231,5
100174,191300,4
100197,191388,5
99296,191452,5
100152,191506,5
100115,191558,5
100059,191586,4
99283,191615,5
99915,191617,5
99832,191694,6
99803,191835,3
100152,191963,4
99650,192071,5
99566,192159,5
99496,192236,5
100442,192380,4
99498,192544,5
99507,192673,5
99514,192760,5
100227,192855,5
99558,192960,4
99598,193079,5
99625,193178,5
99880,193268,5
99715,193337,5
99758,193399,4
99787,193473,5
99829,193143,5
99860,193615,5
99892,193694,5
99935,193774,5
99970,193008,4
100022,193937,5
100043,194027,5
100087,194114,5
100111,193181,4
100126,194249,5
100118,194283,5
100119,194358,5
100108,194558,4
100086,194423,4
100081,194517,5
100077,194616,5
100074,195624,5
100101,194752,4
100114,194774,5
100146,194849,5
100192,195896,5
100218,194928,5
100261,194969,4
100302,195044,5
100363,195457,5
100401,195127,5
100443,195184,5
100480,195223,4
100514,195310,6
100553,195277,4
100612,195292,5
100644,195283,5
100680,195292,4
100697,195267,5
100718,195223,5
100720,195185,5
100732,195129,5
100763,195114,4
100792,195100,5
100792,195112,5
100844,195174,5
100885,195220,4
100899,195287,4
100921,195343,5
100962,195426,5
100990,195515,5
101008,195564,4
101015,195629,5
101054,195685,5
101067,195707,5
101103,195756,5
101130,195780,4
101141,195768,5
101116,195752,6
101136,195747,4
101144,195757,5
101170,195724,4
101193,195726,5
101182,195705,5
101215,195697,5
101236,195685,5
101253,195644,4
101323,195626,5
101356,195606,5
101419,195612,5
101441,195542,5
101472,195533,4
101545,195518,5
101573,195444,5
101649,195387,5
101675,195323,4
101706,195264,4
101717,195190,5
101713,195096,5
101718,195035,5
101716,194987,4
101732,194943,5
101756,194898,5
101757,194867,6
101790,194844,4
101780,194747,4
101758,194696,5
101758,194647,5
101748,194575,5
101765,194581,5
101757,194546,4
101750,194491,5
101751,194501,5
101772,194502,5
101810,194518,5
101830,194503,4
101868,194502,5
101892,194488,5
101922,194482,5
101955,194509,4
102012,194546,4
102068,194579,5
102119,194610,5
102155,194657,5
102201,194697,5
102211,194685,4
102222,194691,5
102246,194719,5
102271,194747,5
102283,194777,4
101988,194823,5
102313,194861,5
102321,194910,5
102331,194991,5
101349,195050,4
102322,195104,5
102311,195142,5
102309,195192,5
101074,195255,5
102339,195311,4
102350,195355,5
102362,195407,5
102199,195472,5
102433,195533,5
102462,195591,4
102495,195628,6
103461,195686,4
102579,195774,5
102606,195824,4
102644,195896,5
103978,195950,4
102710,196013,5
102742,196062,5
102761,196088,4
103346,196114,5
102767,196112,5
102765,196134,5
102774,196145,5
102896,196146,4
102785,196191,5
102791,196196,5
102800,196227,5
102810,195423,5
102816,196214,4
102826,196212,5
102834,196203,5
102834,195009,5
102844,196188,5
102854,196158,4
102858,196169,5
102866,195425,5
102848,196149,5
102846,196159,5
102842,196148,4
102818,196829,6
102809,195473,4
102788,195472,5
102784,195470,4
102784,196780,4
102775,195482,5
102762,195476,5
102755,195477,5
102740,196346,4
102740,195510,5
102724,195492,5
102729,195499,5
102728,195714,5
102709,195502,4
102705,195502,5
102699,195492,5
102685,195480,5
102681,195478,5
102680,195474,4
102673,195474,5
102676,195477,5
102667,195473,5
102673,195487,5
102680,195489,4
102673,195469,5
102686,195485,5
102672,195493,5
102669,195475,5
102678,195478,4
102673,195465,5
102683,195461,5
102687,195472,5
102685,195468,4
102692,195477,4
102712,195484,5
102719,195494,5
102723,195502,5
102750,195515,4
102762,195537,5
102787,195541,5
102795,195532,5
102810,195532,5
102824,195522,4
102836,195502,4
102845,195516,5
102860,195501,5
102872,195489,6
102905,195505,3
102926,195510,5
102945,195516,5
102975,195539,5
102988,195538,5
103018,195547,4
103047,195543,5
103095,195563,5
103127,195596,5
103173,195609,5
103202,195616,4
103219,195618,5
103257,195640,5
103270,195640,5
103302,195666,4
103324,195673,4
103346,195689,5
103399,195721,5
103425,195719,5
103453,195736,4
103485,195757,6
103487,195768,4
103497,195760,5
103487,195769,5
103504,195810,6
103512,195830,3
103530,195857,5
103547,195849,5
103544,195872,5
103559,195879,4
103563,195890,5
103557,195905,5
103565,195919,5
103585,195941,5
103579,195945,4
103593,195960,5
103596,195966,5
103610,195987,5
103611,195999,4
103613,196004,4
103605,196002,5
103600,195995,5
103591,195994,5
103592,195994,4
103592,196012,5
103591,196013,6
102894,196028,4
103588,196034,5
103601,196037,4
103600,196038,5
102445,196039,5
103600,196044,5
103600,196051,5
103594,196050,4
102640,196049,5
103616,196060,5
103611,196068,5
103612,196064,5
104103,196067,4
103611,196074,5
103612,196054,5
103624,196064,5
104829,196065,5
103618,196052,4
103620,196057,5
103626,196050,5
104560,196060,5
103621,196048,4
103620,196034,4
103620,196031,5
103917,196010,6
103618,196006,4
103617,195998,4
103620,195988,5
103625,195519,5
103610,195987,5
103606,195972,5
103602,195971,4
103606,194906,5
103600,195969,5
103603,195947,5
103588,195937,5
103580,194682,4
103572,195943,5
103577,195929,5
103567,195920,5
103558,196014,5
103567,195926,4
103553,195914,5
103555,195915,5
103551,197024,5
103557,195919,5
103559,195909,4
103566,195902,5
103569,197191,5
103580,195885,6
103603,195894,3
103630,195945,4
103666,196456,5
103686,195995,5
103737,196040,5
103792,196051,4
103859,196147,5
103928,196151,5
103977,196186,5
104055,196231,5
104141,196285,4
104163,196338,5
104260,196412,5
104353,196507,5
104423,196549,5
104512,196642,4
104599,196707,5
104669,196793,5
104737,196854,5
104782,196880,5
104841,196924,5
104858,196931,4
104884,196970,5
104906,196983,5
104929,196981,6
104932,196988,3
104938,196974,5
104934,196977,5
104914,196968,5
104898,196967,4
104889,196947,4
104878,196931,5
104869,196909,5
104852,196908,5
104823,196897,4
104808,196883,5
104779,196859,5
104773,196863,5
104755,196848,5
104733,196843,4
104730,196853,5
104721,196846,5
104693,196841,5
104680,196822,5
104648,196799,4
104618,196779,6
104594,196771,4
104569,196756,5
104550,196739,5
104533,196718,4
104492,196698,5
104484,196682,5
104463,196668,5
104466,196661,4
104451,196654,4
104450,196660,5
104436,196646,5
104431,196641,5
104430,196645,4
104421,196644,5
104425,196637,5
104436,196652,5
104430,196651,5
104443,196651,4
104441,196658,5
104433,196647,5
104431,196646,5
104440,196648,5
104454,196654,4
104464,196653,5
104479,196661,6
104485,196661,4
104500,196671,5
104513,196665,4
104528,196684,5
104540,196700,5
104548,196715,5
104570,196713,5
104573,196721,4
104589,196728,5
104600,196739,5
104608,196737,5
104614,196749,4
104367,196756,4
104631,196757,5
104643,196763,5
104644,196758,5
103744,196763,4
104675,196800,5
104690,196790,5
104693,196772,5
103484,196778,5
104707,196779,4
104725,196786,5
104761,196804,5
104477,196809,6
104767,196792,4
104758,196779,4
104755,196772,5
105619,196784,5
104756,196784,5
104777,196788,5
104794,196802,4
106085,196786,5
104803,196785,5
104806,196773,5
104808,196778,5
105435,196773,4
104854,196786,5
104858,196787,5
104858,196786,5
104998,196780,4
104884,196791,4
104887,196801,5
104904,196782,5
104904,196027,5
104906,196770,5
104906,196775,4
104909,196775,5
104912,195602,5
104918,196778,5
104930,196784,4
104923,196774,5
104919,196000,5
104926,196767,5
104920,196764,5
104916,196762,5
104926,197402,4
104927,196779,5
104946,196771,5
104954,196780,5
104962,198100,4
104977,196792,5
104973,196778,5
104983,196788,5
104991,197656,5
104986,196771,4
104991,196779,5
104994,196778,5
105003,197013,5
105011,196779,4
105028,196791,5
105029,196791,4
105039,196790,5
105051,196792,5
105047,196798,4
105081,196787,5
105085,196802,5
105079,196799,5
105095,196778,5
105089,196775,4
105095,196790,5
105096,196800,5
105091,196798,5
105104,196808,5
105106,196812,4
105116,196813,5
105113,196801,5
105132,196803,5
105138,196791,5
105149,196781,4
105143,196774,5
105149,196751,5
105143,196738,5
105136,196716,4
105148,196719,4
105140,196719,6
105145,196715,4
105139,196716,5
105135,196715,4
105135,196710,5
105143,196724,5
105146,196735,5
105150,196736,5
105160,196743,4
105153,196738,5
105174,196747,5
105174,196760,5
105177,196762,5
105188,196778,4
105198,196779,5
105197,196788,5
105204,196775,5
105208,196794,5
105203,196774,4
105203,196769,5
105199,196759,5
105189,196753,5
105182,196726,5
105179,196734,4
105159,196719,5
105161,196700,5
105172,196706,5
105154,196713,4
105167,196719,4
105166,196713,5
105168,196703,5
105168,196700,5
105178,196706,4
105186,196704,5
105193,196713,5
105191,196708,5
105183,196698,5
105162,196688,4
105156,196700,5
105153,196700,5
105162,196710,5
105164,196708,5
105165,196708,4
105162,196705,5
105147,196695,5
105152,196696,5
105168,196698,5
105164,196706,4
105168,196710,5
105168,196711,5
105173,196705,5
105173,196715,5
105178,196716,4
105178,196719,5
104495,196714,5
105181,196718,5
105179,196718,4
105175,196715,4
104023,196710,5
105187,196723,5
105197,196717,5
105192,196718,4
104153,196721,5
105192,196713,5
105204,196714,5
105188,196711,5
105677,196714,4
105203,196720,5
105209,196728,4
105203,196718,5
106438,196728,5
105205,196724,5
105202,196711,3
105208,196720,5
106140,196715,5
105200,196712,5
105200,196721,4
105203,196735,5
105495,196735,5
105211,196736,5
105212,196738,4
105222,196740,4
105236,196255,5
105233,196743,5
105225,196749,5
105229,196752,4
105241,195696,5
105248,196749,5
105252,196749,5
105242,196749,5
105247,195476,4
105239,196745,5
105241,196731,6
105240,196738,4
105242,196853,5
105253,196751,4
105256,196757,7
105263,196767,3
105269,197881,5
105286,196770,5
105288,196780,4
105291,196772,5
105283,198086,5
105291,196777,5
105292,196773,5
105305,196779,4
105290,197271,5
105302,196794,5
105298,196794,5
105304,196803,4
105296,196860,4
105308,196795,5
105310,196772,5
105303,196779,5
105294,196774,4
105296,196772,5
105310,196784,5
105310,196781,6
105298,196778,4
105296,196765,4
105292,196764,8
105267,196724,2
105229,196714,5
105233,196693,5
105210,196672,4
105188,196663,5
105174,196637,5
105158,196625,5
105145,196601,5
105144,196575,4
105132,196568,5
105131,196558,5
105128,196550,5
105129,196538,5
105138,196538,4
105160,196532,5
105169,196520,5
105187,196524,5
105192,196522,5
105217,196531,4
105231,196534,5
105250,196536,5
105274,196522,6
105286,196518,3
105310,196516,5
105341,196514,5
105383,196538,5
105476,196509,5
105551,196521,4
105648,196482,5
105776,196496,5
105908,196482,5
106047,196442,5
106192,196405,4
106343,196394,5
106438,196386,5
106518,196414,5
106597,196453,5
106685,196472,4
106801,196549,5
106930,196628,5
107071,196669,5
107183,196702,5
107309,196725,5
107428,196752,4
107547,196814,5
107687,196855,5
107781,196841,6
107936,196881,3
108072,196971,5
108215,197014,5
108304,197061,5
108335,197048,4
108447,197171,5
108554,197251,5
108634,197281,5
108697,197334,5
108741,197369,4
108797,197405,5
108860,197496,5
108934,197602,5
109021,197707,5
109101,197829,4
109151,197910,5
109212,197998,5
109239,198028,5
109294,198083,5
109196,198161,4
109428,198216,6
109527,198259,4
109619,198292,5
108837,198393,4
109909,198457,4
110071,198544,5
110282,198594,5
109211,198707,5
110681,198813,4
110869,198866,4
111149,198976,5
110988,199079,5
111691,199198,5
111930,199337,4
112210,199486,5
113121,199581,5
112482,199667,5
112607,199730,5
112778,199793,4
114188,199918,5
113084,199956,5
113223,200014,5
113323,199946,5
114106,200021,4
113560,200068,5
113646,200139,6
113713,200206,4
113895,200208,5
113842,200264,4
113940,200290,5
113960,200250,5
113973,199523,5
114015,200150,4
114083,200119,4
113995,199824,5
113935,198627,5
113912,199630,5
113909,199526,4
113957,199349,5
113892,198220,5
113818,198697,5
113769,198455,5
113659,198156,5
113598,198482,4
113491,197760,5
113460,197627,5
113422,197545,5
113370,198525,4
113334,197210,5
113286,197039,5
113147,196806,6
113143,197426,4
113012,196297,4
112868,196012,5
112473,195244,5
112326,195231,5
112234,194760,5
111984,194221,4
111729,193725,5
111469,193212,5
111232,192859,5
111034,192536,4
110823,192097,4
110563,191718,5
110341,191363,5
110107,190969,5
109824,190607,4
109626,190257,5
109363,189866,5
109079,189514,5
108797,189190,5
108557,188838,5
108270,188518,4
107970,188176,5
107715,187875,5
107493,187640,5
107339,187436,4
107061,187148,5
106816,186832,5
106557,186505,5
106366,186192,5
106182,185955,4
105936,185585,5
105775,185359,5
105603,185188,5
105425,184916,4
105262,184786,4
105071,184582,5
104890,184376,5
104700,184145,5
104433,183890,4
104162,183704,4
103969,183626,5
103795,183484,5
103630,183400,5
103374,183299,4
103102,183125,6
102786,182912,4
102525,182809,5
102311,182760,5
102051,182727,4
101870,182818,5
101668,182896,5
101445,182875,5
101224,182913,5
101050,182987,4
100995,183084,5
100866,183089,5
100885,183251,5
100865,183287,5
100888,183382,4
100883,183459,5
100862,183497,5
100822,183542,5
100832,183612,4
100780,183649,4
100689,183645,5
100589,183702,5
100508,183824,5
100403,183858,4
100287,183831,5
100187,183845,6
100075,183865,4
100000,183940,5
99947,184003,4
99872,184050,5
99737,184068,5
99625,184083,5
99541,184092,5
99460,184159,4
99394,184197,5
99345,184253,5
99313,184282,5
99283,184312,5
99218,184299,4
99139,184294,5
98730,184289,5
98998,184316,5
98956,184380,5
98924,184462,4
98301,184506,5
98852,184566,5
98810,184557,5
98780,184601,4
98168,184621,4
98678,184651,5
98615,184703,6
98569,184724,4
98769,184737,4
98511,184756,5
98462,184744,5
98392,184727,5
98965,184754,5
98251,184771,4
98197,184807,5
98110,184817,5
98537,184854,5
97969,184851,5
97884,184876,4
97797,184913,5
97888,184950,5
97689,185012,5
97609,185041,5
97536,185119,5
97493,184946,4
97418,185247,5
97369,185295,5
97319,185318,6
97267,184818,3
97232,185383,5
97204,185421,5
97149,185449,5
97089,184867,4
96977,185490,5
96878,185518,5
96765,185559,5
96655,185660,5
96523,185561,4
96419,185590,5
96339,185669,5
96226,186220,5
96082,185665,5
95914,185645,4
95743,185730,5
95575,186418,5
95337,185938,5
95096,186089,5
94822,186140,4
94502,186430,5
94202,186381,5
93903,186522,5
93660,186689,5
93411,186713,5
93209,186836,4
93061,186904,5
92875,186962,5
92741,187033,4
92651,187170,4
92567,187265,5
92520,187339,5
92480,187367,5
92467,187406,4
92475,187475,5
92495,187525,5
92505,187585,5
92521,187661,5
92537,187726,4
92570,187774,5
92605,187804,5
92624,187849,5
92613,187840,5
92609,187821,4
92581,187825,5
92591,187805,5
92616,187806,5
92565,187725,5
92435,187654,4
92338,187607,6
92257,187571,4
92210,187562,5
92111,187527,5
92020,187465,4
91896,187397,5
91802,187441,5
91733,187462,5
91658,187479,4
91575,187480,4
91527,187532,5
91515,187573,5
91498,187576,5
91495,187608,4
91482,187606,5
91450,187603,5
91457,187663,5
91431,187710,5
91377,187724,4
91362,187820,5
91367,187878,5
91347,187915,5
91307,188001,4
91253,188032,4
91261,188169,5
91276,188312,5
91267,188387,5
91295,188525,5
91340,188626,4
91350,188670,5
91339,188722,5
91407,188794,5
91270,188742,4
91199,188802,4
91161,188884,5
91220,189056,5
91246,189182,5
91296,189278,4
91321,189279,5
91331,189407,5
91334,189485,5
91297,189488,5
91306,189587,5
91327,189658,4
91312,189689,5
91303,189728,5
91293,189794,6
91326,189896,3
91356,190026,5
91367,190094,5
91374,190162,5
91380,190230,5
91242,190301,4
91393,190356,5
91414,190491,5
91471,190684,5
91167,190789,5
91542,190883,4
91574,190971,5
91625,191078,5
91233,191179,5
91715,191316,4
91772,191402,4
91840,191559,5
91980,191708,5
92007,191830,5
92055,191917,4
92118,192001,6
92570,192103,4
92255,192237,5
92329,192346,5
92394,192459,6
92868,192577,3
92494,192687,5
92544,192777,5
92603,192870,5
92823,192958,4
92748,193037,5
92827,193130,5
92900,193211,5
93000,193225,5
93040,193350,4
93078,193406,5
93140,193448,5
93186,193178,5
93215,193563,5
93254,193638,4
93274,193684,5
93270,193281,5
93254,193773,5
93252,193820,4
93230,193853,4
93208,193760,5
93204,193918,4
93194,193947,5
93217,194002,4
93237,194359,5
93253,194094,5
93284,194167,5
93308,194191,5
93333,194719,4
93362,194264,5
93392,194279,5
93393,194295,5
93427,194570,5
93457,194347,4
93512,194357,5
93541,194376,5
93566,194433,5
93601,194389,5
93634,194389,4
93666,194386,5
93701,194415,5
93721,194428,5
93760,194440,4
93786,194443,4
93811,194452,5
93834,194452,6
93850,194456,4
93856,194456,4
93874,194471,5
93885,194458,5
93907,194474,5
93920,194483,5
93950,194493,4
93982,194498,5
94013,194519,5
94067,194558,5
94104,194568,5
94144,194606,4
94192,194632,5
94218,194636,5
94239,194662,5
94279,194675,5
94293,194695,4
94321,194711,5
94340,194720,5
94360,194740,5
94382,194757,5
94393,194769,4
94421,194779,5
94458,194794,5
94486,194811,6
94503,194801,3
94526,194813,4
94568,194850,5
94594,194851,5
94614,194871,5
94658,194889,4
94692,194910,5
94715,194922,5
94744,194917,5
94763,194920,5
94776,194924,4
94779,194919,5
94783,194907,5
94792,194912,5
94800,194911,5
94794,194921,4
94799,194910,5
94790,194916,5
94790,194919,5
94806,194914,5
94798,194912,5
94796,194911,4
94801,194902,5
94824,194928,5
94841,194934,6
94853,194934,3
94862,194933,5
94844,194924,5
94849,194922,5
94854,194917,4
94841,194919,4
94846,194924,5
94831,194911,5
94845,194922,5
94841,194928,4
94847,194929,5
94853,194935,5
94844,194930,5
94848,194930,5
94842,194921,4
94850,194926,5
94853,194945,5
94848,194925,5
94865,194926,5
94860,194929,4
94863,194941,6
94575,194944,4
94898,194946,5
94891,194959,5
94909,194957,4
94460,194955,5
94918,194960,5
94918,194952,5
94943,194967,4
94696,194970,4
94965,194963,5
94966,194960,5
94990,194969,5
95265,194975,4
95003,194952,5
95017,194961,5
95018,194961,5
95520,194953,5
95020,194941,4
95013,194946,5
94999,194936,5
95318,194935,5
94991,194926,5
94992,194927,4
94977,194915,5
95061,194906,6
94978,194908,4
94993,194920,5
94994,194910,4
94992,194686,5
95002,194933,5
95014,194924,5
95024,194937,5
95038,194486,4
95034,194917,5
95053,194917,5
95063,194924,5
95081,194461,4
95102,194930,4
95125,194937,5
95147,194936,5
95161,195093,5
95182,194954,4
95196,194965,5
95219,194969,5
95218,195448,5
95220,194964,5
95234,194951,4
95246,194953,5
95261,195394,5
95264,194954,6
95283,194960,4
95288,194958,4
95304,195113,5
95305,194953,5
95307,194941,5
95316,194933,5
95306,194947,4
95316,194925,5
95313,194934,5
95316,194931,5
95331,194943,5
95333,194928,4
95333,194941,5
95337,194936,5
95350,194955,5
95360,194969,4
95385,194972,4
95396,194991,5
95416,195008,5
95428,195023,5
95447,195027,5
95447,195054,4
95467,195044,5
95475,195049,5
95482,195046,5
95476,195048,4
95465,195035,5
95464,195040,5
95464,195030,5
95468,195042,5
95471,195039,4
95472,195048,5
95476,195048,5
95480,195050,5
95494,195056,5
95501,195047,4
95505,195059,5
95525,195056,5
95522,195042,5
95528,195038,4
95531,195041,4
95533,195040,5
95542,195053,5
95543,195043,5
95551,195034,4
95549,195039,6
95543,195035,4
95552,195040,5
95556,195040,5
95557,195040,4
95561,195036,5
95567,195020,5
95561,195000,5
95570,194983,5
95576,195008,4
95572,194991,5
95578,194979,5
95578,194975,5
95576,194973,5
95568,194968,4
95564,194962,5
95559,194964,5
95551,194958,5
95552,194951,5
95542,194943,4
95541,194936,5
95538,194931,5
95557,194935,5
95554,194928,4
95552,194934,4
95552,194929,6
95551,194925,4
95554,194927,5
95558,194927,4
95552,194927,5
95545,194916,5
95551,194906,5
95550,194909,5
95550,194918,4
95553,194912,5
95540,194912,5
95555,194902,5
95555,194914,5
95375,194909,4
95566,194911,5
95561,194900,5
95569,194905,5
95152,194896,5
95586,194903,4
95589,194917,5
95592,194910,5
95102,194912,5
95602,194917,5
95606,194915,4
95606,194921,5
95657,194913,5
95617,194921,5
95608,194929,4
95620,194907,4
96058,194918,5
95629,194920,5
95639,194910,5
95650,194909,4
96142,194906,5
95639,194914,5
95637,194899,5
95640,194910,5
95826,194894,4
95637,194894,5
95637,194904,5
95631,194896,5
95653,194821,5
95631,194907,4
95634,194908,5
95639,194910,5
95652,194555,5
95657,194925,5
95665,194933,4
95677,194942,5
95678,194449,5
95669,194938,5
95678,194947,4
95673,194935,4
95670,194777,4
95647,194913,5
95613,194901,5
95611,194900,4
95604,195244,5
95602,194887,5
95594,194877,5
95608,194888,5
95605,195433,4
95606,194889,5
95611,194878,5
95618,194891,5
95613,195158,5
95612,194899,4
95615,194893,5
95611,194891,4
95601,194937,5
95594,194861,5
95578,194842,6
95565,194849,3
95560,194835,5
95540,194827,5
95533,194819,5
95517,194827,4
95524,194826,5
95538,194818,5
95536,194827,5
95538,194831,4
95546,194829,4
95541,194837,5
95548,194829,5
95555,194838,5
95548,194829,4
95555,194831,5
95547,194840,5
95551,194829,5
95535,194827,5
95526,194821,4
95530,194807,5
95531,194805,6
95530,194805,4
95532,194821,5
95530,194824,4
95532,194811,7
95532,194816,3
95533,194829,5
95545,194828,5
95549,194832,4
95541,194826,5
95545,194834,5
95555,194835,5
95571,194868,5
95589,194868,4
95599,194879,5
95617,194884,5
95623,194881,5
95617,194876,4
95617,194866,4
95624,194878,5
95615,194888,5
95615,194883,5
95605,194869,4
95594,194865,5
95576,194868,5
95585,194870,6
95575,194863,4
95560,194861,4
95558,194860,5
95556,194858,5
95568,194863,5
95567,194863,5
95547,194866,4
95546,194857,5
95516,194841,5
95516,194838,5
95508,194831,5
95513,194839,4
95515,194843,5
95511,194841,5
95511,194843,5
95492,194828,4
95500,194836,4
95503,194831,5
95498,194844,5
95488,194850,5
95479,194840,5
95469,194845,4
95466,194860,5
95462,194845,5
95436,194855,6
95417,194854,3
95397,194854,5
95397,194868,5
95368,194879,5
95354,194857,5
95326,194874,4
95290,194880,5
94963,194910,5
95259,194915,5
95249,194922,5
95233,194941,4
94765,194958,5
95242,195000,5
95244,195003,5
95229,195025,5
94955,195019,4
95219,195045,5
95224,195060,5
95221,195097,5
95496,195099,4
95232,195126,5
95246,195136,4
95262,195167,5
95778,195162,5
95259,195184,6
95268,195212,3
95261,195239,5
95563,195277,5
95242,195284,5
95235,195284,4
95208,195286,5
95275,195294,5
95182,195298,5
95163,195321,5
95171,195347,4
95129,195117,5
95124,195390,5
95117,195429,5
95103,195436,5
95109,195036,4
95120,195478,5
95115,195489,5
95119,195525,5
95129,195108,5
95110,195588,4
95129,195622,6
95117,195662,4
95119,195869,5
95122,195730,4
95129,195810,4
95143,195865,5
95145,196386,5
95124,195938,5
95129,196022,4
95149,196102,5
95172,196560,5
95179,196202,5
95201,196267,5
95210,196288,4
95206,196465,5
95209,196370,5
95222,196395,5
95229,196429,5
95232,196449,4
95245,196481,5
95243,196512,5
95273,196581,5
95312,196691,5
95316,196737,4
95313,196760,5
95309,196802,6
95322,196850,4
95318,196901,4
95333,196923,4
95329,196940,5
95339,196963,5
95342,197002,5
95353,197023,4
95372,197024,4
95371,197047,5
95378,197065,5
95372,197087,5
95395,197120,4
95397,197154,5
95385,197188,5
95396,197243,5
95428,197314,5
95426,197343,4
95443,197380,5
95462,197391,5
95467,197423,5
95479,197464,5
95494,197501,4
95517,197581,5
95521,197622,5
95535,197653,6
95549,197711,4
95559,197736,4
95564,197774,8
95573,197809,2
95568,197868,5
95599,197896,4
95611,197945,4
95601,197961,5
95600,197986,5
95614,198019,5
95608,198039,4
95607,198056,5
95617,198089,5
95633,198135,5
95653,198146,5
95663,198176,4
95677,198202,5
95691,198215,5
95691,198235,5
95704,198265,5
95722,198281,5
95748,198327,4
95755,198338,5
95784,198383,5
95807,198447,5
95824,198476,4
95845,198525,5
95866,198573,5
95891,198615,5
95921,198663,5
95939,198709,4
95950,198731,5
95961,198766,5
95958,198786,5
95986,198849,4
95997,198909,4
96029,198933,5
96049,198972,5
96071,199013,5
96085,199055,4
96093,199080,5
96113,199083,5
96153,199106,5
96155,199130,5
95949,199142,4
96195,199173,6
96213,199180,4
96230,199185,5
95844,199214,5
96250,199198,4
96289,199209,5
96289,199220,5
95858,199245,5
96324,199239,5
96326,199259,4
96342,199280,5
96475,199304,5
96345,199315,5
96351,199345,5
96355,199347,4
96779,199359,5
96352,199383,5
96351,199396,5
96355,199414,4
96749,199420,4
96341,199418,5
96350,199455,5
96348,199468,5
96497,199454,4
96368,199480,5
96386,199494,6
96395,199511,4
96429,199379,5
96421,199511,4
96423,199531,5
96448,199550,5
96453,199201,5
96468,199579,5
96487,199594,4
96493,199616,5
96512,199186,5
96510,199668,5
96539,199700,5
96548,199730,5
96550,199701,4
96550,199747,5
96561,199760,5
96569,199779,4
96584,200159,4
96599,199822,5
96601,199831,5
96609,199852,6
96623,200380,3
96643,199874,5
96644,199877,5
96660,199887,5
96662,200138,5
96671,199923,4
96687,199945,5
96695,199958,5
96690,200011,5
96704,199981,5
96716,199998,4
96721,199999,5
96741,200020,5
96743,200059,5
96767,200070,5
96772,200089,4
96793,200120,5
96811,200123,5
96835,200148,5
96855,200158,5
96870,200174,4
96896,200185,5
96901,200200,5
96923,200224,5
96939,200242,5
96945,200251,4
96957,200276,5
96970,200275,5
96993,200282,5
96995,200273,4
96996,200296,5
97008,200295,5
97019,200301,5
97017,200316,5
97028,200314,4
97023,200296,5
97037,200319,5
97044,200308,5
97070,200320,5
97087,200339,4
97103,200346,5
97117,200350,5
97131,200361,5
97156,200387,5
97166,200396,4
97185,200399,5
97194,200394,5
97214,200392,5
97213,200394,5
97221,200412,5
97230,200403,4
97231,200398,5
97235,200402,5
97226,200415,4
97229,200424,4
97228,200427,5
97227,200422,5
97246,200428,5
97243,200416,4
97250,200414,5
97259,200418,5
97259,200428,5
97269,200425,5
97280,200413,4
97270,200421,5
97282,200429,5
97290,200422,5
97281,200422,5
97286,200417,4
97286,200424,5
97298,200408,5
97303,200417,4
97309,200420,5
97317,200422,4
97321,200403,6
97325,200436,3
97332,200435,5
97333,200437,5
97328,200459,4
97329,200464,5
97348,200481,5
97353,200467,5
97351,200488,4
97355,200519,4
97377,200516,5
97306,200541,5
97403,200552,5
97402,200597,4
97405,200601,5
97061,200631,5
97399,200655,5
97395,200681,5
97375,200672,4
96892,200681,5
97340,200674,5
97334,200685,6
97331,200730,4
97174,200739,4
97300,200747,5
97280,200751,5
97255,200804,5
97583,200855,5
97249,200856,4
97245,200869,5
97257,200906,5
97769,200933,5
97293,200949,4
97325,200970,4
97348,200977,5
97625,200976,5
97405,200994,5
97417,200989,4
97430,200987,5
97508,200977,5
97465,200987,5
97492,200986,5
97507,201003,5
97530,200728,4
97556,201002,5
97579,200991,5
97590,200984,6
97595,200536,3
97609,200991,5
97632,200983,5
97643,200972,5
97676,200622,5
97690,200985,4
97703,200977,5
97723,200963,5
97749,201189,5
97759,200958,5
97779,200960,4
97800,200942,5
97827,201463,5
97845,200959,5
97866,200948,4
97893,200953,4
97917,201322,5
97937,200938,5
97966,200936,5
97999,200942,4
98038,201044,6
98058,200911,4
98069,200899,5
98090,200884,5
98111,200879,6
98132,200882,3
98161,200886,5
98183,200874,5
98213,200873,5
98261,200882,4
98294,200888,5
98331,200895,5
98355,200884,5
98385,200861,5
98420,200865,4
98449,200871,5
98487,200870,5
98530,200889,5
98559,200884,5
98587,200867,4
98596,200852,5
98601,200843,5
98595,200821,5
98609,200803,4
98617,200804,4
98630,200785,6
98634,200777,4
98641,200780,5
98641,200771,4
98651,200770,5
98661,200756,5
98674,200753,5
98676,200753,5
98677,200744,4
98697,200752,5
98694,200735,5
98709,200726,5
98708,200715,5
98715,200713,4
98733,200717,5
98737,200715,5
98768,200740,5
98788,200735,5
98815,200744,4
98816,200746,5
98821,200728,5
98823,200730,5
98825,200717,4
98836,200705,4
98837,200682,5
98828,200658,6
98828,200646,4
98827,200631,4
98838,200638,5
98852,200634,5
98858,200628,5
98858,200631,5
98856,200618,4
98863,200622,5
98863,200613,5
98871,200619,5
98871,200623,5
98883,200616,4
98885,200611,5
98885,200605,5
98883,200603,5
98887,200607,5
98881,200584,4
98886,200581,5
98868,200584,5
98871,200582,5
98867,200578,5
98857,200555,4
98849,200550,5
98844,200536,5
98837,200530,6
98821,200506,3
98795,200501,4
98770,200478,5
98741,200475,5
98729,200465,5
98434,200441,4
98673,200423,5
98640,200428,5
98627,200430,5
98120,200442,5
98544,200456,4
98475,200463,5
98402,200463,5
97878,200505,5
98307,200546,5
98239,200580,4
98178,200610,5
98330,200679,5
98141,200713,5
98120,200728,5
98036,200733,5
98439,200711,4
97919,200681,5
97842,200687,5
97777,200723,5
98052,200702,4
97626,200660,5
97574,200684,5
97556,200683,5
97637,200661,4
97498,200746,4
97423,200786,5
97379,200800,5
97310,200627,5
97315,200835,4
97245,200792,5
97225,200763,5
97205,200412,5
97231,200829,5
97254,200815,4
97255,200809,5
97250,200342,5
97235,200790,5
97197,200763,5
97129,200750,5
97114,200799,5
97041,200779,4
97004,200785,5
96947,200785,5
96879,201163,4
96841,200818,5
96777,200813,5
96738,200924,5
96708,201447,4
96676,201070,4
96641,201167,5
96639,201317,5
96632,201583,5
96658,201581,4
96749,201714,5
96715,201769,5
96735,201877,5
96741,201909,5
96745,201951,4
96749,201999,5
96732,202072,5
96699,202076,5
96683,202026,5
96636,202071,4
96617,202080,5
96615,202079,6
96648,202136,4
96585,202127,5
96558,202144,4
96566,202166,5
96558,202226,5
96553,202301,5
96545,202344,5
96485,202384,4
96469,202380,5
96461,202461,5
96478,202505,5
96476,202552,4
96496,202643,4
96450,202638,5
96465,202704,5
96482,202744,5
96461,202794,4
96450,202838,5
96442,202859,5
96416,202871,5
96422,202946,5
96369,202913,4
96340,202967,5
96344,203001,5
96351,203027,6
96329,203024,4
96365,203055,4
96411,203134,5
96387,203178,5
96357,203267,5
96392,203305,5
96398,203345,4
96348,203359,5
96362,203393,5
96358,203383,5
96354,203405,4
96369,203386,4
96360,203392,5
96380,203406,5
96379,203393,5
96359,203391,5
96365,203395,4
96359,203432,5
96367,203464,5
96371,203492,5
96380,203539,5
96393,203581,4
96396,203596,5
96390,203565,5
96379,203539,5
96414,203556,4
96421,203556,5
96416,203535,5
96414,203545,5
96410,203532,5
96428,203538,4
96443,203535,5
96454,203551,5
96458,203538,5
96482,203541,5
96490,203552,4
96513,203560,5
96510,203558,5
96507,203541,5
96515,203535,4
96520,203543,4
96551,203539,5
96460,203535,5
96577,203529,5
96607,203532,4
96640,203549,6
96403,203560,4
96696,203532,5
96717,203530,5
96734,203519,4
96417,203500,5
96792,203512,5
96827,203527,5
96869,203548,5
96905,203565,4
96964,203585,5
96974,203621,5
96994,203634,5
97311,203656,5
97042,203681,4
97075,203715,5
97077,203744,5
97489,203768,5
97137,203817,5
97155,203865,4
97181,203868,5
97360,203911,5
97242,203941,5
97281,203964,4
97304,203959,4
97349,203911,6
97366,203979,4
97405,203982,5
97408,203980,4
97436,203720,5
97443,203985,5
97453,203989,5
97464,203997,5
97460,203650,4
97473,204055,5
97469,204062,5
97464,204100,5
97470,203991,5
97458,204154,4
97442,204182,5
97445,204244,5
97463,204513,5
97480,204342,5
97495,204418,4
97499,204430,5
97494,204860,5
97504,204485,5
97479,204542,4
97482,204560,4
97432,204771,5
97406,204575,5
97371,204582,5
97354,204618,4
97306,204660,5
97288,204705,5
97253,204660,5
97238,204716,5
97210,204752,4
97159,204781,5
97079,204784,5
97083,204824,5
97103,204928,5
97086,204950,4
97058,204992,5
97018,204998,5
97000,205025,5
96978,205066,5
96948,205044,4
96940,205061,4
96921,205043,5
96913,205048,5
96916,205056,5
96920,205078,3
96914,205094,5
96976,205132,5
96987,205137,5
97020,205153,4
97030,205182,4
97052,205211,5
97076,205242,5
97109,205266,5
97134,205285,4
97170,205322,5
97194,205344,5
97224,205398,5
97245,205406,5
97297,205463,4
97350,205533,5
97406,205566,5
97471,205613,5
97533,205674,5
97608,205693,4
97672,205753,6
97741,205791,4
97810,205863,5
97893,205913,5
97960,205938,6
98021,205975,3
98088,206010,5
98120,206047,5
98172,206066,5
98207,206101,4
98245,206121,5
98259,206140,5
98289,206200,5
98307,206229,4
98334,206268,4
98341,206279,5
98364,206310,5
98375,206340,5
98391,206364,4
98403,206399,5
98405,206415,5
98435,206428,5
98428,206432,5
98434,206436,4
98437,206451,5
98451,206462,6
98472,206460,4
98485,206476,5
98493,206471,4
98510,206499,5
98520,206503,5
98544,206516,5
98554,206520,5
98551,206531,4
98560,206533,5
98568,206534,5
98576,206561,5
98590,206568,4
98580,206580,4
98592,206595,5
98617,206619,5
98620,206633,5
98405,206676,4
98662,206707,5
98679,206733,5
98686,206761,5
98351,206780,5
98739,206809,4
98755,206822,5
98773,206837,5
98605,206857,6
98831,206847,4
98833,206876,4
98860,206912,5
99102,206899,5
98897,206913,5
98924,206895,5
98933,206901,4
99329,206879,5
98932,206883,5
98938,206870,5
98938,206864,5
99211,206867,4
98957,206844,5
98972,206845,5
98998,206865,5
99101,206859,4
99069,206865,4
99104,206878,5
99132,206886,5
99161,206716,5
99171,206908,5
99191,206918,4
99193,206901,5
99184,206537,5
99177,206867,6
99188,206880,3
99195,206868,5
99215,206513,5
99219,206878,5
99230,206882,5
99239,206863,5
99254,206970,4
99265,206847,5
99263,206829,5
99289,206829,5
99294,207225,4
99306,206820,5
99300,206823,5
99317,206839,5
99330,207190,5
99344,206848,4
99343,206844,5
99361,206825,5
99364,206940,5
99368,206837,4
99361,206804,5
99357,206807,4
99370,206817,5
99368,206819,5
99376,206820,4
99369,206842,5
99382,206841,5
99379,206851,5
99389,206856,5
99384,206853,4
99381,206837,5
99385,206826,5
99381,206820,5
99389,206811,5
99382,206805,4
99384,206823,5
99396,206816,5
99397,206833,5
99389,206819,5
99370,206800,4
99370,206810,5
99376,206810,5
99369,206800,5
99357,206812,5
99368,206802,4
99350,206807,6
99361,206820,4
99364,206829,5
99355,206829,4
99346,206830,4
99354,206839,5
99348,206838,5
99340,206841,5
99349,206849,4
99348,206852,5
99337,206844,5
99343,206848,5
99340,206855,5
99347,206856,4
99348,206858,5
99344,206850,5
99347,206857,5
99341,206860,5
99339,206868,4
99343,206859,5
99337,206871,5
99335,206879,5
99343,206873,5
99345,206872,4
99335,206889,5
99337,206878,6
99342,206872,4
99332,206861,4
99331,206883,4
99330,206883,5
99342,206884,5
99349,206884,5
99351,206895,4
99346,206900,5
99356,206903,5
99355,206897,5
99345,206909,5
99352,206917,4
99354,206927,5
99352,206916,5
99352,206911,5
99344,206912,5
99349,206900,4
99363,206899,5
99366,206900,5
99365,206906,5
99370,206889,5
99389,206880,4
99404,206888,5
99412,206877,5
99412,206895,6
99417,206900,4
99424,206902,4
99433,206890,5
99241,206902,5
99459,206906,5
99465,206905,4
99472,206914,4
99098,206915,5
99478,206907,5
99479,206909,5
99477,206914,4
99086,206926,5
99484,206919,5
99482,206913,5
99487,206918,5
99607,206931,4
99475,206943,5
99465,206955,5
99467,206958,5
99867,206958,5
99459,206950,5
99482,206982,4
99486,206987,5
99815,206980,5
99469,206992,5
99471,207007,4
99465,207015,5
99583,206998,5
99476,207008,5
99463,207007,5
99464,207010,4
99472,206865,5
99458,207007,5
99452,207021,5
99458,207024,4
99446,206687,5
99448,207046,5
99442,207045,5
99450,207049,5
99436,206658,4
99421,207063,5
99421,207074,5
99410,207079,5
99401,207106,5
99399,207114,4
99400,207123,6
99393,207133,4
99388,207512,5
99378,207152,5
99377,207157,4
99362,207172,5
99359,207615,5
99355,207198,5
99352,207202,5
99337,207227,4
99333,207403,5
99326,207256,5
99307,207263,5
99298,207286,4
99275,207321,4
99277,207337,5
99286,207365,5
99273,207389,5
99264,207403,4
99248,207440,5
99257,207449,5
99248,207463,5
99235,207486,5
99214,207507,4
99228,207524,5
99202,207549,7
99188,207573,3
99180,207585,5
99172,207609,4
99164,207627,5
99152,207630,5
99156,207649,5
99146,207649,5
99133,207651,4
99137,207665,5
99139,207668,5
99128,207679,5
99120,207700,5
99122,207719,4
99108,207732,5
99097,207744,5
99096,207763,5
99085,207782,4
99089,207792,4
99088,207810,5
99092,207826,5
99090,207833,5
99088,207827,4
99071,207824,5
99074,207831,5
99073,207844,5
99072,207856,5
99073,207863,4
99084,207874,5
99081,207862,5
99067,207869,5
99069,207879,5
99071,207882,4
99058,207887,5
99068,207892,5
99063,207884,5
99067,207904,5
99077,207908,4
99077,207898,5
99085,207914,5
99083,207918,5
99086,207926,4
99106,207946,4
99114,207954,5
99130,207953,5
99154,207986,5
99157,207985,5
99170,207987,4
99175,207994,5
99187,208002,5
99198,208007,5
99199,208032,4
99213,208050,5
99216,208057,8
99218,208075,2
99211,208078,5
99223,208097,4
99233,208097,5
99243,208115,5
99253,208119,5
99253,208125,5
99255,208129,4
99247,208146,5
99259,208143,5
99253,208138,5
99262,208144,5
99128,208150,4
99257,208142,5
99257,208153,5
99254,208159,5
98942,208164,4
99265,208161,5
99254,208178,3
99258,208194,5
98892,208197,5
99268,208187,4
99263,208206,5
99256,208217,5
99297,208234,5
99264,208242,5
99271,208251,4
99271,208258,5
99613,208262,5
99273,208293,5
99290,208287,5
99296,208296,4
99676,208300,5
99319,208320,5
99310,208324,5
99309,208353,5
99457,208348,4
99338,208363,5
99340,208367,6
99351,208395,4
99382,208308,4
99382,208402,4
99388,208411,5
99409,208425,5
99412,208126,5
99429,208426,4
99442,208401,5
99456,208404,5
99466,208030,5
99494,208418,5
99513,208400,4
99521,208404,5
99532,208371,5
99550,208410,5
99549,208400,5
99565,208413,4
99561,208745,5
99578,208427,5
99584,208432,5
99584,208442,5
99596,208885,4
99592,208470,5
99603,208478,5
99616,208488,6
99619,208672,4
99625,208483,4
99620,208493,5
99617,208495,5
99608,208532,5
99600,208513,4
99584,208520,4
99569,208529,5
99550,208524,5
99551,208519,5
99528,208521,4
99524,208509,5
99507,208513,5
99520,208514,5
99520,208506,5
99515,208498,4
99507,208500,5
99509,208501,5
99507,208512,5
99517,208513,5
99517,208516,5
99526,208507,4
99530,208503,5
99541,208504,5
99539,208488,6
99543,208500,3
99543,208489,5
99541,208489,5
99548,208501,5
99551,208498,5
99545,208505,4
99551,208494,5
99559,208498,5
99561,208502,5
99559,208507,4
99563,208508,5
99581,208521,5
99572,208507,5
99566,208513,5
99569,208523,4
99567,208532,5
99568,208528,5
99570,208522,5
99576,208544,5
99558,208552,4
99558,208563,6
99545,208563,4
99548,208584,5
99542,208588,5
99545,208611,7
99541,208605,2
99546,208614,5
99545,208612,5
99536,208631,5
99521,208635,4
99509,208651,5
99512,208665,5
99518,208688,5
99506,208691,4
99504,208697,4
99506,208710,5
99502,208709,5
99496,208706,5
99509,208712,4
99510,208696,5
99495,208698,5
99493,208693,5
99495,208682,5
99494,208692,4
99499,208678,5
99502,208682,6
99518,208677,4
99512,208673,5
99511,208665,4
99527,208648,5
99529,208639,5
99547,208637,5
99557,208637,5
99569,208613,4
99586,208602,5
99598,208594,5
99526,208584,5
99647,208587,5
99669,208573,4
99697,208568,5
99436,208550,5
99745,208552,5
99769,208533,4
99779,208510,4
99415,208501,5
99813,208497,5
99819,208464,5
99816,208459,4
99782,208449,5
99835,208471,5
99844,208477,6
99853,208501,4
100172,208508,4
99876,208509,5
99872,208531,5
99876,208530,5
100299,208547,5
99884,208548,4
99881,208557,5
99868,208566,5
100029,208553,5
99829,208556,5
99804,208554,4
99778,208555,5
99771,208537,5
99720,208573,5
99689,208576,4
99650,208565,4
99622,208302,5
99595,208579,5
99570,208571,5
99559,208571,5
99552,208215,4
99523,208592,5
99511,208573,5
99498,208591,5
99493,208434,4
99489,208598,5
99487,208592,5
99488,208605,5
99482,208834,5
99493,208572,4
99490,208557,5
99499,208564,5
99505,208968,5
99510,208543,5
99516,208554,4
99517,208533,5
99526,208772,5
99526,208519,5
99529,208512,5
99535,208505,4
99522,208563,5
99541,208507,5
99531,208499,5
99539,208498,4
99542,208494,5
99550,208484,4
99544,208489,5
99546,208476,5
99542,208479,4
99548,208469,5
99570,208489,5
99558,208470,5
99575,208465,5
99582,208449,4
99589,208460,5
99596,208448,5
99608,208459,5
99607,208460,5
99615,208468,4
99620,208454,5
99621,208450,5
99627,208453,5
99632,208455,5
99635,208452,4
99652,208442,5
99657,208447,5
99664,208431,5
99668,208430,5
99683,208430,4
99689,208428,6
99692,208418,4
99709,208403,5
99709,208404,4
99708,208375,4
99712,208370,5
99722,208356,5
99732,208358,5
99735,208352,4
99726,208347,5
99727,208326,5
99735,208315,5
99735,208317,5
99724,208303,4
99734,208292,5
99730,208293,5
99727,208285,5
99731,208280,5
99722,208270,4
99716,208245,5
99725,208231,5
99721,208219,5
99710,208205,5
99718,208200,4
99704,208174,5
99707,208156,6
99700,208134,4
99692,208089,4
99685,208085,4
99683,208069,5
99687,208051,5
99685,208040,5
99676,208012,4
99689,208011,5
99685,208012,5
99687,207985,5
99682,207985,5
99684,207976,4
99672,207953,5
99677,207928,5
99682,207943,5
99695,207949,5
99701,207960,4
99727,207974,5
99745,207996,5
99756,208014,5
99782,207998,5
99792,207992,4
99787,207977,5
99805,207964,5
99803,207938,5
99810,207934,5
99535,207917,4
99810,207885,5
99814,207870,5
99810,207840,5
99430,207823,4
99838,207796,4
99851,207761,5
99857,207730,5
99666,207701,5
99889,207678,4
99928,207675,5
99934,207640,5
100195,207620,5
99949,207605,5
99964,207570,4
99976,207563,6
100428,207547,4
99987,207547,5
100003,207535,5
100010,207531,5
100279,207493,4
100017,207482,5
100034,207473,5
100047,207475,5
100121,207468,4
100072,207455,5
100072,207439,5
100082,207420,5
100093,207176,4
100112,207402,4
100128,207386,5
100125,207384,5
100126,206980,5
100141,207367,4
100149,207373,5
100177,207388,5
100185,207017,5
100196,207381,5
100222,207389,4
100242,207386,6
100262,207584,4
100297,207412,5
100301,207407,5
100335,207397,4
100318,207860,6
100355,207436,4
100374,207456,5
100388,207478,5
100398,207849,4
100414,207535,5
100462,207576,5
100482,207598,5
100500,207735,5
100510,207644,4
100517,207658,5
100521,207676,5
100533,207706,5
100541,207721,4
100551,207739,4
100540,207766,5
100551,207791,5
100554,207808,5
100564,207820,4
100555,207824,5
100551,207859,5
100547,207849,5
100561,207844,5
100563,207871,4
100565,207869,5
100556,207874,5
100572,207887,5
100554,207907,5
100551,207941,4
100551,207948,5
100547,207966,5
100530,207971,5
100527,207990,5
100523,208000,4
100513,208015,5
100511,208023,5
100511,208043,5
100516,208047,5
100512,208049,4
100521,208063,5
100529,208069,5
100527,208072,5
100528,208077,4
100526,208088,4
100529,208096,5
100531,208110,5
100529,208116,5
100532,208109,3
100541,208142,5
100540,208155,5
100522,208155,5
100519,208164,5
100519,208161,4
100520,208185,5
100522,208156,5
100503,208165,5
100502,208149,5
100492,208157,4
100489,208166,5
100480,208171,5
100466,208178,5
100472,208177,5
100471,208185,4
100460,208188,5
100460,208201,5
100467,208209,5
100465,208195,4
100462,208203,5
100465,208198,4
100458,208205,5
100453,208214,5
100463,208225,6
100455,208236,3
100457,208236,5
100454,208241,5
100446,208254,5
100442,208271,4
100449,208266,5
100440,208277,5
100451,208288,5
100450,208303,5
100447,208311,4
100457,208302,5
100460,208321,5
100462,208321,5
100467,208324,5
100485,208327,4
100478,208337,5
100482,208335,5
100190,208364,5
100481,208354,5
100475,208363,5
100466,208365,5
100033,208376,4
100462,208370,5
100460,208362,4
100464,208368,6
100207,208372,3
100471,208375,5
100467,208362,5
100465,208369,4
100710,208377,5
100448,208359,5
100446,208358,5
100446,208359,5
100922,208354,4
100444,208363,5
100449,208370,5
100452,208363,5
100723,208359,5
100442,208363,4
100441,208366,5
100438,208380,5
100501,208343,5
100429,208346,5
100435,208359,4
100429,208368,5
100435,208110,6
100441,208359,4
100429,208355,4
100434,208349,4
100425,207935,5
100438,208360,5
100430,208364,5
100430,208358,5
100434,208002,4
100425,208346,5
100429,208360,5
100429,208351,5
100412,208575,4
100431,208365,5
100419,208348,5
100420,208356,5
100419,208839,5
100424,208347,4
100421,208355,5
100434,208346,5
100429,208680,5
100418,208343,5
100435,208348,4
100419,208335,5
100423,208429,5
100438,208348,6
100440,208347,4
100437,208348,4
100435,208355,5
100441,208359,5
100442,208364,5
100431,208355,4
100430,208362,4
100432,208368,5
100434,208361,5
100446,208354,5
100442,208355,4
100441,208351,5
100447,208361,5
100440,208348,5
100450,208353,5
100452,208359,4
100458,208352,5
100464,208359,5
100465,208351,5
100455,208362,5
100460,208355,5
100459,208358,4
100450,208366,5
100456,208365,5
100450,208365,6
100456,208373,3
100460,208368,5
100448,208380,5
100448,208378,5
100447,208384,4
100450,208378,4
100444,208385,5
100445,208376,5
100444,208385,5
100436,208386,4
100445,208391,5
100449,208387,5
100444,208383,5
100456,208388,5
100451,208374,4
100467,208372,5
100465,208374,5
100463,208362,5
100472,208368,5
100461,208365,4
100467,208363,6
100474,208361,4
100474,208354,5
100477,208373,5
100484,208369,4
100490,208359,5
100480,208361,5
100491,208359,5
100488,208373,5
100490,208354,4
100495,208355,5
100486,208356,5
100507,208364,5
100499,208359,4
100508,208355,4
100510,208367,5
100513,208361,5
100522,208365,5
100525,208360,4
100527,208362,5
100522,208355,5
100525,208360,5
100522,208369,5
100522,208374,4
100524,208373,5
100532,208367,6
100526,208374,4
100529,208354,5
100536,208357,4
100536,208348,5
100530,208358,5
100540,208356,5
100542,208348,5
100547,208346,4
100232,208348,5
100540,208341,5
100546,208348,5
100540,208352,4
100097,208359,4
100547,208348,5
100543,208348,5
100544,208357,5
100298,208359,4
100548,208370,5
100553,208379,5
100545,208366,5
100809,208381,5
100547,208371,4
100539,208376,5
100549,208389,5
101032,208400,6
100540,208395,4
100538,208400,4
100543,208402,5
100836,208400,5
100540,208402,5
100538,208406,5
100539,208401,4
100619,208394,5
100541,208383,5
100542,208384,5
100537,208379,4
100530,208153,4
100516,208391,5
100510,208389,5
100505,208429,5
100496,208004,4
100489,208443,4
100454,208462,5
100446,208482,5
100433,208049,5
100447,208518,5
100423,208537,4
100434,208561,5
100425,208721,5
100415,208607,5
100400,208643,4
100385,208658,5
100369,209153,5
100347,208719,5
100351,208741,5
100338,208760,4
100338,209196,5
100351,208822,5
100351,208846,5
100360,208851,5
100370,208987,4
100361,208850,5
100363,208857,5
100364,208864,5
100369,208871,4
100357,208857,4
100369,208863,5
100351,208857,5
100347,208859,5
100339,208882,4
100348,208882,6
100334,208880,4
100336,208883,5
100319,208884,5
100311,208883,4
100298,208898,5
100287,208880,5
100278,208899,5
100267,208897,5
100273,208905,4
100262,208897,5
100251,208914,5
100260,208915,5
100257,208930,5
100250,208922,4
100231,208934,5
100237,208943,5
100230,208956,5
100233,208961,5
100225,208968,4
100225,208946,5
100221,208942,5
100215,208958,5
100230,208973,4
100218,208964,4
100224,208977,6
100226,208974,4
100223,208960,5
100228,208968,4
100223,208980,5
100209,208963,5
100218,208987,5
100205,208977,5
100210,208981,4
100199,208980,5
100202,208990,5
100193,209004,5
100195,209013,5
100188,209017,4
100189,209024,5
100186,209040,5
100181,209041,5
100186,209053,5
100178,209067,4
100176,209084,5
100188,209079,5
100178,209096,5
100185,209103,4
100189,209096,4
100172,209103,5
100183,209118,5
100176,209117,5
100172,209128,4
100183,209129,5
100169,209147,5
100164,209140,5
100158,209141,5
100144,209152,4
100134,209161,5
100136,209166,5
100122,209181,5
100111,209183,5
100115,209192,4
100108,209211,5
100103,209215,5
100106,209218,5
100114,209231,5
100118,209247,4
100118,209256,5
100118,209276,5
100116,209278,5
99911,209280,5
100122,209283,4
100118,209292,5
100124,209285,5
99746,209298,5
100124,209288,4
100129,209293,4
100130,209311,5
99721,209308,5
100117,209309,5
100121,209311,4
100116,209303,5
100226,209311,5
100093,209305,5
100090,209295,5
100080,209305,4
100493,209301,5
100073,209318,5
100067,209324,5
100066,209339,5
100415,209323,4
100062,209341,5
100040,209341,5
100046,209341,5
100154,209338,5
100028,209354,5
100028,209355,4
100028,209364,5
100032,209233,5
100021,209362,4
100017,209363,4
100023,209369,5
100025,209030,5
100020,209376,5
100013,209373,4
100012,209407,5
99997,208977,5
100000,209397,5
100002,209407,5
99995,209402,5
99994,209396,4
99986,209432,5
99980,209438,5
99985,209444,5
99991,209832,4
99993,209481,5
99973,209474,6
99973,209476,4
99980,209942,5
99979,209488,4
99983,209482,7
99965,209503,3
99974,209685,5
99971,209502,5
99979,209500,4
99977,209515,5
99974,209569,5
99967,209547,5
99970,209544,4
99967,209557,4
99960,209560,5
99961,209575,5
99949,209567,5
99940,209566,4
99945,209579,5
99939,209581,5
99948,209595,5
99946,209601,5
99943,209600,4
99943,209606,5
99960,209628,5
99945,209627,6
99955,209627,4
99947,209633,4
99943,209624,5
99942,209630,5
99939,209639,5
99946,209640,5
99938,209625,4
99944,209650,5
99939,209651,5
99939,209649,5
99938,209645,4
99937,209664,4
99925,209670,5
99935,209669,5
99940,209681,5
99944,209675,4
99945,209686,4
99946,209689,5
99946,209689,5
99953,209704,5
99969,209702,5
99964,209693,4
99966,209702,5
99961,209704,5
99972,209707,6
99969,209700,3
99970,209712,5
99967,209717,5
99959,209717,5
99967,209719,5
99968,209726,4
99961,209730,5
99949,209739,5
99952,209729,5
99957,209744,5
99954,209743,4
99958,209738,5
99959,209757,5
99957,209758,5
99953,209761,4
99964,209767,4
99955,209756,5
99954,209765,5
99952,209761,5
99958,209762,4
99962,209763,6
99957,209761,4
99962,209770,5
99970,209771,5
99956,209768,6
99956,209788,3
99966,209779,5
99953,209784,5
99959,209796,5
99956,209792,4
99952,209800,5
99950,209816,5
99942,209827,5
99941,209837,5
99945,209845,4
99941,209854,5
99857,209862,5
99941,209875,5
99960,209877,5
99949,209879,4
99641,209887,5
99945,209895,5
99939,209891,5
99943,209900,4
99543,209902,4
99946,209898,6
99941,209898,4
99947,209910,5
99875,209915,4
99943,209914,5
99943,209919,5
99934,209916,5
100239,209923,5
99942,209916,4
99940,209923,5
99935,209927,5
100352,209931,8
99935,209933,2
99919,209925,4
99920,209936,5
100117,209928,5
99926,209937,5
99925,209941,5
99921,209940,4
99960,209922,5
99921,209932,5
99936,209942,5
99928,209929,4
99921,209680,4
99929,209926,5
99922,209940,6
99925,209943,4
99919,209576,4
99920,209952,5
99910,209961,5
99899,209965,5
99900,209753,5
99910,209961,4
99895,209954,5
99895,209953,5
99902,210179,5
99888,209952,5
99874,209967,4
99878,209966,5
99875,210392,5
99879,209969,5
99865,209963,5
99871,209982,4
99866,210257,5
99866,210002,5
99871,210010,5
99864,210030,5
99867,210109,4
99862,210041,5
99866,210051,5
99868,210056,6
99855,210054,3
99850,210061,4
99856,210060,5
99849,210047,5
99833,210056,5
99842,210055,4
99841,210055,5
99832,210049,5
99833,210059,5
99833,210039,5
99816,210044,4
99825,210045,5
99826,210039,5
99821,210037,5
99819,210027,5
99821,210041,4
99819,210048,5
99824,210036,5
99825,210045,5
99822,210045,5
99825,210049,5
99826,210045,4
99814,210037,5
99826,210052,5
99817,210047,5
99822,210051,4
99836,210053,5
99842,210025,5
99839,210051,5
99829,210054,4
99829,210049,4
99843,210045,5
99847,210038,5
99846,210047,5
99851,210048,4
99849,210050,5
99844,210039,5
99853,210051,5
99853,210054,5
99853,210062,4
99852,210063,5
99844,210078,5
99848,210072,5
99854,210082,5
99852,210085,4
99857,210090,6
99854,210107,4
99859,210090,5
99853,210097,5
99855,210095,4
99858,210067,5
99859,210086,5
99872,210083,5
99870,210091,4
99870,210082,4
99877,210087,5
99870,210090,5
99879,210096,5
99875,210081,4
99885,210084,5
99875,210100,5
99880,210089,5
99882,210102,5
99874,210095,4
99872,210100,5
99873,210096,5
99874,210094,5
99871,210099,5
99866,210091,4
99869,210095,5
99871,210107,6
99873,210099,4
99875,210093,5
99864,210099,4
99879,210090,5
99888,210114,5
99892,210107,5
99641,210100,5
99891,210108,4
99893,210091,5
99902,210106,5
99529,210096,5
99900,210086,4
99906,210086,4
99892,210095,5
99699,210092,5
99897,210089,5
99904,210096,4
99905,210108,5
100127,210096,5
99908,210099,5
99899,210118,5
99893,210107,4
100309,210104,5
99907,210122,5
99907,210121,5
99909,210118,5
100156,210134,4
99908,210118,5
99923,210118,5
99919,210126,5
99989,210115,5
99931,210102,4
99926,210089,5
99924,210098,5
99937,209895,5
99935,210106,4
99945,210108,4
99935,210098,5
99932,209748,5
99925,210112,5
99933,210107,4
99929,210114,6
99926,209754,4
99917,210121,5
99926,210115,5
99921,210112,6
99908,210255,3
99905,210102,5
99902,210091,5
99911,210111,5
99906,210486,4
99911,210095,5
99910,210090,5
99907,210089,5
99916,210416,5
99912,210086,4
99909,210071,5
99907,210081,5
99911,210207,5
99914,210094,5
99919,210090,4
99901,210087,5
99909,210094,5
99904,210095,5
99905,210091,4
99902,210085,4
99905,210096,5
99907,210087,5
99904,210084,5
99906,210084,4
99898,210091,6
99912,210081,4
99909,210080,5
99898,210085,5
99907,210064,4
99901,210063,5
99900,210074,5
99900,210060,5
99900,210067,5
99908,210065,4
99903,210079,5
99893,210077,5
99904,210062,5
99888,210062,5
99897,210071,4
99900,210068,5
99900,210064,5
99906,210078,5
99905,210075,4
99896,210093,4
99895,210074,5
99896,210071,5
99893,210068,5
99887,210068,4
99886,210066,5
99893,210074,6
99892,210061,4
99887,210086,5
99898,210075,4
99902,210068,5
99899,210062,5
99905,210062,5
99901,210067,5
99901,210086,4
99913,210073,5
99893,210068,5
99895,210075,5
99891,210088,5
99889,210072,4
99884,210071,5
99889,210072,5
99894,210081,5
99891,210083,5
99895,210085,4
99899,210085,5
99895,210083,5
99896,210082,5
99904,210069,3
99899,210078,4
99902,210070,5
99907,210067,5
99904,210070,5
99913,210079,4
99915,210065,5
99921,210059,5
99927,210058,5
99921,210057,5
99927,210050,4
99925,210051,5
99922,210052,5
99926,210053,5
99925,210060,5
99932,210049,4
99939,210047,5
99936,210052,5
99937,210060,5
99932,210051,5
99934,210040,5
99929,210053,4
99720,210048,5
99940,210050,5
99932,210027,6
99936,210034,3
99577,210034,5
99929,210039,5
99950,210038,5
99952,210041,4
99633,210035,5
99946,210021,5
99938,210028,5
99945,210033,5
100112,210020,4
99944,210020,5
99945,210030,5
99951,210031,5
100353,210022,5
99952,210015,4
99952,210008,5
99951,210013,5
100236,210010,5
99954,210006,5
99963,210011,4
99961,210005,6
100040,209993,4
99954,210004,5
99953,210000,5
99958,209989,6
99956,209810,3
99962,209994,5
99963,209971,5
99961,209980,4
99963,209632,4
99959,209976,5
99967,209975,5
99966,209981,5
99956,209594,4
99963,209985,5
99966,209976,5
99963,209990,5
99953,210080,5
99956,209987,4
99954,209987,5
99964,209971,5
99970,210375,5
99971,209977,5
99973,209974,4
99975,209968,5
99976,210335,6
99983,209971,4
99980,209957,5
99992,209967,4
99977,210082,5
99983,209962,5
99982,209967,5
99967,209971,4
99987,209981,4
99987,209965,5
99972,209967,5
99976,209974,5
99965,209962,4
99977,209961,5
99984,209966,5
99973,209963,5
99981,209962,5
99982,209962,4
99991,209962,5
99985,209959,5
99989,209956,5
99989,209951,5
99992,209941,4
99992,209953,5
99984,209943,5
99990,209932,6
99989,209935,4
99991,209948,4
99993,209946,5
99999,209928,5
99991,209939,5
99986,209940,5
99992,209923,4
99986,209931,5
99981,209939,5
99978,209928,5
99988,209922,4
99978,209930,4
99988,209916,5
99983,209919,5
99987,209922,5
99984,209921,4
99992,209930,5
99981,209912,5
99987,209908,5
99985,209910,5
99989,209908,5
99979,209902,4
99984,209918,5
99974,209907,5
99980,209894,6
99972,209897,3
99979,209883,5
99980,209879,5
99978,209874,5
99968,209864,5
99984,209887,4
99974,209867,5
99983,209868,5
99986,209865,5
99992,209849,4
99987,209848,4
99997,209863,5
99996,209848,5
99991,209844,5
99989,209846,4
99986,209841,5
99995,209821,5
100000,209834,5
99989,209829,5
99991,209832,4
99985,209833,6
99991,209826,4
99987,209833,5
99982,209824,5
99997,209838,4
99988,209835,5
99986,209829,5
99982,209840,5
99988,209841,5
99990,209830,4
99985,209829,5
99985,209840,5
99994,209842,5
99995,209847,5
99771,209850,4
99984,209840,5
99993,209831,5
99987,209843,5
99630,209845,4
99985,209853,4
99987,209841,5
99993,209852,5
99640,209843,5
99987,209853,4
99986,209857,5
99988,209867,6
100146,209861,4
99985,209860,5
99983,209864,4
99981,209849,5
100383,209853,5
99978,209859,5
99982,209860,5
99988,209873,4
100307,209844,5
99994,209867,5
99994,209858,5
99994,209858,5
100090,209859,4
99986,209858,5
99983,209864,5
99989,209855,5
99990,209714,4
99982,209855,4
99989,209859,5
99978,209853,5
99984,209516,5
99986,209861,4
99986,209859,5
99984,209860,6
99984,209449,5
99991,209868,4
99980,209857,4
99985,209855,5
99976,209893,5
99991,209859,5
99982,209867,5
99984,209862,4
99986,210230,5
99973,209862,5
99970,209851,5
99979,209864,5
99975,210280,4
99977,209863,5
99987,209853,5
99979,209853,5
99981,210003,5
99985,209850,4
99992,209848,5
99989,209847,5
99991,209861,5
99991,209846,5
99993,209842,4
99991,209836,5
99994,209850,5
99993,209844,5
99991,209838,4
99995,209847,5
99989,209843,5
100001,209847,5
99989,209863,5
100001,209837,4
100004,209844,5
99999,209837,5
100007,209835,5
100004,209818,5
100011,209815,4
100011,209821,5
100014,209812,5
100030,209812,5
100016,209811,5
100029,209804,4
100036,209813,5
100029,209815,5
100034,209817,5
100027,209806,4
100032,209824,5
100031,209819,4
100034,209823,5
100034,209805,5
100030,209809,4
100028,209811,4
100026,209805,5
100033,209812,5
100034,209805,5
100038,209801,4
100036,209798,5
100036,209798,5
100039,209807,5
100042,209796,5
100031,209805,4
100039,209811,5
100026,209811,5
100029,209808,5
100028,209812,5
100030,209800,4
100031,209811,5
100029,209816,5
100035,209808,5
100032,209804,5
100039,209813,4
100046,209792,6
100049,209817,4
100054,209810,5
100056,209803,4
100055,209801,4
100055,209807,5
100052,209810,5
100057,209815,5
100064,209820,4
100054,209812,5
100053,209799,5
100049,209782,5
100052,209803,5
100039,209799,4
100047,209797,5
100046,209788,5
100048,209788,5
100053,209787,5
100043,209799,4
100045,209796,5
100040,209805,5
100040,209808,5
100028,209787,5
100028,209806,4
100033,209817,5
100025,209827,6
99853,209830,4
100017,209847,5
100009,209841,4
100008,209840,5
99664,209846,5
100013,209851,5
100022,209856,4
100010,209871,4
99613,209886,5
100009,209887,5
100013,209909,5
100018,209929,4
100090,209917,5
100008,209934,5
100018,209932,5
100013,209930,5
100388,209934,4
100026,209925,5
100027,209938,5
100028,209936,5
100400,209944,5
100039,209961,4
100050,209951,5
100042,209961,5
100176,209968,5
100049,209953,5
100060,209960,4
100060,209966,5
100078,209865,5
100071,209962,5
100075,209971,4
100074,209960,4
100074,209651,5
100073,209969,5
100069,209968,5
100066,209962,5
100070,209557,4
100067,209962,5
100065,209972,5
100070,209982,5
100066,209963,4
100065,209997,5
100053,210004,5
100058,210012,5
100056,210352,5
100062,210015,5
100058,210017,4
100056,210022,5
100066,210456,5
100073,210013,5
100073,210007,4
100081,210002,5
100090,210183,5
100109,210005,5
100109,210004,5
100114,210005,4
100111,210043,5
100108,210010,5
100117,210012,5
100113,209998,4
100117,209990,4
100124,210019,5
100131,210032,5
100121,210039,5
100130,210055,4
100123,210074,5
100117,210107,6
100115,210118,4
100087,210127,5
100068,210151,4
100061,210151,7
100056,210157,3
100031,210163,5
100014,210191,5
100001,210190,4
99984,210213,5
99964,210205,5
99950,210218,5
99920,210233,5
99913,210234,4
99878,210241,5
99856,210248,5
99853,210276,5
99835,210257,4
99814,210274,4
99797,210284,5
99783,210292,5
99769,210296,5
99764,210303,4
99752,210315,5
99735,210319,5
99714,210309,6
99703,210326,4
99666,210324,4
99657,210319,5
99640,210336,5
99621,210331,5
99607,210330,5
99592,210338,4
99579,210339,5
99557,210328,5
99542,210319,5
99547,210335,5
99523,210331,4
99513,210323,5
99490,210316,5
99494,210323,5
99481,210304,5
99491,210278,4
99491,210253,5
99494,210239,5
99491,210225,5
99479,210209,5
99493,210219,4
99492,210200,5
99498,210184,5
99504,210193,6
99502,210186,3
99499,210193,5
99498,210190,5
99500,210194,5
99500,210195,5
99498,210203,4
99499,210204,5
99496,210219,5
99502,210216,5
99492,210227,5
99498,210236,4
99491,210249,5
99487,210241,5
99497,210240,5
99517,210257,5
99513,210254,4
99421,210279,5
99543,210275,5
99554,210288,5
99564,210297,4
99286,210302,5
99605,210326,4
99612,210336,5
99632,210341,5
99289,210348,6
99677,210353,3
99697,210359,5
99715,210374,5
99720,210391,5
99730,210406,4
99746,210424,5
99761,210439,5
100079,210457,5
99787,210467,5
99794,210470,4
99800,210485,5
100198,210515,5
99814,210516,5
99815,210548,5
99839,210556,4
99995,210556,5
99852,210555,5
99863,210563,5
99875,210578,5
99903,210541,4
99889,210614,6
99900,210619,4
99906,210628,5
99918,210374,4
99919,210630,4
99921,210631,5
99916,210635,5
99911,210280,5
99913,210641,4
99920,210650,5
99910,210653,5
99913,210534,5
99901,210661,5
99901,210652,4
99890,210648,5
99893,210902,5
99893,210634,5
99886,210641,5
99885,210629,4
99874,211027,5
99866,210617,5
99866,210615,5
99850,210595,5
99838,210799,4
99839,210583,5
99828,210567,6
99825,210561,4
99815,210589,5
99811,210523,4
99800,210498,5
99788,210484,5
99786,210457,5
99774,210454,4
99769,210406,5
99760,210396,5
99750,210391,5
99751,210373,5
99758,210359,4
99759,210355,5
99765,210353,5
99756,210344,5
99750,210329,5
99751,210306,4
99750,210287,5
99745,210273,5
99746,210258,5
99743,210245,5
99729,210236,4
99721,210229,5
99719,210231,5
99707,210200,6
99702,210207,4
99692,210192,4
99670,210171,5
99674,210168,5
99672,210162,5
99672,210151,4
99669,210155,4
99653,210165,5
99655,210158,5
99665,210155,5
99650,210170,4
99650,210174,5
99646,210170,5
99636,210171,5
99633,210186,5
99629,210197,4
99634,210189,5
99633,210183,5
99631,210184,5
99649,210179,5
99657,210165,5
99671,210149,4
99668,210149,5
99676,210150,5
99677,210165,5
99681,210170,4
99685,210168,5
99682,210170,5
99685,210186,5
99691,210184,5
99690,210182,4
99697,210190,5
99709,210186,5
99718,210177,5
99711,210181,4
99714,210176,4
99729,210171,5
99740,210184,5
99753,210187,5
99753,210161,4
99764,210178,5
99771,210172,5
99785,210152,5
99790,210152,5
99812,210142,4
99822,210152,6
99843,210152,4
99849,210157,5
99859,210132,5
99870,210149,4
99866,210141,5
99880,210146,5
99891,210137,5
99848,210151,5
99892,210154,4
99902,210145,5
99901,210152,5
99646,210174,5
99910,210169,4
99923,210182,4
99926,210182,5
99557,210199,5
99937,210218,5
99933,210221,4
99940,210243,5
99797,210256,5
99936,210260,5
99947,210278,5
99936,210278,4
100196,210288,5
99931,210297,6
99940,210295,4
99950,210312,5
100335,210304,4
99937,210317,5
99936,210319,5
99936,210310,5
100147,210313,5
99929,210321,4
99932,210321,5
99937,210325,5
99988,210334,5
99936,210327,5
99932,210335,4
99928,210332,5
99927,210130,5
99915,210337,5
99918,210338,4
99919,210341,4
99911,209980,5
99910,210322,5
99913,210323,5
99902,210320,5
99911,210027,4
99904,210309,5
99908,210307,6
99900,210296,4
99904,210457,4
99901,210279,5
99900,210272,5
99899,210265,5
99897,210650,5
99900,210255,4
99906,210237,5
99905,210224,5
99907,210528,5
99907,210217,8
99899,210214,1
99901,210232,5
99906,210287,5
99904,210199,5
99909,210179,5
99910,210179,4
99910,210167,5
99906,210171,5
99904,210169,5
99915,210175,6
99912,210160,3
99914,210158,5
99919,210170,5
99910,210165,5
99911,210156,4
99904,210140,5
99912,210155,5
99926,210174,5
99917,210151,5
99919,210141,4
99930,210140,5
99924,210126,5
99931,210124,5
99931,210127,5
99935,210109,4
99940,210108,5
99951,210098,5
99950,210089,5
99955,210099,5
99958,210085,4
99961,210073,5
99963,210081,5
99968,210097,5
99966,210084,4
99968,210075,5
99977,210083,4
99977,210067,5
99980,210057,5
99981,210070,4
99991,210072,4
99990,210075,5
99982,210069,5
99992,210068,5
99986,210082,4
99995,210082,5
99992,210077,5
99992,210077,5
99987,210057,5
99994,210065,4
99992,210076,5
100001,210075,5
99993,210072,5
100008,210083,5
100008,210086,4
100019,210079,5
100010,210084,5
100019,210091,5
100012,210081,5
100024,210087,4
100016,210072,6
100028,210091,4
100031,210072,5
100030,210058,4
100028,210066,4
100040,210071,5
100040,210076,5
100033,210064,5
100043,210067,4
100044,210074,5
100050,210064,5
100060,210065,5
100048,210061,5
100053,210067,4
100051,210065,5
100046,210067,5
100038,210070,5
100049,210072,5
100041,210078,4
100048,210085,5
100036,210081,5
100040,210076,5
100040,210082,5
100048,210077,4
99859,210077,5
100051,210080,5
100047,210068,5
100048,210072,5
99691,210079,4
100049,210074,5
100040,210074,5
100038,210061,5
99664,210066,4
100039,210058,4
100044,210068,5
100040,210056,5
100139,210068,5
100041,210065,4
100032,210058,5
100036,210085,5
100403,210080,5
100032,210053,5
100030,210056,5
100028,210058,4
100365,210050,5
100030,210058,5
100031,210044,6
100018,210028,3
100132,210009,5
100021,210012,5
100017,210000,5
100022,210000,5
100030,209879,4
100024,209977,5
100026,209977,5
100031,209962,5
100021,209639,5
100018,209946,4
100026,209937,5
100018,209939,5
100025,209521,5
100026,209919,4
100025,209922,4
100035,209917,5
100030,209885,5
100032,209918,5
100028,209900,4
100039,209902,6
100038,210235,4
100040,209912,5
100041,209909,5
100042,209906,6
100041,210362,3
100051,209910,5
100041,209903,5
100039,209900,5
100046,210077,4
100034,209902,5
100045,209908,5
100047,209898,5
100051,209950,5
100048,209904,4
100038,209919,5
100062,209909,5
100051,209907,5
100047,209903,4
100047,209915,4
100051,209913,5
100054,209920,5
100061,209921,5
100066,209915,4
100067,209905,5
100070,209926,6
100072,209918,4
100067,209913,5
100080,209921,4
100080,209913,5
100075,209919,5
100078,209914,5
100083,209914,5
100081,209918,4
100088,209923,5
100093,209913,5
100102,209925,5
100100,209929,5
100095,209929,4
100099,209939,5
100099,209942,5
100088,209936,5
100100,209938,5
100090,209939,4
100092,209936,5
100091,209937,5
100100,209936,5
100096,209945,4
100103,209951,4
100103,209934,5
100110,209937,6
100117,209947,4
100125,209941,4
100134,209961,5
100140,209953,5
100137,209943,5
100150,209949,5
100148,209939,4
100144,209957,5
100148,209949,5
100147,209956,5
100136,209952,5
100138,209960,4
100137,209957,5
100136,209969,5
100131,209971,5
100117,209972,5
100113,209968,4
100110,209981,5
100117,209987,5
100101,209989,5
100101,209988,5
100092,209972,4
100093,209977,5
100085,209987,5
100082,209977,6
100080,209978,3
100068,209967,5
100064,209974,5
100071,209969,5
100078,209964,5
100083,209966,4
100077,209970,5
100059,209966,5
100059,209966,5
100061,209969,5
100064,209967,4
100063,209968,5
100053,209963,5
100047,209971,5
99913,209967,5
100048,209957,4
100044,209963,5
100036,209964,5
99699,209965,5
100019,209973,5
100011,209964,5
100007,209969,4
99612,209969,5
99991,209969,5
99994,209974,6
99978,209994,3
100007,209993,5
99980,210007,5
99981,210022,5
99965,210019,4
100309,210020,5
99954,210035,5
99961,210044,5
99954,210056,5
100343,210065,4
99943,210078,5
99946,210075,5
99949,210089,5
100082,210109,5
99935,210112,4
99927,210125,5
99925,210128,5
99927,210061,5
99918,210166,5
99905,210180,4
99913,210177,6
99907,209900,4
99899,210187,5
99910,210193,4
99898,210206,4
99902,209821,5
99902,210216,5
99910,210216,5
99917,210240,5
99901,210158,4
99923,210231,5
99914,210250,5
99921,210243,5
99917,210552,4
99927,210255,5
99922,210254,5
99926,210263,5
99940,210688,5
99930,210250,4
99926,210254,5
99925,210268,5
99922,210456,5
99923,210256,5
99925,210276,4
99930,210266,5
99924,210313,6
99928,210272,4
99936,210278,5
99927,210279,4
99939,210281,5
99942,210267,5
99947,210272,5
99951,210266,4
99943,210263,4
99956,210255,5
99958,210249,5
99965,210251,5
99966,210228,4
99970,210237,5
99960,210240,5
99965,210241,5
99955,210243,5
99955,210262,4
99956,210267,5
99950,210277,5
99953,210271,5
99952,210274,5
99951,210301,4
99959,210298,5
99965,210297,5
99976,210295,6
99969,210294,4
99985,210300,4
99985,210294,5
100004,210289,5
99995,210281,5
100016,210281,5
100009,210290,4
100007,210283,5
100020,210299,5
100028,210287,5
100028,210281,4
100029,210288,4
100026,210282,5
100030,210294,5
100031,210292,5
100020,210320,4
100016,210296,5
100017,210312,5
100007,210318,5
100014,210320,5
99997,210319,5
100007,210329,4
99988,210326,5
99995,210341,5
99981,210343,5
99976,210356,4
99971,210364,5
99969,210387,5
99951,210386,5
99959,210381,5
99966,210381,4
99958,210389,5
99957,210383,5
99968,210404,5
99965,210399,4
99961,210406,4
99959,210406,5
99956,210400,5
99956,210417,5
99953,210422,4
99951,210417,5
99951,210425,5
99945,210417,5
99942,210436,5
99948,210441,4
99955,210445,6
99936,210426,4
99935,210443,5
99952,210444,5
99938,210456,4
99960,210447,5
99826,210470,5
99944,210483,5
99949,210471,5
99956,210478,4
99641,210488,5
99956,210484,5
99956,210474,5
99959,210472,4
99580,210472,4
99956,210458,5
99967,210484,5
99967,210487,5
99989,210482,4
99973,210474,5
99979,210493,5
99983,210475,6
100317,210488,4
99984,210489,4
99981,210482,5
100000,210482,6
100370,210480,4
99993,210480,5
99989,210483,4
99998,210497,5
100136,210485,5
99998,210495,5
100010,210498,5
100007,210493,4
100015,210417,5
99997,210499,5
100003,210498,5
100006,210495,5
100009,210207,4
100011,210496,5
100010,210488,5
100011,210508,5
100025,210116,4
100025,210491,4
100029,210489,5
100008,210502,5
100016,210438,5
100011,210489,4
100024,210507,5
100014,210512,5
100021,210826,5
100011,210517,5
100016,210506,4
100014,210498,5
100007,210933,5
100005,210509,5
100010,210510,5
99997,210501,4
99994,210674,5
99998,210505,5
99990,210514,5
99996,210503,5
99982,210539,4
99987,210510,5
99985,210504,5
99984,210492,5
99985,210492,4
99994,210486,4
99988,210480,5
99994,210485,5
99992,210474,5
99996,210460,5
99995,210464,4
100000,210461,5
100005,210460,6
100008,210454,4
100012,210470,4
100012,210466,5
100011,210450,5
100009,210444,5
100012,210439,5
100015,210443,4
100011,210430,5
100015,210446,5
100008,210456,5
100007,210451,5
100003,210427,4
100013,210443,5
100015,210427,5
100010,210423,5
100024,210424,4
100021,210414,4
100022,210417,5
100023,210429,4
100027,210419,5
100035,210431,4
100040,210420,7
100041,210427,3
100049,210418,5
100053,210429,5
100052,210426,4
100050,210431,5
100053,210416,5
100043,210429,5
100053,210412,5
100050,210424,4
100055,210426,5
100046,210428,5
100058,210438,5
100053,210422,5
100056,210428,4
100059,210453,5
100064,210445,5
100061,210459,5
100071,210454,4
100064,210474,4
100072,210474,5
100083,210483,6
100079,210495,4
100075,210511,4
100072,210517,5
100085,210554,5
100079,210573,5
100091,210611,5
100098,210654,4
100112,210687,5
100108,210703,5
100129,210733,5
100135,210740,5
100145,210750,4
100154,210753,5
100168,210775,5
100168,210778,5
100179,210818,5
100175,210844,4
100174,210864,5
100177,210898,5
100177,210924,5
100191,210960,5
100027,210986,4
100178,211002,5
100158,211024,5
100155,211040,6
99806,211041,3
100114,211035,4
100108,211045,5
100081,211040,5
99701,211046,5
100049,211073,4
100037,211096,5
100025,211131,5
100104,211161,5
99995,211180,5
99959,211177,4
99938,211194,5
100281,211220,5
99927,211223,5
99906,211216,5
99883,211207,4
100172,211206,5
99843,211238,5
99810,211243,5
99777,211260,5
99853,211282,5
99716,211275,4
99659,211275,5
99621,211283,5
99592,211159,6
99548,211282,3
99524,211290,5
99501,211260,5
99449,210964,5
99417,211252,4
99433,211278,5
99412,211282,5
99370,210914,5
99324,211244,5
99321,211287,4
99281,211267,5
99259,211258,5
99261,211261,5
99244,211281,5
99228,211276,4
99191,211573,5
99157,211269,5
99165,211270,5
99163,211293,5
99167,211697,4
99178,211395,6
99169,211408,4
99200,211450,5
99221,211616,4
99226,211529,4
99323,211599,5
99343,211609,5
99317,211621,5
99352,211582,4
99385,211581,5
99429,211557,5
99449,211478,5
99477,211421,5
99550,211462,4
99623,211490,5
99680,211441,5
99740,211455,5
99784,211419,5
99838,211447,4
99913,211499,5
99995,211530,5
100032,211538,5
100042,211520,5
100043,211503,4
100013,211483,5
100021,211495,6
99986,211487,4
99976,211498,5
99984,211477,4
99960,211475,5
99963,211459,5
99966,211464,5
99993,211450,4
100025,211416,4
100084,211421,5
100211,211321,5
100239,211127,5
100322,211002,4
100360,210824,5
100388,210605,5
100393,210343,5
100422,210166,5
100503,210004,4
100579,209906,5
100606,209700,5
100609,209516,5
100660,209396,5
100650,209253,4
100627,209042,5
100596,208902,5
100586,208763,6
100573,208703,4
100586,208649,4
100605,208624,5
100635,208591,5
100661,208487,5
100708,208417,4
100785,208331,4
100885,208216,5
100910,208065,5
100940,207963,5
100949,207849,4
100952,207795,5
100960,207711,5
100984,207692,5
101034,207664,5
101001,207478,4
101047,207420,5
101057,207339,5
101095,207265,5
101112,207196,5
101155,207148,5
101186,207075,4
101215,207019,5
101238,206940,5
101267,206863,5
101292,206719,4
101307,206539,5
101272,206365,5
101197,206173,5
101146,206021,4
101098,205880,4
101041,205733,5
100989,205588,5
100744,205475,5
100907,205374,4
100836,205269,5
100805,205229,5
100423,205147,5
100692,205000,5
100621,204900,4
100515,204807,5
100044,204689,5
100248,204580,5
100094,204500,5
99995,204476,4
99978,204416,6
99784,204374,4
99685,204337,5
99602,204301,5
99887,204241,4
99447,204211,5
99311,204057,5
99086,203728,5
99027,203384,5
98478,203397,4
98328,203559,5
98276,203872,5
98330,204184,5
98179,204436,4
98176,204640,4
98187,204770,5
98170,204788,5
98149,205001,5
98086,204970,4
98017,204911,5
97913,204486,5
97791,204712,5
97763,204855,5
97745,205094,4
97673,204923,4
97564,205288,6
97434,205244,4
97334,205201,5
97206,205096,4
97075,204982,5
96943,204862,5
96860,204780,5
96782,204972,5
96783,204714,4
96799,204589,5
96878,204497,5
96916,204701,5
96942,204090,4
97064,203783,4
97282,203637,5
97306,203487,5
97234,203055,5
97172,202687,4
97088,202339,5
97071,201998,5
97043,201660,5
96900,201117,5
96607,200405,4
96174,199701,5
95761,198980,5
95424,198453,6
95136,198055,4
94903,197836,4
94646,197581,5
94366,197269,5
93994,196914,5
93646,196703,5
93320,196492,4
93066,196327,5
92829,196076,5
92655,195791,5
92446,195506,5
92232,195210,4
92003,194906,5
91809,194625,5
91610,194418,5
91403,194171,4
91193,193972,4
90898,193662,5
90663,193486,5
90547,193498,5
90572,193729,5
90705,194042,4
90694,194255,5
90748,194603,5
90749,194733,5
90739,194793,4
90699,194802,5
90716,194806,5
90740,194806,5
90795,194905,5
90791,194937,4
90810,195032,5
90828,195079,5
90778,195027,5
90729,195054,5
90699,195067,4
90642,195039,5
90616,195040,5
90490,194921,5
90384,194793,5
90325,194744,4
90254,194628,5
90188,194551,5
90101,194512,5
90097,194512,4
90096,194509,5
90071,194510,4
90118,194565,5
90162,194551,5
90152,194446,4
90185,194353,5
90142,194198,5
90061,193981,5
89970,193788,5
89741,193408,4
89422,192908,5
88978,192151,5
88349,191185,5
87583,190093,5
87190,189500,4
86948,189236,5
86966,189377,5
87097,189658,5
87323,190061,5
87463,190456,4
87606,190903,5
87739,191186,5
87784,191529,5
87855,191730,4
87965,191994,4
87989,192168,6
88062,192274,4
88154,192452,5
88302,192678,4
88341,192948,5
88555,193098,5
88572,193148,5
88606,193232,5
88413,193285,4
88583,193363,5
88572,193461,5
88537,193492,5
88459,193553,5
88435,193567,4
88458,193728,5
88415,193716,5
88508,193776,5
88330,193748,5
88273,193801,4
88177,193771,5
88362,193929,5
88177,194077,5
88160,194177,5
88175,194351,4
88226,194472,5
88069,194403,5
87999,194460,5
87913,194415,4
87913,194476,4
87827,194461,5
87782,194452,5
87678,194376,5
87612,194240,4
87506,194168,5
87373,194119,5
87278,194124,5
87210,194038,5
87195,194208,4
87127,194200,5
87067,194145,5
87107,194178,5
87055,194223,5
87018,194099,5
86897,194011,4
86920,194109,5
86859,193993,5
86784,193878,6
86756,193852,3
86754,194013,5
86776,193929,5
86794,193977,5
86840,194101,5
86839,194249,4
86836,194230,5
86818,194287,5
86851,194381,5
86849,194436,4
86833,194403,4
86805,194320,5
86743,194249,5
86614,194012,5
86481,193706,4
86248,193383,5
86089,193036,5
85920,192748,5
85863,192506,5
85852,192571,4
85873,192608,6
86027,192920,4
86254,193311,5
86569,193757,5
86978,194229,6
87227,194587,3
87474,194889,5
87811,195307,5
88054,195608,5
88231,195946,4
88616,196555,5
89014,197240,5
89373,197888,5
89747,198381,4
90103,198893,4
90264,199215,5
90496,199499,5
90642,199717,5
90872,200267,4
91132,200568,9
91317,200767,1
91450,200883,5
91631,201024,5
91610,201168,4
91713,201148,5
91735,201120,6
91650,201088,4
91570,200955,5
91545,201001,4
91713,201195,5
91869,201407,5
92260,202190,5
92595,202610,5
92970,203164,4
93237,203566,5
93468,203964,5
93724,204408,5
94011,204835,5
94171,205046,4
94271,205178,5
94285,205172,5
94345,205235,5
94371,205277,4
94489,205450,4
94594,205577,5
94657,205671,5
94675,205693,5
94696,205642,4
94630,205514,5
94524,205326,5
94435,205191,6
94373,205051,4
94344,204976,4
94276,204845,5
94143,204533,5
94145,204522,5
94161,204555,5
94196,204591,4
94317,204736,5
94417,204863,5
94552,205087,5
94681,205236,5
94807,205401,4
94867,205459,5
94974,205572,5
95047,205659,5
95110,205746,5
95189,205886,4
95272,206008,5
95336,206072,5
95310,206056,5
95373,206064,5
95377,206069,4
95375,206052,5
95224,205960,5
95264,205860,6
95196,205736,3
95092,205598,5
94935,205398,5
94865,205159,5
94718,204914,5
94548,204619,4
94438,204330,5
94244,204012,5
94093,203746,5
93961,203482,5
93963,203228,4
93735,202965,5
93629,202724,5
93512,202521,5
93527,202408,5
93468,202423,4
93518,202468,5
93574,202554,5
93640,202596,5
93724,202781,4
93842,202942,5
93913,203063,4
93993,203081,5
94040,203207,5
94096,203250,6
94149,203307,3
94174,203255,5
94158,203297,5
94131,203265,5
94120,203168,5
94056,203003,4
94034,203049,5
94039,202999,5
94025,202929,5
94038,202948,4
93981,202787,5
93907,202616,5
93756,202332,5
93628,202126,5
93473,201784,4
93420,201594,5
93360,201437,5
93283,201370,9
93241,201099,4
93224,200989,4
93512,202521,7
93098,200815,4
93107,200793,4
93075,200758,4
93083,200716,7
93172,200793,4
93237,200842,4
93264,200828,8
93312,200867,4
93378,200966,4
93802,201392,8
93802,201392,4
93828,201449,4
93888,201501,5
93918,201577,6
93952,201631,0
94001,201668,2
94028,201678,5
94022,201681,5
94009,201621,5
93997,201568,4
93961,201499,5
93923,201421,6
93846,201382,4
93837,201346,5
93841,201366,4
93840,201348,5
93847,201345,5
93861,201355,5
93887,201376,4
93905,201408,4
93936,201447,5
93972,201501,5
93993,201536,5
94039,201586,4
94073,201669,5
94112,201731,5
94168,201820,5
94225,201894,5
94287,202023,4
94334,202100,5
94363,202117,5
94332,202069,5
94271,201954,5
94169,201798,4
94081,201637,5
94009,201513,5
93913,201369,6
93870,201258,4
93818,201159,4
93780,201122,5
93762,201043,5
93750,201096,5
93768,201093,4
93808,201162,4
93871,201275,5
93948,201423,5
94018,201536,5
