RED,IR,EKG,TIME
150783,262143,11
149436,262143,4
148200,262143,4
147070,262143,6
146025,261014,7
145064,261314,4
144053,259583,6
136091,245940,7
136091,245940,4
134079,243208,6
132114,238556,7
129795,233595,6
128398,229202,7
126331,226799,4
117401,205475,7
117401,205475,4
116291,202918,7
115380,200483,6
114519,198314,4
114838,196702,8
114595,195641,6
114437,195287,4
117302,194007,8
117302,194007,6
118683,193938,5
119887,193155,8
120766,191345,6
121139,188287,5
120560,184097,7
119038,178877,6
107254,150478,8
107254,150478,8
105713,146455,4
104371,143611,7
103333,140475,6
102582,138080,4
100732,130848,8
100732,130848,6
100316,130062,7
99994,128624,9
99778,127396,4
99643,126248,5
99700,123089,7
99700,123089,6
99782,122861,9
99854,122644,8
99878,122427,4
99971,121765,8
99971,121765,6
99957,121681,9
100007,121625,6
100015,121599,4
100023,121568,5
99729,121298,10
99729,121298,4
99601,121224,5
99421,121087,9
99235,121031,4
99066,120994,5
98907,120952,10
98735,120984,4
98529,120961,5
98720,121166,10
98720,121166,4
98421,120229,6
98138,119081,8
97787,118298,4
97793,116739,7
98401,113748,8
98401,113748,4
98111,112671,7
97113,111641,7
97043,110538,4
96092,109471,6
95391,108595,7
93443,107996,4
94542,107603,6
100615,110595,7
100615,110595,8
103591,114093,7
106003,117808,4
107922,121072,6
112921,132647,7
112921,132647,4
113444,133878,7
114986,134910,8
113893,135778,4
114279,136428,6
114597,136954,7
115291,137462,4
115973,139228,6
115973,139228,7
116076,139416,8
116155,139582,6
116207,139053,7
116318,140169,8
116318,140169,7
116324,140211,4
116313,140249,7
116315,139945,7
116247,140277,6
115977,140089,7
115977,140089,7
115883,140016,6
115830,140976,5
115766,139893,7
115679,139835,6
115592,139695,5
114921,139099,8
114921,139099,6
114842,138921,4
114853,138954,8
114942,139059,6
115043,139247,7
115832,140348,9
115832,140348,4
115931,140470,8
116013,140655,6
116073,140787,5
116131,140887,7
116131,140966,6
116172,141175,6
116172,141175,9
116147,141197,4
116144,141211,4
116125,141228,8
116080,141178,6
115491,140511,12
115265,140235,6
115005,139937,8
114700,139526,9
114327,139037,4
111750,134729,8
111750,134729,6
111067,133509,9
110271,131934,9
105555,121910,8
105555,121910,9
104068,119273,4
102136,116311,5
100230,113283,10
97988,110728,4
87506,98722,7
87506,98722,7
86105,97889,4
85103,97925,7
84024,97482,8
82940,96909,4
81822,95841,7
75411,92963,8
75411,92963,4
74119,92774,7
73058,92432,8
71915,92140,4
70946,91856,7
112450,135930,7
69439,91735,4
66371,92215,7
66371,92215,7
66052,92740,5
65536,93224,7
64972,94140,7
66113,95652,4
66220,97850,7
68460,107534,8
68460,107534,6
67983,109287,8
69632,110118,4
70222,111046,7
70511,111442,8
70592,112105,4
73134,118504,7
73134,118504,7
74194,120952,4
75402,123907,7
77932,126631,7
78106,129406,5
79616,132511,7
88662,151005,7
88662,151005,4
90889,154489,6
92940,158584,6
95199,162700,0
97377,166720,3
99354,169345,5
101076,175131,5
103293,179747,4
105653,184769,5
108446,188618,5
111174,195102,5
113980,200668,5
116597,205318,4
118606,209909,4
120703,214387,5
122653,217877,5
124473,221648,4
125964,225231,4
127333,227392,5
128876,230656,5
130335,232822,5
131375,235804,4
131519,236952,5
132229,238630,6
132749,240151,4
133157,241895,5
133388,242368,4
133454,243187,5
133419,243852,5
133433,244632,5
133672,245331,5
133730,245941,4
133782,245979,5
133634,246196,5
133371,246472,5
133082,246734,5
132827,247182,4
132528,247390,5
132159,247571,5
131899,247901,5
131653,248290,4
131412,248652,4
131233,249060,5
131192,249593,5
131169,250115,5
131109,250616,4
131061,251013,5
130951,251263,5
130887,251679,6
130902,252166,4
130950,252632,4
131075,253237,10
131315,253817,5
131421,254347,5
131591,254811,4
131758,255247,5
131827,255651,5
132064,256227,5
132306,256714,5
132470,257111,4
132500,257265,5
132622,257547,5
132683,257705,5
132742,257836,5
132780,257943,4
132802,258050,5
132782,258109,5
132919,258209,5
132871,258202,5
132844,258202,4
132867,258340,5
132807,258164,5
132641,257985,5
132496,257744,4
132409,257657,5
132440,257742,5
132375,257753,5
132384,257787,5
132450,257853,4
132435,257879,5
132347,257820,5
132442,257930,5
132453,257941,5
132410,257894,4
132405,257904,5
132391,257892,5
132366,257907,5
132294,257833,5
132193,257747,4
132130,257675,5
132014,257526,5
131905,257415,5
131719,257305,5
131593,257249,5
131391,257105,4
131215,256913,5
131046,256845,5
130876,256732,4
130668,256537,4
130545,256358,5
130377,256280,5
130337,256271,5
130139,256115,4
129997,255994,5
129753,255796,5
129542,255623,5
129244,255492,5
129092,255426,4
128806,255136,5
128549,254951,5
128141,254981,5
128155,254925,5
127972,254970,4
127635,254762,5
126984,254700,5
127070,254413,5
126880,254457,5
126251,253988,4
125590,253702,6
125381,253657,4
124800,253353,5
124234,252886,5
123850,252336,4
122848,252131,5
122303,251877,5
121574,251668,5
121239,251442,4
120017,251340,4
119338,251102,5
118516,250653,5
117980,250322,5
117060,250035,4
116422,249602,5
115950,249386,5
115505,248967,5
114983,248523,5
114451,248223,4
114783,247718,5
114394,246938,5
114045,246986,5
113704,246497,5
113333,246090,4
112972,245083,5
112593,244962,6
112184,244470,4
111713,243837,5
111116,242670,4
110675,242525,5
110277,242022,5
109839,241388,5
109394,240926,4
108900,240157,4
108521,239564,5
108133,239164,5
107696,239039,5
107278,238073,4
107045,237751,5
106867,237524,5
106613,237419,5
106372,236615,5
106189,236283,4
105899,235843,5
105658,235608,5
105432,235059,5
105232,234691,6
105060,234391,3
104851,234101,5
104656,233735,5
104491,233406,5
104351,233076,5
104158,232867,4
104021,232660,5
103888,232488,5
103780,232316,5
103701,232151,5
103630,232034,4
103568,231974,5
103493,231934,5
103417,231828,5
103317,231657,4
103210,231533,4
103155,231449,5
103111,231428,5
103076,231394,5
103056,231371,4
103043,231360,5
103082,231399,5
103113,231452,5
103131,231440,5
103150,231457,5
103177,231486,4
103175,231466,5
103186,231482,5
103193,231506,5
103215,231537,4
103231,231553,5
103249,231562,5
103266,231581,5
103262,231595,5
103288,231593,4
103291,231590,5
103315,231573,5
103314,231569,5
103313,231484,4
103270,231360,4
103184,231126,5
103151,230989,5
103085,230777,5
102929,230508,4
102797,230256,4
102690,229865,6
102560,229652,4
102349,229287,5
102139,229473,4
101727,228722,7
101138,227645,3
100338,226329,5
99412,224735,5
98377,222968,4
97344,220959,5
96652,218895,5
95482,216758,5
94317,215024,5
93376,213518,4
92599,212469,5
91926,211902,5
91335,210839,5
90992,210116,5
90660,209570,4
90329,208923,5
90053,208447,5
89840,208325,5
89786,208268,4
89794,208312,4
89750,208250,5
89672,208162,6
89608,208183,4
89536,208202,4
89483,208213,5
89427,208214,5
89407,208268,5
89411,208364,5
89408,208437,4
89166,208474,5
89470,208708,5
89577,209013,5
89679,209270,5
89388,209587,4
89928,209863,5
90018,210055,5
90120,210260,5
89842,210484,5
90234,210775,4
90333,211069,5
90407,211413,5
90715,211731,5
90572,211905,5
90728,212258,4
90868,212627,5
91420,213004,5
91143,213355,6
91284,213738,3
91541,214295,4
92000,214908,5
91990,215523,5
92306,216195,5
92551,216769,4
92842,217229,5
93039,217861,5
93283,218388,5
93626,219115,5
93898,219374,4
94142,220093,5
94546,220715,5
94778,221327,5
95124,221594,5
95396,222700,4
95807,223562,5
96077,224210,5
96389,224570,5
96898,225831,5
97423,226883,5
97925,227808,4
98454,228914,5
99129,229869,5
99786,230361,6
100853,232385,3
101878,234090,5
102715,234634,5
103551,235682,5
104288,236679,4
105132,238040,5
105755,238779,5
106132,239296,5
106706,240068,5
107176,240911,4
107679,241685,5
108262,242396,5
108800,243095,5
109353,243654,5
109828,244168,4
110308,244706,5
110808,245133,5
111170,245480,5
111549,245712,5
111675,245801,4
111791,245273,6
111847,245338,4
111853,245206,5
111889,245136,5
111988,245098,4
112070,245185,5
112199,245213,5
112372,245277,5
112476,245307,4
112598,245314,4
112615,245255,5
112652,245206,5
112581,245105,5
112526,244993,4
112520,244966,5
112493,244909,5
112496,244864,5
112553,244906,5
112640,244940,4
112661,244877,5
112741,244875,5
112814,244809,5
112823,244749,5
112855,244626,4
112851,244542,5
112908,244505,6
112916,244474,4
112911,244419,5
112881,244385,4
112867,244295,5
112819,244186,5
112788,244111,5
112780,244033,4
112729,243952,4
112704,243913,5
112648,243821,5
112614,243748,5
112602,243697,4
112548,243590,5
112497,243495,5
112452,243395,5
112453,243347,5
112475,243310,4
112509,243307,5
112545,243300,5
112566,243300,5
112613,243316,5
112627,243310,4
112653,243292,5
112665,243288,5
112687,243246,6
112691,243178,4
112695,243156,4
112702,243116,5
112702,243083,5
112712,243087,5
112733,243049,5
112679,242969,4
112695,242938,5
112697,242900,5
112688,242880,5
112664,242837,4
112642,242782,4
112613,242752,5
112585,242722,5
112568,242686,5
112539,242657,4
112482,242182,5
109494,238871,5
107967,237367,5
107314,236787,5
106614,235699,5
105902,234684,4
105080,233757,5
104167,232993,5
104084,232495,6
103906,232305,3
103863,232268,5
103523,232297,5
103901,232325,5
103941,232395,5
103999,232475,4
104118,232543,5
104091,232614,5
104141,232695,5
104173,232765,5
104591,232858,4
104332,232921,5
104186,232782,5
104232,232913,5
104730,233082,4
104430,233139,4
104472,233211,5
104553,233360,5
104748,233471,5
104709,233610,4
104817,233809,6
104975,234083,4
105196,234268,5
105447,234718,5
105748,235095,4
106063,235513,5
106420,235706,5
106804,236394,5
107136,236746,5
107409,237059,4
107589,236885,5
107726,237371,5
107752,237335,5
107648,237214,5
107496,237014,4
107358,236905,5
107250,236782,5
107127,236661,5
107008,236841,4
106897,236436,4
106853,236394,5
106845,236394,5
106838,236804,5
106856,236438,4
106893,236491,5
106886,236484,6
106924,236742,4
106980,236672,5
107057,236802,4
107186,236961,5
107365,237207,5
107624,237501,5
107886,237864,5
108274,238218,4
108774,238778,5
109877,239863,5
110545,239991,5
110553,240003,5
110692,240070,4
110952,240169,5
111284,240258,5
111713,240564,5
111456,240108,5
111530,240106,4
111713,240201,5
111878,240261,5
111946,240253,5
111969,240251,4
112069,240304,4
112109,240234,5
112153,240233,6
112218,240255,4
112254,240257,4
112281,240197,5
112319,240166,5
112559,240332,5
112818,240515,5
112764,240395,4
112691,240249,5
112621,240186,5
112646,240216,5
112638,240205,5
112618,240150,4
112526,240022,5
112351,239792,5
112063,239412,5
111553,238834,7
111055,238256,2
110526,237548,5
109797,236656,5
108773,235463,5
107863,234287,5
106993,233219,4
106227,232297,5
105799,231932,5
105753,231974,5
105832,232096,4
105904,232193,5
105943,232272,5
105948,232268,5
105959,232310,5
105977,232343,4
106150,232767,5
112149,241616,5
112549,240275,5
112649,239965,5
112574,239834,4
112123,239248,5
112000,239298,5
112117,239383,5
112141,239397,5
112140,239371,4
112096,239344,5
112099,239365,5
112110,239394,5
112127,239424,5
112149,239455,5
112184,239467,4
112204,239468,5
112225,239499,5
112223,239511,4
112202,239494,4
112189,239490,5
112138,239460,5
112142,239453,5
112127,239438,4
112117,239406,5
111983,239400,5
112101,239404,5
112102,239412,5
112121,239428,4
111794,239428,5
112076,239421,5
112080,239440,5
112115,239460,5
111737,239486,4
112135,239478,5
112113,239465,6
112102,239442,4
112102,239475,5
112125,239463,4
112125,239472,6
112126,239481,4
112446,239467,5
112103,239459,4
112096,239452,4
112086,239443,5
112525,239458,5
112097,239481,5
112084,239494,4
112106,239516,4
112289,239531,5
112119,239543,5
112135,239555,5
112129,239562,4
112159,239533,5
112139,239599,5
112128,239581,5
112118,239571,5
112091,239253,4
112045,239494,5
111992,239446,5
111968,239413,5
111930,238980,4
111901,239345,4
111913,239368,5
111919,239366,5
111926,239230,5
111954,239404,5
111972,239438,4
111998,239459,5
112008,239758,5
112049,239538,5
112082,239573,4
112130,239648,4
112230,240237,5
112414,240018,5
112635,240319,5
112902,240536,4
113068,241010,5
113367,241132,5
113738,241491,5
114152,241878,5
114623,242388,5
114926,242511,4
114805,242918,5
115126,243176,5
115549,243560,6
115808,243708,3
115997,243804,5
116159,243990,5
116012,243717,5
115956,243728,5
116449,244218,4
116369,243985,5
116207,243870,5
116416,244225,5
116569,244234,5
116645,244271,4
116704,244398,5
116747,244395,5
116786,244429,5
116815,244455,4
116840,244475,4
116833,244487,5
116832,244455,5
116791,244440,5
116784,244426,4
116779,244423,6
116795,244440,4
116809,244455,5
116821,244468,5
116834,244478,6
116852,244482,3
116869,244489,5
116891,244503,5
116945,244573,5
116977,244584,4
117000,244591,5
117021,244617,5
117067,244649,5
117109,244680,5
117133,244696,4
117157,244741,5
117197,244747,5
117226,244791,5
117137,244445,4
114355,240838,4
113774,240899,5
114849,242140,5
115329,242390,5
115153,242155,4
114944,241958,5
114959,241964,6
115024,242030,4
115128,242157,5
115209,242240,4
115250,242280,5
115267,242292,5
115289,242327,5
115342,242388,5
115405,242438,4
115430,242461,5
115456,242479,5
115467,242495,5
115496,242507,5
115520,242519,4
115545,242536,5
115558,242569,5
115568,242578,5
115591,242628,5
115644,242653,4
115656,242648,5
115671,242663,5
115690,242686,5
115710,242699,4
115678,242648,4
115637,242587,5
115655,242614,6
115700,242640,4
115668,242675,4
115751,242706,5
115796,242733,5
115817,242750,5
115585,242783,5
115971,242864,4
116069,242961,5
116195,243039,5
115885,243103,5
116352,243118,5
116346,243106,4
116385,243113,5
116309,243111,5
116440,243098,5
116445,243095,5
116488,243120,4
116777,243099,5
116482,243092,5
116517,243117,5
116521,243098,5
116952,243054,4
116508,243039,5
116489,243005,5
116439,242941,6
116603,242857,3
116331,242783,5
116253,242682,5
116163,242591,5
116148,242524,5
116102,242511,4
116071,242462,5
116043,242438,5
116035,242137,5
116026,242396,5
116059,242388,4
116020,242377,5
116015,241934,5
116023,242357,5
116041,242358,5
116033,242351,4
116047,242115,5
116030,242323,5
116027,242312,5
116015,242278,5
115994,242506,5
115970,242215,4
115960,242195,5
115967,242203,5
116004,242690,6
116008,242207,3
116017,242273,5
116118,242201,5
116039,242364,5
115960,242043,4
115973,242056,5
116018,242117,5
116011,242178,5
115989,242082,5
115972,242080,4
115979,242096,5
116019,242129,5
116050,242146,5
116045,242151,5
116041,242149,4
116016,242141,5
116011,242129,5
115983,242124,5
115950,242087,5
115916,242064,4
115899,242064,6
115875,242026,4
115864,242012,5
115814,241985,4
115811,241994,4
115805,241992,5
115809,241983,5
115807,241971,5
115777,241964,4
115712,241881,5
115666,241840,5
115674,241837,5
115690,241874,5
115612,241783,4
115576,241731,5
115566,241712,5
115543,241688,5
115507,241639,5
115464,241596,4
115438,241580,5
115438,241575,5
115485,241647,5
115607,241792,5
115727,241910,4
115733,241895,5
115701,241850,6
115818,241958,4
115864,242004,5
115880,242000,4
115832,241952,5
115860,241999,5
115913,242056,5
115958,242105,4
115974,242114,4
115913,242067,5
115839,241999,5
115753,241921,5
115664,241862,4
115616,241818,5
115570,241770,5
115539,241752,5
115526,241751,5
115531,241724,4
115507,241708,5
115453,241650,5
115407,241608,5
115352,241546,5
115249,241435,4
115155,241329,5
115092,241289,5
115045,241266,6
115014,241229,4
115020,241222,4
115019,241228,5
115071,241287,5
115062,241273,5
115058,241279,4
115067,241291,4
115068,241304,5
115080,241304,5
115101,241336,5
115089,241328,4
115048,241260,5
114953,241148,5
114849,241078,5
114828,241032,5
114772,240997,4
114743,240948,5
114406,240909,5
114652,240895,5
114642,240905,5
114650,240918,5
114244,240910,4
114618,240883,5
114593,240854,5
114647,240845,5
114293,240721,4
114357,240653,5
114313,240652,5
114312,240667,5
114544,240603,5
114213,240564,4
114124,240492,5
114052,240448,5
114419,240398,5
113913,240363,4
113830,240318,4
113709,240234,5
113810,240081,5
113458,240016,5
113398,239967,4
113279,239843,5
113227,239719,5
113023,239589,5
112904,239526,5
112804,239402,4
112697,239108,6
112615,239274,4
112516,239202,5
112397,239136,5
112297,238672,4
112220,239005,5
112143,238951,5
112038,238804,5
111899,238363,5
111761,238630,4
111620,238499,5
111393,238384,5
111136,238429,5
110954,238181,5
110845,238150,4
110642,238021,5
110331,238215,5
110136,237766,5
110098,237775,4
109979,237734,4
109785,237870,5
109632,237481,5
109528,237404,5
109413,237321,4
109304,237249,5
109150,237077,6
108999,236992,4
108921,236956,5
108839,236950,4
108793,236929,5
108721,236962,5
108601,236856,5
108512,236816,5
108456,236804,4
108364,236789,5
108304,236790,5
108229,236738,5
108137,236725,5
108072,236697,4
107996,236665,5
107924,236613,5
107847,236566,5
107794,236540,4
107763,236528,4
107692,236466,5
107657,236440,5
107633,236429,5
107626,236438,4
107605,236416,5
107586,236403,5
107585,236401,5
107550,236372,5
107514,236330,4
107525,236349,5
107526,236345,5
107517,236343,5
107505,236338,5
107483,236322,4
107477,236287,5
107443,236262,5
107415,236246,5
107393,236216,5
107382,236197,4
107361,236181,5
107341,236156,5
107312,236130,5
107305,236051,5
107294,236033,4
107281,236009,5
107234,235956,5
107201,235907,5
107159,235855,5
107146,235830,4
107140,235825,5
107118,235635,5
107125,235661,5
107148,235683,4
107163,235680,5
107141,235656,5
107133,235635,5
107096,235595,5
107086,235585,4
107002,235478,5
106911,235346,5
106889,235354,5
106910,235357,5
106898,235362,4
106869,235317,5
106850,235296,5
106938,235377,5
107125,235751,5
106909,235356,4
106744,235168,6
106833,235385,4
107082,235586,5
106973,235403,5
106929,235397,6
106970,235431,3
107023,235479,5
107026,235487,5
107027,235486,4
107035,235488,4
107048,235503,5
107067,235533,5
107092,235568,5
106907,235597,4
107156,235648,5
107187,235692,5
107209,235732,5
106915,235754,5
107273,235781,4
107317,235829,5
107373,235897,5
107204,235965,5
107473,236036,5
107530,236102,4
107619,236220,5
107921,236377,6
107856,236488,4
107976,236621,5
108103,236769,4
108603,236950,5
108395,237109,5
108558,237261,5
108744,237457,4
109155,237626,4
109062,237741,5
109086,237764,5
109232,237912,5
109476,238078,4
109582,238239,4
109747,238399,5
109886,238534,5
110056,238511,5
110244,238843,4
110416,238983,5
110598,239159,5
110776,238981,5
110953,239432,5
111106,239559,5
111260,239657,4
111452,239465,5
111645,239953,6
111814,240114,4
111952,240252,4
112120,240418,5
112181,240353,5
112153,240392,5
112301,240500,5
112398,240960,4
112501,240628,5
112554,240676,5
112652,240728,5
112736,241129,4
112849,240879,4
112954,240931,5
113000,240937,5
113096,241125,5
113165,241068,4
113214,241067,5
113264,241098,5
113313,241124,5
113394,241207,5
113498,241285,5
113581,241328,4
113701,241382,5
113805,241450,5
113910,241520,6
113999,241609,3
114079,241651,5
114154,241753,5
114202,241794,5
114338,241923,5
114328,241832,4
114281,241828,5
114336,241869,5
114333,241836,5
114299,241795,5
114277,241785,4
114269,241757,5
114241,241712,5
114224,241707,5
114224,241692,4
114160,241663,4
114161,241617,5
114125,241584,5
114069,241533,5
114015,241459,4
113961,241402,6
113927,241361,4
113886,241275,5
113804,241178,5
113714,241086,6
113657,241002,3
113591,240928,5
113527,240839,5
113477,240774,5
113417,240694,4
113366,240624,5
113312,240539,5
113277,240493,5
113229,240429,5
113198,240406,4
113226,240433,5
113297,240501,5
113332,240542,5
113273,240433,4
113049,240070,4
112842,239842,5
112782,239733,5
112678,239534,5
112413,239145,4
111967,238558,4
111523,238050,6
111117,237570,4
110781,237103,5
110448,236665,4
110055,236163,5
109643,235620,5
109136,235016,5
108625,234343,5
108180,233745,4
107651,233080,5
107022,232360,5
106395,231593,5
105617,230484,5
104670,229269,4
103730,228565,5
102607,226921,5
101225,224849,5
99952,223048,5
99052,221860,4
98378,220835,5
97705,219994,5
97717,219152,5
97241,218509,4
96887,217898,4
96529,217390,5
96115,217066,6
96047,216661,4
95729,216192,4
95477,215849,5
94950,215484,5
95000,215096,5
94757,214692,5
94486,214230,4
93896,213756,5
93856,213339,5
93545,212833,5
93239,212928,5
93010,212431,4
92693,212208,5
92335,211690,5
91955,211116,5
91904,210535,5
91182,209786,4
90716,208992,5
90254,208340,5
90077,207696,5
89512,207184,5
89233,206775,4
89048,206486,5
88950,206209,5
88732,206003,6
88602,205764,3
88489,205583,4
88382,205261,5
88231,205137,5
88132,204924,5
88046,204741,4
87898,204237,5
87795,204287,5
87666,204027,5
87502,203771,5
87347,203227,4
87237,203257,5
87080,202977,5
86949,202738,5
86837,202585,5
86738,202354,4
86649,202181,5
86521,201946,5
86411,201988,5
86285,201469,5
86135,201169,5
85980,200877,4
85856,200904,5
85733,200385,5
85587,200154,4
85504,200007,4
85436,199977,5
85369,199756,5
85304,199643,5
85251,199595,4
85224,199551,4
85211,199520,5
85198,199491,5
85210,199483,5
85211,199474,4
85209,199471,5
85230,199481,5
85242,199491,5
85253,199530,5
85290,199553,4
85302,199585,5
85333,199622,5
85389,199714,5
85445,199778,5
85513,199913,4
85622,200079,6
85781,200353,4
85953,200614,5
86127,200905,5
86344,201296,4
86622,201743,5
86973,202328,5
87381,203072,5
87706,203668,4
88063,204196,4
88501,204867,5
88926,205610,5
89394,206339,5
89902,207148,4
90365,207896,5
90855,208641,5
91328,209394,5
91751,210064,5
92116,210702,4
92523,211384,5
93012,212142,5
93448,212820,5
93938,213582,5
94469,214453,4
95060,215347,5
95760,216328,6
96418,217297,4
97149,218334,5
97973,219449,4
98712,220467,5
99424,221369,5
100157,222263,5
100677,222996,5
101262,223795,4
101806,224565,5
102326,225184,5
102884,225866,5
103411,226562,4
104068,227390,4
104641,228028,5
105293,228911,5
105795,229358,5
106273,229981,4
106702,229890,5
107208,230529,5
107736,231123,5
108169,231705,5
108530,232178,4
108817,232558,5
109107,232891,5
109331,233177,5
109513,233387,5
109629,233482,4
109729,233593,5
109838,233717,5
109948,233818,5
109996,233882,5
110147,234007,4
110201,234056,5
110252,234099,5
110305,234147,5
110339,234197,4
110204,234257,4
110432,234318,5
110489,234364,5
110512,234362,5
110226,234398,4
110596,234428,5
110613,234438,5
110624,234476,5
110178,234395,5
110483,234347,5
110437,234309,4
110395,234289,5
110481,234261,5
110291,234170,5
110190,234062,4
110129,234020,5
110393,233940,5
109910,233769,5
109836,233673,5
109778,233571,4
110009,233508,5
109687,233467,5
109666,233440,5
109666,233417,5
109742,233406,4
109677,233436,5
109694,233462,5
109710,233494,5
109728,233367,4
109725,233529,4
109747,233547,6
109746,233554,4
109755,233261,5
109753,233567,4
109772,233588,7
109772,233598,3
109791,233241,5
109780,233619,5
109793,233628,5
109816,233644,4
109833,233729,5
109850,233697,5
109892,233738,5
109922,233772,4
109928,234112,5
109931,233775,5
109905,233758,5
109910,233751,5
109909,234101,4
109879,233735,5
109880,233707,5
109871,233704,5
109843,233813,5
109854,233706,4
109839,233699,5
109857,233714,5
109820,233673,5
109716,233542,4
109667,233505,4
109640,233473,6
109606,233426,3
109553,233360,5
109448,233236,4
109304,233076,5
109232,233008,5
109111,232881,5
109013,232754,5
108902,232706,4
108835,232571,5
108589,232279,5
108490,232220,5
108428,232155,5
108317,232052,4
108247,231989,5
108186,231900,5
108086,231794,5
108027,231765,5
107994,231750,4
107965,231684,5
107926,231668,5
107930,231653,6
107892,231606,3
107863,231597,4
107866,231581,5
107829,231554,5
107820,231527,5
107799,231525,4
107769,231475,5
107725,231429,5
107691,231398,5
107642,231329,5
107569,231247,4
107504,231212,5
107378,231004,5
107191,230799,5
107071,230673,5
106904,230471,4
106774,230332,5
106680,230258,5
106564,230111,5
106437,229995,5
106316,229874,5
106185,229752,4
106033,229579,5
105901,229466,5
105777,229365,6
105597,229215,3
105416,229006,5
105265,228880,5
105096,228718,5
104893,228522,4
104752,228400,4
104611,228240,5
104476,228123,5
104342,228000,5
104218,227867,4
104128,227805,5
104113,227786,5
104099,227801,5
104109,227831,5
104127,227849,4
104141,227871,5
104181,227923,5
104222,227997,5
104237,228028,5
104304,228123,7
104395,228241,3
104501,228382,4
104628,228581,5
104839,228840,5
105075,229163,6
105329,229477,3
105566,229793,5
105645,230113,5
106104,230483,5
106420,230893,4
106751,231302,5
106737,231659,5
107337,231996,5
107588,232289,4
107774,232511,4
107709,232952,5
108416,233307,5
108690,233579,5
108924,233869,4
109263,234164,5
109361,234345,5
109484,234498,5
109636,234648,5
110044,234703,4
109731,234797,5
109819,234873,6
109862,234902,4
110205,234951,5
109910,234983,4
109879,234956,5
109873,234938,5
109938,234910,5
109854,234916,5
109886,234959,4
109869,234962,5
109856,234806,5
109835,234892,5
109798,234856,4
109757,234794,4
109737,234462,5
109696,234727,5
109680,234724,5
109655,234704,4
109657,234305,5
109698,234721,5
109802,234848,5
109847,234925,5
109979,235079,4
110180,235255,5
110322,235396,5
110509,235609,6
110610,235978,4
110639,235662,4
110928,235922,5
110925,235929,5
110925,236283,5
110909,235886,5
110890,235845,4
110860,235796,5
110824,235886,5
110803,235714,5
110803,235701,5
110794,235681,4
110785,235664,5
110791,235642,5
110783,235614,5
110791,235602,4
110793,235595,4
110791,235586,5
110786,235547,5
110782,235550,5
110772,235548,5
110792,235529,4
110787,235541,5
110789,235525,5
110781,235528,6
110793,235555,3
110818,235583,5
110853,235615,5
110897,235662,5
110938,235716,5
110983,235730,4
111032,235790,5
111060,235769,5
111050,235755,5
111028,235716,5
110988,235644,4
110937,235581,5
110902,235512,5
110867,235464,5
110823,235377,5
110785,235335,4
110749,235272,5
110719,235230,5
110677,235173,5
110631,235094,4
110568,234990,5
110473,234849,4
110325,234618,5
110119,234320,5
109846,233926,4
109514,233444,5
109116,232882,5
108651,232247,5
108204,231616,5
107793,231080,4
107363,230469,5
106913,229862,5
106369,229155,5
105886,228486,5
105357,227780,4
104880,227152,5
104229,226361,5
103879,225804,5
103394,225140,5
103061,224707,4
102747,224243,5
102454,223826,5
102093,223336,5
101808,222971,4
101569,222621,4
101350,222347,6
101228,222195,4
101123,222024,5
101054,221944,4
100993,221870,5
100992,221864,5
101011,221889,5
101021,221902,5
101043,221941,4
101085,222010,5
101156,222093,5
101216,222183,5
101266,222256,5
101312,222308,4
101389,222416,5
101456,222515,5
101560,222676,5
101677,222856,5
101779,222984,4
101728,223131,5
101952,223237,5
102016,223289,5
102049,223307,5
101775,223324,4
102052,223307,5
102044,223307,6
102048,223311,4
101755,223312,4
102056,223359,4
102139,223490,5
102293,223712,5
102577,223927,5
102589,224151,4
102719,224340,5
102874,224545,5
103365,224795,5
103233,225046,5
103419,225318,4
103610,225587,5
104093,225892,5
104081,226244,5
104418,226707,5
104856,227314,4
105466,228021,5
105938,228705,5
106941,229953,5
107680,230739,5
108272,231378,4
108810,232079,5
109207,232575,5
109518,232912,6
109650,232697,4
109729,233115,4
110092,233452,5
110119,233421,5
110064,232998,5
110009,233293,4
109971,233234,5
109928,233180,4
109890,233170,5
109859,233093,5
109843,233068,4
109815,233035,5
109841,233393,5
109868,233102,5
109913,233141,5
110010,233255,4
110117,233726,5
110225,233476,5
110333,233567,5
110429,233651,5
110511,233834,5
110561,233748,4
110565,233749,5
110560,233725,5
110535,233687,5
110479,233597,4
110415,233523,5
110357,233446,5
110271,233390,5
110226,233316,5
110195,233287,4
110183,233257,5
110141,233230,5
110087,233158,5
110021,233065,4
109936,232963,4
109840,232844,5
109733,232733,5
109650,232607,5
109558,232523,4
109483,232441,5
109432,232377,5
109373,232320,5
109329,232289,5
109305,232253,4
109278,232226,6
109255,232185,4
109245,232188,5
109260,232191,5
109292,232261,4
109340,232344,5
109419,232480,5
109546,232676,5
109711,232941,5
109829,233135,4
109981,233387,5
110163,233664,5
110331,233979,5
110598,234391,4
110894,234831,4
111244,235279,5
111522,235675,5
111780,236007,5
111967,236324,4
112196,236611,5
112413,236922,5
112632,237243,5
112843,237581,5
112950,237759,4
113020,237914,5
113118,238012,6
113170,238142,4
113194,238214,5
113263,238344,4
113399,238524,5
113428,238525,5
113450,238553,5
113442,238561,5
113449,238552,4
113379,238486,5
113328,238416,5
113269,238359,5
113246,238333,5
113239,238339,4
113229,238325,5
113255,238361,5
113247,238362,5
113232,238355,4
113166,238329,4
113177,238371,5
113177,238419,5
113197,238455,5
113193,238491,4
113161,238464,5
113121,238433,5
113127,238478,5
113151,238478,5
113152,238478,4
113102,238486,5
113141,238595,5
113118,238608,5
112850,238659,5
113076,238768,4
113073,238899,5
113168,239094,5
112881,239137,5
113208,239159,5
113187,239191,4
113207,239296,5
112935,239434,5
113311,239562,5
113320,239598,5
113231,239520,4
113326,239504,4
113167,239465,5
113153,239490,5
113139,239483,5
113484,239503,3
113137,239503,5
113124,239514,5
113149,239563,5
113466,239611,4
113232,239652,5
113281,239686,5
113290,239712,5
113371,239706,5
113302,239722,4
113307,239727,5
113304,239716,5
113273,239552,5
113257,239674,5
113226,239647,4
113215,239680,5
113233,239424,5
113228,239756,5
113242,239783,5
113259,239811,4
113277,239495,6
113271,239858,4
113282,239858,5
113270,239848,4
113247,239914,6
113223,239837,3
113229,239873,5
113241,239893,5
113250,240224,4
113259,239903,5
113281,239936,5
113320,239971,5
113365,240379,5
113413,240085,4
113467,240142,5
113505,240175,5
113547,240321,5
113572,240232,5
113598,240259,4
113636,240296,5
113706,240364,5
113791,240465,5
113879,240550,5
113954,240619,4
114030,240716,5
114104,240776,6
114182,240856,4
114258,240925,5
114315,240990,4
114362,240989,5
114372,240980,5
114353,240932,5
114316,240872,4
114273,240818,4
114248,240799,5
114238,240752,5
114204,240715,5
114188,240690,4
114196,240693,5
114191,240678,5
114172,240627,5
114131,240595,5
114093,240533,4
114060,240495,5
114012,240459,5
113968,240406,5
113903,240325,5
113820,240234,4
113757,240165,5
113689,240083,5
113636,240023,6
113584,239964,4
113532,239903,4
113501,239863,5
113470,239813,5
113417,239763,5
113380,239724,5
113330,239684,4
113297,239655,5
113266,239630,5
113255,239628,5
113249,239651,4
113248,239657,4
113242,239672,5
113248,239728,5
113279,239802,5
113284,239867,4
113320,239999,5
113373,240127,5
113463,240260,5
113522,240393,5
113567,240481,5
113623,240597,4
113680,240674,5
113709,240733,5
113722,240779,6
113744,240841,3
113760,240900,5
113763,240921,5
113758,240933,5
113737,240923,5
113734,240936,4
113730,240949,5
113729,240960,5
113752,241014,5
113765,241040,4
113787,241067,4
113789,241065,5
113789,241068,5
113781,241088,5
113791,241085,4
113808,241105,4
113833,241126,5
113842,241149,5
113883,241192,5
113923,241239,4
113974,241295,6
113884,241385,4
114129,241462,5
114204,241532,5
114271,241617,4
114019,241693,5
114423,241779,5
114530,241885,5
114642,242020,5
114453,242151,4
114877,242280,5
114466,242400,5
114571,242459,5
114761,242501,5
114666,242524,4
114741,242576,5
114777,242590,5
115199,242599,5
114916,242640,4
115010,242721,4
115114,242795,5
115511,242841,5
115345,242973,5
115475,243065,4
115629,243219,5
115827,243272,6
115845,243348,4
115890,243335,5
115961,243351,4
116001,243165,5
116053,243297,5
116061,243259,5
116115,243295,5
116167,243005,4
116222,243326,5
116271,243322,5
116283,243301,5
116347,242935,5
116365,243292,4
116404,243274,5
116426,243296,5
116458,243322,5
116456,243177,4
116509,243190,4
116501,243160,5
116479,243440,5
116433,243000,5
116348,242874,4
116275,242767,5
116205,243068,5
116228,242733,6
116210,242709,4
116189,242681,4
116166,242764,5
116155,242633,5
116140,242619,5
116124,242605,5
116123,242605,4
116117,242578,5
116094,242570,5
116088,242544,5
116079,242556,5
116055,242521,4
116048,242512,5
116037,242503,5
116022,242485,5
115986,242441,5
115949,242384,4
115922,242324,5
115883,242289,5
115844,242214,5
115788,242148,5
115722,242044,4
115617,241913,5
115532,241808,5
115460,241698,6
115387,241629,3
115333,241529,5
115276,241470,5
115232,241389,5
115169,241300,5
115155,241286,4
115105,241232,5
115084,241174,5
115035,241110,5
115030,241090,5
114996,241022,4
114957,240947,5
114942,240935,5
114966,240931,5
114957,240904,5
114962,240927,4
114970,240883,5
114950,240837,5
114927,240835,5
114922,240825,5
114925,240811,5
114880,240761,4
114830,240677,5
114739,240558,5
114654,240467,4
114550,240317,5
114382,240037,5
114187,239800,5
114041,239558,5
113934,239444,4
113819,239223,5
113652,238992,5
113522,238793,5
113443,238617,5
113339,238442,4
113218,238252,5
113062,238029,5
112940,237852,5
112767,237619,5
112610,237393,4
112436,237176,5
112293,237020,5
112126,236764,5
112000,236614,5
111883,236401,4
111704,236184,6
111612,236037,4
111476,235858,5
111442,235809,4
111383,235734,4
111303,235662,5
111325,235665,5
111286,235638,5
111257,235622,4
111310,235738,5
111341,235778,5
111383,235828,5
111376,235882,5
111216,235961,4
111416,236016,5
111433,236065,5
111542,236181,5
111199,236206,5
111480,236171,4
111486,236198,5
111464,236196,5
111101,236107,5
111345,236107,5
111291,236069,4
111280,236062,5
111471,236050,6
111315,236071,4
111343,236061,4
111351,236058,4
111784,236060,5
111489,236186,5
111526,236131,5
111540,236170,4
111868,236204,5
111625,236225,5
111706,236329,5
111847,236460,5
112067,236559,4
112100,236685,5
112253,236822,5
112380,236961,5
112499,236890,5
112633,237270,4
112625,237306,5
112722,237448,5
112856,237238,5
113010,237841,5
113144,238015,4
113311,238245,4
113526,238064,5
113740,238755,5
113954,239057,5
114175,239348,4
114386,239714,5
114586,239839,5
114774,240024,5
114962,240231,4
115155,240930,4
115334,240647,5
115453,240799,5
115596,240955,5
115755,241580,4
115903,241331,5
115992,241466,5
116077,241592,5
116154,241854,5
116252,241834,4
116368,241999,5
116517,242195,5
116678,242420,5
116851,242673,5
117049,242905,6
117295,243163,3
117564,243459,5
117796,243670,5
118005,243929,5
118240,244169,4
118491,244466,5
118775,244810,5
119049,245090,5
119280,245324,5
119540,245601,4
119808,245866,5
120067,245523,5
120317,245773,5
120589,246022,4
120815,246249,4
121140,246563,5
121491,246914,5
121839,247212,5
122160,247515,4
122543,247864,5
122863,248118,5
123176,248404,5
123588,248714,5
123896,248902,4
124128,249034,6
124422,249246,4
124791,249454,5
125198,249728,5
125685,250037,4
126204,250365,5
126631,250599,5
127102,250856,5
127576,251139,5
128041,251481,4
128522,251678,5
128900,251909,5
129176,251990,5
129526,252226,4
129741,252331,4
130027,252558,5
130185,252701,5
130350,252806,5
130380,252835,4
130353,252897,5
130307,252926,5
130236,252939,6
130116,252965,4
130078,253046,4
130076,253186,5
130044,253308,5
130096,253482,5
130128,253619,5
130182,253768,4
130287,253961,5
130512,254275,5
130741,254599,5
130858,254825,5
130937,255012,4
131010,255197,5
131079,255322,5
130393,255457,5
130465,255578,5
130518,255713,4
130592,255851,5
130687,256048,5
130716,256166,5
130759,256362,5
130946,256639,4
131094,256854,5
131205,257006,5
131278,257121,6
131349,257248,3
131387,257321,5
131439,257392,5
131040,257480,5
131467,257498,5
131422,257487,4
131410,257495,5
130695,257568,5
131429,257591,5
131425,257626,5
131435,257668,4
130850,257695,5
131419,257720,5
131439,257763,5
131453,257806,5
131813,257827,4
131450,257854,5
131447,257918,5
131480,258023,5
132316,258132,4
131556,258258,5
131634,258423,4
131753,258623,5
132444,258869,5
132091,259239,6
132352,259647,3
132596,260038,5
132986,260485,5
133124,260898,5
133347,261289,4
133525,261596,5
133671,261516,5
133790,262108,5
133894,262143,5
134009,261901,4
134050,261384,5
134137,262143,5
134169,262143,5
134213,262143,5
134230,261785,4
134223,262143,5
134231,262143,5
134212,262143,5
134214,262143,4
134214,262143,4
134280,262143,6
134374,262143,4
134440,262143,5
134548,262143,4
134702,262143,4
134876,262143,5
135034,262143,5
135078,262143,5
135096,262143,4
135141,262143,5
135193,262143,5
135355,262143,5
135602,262143,5
135945,262143,4
136327,262143,5
136558,262143,5
136564,262143,5
136763,262143,5
136919,262143,4
137014,262143,5
137089,262143,5
137127,262143,5
137137,262143,5
137151,262143,4
137154,262143,5
137186,262143,6
137218,262143,4
137231,262143,4
137210,262143,4
137188,262143,5
137162,262143,5
137133,262143,5
137073,262143,4
137089,262143,5
137094,262143,5
137056,262143,5
137010,262143,5
136950,262143,4
136946,262143,5
136914,262143,5
136925,262143,5
137101,262143,5
137296,262143,4
137449,262143,5
137606,262143,5
137842,262143,5
138103,262143,5
138164,262143,4
138327,262143,5
138396,262143,5
138683,262143,6
138595,262143,3
138450,262143,4
137847,262143,5
136924,262143,5
135672,262143,5
133949,260429,4
131893,256190,5
129471,251287,5
126609,244967,5
123755,239632,5
120609,231417,4
117686,225068,5
114882,219281,5
111472,212834,5
108368,206453,5
105010,199176,4
100647,190058,5
96159,181278,5
92143,173690,5
88858,167785,5
86384,162756,5
84819,158777,4
81157,151272,5
78863,144968,5
77051,142047,6
75082,137908,3
72405,132241,5
70027,127462,5
67656,124190,5
66378,120444,4
64633,116782,4
63899,113913,5
62784,111596,5
62077,110411,5
62464,110473,4
63502,110726,5
64097,110693,5
65689,113400,5
67784,116373,5
70261,118960,4
74087,123357,5
79493,129934,5
83183,135192,5
86363,138560,5
89960,141819,4
93177,144478,6
94691,146509,4
95694,147426,5
97096,148182,5
98792,148092,4
99923,149125,5
101919,149691,5
103892,147940,5
105573,149713,4
106072,148506,4
107762,148665,5
108799,146774,5
109405,146571,5
110980,146831,4
113120,146652,5
114213,144926,5
112836,140511,5
111578,139134,5
111845,138288,4
110532,136156,5
110306,135278,5
117273,138556,5
117355,137182,5
116424,135304,4
114133,130802,8
110454,126291,3
106623,120992,4
100261,112785,5
96968,110783,4
94407,108369,5
91106,105138,5
87679,100741,5
85404,100399,5
83202,98412,5
81159,97062,4
80407,97096,5
78936,95562,5
77498,94721,4
76280,94073,4
74549,94810,5
72608,91893,5
70641,90420,5
68291,88795,4
66952,90400,5
65654,88158,5
64470,87652,5
64784,88425,5
64356,89303,4
63949,89206,5
63225,89159,5
62389,89480,6
61624,89799,4
60861,90157,4
60398,90622,5
59903,91109,5
59554,91460,5
59054,91991,5
58829,92666,4
58540,93389,5
58643,93760,5
58481,94462,5
58487,95065,4
58436,95740,4
58424,96427,5
58342,97269,5
58253,98131,5
58280,99209,4
58318,100557,5
58523,101657,5
58635,103024,5
58727,104324,5
59044,105703,5
59417,107044,4
59815,108335,5
60203,109614,5
60588,110861,5
61021,112191,4
61515,113647,5
62075,115059,5
62584,115856,5
63066,117084,5
63641,118386,4
64196,119605,5
64684,120710,5
65179,121757,5
65664,122802,5
66094,123954,4
66364,124871,5
66784,125879,5
67233,126940,5
67699,127996,4
68165,129038,4
68611,130038,5
69140,131145,5
69698,131633,5
70310,132841,4
70946,134157,6
71672,135645,4
72495,137179,5
73266,138794,5
74112,140526,4
75002,142217,5
75962,143848,5
76789,145363,5
77653,147023,5
78207,148380,4
78700,148629,5
79208,149490,5
79620,150099,5
80013,150606,5
80275,150966,4
80538,151225,5
80715,151457,5
81041,151860,5
81328,152353,4
81685,152982,4
82046,153647,5
81766,154315,5
82206,155206,5
82643,156065,4
83104,157012,5
83854,158174,6
84496,159372,4
85192,160648,5
85868,161960,4
86597,163425,5
87346,164893,5
88063,165488,5
87899,166618,5
89359,167556,4
89859,168413,5
90306,168979,5
89192,169555,5
91019,170012,5
91353,170393,4
91559,170552,5
90450,170552,5
91791,170502,5
91872,170478,5
92002,170472,4
92811,170518,5
92543,170732,5
92846,170936,6
93075,171046,3
94996,171307,5
93715,171506,5
93904,171584,5
94045,171680,5
95325,171682,4
94312,171771,5
94404,171846,5
94530,171903,5
94909,171922,5
94500,171711,4
94349,171279,5
94204,170628,5
93684,169212,5
93313,169147,5
93018,168617,4
92706,167867,5
92428,165738,5
92168,166510,5
91880,165919,5
91741,165530,4
91478,163263,5
91227,164468,5
91051,164096,5
90913,163814,5
90749,163664,4
90494,162820,5
90347,162350,5
90266,162030,5
90220,163427,4
90139,161428,5
90121,161241,5
90233,161323,5
90305,162891,5
90277,161410,4
90408,161470,5
90605,161612,5
90710,162159,5
90882,161693,5
90951,161602,4
91006,161496,5
91142,161535,5
91202,161560,5
91110,161332,5
90944,161025,4
90859,160894,6
90782,160705,4
90716,160555,5
90676,160309,5
90558,160101,6
90441,159928,3
90377,159764,5
90196,159649,5
90027,159357,4
89840,159295,4
89765,159173,5
89671,159203,5
89488,159014,5
89365,158734,4
89100,158378,5
88924,158154,5
88749,157970,5
88622,157823,5
88547,157733,4
88459,157673,5
88409,157583,5
88375,157609,5
88315,157560,5
88269,157454,4
88130,157201,5
87991,157059,6
87822,156935,4
87721,156794,5
87632,156727,4
87556,156554,5
87454,156452,5
87428,156389,5
87345,156388,4
87330,156307,4
87233,156244,5
87227,156287,5
87224,156322,5
87176,156342,4
87204,156430,5
87163,156388,5
87121,156390,5
87111,156438,5
87110,156572,4
87130,156688,5
87089,156822,5
87100,157008,5
87079,157164,5
87199,157463,4
87328,157816,5
87521,158178,5
87663,158557,6
87777,158895,4
87884,159266,4
88010,159598,5
88058,159883,5
88191,160413,5
88359,160739,4
88550,161113,4
88682,161411,5
88824,161791,5
88981,162090,5
89106,162431,4
89234,162686,5
89431,163069,5
89659,163453,5
89907,163855,5
90116,164191,4
90337,164589,5
90541,164939,5
90736,165256,5
90931,165641,5
91073,165946,5
91262,166233,4
90504,166459,5
91520,166716,5
91638,166936,6
91769,167125,3
90429,167324,5
92009,167551,5
92173,167847,5
92293,168045,5
91265,168214,4
92498,168409,5
92596,168563,5
92680,168664,5
93441,168818,4
92831,168940,4
92908,169025,5
92943,169098,5
94505,169174,5
93044,169288,4
93100,169344,5
93149,169379,5
94196,169402,5
93153,169448,5
93169,169489,4
93203,169520,6
93500,169570,4
93227,169639,5
93254,169707,5
93261,169732,4
93226,169047,5
93186,169705,5
93140,169658,5
93060,169517,5
92953,168060,4
92863,169300,5
92821,169211,5
92771,169140,5
92659,167485,4
92521,168831,4
92428,168687,5
92336,168539,5
92180,168809,5
92055,168229,4
91937,167994,5
91775,167792,5
91644,169129,5
91585,167510,5
91432,167302,4
91282,167118,5
91149,168254,6
91067,166843,4
90947,166723,5
90868,166625,4
90806,166956,5
90745,166499,5
90696,166431,5
90647,166374,5
90616,166360,4
90567,166323,5
90554,166316,5
90518,166316,5
90504,166302,5
90484,166293,4
90465,166300,5
90478,166303,5
90492,166304,5
90494,166319,4
90491,166315,4
90491,166318,5
90485,166309,5
90497,166311,5
90481,166307,4
90475,166302,5
90471,166281,5
90449,166240,6
90432,166223,4
90417,166204,4
90405,166167,5
90366,166116,5
90347,166076,5
90330,166045,5
90309,165988,4
90292,165952,5
90285,165913,5
90254,165854,5
90227,165809,5
90201,165754,4
90167,165697,5
90139,165631,5
90118,165593,5
90093,165561,4
90087,165529,4
90072,165510,5
90047,165501,5
90030,165473,5
90008,165451,5
89987,165426,4
89960,165392,5
89935,165364,5
89902,165332,6
89878,165299,3
89854,165278,5
89839,165260,5
89819,165256,5
89806,165227,5
89790,165190,4
89776,165165,5
89760,165129,5
89740,165102,5
89715,165079,5
89692,165058,4
89675,165027,5
89653,165011,5
89647,164997,5
89621,164988,5
89623,164990,4
89608,164975,5
89612,164989,5
89602,164984,5
89609,164984,4
89611,165000,5
89606,165009,4
89608,165016,5
89606,165027,5
89603,165028,4
89601,165035,5
89593,165039,5
89603,165050,5
89606,165088,5
89631,165121,4
89649,165144,5
89669,165187,5
89685,165219,5
89677,165234,5
88750,165290,4
89731,165352,5
89774,165410,5
89813,165476,5
88386,165531,5
89886,165578,4
89898,165608,5
89909,165634,5
89021,165685,5
89953,165729,4
89989,165815,4
90039,165916,6
90869,165978,4
90053,165968,5
90044,166034,4
90086,166052,5
91618,166069,5
89894,165967,5
89912,166003,5
89822,165953,4
90760,165992,5
89766,166012,5
89762,166058,5
89741,166099,5
89975,166120,4
89715,166163,5
89692,166188,5
89683,166226,5
89654,165493,5
89649,166309,4
89647,166305,5
89614,166311,5
89607,164970,5
89610,166394,5
89600,166424,4
89605,166460,5
89601,165093,6
89606,166488,4
89591,166494,5
89585,166499,4
89555,167033,5
89528,166459,5
89511,166452,5
89470,166422,4
89430,167920,5
89398,166382,5
89382,166376,5
89371,166367,5
89337,167563,5
89335,166347,4
89330,166355,5
89309,166355,5
89315,166726,5
89263,166360,4
89262,166359,5
89268,166366,5
89273,166361,5
89248,166338,5
89244,166380,4
89215,166366,5
89155,166318,5
89109,166312,5
89103,166295,4
89088,166305,4
89074,166353,5
89092,166351,5
89102,166372,5
89102,166378,4
89105,166404,5
89110,166416,5
89135,166446,5
89129,166459,5
89131,166494,4
89128,166492,5
89105,166478,5
89088,166429,5
89031,166368,5
89027,166361,4
88987,166321,5
88981,166371,5
88965,166364,5
88952,166337,5
88958,166371,5
88961,166375,4
88965,166380,5
88958,166386,5
88937,166381,4
88933,166370,4
88918,166368,5
88906,166378,5
88898,166373,5
88876,166351,4
88859,166337,5
88766,166134,5
88721,166205,5
88721,166226,5
88690,166195,4
88696,166224,5
88694,166212,5
88669,166211,5
88666,166198,5
88657,166210,4
88691,166240,5
88702,166264,5
88707,166261,5
88682,166261,5
88685,166234,4
88685,166268,6
88688,166277,4
88702,166283,5
88700,166282,5
88708,166312,4
88716,166313,5
88749,166344,5
88723,166337,5
88709,166321,4
88702,166324,4
88744,166367,5
88771,166389,5
88797,166437,5
88842,166464,4
88860,166505,5
88878,166526,5
88916,166579,5
88955,166624,5
88972,166668,4
88975,166680,5
88996,166723,5
89016,166743,5
89022,166782,4
89053,166805,4
89053,166826,5
89060,166841,5
88113,166855,5
89067,166875,5
89069,166870,4
89062,166891,5
87603,166879,5
89054,166888,5
89045,166882,4
89045,166888,4
88125,166873,5
89035,166871,5
89045,166876,5
89049,166890,4
89857,166892,5
89047,166896,5
89048,166911,5
89042,166900,5
90609,166898,5
89048,166912,4
89058,166925,5
89069,166948,5
90044,166984,6
89130,167029,3
89171,167103,5
89215,167162,5
89491,167221,5
89306,167293,5
89334,167352,4
89361,167362,5
89406,166629,5
89450,167490,5
89496,167552,5
89536,167596,4
89582,166250,5
89625,167706,5
89629,167716,5
89632,167725,4
89628,166400,4
89637,167733,5
89621,167731,5
89611,167751,5
89599,168342,4
89579,167717,6
89568,167707,4
89556,167679,5
89569,169215,5
89556,167663,6
89560,167644,3
89542,167624,5
89516,168777,5
89519,167591,5
89499,167595,4
89492,167581,5
89470,167927,5
89467,167589,5
89461,167578,5
89466,167579,4
89462,167587,5
89458,167584,5
89459,167591,5
89464,167592,4
89475,167600,4
89473,167597,5
89476,167614,5
89494,167629,5
89510,167664,4
89514,167666,5
89501,167660,6
89487,167659,4
89490,167662,5
89490,167660,4
89476,167657,5
89458,167654,5
89463,167663,5
89450,167650,5
89445,167652,4
89429,167650,5
89417,167659,5
89412,167670,5
89413,167683,5
89387,167703,4
89344,167688,5
89373,167734,5
89348,167770,5
89350,167782,5
89324,167794,4
89289,167812,5
89282,167865,5
89289,167920,5
89261,167961,4
89268,168019,4
89278,168057,5
89171,167951,6
89040,167850,4
88932,167763,4
88836,167671,5
88670,167468,5
88575,167362,5
88454,167227,5
88385,167171,4
88336,167105,5
88221,166987,5
88142,166925,5
88064,166868,5
88012,166775,4
87952,166740,5
87922,166731,5
87900,166726,5
87877,166720,5
87854,166734,4
87847,166730,5
87853,166746,5
87877,166788,5
87907,166854,5
87936,166914,4
87966,166998,5
88039,167080,5
88061,167139,6
88102,167195,3
88125,167229,4
88147,167270,5
88185,167310,5
88223,167352,5
88279,167406,4
88298,167432,5
88305,167438,5
88318,167424,5
88336,167441,5
88351,167446,4
88359,167428,5
88342,167414,5
88326,167379,5
88320,167367,5
88307,167346,4
87458,167330,5
88286,167311,5
88274,167299,5
88266,167266,5
86830,167213,5
88254,167213,4
88245,167169,5
88237,167139,5
87027,167064,6
88218,167023,3
88202,166956,5
88181,166871,5
88828,166858,5
88145,166740,4
88108,166652,5
88070,166565,5
89561,166471,5
87983,166349,5
87957,166255,4
87925,166152,5
88976,166030,5
87782,165899,5
87741,165818,5
87706,165736,4
87977,165606,5
87595,165465,5
87562,165339,5
87522,165226,5
87434,164381,4
87319,164884,6
87208,164702,4
87077,164485,5
86956,162913,5
86902,164207,4
86900,164135,5
86846,164052,5
86830,162285,5
86793,163818,4
86764,163705,5
86738,163594,4
86691,163761,5
86689,163400,5
86649,163313,4
86617,163256,5
86600,164688,5
86596,163079,5
86588,163023,5
86603,163017,4
86621,164566,5
86652,162968,5
86656,162935,5
86662,162899,5
86680,163479,4
86706,162918,5
86730,162906,6
86744,162920,4
86756,162978,5
86780,162946,4
86778,162922,5
86771,162906,5
86753,162897,5
86765,162864,5
86752,162820,4
86753,162795,5
86746,162741,5
86747,162687,5
86744,162625,4
86743,162560,4
86706,162482,5
86676,162424,5
86650,162340,5
86619,162281,4
86612,162237,5
86587,162207,5
86572,162142,5
86536,162060,5
86490,161989,4
86471,161937,5
86427,161885,5
86373,161809,6
86337,161755,4
86323,161742,4
86285,161649,5
86244,161584,5
86206,161529,5
86174,161439,5
86133,161376,4
86092,161335,5
86060,161295,5
86019,161224,5
85982,161193,5
85971,161162,4
85920,161057,5
85865,160997,5
85821,160932,5
85800,160895,4
85769,160870,4
85752,160833,5
85738,160820,5
85724,160797,5
85716,160795,5
85718,160805,4
85720,160805,5
85719,160786,5
85724,160795,5
85714,160798,4
85721,160808,5
85734,160839,5
85743,160858,5
85755,160891,5
85751,160910,4
85764,160927,5
85760,160963,5
85767,160968,5
85770,160989,5
85771,161008,4
85791,161034,5
85807,161062,5
85820,161089,5
85862,161156,4
85882,161206,4
85904,161269,5
85941,161360,5
85982,161448,5
86018,161516,4
86058,161617,5
86101,161732,4
86183,161897,5
86240,162061,5
86330,162243,4
86396,162383,5
86460,162546,5
86553,162744,5
86119,162997,5
86790,163258,4
86899,163475,5
87034,163729,5
85818,163959,5
87290,164226,5
87438,164460,4
87570,164731,5
86131,165091,5
87937,165431,5
88120,165717,5
88268,166019,4
88439,166340,5
88615,166609,5
88799,166861,5
88971,167140,4
90430,167424,4
89316,167722,6
89488,168007,4
89666,168258,5
91435,168514,4
89943,168746,5
90041,168963,5
90053,169023,5
90717,169144,5
90174,169255,4
90224,169388,5
90282,169481,5
90410,169372,5
90373,169655,5
90407,169745,4
90451,169810,5
90506,168788,5
90519,169962,5
90531,169996,5
90538,170044,4
90555,168544,5
90577,170122,5
90589,170157,6
90592,170168,4
90607,169714,4
90610,170237,5
90628,170268,5
90655,170318,5
90688,171442,4
90727,170435,4
90768,170480,5
90812,170522,5
90824,172243,5
90841,170594,4
90865,170632,5
90887,170672,5
90902,171569,5
90931,170731,5
90939,170800,4
90948,170836,5
90985,171060,5
90996,170871,5
90987,170879,5
90994,170895,4
90993,170891,5
90992,170899,5
90992,170900,5
90990,170898,5
90971,170884,4
90956,170874,5
90964,170876,8
90951,170880,2
90942,170891,5
90928,170882,4
90953,170884,5
90943,170897,5
90947,170918,5
90954,170946,4
90960,170958,4
90976,170961,5
90984,170984,5
90994,170988,5
90999,170993,4
90995,170992,5
90990,170994,5
90992,170982,5
90995,170994,5
90993,171003,4
90996,171002,5
90982,171003,4
90980,171005,5
90974,170990,5
90973,170992,6
90960,170999,3
90962,170999,5
90963,171014,5
90972,171029,5
90969,171025,4
90962,171015,5
90947,171024,5
90956,171019,5
90950,171020,5
90958,171031,4
90951,171036,5
90949,171035,5
90954,171033,5
90950,171037,4
90946,171016,4
90936,171012,5
90943,171015,5
90922,170991,5
90902,170986,4
90875,170965,5
90880,170951,6
90872,170953,4
90866,170941,5
90851,170940,4
90849,170927,7
90837,170922,3
90834,170913,5
90824,170910,5
90818,170892,4
90803,170885,5
90791,170868,5
90759,170853,5
90611,170645,5
90594,170624,4
90578,170606,5
90555,170544,5
90460,170437,5
90343,170304,4
90294,170226,4
90246,170145,5
90187,170062,5
90128,169987,5
90069,169912,4
90005,169821,5
89834,169737,5
89875,169641,6
89833,169578,4
89789,169512,4
88764,169461,5
89736,169455,5
89736,169427,5
89721,169417,5
88265,169395,4
89689,169384,5
89681,169370,5
89671,169327,5
88979,169294,5
89608,169255,4
89605,169275,5
89623,169307,5
90540,169326,5
89610,169330,5
89609,169318,4
89608,169330,5
91186,169341,5
89630,169360,5
89645,169374,5
89659,169383,4
90526,169418,5
89671,169439,5
89699,169488,6
89715,169534,3
89946,169581,5
89784,169650,5
89816,169724,5
89853,169800,5
89897,169052,4
89931,169942,5
89942,169937,5
89939,169929,5
89932,168569,5
89958,169941,4
89956,169947,5
89939,169931,5
89935,168747,5
89925,169886,5
89916,169873,5
89900,169845,4
89863,170436,5
89870,169790,5
89857,169768,5
89853,169767,5
89837,171253,4
89821,169722,5
89822,169696,5
89807,169693,6
89803,170817,3
89795,169654,5
89802,169641,5
89795,169634,5
89782,169953,4
89769,169616,5
89780,169608,5
89773,169622,5
89762,169627,5
89754,169608,4
89743,169587,5
89740,169595,5
89728,169601,5
89729,169605,5
89732,169612,4
89728,169604,5
89721,169596,5
89693,169570,5
89675,169541,5
89668,169535,4
89648,169503,6
89621,169467,4
89603,169439,5
89608,169473,4
89691,169579,4
89758,169667,5
89760,169673,5
89732,169645,5
89720,169622,4
89664,169510,5
89626,169511,5
89588,169437,5
89527,169367,5
89503,169335,4
89484,169295,5
89456,169254,5
89415,169190,5
89388,169183,5
89359,169165,4
89318,169120,5
89288,169088,5
89262,169057,5
89235,169033,5
89231,169027,4
89211,169031,5
89206,169024,6
89200,169026,4
89192,169005,5
89187,168994,4
89179,169001,5
89177,168992,5
89171,168988,5
89159,168974,4
89145,168972,4
89140,168949,5
89138,168944,5
89125,168928,5
89115,168923,4
89119,168932,5
89103,168896,5
89097,168895,5
89099,168904,5
89102,168889,4
89110,168903,5
89104,168891,5
89118,168908,5
89102,168903,5
89106,168903,4
89115,168911,5
89106,168904,5
89104,168892,6
89086,168894,4
89105,168893,4
89094,168893,5
89092,168906,5
89086,168896,5
89082,168905,5
89089,168913,4
89084,168928,5
89084,168926,5
89081,168941,5
89079,168946,4
89081,168949,4
89090,168969,5
89082,168972,5
88298,168982,5
89091,168994,4
89089,169002,5
89098,169008,5
87733,169005,5
89089,169019,5
89095,169016,5
89087,169007,4
87741,168938,5
88938,168793,5
88811,168631,5
88693,168507,4
89168,168440,5
88488,168277,5
88353,168111,5
88167,167931,5
89516,167758,4
87851,167603,5
87698,167483,5
87575,167350,5
88664,167249,5
87324,167155,4
87220,167060,5
87136,166986,5
87416,166940,5
86976,166843,4
86890,166762,4
86823,166660,5
86783,166059,5
86795,166622,5
86716,166541,4
86645,166443,6
86608,165048,4
86557,166326,5
86525,166268,5
86483,166236,4
86447,164606,5
86413,166195,5
86381,166189,5
86352,166180,5
86306,166274,4
86250,166122,5
86204,166086,5
86173,166071,5
86143,167483,5
86089,166035,4
86068,166023,5
86025,166009,5
86040,167654,5
86033,166042,4
86026,166060,4
86030,166085,5
86042,166699,5
86060,166163,5
86104,166234,4
86160,166334,5
86233,166513,6
86321,166594,4
86414,166760,5
86517,166917,4
86635,167053,5
86747,167211,5
86849,167383,5
86949,167530,5
87042,167698,4
87112,167806,5
87183,167926,5
87226,168011,5
87265,168070,5
87286,168125,4
87308,168177,5
87334,168213,5
87344,168252,5
87354,168262,5
87359,168295,4
87356,168300,5
87354,168307,5
87348,168329,5
87341,168330,4
87330,168334,4
87314,168334,5
87291,168311,6
87271,168296,4
87306,168328,4
87252,168280,5
87260,168283,5
87289,168341,5
87294,168355,5
87284,168336,4
87283,168340,5
87270,168330,5
87274,168330,5
87274,168303,5
87250,168276,4
87248,168258,5
87232,168233,5
87188,168202,5
87147,168163,5
87117,168129,4
87091,168102,5
87075,168085,5
87069,168087,5
87064,168089,5
87081,168115,4
87077,168110,5
87093,168131,5
87109,168168,5
87122,168179,4
87137,168212,4
87156,168258,5
87184,168313,5
87224,168354,5
87251,168397,4
87273,168432,5
87304,168479,5
87341,168503,5
87364,168554,5
87403,168578,4
87454,168653,5
87497,168723,5
87525,168777,5
87564,168821,5
87608,168878,4
87638,168922,5
87680,168957,5
87715,168986,5
87723,168994,5
87723,168992,5
87731,169014,4
87736,169030,5
87740,169035,5
87758,169058,5
87765,169069,4
87271,169095,5
87803,169142,5
87811,169171,5
87822,169182,4
86551,169197,5
87821,169211,5
87823,169217,5
87827,169208,5
86264,169213,4
87833,169213,5
87841,169235,5
87853,169248,5
87855,169284,5
87896,169328,4
87918,169341,5
87929,169364,5
89211,169376,5
87944,169382,5
87939,169384,4
87926,169362,6
89545,169387,4
87938,169395,5
87951,169409,5
87964,169400,4
88589,169440,5
88014,169482,5
88023,169517,5
88050,169548,4
88165,169398,4
88098,169615,5
88115,169644,5
88131,169676,5
88142,168632,4
88158,169725,5
88161,169749,5
88170,169774,5
88180,168270,5
88199,169815,4
88213,169820,5
88203,169841,5
88210,169183,6
88205,169829,4
88211,169816,4
88216,169825,5
88213,170808,5
88214,169825,5
88211,169826,5
88211,169822,4
88198,171464,5
88183,169768,5
88155,169742,5
88145,169737,5
88144,170677,4
88144,169731,5
88156,169755,5
88178,169777,5
88195,170047,4
88221,169859,4
88252,169904,5
88300,169984,5
88340,170033,5
88368,170068,5
88398,170119,4
88420,170163,5
88439,170160,5
88436,170174,6
88438,170185,3
88442,170181,5
88440,170185,5
88429,170171,5
88412,170157,5
88407,170124,4
88389,170101,5
88356,170066,5
88342,170050,5
88330,170030,5
88311,169996,4
88280,169953,5
88247,169901,5
88217,169857,5
88188,169841,4
88183,169819,5
88189,169808,4
88171,169793,5
88160,169776,5
88163,169772,4
88162,169757,6
88155,169777,4
88161,169762,5
88158,169766,5
88159,169779,6
88173,169771,3
88167,169788,5
88184,169797,5
88187,169791,5
88153,169749,4
88127,169716,5
88154,169758,5
88152,169730,5
88151,169750,5
88145,169728,4
88156,169741,5
88167,169737,5
88174,169746,5
88167,169747,5
88170,169758,4
88185,169760,5
88185,169761,5
88176,169759,5
88176,169753,4
88175,169746,4
88161,169720,6
88140,169708,4
88136,169686,5
88120,169688,4
88117,169673,5
88101,169666,5
88098,169656,5
88096,169650,5
88078,169639,4
88071,169640,5
88064,169628,5
88063,169618,5
88055,169597,5
88039,169577,4
88036,169578,5
88029,169554,5
88006,169533,5
88014,169530,5
88001,169523,4
87996,169501,5
87988,169490,5
87985,169479,5
87679,169445,4
87969,169463,4
87943,169426,5
87951,169409,6
86769,169376,4
87908,169366,4
87916,169389,5
87916,169371,5
86394,169386,5
87925,169382,5
87926,169397,4
87935,169387,5
87593,169395,5
87929,169398,5
87935,169395,5
87934,169393,4
89036,169387,5
87937,169401,5
87938,169408,5
87945,169400,5
89551,169403,4
87946,169407,5
87941,169403,5
87947,169400,5
88672,169389,5
87944,169391,4
87943,169391,5
87950,169393,5
88074,169368,6
87946,169394,3
87942,169387,5
87943,169379,5
87939,168373,5
87926,169357,5
87913,169364,4
87958,169408,5
87946,167905,5
87945,169393,5
87944,169394,5
87951,169429,4
87959,168693,5
87968,169459,5
87945,169425,5
87956,169428,5
87951,170343,4
87960,169451,5
87958,169448,5
87966,169460,5
87960,171056,5
87965,169456,5
87971,169450,4
87962,169448,5
87973,170362,5
87980,169467,4
87988,169463,5
87996,169485,5
88000,169686,5
88004,169475,5
88007,169484,4
88003,169457,5
88003,169459,5
87989,169448,5
87979,169440,5
87968,169418,4
87970,169417,5
87973,169395,5
87938,169376,5
87927,169349,5
87911,169333,4
87901,169308,5
87895,169287,5
87884,169282,5
87882,169262,5
87877,169243,4
87867,169234,6
87879,169250,4
87884,169257,5
87880,169257,4
87880,169280,4
87881,169262,5
87860,169265,5
87851,169255,5
87869,169272,4
87880,169296,5
87869,169272,5
87854,169262,5
87857,169270,5
87864,169285,4
87858,169285,5
87871,169293,5
87869,169298,5
87863,169301,5
87870,169290,4
87868,169295,5
87859,169281,5
87848,169275,5
87848,169278,5
87829,169261,4
87824,169259,5
87830,169250,6
87823,169234,4
87820,169228,5
87823,169238,4
87821,169238,5
87830,169238,5
87829,169236,5
87825,169238,4
87818,169242,4
87811,169231,5
87823,169233,5
87816,169233,5
87814,169229,4
87821,169244,5
87830,169253,5
87831,169231,5
87839,169255,5
87848,169260,4
87848,169265,5
87854,169276,5
87862,169261,5
87852,169286,5
87864,169300,4
87870,169310,5
87875,169316,5
87898,169340,6
87902,169356,4
87909,169383,4
87924,169388,5
87914,169390,5
87912,169390,5
87921,169392,5
87925,169393,4
87919,169393,5
87919,169398,5
87928,169384,5
87921,169398,4
87918,169396,4
87118,169405,5
87947,169422,5
87956,169437,5
87973,169460,4
86593,169473,5
88000,169479,5
88004,169506,5
88020,169515,5
86722,169504,5
88014,169490,4
88007,169496,5
88019,169492,5
88565,169503,5
88024,169513,4
88023,169500,5
88018,169499,5
89492,169505,5
88020,169519,5
88034,169531,4
88039,169546,5
89212,169558,5
88059,169583,5
88085,169613,5
88091,169625,4
88468,169640,5
88132,169689,5
88146,169701,5
88156,169711,4
88179,169189,4
88178,169731,5
88185,169741,5
88170,169747,5
88183,168491,4
88182,169747,6
88187,169764,4
88199,169769,5
88214,168246,5
88224,169801,4
88240,169823,5
88249,169856,5
88272,169972,5
88289,169916,5
88311,169929,4
88331,169953,5
88341,171305,5
88363,170001,5
88380,170028,5
88395,170042,4
88400,171629,5
88407,170085,5
88431,170105,5
88430,170084,5
88437,170669,4
88437,170099,5
88447,170105,5
88439,170114,5
88453,170191,4
88465,170148,4
88463,170154,7
88485,170171,3
88489,170202,5
88495,170189,4
88511,170207,5
88520,170222,5
88523,170237,5
88532,170243,5
88529,170262,4
88537,170257,5
88537,170267,5
88540,170249,5
88539,170263,5
88535,170259,4
88532,170250,5
88534,170270,5
88544,170262,5
88538,170270,5
88543,170282,4
88559,170288,5
88561,170307,5
88567,170311,5
88577,170322,4
88566,170320,4
88572,170322,5
88578,170305,5
88571,170321,5
88582,170327,4
88587,170322,5
88596,170335,5
88610,170336,5
88608,170342,5
88622,170362,4
88638,170382,5
88647,170401,5
88669,170417,5
88682,170445,5
88699,170459,4
88705,170470,5
88715,170486,5
88730,170492,5
88737,170493,5
88736,170489,4
88742,170500,5
88739,170507,5
88760,170527,5
88774,170524,5
88784,170541,3
88779,170544,5
88798,170543,5
88802,170552,5
88803,170566,4
88803,170577,4
88811,170577,5
88814,170570,5
88824,170591,5
88828,170599,4
88817,170591,5
88828,170602,5
88826,170607,5
88807,170574,5
88793,170570,4
88792,170556,5
88810,170563,5
88791,170548,5
88775,170536,5
88779,170529,4
88774,170517,6
88764,170510,4
88770,170521,5
88759,170495,5
88756,170502,6
88760,170502,3
88756,170494,5
88760,170496,5
88304,170493,5
88749,170484,4
88744,170477,5
88748,170490,5
87542,170479,5
88734,170474,4
88742,170470,4
88746,170491,5
87235,170491,5
88740,170488,5
88752,170491,4
88744,170484,5
88643,170494,5
88735,170486,5
88736,170488,5
88731,170491,4
89931,170491,5
88747,170480,6
88734,170490,4
88744,170494,5
90314,170496,4
88740,170492,5
88739,170498,5
88753,170509,5
89379,170509,5
88745,170506,4
88739,170490,5
88743,170497,5
88840,170373,5
88731,170494,5
88736,170491,4
88733,170502,5
88734,169486,5
88747,170521,5
88738,170509,5
88724,170509,4
88710,169023,5
88698,170475,5
88695,170464,5
88672,170458,4
88661,169735,5
88678,170454,5
88661,170437,6
88694,170568,4
88732,171497,4
88737,170571,5
88727,170563,5
88712,170554,5
88698,172142,5
88689,170554,4
88687,170547,5
88683,170535,5
88677,171463,5
88683,170561,5
88682,170569,4
88694,170593,5
88709,170829,5
88703,170608,5
88732,170630,5
88729,170629,4
88746,170668,5
88792,170725,5
88789,170722,5
88796,170738,5
88816,170784,4
88831,170766,5
88764,170683,5
88831,170769,6
88825,170741,3
88820,170726,5
88807,170702,5
88806,170697,5
88804,170671,5
88798,170647,4
88769,170623,5
88758,170590,5
88738,170573,5
88729,170549,5
88712,170522,4
88696,170501,5
88681,170470,5
88654,170458,5
88639,170427,5
88631,170419,4
88631,170420,5
88632,170411,5
88633,170384,5
88634,170394,4
88619,170387,5
88619,170373,4
88625,170380,5
88619,170384,5
88617,170369,6
88598,170378,3
88594,170361,5
88594,170356,8
88598,170366,2
88599,170366,4
88582,170374,5
88578,170359,5
88578,170355,5
88578,170361,5
88580,170364,4
88574,170384,5
88580,170384,5
88578,170369,5
88573,170362,5
88582,170373,4
88583,170383,5
88575,170384,5
88573,170401,5
88575,170405,5
88580,170407,4
88578,170405,6
88580,170412,4
88590,170414,5
88577,170415,4
88582,170410,4
88579,170409,5
88573,170413,5
88570,170426,5
88578,170431,4
88588,170415,5
88568,170431,5
88577,170457,5
88583,170459,5
88595,170462,4
88595,170478,5
88615,170500,5
88622,170507,5
88640,170543,5
88653,170554,4
88658,170566,5
88676,170590,5
88686,170596,5
88676,170578,5
88673,170561,4
87840,170565,5
88674,170565,6
88675,170559,4
88681,170568,5
87293,170560,4
88676,170546,5
88687,170557,5
88697,170558,5
87449,170554,4
88700,170574,4
88701,170581,5
88702,170575,5
89259,170566,5
88713,170560,4
88719,170566,5
88738,170584,5
90174,170585,5
88757,170588,5
88768,170607,4
88765,170603,5
89951,170596,5
88786,170595,5
88775,170599,5
88783,170589,4
89163,170584,5
88796,170587,5
88802,170594,6
88818,170617,4
88862,170133,4
88860,170650,5
88883,170669,5
88901,170688,5
88924,169487,5
88940,170711,4
88940,170710,5
88951,170718,5
88956,169228,5
88958,170721,4
88949,170730,5
88955,170723,4
88951,170685,5
88944,170726,5
88947,170722,4
88937,170721,5
88931,171960,5
88937,170727,5
88938,170719,5
88926,170707,5
88924,172316,4
88908,170679,5
88918,170677,5
88902,170651,5
88897,171291,4
88895,170619,5
88888,170600,5
88876,170580,5
88881,170657,5
88895,170566,4
88909,170576,5
88939,170595,5
88962,170607,5
88969,170582,5
88960,170575,4
88950,170525,5
88942,170474,5
88978,170467,5
88980,170435,4
88980,170401,4
89001,170361,5
88997,170304,5
88985,170228,5
88977,170137,4
88947,170045,6
88932,169947,4
88916,169883,5
88913,169842,5
88921,169787,4
88922,169721,5
88919,169682,5
88908,169598,5
88894,169536,5
88873,169454,4
88860,169395,5
88871,169373,5
88859,169348,5
88848,169319,5
88835,169220,4
88788,169134,5
88730,169018,5
88646,168888,5
88622,168841,5
88588,168777,4
88561,168753,5
88548,168718,5
88538,168716,5
88564,168729,4
88549,168713,4
88543,168696,6
88529,168671,4
88504,168619,5
88456,168527,4
88457,168492,5
88461,168474,5
88461,168473,5
88485,168463,5
88494,168461,4
88512,168452,5
88521,168453,5
88532,168457,5
88513,168451,5
88528,168436,4
88500,168429,5
88491,168398,5
88452,168361,5
88423,168329,5
88379,168291,4
88368,168262,5
88346,168267,5
88370,168296,5
88356,168299,5
88370,168313,4
88374,168317,5
88396,168360,5
88413,168390,5
88419,168406,4
88408,168385,4
88391,168357,5
88339,168295,5
88301,168245,5
88232,168194,4
88163,168131,5
88117,168071,5
88018,167962,5
87845,167887,5
87863,167824,4
87812,167791,5
87785,167762,5
86798,167751,5
87726,167710,5
87677,167659,5
87659,167623,4
86268,167650,5
87665,167663,5
87687,167662,5
87705,167670,4
86970,167668,5
87726,167632,5
87721,167578,5
87708,167536,4
88490,167501,4
87723,167491,5
87745,167456,5
87735,167436,5
89223,167390,4
87720,167350,5
87690,167275,5
87641,167206,5
88520,167143,5
87514,167070,4
87450,167008,5
87391,166938,5
87589,166863,5
87260,166805,5
87228,166753,4
87172,166682,5
87118,165963,5
87078,166578,5
87052,166543,5
87028,166493,5
86989,165170,4
86957,166393,5
86916,166297,5
86901,166268,5
86908,164776,4
86929,166216,5
86933,166175,5
86957,166171,5
86958,166470,4
86977,166145,4
86969,166116,5
86931,166067,5
86888,167380,5
86819,165970,4
86774,165918,5
86668,165848,5
86579,167186,5
86525,165781,5
86450,165738,4
86425,165758,5
86430,166257,5
86408,165762,4
86398,165769,5
86399,165776,4
86394,165826,7
86391,165784,3
86404,165821,5
86399,165851,5
86435,165900,4
86461,165962,5
86493,166016,5
86526,166067,5
86575,166126,5
86603,166195,4
86658,166274,5
86725,166347,5
86800,166439,5
86898,166551,4
86999,166678,4
87111,166808,5
87270,166974,5
87497,167236,5
87759,167507,4
88013,167755,5
88312,168060,5
88574,168292,6
88788,168500,4
88991,168709,4
89177,168919,5
89318,169090,5
89424,169199,5
89487,169294,5
89524,169376,4
89587,169460,5
89610,169540,5
89646,169591,5
89674,169651,5
89720,169751,4
89795,169841,5
89855,169915,5
89941,170011,5
90047,170135,5
90149,170245,4
90239,170348,5
90366,170467,5
90484,170556,5
90598,170677,5
90732,170781,4
90819,170869,5
90932,170914,5
91025,170973,6
91156,171037,3
91245,171020,5
91292,171047,5
91302,171016,5
91299,171019,5
91334,171012,4
91329,171013,5
91315,171010,5
91283,171004,5
91271,170979,5
91263,170967,4
91231,170942,5
91210,170928,5
91163,170892,5
91124,170840,5
91083,170800,4
91040,170740,5
90976,170650,5
90897,170537,5
90819,170437,5
90759,170325,5
90690,170251,4
90666,170179,5
90626,170124,5
90601,170067,6
90587,170023,3
90565,169950,5
90503,169833,5
90438,169725,5
90341,169597,4
89892,169446,5
90132,169331,5
90034,169250,5
89952,169170,5
88760,169091,4
89834,169061,5
89802,169048,5
89783,169061,5
88326,169097,5
89807,169115,4
89830,169163,5
89865,169239,5
89590,169316,5
89969,169398,5
90005,169450,4
90035,169506,6
91127,169570,4
90102,169624,5
90150,169716,5
90226,169822,4
91883,169928,5
90411,170040,5
90490,170135,5
90634,170318,4
91514,170490,4
90864,170648,5
91033,170863,5
91187,171038,5
91517,171192,4
91524,171334,5
91646,171436,5
91851,171585,5
92049,170807,5
92208,171789,4
92347,171833,5
92475,171885,5
92597,170472,5
92722,171974,5
92738,171934,5
92789,171927,4
92820,170829,6
92838,171882,4
92860,171873,5
92882,171855,4
92874,172569,5
92855,171866,5
92843,171883,5
92782,171814,5
92698,173343,4
92611,171662,5
92528,171594,5
92426,171500,5
92302,172573,4
92203,171353,4
92139,171315,5
92102,171264,5
92049,171543,5
92021,171195,4
92029,171196,5
92083,171238,5
92141,171312,5
92177,171337,5
92217,171377,4
92240,171410,5
92239,171419,5
92221,171405,6
92189,171353,4
92077,171257,4
91922,171110,5
91743,170964,5
91588,170890,5
91387,170814,5
91219,170744,4
91052,170691,5
90848,170589,5
90694,170551,5
90552,170527,5
90403,170517,4
90302,170513,5
90248,170538,5
90200,170548,5
90169,170533,4
90154,170533,4
90144,170546,5
90131,170539,5
90118,170550,5
90107,170534,5
90088,170530,4
90074,170519,5
90074,170532,5
90070,170538,6
90072,170541,3
90059,170557,5
90058,170562,5
90056,170560,5
90069,170566,5
90071,170563,4
90067,170574,5
90059,170551,5
90048,170535,5
90032,170500,5
90011,170474,4
89991,170446,5
89983,170428,5
89980,170431,5
89970,170414,5
89971,170427,5
89976,170425,4
89985,170424,5
89982,170417,5
89978,170406,4
89974,170391,5
89957,170377,4
89937,170337,5
89926,170319,5
89892,170292,4
89886,170279,5
89857,170254,5
89862,170239,5
89842,170246,5
89837,170240,4
89833,170251,5
89824,170268,5
89812,170272,5
89797,170279,5
89776,170298,4
89765,170300,5
89733,170292,5
89722,170324,5
89719,170343,5
89718,170386,4
89690,170389,5
89677,170402,5
89668,170395,5
89679,170391,5
89681,170386,4
89699,170408,6
89063,170419,4
89762,170432,5
89803,170461,4
89851,170477,4
88618,170501,5
89952,170555,5
90033,170614,5
90086,170614,4
88694,170621,5
90183,170603,5
90186,170558,5
90192,170503,5
90475,170464,4
90195,170426,5
90178,170397,5
90170,170364,5
91491,170321,5
90164,170291,4
90152,170244,5
90129,170214,5
91449,170158,5
90068,170092,5
90036,170023,4
90012,170010,5
90457,169984,6
89959,169961,4
89932,169939,5
89918,169913,4
89944,169580,5
89883,169884,5
89876,169866,5
89856,169856,4
89816,168733,4
89754,169758,5
89697,169722,5
89664,169690,5
89584,168218,4
89524,169590,5
89470,169540,5
89429,169519,5
89371,169167,5
89334,169486,4
89257,169450,5
89170,169405,5
89101,170400,5
89029,169309,5
88952,169252,4
88884,169210,5
88850,170754,5
88811,169208,5
88771,169197,5
88758,169162,4
88750,169922,5
88701,169140,5
88645,169127,5
88621,169121,5
88570,169265,4
88551,169074,5
88526,169059,5
88486,169017,5
88464,169020,4
88454,169006,4
88426,168968,5
88418,168946,5
88407,168936,5
88424,168944,4
88438,168960,5
88456,168981,5
88480,169006,5
88505,169041,5
88525,169064,5
88538,169092,4
88560,169101,5
88561,169089,5
88575,169085,5
88595,169105,4
88608,169107,5
88625,169103,5
88638,169089,5
88641,169081,5
88632,169042,4
88617,169001,5
88581,168932,5
88520,168879,5
88453,168806,5
88356,168714,4
88221,168649,5
88096,168592,5
87948,168591,5
87845,168659,4
87722,168697,4
87526,168688,5
87319,168697,5
87192,168816,5
87081,168946,4
86960,169095,6
86859,169221,4
86768,169399,5
86659,169723,5
86672,170121,4
86604,170462,5
86623,170915,5
86645,171479,5
86850,172057,5
86966,172449,4
87092,172824,5
87207,173103,5
87314,173337,5
87434,173520,5
87529,173657,4
87641,173770,5
87700,173826,5
87752,173875,5
87779,173901,5
87797,173908,4
87786,173866,5
87786,173875,5
87796,173886,4
87801,173886,4
87799,173889,4
87802,173896,6
87798,173916,4
87812,173931,5
87825,173950,4
87810,173960,5
87825,173973,5
87842,174031,5
87834,174065,5
87837,174128,4
87844,174187,5
87915,174400,5
87974,174590,5
88025,174710,5
88066,174846,4
88115,174992,5
88140,175112,5
88174,175200,5
87500,175357,5
88276,175484,4
88318,175553,5
88335,175616,5
87149,175706,6
88362,175762,4
88373,175861,4
88427,176004,5
87233,176124,5
88511,176251,5
88547,176366,4
88591,176476,4
89033,176597,5
88670,176676,5
88682,176727,5
88700,176778,4
89978,176825,5
88714,176862,5
88716,176887,5
88726,176895,5
89893,176938,4
88734,176966,5
88751,176969,5
88750,176970,5
89142,176985,5
88730,177021,5
88730,177032,4
88736,177063,5
88771,176734,5
88758,177173,6
88765,177194,3
88777,177260,5
88783,176229,5
88799,177332,5
88817,177390,5
88846,177469,4
88875,176177,5
88898,177605,5
88921,177675,5
88964,177753,4
89011,177638,4
89057,178024,5
89130,178200,5
89206,178413,5
89298,179592,4
89392,178758,5
89507,178970,5
89685,179147,5
89906,180787,5
90237,179207,4
90676,179671,6
91209,180204,4
91687,181012,5
92173,180832,5
92586,181154,6
93062,181541,3
93517,181958,5
93876,181871,5
94119,181869,5
94306,181928,4
94512,182084,5
94729,182172,5
95017,182231,5
95233,182175,5
95361,181968,4
95436,181895,5
95549,181887,5
95721,181914,5
95781,181770,4
95810,181647,4
95844,181539,5
95826,181458,5
95837,181418,5
95825,181310,4
95776,181182,5
95719,181057,6
95678,180953,4
95648,180860,5
95620,180786,4
95581,180738,5
95563,180697,5
95531,180649,5
95480,180575,5
95398,180460,4
95283,180321,5
95167,180191,5
95088,180081,5
95007,179969,5
94929,179870,4
94860,179764,5
94757,179630,5
94677,179531,5
94604,179441,5
94540,179341,4
94458,179261,5
94380,179188,5
94315,179096,5
94254,179006,4
94178,178935,4
94127,178852,5
94069,178775,6
94012,178684,4
93937,178598,4
93886,178500,5
93791,178393,5
93725,178267,5
93639,178132,5
93540,178016,4
93443,177904,5
93404,177851,5
93311,177743,5
93238,177657,5
93168,177591,4
93101,177488,5
93029,177391,5
92960,177304,5
92905,177196,5
92844,177106,4
92762,176990,5
92677,176890,5
92606,176813,5
92512,176713,5
92420,176631,4
92340,176554,5
92255,176474,5
92211,176399,6
92149,176340,3
92089,176284,4
92036,176226,5
92004,176190,5
91953,176135,5
91913,176098,4
91867,176045,5
91832,175997,5
91763,175909,5
91691,175807,5
91580,175693,4
90766,175597,5
91345,175503,5
91250,175409,5
91128,175264,5
89680,175166,4
90888,175076,5
90784,174992,5
90721,174988,5
89201,174897,5
90585,174789,5
90490,174671,4
90374,174561,5
90627,174492,5
90206,174419,5
90160,174407,4
90097,174365,5
91380,174352,5
89973,174315,5
89939,174332,4
89901,174311,4
91165,174313,5
89814,174298,5
89816,174370,5
89806,174418,4
90260,174435,5
89807,174473,5
89808,174508,5
89794,174522,5
89837,174184,4
89793,174583,5
89789,174594,5
89779,174609,5
89789,173490,5
89789,174623,4
89780,174611,6
89783,174601,4
89777,173115,5
89761,174594,5
89768,174598,5
89762,174611,4
89778,174323,5
89793,174652,5
89790,174641,5
89793,174635,4
89785,175739,5
89777,174602,5
89755,174567,5
89738,174533,4
89716,176120,4
89696,174437,5
89665,174362,5
89638,174323,5
89605,175020,4
89586,174198,5
89565,174129,5
89533,174057,5
89473,174111,5
89424,173883,4
89388,173867,5
89346,173827,6
89329,173774,4
89283,173724,5
89274,173683,4
89250,173655,5
89239,173647,5
89215,173604,5
89193,173571,5
89190,173556,4
89179,173528,5
89175,173505,5
89164,173464,5
89154,173446,4
89155,173418,4
89169,173410,5
89176,173395,5
89176,173358,5
89173,173297,4
89164,173283,5
89158,173218,5
89148,173165,5
89142,173130,5
89139,173103,4
89129,173063,5
89113,173022,5
89113,173002,6
89116,172999,4
89120,172979,4
89117,172953,5
89129,172934,5
89116,172913,5
89123,172885,5
89132,172866,4
89127,172820,5
89132,172828,5
89120,172786,5
89110,172752,5
89095,172735,4
89076,172731,5
89063,172743,5
89072,172771,5
89066,172788,4
89039,172780,4
89014,172767,5
88982,172760,5
88986,172772,5
88986,172759,5
88970,172764,4
88954,172775,5
88964,172790,5
88962,172806,5
88972,172796,4
88965,172749,5
88950,172704,8
88962,172701,2
88971,172699,5
88955,172699,4
88997,172722,5
88999,172732,5
88994,172726,5
89000,172748,5
89031,172756,4
89045,172773,5
89071,172815,5
89101,172840,5
89149,172867,5
89182,172871,4
89203,172828,5
89211,172767,5
89210,172700,5
89220,172632,4
89219,172553,5
89224,172483,4
89202,172389,5
89088,172315,5
89194,172257,4
89176,172195,5
89180,172172,5
88127,172145,5
89161,172105,5
89155,172078,4
89147,172061,5
87624,172041,5
89128,172024,5
89130,172009,5
89131,171970,4
88318,171946,5
89145,171949,5
89171,171950,5
89177,171949,5
90038,171925,4
89206,171867,5
89201,171849,6
89222,171825,4
90877,171818,4
89314,171829,4
89383,171827,6
89428,171829,4
90477,171823,5
89511,171831,4
89531,171838,5
89545,171838,5
89820,171836,5
89549,171834,5
89560,171804,4
89536,171791,5
89548,171043,5
89539,171789,5
89539,171778,5
89525,171758,4
89511,170348,5
89506,171733,5
89487,171721,5
89463,171698,5
89432,170119,4
89413,171700,5
89391,171688,5
89357,171675,5
89338,172066,5
89309,171666,4
89280,171660,5
89278,171646,5
89264,173162,5
89248,171653,4
89228,171656,4
89217,171656,5
89208,173085,5
89198,171689,5
89195,171703,4
89186,171708,5
89190,172200,5
89185,171728,5
89177,171739,5
89171,171743,4
89158,171786,5
89098,171698,5
89061,171683,5
89042,171680,5
89018,171667,4
88999,171678,4
88984,171695,5
88977,171702,5
88982,171713,5
88976,171719,3
88973,171715,5
88973,171740,5
88975,171751,5
88978,171765,5
88987,171777,4
88995,171802,5
89000,171809,5
89003,171812,5
89002,171823,4
89011,171822,4
89010,171843,5
89024,171851,5
89015,171871,5
89026,171867,4
89029,171877,5
89024,171883,5
89019,171888,5
89034,171889,5
89020,171893,4
89035,171898,6
89037,171926,4
89044,171921,5
89029,171924,5
89049,171947,6
89054,171945,3
89056,171960,5
89054,171967,5
89064,171997,5
89072,172002,4
89086,172026,5
89089,172035,5
89090,172047,5
89097,172067,4
89105,172068,4
89104,172095,5
89098,172102,5
89103,172096,5
89089,172107,4
89089,172124,5
89086,172139,5
89088,172138,5
89079,172129,5
89079,172139,4
89074,172152,5
89077,172158,6
89076,172162,4
89080,172173,5
89077,172171,4
89079,172191,5
89082,172202,5
89085,172194,5
89088,172203,5
89074,172199,4
89069,172223,5
89073,172217,5
89085,172235,5
89083,172266,5
89080,172273,4
89088,172282,5
89088,172297,5
89092,172306,5
89088,172321,4
89108,172350,4
89113,172396,5
89120,172425,5
89141,172433,5
89148,172464,4
88570,172473,5
89145,172477,5
89142,172491,6
89146,172486,4
87855,172493,4
89147,172511,5
89149,172507,5
89156,172520,5
87618,172527,5
89151,172535,4
89146,172549,5
89156,172576,5
89301,172604,5
89175,172616,5
89174,172624,4
89173,172633,5
90501,172652,5
89189,172658,5
89201,172664,5
89210,172670,4
90663,172670,5
89213,172664,5
89207,172664,5
89212,172652,5
89756,172649,4
89231,172668,5
89245,172660,5
89262,172666,6
89328,172375,3
89271,172681,5
89273,172699,5
89286,172694,5
89296,171552,5
89304,172675,4
89291,172660,5
89298,172648,5
89298,171125,5
89294,172625,5
89305,172624,5
89310,172601,4
89305,172233,5
89305,172587,5
89301,172558,5
89292,172548,4
89287,173630,5
89274,172508,5
89270,172467,5
89263,172441,5
89256,174076,5
89255,172405,4
89247,172369,5
89241,172359,5
89253,173130,6
89239,172309,3
89230,172279,5
89237,172281,5
89244,172447,5
89247,172278,4
89262,172281,5
89255,172276,5
89265,172287,5
89255,172278,5
89254,172269,4
89255,172291,5
89252,172290,5
89257,172311,5
89277,172340,5
89286,172370,4
89300,172387,5
89315,172432,5
89336,172467,5
89367,172505,5
89405,172545,4
89432,172575,6
89476,172620,4
89512,172659,5
89545,172705,4
89572,172736,4
89586,172777,5
89621,172811,5
89638,172838,5
89649,172854,4
89684,172895,5
89704,172927,5
89737,172957,5
89747,172983,5
89767,173017,4
89772,173031,5
89785,173055,5
89789,173060,5
89777,173070,5
89793,173097,4
89809,173113,5
89808,173115,5
89793,173090,5
89772,173080,5
89764,173082,4
89763,173084,5
89761,173094,6
89762,173094,4
89767,173087,5
89773,173094,4
89761,173096,5
89766,173111,5
89766,173094,5
89762,173112,4
89765,173120,4
89764,173104,5
89757,173104,5
89741,173096,5
89739,173083,4
89738,173091,5
89724,173089,5
89731,173103,5
89728,173100,5
89735,173102,4
89724,173101,5
89711,173109,5
89709,173079,5
89706,173084,5
89695,173070,4
89701,173068,5
89700,173087,5
89693,173096,6
89705,173097,4
89702,173112,4
89705,173114,5
89700,173137,5
89712,173153,5
89705,173162,4
89704,173169,4
89698,173183,5
89684,173186,5
89537,173169,5
89676,173155,4
89668,173172,4
89669,173179,5
88638,173172,5
89671,173172,5
89672,173172,4
89679,173169,5
88208,173177,5
89667,173170,5
89671,173153,5
89659,173134,5
89010,173131,4
89643,173109,5
89635,173087,5
89619,173043,5
90500,173035,4
89590,173018,5
89569,172990,5
89562,172983,5
91123,172985,5
89559,172974,4
89556,172974,5
89541,172968,5
90412,172954,5
89547,172959,4
89544,172967,4
89539,172963,5
89721,172931,5
89507,172910,5
89501,172881,4
89485,172841,5
89464,171985,5
89443,172772,5
89427,172738,5
89411,172699,4
89381,171282,6
89372,172648,4
89355,172617,5
89332,172563,5
89310,171200,4
89295,172508,5
89288,172494,5
89272,172494,5
89266,173024,5
89263,172481,4
89255,172481,5
89245,172452,5
89227,173966,5
89218,172431,5
89200,172427,4
89198,172436,5
89195,173690,5
89195,172436,5
89201,172442,4
89204,172455,4
89222,172862,5
89234,172464,5
89235,172485,5
89247,172495,4
89247,172515,5
89257,172488,6
89268,172471,4
89275,172481,5
89281,172469,4
89281,172475,5
89283,172477,5
89301,172484,5
89305,172480,5
89315,172478,4
89320,172487,5
89318,172486,5
89319,172474,5
89328,172480,5
89340,172491,4
89332,172485,5
89345,172485,5
89347,172494,5
89362,172492,5
89367,172485,4
89369,172498,5
89372,172487,5
89382,172490,5
89380,172497,4
89396,172482,4
89406,172478,5
89404,172459,5
89409,172434,5
89416,172423,4
89425,172412,5
89423,172368,5
89431,172351,5
89430,172320,5
89434,172299,4
89427,172266,5
89431,172260,5
89434,172226,5
89412,172200,5
89404,172170,4
89396,172148,5
89397,172138,5
89390,172123,5
89400,172112,5
89401,172107,4
89403,172102,5
89398,172089,5
89396,172071,5
89397,172063,5
89393,172038,4
89385,172016,5
89374,172004,5
89360,171989,5
89350,171960,4
89341,171941,4
89343,171931,5
89338,171900,5
89323,171888,5
89317,171863,4
89321,171845,5
89301,171830,5
89289,171825,5
89298,171809,5
89293,171803,4
89288,171792,5
89290,171796,5
89297,171790,5
89291,171799,5
89300,171809,5
89307,171820,4
89301,171823,5
89295,171823,5
89304,171822,5
89293,171806,5
89270,171801,4
89264,171779,5
89247,171745,5
89212,171727,4
88576,171716,4
89202,171716,5
89198,171715,5
89206,171726,5
87892,171747,4
89204,171748,5
89211,171787,5
89212,171817,5
87680,171883,5
89249,171977,4
89277,172075,5
89315,172162,5
89526,172248,5
89382,172352,5
89427,172469,4
89479,172547,5
90837,172596,6
89518,172625,4
89545,172638,5
89546,172648,4
90982,172677,7
89565,172681,3
89587,172680,5
89603,172707,5
90108,172696,4
89610,172702,5
89620,172683,5
89640,172682,5
89712,172353,4
89679,172660,4
89690,172641,5
89694,172614,5
89692,171443,5
89683,172557,4
89680,172536,5
89691,172500,5
89668,170927,5
89651,172401,5
89634,172372,5
89621,172355,4
89621,171960,5
89610,172322,6
89606,172313,4
89609,172305,4
89599,173403,5
89603,172289,5
89610,172295,5
89597,172306,5
89616,173989,4
89616,172346,5
89632,172373,5
89652,172398,5
89669,173265,5
89707,172547,4
89744,172612,5
89785,172671,5
89831,172952,5
89876,172850,4
89909,172939,4
89926,172985,5
89935,173015,5
89949,173028,5
89945,173057,5
89949,173128,4
89973,173222,5
90015,173305,5
90042,173398,6
90087,173497,3
90111,173586,5
90154,173653,5
90174,173674,5
90174,173681,5
90184,173655,4
90162,173623,5
90151,173561,5
90122,173511,5
90107,173454,5
90077,173389,4
90049,173363,5
90030,173291,5
90028,173257,5
90017,173229,4
90027,173232,4
90050,173254,5
90051,173270,5
90087,173316,5
90132,173389,4
90211,173489,6
90284,173542,4
90351,173603,5
90394,173605,5
90427,173580,6
90451,173589,3
90504,173576,5
90525,173577,5
90563,173534,5
90565,173481,4
90580,173449,5
90588,173430,5
90629,173421,5
90652,173400,5
90671,173384,4
90702,173391,5
90726,173391,5
90772,173414,5
90803,173408,5
90825,173420,4
90857,173423,5
90864,173433,5
90876,173440,5
90886,173448,4
90904,173463,4
90943,173496,6
90965,173522,4
90996,173539,5
91004,173553,4
91045,173589,5
91063,173610,5
91081,173628,5
91077,173635,5
91091,173688,4
91129,173720,5
91153,173767,5
91157,173782,5
91171,173776,5
91121,173691,4
91028,173511,5
90803,173080,5
90509,172769,5
90425,172732,5
90305,172710,4
90275,172714,5
90288,172751,5
90240,172788,5
90336,172826,5
90371,172859,4
90389,172889,5
89479,172926,6
90465,172991,4
90525,173093,4
90608,173187,4
89305,173315,5
90797,173459,5
90903,173579,5
91041,173741,4
90426,173921,5
91350,174116,5
91545,174385,5
91766,174641,5
92790,174957,4
92304,175306,5
92648,175698,5
92971,176009,5
94691,176324,5
93584,176690,4
93929,177053,5
94243,177338,5
95340,177510,5
94661,177640,5
94745,177679,4
94784,177687,5
95021,177688,5
94787,177674,6
94829,177703,4
94857,177711,4
94890,177037,5
94896,177722,5
94914,177728,5
94953,177723,4
94978,176499,4
95090,177839,5
95232,177980,5
95439,178135,5
95658,176995,4
95872,178513,5
96082,178699,5
96224,178823,5
96390,179395,5
96522,179102,4
96642,179214,5
96775,179342,5
96896,180741,5
97052,179515,5
97171,179608,5
97320,179676,4
97532,180977,5
97743,179884,5
98045,180089,5
98309,180227,4
98120,180961,5
98615,181051,5
98991,181308,5
99399,181486,4
99838,181808,4
100155,182047,5
100568,182288,5
100936,182612,5
101277,182873,4
101633,183067,5
101880,183110,5
102104,183111,5
102285,183083,5
102641,183342,4
102997,183476,5
103269,183810,5
103468,183872,5
103568,183952,5
103668,183988,4
103846,184101,6
103904,184085,4
103888,183980,5
103822,183740,5
103699,183469,4
103615,183294,5
103487,183054,5
103421,182906,5
103239,182687,5
103204,182596,4
103120,182488,5
103008,182269,5
102936,182097,5
102866,182043,4
102796,181919,4
102570,181705,5
102416,181595,5
102289,181509,5
102166,181428,4
102069,181365,5
101941,181299,5
101844,181228,5
101778,181269,5
101701,181168,4
101601,181011,5
101510,180896,6
101389,180716,4
101302,180606,5
101210,180478,4
101102,180320,5
101020,180245,5
100890,180059,5
100784,179936,5
100698,179843,4
100607,179761,5
100506,179668,5
100388,179579,5
100329,179499,5
100241,179402,4
100141,179303,5
100049,179177,5
99911,179017,5
99812,178877,4
99715,178775,5
99624,178715,5
99520,178634,5
99449,178565,5
99390,178506,4
99327,178490,5
99265,178403,5
99181,178369,6
99121,178285,4
99036,178201,4
98968,178118,5
98883,178070,5
98805,177979,5
98712,177881,5
98609,177697,4
98513,177680,5
98436,177622,5
98362,177533,5
98287,177471,5
97725,177454,4
98195,177416,5
98149,177371,5
98090,177323,5
96886,177332,4
98075,177345,4
98068,177333,5
98068,177319,5
96668,177335,5
98075,177282,5
98048,177259,4
98010,177184,5
98105,177147,5
97945,177032,5
97918,176967,4
97843,176864,5
98994,176787,5
97721,176686,5
97680,176652,5
97632,176531,4
98931,176429,5
97457,176340,5
97370,176297,5
97410,176355,5
97842,176278,4
97310,176311,5
97282,176317,5
97276,176311,5
97255,176084,5
97180,176384,4
97132,176397,6
97093,176388,4
97056,175382,5
97046,176459,4
97020,176488,6
97022,176550,3
97038,175217,5
97042,176643,5
97045,176681,5
97062,176707,4
97050,176321,5
97067,176757,5
97065,176776,5
97107,176856,4
97103,177846,5
97068,176844,5
97056,176834,5
97035,176807,5
97015,178303,4
97004,176794,5
96999,176778,5
96975,176779,5
96993,177559,5
96995,176841,4
97045,176900,5
97088,176929,5
97106,177116,5
97139,176991,5
97160,177006,4
97182,177011,6
97192,176981,4
97176,176934,5
97155,176900,4
97124,176836,4
97078,176763,5
97048,176683,5
97009,176618,5
96988,176554,4
96934,176464,5
96871,176352,5
96842,176254,5
96754,176076,5
96656,175877,4
96555,175727,5
96480,175589,5
96389,175429,5
96310,175297,5
96257,175127,4
96180,175012,5
96107,174931,5
96084,174900,5
96032,174818,5
95994,174744,4
95934,174697,5
95897,174622,5
95828,174494,5
95722,174320,5
95582,174064,4
95390,173674,5
95131,173263,5
94866,172832,5
94603,172321,4
94195,171742,4
93847,171297,5
93630,171038,5
93370,170698,5
93196,170531,4
93085,170471,5
93057,170453,5
93050,170483,5
93040,170529,5
93044,170561,5
93070,170575,4
93117,170643,5
93125,170679,5
93171,170770,6
93246,170872,3
93293,170935,5
93321,170972,5
93350,171035,5
93381,171099,5
93417,171157,4
93487,171237,5
93535,171300,5
93587,171350,5
93639,171406,4
93706,171466,4
93765,171552,5
93823,171630,5
93888,171704,5
93965,171813,4
94038,171941,5
94132,172077,5
94213,172196,5
94278,172305,5
94340,172387,4
94378,172457,6
94402,172531,4
94372,172503,5
94299,172469,5
94244,172442,6
94155,172394,3
94107,172336,5
93923,172257,5
93949,172242,5
93901,172247,4
93799,172238,5
92800,172299,8
93704,172314,2
93655,172307,5
93612,172356,4
92213,172347,5
93573,172395,5
93523,172410,5
93484,172463,4
92840,172579,4
93488,172625,5
93502,172709,5
93526,172822,5
94426,172991,4
93730,173194,5
93839,173388,6
93918,173557,4
95491,173754,5
94185,173978,4
94333,174182,5
94429,174333,5
95365,174458,5
94600,174560,5
94692,174652,4
94771,174791,5
95054,174904,5
94981,175076,5
95113,175269,5
95286,175516,4
95444,175015,5
95630,175984,5
95827,176266,5
96013,176510,5
96168,175495,4
96362,177028,5
96536,177306,5
96700,177621,5
96831,176681,4
97045,178288,4
97247,178613,5
97362,178859,6
97457,179556,4
97656,179416,4
97832,179680,5
97971,179892,5
98105,181404,5
98201,180264,5
98247,180361,4
98290,180439,5
98319,181651,5
98361,180615,5
98425,180735,5
98504,180847,4
98614,181396,5
98782,181301,5
98980,181587,5
99230,181866,5
99431,182110,4
99637,182225,5
99764,182350,5
99875,182431,5
99971,182485,5
100007,182493,4
100052,182502,5
100106,182549,5
100130,182557,6
100125,182535,3
100092,182469,4
100044,182387,5
99990,182308,5
99900,182186,5
99813,182021,4
99678,181799,5
99535,181548,5
99390,181271,5
99274,181021,5
99185,180825,4
99108,180612,5
99073,180400,5
99040,180268,5
99001,180083,5
98950,179843,4
98920,179516,5
98821,179105,5
98640,178654,5
98422,178145,5
98078,177480,5
97684,176815,4
97323,176148,5
96955,175490,5
96617,174718,6
96236,174009,3
95812,173174,5
95436,172482,5
94980,171679,5
94521,170827,4
94121,170075,5
93689,169353,5
93235,168704,5
92783,168041,5
92296,167500,4
91930,167113,5
91654,166810,5
91418,166555,5
91131,166322,5
90842,166069,4
90574,165870,5
90379,165751,5
90226,165594,5
90114,165472,5
89975,165340,4
89883,165284,6
89810,165206,4
89660,165131,5
89558,165063,5
89449,164982,4
89433,165019,5
89361,165030,5
89329,165013,5
89244,164953,4
89179,164909,4
89130,164949,5
89099,164974,5
89061,164983,5
89008,164991,4
88966,165003,5
88960,165035,5
88918,165046,5
88889,165133,5
88886,165197,4
88836,165212,5
88795,165304,5
88774,165358,5
88749,165423,5
88153,165471,4
88660,165547,5
88638,165636,6
88560,165755,4
87313,165944,5
88496,166103,4
88436,166215,5
88480,166692,5
87142,167142,5
88841,167946,5
89107,168753,4
89484,169479,5
89874,170081,5
90021,170410,5
90221,170693,4
90388,170974,4
91721,171264,5
90781,171519,5
90964,171750,5
91064,171893,4
92493,171993,5
91177,172135,5
91209,172238,5
91277,172429,5
91832,172652,4
91460,172887,5
91579,173130,5
91719,173443,6
91906,173514,4
91993,174015,4
92143,174326,5
92291,174610,5
92443,173996,5
92514,175074,5
92580,175271,4
92659,175494,5
92768,174546,5
92871,175957,5
92947,176133,5
93034,176246,4
93125,176082,5
93262,176775,5
93521,177186,5
93791,177613,4
94129,178877,4
94472,178535,5
94781,178868,5
95007,179137,5
95177,180578,5
95320,179399,4
95438,179517,5
95493,179583,5
95511,180215,5
95509,179554,4
95503,179506,5
95444,179352,5
95399,179386,5
95370,179149,5
95317,179034,4
95306,178955,5
95308,178928,5
95358,178940,5
95381,178909,5
95389,178880,4
95386,178866,5
95368,178829,5
95373,178796,5
95361,178763,4
95337,178739,4
95330,178708,5
95323,178685,5
95307,178657,5
95285,178625,4
95277,178606,6
95285,178613,4
95294,178637,5
95293,178657,5
95325,178710,4
95352,178747,5
95374,178792,5
95377,178837,5
95397,178864,5
95407,178878,4
95430,178903,5
95429,178926,5
95443,178956,5
95472,178976,5
95476,179000,4
95493,179026,5
95518,179080,5
95533,179107,5
95554,179154,5
95571,179169,4
95583,179212,5
95605,179222,5
95599,179231,5
95591,179231,4
95587,179209,4
95558,179193,6
95544,179182,4
95527,179136,5
95504,179120,4
95490,179078,5
95468,179059,5
95450,179038,5
95435,179019,5
95427,178998,4
95417,178993,5
95412,178990,5
95404,178976,5
95381,178972,5
95389,178982,4
95384,178971,5
95363,178966,5
95346,178970,5
95334,178951,5
95321,178945,4
95309,178943,5
95311,178930,5
95351,178977,5
95326,178924,5
95301,178899,4
95273,178826,5
95234,178811,5
95209,178772,5
95184,178754,4
95175,178743,4
95143,178712,5
95121,178686,5
95093,178648,5
95052,178616,4
94992,178535,5
94970,178500,5
94880,178433,5
94852,178376,5
94834,178331,4
94790,178315,5
93997,178263,5
94705,178195,5
94673,178094,5
94631,178050,4
93449,178008,5
94547,177956,5
94497,177938,5
94492,177918,5
93731,177914,4
94473,177933,5
94483,177944,5
94485,177941,5
95106,177944,4
94523,177945,4
94515,177931,5
94534,177907,5
95771,177904,5
94562,177902,4
94575,177871,5
94575,177853,5
95395,177825,5
94569,177805,5
94597,177818,4
94626,177817,5
94875,177825,5
94653,177800,5
94660,177797,5
94679,177769,4
94662,177154,5
94638,177641,4
94641,177574,5
94628,177527,5
94621,176403,5
94616,177462,3
94641,177439,5
94641,177399,5
94636,176117,5
94630,177323,4
94649,177289,5
94635,177244,5
94611,177452,5
94608,177134,4
94606,177101,4
94587,177061,5
94565,178209,5
94546,176998,5
94527,176975,4
94509,176944,9
94489,178066,4
94471,176867,7
94454,176850,6
94456,176826,4
94351,176577,7
94351,176577,6
94281,176474,4
94303,176413,7
94269,176332,6
94223,176249,6
94020,175812,7
94020,175812,6
93988,175728,4
93954,175623,7
93910,175570,1
93899,175525,5
93887,175479,4
93849,175442,4
93847,175421,5
93841,175394,5
93844,175366,5
93824,175350,4
93808,175314,5
93791,175317,5
93791,175309,6
