RED,IR,EKG,TIME
126229,229428,9
126209,229440,10
126177,229421,5
126141,229396,5
125878,229175,8
125878,229175,7
125855,229154,8
125811,229120,7
125782,229094,9
125649,228986,10
125649,228986,9
125616,228978,10
125587,228946,9
125587,228946,8
125560,228918,7
125532,228904,9
125287,228684,10
125287,228684,5
125258,228654,8
125207,228634,7
125163,228601,7
124989,228497,10
124989,228497,5
124988,228488,5
124974,228493,10
124969,228473,5
124950,228449,5
124938,228420,10
124943,228442,5
124939,228430,5
124917,228413,10
124917,228413,5
124924,228426,7
124913,228405,8
124930,228427,5
124928,228437,7
124975,228458,8
124975,228458,5
124992,228464,7
124961,228470,8
125010,228479,10
125039,228488,10
125039,228488,5
125063,228498,7
125092,228491,8
125085,228506,5
125111,228519,7
125134,228507,8
125153,228527,5
125217,228552,7
125217,228552,8
125229,228575,7
125237,228539,5
124649,228547,8
124917,228413,7
125267,228561,5
125316,228562,8
125316,228562,7
125110,228582,8
125306,228560,5
125339,228585,7
125348,228582,5
125943,228591,8
125392,228610,7
125392,228610,5
125394,228609,8
125399,228623,7
125856,228621,5
125447,228619,8
125449,228650,7
125446,228615,4
125461,228126,8
125461,228126,7
125470,228598,5
125463,228601,8
125477,228591,7
125465,227837,5
125444,228603,8
125475,228599,7
125490,228604,10
125483,228969,7
125491,228624,5
125501,228633,8
125497,228583,7
125506,229460,5
125507,228619,3
125501,228611,1
125497,228618,5
125489,229280,5
125497,228628,4
125503,228636,5
125510,228638,5
125513,228854,5
125509,228654,5
125522,228657,4
125520,228664,5
125522,228676,5
125530,228663,5
125544,228677,5
125562,228704,4
125576,228694,5
125577,228697,5
125575,228697,6
125569,228692,4
125554,228690,4
125548,228681,5
125561,228681,5
125524,228666,5
125519,228635,4
125501,228618,4
125466,228614,5
125446,228595,5
125447,228594,5
125433,228608,4
125440,228594,5
125432,228593,5
125444,228602,5
125429,228601,5
125443,228611,4
125449,228609,5
125451,228619,5
125453,228616,5
125461,228620,5
125456,228628,5
125456,228641,4
125463,228628,5
125455,228635,5
125447,228639,5
125438,228635,4
125426,228634,5
125412,228630,5
125393,228626,5
125364,228617,5
125359,228619,4
125354,228616,5
125335,228615,5
125334,228606,5
125322,228620,4
125333,228620,4
125329,228630,5
125307,228604,5
125306,228616,5
125294,228611,4
125285,228603,5
125281,228592,5
125267,228591,5
125278,228588,5
125286,228592,4
125276,228595,6
125283,228586,4
125293,228613,5
125294,228628,5
125303,228612,4
125307,228621,5
125311,228637,5
125316,228646,5
125321,228655,5
125340,228667,4
125334,228660,5
125346,228676,5
125336,228679,5
125340,228693,5
125350,228706,4
125358,228726,5
125371,228735,5
125381,228747,5
125388,228757,4
125401,228776,4
125414,228792,5
125429,228801,5
125441,228824,5
125448,228826,4
125453,228830,5
125145,228844,6
125472,228847,4
125478,228860,5
125477,228866,4
124804,228879,5
125501,228887,5
125526,228911,5
125521,228914,5
124716,228907,4
125524,228895,5
125521,228894,5
125537,228892,5
125610,228893,5
125526,228879,4
125511,228875,5
125503,228843,5
126204,228854,5
125525,228860,5
125517,228853,4
125537,228859,5
126354,228863,5
125561,228873,5
125570,228880,4
125582,228902,4
125890,228903,5
125600,228901,7
125609,228920,2
125619,228938,4
125682,228809,5
125625,228939,5
125623,228942,5
125613,228930,5
125595,228307,4
125587,228903,5
125588,228894,5
125590,228896,5
125590,228080,5
125584,228875,4
125575,228887,5
125585,228878,5
125583,228666,5
125599,228903,5
125614,228918,4
125630,228926,5
125652,229534,5
125660,228958,5
125683,228970,6
125707,228995,3
125733,229905,5
125765,229028,5
125782,229049,5
125794,229072,4
125823,229544,5
125843,229103,5
125869,229135,5
125895,229147,5
125916,229272,4
125934,229197,5
125951,229209,5
125958,229218,5
125972,229231,5
125974,229226,4
125971,229226,5
125985,229245,5
125989,229250,5
125996,229256,5
126008,229257,4
126015,229261,5
126014,229255,5
126019,229258,5
126016,229271,5
126017,229262,5
126015,229261,4
126007,229270,5
125999,229251,5
126003,229254,4
125995,229239,4
125984,229243,5
125963,229246,5
125957,229243,5
125938,229249,4
125929,229250,5
125924,229239,5
125911,229253,5
125911,229236,5
125912,229254,4
125901,229250,5
125912,229241,5
125895,229253,5
125913,229272,5
125915,229278,4
125923,229290,5
125919,229313,5
125918,229315,5
125915,229327,5
125924,229339,4
125931,229356,6
125923,229369,4
125931,229375,5
125918,229381,5
125918,229401,4
125910,229400,5
125893,229396,5
125871,229394,5
125863,229391,4
125839,229385,4
125817,229390,5
125805,229379,5
125781,229388,5
125754,229370,4
125719,229369,5
125701,229362,5
125690,229365,5
125664,229366,5
125657,229367,4
125637,229378,5
125593,229368,5
125557,229369,6
125493,229333,4
125433,229296,4
125351,229257,5
125262,229189,5
125171,229141,5
125079,229077,5
124987,229010,4
124856,228919,5
124741,228847,5
124653,228783,5
124550,228694,5
124465,228648,4
124378,228576,5
124283,228505,5
124196,228458,5
124122,228435,4
124061,228417,4
124014,228387,5
123945,228362,5
123391,228330,5
123799,228274,5
123725,228236,4
123640,228195,5
122823,228157,5
123495,228132,6
123422,228097,3
123360,228051,5
122780,228017,5
123265,228011,5
123225,228012,5
123166,227968,4
123474,227951,5
123025,227908,5
122955,227863,5
122873,227780,5
123557,227718,4
122690,227655,5
122619,227611,5
122534,227545,5
122952,227461,5
122319,227415,4
122238,227376,5
122161,227347,5
122258,227320,5
122029,227269,4
121960,227250,5
121941,227259,4
121915,226955,5
121892,227271,5
121846,227240,6
121820,227235,3
121833,226599,5
121853,227299,5
121865,227320,5
121852,227306,4
121833,226535,5
121832,227282,5
121833,227293,5
121857,227303,5
121863,227472,4
121893,227354,5
121923,227402,5
121953,227415,5
121960,228153,5
121991,227454,4
122008,227484,5
122043,227512,5
122081,228307,5
122101,227594,5
122150,227626,4
122189,227685,6
122246,228001,4
122291,227787,5
122362,227851,4
122432,227928,4
122496,228040,5
122567,228071,5
122629,228136,5
122679,228193,4
122718,228232,5
122769,228270,5
122816,228326,5
122859,228367,5
122899,228428,4
122938,228459,5
122984,228512,5
123022,228547,5
123071,228591,5
123129,228661,4
123197,228720,5
123262,228785,5
123316,228824,5
123344,228853,5
123370,228868,4
123402,228902,5
123469,228946,6
123529,228969,4
123553,228984,5
123589,229004,4
123649,229046,5
123726,229105,5
123817,229168,5
123894,229235,4
124000,229329,4
124093,229408,5
124177,229482,5
124248,229554,5
124315,229603,4
124388,229647,5
124452,229695,5
124513,229755,5
124561,229776,5
124611,229837,4
124670,229866,5
124698,229914,5
124732,229944,5
124774,229973,5
124797,229999,4
124851,230019,5
124875,230058,5
124937,230113,6
124978,230129,4
124995,230163,4
125025,230190,5
125046,230204,5
125084,230244,5
125109,230258,5
125139,230268,4
125175,230315,5
125209,230335,5
125229,230346,5
125274,230369,4
125293,230391,4
125308,230414,5
125323,230412,5
125341,230436,5
125368,230461,4
125382,230462,5
125413,230488,5
125428,230498,5
125440,230502,5
125449,230503,5
125449,230516,4
125471,230531,5
125474,230536,5
125488,230555,6
125504,230554,3
125507,230554,5
125508,230565,7
125515,230579,3
125518,230565,5
125522,230574,4
125290,230574,5
125536,230570,5
125534,230579,5
125537,230572,5
124899,230580,4
125556,230592,5
125558,230588,5
125553,230586,5
124757,230581,4
125564,230580,4
125547,230564,5
125555,230553,5
125505,230541,5
125541,230540,4
125552,230534,6
125545,230523,4
126193,230519,5
125544,230508,5
125548,230502,4
125548,230487,5
126403,230488,5
125545,230488,5
125542,230493,5
125561,230492,4
125910,230497,5
125575,230501,5
125559,230472,5
125539,230463,5
125581,230396,4
125527,230466,5
125533,230447,5
125505,230431,5
125498,229872,5
125479,230379,4
125468,230367,5
125468,230368,5
125455,229574,5
125457,230377,4
125473,230354,5
125475,230367,6
125456,229979,4
125467,230344,5
125468,230331,4
125458,230337,5
125461,230819,5
125465,230318,5
125459,230310,5
125457,230307,4
125445,231168,5
125449,230304,5
125453,230313,5
125459,230306,5
125459,230811,4
125460,230309,5
125458,230303,5
125461,230309,5
125461,230419,5
125457,230293,4
125453,230294,5
125452,230287,5
125449,230278,5
125443,230277,5
125434,230280,4
125433,230289,5
125430,230261,6
125413,230272,4
125416,230260,4
125395,230255,5
125369,230230,5
125363,230220,5
125332,230205,5
125333,230196,4
125313,230191,5
125301,230187,5
125292,230160,5
125275,230171,5
125248,230133,4
125252,230151,5
125253,230140,5
125247,230136,5
125241,230131,5
125243,230129,4
125234,230119,5
125231,230110,5
125221,230095,5
125212,230098,5
125192,230085,4
125193,230087,5
125180,230093,5
125172,230073,5
125169,230077,4
125155,230059,4
125149,230053,5
125138,230059,5
125143,230048,5
125136,230046,4
125122,230039,5
125127,230049,5
125132,230040,5
125144,230036,5
125149,230034,4
125154,230050,5
125150,230045,5
125146,230043,5
125152,230044,5
125156,230045,4
125144,230024,5
125143,230027,5
125134,230005,5
125124,230003,5
125116,229982,5
125105,229970,4
125103,229968,5
125103,229951,5
125100,229953,5
125094,229956,4
125096,229954,5
125104,229947,5
125098,229944,5
125085,229925,4
125093,229931,4
125098,229960,5
125101,229952,5
125110,229934,5
125108,229944,4
125107,229945,5
125105,229919,5
125093,229918,5
125079,229909,5
125077,229885,4
125071,229873,5
125062,229868,5
125058,229845,5
125018,229809,5
125014,229800,4
125001,229786,6
125000,229787,4
124521,229793,5
125014,229789,5
125010,229790,4
125013,229783,5
124252,229777,5
125009,229782,5
125010,229775,5
125005,229789,4
124463,229770,5
125022,229778,5
125023,229780,5
125023,229786,4
125387,229785,4
125014,229771,5
125020,229779,5
125023,229777,5
125817,229770,4
125022,229777,5
125012,229778,5
125015,229770,5
125573,229760,5
125005,229773,4
124990,229780,5
124997,229768,6
125158,229766,4
125004,229773,5
124996,229775,4
125005,229768,5
125003,229425,5
124999,229768,5
124995,229759,5
124993,229765,4
124971,229044,5
124980,229756,5
124984,229755,5
124980,229753,5
124982,228949,4
124983,229735,5
124978,229750,5
124983,229748,5
124978,229916,4
124979,229743,4
124978,229730,5
124987,229744,5
124984,230507,5
124982,229732,3
124976,229729,5
124975,229729,5
124973,230489,5
124980,229728,5
124981,229741,4
124976,229729,5
124973,229981,5
124976,229729,5
124970,229714,5
124986,229701,4
124977,229746,5
124980,229714,5
124977,229717,5
124977,229727,5
124979,229702,4
124969,229703,5
124968,229710,5
124980,229707,5
124963,229698,5
124969,229705,5
124958,229706,4
124960,229700,5
124963,229698,5
124958,229702,6
124950,229696,3
124952,229697,5
124948,229681,5
124945,229688,5
124930,229681,4
124919,229673,5
124915,229669,5
124899,229649,5
124898,229648,5
124887,229638,4
124866,229630,5
124842,229597,5
124806,229572,5
124781,229543,5
124750,229541,4
124737,229529,5
124721,229505,5
124698,229496,5
124688,229482,5
124682,229479,4
124675,229468,6
124658,229464,4
124658,229463,5
124653,229480,5
124667,229453,6
124670,229456,3
124673,229450,5
124670,229471,5
124670,229455,4
124667,229443,4
124652,229438,5
124648,229420,5
124633,229402,5
124626,229387,4
124620,229356,5
124612,229338,5
124605,229309,5
124593,229288,5
124575,229255,4
124580,229246,5
124582,229251,5
124596,229258,5
124590,229251,5
124592,229259,4
124593,229250,5
124589,229274,6
124581,229262,4
124572,229258,5
124558,229241,4
124553,229251,5
124552,229226,5
124534,229225,5
124518,229230,4
124513,229218,4
124509,229213,5
124504,229216,5
124509,229212,5
124499,229212,4
124501,229219,5
124500,229230,5
124495,229225,5
124493,229207,5
124468,229202,4
124177,229215,5
124460,229185,5
124447,229186,5
124453,229195,5
123793,229200,4
124444,229181,5
124436,229164,5
124428,229160,6
123631,229150,4
124423,229147,4
124410,229119,5
124409,229113,5
124450,229108,5
124417,229116,5
124418,229102,4
124409,229089,5
125091,229085,5
124414,229087,5
124408,229089,4
124412,229073,4
125219,229063,5
124418,229061,5
124418,229046,5
124416,229038,4
124726,229043,5
124423,229032,5
124426,229031,5
124426,229034,5
124461,228877,5
124433,229009,4
124442,229018,5
124446,229022,5
124466,228429,6
124473,229026,3
124473,229035,5
124490,229036,5
124492,228236,5
124493,229035,5
124505,229023,5
124506,229025,4
124500,228858,5
124516,229019,5
124505,229026,5
124506,229025,4
124521,229627,5
124518,229018,5
124527,229025,5
124528,229026,4
124530,229906,4
124528,229024,5
124525,229007,5
124525,229007,5
124514,229413,4
124514,228999,6
124503,228966,4
124488,228950,5
124490,229009,5
124477,228921,4
124473,228915,5
124462,228904,5
124452,228886,5
124454,228888,5
124447,228877,4
124449,228884,5
124460,228884,5
124442,228891,5
124451,228892,5
124448,228885,4
124456,228888,5
124452,228892,5
124456,228901,5
124468,228905,5
124460,228890,4
124467,228886,5
124462,228888,5
124461,228879,5
124437,228864,4
124416,228840,5
124403,228824,6
124397,228804,4
124383,228767,5
124374,228772,4
124346,228737,5
124348,228727,5
124338,228724,5
124340,228722,5
124337,228718,4
124342,228721,5
124341,228701,5
124339,228684,5
124331,228698,5
124339,228685,4
124330,228685,5
124326,228683,5
124332,228674,5
124333,228680,5
124330,228665,4
124319,228672,5
124321,228656,5
124313,228647,5
124318,228655,4
124316,228648,4
124313,228641,5
124314,228651,6
124315,228641,4
124316,228631,4
124314,228631,5
124317,228640,5
124323,228627,5
124322,228627,5
124328,228632,4
124337,228644,5
124325,228633,5
124328,228618,5
124325,228626,5
124322,228614,4
124325,228607,5
124316,228602,5
124321,228597,5
124321,228590,5
124318,228575,4
124319,228589,5
124330,228585,5
124321,228595,5
124316,228587,5
124318,228583,4
124324,228572,5
124320,228573,5
124313,228561,6
124320,228579,3
124320,228582,5
124323,228578,5
124329,228573,5
124069,228590,5
124339,228586,4
124348,228595,5
124344,228592,5
123695,228593,5
124363,228619,5
124372,228606,4
124371,228595,5
123586,228615,5
124386,228606,5
124390,228606,9
124388,228613,0
124413,228607,5
124383,228587,5
124388,228605,5
124400,228609,5
125087,228611,5
124390,228611,4
124403,228594,5
124387,228581,5
125193,228578,4
124391,228578,4
124390,228566,5
124392,228571,5
124671,228565,5
124376,228560,4
124374,228545,5
124375,228548,5
124412,228386,5
124378,228546,5
124372,228536,4
124383,228535,5
124384,227931,5
124374,228518,5
124386,228516,5
124377,228514,4
124376,227703,5
124364,228509,5
124360,228500,5
124364,228483,5
124354,228327,4
124365,228480,6
124360,228482,4
124356,228469,5
124356,229084,5
124361,228462,4
124367,228461,5
124365,228456,5
124371,229332,5
124367,228451,4
124373,228442,4
124375,228450,5
124363,228819,5
124366,228425,5
124355,228422,4
124362,228418,5
124363,228475,5
124363,228398,5
124367,228411,5
124365,228395,4
124380,228415,5
124391,228414,5
124402,228419,5
124408,228435,5
124412,228425,4
124421,228438,5
124420,228442,7
124439,228451,3
124456,228474,5
124469,228486,4
124477,228499,5
124476,228494,5
124462,228476,5
124452,228468,4
124452,228460,4
124455,228435,5
124447,228432,5
124445,228433,5
124459,228419,4
124448,228422,5
124460,228425,5
124468,228441,5
124486,228451,5
124498,228461,4
124509,228480,5
124519,228481,5
124527,228492,5
124540,228486,5
124551,228497,4
124563,228503,5
124567,228507,5
124566,228496,5
124562,228496,5
124551,228489,4
124550,228475,5
124545,228481,5
124546,228479,5
124548,228481,5
124539,228479,4
124532,228466,5
124526,228474,5
124531,228466,5
124538,228464,4
124518,228471,4
124515,228473,5
124508,228441,5
124483,228452,5
124480,228426,4
124460,228415,5
124440,228369,5
124412,228355,5
124383,228309,5
124356,228293,5
124331,228270,4
124296,228226,5
124264,228209,5
124258,228204,5
124246,228187,4
124232,228192,5
124242,228184,5
124223,228171,5
124228,228175,5
124238,228165,4
124240,228180,5
124239,228181,5
124251,228188,5
124267,228208,5
124290,228220,4
124290,228234,5
124305,228237,5
124324,228257,5
124336,228259,4
124341,228278,4
124133,228294,5
124370,228304,4
124383,228325,5
124392,228327,4
123774,228340,7
124398,228351,3
124407,228352,5
124403,228349,5
123594,228355,4
124385,228356,5
124396,228355,5
124409,228360,5
124379,228369,5
124426,228373,4
124429,228365,5
124444,228390,5
125097,228411,5
124470,228396,5
124478,228406,4
124471,228414,5
125327,228412,5
124481,228407,5
124471,228392,5
124473,228399,4
124801,228402,5
124468,228397,6
124467,228389,4
124472,228400,4
124523,228337,4
124466,228421,5
124462,228410,5
124462,228399,5
124471,227858,4
124460,228412,5
124469,228408,5
124461,228414,5
124465,227631,5
124476,228441,4
124493,228445,5
124498,228453,5
124506,228146,5
124487,228447,5
124457,228422,4
124435,228407,5
124420,228913,5
124394,228363,5
124376,228341,5
124349,228324,4
124346,229196,5
124348,228314,5
124340,228330,6
124352,228312,3
124358,228809,4
124366,228360,5
124377,228348,5
124389,228360,5
124405,228484,4
124410,228392,5
124415,228391,5
124426,228416,5
124451,228432,5
124458,228442,4
124464,228457,5
124465,228465,5
124470,228464,5
124473,228468,5
124469,228471,4
124466,228469,5
124474,228476,5
124473,228465,5
124476,228476,5
124472,228463,5
124475,228460,4
124467,228464,5
124465,228457,5
124460,228485,6
124479,228482,3
124475,228481,5
124465,228482,5
124467,228482,5
124471,228470,4
124461,228466,4
124446,228449,5
124443,228457,5
124447,228459,5
124447,228456,4
124435,228449,5
124436,228452,5
124435,228456,5
124444,228459,5
124442,228459,4
124454,228452,5
124454,228474,5
124458,228468,5
124468,228483,5
124480,228489,4
124490,228512,6
124509,228505,4
124517,228527,5
124527,228540,5
124532,228549,4
124548,228558,5
124575,228589,5
124582,228610,5
124596,228614,5
124626,228652,4
124651,228652,5
124658,228673,5
124672,228682,5
124692,228689,4
124697,228697,4
124715,228716,5
124729,228721,5
124742,228749,5
124762,228759,4
124766,228761,5
124782,228772,5
124796,228776,5
124790,228780,5
124804,228783,4
124806,228788,5
124814,228792,6
124821,228786,4
124832,228820,5
124842,228794,4
124856,228824,5
124861,228814,5
124865,228823,5
124862,228822,5
124870,228828,4
124874,228820,5
124880,228837,5
124882,228839,5
124773,228851,5
124873,228821,4
124868,228837,5
124843,228810,5
124270,228802,5
124830,228801,4
124806,228766,4
124803,228761,5
124017,228765,5
124802,228771,5
124803,228760,4
124808,228773,5
124565,228774,5
124816,228778,6
124819,228803,4
124819,228789,4
125381,228795,5
124825,228801,5
124823,228809,5
124824,228820,5
125668,228808,4
124814,228824,5
124829,228824,5
124834,228838,5
125253,228847,5
124843,228854,4
124840,228854,5
124838,228876,5
124915,228854,5
124834,228855,5
124822,228863,4
124823,228881,5
124827,228391,5
124816,228878,5
124821,228870,5
124825,228884,4
124827,228118,5
124830,228873,5
124820,228877,5
124825,228879,4
124833,228336,5
124824,228882,5
124838,228886,5
124825,228870,5
124836,229269,4
124833,228861,5
124856,228858,5
124865,228867,5
124868,229725,5
124882,228881,4
124894,228887,5
124887,228903,5
124909,229495,5
124926,228916,5
124945,228930,4
124968,228952,5
124971,229132,5
125000,228985,5
125032,229019,4
125056,229027,5
125093,229055,4
125115,229065,5
125149,229100,5
125176,229142,4
125216,229157,5
125246,229186,5
125267,229210,5
125297,229240,5
125336,229270,4
125343,229263,5
125351,229288,5
125381,229296,5
125393,229310,5
125403,229309,4
125417,229307,5
125425,229300,5
125427,229307,5
125420,229308,5
125419,229312,4
125426,229312,5
125414,229308,5
125406,229306,5
125413,229311,5
125411,229320,4
125410,229329,6
125403,229327,4
125398,229323,5
125400,229323,4
125409,229333,4
125416,229328,5
125403,229326,5
125391,229309,5
125377,229300,4
125377,229286,5
125362,229298,5
125369,229265,5
125354,229253,5
125348,229261,4
125339,229240,5
125341,229247,5
125332,229248,5
125341,229267,5
125356,229276,4
125361,229281,5
125360,229277,5
125354,229301,5
125354,229292,5
125357,229306,4
125366,229304,5
125364,229310,6
125370,229321,4
125381,229327,5
125385,229339,4
125389,229346,5
125392,229362,5
125404,229352,5
125409,229362,4
125425,229382,4
125434,229393,5
125447,229396,5
125450,229400,5
125447,229405,4
125453,229397,5
125455,229406,5
125472,229418,5
125480,229428,5
125496,229439,4
125492,229441,5
125498,229441,5
125509,229449,5
125518,229436,5
125516,229441,4
125525,229438,5
125523,229450,5
125536,229447,5
125540,229449,5
125546,229464,4
125135,229479,5
125573,229477,5
125586,229484,5
125588,229501,5
124850,229505,4
125608,229511,5
125625,229503,5
125630,229521,5
124942,229536,4
125653,229551,4
125678,229567,5
125689,229593,5
126021,229615,5
125753,229635,4
125785,229678,6
125819,229710,4
126658,229737,5
125894,229778,5
125913,229801,5
125944,229812,4
126615,229856,5
126019,229862,5
126035,229889,5
126064,229908,4
126279,229928,5
126094,229947,7
126106,229945,3
126121,229943,5
126153,229665,4
126153,229986,5
126150,229984,5
126164,229992,5
126165,229315,5
126170,230004,4
126181,229999,5
126172,229994,5
126169,229169,5
126174,230012,4
126191,230027,5
126207,230043,4
126217,230104,5
126223,230049,5
126209,230030,4
126190,230027,6
126183,230762,4
126182,230035,5
126176,230010,5
126171,229998,4
126153,230850,5
126142,229964,5
126131,229958,5
126126,229958,5
126133,230290,4
126140,229970,5
126143,229968,5
126128,229956,5
126134,229989,5
126117,229960,4
126123,229945,5
126111,229952,5
126107,229958,5
126108,229954,5
126110,229947,4
126100,229936,5
126107,229948,5
126111,229950,4
126108,229944,4
126116,229955,4
126114,229960,6
126113,229950,3
126104,229932,5
126092,229944,4
126098,229947,5
126105,229944,5
126095,229945,5
126098,229940,5
126092,229931,4
126091,229935,5
126093,229942,5
126086,229923,5
126080,229936,5
126095,229934,4
126087,229926,5
126067,229918,5
126071,229901,5
126047,229891,5
126055,229880,4
126056,229890,5
126057,229893,5
126053,229895,6
126046,229886,4
126043,229872,4
126038,229873,5
126041,229874,5
126025,229861,5
126029,229864,4
126033,229864,4
126026,229856,5
126029,229856,5
126028,229846,5
126033,229849,4
126034,229847,5
126038,229851,5
126026,229862,5
126034,229857,5
126038,229872,4
126041,229864,5
126043,229881,5
126043,229868,5
126038,229865,5
126042,229868,5
126034,229867,4
126036,229880,5
126044,229870,5
126044,229880,6
126046,229894,3
126060,229892,5
126062,229884,5
126059,229896,5
126062,229890,5
126068,229888,4
126068,229898,5
126064,229886,5
126074,229897,5
126065,229899,4
126057,229878,5
126055,229880,5
126044,229877,5
126039,229868,5
126031,229852,4
126015,229846,5
125986,229823,5
125963,229817,5
125714,229800,5
125942,229809,4
125930,229807,6
125926,229782,4
125271,229784,5
125918,229808,5
125930,229814,6
125934,229815,3
125118,229815,5
125934,229817,5
125932,229833,5
125929,229808,4
125874,229791,5
125900,229783,5
125897,229772,5
125891,229774,5
126545,229757,4
125879,229725,5
125860,229705,5
125845,229687,5
126692,229695,4
125835,229689,5
125843,229698,5
125847,229709,5
126170,229694,5
125846,229700,4
125847,229703,5
125856,229712,6
125904,229619,4
125851,229694,5
125844,229715,4
125866,229715,5
125870,229148,5
125871,229725,5
125874,229722,5
125874,229728,4
125883,228936,5
125892,229742,5
125891,229741,5
125898,229743,5
125903,229462,4
125904,229755,5
125904,229745,5
125889,229740,5
125884,230278,4
125897,229747,4
125902,229743,5
125896,229738,5
125912,230627,5
125902,229744,4
125884,229739,5
125898,229726,5
125899,230202,6
125890,229720,4
125886,229728,4
125878,229719,5
125868,229830,5
125871,229724,5
125865,229727,5
125862,229704,4
125864,229715,5
125855,229700,5
125835,229697,5
125835,229687,5
125842,229687,4
125830,229684,5
125824,229675,5
125814,229673,5
125818,229670,5
125811,229664,4
125812,229667,5
125810,229661,5
125802,229664,5
125814,229673,5
125820,229666,4
125826,229667,5
125822,229678,5
125823,229677,6
125824,229678,3
125804,229662,5
125802,229675,5
125808,229676,5
125791,229671,5
125791,229658,4
125785,229654,5
125778,229649,5
125762,229653,5
125750,229636,5
125747,229623,4
125732,229621,5
125724,229618,5
125733,229610,5
125717,229612,5
125709,229614,4
125701,229596,5
125682,229594,5
125678,229583,5
125661,229572,5
125650,229556,5
125628,229542,4
125620,229528,5
125597,229503,5
125571,229489,4
125553,229471,4
125546,229458,5
125518,229445,5
125529,229441,5
125517,229435,4
125501,229422,5
125494,229418,5
125500,229412,5
125498,229418,5
125509,229414,4
125496,229415,5
125504,229422,5
125496,229416,5
125506,229423,5
125506,229416,4
125501,229412,5
125502,229412,5
125504,229421,5
125488,229401,5
125459,229368,4
125465,229370,6
125456,229354,4
125450,229357,5
125459,229342,5
125432,229318,4
125419,229312,5
125426,229295,5
125428,229310,5
125433,229315,4
125447,229315,5
125396,229328,5
125460,229312,5
125469,229313,5
125472,229325,4
124930,229326,5
125479,229337,5
125499,229338,5
125494,229339,5
124716,229334,4
125509,229347,5
125504,229352,5
125520,229361,5
125197,229364,5
125550,229375,4
125544,229379,5
125551,229381,6
126059,229374,4
125548,229386,5
125558,229392,4
125554,229373,5
126408,229384,5
125553,229392,5
125570,229410,4
125573,229400,4
126038,229402,5
125585,229404,5
125575,229417,5
125574,229406,4
125688,229393,5
125564,229385,5
125565,229384,5
125569,229383,5
125568,228933,4
125567,229389,5
125566,229391,5
125566,229373,5
125554,228629,5
125553,229364,4
125567,229375,5
125560,229377,5
125561,228742,6
125571,229369,4
125561,229372,5
125565,229373,4
125567,229721,5
125564,229373,5
125559,229373,5
125559,229371,4
125565,230212,5
125561,229376,5
125564,229377,5
125563,229378,4
125561,230024,4
125568,229382,5
125567,229393,5
125567,229392,5
125568,229577,4
125570,229397,5
125567,229389,5
125571,229397,5
125573,229413,5
125569,229388,5
125562,229400,4
125554,229388,5
125562,229392,5
125565,229394,5
125557,229373,4
125538,229364,5
125541,229384,5
125538,229367,5
125528,229370,5
125525,229368,4
125532,229353,5
125515,229369,5
125507,229350,5
125507,229340,5
125510,229350,4
125500,229343,5
125501,229332,5
125488,229337,5
125485,229330,4
125488,229331,4
125482,229327,5
125469,229323,5
125467,229310,5
125463,229308,4
125457,229305,6
125461,229293,4
125453,229287,5
125445,229283,5
125451,229284,4
125434,229292,5
125435,229279,5
125423,229270,5
125416,229259,5
125409,229244,4
125388,229229,5
125377,229224,5
125386,229226,5
125367,229210,5
125348,229183,4
125337,229175,5
125328,229169,5
125325,229174,5
125325,229169,5
125324,229180,4
125318,229175,5
125331,229173,5
125318,229180,5
125312,229187,4
125328,229176,5
125315,229193,6
125328,229180,4
125324,229199,5
125328,229195,4
125317,229185,5
125295,229178,5
125275,229123,5
125241,229116,5
125236,229101,4
125212,229076,5
125203,229055,5
125192,229050,5
125166,229000,5
125157,228993,4
125151,228998,5
125147,228999,5
125157,228991,5
125155,228996,5
125155,228991,4
125156,228986,5
125147,228984,5
125153,228990,5
125148,228992,4
125150,228990,4
125159,228990,5
125154,228988,5
124785,228991,5
125153,228992,4
125152,229000,5
125145,228979,5
124439,228983,5
125143,228973,5
125136,228962,4
125144,228965,5
124328,228949,5
125124,228943,5
125129,228952,5
125112,228936,4
125293,228941,5
125121,228947,5
125109,228969,5
125115,228960,5
125866,228959,5
125125,228962,4
125107,228947,5
125107,228920,5
125826,228924,6
125090,228909,3
125062,228891,5
125073,228883,5
125317,228874,5
125048,228863,4
125052,228858,4
125057,228861,5
125064,228648,5
125037,228843,5
125034,228834,4
125039,228850,5
125035,228216,5
125049,228843,5
125043,228836,5
125039,228843,4
125048,228042,5
125046,228850,5
125046,228855,5
125050,228857,9
125051,228729,0
125051,228865,6
125057,228822,4
125057,228859,5
125056,229492,5
125068,228872,6
125066,228883,3
125079,228889,5
125077,229776,5
125084,228886,5
125081,228884,4
125099,228881,5
125099,229293,5
125107,228897,5
125108,228896,4
125105,228905,4
125116,228973,5
125118,228897,5
125122,228902,5
125118,228895,4
125122,228898,5
125128,228914,5
125118,228889,5
125119,228904,5
125112,228901,4
125111,228888,5
125103,228881,6
125077,228893,4
125076,228895,5
125064,228889,4
125041,228872,5
125051,228887,5
125036,228877,5
125030,228876,5
125009,228854,4
124982,228842,5
124979,228837,5
124946,228798,5
124918,228788,5
124904,228760,4
124881,228744,5
124855,228704,5
124843,228688,5
124814,228673,4
124805,228656,4
124781,228651,5
124773,228664,5
124771,228659,5
124755,228660,4
124739,228655,5
124731,228658,5
124717,228661,6
124692,228661,4
124674,228641,4
124675,228640,5
124669,228636,5
124662,228627,5
124657,228617,5
124637,228606,4
124603,228578,5
124556,228543,5
124539,228520,5
124522,228513,5
124510,228500,4
124511,228498,5
124514,228483,5
124492,228490,5
124498,228475,5
124507,228475,4
124520,228488,5
124536,228491,5
124518,228493,5
124525,228493,5
124542,228514,4
124539,228520,5
124566,228516,5
124576,228547,6
124601,228560,3
124615,228572,5
124632,228586,5
124650,228588,5
124676,228609,5
124690,228623,4
124727,228643,5
124734,228637,5
124754,228653,5
124766,228663,5
124771,228676,4
124777,228664,5
124769,228670,5
124785,228662,5
124781,228673,5
124784,228677,4
124776,228691,5
124790,228681,5
124787,228678,5
124772,228673,5
124301,228682,5
124788,228683,4
124779,228671,5
124767,228668,5
124021,228667,6
124769,228649,3
124773,228664,5
124772,228654,5
124227,228669,5
124790,228649,4
124802,228678,5
124813,228694,5
125187,228688,5
124821,228683,5
124828,228696,4
124841,228705,5
125661,228727,5
124878,228727,5
124898,228766,5
124918,228774,4
125501,228803,5
124937,228808,5
124960,228824,5
124973,228835,5
125153,228834,4
124999,228870,6
125020,228881,4
125038,228878,5
125057,228547,5
125068,228901,4
125086,228918,5
125109,228945,5
125125,228257,5
125141,228957,4
125155,228971,4
125160,228973,5
125172,228181,5
125178,228986,5
125185,228996,5
125182,228974,4
125173,229082,5
125167,228965,5
125157,228965,5
125155,228965,4
125156,229701,5
125146,228936,5
125153,228956,5
125162,228943,5
125165,229760,4
125166,228958,5
125166,228954,6
125175,228962,4
125169,229267,5
125185,228981,4
125202,229007,5
125217,229008,5
125226,229049,5
125231,229003,5
125217,228998,4
125200,229003,5
125202,228994,5
125207,228985,5
125191,228958,4
125183,228956,5
125188,228953,5
125201,228966,5
125186,228950,5
125186,228955,4
125204,228985,5
125218,228995,5
125230,229003,5
125233,228996,5
125252,229013,4
125265,229032,5
125286,229045,5
125322,229081,6
125335,229098,4
125377,229111,4
125402,229149,5
125433,229178,5
125480,229209,5
125506,229246,5
125528,229270,4
125544,229277,5
125559,229292,5
125589,229299,5
125603,229304,5
125598,229319,4
125609,229317,5
125609,229335,5
125619,229326,5
125614,229340,4
125617,229344,5
125612,229339,5
125615,229334,5
125616,229346,5
125629,229339,5
125617,229335,4
125615,229340,5
125604,229319,5
125594,229331,5
125609,229335,4
125624,229343,5
125619,229348,5
125636,229355,5
125646,229359,5
125653,229366,4
125672,229373,5
125673,229376,5
125690,229374,5
125710,229417,5
125735,229432,4
125767,229450,5
125783,229461,5
125808,229492,5
125844,229514,5
125881,229550,4
125921,229576,5
125962,229608,5
125991,229651,5
126047,229682,4
126081,229697,5
126129,229733,4
126138,229755,5
126177,229772,5
126203,229798,4
126227,229809,5
126260,229834,5
126276,229842,5
126281,229856,5
126308,229861,4
126326,229860,5
126345,229864,5
126165,229874,5
126346,229891,5
126357,229865,4
126356,229881,5
125737,229885,5
126356,229873,5
126363,229860,5
126349,229862,4
125536,229865,5
126353,229860,5
126346,229860,5
126359,229869,5
126188,229890,4
126367,229884,6
126382,229875,4
126385,229888,5
126978,229873,4
126377,229868,5
126366,229874,5
126353,229863,5
127231,229852,5
126358,229837,4
126333,229828,5
126340,229813,5
126737,229817,5
126322,229806,5
126332,229828,4
126342,229839,5
126441,229846,5
126361,229866,5
126368,229861,5
126380,229876,4
126385,229395,5
126401,229902,5
126431,229909,6
126446,229923,4
126445,229157,4
126467,229956,5
126481,229962,5
126495,229985,5
126519,229444,5
126534,230010,4
126551,230024,5
126571,230038,5
126579,230466,5
126593,230063,4
126612,230058,5
126628,230078,5
126632,230948,5
126647,230093,5
126676,230099,4
126682,230127,5
126697,230755,5
126709,230140,5
126716,230141,5
126738,230154,4
126747,230338,5
126742,230157,5
126735,230134,5
126727,230141,5
126723,230139,4
126722,230122,5
126723,230115,5
126726,230127,5
126728,230135,5
126724,230129,4
126722,230119,5
126723,230132,5
126723,230134,5
126735,230142,4
126734,230143,4
126741,230146,5
126747,230156,5
126744,230152,5
126757,230164,4
126769,230181,5
126781,230190,5
126798,230203,5
126812,230224,5
126832,230233,4
126848,230239,5
126870,230270,5
126894,230281,5
126917,230302,5
126946,230320,5
126950,230332,3
126986,230345,5
127000,230344,5
127016,230352,5
127021,230361,4
127035,230361,5
127041,230364,5
127056,230360,5
127058,230378,5
127065,230364,4
127071,230360,5
127071,230365,5
127061,230354,5
127067,230355,4
127076,230361,4
127074,230376,5
127101,230393,5
127094,230393,5
127107,230386,4
127088,230377,5
127090,230367,6
127082,230375,4
127084,230366,5
127075,230350,4
127061,230345,7
127063,230338,3
127057,230341,5
127054,230340,5
127073,230360,4
127086,230371,5
127101,230377,5
127109,230389,5
127120,230407,5
127127,230408,4
127133,230400,5
127149,230436,5
127149,230428,5
127166,230439,5
127183,230451,4
127194,230477,5
127191,230476,5
127221,230495,5
127231,230501,4
127238,230519,4
127260,230534,5
127272,230539,6
127275,230529,4
127280,230533,4
127271,230544,5
127297,230556,5
127297,230568,5
127292,230560,5
126905,230567,4
127321,230589,5
127331,230582,5
127333,230601,5
126606,230611,5
127361,230596,4
127362,230618,5
127353,230608,5
126547,230606,5
127353,230612,5
127356,230612,4
127366,230627,5
127602,230636,5
127379,230628,5
127376,230618,5
127384,230621,4
128175,230629,5
127388,230625,5
127388,230628,6
127396,230630,3
128114,230635,4
127407,230642,5
127435,230653,5
127433,230665,5
127689,230684,4
127448,230674,5
127465,230695,5
127488,230711,5
127516,230471,5
127500,230724,4
127512,230741,5
127518,230737,5
127521,230073,5
127539,230746,5
127548,230751,4
127555,230750,5
127551,229928,5
127550,230758,5
127546,230759,5
127555,230754,5
127548,230698,4
127544,230742,5
127536,230740,5
127543,230735,6
127545,231433,3
127529,230754,5
127539,230751,5
127535,230760,5
127545,231683,4
127547,230765,5
127540,230770,7
127534,230762,3
127513,231104,5
127499,230740,4
127493,230737,5
127485,230706,5
127465,230750,5
127450,230679,5
127427,230673,4
127411,230642,5
127414,230635,5
127409,230633,5
127406,230636,5
127410,230638,4
127399,230647,6
127401,230628,4
127401,230634,5
127409,230641,5
127395,230629,4
127387,230635,5
127386,230627,5
127392,230631,5
127389,230620,4
127376,230613,4
127384,230616,5
127378,230622,5
127372,230623,5
127379,230614,4
127374,230621,5
127368,230590,5
127362,230595,5
127344,230589,5
127340,230589,4
127327,230580,5
127327,230574,5
127322,230572,5
127319,230552,5
127308,230564,4
127313,230560,5
127294,230541,6
127291,230546,4
127278,230502,5
127252,230498,4
127240,230470,5
127212,230453,5
127206,230459,5
127194,230441,5
127179,230422,4
127171,230411,5
127153,230406,5
127129,230366,5
127115,230367,4
127081,230349,4
127081,230332,5
127066,230321,5
127053,230302,5
127046,230314,4
127035,230292,5
127027,230300,5
127030,230298,5
127029,230294,5
127030,230307,4
127019,230307,5
127023,230296,5
127026,230304,6
127021,230320,4
127031,230310,4
127031,230312,5
127029,230321,5
127030,230311,5
127015,230294,5
127023,230304,4
127012,230287,5
127003,230286,5
127002,230285,5
126993,230278,5
126990,230280,4
126977,230282,5
126993,230273,5
126981,230270,5
126976,230267,4
126972,230265,4
126968,230265,5
126861,230251,5
126944,230230,5
126928,230223,5
126933,230203,4
126345,230202,5
126909,230176,5
126899,230175,6
126885,230147,3
126074,230157,5
126864,230156,5
126863,230139,5
126865,230135,5
126530,230145,4
126851,230143,5
126851,230132,5
126854,230131,5
127375,230133,5
126850,230152,4
126853,230155,5
126843,230144,5
127697,230123,5
126826,230127,5
126792,230108,4
126776,230077,5
127238,230046,5
126738,230045,5
126730,230024,4
126713,230015,5
126799,229989,4
126683,229977,5
126689,229992,5
126698,229986,4
126682,229530,5
126685,229993,5
126685,229971,5
126687,229967,5
126679,229202,4
126674,229976,5
126676,229977,5
126674,229980,5
126689,229260,5
126670,229969,4
126671,229974,5
126663,229978,5
126661,230297,5
126658,229984,5
126665,229990,4
126667,229987,5
126657,230818,5
126658,229970,5
126652,229974,5
126646,229951,4
126638,230610,6
126631,229941,4
126611,229934,5
126611,229928,4
126610,230129,4
126589,229931,5
126579,229912,5
126574,229913,5
126561,229905,4
126554,229899,5
126548,229875,5
126534,229892,5
126517,229867,5
126521,229866,4
126515,229848,5
126517,229848,5
126502,229852,5
126512,229837,5
126510,229855,4
126511,229857,5
126509,229843,5
126508,229841,5
126504,229824,5
126499,229840,4
126501,229836,5
126505,229839,6
126510,229826,4
126500,229825,5
126491,229820,4
126491,229831,5
126499,229831,5
126494,229804,5
126505,229829,4
126518,229840,5
126509,229821,5
126526,229841,5
126520,229839,5
126534,229853,4
126538,229855,5
126543,229838,5
126539,229851,5
126545,229854,5
126553,229865,4
126551,229851,5
126560,229872,5
126557,229869,5
126553,229858,5
126557,229883,4
126568,229874,5
126569,229883,5
126576,229892,5
126560,229876,5
126574,229875,4
126561,229853,5
126556,229853,5
126545,229854,5
126546,229826,5
126521,229823,4
126511,229804,5
126504,229799,5
126497,229791,5
126490,229784,4
126492,229784,5
126476,229775,5
126481,229785,5
126482,229785,5
126474,229777,4
126475,229783,5
126476,229786,5
126472,229766,5
126479,229772,5
126475,229780,5
126474,229783,4
126456,229768,5
126445,229754,5
126437,229734,5
126421,229729,4
126404,229715,5
126393,229687,5
126383,229679,5
126372,229656,5
126342,229638,4
126325,229612,5
126313,229619,5
126310,229603,5
125936,229604,4
126313,229612,4
126319,229598,5
126311,229611,5
125590,229611,5
126309,229599,4
126307,229599,5
126307,229593,5
125490,229589,5
126307,229600,5
126303,229591,4
126286,229602,6
126503,229581,4
126288,229580,5
126284,229587,5
126284,229560,4
127046,229564,5
126274,229568,5
126273,229563,5
126269,229558,5
126956,229553,4
126246,229549,5
126237,229539,5
126235,229537,5
126469,229537,5
126229,229547,4
126227,229524,5
126205,229519,5
126211,229257,5
126183,229498,4
126174,229479,4
126161,229468,5
126150,228807,5
126140,229464,4
126141,229453,5
126128,229435,4
126124,228624,5
126119,229428,5
126122,229432,5
126114,229434,4
126110,229385,5
126115,229427,5
126100,229421,5
126102,229411,5
126095,230086,4
126101,229411,5
126095,229415,5
126085,229413,5
126079,230308,5
126070,229396,4
126071,229399,5
126064,229391,5
126058,229771,5
126060,229388,5
126049,229394,4
126052,229387,5
126058,229459,5
126060,229397,6
126052,229387,3
126050,229388,4
126052,229389,5
126051,229393,5
126047,229395,5
126039,229380,4
126040,229380,5
126031,229369,5
126034,229371,5
126030,229370,5
126026,229361,4
126029,229359,5
126017,229336,5
126009,229352,5
126011,229349,5
126004,229345,4
125994,229337,5
125980,229338,5
125991,229325,5
125977,229328,5
125980,229318,5
125967,229300,4
125961,229304,5
125945,229291,5
125945,229290,6
125943,229279,3
125931,229267,5
125915,229243,5
125903,229236,5
125883,229226,4
125873,229218,4
125857,229215,5
125853,229223,5
125844,229198,5
125830,229178,4
125819,229165,5
125798,229160,5
125792,229149,5
125776,229138,5
125754,229120,4
125746,229106,5
125742,229101,5
125724,229094,5
125718,229085,5
125705,229074,4
125694,229076,6
125680,229072,4
125689,229064,5
125682,229064,5
125682,229053,6
125684,229055,3
125656,229044,5
125649,229025,5
125631,229009,5
125612,229005,4
125602,228973,5
125581,228960,5
125557,228916,5
125533,228871,4
125487,228836,4
125450,228797,5
125409,228761,5
125388,228750,5
125364,228718,4
125361,228720,5
125356,228717,5
125362,228715,5
125361,228716,5
125354,228719,4
125359,228739,5
125354,228736,6
125354,228742,4
125355,228745,5
125360,228750,4
125376,228758,5
125219,228747,5
125339,228742,5
125291,228708,5
125282,228679,4
124690,228657,5
125252,228626,5
125238,228621,5
125234,228614,5
124425,228586,4
125229,228582,5
125217,228588,5
125219,228586,5
124999,228602,4
125221,228596,4
125234,228603,5
125232,228584,5
125793,228596,5
125244,228595,4
125237,228596,5
125242,228592,5
126089,228596,6
125239,228586,4
125253,228595,4
125266,228596,5
125690,228589,5
125265,228596,5
125262,228597,5
125279,228600,4
125374,228598,5
125282,228608,5
125288,228618,5
125279,228612,5
125281,228128,4
125281,228603,5
125277,228602,5
125278,228595,5
125278,227827,5
125267,228594,4
125279,228602,5
125275,228598,5
125278,228041,5
125266,228597,5
125278,228601,5
125268,228607,4
125273,228992,5
125270,228585,6
125263,228592,3
125270,228593,5
125287,229459,5
125288,228618,5
125289,228609,5
125289,228625,4
125305,229225,5
125305,228642,5
125335,228641,5
125348,228667,5
125356,228829,4
125369,228678,5
125394,228705,5
125422,228723,5
125428,228749,5
125451,228740,4
125471,228767,5
125495,228782,5
125529,228810,9
125542,228823,0
125562,228823,5
125578,228811,4
125614,228857,5
125618,228885,5
125628,228878,4
125649,228902,5
125660,228910,5
125680,228918,5
125702,228918,5
125715,228938,4
125732,228944,5
125738,228973,5
125763,228982,5
125781,228998,5
125776,228999,4
125795,229015,5
125802,229020,5
125811,229023,5
125822,229017,5
125823,229038,4
125830,229028,5
125823,229014,5
125830,229017,5
125826,229031,5
125826,229015,4
125827,229003,6
125830,229002,4
125814,228995,5
125827,229006,4
125810,228993,4
125816,229001,5
125809,228988,5
125807,228980,5
125803,228964,4
125796,228964,5
125802,228966,5
125804,228985,5
125806,228974,5
125804,228991,4
125812,228996,5
125821,229001,5
125821,229008,5
125836,228999,5
125835,229019,4
125849,229046,5
125856,229047,5
125861,229039,5
125860,229040,5
125855,229038,4
125846,229029,5
125844,229037,6
125831,229015,4
125846,229025,5
125834,229011,4
125828,229003,5
125824,229000,5
125822,228989,5
125817,228979,4
125815,228994,4
125837,229006,5
125849,229017,5
125850,229024,5
125856,229015,4
125852,229029,5
125879,229049,5
125884,229040,5
125896,229053,5
125903,229068,4
125943,229095,5
125957,229101,5
125971,229119,5
125466,229129,5
126008,229146,4
126024,229159,5
126038,229177,5
125256,229168,5
126054,229178,5
126069,229172,4
126072,229186,5
125674,229186,5
126081,229195,5
126089,229207,5
126099,229220,4
126602,229228,5
126138,229228,5
126140,229252,5
126139,229257,4
127000,229244,5
126140,229243,5
126150,229240,5
126153,229238,5
126645,229251,4
126154,229249,5
126165,229232,5
126163,229244,5
126292,229251,5
126178,229244,5
126183,229254,4
126188,229256,5
126200,228843,5
126213,229287,5
126233,229297,4
126241,229319,5
126242,228567,5
126261,229332,5
126272,229338,5
126290,229340,4
126299,228643,5
126312,229376,5
126330,229403,5
126356,229423,5
126372,229751,4
126391,229458,5
126412,229473,5
126437,229504,5
126471,230364,4
126490,229543,5
126517,229570,6
126533,229582,4
126550,230264,5
126569,229609,4
126582,229611,7
126594,229629,3
126611,229838,5
126635,229657,5
126645,229653,4
126663,229658,5
126668,229666,5
126675,229659,5
126671,229654,5
126674,229663,4
126676,229653,5
126672,229643,5
126673,229643,5
126668,229633,5
126678,229646,4
126675,229639,5
126670,229647,5
126680,229632,5
126688,229638,5
126675,229635,4
126677,229653,5
126684,229637,5
126679,229662,5
126687,229660,4
126699,229657,5
126704,229682,6
126710,229678,4
126718,229661,5
126711,229673,4
126702,229649,5
126686,229657,5
126676,229645,5
126689,229657,5
126687,229630,4
126675,229620,5
126670,229625,5
126664,229622,5
126659,229607,5
126658,229605,4
126664,229627,5
126686,229643,5
126682,229647,5
126696,229655,5
126705,229652,4
126706,229668,5
126719,229678,5
126731,229676,5
126743,229700,4
126765,229705,4
126787,229726,5
126814,229749,5
126831,229764,5
126848,229785,4
126865,229805,5
126891,229827,5
126908,229837,5
126935,229857,5
126949,229879,4
126953,229877,5
126961,229883,5
126984,229888,5
126998,229913,5
127013,229910,4
127029,229941,5
127025,229940,5
127049,229948,5
127057,229952,5
127069,229960,5
127066,229946,4
127072,229953,5
127064,229938,5
127059,229940,6
127058,229941,3
127054,229939,5
127064,229940,5
127053,229943,5
127063,229943,4
127077,229944,4
127070,229941,5
127076,229950,5
127094,229960,5
127093,229964,4
127105,229962,5
126750,229976,5
127120,229974,5
127133,229983,5
127144,230008,4
126441,230018,5
127189,230047,5
127205,230070,5
127232,230079,5
126431,230108,4
127301,230140,6
127329,230176,4
127344,230194,5
127538,230210,5
127411,230229,6
127432,230247,3
127462,230252,5
128216,230276,5
127488,230285,5
127505,230289,4
127517,230296,5
128308,230302,5
127526,230304,5
127531,230306,4
127527,230292,4
127811,230291,5
127525,230286,5
127523,230276,5
127523,230276,4
127545,230095,5
127528,230276,5
127523,230284,5
127531,230293,5
127522,229651,4
127523,230304,5
127535,230298,6
127541,230301,4
127531,229472,5
127527,230298,4
127523,230286,5
127515,230280,5
127509,230143,5
127519,230257,5
127502,230247,4
127485,230241,5
127492,230895,5
127488,230234,5
127490,230239,5
127503,230258,4
127507,231181,5
127531,230269,5
127550,230284,5
127549,230299,4
127566,230712,4
127579,230343,5
127605,230353,5
127616,230353,5
127633,230447,4
127648,230379,5
127657,230409,5
127677,230417,6
127679,230414,4
127686,230421,4
127697,230444,5
127696,230451,5
127708,230440,5
127703,230445,5
127709,230446,4
127712,230443,5
127708,230448,5
127720,230447,5
127716,230466,5
127719,230462,4
127718,230462,5
127730,230481,5
127746,230484,5
127761,230491,5
127765,230491,4
127746,230487,5
127730,230478,5
127709,230478,5
127700,230462,5
127691,230452,4
127657,230450,5
127649,230433,5
127628,230423,6
127627,230409,3
127612,230414,5
127589,230388,5
127577,230379,5
127543,230373,5
127528,230364,4
127531,230352,5
127516,230366,5
127502,230378,5
127508,230385,5
127496,230400,4
127478,230395,5
127476,230403,5
127451,230393,5
127441,230398,5
127436,230406,4
127427,230422,5
127412,230429,5
127409,230438,5
127401,230433,5
127367,230413,5
127347,230419,4
127307,230394,5
127252,230387,5
127184,230351,6
127098,230299,3
127008,230253,5
126906,230196,5
126814,230160,5
126733,230097,4
126644,230032,5
126542,229992,5
126457,229963,5
126413,229956,5
126372,229972,4
126368,229983,5
126361,230011,5
126320,230005,5
126299,230014,5
126239,230009,4
126175,229995,5
126087,229960,5
125976,229907,5
125863,229859,5
125779,229803,4
125689,229753,6
125554,229637,4
125418,229520,5
125193,229452,5
125203,229388,4
125115,229346,5
125023,229293,5
124391,229261,5
124921,229283,4
124900,229298,4
124867,229314,5
124041,229291,5
124795,229287,5
124765,229303,4
124737,229300,5
124381,229293,5
124641,229299,5
124592,229294,5
124548,229327,4
125007,229323,5
124454,229324,5
124424,229345,5
124395,229373,5
125168,229372,4
124304,229360,5
124272,229332,6
124238,229327,4
124666,229330,5
124171,229328,4
124136,229329,5
124123,229338,5
124222,229359,5
124131,229401,5
124137,229412,4
124125,229386,5
124108,228964,5
124123,229384,5
124136,229406,4
124154,229420,4
124150,228682,5
124147,229395,5
124166,229395,5
124203,229422,4
124251,228764,5
124314,229487,5
124384,229547,5
124469,229610,5
124602,229993,4
124722,229769,5
124879,229873,5
125027,229980,6
125199,230910,4
125344,230196,4
125480,230289,5
125602,230347,5
125718,231109,5
125854,230533,5
125965,230632,4
126075,230685,5
126142,230952,5
126212,230785,5
126271,230813,5
126320,230839,4
126374,230882,5
126428,230903,5
126480,230926,5
126531,230942,4
126566,230953,5
126603,230952,5
126631,230957,5
126670,230969,5
126697,230954,5
126726,230954,4
126762,230952,5
126789,230967,5
126823,230986,5
126839,230986,4
126857,230999,5
126867,231001,5
126871,231009,5
126886,231012,5
126907,231028,4
126924,231028,7
126934,231025,3
126934,231028,5
126939,231025,5
126933,231024,4
126942,231014,5
126926,231003,5
126923,230982,5
126914,230951,5
126909,230960,4
126901,230946,5
126901,230929,5
126900,230938,5
126921,230942,4
126927,230936,6
126921,230941,4
126928,230940,5
126931,230941,5
126935,230938,4
126935,230935,5
126945,230947,5
126955,230949,5
126961,230957,5
126962,230946,4
126978,230956,5
126968,230961,5
126970,230962,5
126970,230969,5
126971,230948,4
126968,230957,5
126962,230947,5
126961,230944,5
126959,230944,5
126959,230948,4
126951,230932,5
126948,230939,5
126959,230937,5
126944,230928,5
126955,230946,4
126958,230940,6
126948,230942,4
126938,230923,5
126935,230924,4
126923,230899,5
126907,230902,5
126912,230893,5
126913,230893,5
126925,230904,4
126921,230893,5
126919,230894,5
126922,230890,5
126913,230876,5
126905,230860,4
126895,230856,5
126907,230849,5
126905,230836,5
126909,230825,5
126911,230830,4
126609,230814,5
126920,230816,5
126916,230819,5
126924,230818,5
126241,230826,4
126928,230809,5
126928,230816,5
126931,230826,5
126121,230821,5
126945,230824,4
126952,230833,5
126962,230835,5
126945,230843,5
126966,230838,4
126969,230817,5
126980,230829,5
127655,230832,5
126987,230836,5
126988,230827,4
126973,230824,5
127854,230828,5
126973,230810,5
126968,230808,5
126964,230790,4
127321,230806,5
126975,230799,5
126975,230788,5
126974,230793,5
127018,230706,4
126959,230786,5
126965,230770,5
126958,230782,5
126960,230209,5
126951,230766,4
126945,230739,5
126926,230739,5
126921,229923,5
126908,230712,4
126898,230698,4
126876,230673,4
126856,230259,5
126850,230630,5
126835,230621,4
126812,230622,5
126806,231112,5
126795,230591,5
126770,230583,5
126758,230569,4
126753,231453,5
126740,230565,4
126727,230553,5
126707,230550,5
126695,231070,5
126673,230527,3
126666,230522,5
126666,230519,5
126652,230647,5
126638,230507,4
126604,230480,5
126566,230460,5
126523,230432,5
126476,230396,5
126443,230351,4
126402,230322,5
126362,230266,5
126309,230215,5
126273,230168,5
126233,230138,4
126209,230138,5
126190,230125,5
126172,230107,5
126129,230076,4
126114,230064,5
126082,230041,6
126044,230033,4
126022,230020,5
126001,230019,4
125987,230024,7
125974,230015,3
125959,230011,5
125933,229988,5
125914,229949,4
125865,229927,5
125832,229895,5
125790,229860,5
125742,229822,5
125695,229804,4
125658,229772,5
125626,229733,5
125595,229727,5
125562,229697,5
125524,229684,4
125521,229673,5
125510,229685,5
125492,229666,5
125488,229677,4
125466,229660,4
125439,229638,5
125426,229625,6
125427,229626,4
125431,229621,4
125413,229609,5
125427,229610,5
125427,229618,5
125434,229617,5
125437,229620,4
125427,229615,5
125417,229612,5
125419,229604,5
125413,229598,5
125398,229580,4
125395,229587,5
125399,229577,5
125397,229586,5
125400,229580,5
125402,229576,4
125409,229562,5
125403,229562,5
125421,229569,5
125428,229561,5
125440,229579,4
125452,229576,5
125460,229590,5
125476,229611,6
125496,229628,3
125507,229642,4
125519,229661,5
125533,229661,5
125549,229674,5
125566,229681,4
125573,229694,5
125586,229693,5
125611,229723,5
125620,229716,5
125650,229743,4
125677,229760,5
125697,229772,5
125266,229775,5
125736,229776,5
125754,229784,4
125766,229788,5
125025,229788,5
125783,229777,5
125786,229779,5
125801,229776,5
125166,229787,4
125813,229777,5
125822,229778,5
125820,229765,6
126132,229761,3
125816,229749,5
125813,229741,5
125811,229731,5
126595,229710,4
125793,229707,4
125789,229690,5
125780,229674,5
126420,229679,5
125792,229670,4
125787,229663,5
125785,229659,5
125984,229655,5
125776,229660,5
125781,229671,4
125775,229667,5
125795,229379,5
125791,229675,5
125791,229676,5
125812,229698,4
125808,229035,6
125825,229697,4
125822,229720,5
125830,229722,5
125822,228886,4
125814,229687,5
125800,229677,5
125807,229655,5
125790,229663,5
125774,229614,4
125761,229591,5
125748,229575,5
125735,230256,5
125724,229541,4
125721,229537,4
125729,229553,5
125742,230431,5
125728,229551,5
125739,229552,4
125746,229546,5
125743,229886,5
125749,229549,5
125739,229534,5
125750,229543,4
125755,229594,5
125753,229544,6
125753,229535,4
125755,229534,5
125762,229540,4
125753,229526,5
125763,229551,5
125762,229529,5
125767,229531,5
125763,229527,4
125761,229531,5
125756,229525,5
125755,229509,5
125754,229507,5
125748,229493,4
125755,229497,5
125745,229499,5
125752,229493,5
125742,229488,4
125738,229480,4
125722,229464,5
125718,229453,5
125706,229436,5
125704,229444,4
125695,229429,5
125672,229415,5
125680,229415,6
125678,229407,4
125666,229388,4
125662,229390,5
125652,229380,5
125645,229376,5
125643,229375,5
125639,229368,4
125643,229363,5
125627,229357,5
125623,229345,5
125622,229350,5
125602,229328,4
125603,229326,5
125596,229326,5
125599,229323,5
125589,229318,5
125597,229318,4
125588,229318,5
125578,229321,5
125577,229304,5
125570,229305,5
125545,229279,4
125521,229264,5
125509,229244,5
125497,229231,6
125468,229220,3
125456,229197,5
125416,229158,5
125392,229143,5
125385,229134,5
125357,229101,4
125353,229070,5
125317,229054,5
125286,229019,5
125270,228999,5
125236,228959,4
125201,228937,5
125174,228914,5
125162,228898,5
125135,228868,5
125104,228833,4
125088,228812,5
125062,228781,5
125027,228747,5
125005,228708,5
124975,228675,5
124952,228659,4
124920,228638,5
124878,228624,5
124860,228584,4
124720,228581,4
124790,228555,5
124764,228516,5
124733,228496,5
124141,228474,4
124678,228433,5
124644,228415,5
124606,228374,5
123789,228372,5
124562,228346,4
124528,228327,5
124493,228302,5
124156,228275,5
124430,228267,5
124433,228246,4
124415,228249,5
124920,228224,5
124376,228204,5
124363,228196,5
124335,228164,4
125135,228141,6
124278,228011,4
124207,227984,5
124187,227950,5
124591,227922,4
124130,227907,5
124127,227903,5
124118,227911,5
124231,227915,4
124123,227914,4
124117,227914,5
124126,227923,5
124138,227490,5
124142,227947,4
124146,227944,5
124152,227949,5
124138,227214,5
124127,227908,5
124128,227903,5
124138,227906,4
124133,227220,5
124140,227880,5
124142,227879,5
124137,227855,4
124127,228178,5
124144,227878,6
124160,227888,4
124170,227894,5
124182,228704,4
124195,227894,5
124201,227903,5
124209,227911,5
124218,228566,5
124230,227940,4
124251,227939,5
124257,227947,5
124272,228148,5
124299,227958,4
124299,227955,4
124323,227961,5
124341,227979,5
124347,227964,5
124352,227958,4
124354,227961,5
124367,227953,5
124374,227936,5
124374,227945,5
124369,227924,4
124371,227928,5
124368,227918,5
124375,227920,5
124364,227923,5
124377,227925,4
124390,227918,5
124399,227915,5
124405,227910,5
124399,227905,5
124390,227889,4
124388,227879,5
124379,227866,5
124387,227865,5
124384,227864,5
124392,227837,4
124403,227843,5
124410,227841,5
124415,227835,5
124426,227839,4
124435,227821,4
124439,227814,5
124449,227814,9
124450,227809,1
124452,227809,5
124467,227824,4
124480,227810,5
124484,227809,5
124489,227813,5
124493,227811,4
124507,227817,5
124503,227812,5
124520,227803,5
124520,227806,5
124526,227803,4
124539,227797,5
124551,227804,5
124555,227802,5
124562,227801,5
124563,227798,4
124562,227788,5
124570,227790,5
124558,227786,5
124563,227796,5
124565,227787,4
124574,227792,5
124585,227781,5
124585,227799,5
124602,227797,4
124621,227803,6
124621,227814,3
124627,227813,5
124632,227821,5
124649,227828,4
124656,227829,5
124657,227827,5
124665,227825,5
124671,227850,5
124679,227858,4
124700,227857,5
124718,227873,5
124719,227875,5
124735,227886,5
124734,227896,4
124751,227888,5
124755,227892,5
124761,227891,5
124759,227887,5
124770,227900,4
124772,227894,5
124449,227902,6
124775,227911,4
124786,227905,5
124794,227927,4
124107,227928,5
124811,227938,5
124810,227951,5
124818,227965,4
124021,227963,5
124833,227970,5
124830,227990,5
124848,228003,5
124928,228012,4
124871,228012,5
124870,228018,5
124873,228020,5
125564,228006,5
124858,228005,4
124864,228014,5
124869,227998,5
125650,227989,5
124859,227974,5
124862,227991,4
124859,227999,5
125165,228001,5
124875,228012,6
124890,228013,4
124900,228021,4
124946,227883,5
124917,228050,5
124933,228048,5
124942,228066,4
124971,227478,4
124969,228085,5
124987,228098,5
125004,228091,5
125025,227319,4
125035,228136,5
125061,228156,5
125078,228191,5
125107,228001,5
125120,228211,4
125149,228218,5
125165,228250,5
125178,228848,5
125207,228284,5
125224,228284,5
125214,228289,4
125230,229187,5
125232,228308,5
125239,228311,6
125260,228318,3
125264,228747,5
125261,228313,5
125274,228316,5
125267,228308,5
125276,228408,4
125268,228297,5
125257,228305,5
125265,228297,5
125260,228307,4
125283,228314,4
125272,228308,5
125280,228308,5
125285,228329,5
125289,228335,4
125314,228349,5
125332,228364,5
125342,228368,5
125350,228376,5
125378,228400,4
125390,228416,6
125411,228433,4
125422,228453,5
125453,228475,5
125467,228491,6
125490,228524,3
125521,228533,5
125555,228556,5
125575,228590,5
125623,228631,4
125650,228666,5
125676,228681,5
125703,228694,5
125720,228720,5
125749,228721,4
125752,228734,5
125764,228741,5
125787,228760,5
125800,228769,4
125813,228778,4
125830,228793,5
125825,228792,5
125855,228806,5
125848,228810,4
125865,228803,5
125873,228808,6
125870,228819,4
125878,228825,5
125870,228814,4
125879,228814,5
125888,228816,5
125894,228815,5
125882,228797,5
125883,228791,4
125872,228785,5
125879,228770,5
125874,228785,5
125871,228790,5
125889,228790,4
125876,228796,5
125886,228797,5
125889,228803,5
125889,228812,5
125886,228832,4
125889,228828,5
125894,228827,5
125904,228840,5
125907,228833,4
125916,228847,4
125915,228841,5
125898,228840,6
125898,228828,4
125895,228836,4
125889,228836,5
125890,228800,5
125883,228793,5
125885,228803,5
125884,228789,4
125877,228796,5
125876,228809,5
125879,228812,5
125906,228824,5
125860,228836,4
125926,228838,5
125931,228840,5
125943,228865,5
125405,228871,5
125967,228894,4
125993,228914,5
126004,228915,5
125234,228941,5
126055,228941,5
126063,228961,4
126083,228975,5
125709,228975,5
126113,228991,6
126118,228995,3
126135,229016,4
126640,229040,5
126174,229054,5
126188,229059,5
126199,229065,4
127078,229092,5
126223,229098,5
126241,229108,5
126260,229116,5
126752,229134,4
126268,229129,5
126265,229117,5
126273,229123,5
126399,229106,5
126267,229103,4
126272,229106,5
126282,229106,5
126277,228671,5
126265,229099,5
126266,229092,5
126276,229103,4
126276,228367,5
126278,229101,5
126295,229105,5
126299,229118,4
126298,228343,5
126308,229122,5
126320,229145,5
126332,229151,4
126343,229431,4
126362,229168,5
126364,229188,5
126383,229199,5
126380,230035,4
126399,229218,5
126422,229239,5
126453,229273,5
126481,229997,5
126501,229311,4
126533,229338,5
126560,229373,5
126594,229635,5
126610,229409,5
126632,229433,4
126659,229454,6
126671,229481,4
126700,229480,5
126719,229496,5
126743,229486,4
126750,229502,5
126753,229513,5
126760,229514,5
126760,229506,5
126766,229501,4
126763,229509,5
126763,229508,5
126770,229510,5
126763,229504,4
126771,229519,4
126787,229519,5
126781,229541,5
126799,229528,5
126808,229541,4
126809,229552,5
126822,229558,5
126841,229568,5
126840,229568,5
126836,229573,4
126825,229558,5
126821,229565,6
126829,229571,4
126818,229548,5
126814,229551,4
126797,229538,5
126800,229518,5
126803,229521,5
126799,229525,5
126802,229527,4
126831,229562,5
126835,229563,5
126851,229588,5
126865,229583,5
126882,229605,4
126898,229628,5
126915,229635,5
126940,229643,5
126980,229692,4
127020,229719,4
127051,229744,5
127075,229780,5
127102,229788,5
127124,229807,4
127139,229823,5
127154,229834,5
127180,229849,6
127192,229851,4
127203,229874,4
127210,229871,5
127232,229879,5
127234,229894,5
127254,229914,5
127271,229926,4
127280,229939,5
127296,229932,5
127302,229943,5
127311,229959,5
127332,229967,4
127337,229964,5
127335,229964,5
127323,229954,5
127318,229952,5
127329,229954,4
127315,229951,5
127314,229947,5
127318,229942,5
127321,229956,5
127326,229951,4
127324,229950,5
127335,229950,5
127350,229959,5
127341,229975,4
127358,229966,5
127041,229985,5
127393,229993,5
127391,230012,5
127417,230016,4
126714,230039,5
127446,230051,5
127472,230072,5
127486,230096,5
126669,230109,4
127530,230137,5
127556,230146,5
127593,230176,5
127722,230205,5
127650,230233,4
127659,230246,6
127689,230265,4
128446,230271,5
127724,230261,5
127722,230274,5
127727,230273,4
128553,230270,5
127735,230259,5
127733,230256,4
127735,230248,5
128030,230266,5
127748,230258,5
127743,230267,5
127743,230270,4
127782,230114,5
127757,230276,5
127770,230302,5
127773,230289,5
127777,229677,4
127776,230305,5
127775,230293,5
127756,230289,5
127764,229458,5
127762,230285,4
127756,230265,5
127744,230246,5
127736,230031,5
127737,230237,5
127737,230241,4
127744,230246,6
127750,230866,4
127764,230272,5
127779,230283,5
127780,230280,4
127797,231225,5
127808,230318,5
127805,230316,5
127820,230323,4
127844,230803,5
127857,230357,5
127885,230382,5
127912,230394,5
127911,230535,4
127942,230444,5
127976,230477,5
127992,230484,5
127999,230499,5
128019,230507,4
128020,230520,5
128030,230527,5
128028,230526,5
128038,230537,4
128027,230545,4
128049,230549,5
128072,230566,5
128068,230566,5
128075,230579,5
128090,230569,4
128077,230590,5
128099,230577,5
128086,230579,5
128074,230566,5
128072,230577,4
128065,230586,5
128080,230573,5
128079,230577,5
128074,230578,4
128064,230586,5
128072,230567,5
128074,230565,5
128063,230560,5
128060,230563,5
128048,230557,4
128048,230553,5
128057,230540,5
128055,230551,6
128051,230556,3
128062,230564,5
128045,230547,5
128045,230554,5
128051,230555,5
128045,230565,4
128058,230566,5
128046,230581,5
128039,230557,5
128028,230563,5
128035,230543,6
128026,230560,3
128015,230548,5
128013,230541,5
127990,230517,4
127990,230505,4
127981,230501,5
127980,230497,5
127967,230489,5
127962,230484,4
127950,230486,6
127936,230484,4
127919,230459,5
127916,230463,5
127904,230455,7
127896,230448,2
127884,230450,5
127899,230441,5
127887,230449,5
127882,230438,4
127859,230421,5
127829,230417,5
127810,230387,5
127801,230373,5
127773,230343,4
127740,230324,5
127727,230306,5
127698,230282,5
127688,230277,5
127681,230264,4
127676,230258,5
127674,230271,5
127672,230262,5
127589,230252,4
127657,230253,4
127652,230249,6
127642,230251,4
127081,230253,5
127634,230252,4
127620,230244,5
127618,230269,5
126790,230273,5
127593,230268,5
127551,230279,4
127537,230269,5
127123,230256,5
127466,230233,5
127401,230219,5
127364,230203,4
127826,230207,5
127268,230158,5
127197,230121,5
127142,230087,5
127913,230033,4
126986,229981,5
126911,229926,5
126856,229911,5
127326,229882,5
126781,229859,4
126744,229856,5
126699,229838,6
126778,229802,4
126595,229796,4
126546,229764,4
126494,229731,5
126434,229287,5
126361,229682,5
126293,229625,4
126236,229597,5
126170,228832,5
126086,229514,5
126046,229493,5
125988,229456,4
125942,228697,5
125881,229383,5
125865,229350,5
125828,229332,5
125802,229608,4
125785,229291,5
125772,229275,5
125765,229272,5
125757,230087,5
125750,229264,4
125715,229242,5
125716,229258,5
125708,229922,6
125702,229260,4
125705,229264,4
125697,229253,5
125685,229457,5
125683,229247,5
125681,229255,4
125692,229259,4
125705,229289,5
125726,229279,5
125746,229290,5
125756,229292,4
125774,229296,5
125793,229295,5
125804,229300,5
125808,229313,5
125812,229320,4
125815,229335,5
125826,229342,5
125837,229352,5
125852,229373,5
125878,229393,5
125917,229422,4
125953,229464,5
125996,229498,5
126041,229537,6
126083,229578,3
126114,229601,5
126130,229614,5
126140,229628,5
126150,229623,5
126170,229630,4
126176,229607,5
126173,229595,5
126184,229594,5
126186,229582,4
126182,229579,5
126198,229596,5
126222,229605,5
126253,229618,5
126284,229634,4
126304,229645,5
126325,229664,5
126332,229658,5
126350,229668,5
126366,229660,4
126382,229676,6
126379,229678,4
126398,229706,5
126410,229718,5
126425,229716,4
126431,229735,5
126446,229745,5
126465,229747,5
126479,229769,5
126498,229769,4
126517,229781,5
126521,229787,5
126529,229793,5
126544,229792,5
126546,229796,4
126562,229791,5
126566,229795,5
126591,229800,5
126612,229806,4
126628,229825,5
126635,229839,5
126634,229835,5
126641,229832,5
126645,229832,4
126643,229819,5
126633,229821,6
126635,229816,4
126653,229817,5
126651,229808,4
126658,229815,5
126656,229803,5
126666,229803,5
126670,229806,5
126665,229797,4
126683,229796,5
126669,229796,5
126679,229796,5
126669,229799,5
126677,229803,4
126315,229802,5
126669,229797,5
126666,229806,5
126685,229804,5
125968,229802,4
126686,229827,5
126716,229823,5
126705,229826,5
125893,229836,4
126712,229839,5
126714,229835,5
126708,229842,6
126863,229841,4
126728,229845,4
126726,229853,5
126737,229843,5
127489,229857,5
126747,229854,5
126744,229858,4
126747,229865,5
127505,229865,5
126746,229864,5
126751,229876,5
126736,229856,4
127022,229863,5
126747,229871,5
126759,229866,5
126749,229856,5
126776,229646,4
126745,229832,5
126730,229815,5
126721,229798,5
126715,229183,5
126714,229802,4
126704,229781,5
126703,229794,5
126692,228966,5
126704,229800,4
126702,229794,5
126686,229790,4
126697,229648,5
126701,229806,5
126698,229814,4
126705,229818,5
126701,230442,5
126715,229820,5
126707,229823,5
126702,229820,4
126686,230703,5
126682,229794,5
126680,229779,5
126661,229760,5
126658,230163,4
126655,229747,5
126631,229715,5
126617,229709,5
126602,229770,5
126596,229695,5
126611,229706,4
126609,229706,5
126617,229704,5
126615,229707,5
126611,229701,4
126626,229702,5
126621,229708,5
126625,229711,5
126620,229710,4
126618,229713,5
126617,229716,5
126624,229708,5
126625,229721,5
126626,229721,4
126633,229723,5
126622,229722,5
126633,229713,5
126636,229723,5
126637,229721,4
126639,229711,5
126633,229718,5
126628,229726,5
126631,229739,5
126635,229731,4
126627,229712,6
126622,229710,4
126626,229721,5
126626,229710,5
126612,229711,4
126598,229694,5
126583,229695,5
126583,229681,5
126585,229690,4
126578,229680,4
126575,229673,5
126565,229663,5
126555,229663,5
126558,229663,4
126554,229643,5
126548,229650,5
126541,229655,5
126548,229636,5
126546,229648,4
126534,229641,5
126532,229633,5
126531,229639,5
126528,229626,5
126531,229629,4
126529,229635,5
126520,229629,5
126516,229636,5
126517,229615,5
126521,229620,4
126515,229619,5
126512,229623,5
126518,229622,5
126516,229626,5
126509,229627,4
126502,229617,5
126484,229616,5
126473,229623,5
126461,229596,5
126440,229582,4
126417,229582,5
126385,229566,5
126367,229538,5
126354,229540,4
126349,229532,5
126352,229519,5
126337,229507,5
126334,229505,5
126313,229498,4
126306,229498,5
126311,229487,5
126306,229483,5
126189,229487,5
126236,229443,4
126196,229405,5
126145,229369,5
125530,229345,5
126064,229323,5
126034,229270,4
125997,229220,5
125138,229181,5
125892,229136,5
125845,229080,5
125804,229039,4
125444,229002,5
125738,228973,5
125702,228954,5
125702,228934,4
126209,228945,5
125684,228928,4
125700,228930,5
125676,228929,5
126522,228926,6
125643,228914,3
125625,228904,5
125600,228906,5
126039,228893,5
125562,228879,4
125546,228872,5
125534,228875,5
125628,228847,5
125490,228819,5
125456,228784,4
125410,228750,5
125377,228264,5
125353,228668,5
125321,228625,5
125302,228600,4
125255,227832,5
125223,228531,5
125195,228504,5
125194,228512,5
125171,227827,4
125157,228481,6
125153,228486,4
125141,228476,5
125129,228796,4
125114,228443,6
125109,228439,3
125086,228433,5
125081,229246,5
125070,228408,4
125064,228407,5
125056,228415,5
125057,229036,5
125042,228390,5
125036,228393,4
125036,228376,5
125028,228572,5
125028,228370,5
125022,228361,5
125028,228374,4
125023,228370,5
125029,228369,5
125040,228376,5
125048,228378,5
125037,228385,4
125046,228397,5
125049,228393,6
125055,228389,4
125059,228388,5
125060,228387,4
125055,228381,5
125060,228366,5
125061,228364,5
125079,228367,4
125081,228363,4
125105,228366,5
125119,228369,5
125146,228383,5
125159,228391,4
125182,228409,5
125196,228405,5
125203,228437,5
125211,228424,5
125206,228436,4
125225,228455,5
125238,228458,5
125236,228470,5
125245,228479,5
125247,228484,4
125265,228489,5
125281,228498,5
125284,228525,6
125302,228519,4
125324,228537,4
125343,228549,5
125361,228557,5
125375,228572,5
125379,228578,5
125395,228576,4
125401,228579,5
125426,228585,5
125438,228598,5
125451,228582,4
125460,228595,4
125470,228591,5
125486,228593,5
125491,228602,5
125488,228599,4
125492,228599,5
125494,228589,5
125493,228597,5
125482,228585,5
125476,228577,5
125478,228581,4
125481,228569,9
125465,228553,1
125467,228549,6
125462,228552,3
125456,228534,5
125458,228508,5
125434,228513,5
125434,228496,5
125426,228498,4
125412,228476,5
125413,228487,5
125417,228465,5
125403,228471,5
125402,228465,4
125396,228473,5
125405,228464,5
125406,228470,5
125395,228467,4
125397,228458,4
125398,228467,5
125399,228462,5
125417,228472,5
125424,228489,4
125067,228490,6
125386,228456,4
125365,228439,5
125340,228415,5
124637,228401,4
125314,228370,5
125304,228368,5
125295,228332,5
124457,228321,5
125251,228316,4
125242,228305,5
125235,228303,5
125358,228308,5
125247,228313,5
125246,228314,4
125243,228322,5
125978,228316,5
125250,228321,5
125259,228312,5
125263,228311,4
126029,228317,5
125250,228297,5
125243,228305,5
125225,228290,4
125493,228280,4
125208,228259,6
125180,228248,4
125152,228221,5
125149,228015,4
125085,228163,5
125044,228138,5
125020,228119,5
124987,227507,5
124961,228107,4
124956,228107,5
124943,228109,5
124930,227315,5
124937,228136,5
124939,228133,5
124925,228148,4
124908,227965,5
124897,228120,5
124863,228110,5
124840,228117,4
124832,228721,5
124824,228120,5
124817,228121,5
124804,228128,5
124781,229013,4
124772,228133,5
124771,228143,7
124755,228152,3
124755,228568,4
124729,228144,4
124739,228139,5
124729,228134,5
124742,228221,5
124750,228139,4
124756,228146,5
124772,228165,5
124787,228168,5
124811,228186,5
124828,228199,4
124842,228211,5
124880,228228,5
124879,228235,5
124906,228247,5
124937,228265,4
124977,228305,5
125015,228329,5
125061,228345,5
125093,228379,5
125135,228407,4
125183,228434,5
125223,228467,5
125260,228472,6
125277,228481,4
125294,228496,4
125310,228500,5
125339,228520,5
125353,228516,5
125366,228517,4
125380,228519,4
125389,228534,5
125393,228519,5
125395,228516,5
125378,228510,4
125396,228500,5
125388,228502,5
125386,228488,5
125381,228492,5
125384,228494,4
125388,228500,5
125383,228498,5
125388,228500,5
125387,228480,5
125402,228509,5
125405,228509,4
125414,228528,5
125439,228541,5
125459,228581,5
125481,228580,4
125495,228606,5
125526,228637,5
125553,228643,5
125555,228658,5
125567,228663,4
125544,228633,5
125543,228630,5
125564,228632,5
125550,228610,4
125547,228604,4
125546,228600,5
125541,228617,5
125548,228590,5
125545,228606,4
125542,228614,5
125567,228634,5
125563,228635,5
125566,228638,5
125553,228640,4
125540,228619,6
125528,228622,4
125510,228620,5
125500,228613,5
125505,228615,4
125497,228600,5
125482,228590,5
125489,228593,5
125486,228591,5
125486,228594,4
125493,228600,5
125484,228604,5
125446,228595,5
125477,228590,5
125479,228592,4
125477,228586,5
124938,228600,5
125491,228589,5
125481,228597,4
125498,228619,4
124727,228619,5
125515,228620,5
125518,228618,5
125529,228615,4
125129,228601,5
125545,228598,6
125640,228620,4
125860,228687,5
126673,228765,4
126536,228772,5
126832,228771,5
127173,228739,5
128415,228767,5
127862,228776,4
128200,228877,5
128456,228901,5
129163,228962,5
128747,228998,5
128803,229012,4
128824,229014,5
128928,229006,5
128781,228995,5
128766,228969,5
128737,228956,4
128711,228502,5
128697,228949,5
128683,228952,6
128679,228959,3
128678,228187,5
128665,228972,5
128659,228979,5
128645,228985,5
128649,228226,4
128634,229023,5
128631,229014,5
128587,229027,5
128598,229272,5
128573,228980,4
128544,229005,5
128496,228999,5
128444,229833,5
128416,228961,5
128352,228958,4
128315,228947,5
128280,229678,5
128237,228946,5
128214,228944,5
128192,228977,4
128168,229199,5
128150,228988,5
128137,228996,5
128118,229023,5
128098,229045,4
128090,229049,5
128094,229067,5
128075,229093,5
128047,229091,4
128016,229069,5
127956,229071,5
127938,229062,5
127912,229048,5
127865,229022,4
127853,229006,5
127824,229019,5
127809,229002,5
127810,229037,5
127812,229039,4
127817,229063,5
127820,229069,5
127818,229098,5
127832,229120,5
127841,229131,4
127844,229146,5
127859,229167,4
127860,229178,5
127873,229194,5
127886,229214,5
127892,229242,3
127904,229250,5
127898,229271,5
127917,229276,5
127922,229298,4
127924,229312,5
127935,229320,5
127929,229322,5
127936,229339,4
127941,229345,4
127947,229346,5
127944,229347,5
127941,229336,5
127941,229349,4
127952,229370,5
127949,229380,5
127954,229375,5
127952,229385,5
127950,229382,4
127937,229374,5
127931,229363,6
127923,229362,4
127924,229346,5
127907,229358,4
127911,229368,7
127908,229354,3
127904,229370,5
127906,229362,5
127910,229364,4
127909,229362,5
127904,229377,5
127915,229372,5
127917,229378,5
127910,229392,4
127923,229388,5
127918,229400,5
127928,229402,5
127924,229415,4
127927,229434,4
127941,229455,5
127943,229470,5
127954,229479,5
127962,229492,4
127975,229509,5
127982,229527,5
127983,229532,6
127982,229525,4
127986,229543,4
127984,229543,5
127984,229557,5
127985,229561,5
127980,229568,5
127724,229596,4
127956,229606,5
127950,229595,5
127943,229601,5
127262,229601,5
127910,229608,4
127887,229596,5
127856,229613,5
126983,229587,5
127807,229590,5
127786,229576,4
127757,229570,5
127658,229578,5
127731,229575,5
127715,229574,5
127683,229564,4
128290,229553,5
127612,229546,5
127595,229540,6
127556,229508,3
128414,229491,5
127486,229485,5
127470,229478,5
127440,229479,5
127813,229490,4
127429,229517,5
127425,229519,5
127410,229518,5
127474,229500,5
127383,229522,4
127383,229525,5
127381,229536,5
127383,229008,5
127384,229559,5
127389,229571,4
127379,229580,5
127380,228782,5
127369,229593,5
127381,229590,5
127373,229609,5
127377,229148,4
127370,229624,5
127374,229635,5
127381,229638,6
127379,230093,3
127387,229645,5
127391,229651,5
127383,229649,5
127393,230541,4
127406,229683,5
127409,229674,5
127409,229686,5
127413,230260,5
127427,229693,4
127418,229697,5
127410,229694,5
127413,229849,5
127402,229687,5
127395,229679,4
127401,229687,5
127398,229685,5
127409,229700,5
127399,229693,5
127402,229710,4
127413,229718,6
127420,229723,4
127410,229712,5
127416,229710,5
127427,229714,4
127426,229719,5
127422,229738,5
127433,229746,5
127441,229762,4
127458,229761,4
127468,229768,5
127469,229777,5
127483,229799,5
127486,229806,4
127488,229798,5
127489,229799,5
127501,229810,5
127491,229807,5
127492,229831,4
127492,229824,5
127496,229830,5
127493,229840,5
127495,229835,5
127496,229840,4
127498,229850,5
127496,229851,6
127505,229869,4
127511,229881,5
127501,229870,4
127511,229874,5
127507,229901,5
127526,229908,5
127546,229926,5
127551,229921,4
127553,229918,5
127553,229925,5
127557,229924,5
127547,229927,4
127552,229922,4
127551,229904,5
127532,229890,5
127531,229882,5
127521,229883,4
127529,229874,5
127531,229884,5
127557,229907,5
127564,229925,5
127578,229919,4
127586,229927,5
127585,229919,5
127594,229938,6
127608,229940,4
127614,229952,4
127628,229966,5
127651,229981,5
127666,229985,5
127671,230020,5
127694,230032,4
127729,230051,5
127739,230065,5
127771,230096,5
127778,230093,6
127803,230113,3
127812,230114,5
127824,230137,5
127825,230145,5
127839,230148,4
127858,230144,4
127869,230168,5
127875,230191,5
127896,230203,5
127908,230210,5
127918,230219,4
127435,230208,5
127920,230231,5
127915,230215,5
127910,230222,4
127121,230228,5
127913,230210,5
127919,230227,5
127920,230223,5
127287,230214,4
127916,230227,5
127912,230218,5
127906,230214,5
128261,230206,5
127905,230199,4
127898,230183,5
127912,230189,5
128745,230199,5
127920,230200,5
127929,230209,4
127932,230224,5
128557,230218,5
127947,230213,5
127950,230221,4
127954,230237,5
128146,230233,4
127970,230240,5
127975,230246,5
127965,230246,4
127979,229905,5
127980,230253,5
127977,230244,5
127975,230248,5
127969,229523,4
127974,230232,5
127967,230226,5
127965,230220,5
127964,229370,5
127963,230215,4
127959,230204,5
127941,230192,5
127953,230294,5
127950,230206,5
127943,230194,4
127944,230204,5
127944,230952,5
127935,230200,5
127933,230198,5
127950,230218,4
127953,231055,6
127955,230200,4
127947,230189,5
127936,230190,4
127939,230490,5
127929,230178,5
127922,230161,5
127907,230146,5
127904,230164,4
127889,230113,5
127874,230113,5
127878,230111,5
127879,230109,5
127886,230115,4
127879,230109,5
127876,230116,5
127883,230100,5
127878,230116,5
127875,230108,4
127876,230108,5
127876,230103,5
127884,230105,5
127869,230116,5
127867,230122,4
127878,230105,5
127869,230114,6
127865,230109,4
127873,230113,5
127861,230116,4
127862,230100,5
127853,230114,5
127839,230110,5
127822,230094,4
127793,230067,4
127770,230046,5
127713,230023,5
127668,229991,5
127621,229960,4
127583,229946,5
127535,229916,5
127487,229909,5
127454,229898,5
127432,229879,4
127388,229868,5
127379,229836,5
127348,229831,5
127334,229822,5
127320,229831,4
127317,229821,5
127289,229810,5
127252,229811,5
127196,229771,5
127132,229737,4
127075,229697,5
127031,229676,5
126991,229638,5
126958,229637,5
126888,229597,4
126825,229581,5
126770,229539,5
126705,229528,5
126671,229476,4
126619,229456,4
126582,229428,5
126543,229418,5
126503,229413,5
126475,229420,4
126421,229421,5
126382,229397,5
126316,229380,5
126256,229337,5
126222,229322,5
126161,229308,4
126118,229277,5
126071,229247,5
126027,229213,5
125964,229178,4
125901,229126,5
125833,229063,5
125755,229017,5
125668,228988,5
125627,228955,4
125589,228952,5
125556,228938,5
125504,228884,5
125262,228835,5
125369,228791,4
125295,228773,5
125214,228696,5
124549,228656,5
125079,228585,4
125001,228531,4
124914,228417,5
124053,228383,5
124775,228293,5
124687,228232,4
124627,228185,6
124393,228134,4
124535,228116,5
124503,228102,5
124478,228106,4
125032,228091,5
124406,228078,5
124376,228062,5
124351,228041,5
125160,228073,4
124316,228074,5
124307,228113,5
124295,228112,5
124699,228134,5
124272,228113,4
124226,228086,5
124188,228027,5
124202,227935,5
124055,227892,5
124030,227881,4
124027,227863,5
123961,227339,6
123932,227794,4
123949,227803,5
123963,227850,4
123970,227112,5
123954,227831,5
123936,227824,5
123959,227848,4
123966,227273,5
123948,227854,5
123901,227820,5
123878,227830,5
123866,228185,4
123836,227830,5
123853,227843,5
123861,227864,5
123837,228660,5
123787,227821,4
123756,227805,5
123736,227818,5
123734,228440,5
123703,227804,5
123626,227768,4
123568,227715,5
123506,227870,5
123442,227649,6
123407,227647,4
123380,227647,4
123365,227612,5
123310,227547,5
123233,227491,5
123149,227416,4
123076,227335,4
122983,227265,5
122922,227211,5
122894,227210,5
122874,227200,4
122815,227146,5
122760,227143,5
122755,227114,5
122724,227097,5
122662,227053,4
122639,227057,5
122646,227084,5
122619,227069,5
122575,227033,5
122522,226989,5
122508,226979,4
122490,226983,5
122440,226943,5
122390,226902,6
122375,226915,3
122371,226915,5
122326,226864,5
122282,226821,5
122308,226851,5
122338,226912,4
122389,226944,5
122422,226991,5
122404,226986,5
122386,226963,4
122349,226939,4
122389,226992,5
122448,227050,5
122456,227033,5
122393,226980,4
122362,226965,5
122392,227009,5
122396,226990,5
122357,226933,5
122354,226915,4
122379,226962,6
122391,226976,4
122370,226926,5
122347,226920,5
122359,226923,6
122366,226916,3
122346,226888,5
122296,226827,5
122235,226769,5
122210,226761,4
122231,226784,5
122229,226786,5
122222,226767,5
122195,226751,5
122185,226728,4
122166,226707,5
122158,226703,5
122159,226695,5
122164,226717,4
122197,226724,4
122183,226713,5
122172,226704,5
122154,226673,5
122152,226668,4
122174,226667,5
122202,226662,6
122216,226670,4
122252,226671,5
122287,226666,4
122339,226687,5
122410,226734,5
122495,226785,5
122608,226864,5
122703,226913,4
122491,226990,5
122904,227053,5
122993,227112,5
123066,227175,5
122501,227246,4
123297,227345,5
123409,227424,5
123506,227504,5
122779,227505,5
123619,227527,4
123689,227571,5
123766,227633,5
123906,227673,5
123925,227727,4
123969,227740,4
124004,227768,5
124756,227807,6
124128,227858,4
124173,227875,4
124194,227874,5
124989,227858,5
124216,227859,5
124247,227913,5
124327,227973,4
124663,227998,5
124388,227982,5
124403,227988,5
124417,227992,5
124473,227876,4
124451,227984,5
124466,228000,5
124483,227992,5
124491,227409,5
124493,227971,4
124507,227972,5
124510,227966,5
124515,227174,5
124523,227951,5
124534,227938,5
124552,227950,4
124568,227689,5
124586,227957,6
124596,227944,3
124603,227940,4
124600,228489,5
124612,227952,5
124619,227955,5
124636,227967,4
124648,228852,5
124662,227983,5
124674,227991,5
124696,228021,5
124724,228523,4
124751,228047,5
124767,228084,5
124801,228105,5
124813,228230,5
124815,228121,4
124827,228125,5
124837,228133,5
124838,228129,5
124816,228127,5
124804,228120,5
124774,228123,4
124758,228111,5
124734,228104,5
124719,228089,5
124690,228074,4
124671,228046,5
124654,228044,5
124641,228036,5
124621,228026,4
124623,228003,4
124606,228011,5
124608,228005,5
124595,227999,5
124590,227992,4
124589,227985,5
124581,227970,5
124567,227951,5
124553,227933,5
124532,227921,4
124523,227910,5
124495,227914,5
124477,227868,5
124435,227855,5
124391,227835,4
124362,227817,6
124339,227790,4
124311,227783,5
124279,227762,5
124265,227731,4
124253,227707,5
124235,227678,5
124218,227684,5
124213,227666,5
124194,227646,4
124206,227662,5
124206,227668,5
124214,227655,5
124215,227677,4
124224,227667,4
124233,227688,5
124252,227706,5
124249,227698,5
124264,227716,4
124274,227714,5
124290,227736,5
124299,227744,5
124297,227750,5
124292,227731,4
124265,227714,5
124245,227692,6
124246,227706,4
124247,227682,5
124236,227666,4
124238,227647,5
124230,227640,5
124232,227641,5
124233,227634,5
124240,227631,4
124250,227622,5
124270,227623,5
124279,227638,5
124301,227652,5
124311,227646,4
124319,227645,5
124326,227650,5
124337,227642,5
124358,227656,4
124365,227647,4
124368,227659,5
124382,227655,5
124384,227646,5
124406,227663,4
124435,227674,9
124454,227677,1
123999,227679,6
124454,227673,4
124467,227690,4
124474,227681,5
123734,227665,5
124471,227665,5
124496,227666,5
124499,227673,4
123862,227683,5
124511,227685,5
124516,227706,5
124520,227700,5
124849,227713,4
124547,227705,5
124548,227698,5
124548,227707,5
125340,227691,5
124550,227692,4
124555,227695,5
124554,227696,5
125182,227687,5
124565,227687,5
124570,227678,4
124568,227688,5
124768,227673,5
124595,227668,5
124593,227690,4
124611,227676,5
124617,227375,5
124626,227674,5
124635,227676,5
124631,227663,4
124623,226993,5
124620,227652,5
124622,227652,5
124614,227652,5
124620,226834,4
124635,227650,5
124627,227642,5
124630,227636,5
124626,227670,5
124627,227638,4
124629,227629,6
124634,227628,4
124637,228321,5
124641,227600,5
124630,227604,6
124631,227587,3
124634,228461,5
124634,227594,5
124646,227587,4
124644,227566,4
124639,227914,5
124629,227574,5
124632,227568,5
124622,227549,4
124613,227596,5
124611,227543,5
124623,227531,5
124614,227520,5
124610,227497,4
124600,227484,5
124601,227490,5
124591,227469,5
124593,227460,5
124578,227448,4
124560,227413,5
124558,227411,5
124551,227401,5
124549,227391,5
124536,227364,4
124528,227358,6
124524,227364,4
124530,227353,5
124528,227345,5
124529,227346,4
124526,227355,5
124538,227375,5
124530,227349,5
124532,227356,5
124529,227360,4
124534,227368,5
124540,227373,5
124547,227373,5
124559,227390,4
124576,227390,5
124578,227407,5
124576,227400,5
124573,227397,5
124556,227399,4
124567,227394,5
124573,227377,5
124560,227371,5
124563,227375,4
124558,227372,4
124565,227362,5
124554,227362,5
124557,227370,5
124566,227373,5
124568,227378,4
124585,227372,5
124590,227378,5
124594,227375,5
124616,227384,5
124619,227386,4
124639,227407,5
124665,227436,5
124692,227442,5
124713,227456,5
124733,227478,4
124766,227484,5
124788,227521,5
124817,227533,5
124848,227549,5
124857,227568,4
124897,227589,5
124930,227618,5
124957,227624,6
124965,227632,3
124966,227643,5
124992,227634,5
124988,227647,5
125009,227656,5
125024,227675,4
125044,227688,5
125052,227679,5
125064,227684,5
125065,227692,5
125065,227686,4
125066,227688,5
125066,227688,5
125066,227685,5
125068,227681,5
125021,227678,4
125090,227680,5
125086,227687,5
125097,227691,5
124573,227715,5
125131,227718,5
125147,227734,4
125170,227744,5
124410,227770,5
125204,227780,6
125220,227823,3
125251,227837,5
124855,227845,5
125289,227871,5
125318,227906,4
125357,227918,5
125821,227953,5
125408,227988,5
125460,228026,5
125502,228054,4
126372,228079,5
125580,228120,5
125606,228154,5
125645,228168,5
126192,228209,4
125693,228224,5
125713,228224,5
125727,228228,5
125889,228248,5
125760,228267,4
125785,228279,6
125810,228306,4
125826,227933,5
125848,228319,5
125855,228338,6
125887,228347,3
125907,227653,5
125916,228358,5
125922,228370,5
125927,228360,4
125923,227542,5
125924,228332,5
125923,228350,5
125931,228355,4
125946,228541,5
125954,228367,5
125962,228370,5
125981,228376,5
125987,229164,4
125995,228398,5
125999,228409,5
126000,228414,5
126004,229193,5
126024,228439,4
126024,228441,5
126027,228450,6
126020,228706,4
126006,228419,5
125999,228416,4
126003,228414,5
126001,228430,5
125983,228398,5
125996,228402,5
125994,228389,4
125987,228399,5
125989,228409,5
125987,228407,5
126003,228422,4
126016,228435,4
126034,228437,5
126052,228456,5
126058,228470,5
126083,228497,4
126104,228518,5
126125,228535,5
126151,228546,5
126170,228576,5
126185,228569,4
126202,228599,5
126221,228615,5
126242,228635,6
126261,228662,4
126272,228676,4
126291,228675,5
126308,228695,5
126316,228695,5
126326,228701,5
126323,228704,4
126339,228721,5
126340,228729,5
126348,228729,5
126358,228733,5
126373,228747,4
126376,228736,5
126384,228754,5
126387,228734,5
126380,228732,4
126385,228719,5
126375,228726,5
126382,228738,5
126369,228741,5
126386,228732,5
126390,228725,4
126392,228734,5
126399,228737,5
126407,228741,6
126406,228748,3
126420,228753,5
126430,228767,5
126440,228780,5
126457,228793,5
126468,228815,4
126477,228826,5
126493,228845,5
126515,228855,5
126542,228870,5
126559,228899,4
126585,228933,5
126633,228948,5
126650,228985,5
126676,228999,5
126710,229036,4
126751,229060,5
126764,229081,5
126784,229102,5
126819,229134,4
126843,229156,6
126880,229185,4
126907,229196,5
126919,229209,5
126928,229212,4
126947,229223,5
126966,229242,5
126963,229230,5
126970,229225,5
126971,229226,4
126987,229228,5
126696,229224,5
126985,229221,5
126982,229233,5
127002,229225,4
126301,229227,5
126994,229229,5
127000,229252,5
127018,229253,5
126198,229269,4
127028,229277,5
127059,229282,5
127066,229306,5
127100,229328,5
127081,229323,4
127087,229317,6
127074,229316,4
127768,229320,5
127080,229312,4
127059,229293,5
127051,229270,5
127908,229263,5
127039,229246,5
127029,229246,4
127036,229248,5
127372,229268,5
127045,229277,5
127068,229279,5
127069,229290,4
127130,229200,5
127100,229324,5
127116,229349,5
127137,229372,5
127167,228808,4
127191,229411,5
127218,229436,5
127234,229442,5
127233,228644,5
127238,229470,4
127249,229478,5
127259,229489,6
127248,229181,4
127254,229509,5
127256,229512,4
127238,229508,5
127222,230048,5
127221,229513,5
127211,229525,4
127196,229512,5
127187,230437,5
127181,229561,5
127175,229545,5
127166,229563,4
127140,230059,5
127085,229539,5
127027,229527,5
126984,229499,5
126940,229597,4
126888,229457,5
126866,229445,5
126845,229431,5
126830,229428,5
126786,229423,4
126715,229391,5
126660,229353,5
126597,229320,5
126533,229280,5
126435,229242,4
126366,229214,5
126289,229186,5
126209,229175,5
126142,229150,5
126055,229138,4
125975,229103,5
125877,229086,5
125803,229075,5
125727,229069,4
125669,229080,5
125627,229055,5
125569,229049,5
125500,229016,5
125426,228961,4
125333,228933,5
125245,228888,5
125143,228841,5
125073,228791,5
124984,228758,5
124885,228709,4
124774,228654,5
124668,228597,5
124577,228552,5
124453,228484,4
124372,228430,5
124271,228401,5
124193,228380,5
124116,228345,5
124039,228329,4
123976,228323,5
123929,228318,5
123861,228282,5
123791,228258,4
123737,228231,4
123672,228231,5
123569,228180,5
123489,228125,5
123416,228117,4
123338,228091,5
123246,228053,5
123152,228009,5
123077,227953,5
123005,227925,4
122969,227918,6
122963,227944,4
122932,227930,5
122883,227915,5
122829,227892,4
122755,227880,5
122720,227879,5
122685,227858,5
122670,227858,5
122648,227881,4
122651,227889,5
122630,227919,5
122600,227920,5
122565,227920,5
122522,227922,4
122486,227915,5
122452,227872,5
122402,227858,5
122366,227861,4
122336,227859,4
122311,227859,5
122283,227849,5
122254,227829,5
122199,227793,4
122165,227772,5
122141,227775,6
122139,227794,4
121717,227817,5
122126,227833,4
122098,227822,5
122080,227831,5
121367,227807,5
122028,227813,5
121988,227790,4
121951,227766,5
121266,227762,5
121882,227766,6
121894,227789,4
121884,227786,4
122147,227800,5
121856,227800,5
121839,227783,5
121835,227798,5
122551,227793,4
121808,227787,5
121784,227772,5
121766,227766,5
122357,227763,5
121753,227777,4
121747,227767,5
121739,227788,5
121939,227787,5
121753,227795,4
121763,227803,5
121769,227817,5
121785,227557,5
121766,227817,5
121786,227817,4
121770,227823,5
121777,227189,5
121768,227800,5
121776,227791,5
121777,227796,4
121783,227036,5
121812,227808,5
121836,227834,5
121872,227875,5
121915,227931,5
121951,227936,4
121996,227980,5
122033,228002,5
122067,228707,6
122120,228080,3
122181,228102,5
122243,228147,5
122298,228996,5
122358,228214,4
122430,228256,4
122503,228307,5
122569,228627,5
122643,228357,5
122726,228413,4
122827,228473,5
122943,228594,5
123044,228639,5
123175,228730,5
123264,228802,4
123363,228888,5
123436,228947,5
123507,228984,5
123571,229025,5
123629,229066,4
123679,229105,6
123739,229137,4
123796,229191,5
123856,229196,5
123901,229223,6
123939,229255,3
123995,229286,5
124039,229322,5
124069,229342,5
124118,229364,4
124155,229382,5
124183,229395,5
124204,229402,5
124240,229404,4
124276,229429,4
124297,229438,5
124311,229424,5
124333,229440,5
124350,229453,4
124398,229491,5
124436,229505,5
124462,229555,5
124488,229570,5
124510,229572,4
124525,229591,5
124534,229573,6
124540,229577,4
124537,229574,5
124550,229576,4
124558,229580,5
124557,229585,5
124558,229584,5
124569,229584,5
124580,229597,4
124593,229603,5
124609,229599,5
124603,229611,5
124624,229603,5
124643,229612,4
124649,229608,5
124658,229617,5
124669,229614,5
124682,229623,4
124692,229655,4
124718,229670,5
124742,229690,5
124751,229714,5
124785,229725,4
124808,229751,5
124813,229775,5
124836,229779,6
124851,229811,4
124869,229814,4
124880,229811,5
124900,229839,5
124939,229845,5
124961,229866,5
124975,229862,4
124995,229854,5
125018,229847,5
125036,229861,5
125059,229859,5
125082,229868,4
125113,229858,5
125141,229875,5
125166,229879,5
125195,229869,5
125230,229884,4
125031,229888,5
125281,229916,5
125328,229929,5
125381,229965,5
124786,229993,4
125445,230008,5
125491,230045,5
125522,230042,6
124741,230041,3
125552,230035,5
125560,230042,5
125578,230036,5
125481,230031,5
125578,229990,4
125576,229972,5
125574,229946,5
126198,229938,5
125599,229951,5
125619,229974,4
125664,229998,5
126566,230025,5
125754,230042,5
125795,230082,5
125827,230097,4
126225,230112,5
125893,230134,5
125931,230159,5
125958,230170,5
126041,230149,5
126010,230199,4
126053,230215,5
126068,230253,5
126095,229737,6
126106,230262,3
126123,230271,5
126142,230274,5
126168,229509,5
126180,230288,4
126189,230299,5
126209,230287,5
126222,229874,5
126239,230296,5
126251,230305,4
126268,230321,5
126292,230802,5
126327,230349,5
126330,230348,5
126365,230392,4
126378,231256,5
126381,230386,5
126392,230393,5
126390,230378,5
126415,230946,4
126441,230406,6
126447,230405,4
126456,230386,5
126467,230542,5
126475,230403,4
126485,230395,5
126492,230391,5
126519,230403,5
126518,230397,4
126542,230419,4
126553,230425,5
126565,230427,5
126584,230451,5
126591,230439,4
126602,230443,5
126605,230448,5
126621,230458,5
126643,230478,5
126657,230493,4
126676,230503,5
126685,230507,5
126694,230513,5
126702,230530,5
126717,230535,4
126726,230535,5
126730,230553,6
126742,230546,4
126745,230547,5
126764,230552,4
126770,230569,5
126780,230565,5
126778,230550,5
126786,230562,5
126783,230554,4
126786,230558,5
126798,230557,5
126802,230558,5
126813,230565,4
126809,230562,4
126807,230568,5
126817,230558,5
126808,230556,5
126808,230549,4
126814,230552,5
126798,230542,5
126811,230529,5
126802,230544,5
126803,230546,4
126798,230527,5
126801,230528,5
126801,230540,6
126802,230526,4
126799,230542,4
126806,230533,5
126797,230528,5
126795,230526,5
126785,230516,5
126787,230519,4
126790,230504,5
126793,230506,5
126781,230490,5
126775,230497,5
126775,230503,4
126782,230490,5
126764,230476,5
126768,230478,5
126760,230453,4
126749,230431,4
126735,230419,5
126724,230404,5
126704,230383,5
126694,230378,5
126700,230371,4
126685,230351,5
126682,230369,5
126677,230364,5
126677,230370,4
126680,230368,5
126677,230380,5
126692,230383,5
126679,230388,5
126680,230375,4
126682,230378,5
126678,230382,5
126237,230387,5
126680,230374,5
126672,230383,4
126652,230361,5
125886,230344,5
126625,230318,5
126617,230295,5
126608,230293,4
125900,230278,5
126572,230240,5
126563,230232,5
126546,230228,4
126854,230234,5
126556,230241,4
126553,230231,5
126554,230213,5
127347,230215,4
126558,230214,5
126550,230224,5
126563,230211,5
127179,230213,5
126552,230214,4
126549,230225,5
126541,230219,5
126729,230211,5
126537,230216,5
126539,230218,4
126539,230216,5
126534,229902,5
126535,230201,5
126525,230205,5
126509,230194,4
126502,229507,5
126504,230198,5
126500,230178,5
126492,230164,5
126491,229339,4
126476,230159,6
126481,230168,4
126491,230164,5
126484,230202,4
126479,230157,5
126460,230157,5
126450,230138,5
126459,230862,5
126453,230119,4
126429,230112,5
126423,230099,5
126403,230954,5
126400,230088,5
126394,230070,4
126369,230052,5
126362,230355,5
126351,230042,5
126340,230036,5
126326,230027,4
126320,230063,5
126320,230018,5
126322,230010,5
126317,230012,5
126329,230009,4
126306,230002,5
126303,230011,5
126301,229980,5
126288,229990,4
126273,229980,4
126263,229981,5
126259,229963,5
126266,229963,5
126261,229963,4
126248,229960,5
126239,229955,5
126236,229947,5
126231,229934,5
126235,229917,4
126220,229910,5
126213,229906,5
126198,229898,5
126202,229890,5
126173,229863,4
126164,229853,5
126158,229846,5
126158,229855,5
126146,229853,5
126133,229837,4
126110,229795,5
126076,229760,5
126021,229723,5
125975,229691,5
125936,229657,4
125917,229642,5
125886,229620,5
125867,229584,5
125815,229529,4
125772,229480,4
125730,229427,5
125675,229368,5
125612,229334,5
125562,229277,4
125501,229237,5
125463,229213,5
125409,229179,5
125365,229140,5
125320,229105,4
125277,229072,5
125257,229039,4
125223,228991,5
125174,228948,5
125115,228883,6
125045,228821,3
124973,228768,5
124918,228722,5
124872,228668,5
124818,228622,4
124759,228586,5
124698,228545,5
124643,228523,5
124610,228514,5
124571,228491,4
124525,228470,5
124493,228466,5
124473,228435,5
124476,228425,4
124456,228404,4
124463,228417,5
124474,228432,5
124470,228435,5
124441,228410,4
124379,228350,5
124338,228312,6
124286,228246,4
124225,228188,5
124195,228138,4
123956,228141,7
124191,228141,3
124194,228153,5
124197,228160,5
123576,228167,4
124210,228176,5
124199,228171,5
124199,228177,5
123404,228166,5
124187,228149,4
124196,228158,5
124200,228160,5
124182,228176,5
124209,228202,5
124231,228196,4
124249,228218,5
124909,228226,5
124280,228244,5
124304,228247,4
124317,228266,4
125171,228282,5
124351,228285,6
124386,228309,4
124412,228307,8
124757,228328,1
124460,228356,5
124478,228381,5
124542,228401,5
124609,228332,4
124589,228429,5
124640,228460,5
124677,228473,5
124700,227945,5
124719,228486,4
124731,228479,5
124753,228488,5
124759,227710,5
124776,228492,5
124799,228491,5
124807,228499,4
124822,228192,5
124827,228497,5
124849,228519,5
124867,228523,4
124891,229080,5
124915,228557,5
124937,228585,6
124978,228614,3
124991,229473,4
125016,228618,5
125035,228620,5
125044,228621,5
125066,229106,4
125087,228632,5
125101,228640,5
125116,228639,5
125134,228757,5
125161,228666,4
125178,228668,5
125205,228692,5
125208,228700,5
125237,228714,5
125241,228714,4
125241,228707,5
125252,228709,5
125257,228708,5
125259,228701,5
125270,228713,5
125274,228709,4
125266,228692,5
125263,228682,5
125259,228681,6
125259,228687,3
125249,228674,5
125253,228668,5
125246,228652,5
125239,228653,4
125231,228641,5
125214,228625,5
125203,228604,5
125186,228579,5
125175,228562,4
125151,228544,5
125135,228523,5
125112,228501,5
125104,228501,5
125090,228491,4
125085,228480,5
125080,228475,5
125082,228478,5
125073,228476,5
125068,228476,4
125063,228465,6
125069,228466,4
125057,228460,5
125052,228455,5
125042,228449,4
125033,228449,5
125025,228443,5
125029,228431,5
125006,228410,4
124986,228407,4
124961,228367,5
124920,228355,5
124926,228337,5
124913,228327,4
124879,228296,5
124867,228291,5
124862,228261,5
124850,228251,5
124827,228239,4
124821,228232,5
124812,228216,5
124815,228212,5
124802,228198,5
124796,228194,4
124801,228185,5
124789,228178,6
124781,228172,4
124773,228165,5
124770,228160,4
124760,228160,5
124767,228164,5
124762,228166,5
124761,228163,5
124750,228140,4
124743,228154,5
124734,228129,5
124736,228120,5
124738,228117,4
124739,228111,4
124734,228113,5
124725,228110,5
124716,228095,5
124716,228108,4
124716,228092,5
124697,228101,5
124203,228091,5
124674,228067,5
124656,228058,4
124655,228059,5
123890,228047,5
124644,228044,6
124625,228033,4
124635,228024,4
124105,228027,5
124628,228025,5
124641,228038,5
124637,228041,5
125015,228045,4
124638,228054,5
124652,228064,5
124666,228073,5
125490,228078,5
124689,228099,4
124708,228118,5
124712,228123,5
