RED,IR,EKG,TIME
89979,128548,5
89947,128519,8
89937,128529,7
89970,128528,5
90078,128670,8
90078,128670,7
90091,128694,5
90101,128718,8
90161,128785,7
90194,128819,7
90456,129181,8
90456,129181,7
90480,129215,5
90514,129268,8
90573,129359,7
90610,129377,8
90636,129467,7
90782,129604,7
90782,129604,8
90762,129585,7
90678,129519,5
90685,129477,8
90669,129459,7
90539,129290,9
90539,129290,10
90633,129362,5
90801,129663,8
90923,129804,7
90398,129179,9
90398,129179,10
90569,129306,9
90416,129163,10
90416,129163,9
90453,129258,10
90564,129375,5
90615,129383,5
90647,129501,10
90647,129501,5
90650,129509,5
90675,129533,10
90684,129484,5
90759,129663,5
91195,130229,10
91195,130229,5
91204,130199,5
91202,130278,10
91242,130326,5
91323,130417,5
91401,130531,10
91453,130659,5
91065,130066,7
91065,130066,8
90858,129806,5
90579,129471,7
90266,129060,8
89923,128630,5
89606,128207,7
88101,126439,8
88101,126439,5
87747,126035,7
87472,125693,8
87178,125317,5
86935,125017,7
86780,124816,8
86585,124626,5
86397,124358,5
84562,121963,5
84562,121963,4
84212,121533,5
83880,121079,5
83475,120536,5
83006,119946,5
82607,119473,4
82264,119085,6
82028,118799,4
81777,118451,5
81497,118132,5
81277,117794,4
80883,117271,5
80512,116815,5
80195,116439,5
79978,116190,5
79883,116099,4
79812,115992,5
79705,115826,5
79573,115666,5
79483,115561,4
79415,115477,4
79383,115451,5
79370,115428,5
79306,115372,5
79250,115296,4
79170,115170,5
79056,115019,5
78918,114851,5
78789,114720,5
78726,114658,4
78746,114675,5
78754,114681,6
78722,114617,4
78690,114606,5
78705,114609,4
78714,114630,5
78786,114730,5
78847,114806,5
78881,114820,5
78853,114760,4
78812,114726,5
78791,114697,5
78740,114617,5
78690,114573,4
78655,114522,4
78624,114465,5
78544,114335,5
78411,114161,5
78298,114028,4
78183,113874,5
78052,113717,5
77985,113643,5
77950,113592,5
77902,113492,4
77746,113297,5
77592,113083,5
77467,112931,5
77338,112764,5
77252,112655,4
77185,112577,5
77135,112501,5
77057,112388,5
76942,112286,5
76917,112219,4
76855,112132,5
76791,112061,5
76700,112010,5
76707,111938,5
76615,111806,4
76475,111605,5
76290,111438,5
76223,111305,5
76108,111154,4
75982,110994,5
75881,110798,4
75705,110591,5
75508,110315,5
75280,110009,5
75138,109766,4
74905,109537,5
74765,109373,5
74658,109227,5
74597,109089,4
74436,108930,5
74287,108711,5
74166,108587,5
74102,108481,5
74044,108457,4
74050,108455,5
74050,108444,5
74040,108397,5
73990,108358,5
73972,108345,4
73963,108331,5
73952,108276,5
73955,108333,5
73961,108343,4
73970,108337,4
73951,108235,5
73906,108241,5
73891,108234,5
73859,108186,5
73850,108183,5
73855,108202,4
73851,108175,5
73845,108148,5
73791,108145,4
73769,108076,5
73715,107985,5
73600,107845,5
73508,107806,5
73475,107702,4
73423,107639,5
73316,107434,5
73115,107302,5
73040,107194,5
73000,107176,4
73034,107231,5
73084,107312,5
73131,107371,5
73159,107407,5
73174,107419,4
73225,107481,5
73260,107532,6
73313,107625,4
73377,107697,4
73417,107740,4
73428,107748,5
73405,107704,5
73395,107710,5
73367,107666,4
73349,107643,5
73351,107650,5
73347,107648,5
73328,107611,5
73276,107556,4
73221,107481,5
73179,107404,5
73106,107320,5
73059,107272,5
73035,107216,4
72971,107145,5
72917,107064,5
72835,106945,5
72734,106820,5
72599,106637,4
72472,106467,5
72342,106294,5
72203,106088,6
72007,105841,4
71768,105503,4
71515,105191,5
71327,104958,5
71160,104723,5
71029,104580,4
70951,104478,5
70914,104404,5
70828,104264,5
70721,104154,5
70674,104082,4
70638,104047,5
70645,104049,5
70687,104135,5
70755,104212,5
70829,104300,4
70871,104350,5
70888,104388,5
70932,104437,5
70986,104508,5
71062,104601,5
71152,104707,4
71270,104874,5
71441,105083,5
71584,105240,6
71661,105347,3
71748,105458,5
71835,105573,5
71926,105678,5
72002,105775,4
72063,105831,4
72076,105843,5
72071,105835,5
72060,105821,5
72049,105800,4
72026,105770,5
72011,105728,5
71970,105708,5
71945,105629,5
71886,105570,4
71823,105486,5
71765,105424,5
71758,105433,5
71748,105421,5
71735,105408,4
71730,105406,6
71728,105418,4
71753,105449,5
71780,105495,5
71824,105571,6
71857,105647,3
71921,105705,5
71942,105710,5
71932,105730,5
71931,105788,4
72042,105864,5
72083,105920,5
72151,106018,5
72183,106137,4
72339,106264,4
72486,106454,5
72637,106657,5
72813,106863,5
72970,107058,4
73130,107260,5
73274,107451,5
73492,107627,5
73581,107828,5
73774,108088,4
74016,108396,5
74295,108682,6
74403,108872,4
74531,109027,5
74582,109084,4
74611,109094,5
74601,109107,5
74613,109121,5
74617,109142,5
74609,109112,4
74590,109111,5
74594,109119,5
74615,109143,5
74635,109140,4
74706,109290,4
74798,109427,5
74916,109568,5
75059,109725,5
75241,110002,4
75379,110164,5
75464,110274,5
75578,110405,5
75717,110630,5
75905,110883,4
76083,111103,5
76229,111345,5
76394,111539,6
76586,111766,4
76737,111945,4
76871,112199,5
77012,112325,5
77146,112491,5
77249,112621,5
77320,112754,4
77401,112834,5
77459,112901,5
77498,112949,5
77545,113033,5
77625,113154,4
77727,113278,5
77814,113395,5
77906,113509,8
78008,113644,1
78095,113757,4
78172,113854,5
78300,114033,5
78476,114271,5
78698,114566,5
78955,114917,4
79272,115323,5
79604,115758,5
79927,116177,6
80242,116599,3
80535,116970,5
80786,117300,5
81052,117653,5
81309,117997,5
81572,118343,4
81858,118706,5
82110,119030,5
82356,119363,5
82627,119713,5
82883,120065,4
83116,120341,5
83368,120673,5
83669,121052,5
83919,121334,4
84136,121624,4
84312,121841,5
84418,121948,5
84414,121955,5
84398,121940,4
84410,121952,6
84425,121972,4
84402,121938,5
84379,121903,5
84352,121898,4
84356,121888,5
84330,121852,5
84279,121779,5
84219,121718,5
84164,121624,10
84059,121477,9
83966,121379,5
83883,121289,10
83839,121205,5
83797,121167,5
83543,120855,10
83543,120855,5
83555,120886,5
83616,120978,10
83686,121060,5
83767,121174,7
84345,121901,8
84345,121901,5
84565,122203,7
84864,122605,8
85238,123139,5
85707,123740,7
86042,124169,8
86365,124577,5
87966,126681,7
87966,126681,8
88247,127009,9
88407,127200,8
88560,127413,5
88743,127627,7
89477,128532,8
89477,128532,5
89472,128528,7
89381,128487,8
89390,128426,5
89354,128381,7
89317,128328,8
89224,128304,5
89137,128095,7
89137,128095,8
89120,128043,5
89032,127952,7
89015,127847,8
88904,127799,5
88816,127677,7
88595,127434,8
88595,127434,7
88580,127404,5
88571,127421,8
88583,127419,7
88573,127399,7
88899,127825,8
88899,127825,7
89114,128142,5
89310,128324,8
89289,128297,7
89314,128277,5
89342,128368,8
89381,128442,7
89438,128555,5
89964,129279,8
89964,129279,7
90100,129371,5
90203,129530,8
90279,129622,7
90358,129802,5
90458,129877,8
90875,130355,7
90875,130355,5
90912,130388,8
90961,130476,7
91010,130508,5
90984,130441,10
90948,130384,5
88593,127462,5
90740,130117,10
90740,130117,5
90670,130025,5
90623,129989,10
90573,129928,5
90537,129884,5
90182,129433,10
90182,129433,5
90159,129390,5
90120,129337,10
90071,129296,2
90021,129264,0
90001,129249,3
89982,129195,5
89947,129174,5
89961,129192,5
89975,129214,4
90000,129252,4
90012,129278,5
90035,129302,5
90048,129303,5
90023,129281,4
89989,129257,5
89962,129224,5
89935,129190,5
89884,129143,5
89818,129055,4
89719,128918,5
89574,128735,5
89422,128532,5
89277,128383,5
89129,128203,4
88947,127981,5
88703,127671,5
88407,127310,5
88126,126973,5
87834,126607,4
87564,126315,5
87377,126098,5
87202,125890,5
86989,125616,4
86756,125333,4
86582,125145,5
86449,124966,5
86312,124791,5
86213,124683,4
86120,124538,5
85925,124248,5
85611,123832,5
85322,123507,5
85111,123226,4
84839,122906,5
84618,122650,5
84481,122480,5
84385,122345,5
84225,122126,4
83993,121824,5
83787,121590,5
83588,121321,5
83380,121089,5
83293,120978,4
83234,120916,5
83160,120809,5
83031,120638,5
82931,120529,5
82854,120420,4
82765,120312,5
82736,120295,5
82735,120293,5
82728,120285,4
82696,120224,5
82675,120202,5
82655,120179,5
82644,120163,5
82586,120172,4
82664,120212,6
82700,120259,4
82745,120291,5
82677,120269,5
82719,120269,6
82722,120261,3
82699,120255,5
82721,120255,5
82726,120286,5
82733,120288,4
82735,120297,5
82783,120268,5
82738,120277,5
82724,120263,5
82702,120256,4
82756,120261,5
82708,120248,5
82694,120233,5
82648,120163,4
82616,120094,4
82551,120041,5
82479,119951,5
82413,119877,5
82396,119845,4
82362,119820,5
82314,119743,6
82216,119629,4
82177,119530,5
82116,119510,4
82047,119427,7
82028,119432,3
82051,119374,5
82042,119419,5
82034,119410,4
82002,119372,5
81985,119349,5
81961,119331,5
81952,119318,5
81962,119332,4
81955,119382,5
81949,119294,5
81912,119244,5
81862,119183,5
81820,119176,4
81684,118949,5
81590,118848,5
81523,118748,5
81419,118649,4
81308,118469,5
81189,118316,5
81113,118228,6
81041,118138,4
80944,118018,4
80896,117976,5
80876,117946,5
80842,117891,5
80772,117797,5
80695,117716,4
80673,117682,5
80582,117588,5
80527,117517,5
80481,117439,5
80372,117295,4
80273,117174,5
80157,116999,5
80019,116842,5
79905,116668,5
79729,116462,4
79631,116348,5
79580,116285,5
79504,116172,5
79423,116038,5
79315,115917,4
79272,115879,5
79208,115788,5
79169,115741,6
79193,115785,3
79214,115801,5
79214,115800,5
79202,115786,5
79214,115797,5
79214,115797,4
79201,115788,5
79229,115828,5
79283,115899,5
79315,115925,5
79329,115947,4
79335,115935,5
79361,115988,5
79369,115986,5
79374,115998,5
79447,116110,4
79541,116218,5
79591,116283,5
79616,116310,5
79646,116349,4
79712,116422,5
79719,116428,4
79738,116458,5
79795,116532,5
79847,116585,6
79881,116628,3
79893,116638,5
79897,116648,5
79901,116653,5
79864,116613,4
79876,116616,5
79885,116636,5
79880,116617,5
79863,116617,5
79849,116601,4
79864,116631,5
79863,116615,5
79864,116632,5
79914,116709,5
79960,116763,4
80005,116807,5
80041,116863,5
80073,116896,5
80116,116955,5
80142,116986,4
80195,117070,6
80279,117175,4
80357,117271,5
80415,117341,4
80451,117379,5
80478,117413,5
80496,117440,5
80499,117441,5
80536,117507,4
80590,117555,5
80614,117585,5
80597,117612,5
80641,117613,5
80635,117614,4
80635,117604,5
80564,117610,5
80653,117636,5
80690,117697,5
80730,117741,4
80713,117797,5
80823,117870,5
80898,117974,5
80954,118040,5
81049,118134,4
81111,118267,5
81229,118412,6
81343,118554,4
81497,118657,4
81503,118739,4
81519,118751,5
81515,118744,5
81579,118768,5
81571,118831,4
81610,118879,5
81646,118911,5
81709,119004,5
81807,119139,5
81889,119223,4
81919,119268,5
81995,119350,5
82081,119485,5
82163,119592,5
82256,119706,4
82365,119803,5
82525,120074,5
82677,120238,5
82786,120391,5
82935,120540,4
83086,120763,5
83200,120906,5
83311,121038,6
83440,121230,3
83624,121479,4
83796,121672,5
83961,121873,5
84140,122185,5
84332,122361,4
84504,122582,5
84674,122808,5
84896,123189,5
85200,123512,5
85390,123707,4
85526,123891,5
85655,124088,5
85795,124242,5
85891,124359,5
85969,124460,4
86071,124597,5
86166,124691,5
86185,124729,5
86243,124810,5
86300,124896,5
86377,124970,4
86424,125040,5
86491,125127,5
86592,125263,4
86657,125338,4
86733,125439,5
86865,125626,6
87011,125813,4
87156,125997,4
87301,126203,5
87488,126461,5
87700,126701,5
87828,126854,5
87977,127081,4
88129,127265,5
88258,127434,5
88373,127578,5
88473,127708,5
88604,127881,4
88716,128013,5
88751,128069,5
88797,128129,5
88787,128139,5
88773,128141,4
88763,128115,6
88735,128086,4
88733,128096,5
88714,128047,5
88686,128031,4
88711,128059,5
88725,128097,5
88759,128138,5
88811,128213,4
88873,128301,4
88992,128445,5
89078,128541,5
89198,128715,5
89339,128884,4
89430,128997,5
89510,129074,5
89494,129040,5
89448,128985,5
89425,128947,4
89356,128846,5
89270,128773,5
89237,128714,5
89189,128674,5
89156,128640,4
89141,128608,5
89127,128610,6
89139,128626,4
89115,128583,5
89131,128613,4
89180,128666,5
89218,128734,5
89253,128785,5
89300,128838,4
89395,128949,4
89451,129004,5
89459,129037,5
89554,129159,5
89652,129272,4
89746,129391,5
89858,129517,5
89932,129636,5
90063,129821,5
90214,129981,4
90280,130064,5
90373,130195,5
90472,130305,5
90546,130419,5
90648,130523,4
90683,130583,5
90780,130705,5
90878,130800,5
90888,130812,5
90905,130917,4
91011,130985,5
91080,131076,5
91161,130449,5
91166,130546,4
91348,130682,4
91381,130709,5
91403,130760,5
91453,130864,5
91538,130938,4
91597,131019,5
91661,131108,5
91782,131201,5
91821,131303,5
91893,131368,4
91955,131444,6
92159,131612,4
92170,131739,5
92282,131891,5
92365,131983,5
92498,132098,4
92600,132272,5
92691,132409,5
92755,132504,5
92878,132639,4
92934,132725,5
93018,132831,5
93048,132864,5
93074,132839,5
93068,132872,4
93027,132812,5
93008,132811,5
92992,132719,5
92962,132746,4
92939,132732,4
92923,132699,5
92921,132639,5
92905,132693,5
92898,132720,4
92888,132712,6
92880,132729,4
92886,132722,5
92893,132723,5
92896,132731,4
92916,132815,6
92857,132640,4
92718,132478,5
92595,132331,5
92473,132243,4
92325,131989,5
92151,131783,5
91988,131602,5
91861,131457,5
91699,131240,4
91553,131067,5
91430,130901,5
91296,130787,5
91211,130663,4
91109,130546,4
91042,130479,5
90981,130390,5
90929,130246,5
90877,130203,4
90817,130114,5
90759,130027,5
90671,129905,5
90574,129768,4
90447,129634,4
90317,129457,5
90179,129292,5
90062,129183,5
89974,129052,5
89877,128930,4
89734,128756,5
89597,128581,5
89482,128446,5
89384,128329,5
89275,128178,4
89183,128095,5
89113,127999,5
89011,127864,5
88866,127654,4
88719,127467,4
88572,127273,5
88374,127038,5
88254,126905,5
88179,126801,5
88057,126631,4
87894,126402,5
87687,126125,5
87495,125897,6
87275,125610,3
87038,125351,5
86915,125196,5
86816,125064,5
86671,124874,5
86535,124690,4
86393,124543,5
86289,124388,5
86128,124187,5
86023,124083,5
85974,124020,4
85904,123945,5
85823,123845,5
85723,123698,5
85619,123601,5
85528,123465,4
85398,123313,5
85327,123242,5
85279,123152,5
85186,123036,4
85070,122881,6
84955,122782,4
84882,122651,5
84743,122492,5
84676,122430,6
84632,122373,3
84583,122309,5
84532,122215,5
84418,122093,5
84356,122039,4
84291,121931,5
84208,121823,5
84173,121790,5
84141,121737,5
84026,121564,4
83810,121276,5
83614,121044,5
83487,120872,5
83281,120597,5
83134,120419,4
83066,120330,5
82974,120224,5
82881,120116,5
82801,119968,4
82724,119884,4
82668,119783,6
82529,119697,4
82579,119716,5
82597,119746,4
82614,119734,5
82553,119736,5
82617,119724,5
82619,119732,5
82624,119742,4
82632,119774,5
82675,119819,5
82709,119844,5
82711,119845,5
82747,119833,4
82698,119838,5
82705,119828,5
82697,119820,5
82782,119854,5
82752,119893,4
82779,119941,5
82806,119958,5
82827,119934,5
82794,119941,4
82797,119941,4
82822,119990,5
82870,120046,6
82885,120064,4
82896,120062,4
82886,120052,5
82903,120019,5
82878,120030,5
82852,120009,5
82851,120002,4
82842,119943,5
82817,119956,5
82778,119899,5
82733,119848,5
82719,119782,4
82670,119772,5
82669,119783,5
82687,119812,5
82702,119835,5
82692,119800,4
82681,119775,5
82671,119777,5
82674,119839,5
82663,119772,5
82695,119830,4
82749,119890,5
82775,119973,5
82790,119928,6
82792,119936,3
82795,119932,5
82785,119941,5
82799,119942,5
82823,119961,5
82824,119974,4
82826,119965,5
82781,119912,5
82745,119879,5
82716,119841,5
82664,119772,4
82663,119792,5
82682,119803,5
82670,119796,5
82647,119753,5
82612,119726,4
82595,119694,5
82555,119645,5
82571,119679,5
82610,119723,5
82630,119752,5
82639,119764,4
82632,119747,5
82598,119692,5
82530,119611,6
82462,119548,3
82461,119553,5
82477,119557,5
82452,119541,5
82439,119511,4
82407,119480,5
82401,119464,5
82360,119423,5
82355,119419,5
82375,119450,4
82380,119457,5
82389,119461,5
82382,119448,5
82389,119456,5
82397,119462,4
82403,119487,5
82458,119573,5
82534,119649,5
82572,119701,5
82612,119743,4
82639,119770,6
82683,119834,4
82694,119857,5
82738,119930,4
82834,120034,4
82904,120124,5
82971,120202,5
83022,120243,5
83053,120288,4
83108,120370,5
83160,120431,5
83215,120521,5
83306,120615,5
83390,120734,4
83469,120827,5
83500,120865,5
83532,120895,5
83562,120935,5
83574,120960,4
83634,121043,5
83704,121126,5
83741,121162,5
83768,121178,5
83768,121189,4
83786,121215,5
83788,121220,6
83828,121269,4
83895,121369,5
83965,121449,4
84030,121527,5
84086,121600,5
84156,121691,5
84240,121795,4
84315,121870,4
84382,121980,5
84496,122132,5
84639,122306,5
84766,122447,4
84841,122598,5
85008,122765,5
85151,122943,5
85245,123051,5
85271,123152,4
85404,123241,5
85442,123280,5
85439,123271,5
85372,123263,5
85429,123267,4
85428,123266,5
85417,123219,5
85408,123224,6
85421,123235,4
85423,123249,4
85430,123273,5
85499,123284,5
85461,123290,5
85492,123342,4
85519,123376,4
85627,123409,5
85632,123516,5
85721,123631,5
85791,123705,4
85870,123752,5
85839,123765,5
85841,123767,5
85854,123767,5
85837,123745,4
85842,123758,5
85845,123766,5
85855,123771,5
85874,123757,5
85876,123806,5
85891,123817,4
85909,123830,5
85903,123762,5
85926,123866,5
85963,123906,4
85993,123952,5
86036,123966,5
86086,124068,5
86132,124124,5
86204,124211,4
86246,124302,5
86296,124330,5
86384,124456,5
86478,124555,4
86541,124734,5
86634,124768,5
86727,124895,5
86861,125049,5
86960,125191,4
87015,125229,5
87125,125373,5
87240,125507,5
87329,125649,5
87408,125712,4
87458,125775,6
87515,125867,4
87572,125920,5
87587,125937,5
87619,125973,4
87645,125990,5
87637,125980,5
87630,125984,5
87632,125976,5
87632,125981,4
87625,125953,5
87590,125927,5
87603,125934,5
87615,125955,4
87622,125956,5
87624,125977,5
87637,125983,5
87663,126033,5
87714,126072,4
87737,126097,9
87776,126167,1
87847,126213,5
87892,126322,5
87949,126403,4
88021,126476,5
88100,126575,6
88206,126688,4
88242,126728,5
88300,126829,4
88360,126896,5
88391,126933,5
88423,126980,5
88446,127003,5
88493,127046,4
88516,127063,5
88499,127060,5
88536,127102,5
88555,127135,4
88560,127146,4
88562,127143,5
88560,127121,5
88553,127127,5
88549,127113,4
88504,127070,5
88525,127077,5
88518,127071,5
88492,127068,5
88499,127051,4
88467,127032,5
88453,126995,5
88409,126926,5
88290,126776,5
88193,126672,4
88103,126541,5
87956,126359,5
87828,126208,5
87698,126052,5
87614,125941,4
87526,125834,5
87444,125725,5
87403,125691,5
87393,125679,5
87374,125666,4
87372,125665,5
87381,125676,5
87389,125680,5
87402,125700,4
87401,125678,5
87415,125702,5
87429,125720,5
87436,125722,5
87406,125682,5
87303,125517,4
87168,125354,5
87063,125227,5
86942,125048,5
86808,124893,4
86698,124773,5
86639,124698,5
86549,124603,5
86512,124519,5
86464,124475,4
86439,124430,5
86342,124377,5
86368,124340,5
86369,124342,5
86372,124340,4
86327,124367,5
86420,124394,5
86449,124442,5
86504,124506,4
86551,124530,4
86590,124611,5
86629,124666,5
86675,124701,5
86772,124737,4
86734,124767,6
86761,124801,3
86789,124820,5
86854,124803,5
86785,124817,4
86799,124833,5
86821,124866,5
86867,124905,5
86880,124941,5
86912,124972,4
86909,124960,5
86907,124954,5
86937,125007,5
86945,125023,5
86969,125034,4
86954,124964,5
86928,125008,5
86915,124965,5
86858,124900,5
86807,124760,4
86766,124778,5
86711,124712,6
86649,124652,4
86605,124561,4
86538,124509,5
86496,124459,5
86456,124399,5
86414,124414,5
86382,124323,4
86356,124304,5
86328,124260,5
86300,124303,5
86268,124179,5
86236,124165,4
86209,124122,5
86191,124136,5
86178,124094,5
86185,124094,5
86172,124088,4
86155,124050,5
86077,123949,5
85970,123827,5
85881,123689,5
85733,123528,4
85629,123393,5
85516,123238,5
85373,123065,6
85235,122883,3
85086,122702,5
84969,122566,5
84870,122454,5
84799,122365,5
84736,122297,4
84669,122191,5
84578,122076,5
84452,121901,5
84319,121732,5
84207,121609,4
84098,121458,5
83983,121323,5
83840,121124,5
83649,120881,5
83489,120687,4
83315,120470,5
83147,120264,5
82992,120071,5
82842,119894,4
82733,119748,5
82638,119636,4
82541,119512,5
82429,119367,5
82328,119226,6
82238,119124,3
82171,119059,5
82117,118988,5
82084,118934,5
82059,118900,4
82034,118873,5
81984,118791,5
81920,118710,5
81898,118705,5
81877,118669,4
81882,118695,5
81911,118722,5
81917,118728,5
81914,118709,5
81905,118712,4
81899,118700,5
81904,118707,5
81914,118720,5
81931,118751,4
81944,118761,4
81953,118754,6
81932,118732,4
81917,118718,5
81891,118693,4
81895,118660,5
81846,118626,5
81853,118624,5
81826,118595,5
81793,118554,4
81739,118470,5
81668,118357,5
81584,118266,5
81516,118180,5
81451,118095,4
81388,118032,5
81354,117967,5
81301,117893,5
81218,117787,5
81124,117670,4
81034,117551,5
80958,117463,5
80895,117384,5
80860,117315,4
80818,117268,4
80787,117237,5
80751,117202,6
80728,117163,4
80693,117133,4
80650,117113,5
80676,117109,5
80674,117098,5
80658,117080,5
80582,117045,4
80599,116966,5
80516,116887,5
80466,116813,5
80378,116733,5
80347,116671,4
80320,116627,5
80290,116590,5
80301,116542,5
80195,116475,5
80158,116410,4
80132,116373,5
80165,116347,5
80085,116317,5
80073,116304,5
80047,116283,4
80072,116240,5
79977,116188,5
79930,116121,6
79854,116002,3
79727,115816,5
79588,115682,5
79513,115566,5
79428,115468,5
79342,115306,4
79239,115198,5
79156,115124,5
79117,115065,5
79086,114957,5
79064,114977,4
79038,114963,5
79011,114922,5
78989,114827,5
78949,114867,5
78951,114846,4
78939,114830,5
78951,114874,5
78964,114859,5
78971,114868,4
78987,114885,5
78993,114945,4
79001,114887,5
79012,114914,5
79029,114953,4
79079,115070,5
79134,115076,5
79172,115112,5
79196,115149,5
79215,115181,4
79222,115170,5
79253,115219,5
79269,115237,5
79282,115246,5
79306,115265,4
79320,115289,5
79317,115287,5
79310,115273,5
79289,115250,5
79275,115238,4
79264,115224,5
79266,115214,5
79246,115196,5
79221,115166,4
79209,115127,4
79166,115094,6
79150,115064,4
79122,115036,5
79117,115033,4
79125,115041,5
79125,115038,5
79128,115046,5
79141,115049,5
79139,115066,4
79157,115074,5
79178,115103,5
79206,115137,5
79240,115203,5
79305,115275,4
79363,115339,5
79410,115390,5
79459,115443,5
79498,115495,5
79518,115530,4
79557,115566,5
79587,115588,5
79602,115614,5
79603,115625,4
79621,115642,4
79634,115657,5
79654,115692,6
79682,115727,4
79717,115763,4
79752,115810,5
79797,115875,5
79836,115929,5
79865,115957,5
79899,115991,4
79921,116040,5
79990,116109,5
80044,116174,5
80101,116255,5
80166,116336,4
80213,116385,5
80223,116397,5
80200,116376,5
80201,116372,5
80215,116379,4
80198,116357,5
80191,116362,5
80209,116391,5
80248,116416,5
80275,116473,4
80320,116523,5
80383,116605,5
80465,116719,5
80554,116828,4
80648,116956,5
80768,117099,5
80894,117265,5
81013,117418,5
81153,117589,4
81279,117752,5
81414,117942,5
81576,118136,5
81727,118306,5
81869,118477,4
81998,118636,5
82112,118788,5
82231,118940,5
82308,119085,5
82447,119226,4
82575,119377,5
82690,119519,5
82720,119648,5
82926,119832,4
83047,119981,5
83123,120065,4
83148,120181,5
83302,120293,5
83405,120436,4
83491,120531,5
83569,120601,5
83629,120716,5
83704,120808,5
83765,120889,4
83858,120928,5
83814,120945,5
83833,120965,5
83857,120999,5
83919,121015,4
83929,121101,5
84010,121181,5
84088,121304,5
84171,121403,5
84246,121513,4
84362,121645,5
84462,121771,6
84541,121832,4
84655,122032,4
84774,122158,4
84862,122274,6
84953,122324,3
85009,122455,5
85066,122537,4
85098,122548,5
85085,122468,5
85092,122529,5
85082,122522,5
85064,122490,5
85042,122479,4
85016,122438,5
85008,122420,5
84990,122401,5
84960,122451,4
84985,122398,5
85002,122419,5
85022,122471,5
85068,122578,5
85089,122541,4
85143,122598,5
85185,122654,5
85219,122737,5
85288,122790,5
85336,122844,4
85343,122846,5
85308,122809,5
85248,122726,5
85209,122675,4
85140,122570,5
85051,122473,5
85011,122444,5
84999,122416,5
84980,122394,4
84971,122396,5
84969,122394,5
84987,122419,5
85005,122439,5
85033,122484,4
85086,122544,5
85151,122626,5
85217,122721,5
85275,122788,5
85332,122846,4
85411,122962,5
85480,123036,5
85553,123127,5
85679,123300,5
85779,123431,4
85876,123550,5
85964,123651,5
86041,123756,5
86120,123843,4
86183,123911,5
86252,124008,5
86349,124122,5
86412,124226,5
86495,124310,4
86512,124316,7
86544,124359,3
86580,124414,5
86612,124420,5
86640,124495,4
86691,124545,5
86707,124563,5
86733,124596,5
86729,124595,5
86727,124585,4
86708,124566,5
86672,124521,5
86666,124504,5
86636,124477,5
86608,124444,5
86574,124396,3
86544,124361,5
86525,124342,5
86475,124283,4
86457,124276,5
86457,124270,5
86454,124248,5
86435,124245,5
86418,124223,4
86388,124192,5
86358,124145,5
86304,124068,5
86246,123994,5
86169,123895,4
86080,123784,5
85981,123659,5
85856,123508,5
85727,123353,5
85600,123177,4
85440,123001,5
85312,122853,6
85204,122714,4
85077,122572,5
84956,122417,4
84813,122247,5
84683,122086,5
84581,121961,5
84479,121827,4
84368,121700,5
84264,121564,5
84075,121343,5
83847,121017,5
83609,120720,4
83399,120457,5
83168,120231,5
83028,120001,5
82867,119831,5
82772,119691,4
82597,119550,5
82542,119407,5
82405,119212,5
82303,119091,5
82199,118945,4
82093,118836,5
82041,118786,5
82012,118741,6
82042,118707,4
81941,118652,4
81902,118594,5
81870,118543,5
81895,118510,5
81791,118449,4
81750,118423,5
81726,118376,5
81715,118329,5
81636,118259,5
81577,118189,4
81548,118164,5
81519,118107,5
81504,118112,5
81525,118121,5
81528,118135,4
81527,118080,5
81520,118104,5
81504,118103,5
81498,118085,5
81474,117991,5
81456,118037,4
81455,118023,5
81438,118014,5
81413,117978,6
81387,117953,3
81366,117931,5
81308,117848,5
81277,117857,5
81239,117775,4
81209,117733,5
81190,117705,5
81128,117705,5
81071,117590,5
81029,117519,4
80981,117463,5
80946,117459,5
80937,117408,5
80939,117403,5
80932,117397,4
80894,117366,5
80890,117368,5
80872,117341,5
80863,117329,5
80864,117320,4
80847,117303,6
80824,117264,4
80785,117226,5
80734,117152,5
80697,117110,4
80664,117074,5
80632,117030,5
80612,117012,5
80599,116987,4
80567,116954,4
80520,116886,5
80459,116813,5
80426,116758,5
80345,116671,4
80310,116637,5
80313,116634,5
80306,116623,5
80301,116623,5
80274,116594,4
80239,116523,5
80166,116420,5
80056,116314,5
80012,116254,5
79980,116210,4
79921,116139,5
79878,116073,6
79840,116019,4
79810,115990,5
79772,115934,4
79728,115884,5
79718,115877,5
79709,115886,5
79709,115882,4
79724,115889,4
79727,115896,5
79740,115904,5
79763,115933,5
79786,115977,4
79822,116017,5
79856,116059,5
79893,116087,5
79913,116128,5
79922,116136,4
79959,116187,5
79974,116209,5
80023,116268,5
80066,116323,5
80111,116378,4
80163,116451,5
80201,116506,5
80230,116554,6
80301,116640,4
80353,116722,4
80409,116779,5
80480,116869,5
80560,116978,5
80611,117030,4
80638,117050,4
80664,117104,5
80702,117152,5
80732,117194,5
80782,117264,4
80814,117304,5
80828,117325,5
80837,117318,5
80827,117315,5
80836,117325,4
80831,117320,5
80828,117323,5
80846,117353,5
80861,117361,5
80873,117372,5
80870,117382,4
80879,117374,5
80888,117392,5
80891,117413,6
80857,117426,3
80938,117471,5
80961,117493,5
80992,117531,5
80937,117549,4
81015,117560,4
81030,117575,5
81028,117584,5
80996,117592,5
81042,117593,4
81033,117585,5
81013,117562,5
81040,117520,5
80958,117479,5
80933,117436,4
80908,117411,5
80958,117417,5
80896,117415,5
80890,117396,5
80882,117408,4
80924,117393,6
80862,117372,4
80837,117346,5
80833,117326,5
80841,117330,4
80838,117338,5
80846,117336,5
80844,117343,5
80845,117298,4
80812,117278,4
80740,117193,5
80699,117156,5
80669,117060,5
80657,117094,4
80634,117069,5
80636,117083,5
80631,117019,5
80646,117074,5
80649,117076,4
80644,117082,5
80665,117125,4
80686,117144,5
80724,117196,5
80789,117266,4
80853,117401,5
80918,117441,6
81009,117552,4
81103,117645,5
81176,117803,4
81281,117855,5
81358,117970,5
81432,118068,5
81522,118196,4
81609,118310,4
81705,118421,5
81806,118542,5
81892,118659,5
81995,118784,4
82101,118917,5
82179,119024,5
82272,119129,5
82369,119264,5
82449,119348,4
82517,119436,5
82589,119519,5
82651,119599,5
82717,119674,5
82759,119738,4
82809,119814,5
82869,119881,5
82927,119953,6
82974,120012,4
83038,120094,4
83093,120168,5
83150,120231,5
83216,120316,5
83267,120382,4
83315,120452,4
83391,120534,5
83462,120631,5
83554,120758,5
83638,120854,4
83731,120974,5
83822,121099,5
83922,121219,5
84012,121339,5
84114,121454,4
84198,121542,5
84290,121670,5
84368,121750,5
84422,121824,5
84472,121900,5
84512,121922,4
84515,121930,5
84509,121918,5
84494,121887,5
84470,121860,4
84460,121867,5
84461,121863,5
84454,121854,5
84466,121864,4
84482,121897,4
84495,121922,5
84524,121966,5
84545,121980,5
84583,122030,4
84640,122118,5
84701,122177,5
84790,122294,5
84913,122455,5
85019,122587,4
85096,122654,5
85102,122654,5
85055,122599,5
85027,122554,5
84997,122512,4
84925,122425,6
84875,122373,4
84850,122327,5
84815,122311,5
84801,122289,4
84786,122272,5
84784,122280,5
84806,122288,5
84813,122314,4
84851,122353,4
84900,122430,5
84967,122513,5
85041,122618,5
85123,122701,4
85189,122785,5
85273,122898,5
85372,123019,5
85435,123115,5
85577,123268,4
85672,123375,5
85735,123463,5
85735,123532,5
85846,123585,5
85919,123689,4
85980,123764,5
85989,123849,6
86135,123966,4
86224,124070,5
86314,124180,4
86372,124245,5
86415,124300,5
86476,124398,5
86533,124466,5
86651,124526,4
86635,124600,5
86674,124662,5
86714,124701,5
86809,124725,4
86746,124738,5
86765,124757,5
86746,124725,5
86749,124713,5
86729,124716,4
86709,124701,5
86701,124689,5
86696,124653,5
86685,124662,5
86678,124649,4
86652,124618,5
86656,124580,5
86657,124636,5
86658,124634,5
86666,124649,4
86660,124577,5
86666,124644,5
86668,124637,5
86654,124613,5
86655,124629,4
86657,124637,5
86656,124622,5
86638,124603,5
86610,124628,4
86572,124532,5
86554,124475,5
86497,124414,5
86459,124450,5
86402,124311,4
86335,124222,5
86247,124098,4
86135,123985,5
86006,123782,5
85831,123549,5
85640,123318,4
85469,123111,5
85287,122873,5
85099,122639,5
84921,122428,4
84762,122238,5
84618,122049,5
84468,121879,5
84356,121745,4
84257,121622,4
84163,121514,5
84072,121409,5
83958,121261,5
83844,121118,4
83760,121022,5
83673,120909,5
83581,120783,5
83486,120664,5
83298,120417,4
83074,120132,5
82893,119926,6
82715,119680,4
82510,119422,5
82305,119186,4
82153,118999,7
82029,118855,3
81944,118747,5
81842,118621,5
81741,118488,4
81638,118373,5
81587,118299,5
81516,118217,5
81475,118155,4
81441,118122,4
81415,118082,5
81376,118022,5
81329,117951,5
81273,117907,4
81235,117840,5
81192,117800,5
81165,117774,5
81160,117758,5
81157,117740,4
81131,117710,5
81109,117693,5
81117,117690,6
81102,117685,4
81107,117706,4
81128,117711,5
81133,117730,5
81163,117749,5
81147,117737,5
81146,117728,4
81153,117734,5
81134,117728,5
81149,117742,5
81130,117710,4
81111,117685,4
81073,117641,5
81034,117589,5
80998,117532,5
80927,117445,4
80874,117384,5
80821,117301,5
80751,117227,5
80670,117108,5
80581,116995,5
80494,116907,4
80427,116796,5
80355,116719,5
80333,116692,6
80316,116676,3
80292,116651,5
80274,116617,5
80247,116590,5
80235,116581,5
80230,116554,4
80229,116572,5
80205,116568,5
80237,116590,5
80235,116585,4
80235,116576,4
80189,116584,5
80233,116577,5
80234,116565,5
80234,116574,4
80175,116568,5
80236,116576,5
80236,116568,5
80226,116544,5
80211,116532,4
80201,116508,6
80159,116458,4
80116,116394,5
80107,116316,5
79996,116237,6
79914,116131,3
79840,116063,5
79863,115990,5
79745,115934,5
79716,115906,4
79684,115877,5
79697,115846,5
79650,115819,5
79606,115767,4
79592,115750,4
79576,115706,5
79536,115690,5
79547,115712,5
79551,115714,4
79563,115660,5
79543,115668,5
79492,115600,5
79429,115517,5
79333,115358,4
79294,115353,5
79240,115293,6
79175,115213,4
79129,115119,5
79067,115073,4
79040,115031,5
78982,114961,5
78940,114950,5
78940,114921,5
78939,114922,4
78946,114916,5
78950,114985,5
78945,114909,5
78944,114917,4
78955,114931,4
78961,114983,5
78985,114960,5
79000,114977,5
79011,114994,4
79033,115024,5
79053,115040,5
79070,115062,5
79076,115088,5
79134,115153,4
79176,115203,5
79204,115240,5
79253,115292,6
79286,115333,4
79324,115384,4
79369,115441,5
79380,115479,5
79396,115485,5
79422,115515,5
79451,115541,4
79455,115545,5
79450,115535,5
79449,115543,5
79454,115538,4
79440,115527,4
79452,115535,5
79430,115510,5
79428,115502,5
79402,115475,4
79384,115463,5
79376,115446,5
79366,115441,5
79366,115435,5
79375,115442,5
79377,115441,4
79378,115450,5
79386,115452,5
79395,115460,6
79401,115472,3
79404,115484,5
79423,115519,5
79440,115546,5
79473,115574,5
79487,115606,4
79515,115631,5
79526,115644,5
79540,115652,5
79549,115656,5
79566,115688,4
79590,115718,5
79631,115748,5
79641,115796,5
79691,115824,4
79707,115856,5
79719,115863,5
79733,115897,5
79751,115918,5
79759,115917,4
79758,115921,6
79760,115910,4
79747,115907,5
79735,115894,5
79735,115889,4
79718,115882,5
79718,115874,5
79730,115876,5
79727,115876,5
79726,115881,4
79732,115895,5
79740,115900,5
79749,115909,5
79761,115927,5
79763,115942,4
79798,115984,5
79823,116010,5
79847,116040,5
79865,116060,4
79882,116078,5
79878,116062,5
79844,116020,5
79821,115983,5
79809,115998,4
79801,115972,5
79790,115962,6
79790,115970,4
79807,115983,5
79771,115992,4
79824,116005,5
79847,116039,5
79871,116063,5
79844,116109,5
79940,116168,4
80004,116247,5
80079,116335,5
80102,116410,5
80212,116512,5
80288,116614,4
80368,116703,5
80465,116806,5
80505,116877,5
80569,116972,4
80630,117044,5
80768,117131,5
80766,117217,5
80847,117339,5
80925,117423,4
81048,117508,5
81063,117593,5
81129,117676,6
81209,117796,4
81315,117890,4
81356,117961,5
81405,118030,5
81459,118102,5
81511,118142,5
81545,118196,4
81554,118210,5
81586,118263,5
81595,118196,5
81611,118284,5
81636,118308,4
81646,118332,5
81657,118273,5
81648,118349,5
81662,118351,4
81687,118392,6
81730,118452,4
81786,118534,5
81906,118687,5
82023,118842,6
82145,119078,3
82285,119175,5
82418,119367,5
82576,119562,5
82718,119787,4
82838,119893,5
82984,120088,5
83111,120240,5
83230,120404,5
83300,120488,4
83388,120585,5
83482,120698,5
83565,120787,5
83601,120839,5
83644,120902,4
83673,120942,5
83691,120965,5
83708,120982,5
83707,120975,4
83719,120997,5
83727,121001,5
83725,121013,5
83742,121034,5
83774,121073,4
83805,121109,6
83832,121158,4
83854,121175,5
83871,121218,5
83923,121261,4
83948,121282,5
83957,121301,5
83979,121334,5
83977,121351,5
84000,121372,4
83983,121330,5
83959,121270,5
83916,121246,5
83878,121204,5
83870,121185,4
83854,121171,5
83846,121178,5
83864,121196,5
83875,121202,4
83889,121214,5
83908,121258,5
83925,121273,5
83973,121361,5
84059,121456,4
84123,121532,5
84189,121613,6
84249,121696,4
84314,121782,5
84400,121881,4
84454,121927,5
84502,122004,5
84589,122112,5
84647,122181,5
84695,122241,4
84729,122279,5
84762,122324,5
84811,122393,5
84864,122454,5
84930,122539,4
85034,122672,5
85143,122817,5
85260,122947,5
85300,122989,4
85339,123029,5
85387,123104,5
85426,123135,5
85443,123167,5
85477,123213,4
85490,123213,5
85506,123246,5
85503,123238,5
85482,123204,5
85470,123173,4
85433,123128,5
85402,123087,5
85393,123089,5
85396,123089,5
85396,123102,4
85404,123111,5
85403,123111,5
85423,123138,5
85438,123148,5
85460,123175,4
85513,123251,5
85573,123336,5
85607,123410,5
85690,123482,4
85735,123533,5
85785,123595,5
85774,123663,5
85865,123693,5
85920,123751,5
85963,123791,4
85893,123800,5
85955,123790,5
85929,123762,5
85905,123732,4
85896,123684,5
85845,123647,5
85822,123648,5
85826,123626,5
85879,123635,4
85825,123641,5
85812,123637,5
85822,123624,5
85890,123606,5
85814,123633,4
85827,123647,5
85834,123661,5
85866,123661,5
85827,123644,4
85811,123615,5
85776,123543,6
85683,123397,4
85543,123268,5
85487,123192,4
85407,123093,7
85315,122948,3
85242,122902,5
85183,122832,5
85150,122799,4
85145,122713,5
85134,122788,5
85158,122810,5
85203,122870,5
85258,122922,4
85313,123019,5
85369,123085,5
85417,123146,5
85467,123258,5
85512,123262,4
85586,123364,5
85661,123439,5
85707,123575,5
85742,123540,4
85770,123581,4
85810,123623,5
85827,123669,6
85853,123670,4
85889,123698,4
85901,123720,5
85898,123739,5
85908,123746,5
85918,123743,5
85913,123734,4
85908,123730,5
85895,123724,5
85897,123727,5
85877,123706,5
85845,123654,4
85789,123587,5
85738,123512,5
85676,123432,5
85595,123341,5
85556,123289,4
85509,123231,5
85455,123145,5
85374,123073,5
85304,122982,5
85246,122896,4
85183,122826,5
85130,122764,5
85080,122705,6
85054,122667,3
85028,122638,5
84998,122612,5
84983,122597,5
84965,122586,5
84971,122580,4
84953,122553,5
84948,122546,5
84927,122520,5
84890,122471,5
84828,122395,4
84773,122304,5
84680,122208,5
84599,122088,5
84487,121961,5
84407,121866,4
84318,121765,5
84246,121682,5
84178,121601,5
84129,121524,4
84075,121470,5
83999,121368,4
83929,121283,5
83894,121235,5
83849,121185,6
83815,121140,3
83766,121078,5
83681,120976,5
83552,120791,5
83368,120541,4
83177,120318,5
83037,120143,5
82881,119936,5
82715,119735,5
82566,119547,4
82409,119358,5
82260,119161,5
82117,118979,5
81996,118821,5
81870,118689,7
81791,118605,2
81733,118535,5
81709,118487,5
81663,118440,4
81618,118371,4
81563,118310,6
81520,118268,4
81489,118221,5
81477,118197,4
81468,118196,5
81467,118183,5
81446,118163,5
81437,118156,5
81434,118137,4
81418,118126,5
81408,118128,5
81427,118143,5
81443,118148,5
81448,118161,4
81412,118167,5
81466,118176,5
81451,118172,5
81443,118162,5
81385,118156,4
81438,118152,5
81434,118135,5
81410,118109,5
81327,118080,4
81344,118038,4
81319,117991,5
81252,117916,6
81226,117857,4
81158,117793,4
81108,117726,5
81055,117659,5
81054,117583,5
80934,117517,5
80876,117445,4
80824,117395,5
80853,117372,5
80797,117354,5
80789,117344,5
80761,117315,4
80753,117272,5
80713,117247,5
80690,117217,5
80663,117196,5
80669,117171,4
80655,117191,5
80651,117180,5
80629,117147,5
80615,117079,5
80602,117102,4
80562,117067,5
80527,117021,5
80485,116904,6
80433,116895,3
80370,116813,5
80286,116688,5
80200,116604,5
80137,116497,5
80063,116429,4
80035,116392,5
80017,116430,5
79999,116334,5
79965,116301,5
79928,116250,4
79889,116287,5
79871,116185,5
79849,116174,5
79851,116179,5
79857,116202,4
79861,116179,5
79847,116162,5
79798,116081,5
79722,115986,4
79653,115910,5
79604,115855,4
79567,115793,5
79517,115740,5
79490,115692,4
79440,115646,5
79399,115601,5
79352,115531,5
79314,115510,5
79318,115503,4
79339,115510,5
79333,115525,5
79338,115522,5
79343,115534,5
79350,115543,4
79351,115550,5
79372,115572,5
79400,115598,5
79412,115631,5
79438,115647,4
79442,115662,5
79454,115685,5
79471,115692,5
79465,115709,4
79509,115762,4
79540,115801,6
79569,115835,4
79593,115873,5
79610,115882,4
79627,115913,5
79666,115958,5
79691,115995,5
79716,116017,5
79728,116033,4
79746,116053,5
79756,116060,5
79758,116057,5
79767,116066,5
79759,116061,4
79774,116082,5
79778,116090,5
79767,116079,5
79769,116077,5
79758,116057,4
79741,116034,5
79735,116027,5
79723,116003,5
79716,116007,4
79716,115995,4
79697,115998,5
79704,115994,6
79687,115983,4
79700,115975,4
79688,115971,5
79694,115973,5
79698,115980,5
79710,115998,5
79709,115996,4
79728,116021,5
79726,116018,5
79734,116026,5
79728,116029,5
79719,116005,4
79721,116006,5
79698,115985,5
79677,115952,5
79656,115922,5
79617,115878,4
79574,115824,5
79552,115783,5
79509,115750,5
79500,115732,5
79490,115729,4
79481,115708,5
79466,115687,5
79444,115668,5
79411,115641,4
79402,115613,5
79385,115593,5
79393,115599,5
79348,115602,5
79404,115622,4
79425,115648,5
79435,115642,5
79362,115640,5
79411,115615,5
79363,115565,4
79329,115515,5
79306,115499,5
79295,115467,5
79276,115442,5
79273,115445,4
79320,115448,5
79268,115432,5
79258,115431,5
79257,115418,4
79337,115429,5
79280,115451,4
79278,115464,5
79310,115495,5
79369,115529,4
79367,115567,5
79405,115607,5
79443,115662,5
79498,115722,5
79531,115781,4
79590,115845,5
79646,115920,5
79709,115955,5
79763,116064,5
79826,116136,4
79895,116226,5
79969,116257,5
80033,116411,5
80117,116499,5
80183,116599,5
80255,116640,4
80324,116783,5
80401,116848,5
80411,116867,4
80439,116962,4
80497,116987,6
80550,117040,4
80586,117079,5
80596,117187,4
80643,117152,5
80672,117199,5
80673,117196,5
80681,117266,5
80699,117222,4
80698,117224,5
80700,117229,5
80705,117259,5
80722,117250,5
80733,117259,4
80739,117286,5
80766,117312,5
80794,117358,5
80846,117417,5
80894,117476,4
80944,117542,5
80990,117596,5
81042,117658,5
81093,117738,4
81128,117782,4
81201,117867,5
81258,117946,5
81311,117998,5
81337,118039,4
81371,118089,5
81397,118114,5
81415,118151,5
81427,118142,5
81432,118153,4
81437,118156,5
81420,118134,5
81401,118114,5
81367,118058,5
81313,117998,4
81241,117919,5
81203,117854,5
81139,117780,5
81099,117734,5
81087,117720,4
81073,117710,5
81081,117721,5
81083,117736,5
81096,117747,5
81116,117785,4
81129,117791,5
81162,117823,5
81210,117883,5
81247,117942,4
81290,117998,5
81340,118056,5
81369,118086,5
81378,118106,5
81386,118096,4
81333,118018,5
81275,117956,5
81223,117900,5
81164,117821,5
81108,117740,4
81056,117670,5
81024,117637,5
81002,117622,5
80985,117612,5
80983,117600,4
81000,117610,6
81012,117640,4
81047,117679,5
81091,117727,4
81129,117790,6
81172,117859,3
81249,117934,5
81294,118007,5
81352,118070,4
81434,118172,5
81500,118262,5
81568,118356,5
81639,118432,5
81698,118514,4
81755,118579,5
81802,118624,5
81834,118675,5
81889,118731,5
81941,118793,4
81982,118824,5
81992,118861,5
82019,118887,5
82049,118936,5
82085,118949,4
82078,118946,5
82059,118986,6
82135,119018,4
82150,119039,4
82142,119041,4
82087,119051,5
82150,119052,5
82147,119043,5
82143,119029,4
82082,119020,5
82127,119018,5
82113,119013,5
82118,118996,5
82138,118996,4
82098,118990,5
82110,118999,5
82113,118991,5
82183,118997,5
82124,119009,4
82122,119020,5
82135,119049,5
82208,119053,5
82171,119076,5
82182,119089,4
82205,119114,5
82260,119170,5
82283,119231,6
82330,119266,3
82350,119307,4
82358,119282,5
82351,119318,5
82364,119314,5
82363,119296,4
82355,119237,5
82351,119305,5
82349,119296,5
82335,119284,5
82309,119197,4
82307,119243,5
82282,119218,5
82256,119171,5
82245,119171,5
82222,119156,4
82198,119112,5
82169,119088,5
82140,119090,5
82101,118981,5
82058,118933,5
82014,118873,4
81963,118896,5
81918,118777,5
81881,118713,6
81816,118643,3
81765,118579,5
81678,118442,5
81556,118300,5
81452,118154,4
81335,118022,5
81222,117879,5
81117,117746,5
81011,117616,5
80900,117491,4
80804,117368,5
80710,117264,5
80636,117172,5
80579,117112,5
80552,117079,4
80546,117067,5
80542,117067,5
80529,117045,5
80514,117017,5
80503,117004,4
80476,116990,6
80468,116954,4
80423,116909,5
80372,116843,4
80273,116685,4
80128,116501,5
80008,116368,5
79914,116241,5
79788,116097,4
79697,115980,5
79620,115887,5
79576,115810,5
79518,115749,5
79467,115664,4
79412,115616,5
79394,115589,5
79379,115583,5
79378,115571,5
79384,115585,4
79386,115591,5
79404,115593,5
79405,115607,5
79416,115619,5
79429,115626,4
79439,115652,5
79468,115686,6
79498,115712,4
79522,115755,4
79546,115769,4
79568,115802,5
79576,115829,5
79610,115857,5
79641,115894,4
79661,115926,5
79678,115943,5
79699,115962,5
79705,115980,5
79722,115997,4
79726,116001,5
79723,116001,5
79726,116009,5
79730,116012,5
79730,116011,4
79731,115998,5
79715,115969,5
79697,115956,5
79682,115931,5
79650,115898,4
79622,115854,5
79588,115812,5
79539,115747,6
79479,115687,3
79443,115658,4
79428,115607,5
79388,115569,5
79378,115571,5
79383,115561,4
79370,115558,6
79371,115551,4
79357,115540,5
79368,115547,5
79357,115547,4
79358,115560,5
79374,115580,5
79390,115576,5
79402,115595,5
79348,115591,4
79405,115591,5
79419,115604,5
79415,115603,5
79353,115607,5
79415,115616,5
79414,115598,4
79409,115613,5
79397,115585,5
79387,115583,4
79372,115553,4
79354,115532,5
79399,115532,5
79334,115509,5
79314,115471,4
79277,115421,5
79285,115356,5
79166,115280,5
79100,115187,5
79039,115118,4
79022,115074,5
78941,115015,5
78914,114964,5
78866,114908,5
78825,114854,4
78772,114797,5
78734,114750,5
78705,114710,5
78673,114629,5
78648,115379,4
78614,115338,6
78588,115301,4
78579,115201,5
78539,115222,4
78523,115213,4
78512,115206,5
78512,115172,5
78482,115141,5
78396,115035,4
78317,114933,5
78255,114880,5
78195,114774,5
78142,114728,5
78120,114690,4
78112,114744,5
78087,114643,5
78065,114602,5
78050,114591,5
78038,114614,4
78035,114588,5
78061,114616,5
78074,114648,5
78105,114671,5
78129,114691,4
78141,114717,5
78164,114744,6
78183,114781,4
78237,114848,4
78285,114891,4
78327,114937,5
78355,114985,5
78395,115024,5
78415,115064,4
78455,115116,5
78499,115167,5
78552,115240,5
78608,115301,5
78656,115363,4
78701,115430,5
78772,115510,5
78806,115544,5
78827,115582,5
78850,115613,4
78870,115645,5
78890,115671,5
78915,115699,5
78923,115698,5
78934,115702,4
78935,115708,5
78926,115699,5
78927,115706,5
78930,115705,4
78934,115713,4
78941,115727,5
78952,115729,5
78967,115762,5
78980,115771,4
79002,115799,5
79029,115847,5
79080,115912,5
79121,115968,5
79162,116028,4
79206,116069,5
79249,116132,5
79306,116186,5
79357,116267,5
79422,116356,4
79496,116446,5
79558,116527,5
79620,116599,5
79670,116655,5
79697,116696,5
79721,116704,4
79715,116692,5
79720,116704,5
79722,116702,4
79703,116703,4
79712,116718,5
79728,116710,5
79722,116729,5
79739,116728,4
79749,116739,5
79771,116783,5
79810,116820,5
79832,116854,5
79870,116916,4
79893,116936,5
79918,116958,5
79932,116978,5
79944,116994,5
79935,116984,4
79932,116986,5
79932,116983,5
79914,116952,5
79871,116881,5
79808,116840,4
79797,116813,6
79766,116772,4
79750,116753,5
79747,116756,4
79759,116778,4
79772,116786,5
79786,116813,5
79768,116847,5
79857,116894,4
79894,116942,5
79954,117029,5
79961,117118,5
80091,117205,5
80172,117305,4
80235,117397,5
80271,117478,5
80382,117580,5
80449,117658,5
80519,117748,4
80649,117854,5
80672,117941,5
80733,118013,5
80787,118081,5
80940,118172,4
80919,118262,5
80980,118315,5
81038,118415,5
81170,118513,4
81203,118612,4
81238,118660,5
81248,118672,5
81277,118690,5
81291,118731,4
81287,118733,5
81305,118735,5
81319,118728,5
81325,118764,5
81325,118754,4
81312,118738,5
81309,118669,5
81287,118707,5
81272,118689,5
81262,118674,5
81272,118635,4
81296,118727,5
81322,118767,5
81357,118813,6
81397,118895,3
81472,118961,5
81530,119025,5
81589,119123,5
81695,119326,4
81789,119366,4
81880,119471,5
81942,119549,5
81998,119685,5
82051,119701,4
82101,119737,5
82100,119745,5
82113,119774,5
82115,119750,5
82118,119755,4
82108,119733,5
82085,119715,5
82081,119710,5
82076,119711,5
82061,119675,4
82064,119700,6
82067,119701,4
82083,119724,5
82098,119730,5
82086,119740,6
82090,119731,3
82088,119724,5
82078,119725,5
82084,119718,4
82073,119719,4
82076,119716,5
82066,119696,5
82027,119643,5
81967,119572,4
81924,119523,5
81874,119462,5
81845,119439,5
81828,119427,5
81824,119430,4
81834,119436,5
81845,119449,5
81866,119477,5
81892,119509,5
81920,119547,4
82001,119645,5
82073,119748,6
82135,119829,4
82204,119922,5
82292,120024,4
82370,120118,5
82442,120199,5
82503,120293,5
82599,120413,4
82669,120494,4
82751,120598,5
82807,120679,5
82862,120733,5
82925,120814,4
82973,120867,5
83013,120933,5
83067,121000,5
83118,121053,5
83171,121124,4
83219,121180,5
83241,121210,5
83259,121253,5
83303,121280,5
83320,121314,4
83341,121354,5
83381,121393,5
83393,121414,6
83410,121426,4
83412,121430,4
83414,121420,5
83392,121398,5
83383,121389,5
83378,121389,4
83383,121390,4
83388,121397,5
83381,121403,5
83399,121409,5
83407,121441,4
83441,121471,5
83471,121500,5
83515,121577,5
83570,121655,5
83615,121705,4
83650,121741,5
83675,121776,5
83696,121787,5
83706,121797,5
83693,121790,5
83687,121777,4
83655,121764,5
83669,121765,5
83668,121748,6
83652,121739,3
83597,121735,5
83653,121738,5
83637,121708,5
83639,121717,4
83587,121729,4
83643,121724,5
83645,121739,5
83649,121745,5
83670,121729,4
83650,121721,5
83626,121693,5
83611,121690,5
83642,121624,5
83490,121532,4
83432,121448,5
83366,121371,5
83360,121299,5
83244,121221,5
83189,121173,4
83178,121141,6
83179,121134,4
83148,121109,5
83129,121096,5
83139,121119,4
83141,121093,5
83152,121126,5
83150,121132,5
83181,121161,4
83196,121136,4
83210,121206,5
83220,121209,5
83219,121216,5
83227,121155,4
83231,121222,5
83215,121215,5
83219,121210,5
83205,121197,5
83184,121172,4
83160,121131,5
83110,121070,5
83047,121054,5
82988,120918,5
82935,120871,4
82918,120838,5
82865,120840,6
82783,120673,4
82713,120585,5
82635,120488,4
82556,120392,5
82477,120280,5
82421,120213,5
82370,120158,4
82327,120095,4
82264,120008,5
82183,119887,5
82062,119740,5
81952,119611,4
81846,119474,5
81780,119428,5
81763,119403,5
81744,119376,5
81725,119348,4
81686,119300,5
81634,119232,5
81577,119167,5
81519,119085,5
81453,119012,4
81409,118969,5
81374,118912,5
81331,118859,6
81286,118800,4
81223,118731,4
81167,118650,5
81115,118587,5
81056,118533,5
81026,118498,4
81015,118481,4
80988,118460,5
80960,118413,5
80928,118374,5
80909,118366,4
80903,118358,5
80907,118359,5
80916,118372,5
80929,118381,5
80913,118353,4
80860,118288,5
80820,118237,5
80773,118185,5
80770,118182,5
80759,118179,5
80781,118198,4
80785,118214,5
80786,118211,5
80796,118220,5
80794,118222,4
80794,118233,5
80801,118252,5
80852,118304,5
80872,118338,4
80905,118374,4
80925,118388,5
80942,118413,5
80949,118428,5
80967,118456,4
81002,118507,5
81089,118606,5
81157,118684,5
81172,118693,5
81162,118687,4
81169,118688,5
81165,118679,5
81174,118707,5
81206,118756,5
81236,118774,4
81249,118782,6
81231,118776,4
81245,118777,5
81231,118778,5
81233,118773,4
81246,118765,5
81209,118718,5
81182,118676,5
81165,118656,4
81170,118675,4
81173,118684,5
81180,118678,5
81170,118676,5
81149,118657,4
81110,118626,5
81107,118589,5
81092,118558,5
81041,118491,5
80930,118411,4
80903,118308,5
80854,118248,5
80809,118188,5
80701,118127,5
80717,118073,8
80651,117987,1
80601,117882,6
80521,117820,4
80447,117728,5
80399,117669,4
80343,117584,5
80320,117494,5
80197,117404,5
80119,117298,4
80056,117213,4
80069,117152,5
79948,117105,5
79955,117101,5
79924,117054,4
79913,116996,5
79838,116926,5
79799,116905,5
79786,116873,5
79779,116849,4
79773,116864,5
79772,116848,5
79723,116779,5
79649,116634,5
79558,116562,4
79503,116496,5
79439,116424,5
79394,116315,5
79397,116368,5
79387,116373,4
79389,116361,5
79375,116308,5
79355,116316,5
79338,116296,5
79326,116279,4
79330,116337,5
79342,116313,5
79361,116317,5
79355,116313,4
79354,116398,5
79374,116328,5
79369,116334,5
79394,116361,5
79424,116450,4
79443,116419,5
79461,116443,5
79479,116461,5
79489,116483,5
79508,116500,5
79538,116540,4
79579,116606,5
79633,116669,5
79672,116709,5
79710,116770,4
79759,116808,5
79765,116837,5
79786,116851,5
79808,116887,5
79866,116959,4
79900,116998,5
79913,117020,5
79939,117035,5
79941,117041,4
79942,117041,5
79935,117040,5
79929,117040,5
79938,117039,5
79926,117027,4
79921,117002,5
79900,116991,5
79892,116981,5
79880,116961,5
79868,116956,4
79868,116961,6
79878,116950,4
79880,116957,5
79878,116953,5
79877,116950,4
79881,116964,5
79876,116965,5
79880,116969,5
79899,116981,5
79909,116991,4
79902,116991,5
79896,116992,5
79901,116978,5
79886,116960,4
79864,116935,5
79837,116898,5
79816,116872,5
79788,116853,5
79787,116832,4
79765,116817,5
79757,116810,5
79748,116797,5
79747,116811,5
79746,116804,4
79764,116808,5
79763,116817,5
79766,116825,5
79775,116849,5
79794,116865,4
79819,116890,5
79862,116936,5
79905,116981,5
79934,117014,5
79940,117018,4
79923,117000,5
79905,116986,5
79904,116983,5
79890,116973,4
79886,116954,5
79883,116971,5
79896,116989,5
79916,117004,5
79912,117010,4
79928,117015,4
79942,117029,5
79941,117040,5
79978,117064,5
79999,117107,3
80033,117163,5
80092,117225,5
80133,117289,5
80187,117368,5
80261,117447,4
80327,117519,5
80383,117605,5
80425,117716,5
80550,117821,5
80627,117927,4
80713,118035,5
80740,118136,5
80885,118236,5
80958,118329,4
81032,118420,5
81064,118511,5
81172,118596,5
81229,118680,5
81305,118778,4
81389,118828,6
81389,118867,4
81413,118897,5
81465,118966,5
81574,119021,6
81527,119059,3
81574,119098,5
81610,119162,5
81689,119208,5
81689,119255,4
81711,119280,5
81750,119334,5
81790,119363,5
81814,119411,5
81834,119449,4
81856,119484,5
81898,119504,5
81956,119600,5
81986,119646,4
82059,119742,4
82129,119761,5
82205,119910,5
82259,119985,5
82302,120022,5
82350,120019,4
82390,120146,6
82428,120167,4
82447,120213,5
82468,120256,4
82464,120225,5
82463,120226,5
82441,120214,5
82440,120265,5
82422,120166,4
82413,120158,5
82410,120168,5
82421,120241,5
82430,120207,5
82456,120231,4
82483,120265,5
82530,120348,5
82580,120394,5
82629,120460,4
82694,120548,4
82774,120648,5
82856,120752,5
82929,120840,5
82985,120916,4
83031,120966,5
83051,120973,5
83013,120905,6
82959,120857,4
82945,120840,4
82911,120789,5
82858,120733,5
82831,120694,5
82811,120686,5
82818,120684,4
82801,120661,5
82807,120673,5
82828,120708,5
82851,120753,5
82895,120804,4
82950,120875,5
83021,120957,5
83094,121050,5
83140,121109,4
83220,121211,4
83396,121312,5
83463,121410,5
83542,121497,5
83606,121571,5
83660,121657,4
83744,121749,5
83795,121803,5
83877,121906,6
83968,122045,3
84050,122123,5
84123,122236,5
84197,122319,5
84288,122442,5
84416,122606,4
84536,122743,5
84639,122891,5
84774,123048,5
84892,123177,5
84989,123297,4
85058,123383,5
85116,123480,5
85198,123567,5
85248,123619,4
85315,123716,4
85388,123804,5
85449,123878,5
85480,123930,5
85504,123954,4
85536,124007,6
85585,124065,4
85614,124101,5
85680,124191,5
85750,124294,4
85851,124423,5
85953,124555,5
86049,124674,5
86153,124818,5
86284,124985,4
86390,125125,5
86539,125284,5
86662,125464,5
86758,125592,5
86851,125704,4
86937,125811,5
87016,125923,5
87061,125965,5
87094,126002,4
87117,126028,4
87136,126045,5
87129,126060,5
87146,126058,5
87139,126058,4
87152,126086,5
87122,126076,6
87152,126086,4
87181,126140,5
87223,126195,4
87213,126260,5
87335,126337,5
87382,126398,5
87466,126511,5
87486,126625,4
87658,126749,5
87782,126913,5
87915,127078,5
88047,127212,5
88049,127241,4
88034,127217,5
88037,127220,5
88098,127195,5
87998,127159,4
87999,127167,4
88011,127213,5
88129,127246,5
88085,127284,5
88109,127345,4
88204,127467,5
88316,127577,5
88456,127789,6
88650,128050,4
88820,128280,4
88995,128478,5
89143,128672,5
89304,128866,5
89495,129127,5
89665,129302,4
89878,129646,5
90105,129919,5
90260,130140,5
90428,130263,5
90558,130476,4
90668,130645,5
90853,130872,5
90986,131028,5
91144,131281,4
91350,130824,4
91522,131047,5
91728,131379,5
91954,131610,5
92081,131755,5
92200,131906,4
92285,132074,5
92313,132034,5
92380,132119,6
92414,132188,3
92506,132344,5
92587,132399,5
92647,132473,5
92685,132510,5
92641,132438,4
92624,132423,5
92605,132388,5
92536,132308,5
92497,132260,5
92462,132229,4
92430,132204,5
92417,132175,5
92357,132099,5
92327,132049,4
92255,131957,4
92200,131904,5
92147,131840,5
92053,131703,5
91967,131613,4
91902,131509,6
91778,131384,4
91682,131273,5
91584,131139,5
91485,131009,4
91352,130822,5
91178,130608,5
90974,130369,5
90801,130126,5
90617,129891,4
90448,129708,5
90281,129486,5
90067,129198,5
89828,128898,5
89578,128564,4
89318,128262,5
89095,127982,5
88899,127756,5
88754,127579,4
88617,127390,4
88454,127203,5
88304,126990,5
88158,126819,5
88039,126644,4
87890,126460,5
87741,126268,6
87553,126005,4
87326,125694,5
87093,125404,4
86881,125140,5
86684,124876,5
86463,124612,5
86280,124391,5
86128,124215,4
86016,124074,5
85895,123924,5
85780,123777,5
85649,123616,5
85556,123502,4
85481,123407,5
85408,123324,5
85373,123280,5
85327,123236,4
85303,123193,4
85265,123128,5
85217,123063,5
85181,123030,5
85150,122996,4
85143,122972,5
85135,122982,5
85133,122981,6
85136,122972,4
85127,122962,4
85126,122950,5
85110,122941,5
85105,122934,5
85117,122936,5
85126,122968,4
85124,122958,5
85113,122923,5
85093,122905,5
85091,122900,5
85059,122879,4
85052,122846,5
85030,122826,5
85011,122800,5
84933,122769,4
84933,122692,4
84870,122617,5
84792,122520,5
84628,122388,5
84569,122223,5
84471,122100,4
84389,122013,5
84284,121898,5
84206,121773,5
84106,121661,4
84018,121555,5
83990,121441,5
83880,121376,5
83834,121322,5
83800,121299,4
83868,121264,5
83790,121252,5
83759,121221,5
83735,121193,5
83742,121169,6
83711,121155,3
83708,121145,5
83698,121150,5
83698,121137,4
83697,121125,4
83690,121129,5
83692,121140,5
83691,121083,5
83690,121124,4
83690,121139,6
83688,121120,4
83681,121055,5
83676,121121,5
83675,121102,4
83666,121093,5
83665,121050,5
83663,121101,5
83655,121092,5
83665,121094,4
83664,121125,5
83663,121083,5
83641,121062,5
83616,121018,5
83574,121044,4
83512,120887,5
83445,120802,5
83384,120715,5
83337,120711,4
83290,120601,4
83259,120569,5
83240,120540,6
83211,120525,4
83202,120501,4
83197,120483,5
83181,120476,7
83166,120466,3
83162,120469,5
83164,120454,4
83155,120449,5
83174,120447,5
83185,120486,5
83217,120519,5
83227,120537,4
83235,120523,5
83213,120481,5
83162,120448,5
83143,120411,5
83096,120348,4
83051,120281,5
83004,120252,5
83005,120228,5
82985,120225,4
82979,120214,4
82978,120202,5
82974,120198,5
82978,120201,5
82979,120208,4
82986,120227,5
83002,120252,5
83026,120274,5
83045,120280,5
83067,120322,4
83093,120354,5
83127,120376,5
83144,120422,5
83177,120456,5
83208,120489,4
83243,120538,5
83265,120577,5
83304,120629,5
83357,120683,5
83384,120722,4
83413,120733,5
83426,120769,5
83445,120801,5
83481,120843,4
83527,120887,5
83529,120900,4
83539,120904,5
83544,120918,5
83539,120914,6
83542,120886,3
83514,120892,5
83526,120867,5
83504,120863,5
83493,120854,4
83468,120814,5
83454,120800,5
83424,120758,5
83387,120705,5
83354,120662,4
83330,120637,5
83312,120629,5
83311,120608,5
83299,120595,5
83297,120599,4
83295,120590,5
83303,120606,5
83292,120603,5
83302,120604,4
83308,120606,4
83305,120610,6
83317,120625,4
83317,120636,5
83335,120646,4
83334,120650,7
83343,120657,3
83340,120650,5
83354,120649,5
83336,120641,4
83337,120647,5
83328,120631,5
83278,120625,5
83310,120610,5
83271,120568,4
83267,120558,5
83190,120535,5
83237,120507,5
83204,120480,5
83173,120445,4
83082,120390,5
83112,120350,5
83068,120304,5
83041,120275,4
83033,120245,4
82990,120202,5
82970,120167,6
82937,120130,4
82977,120083,4
82876,120049,5
82836,119994,5
82805,119959,5
82839,119929,5
82749,119890,4
82721,119866,5
82703,119835,5
82697,119792,5
82642,119757,5
82608,119717,4
82571,119670,5
82553,119612,5
82517,119592,5
82479,119559,5
82436,119493,4
82372,119358,5
82287,119308,5
82211,119183,5
82114,119076,5
82036,118901,4
81964,118885,5
81888,118806,5
81840,118749,6
81796,118677,3
81752,118630,5
81710,118590,5
81675,118551,5
81673,118589,5
81652,118515,4
81634,118520,5
81652,118504,5
81640,118595,5
81644,118514,5
81648,118512,4
81646,118515,5
81650,118553,5
81635,118499,5
81586,118416,5
81521,118332,4
81496,118317,5
81468,118269,5
81437,118216,5
81388,118179,4
81383,118187,5
81404,118183,4
81413,118199,5
81412,118209,5
81433,118236,6
81459,118282,3
81497,118321,5
81531,118361,5
81585,118437,5
81647,118521,4
81712,118594,5
81779,118679,5
81849,118771,5
81921,118865,5
81992,118951,4
82047,119014,5
82097,119081,5
82158,119176,5
82222,119247,5
82286,119313,4
82343,119379,5
82389,119440,5
82429,119491,5
82450,119520,4
82480,119555,4
82522,119625,6
82582,119705,4
82637,119745,5
82650,119778,4
82671,119805,5
82702,119830,5
82712,119833,5
82710,119841,5
82716,119845,4
82719,119845,5
82708,119843,5
82703,119828,5
82687,119820,5
82684,119810,4
82677,119791,5
82665,119779,5
82656,119774,5
82654,119778,5
82660,119771,4
82654,119775,5
82662,119778,5
82669,119792,5
82685,119810,5
82695,119826,4
82719,119855,5
82765,119921,6
82820,119998,4
82880,120072,4
82939,120148,5
82998,120233,5
83060,120311,5
83123,120390,5
83163,120425,4
83204,120481,5
83242,120534,5
83264,120570,5
83287,120580,5
83286,120595,4
83287,120577,5
83285,120570,5
83276,120553,5
83252,120521,5
83246,120524,4
83243,120514,5
83230,120509,5
83217,120487,5
83201,120470,5
83197,120459,4
83172,120436,5
83145,120406,5
83135,120381,6
83124,120367,3
83074,120349,4
83087,120335,5
83074,120312,5
83036,120261,5
82937,120222,4
82954,120135,5
82888,120068,5
82855,120029,5
82775,119989,5
82793,119958,4
82762,119914,5
82724,119882,5
82733,119842,5
82675,119808,5
82643,119755,4
82620,119748,5
82688,119744,5
82608,119738,5
82590,119719,5
82580,119692,5
82614,119662,4
82532,119645,5
82508,119583,5
82466,119551,4
82472,119528,4
82429,119500,5
82374,119416,5
82267,119285,5
82190,119169,4
82136,119138,5
82089,119066,5
82027,118998,5
82003,118902,5
82000,118959,4
81981,118941,5
81985,118945,5
81996,118899,5
82017,118991,5
82052,119033,4
82078,119077,5
82138,119165,5
82218,119253,5
82285,119351,5
82370,119447,4
82450,119600,6
82524,119639,4
82608,119728,5
82662,119802,4
82738,119991,4
82805,119995,5
82857,120070,5
82909,120116,5
82958,120215,4
82999,120238,5
83039,120301,5
83075,120333,5
83107,120372,5
83165,120445,4
83216,120496,5
83211,120493,5
83220,120506,5
83217,120517,5
83222,120496,4
83210,120474,5
83182,120465,5
83184,120452,5
83177,120443,5
83161,120403,4
83121,120369,5
83077,120318,6
83038,120268,4
83005,120230,5
82973,120185,4
82955,120181,5
82953,120165,5
82954,120177,5
82968,120177,4
82961,120185,4
82979,120192,5
82980,120207,5
82983,120226,5
83003,120235,4
83035,120267,5
83066,120313,5
83091,120347,5
83112,120362,5
83130,120389,4
83151,120419,5
83147,120415,5
83147,120401,5
83155,120417,5
83151,120421,4
83153,120425,5
83146,120430,5
83137,120418,5
83141,120415,5
83142,120404,4
83129,120391,5
83110,120373,5
83100,120346,5
83077,120330,4
83050,120291,4
83040,120266,5
83012,120237,5
82993,120215,5
82954,120164,4
82923,120118,5
82876,120077,5
82845,120028,5
82794,119979,5
82742,119912,4
82692,119838,5
82635,119788,5
82586,119705,5
82514,119616,5
82467,119550,5
82411,119488,4
82341,119410,5
82284,119337,5
82237,119264,5
82199,119227,4
82168,119192,5
82143,119158,5
82122,119140,5
82116,119132,5
82094,119101,4
82077,119095,5
82060,119050,5
82032,119015,5
82001,118979,4
81961,118928,5
81914,118868,5
81841,118762,5
81739,118626,5
81656,118519,4
81593,118457,5
81551,118386,5
81451,118311,5
81440,118277,5
81423,118250,4
81405,118229,6
81353,118230,4
81415,118237,5
81423,118266,5
81463,118305,4
81442,118360,5
81543,118415,5
81589,118465,5
81660,118547,5
81733,118632,4
81787,118716,5
81852,118808,5
81921,118873,5
82049,118961,4
82031,119034,4
82071,119061,5
82107,119119,5
82206,119158,5
82159,119185,4
82176,119205,5
82193,119225,5
82241,119245,5
82239,119274,5
82253,119289,4
82253,119297,5
82246,119268,5
82240,119282,5
82227,119267,5
82217,119240,5
82207,119164,4
82163,119167,5
82129,119130,5
82096,119081,5
82056,118971,4
82015,118980,5
81954,118904,5
81902,118849,5
81843,118759,4
81792,118700,4
81730,118630,5
81691,118582,5
81671,118616,5
81661,118533,5
81635,118518,4
81625,118491,5
81615,118548,5
81591,118468,6
81586,118457,3
81581,118461,5
81594,118506,5
81598,118472,5
81602,118481,5
81599,118468,4
81600,118493,5
81592,118482,5
81591,118466,5
81608,118483,5
81601,118480,4
81595,118479,5
81607,118478,5
81599,118472,5
81581,118452,5
81572,118432,4
81552,118416,5
81532,118407,5
81515,118366,5
81489,118339,4
81472,118305,6
81436,118262,4
81375,118191,5
81326,118112,5
81268,118043,6
81208,117956,3
81152,117889,5
81078,117801,5
81010,117707,5
80939,117610,4
80853,117520,5
80788,117454,5
80737,117382,5
80673,117296,5
80612,117212,4
80570,117145,5
80507,117066,5
80449,117016,5
80409,116964,5
80406,116945,4
80399,116966,5
80410,116953,5
80392,116958,5
80399,116956,4
80389,116936,4
80364,116901,6
80349,116881,4
80317,116857,5
80290,116798,4
80217,116693,5
80120,116550,5
80039,116464,5
79967,116371,5
79891,116270,4
79828,116207,5
79787,116171,5
79790,116152,5
79768,116137,5
79758,116134,4
79784,116142,5
79789,116153,5
79807,116189,5
79841,116223,5
79871,116278,4
79929,116337,5
79972,116399,5
80028,116476,5
80086,116559,5
80152,116646,4
80222,116715,5
80274,116771,6
80328,116848,4
80384,116922,4
80452,117012,5
80509,117089,5
80571,117174,5
80633,117229,5
80681,117300,4
80723,117347,5
80768,117403,5
80816,117477,5
80848,117516,5
80885,117537,4
80891,117559,5
80909,117585,5
80918,117593,5
80942,117604,5
80919,117609,4
80934,117606,5
80936,117613,5
80944,117608,5
80865,117586,5
80904,117577,4
80894,117549,5
80881,117535,5
80810,117529,6
80866,117513,3
80853,117503,4
80857,117514,5
80875,117520,5
80867,117538,5
80877,117542,4
80900,117570,5
80982,117607,5
80971,117666,5
81007,117706,5
81037,117758,4
81167,117822,5
81142,117884,5
81175,117912,5
81206,117957,5
81257,117987,4
81243,118007,5
81248,118015,5
81256,118014,5
81252,117989,5
81242,117983,5
81227,117978,4
81216,117962,5
81201,117891,5
81183,117912,6
81169,117896,3
81153,117879,5
81146,117804,5
81119,117841,5
81117,117835,4
81114,117830,5
81108,117805,5
81105,117816,5
81076,117783,5
81051,117760,4
81040,117775,5
81014,117712,5
80991,117686,5
80970,117650,5
80930,117688,4
80886,117531,5
80808,117431,5
80730,117342,5
80693,117334,5
80645,117236,4
80612,117197,6
80584,117178,4
80582,117171,5
80564,117140,5
80577,117142,4
80562,117147,5
80578,117162,5
80601,117189,5
80623,117211,4
80658,117255,5
80690,117305,5
80734,117356,5
80788,117428,5
80814,117475,4
80860,117538,5
80924,117592,5
80970,117649,5
81009,117706,5
81046,117759,4
81090,117815,5
81118,117851,5
81155,117880,5
81195,117948,5
81245,117997,4
81269,118036,5
81304,118081,6
81354,118141,4
81373,118158,5
81373,118162,4
81376,118149,5
81363,118144,5
81362,118140,5
81348,118129,4
81338,118115,4
81327,118095,5
81289,118054,5
81259,118006,5
81222,117964,4
81195,117918,5
81159,117886,5
81123,117847,5
81105,117827,5
81099,117808,4
81078,117797,5
81070,117785,5
81079,117789,5
81098,117796,5
81083,117790,4
81091,117818,5
81087,117813,5
81106,117821,6
81105,117825,4
81117,117844,4
81121,117846,5
81130,117854,5
81133,117862,5
81127,117861,4
81130,117862,4
81132,117857,5
81135,117858,5
81134,117854,5
81135,117857,4
81117,117849,5
81119,117834,5
81109,117822,5
81092,117798,5
81072,117771,4
81054,117743,5
81029,117721,5
80993,117673,5
80951,117602,5
80899,117549,5
80833,117463,4
80767,117360,5
80682,117271,5
80607,117190,5
80553,117111,4
80497,117029,5
80447,116952,5
80352,116853,5
80282,116768,5
80205,116667,4
80160,116624,5
80116,116595,5
80126,116578,5
80131,116577,4
80120,116587,4
80075,116590,5
80127,116569,5
80120,116576,5
80118,116566,4
80042,116549,5
80090,116534,5
80073,116510,5
80034,116448,5
79944,116306,4
79857,116220,6
79811,116177,4
79774,116117,5
79779,116060,5
79704,116045,4
79707,116035,5
79711,116032,5
79777,116041,5
79710,116040,5
79718,116048,4
79732,116077,5
79799,116125,5
79807,116177,5
79846,116233,4
79893,116280,4
79932,116314,5
79982,116384,5
80031,116460,5
80090,116539,4
80149,116565,5
80207,116693,5
80277,116752,5
80342,116834,5
80375,116819,4
80418,116945,5
80451,116992,6
80496,117051,4
80531,117064,5
80566,117130,4
80604,117174,5
80643,117220,5
80666,117288,5
80672,117254,5
80675,117252,4
80675,117257,5
80675,117321,5
80655,117230,5
80660,117223,5
80636,117206,4
80618,117232,5
80599,117169,5
80578,117121,5
80543,117077,4
80518,117059,5
80488,116994,5
80456,116968,5
80427,116934,6
80398,116886,3
80364,116877,5
80362,116854,5
80354,116838,5
80345,116831,5
80337,116827,4
80328,116812,5
80320,116810,5
80317,116806,5
80322,116793,5
80320,116800,4
80317,116800,5
80317,116795,5
80316,116796,5
80320,116804,5
80308,116797,4
80303,116785,5
80303,116767,5
80296,116758,5
80279,116737,4
80260,116707,4
80220,116656,5
80187,116599,5
80130,116527,5
80065,116445,5
79997,116365,4
79952,116310,5
79904,116261,5
79888,116213,5
79863,116201,4
79837,116165,5
79821,116138,5
79806,116138,5
79830,116159,5
79859,116176,4
79822,116126,5
79777,116055,5
79719,115967,5
79637,115888,5
79650,115900,4
79576,115780,5
79467,115644,5
79347,115503,5
79227,115340,4
79121,115218,4
79005,115047,5
78862,114856,5
78715,114672,5
78616,115268,4
78531,115159,6
78464,115077,4
78406,115008,5
78383,114983,5
78377,114970,4
78380,114966,5
78355,114917,5
78296,114835,5
78233,114764,5
78207,114740,4
78201,114731,5
78186,114708,5
78171,114697,5
78111,114587,5
77980,114406,4
77825,114213,5
77631,113952,5
77425,113673,5
77154,113297,5
76821,112869,4
76452,112360,5
76079,111919,6
75781,111548,4
75530,111206,4
75306,110903,4
75002,110457,5
74586,109899,5
74196,109393,5
73808,108904,4
73466,108433,5
73071,107855,5
72600,107251,5
72102,106618,5
71735,106064,4
71406,105642,5
71076,105222,5
70700,104792,5
70418,104348,5
70151,103976,4
69902,103613,5
69630,103304,5
69439,103008,5
69111,102522,5
68731,102005,4
68396,101530,5
68043,101163,5
67776,100816,6
67584,100589,3
67411,100286,4
67156,100004,5
66917,99695,5
66762,99479,5
66615,99280,4
66423,99056,5
66289,98874,5
66161,98691,5
66024,98490,5
65807,98193,4
65551,98365,5
65293,97997,5
65708,97651,5
65427,97329,5
65140,96921,4
64823,96555,5
64603,96242,5
64366,95972,7
64102,95584,3
63795,95162,5
63484,94736,4
63271,94501,5
63133,94293,5
62750,93936,6
62614,93757,3
62444,93481,5
62200,93141,5
61946,92798,5
61639,92426,4
61383,92034,5
61155,91704,5
60880,91319,5
60592,90976,5
60309,90544,4
59985,90112,5
59690,89736,5
59418,89365,5
59126,88996,5
58852,88616,4
58572,88248,5
58394,88049,5
58203,87761,5
57994,87502,5
57788,87221,4
57549,86910,6
57340,86670,4
57222,86531,5
57124,86429,5
57114,86437,6
57074,86361,3
56966,86194,5
56796,85989,5
56564,85674,4
56424,85490,4
56316,85343,5
56164,85115,5
56005,84890,5
55845,84729,4
55758,84637,5
55693,84549,5
55619,84437,5
55539,84306,5
55430,84177,4
55342,84082,5
55271,83980,5
55203,83891,5
55155,83825,5
55110,83779,4
55085,83746,5
55037,83664,6
54983,83585,4
54922,83497,5
54873,83420,4
54829,83361,5
54801,83340,5
54824,83356,5
54832,83371,5
54820,83348,4
54790,83305,5
54764,83276,5
54736,83260,5
54717,83212,4
54694,83192,5
54686,83170,5
54667,83142,5
54664,83112,5
54660,83106,4
54646,83100,5
54664,83113,5
54697,83145,5
54679,83124,5
54631,83056,4
54580,82984,5
54522,82905,5
54463,82827,6
54428,82800,4
54416,82769,4
54402,82744,5
54367,82696,5
54333,82645,5
54318,82627,5
54296,82599,4
54275,82570,5
54278,82586,5
54285,82583,5
54282,82579,4
54265,82545,4
54237,82498,5
54201,82448,5
54182,82426,5
54173,82422,4
54186,82426,5
54176,82414,5
54163,82379,5
54151,82365,5
54154,82365,5
54175,82410,4
54182,82424,5
54176,82406,5
54164,82388,6
54153,82360,3
54097,82339,5
54105,82298,5
54088,82287,5
54075,82269,5
54019,82257,4
54081,82259,5
54093,82283,5
54123,82312,5
54125,82361,5
54180,82381,4
54189,82394,5
54202,82423,5
54259,82465,5
54272,82529,4
54329,82595,5
54379,82664,5
54509,82760,5
54476,82770,5
54470,82750,4
54461,82737,6
54505,82729,4
54454,82734,5
54460,82731,5
54450,82716,4
54452,82701,5
54441,82715,5
54454,82741,5
54490,82792,5
54545,82841,4
54612,82940,5
54660,83020,5
54691,83070,5
54729,83040,5
54760,83140,4
54812,83191,5
54860,83252,5
54918,83283,5
54996,83449,4
55067,83547,4
55126,83613,5
55179,83705,5
55231,83751,5
55262,83769,4
55295,83824,5
55348,83946,6
55386,83946,4
55416,83968,5
55410,83959,4
55414,84022,5
55423,83975,5
55432,83992,5
55459,84028,5
55528,84131,4
55592,84213,5
55680,84321,5
55786,84463,5
55896,84610,5
56014,84760,4
56143,84932,5
56253,85056,5
56295,85104,5
56308,85112,5
56294,85091,4
56280,85070,5
56252,85017,5
56232,85009,5
56234,84976,4
56225,84975,5
56205,84933,5
56183,84899,6
56159,84882,4
56152,84879,4
56159,84876,5
56175,84901,5
56207,84941,5
56237,84985,5
56264,84999,4
56262,85011,5
56273,85020,5
56274,85023,5
56287,85021,5
56280,85019,4
56287,85026,5
56291,85019,5
56308,85036,5
56307,85044,5
56309,85040,4
56295,85041,5
56296,85011,5
56264,84969,5
56230,84948,5
56219,84923,4
56220,84923,5
56223,84925,5
56219,84916,5
56206,84896,4
56184,84872,5
56169,84844,5
56145,84800,5
56110,84781,5
56108,84759,4
56096,84748,5
56077,84733,5
56073,84717,5
56076,84719,5
56065,84698,4
56050,84674,5
56040,84660,5
56016,84646,5
56022,84652,5
56045,84676,4
56073,84703,5
56101,84743,5
56120,84774,5
56156,84810,5
56190,84861,5
56222,84886,4
56245,84928,5
56258,84940,5
56255,84927,4
56244,84910,5
56240,84894,5
56227,84886,5
56220,84891,5
56221,84891,4
56222,84884,5
56222,84892,5
56230,84901,5
56231,84906,5
56240,84914,4
56250,84926,5
56259,84936,5
56256,84931,5
56257,84939,5
56267,84944,4
56264,84959,5
56275,84977,5
56257,84980,5
56278,84968,5
56263,84948,4
56248,84918,6
56176,84904,4
56211,84882,5
56197,84844,4
56183,84835,4
56113,84819,5
56133,84777,5
56112,84751,5
56102,84727,4
56106,84720,5
56084,84728,5
56079,84731,5
56103,84742,5
56174,84762,4
56120,84769,5
56126,84768,5
56129,84779,5
56184,84788,5
56132,84793,4
56134,84788,5
56134,84782,5
56147,84781,5
56137,84782,5
56126,84771,4
56124,84770,5
56121,84749,5
56114,84763,5
56113,84767,5
56118,84761,4
56108,84703,5
56098,84750,5
56098,84733,5
56095,84736,5
56083,84670,4
56077,84715,5
56072,84712,5
56056,84692,5
56055,84667,4
56040,84656,5
56040,84660,5
56045,84669,5
56035,84725,5
56050,84662,4
56050,84671,5
56037,84665,5
56035,84720,5
56034,84659,5
56051,84677,3
56061,84702,5
56075,84754,5
56105,84748,5
56120,84776,5
56153,84818,4
56186,84849,5
56218,84892,5
56226,84902,5
56234,84920,4
56241,84911,4
56241,84918,5
56243,84917,5
56234,84911,5
56232,84892,4
56208,84875,5
56196,84862,5
56207,84854,5
56194,84830,5
56166,84805,4
56154,84801,6
56147,84771,4
56125,84763,5
56108,84726,5
56093,84708,6
56085,84709,3
56082,84702,5
56082,84697,5
56098,84717,5
56100,84739,4
56110,84752,5
56127,84768,5
56145,84796,5
56169,84821,4
56185,84848,4
56208,84865,5
56210,84878,5
56223,84880,5
56211,84874,4
56226,84883,5
56224,84878,5
56215,84864,5
56197,84850,5
56177,84807,4
56154,84776,5
56112,84727,6
56068,84667,4
56040,84622,5
56016,84589,4
55989,84558,5
55969,84525,5
55954,84510,5
55953,84518,5
55939,84497,4
55945,84501,5
55945,84519,5
55960,84531,5
55980,84555,5
56009,84577,4
56007,84591,5
56019,84594,5
56011,84593,5
56012,84585,4
56002,84588,4
56013,84585,5
56011,84592,5
56001,84578,5
56000,84578,4
56006,84580,5
55999,84581,5
56005,84583,6
56006,84584,4
56019,84593,4
56033,84616,5
56045,84636,5
56052,84661,5
56073,84692,5
56104,84701,4
56113,84727,5
56127,84753,5
56141,84758,5
56127,84746,5
56121,84724,4
56101,84717,5
56096,84709,5
56093,84705,5
56095,84699,4
56052,84694,4
56089,84702,5
56102,84712,5
56093,84709,5
56057,84725,5
56117,84738,4
56115,84749,5
56136,84758,5
56081,84762,6
56149,84778,3
56161,84799,5
56175,84818,5
56204,84834,5
56196,84845,5
56192,84831,4
56192,84828,5
56249,84844,5
56214,84865,5
56226,84885,5
56246,84920,4
56325,84939,5
56290,84950,5
56281,84959,5
56297,84967,5
56310,84983,4
56298,84994,5
56303,84993,5
56312,84998,5
56317,84976,4
56321,85009,5
56323,85023,4
56321,85013,5
56329,84963,5
56324,85003,6
56309,84991,3
56290,84963,5
56279,84898,5
56277,84951,5
56270,84942,4
56257,84943,5
56274,84937,5
56276,84957,5
56284,84964,5
56286,84977,4
56299,85030,5
56312,85001,5
56316,85016,5
56329,85022,5
56341,85116,4
56356,85064,5
56378,85086,5
56376,85099,5
56375,85134,4
56385,85102,4
56367,85077,6
56340,85049,4
56330,85026,5
56304,84994,4
56282,84957,5
56265,84936,5
56241,84916,5
56227,84906,5
56219,84880,4
56194,84858,5
56191,84854,5
56184,84851,5
56192,84853,5
56202,84860,4
56210,84879,5
56223,84915,5
56244,84932,5
56277,84947,5
56268,84959,4
56275,84959,5
56290,84981,5
56284,84981,5
56286,84984,5
56285,84999,4
56308,85001,5
56311,85013,6
56326,85038,4
56348,85057,4
56358,85078,4
56361,85085,5
56372,85104,5
56391,85125,5
56397,85147,4
56419,85162,5
56432,85206,5
56463,85234,5
56490,85263,5
56511,85293,4
56521,85317,5
56541,85332,5
56565,85361,5
56575,85379,5
56583,85403,4
56609,85416,5
56616,85420,5
56619,85428,5
56624,85433,5
56635,85439,4
56626,85434,5
56616,85428,5
56615,85415,6
56619,85426,3
56619,85429,4
56620,85425,5
56613,85426,5
56609,85412,5
56601,85410,4
56601,85415,5
56595,85414,5
56602,85415,5
56601,85409,5
56598,85389,4
56579,85386,5
56575,85373,5
56552,85355,5
56538,85335,5
56520,85313,4
56516,85302,5
56517,85298,5
56507,85287,5
56492,85266,5
56479,85240,5
56465,85226,4
56449,85226,5
56457,85220,5
56454,85215,5
56447,85224,4
56456,85236,5
56455,85229,5
56461,85226,5
56446,85233,4
56460,85237,5
56468,85242,5
56424,85250,5
56468,85244,5
56458,85244,4
56453,85227,5
56392,85202,5
56416,85176,5
56409,85153,5
56387,85131,4
56325,85103,5
56362,85101,5
56352,85085,5
56339,85059,5
56342,85032,4
56294,85013,6
56282,84996,4
56276,84999,5
56341,84998,5
56288,85005,4
56300,85012,5
56294,85017,5
56349,85025,5
56295,85018,4
56294,85025,4
56306,85032,5
56321,85034,5
56303,85046,5
56319,85045,4
56323,85066,5
56331,85042,5
56324,85067,5
56337,85076,5
56341,85074,4
56341,85037,5
56344,85087,5
56352,85104,5
56368,85116,5
56377,85074,4
56378,85134,5
56394,85159,6
56395,85166,4
56406,85165,5
56400,85175,4
56414,85184,5
56414,85200,5
56413,85239,5
56416,85198,5
56423,85201,4
56432,85204,5
56422,85269,5
56413,85192,5
56420,85187,4
56407,85182,4
56403,85217,5
56419,85199,5
56428,85216,5
56440,85231,4
56446,85243,5
56454,85255,5
56469,85257,5
56471,85271,6
56473,85275,3
56479,85282,5
56490,85301,5
56494,85306,5
56515,85322,5
56511,85326,4
56518,85327,5
56520,85328,5
56512,85324,5
56507,85328,5
56508,85318,4
56504,85318,5
56507,85313,5
56506,85323,5
56512,85320,4
56522,85336,4
56528,85338,5
56524,85336,5
56512,85318,5
56497,85297,4
56494,85293,5
56496,85288,5
56476,85262,5
56462,85255,5
56454,85230,5
56430,85205,4
56426,85212,5
56416,85193,5
56412,85192,5
56420,85187,4
56415,85188,5
56419,85186,5
56418,85200,5
56425,85199,5
56432,85211,4
56431,85216,5
56429,85203,5
56425,85212,5
56420,85203,5
56428,85197,4
56414,85185,5
56408,85174,5
56392,85157,5
56381,85134,4
56361,85118,5
56342,85092,5
56341,85078,5
56340,85076,5
56329,85076,4
56331,85069,6
56327,85051,4
56322,85051,5
56318,85055,5
56319,85047,4
56315,85051,5
56311,85043,5
56317,85053,5
56322,85054,5
56318,85063,4
56313,85053,5
56315,85046,5
56321,85044,5
56312,85052,5
56319,85040,4
56312,85049,5
56322,85062,5
56336,85067,5
56345,85085,4
56358,85094,4
56360,85105,5
56376,85102,5
56374,85112,4
56370,85121,4
56381,85121,5
56378,85130,5
56381,85138,5
56399,85153,5
56367,85154,4
56404,85158,5
56410,85160,5
56409,85152,5
56352,85151,5
56400,85143,4
56387,85124,5
56387,85122,5
56318,85102,5
56361,85107,5
56373,85108,4
56373,85106,5
56411,85113,5
56385,85123,5
56390,85145,5
56408,85148,4
56472,85163,5
56427,85171,5
56442,85201,6
56462,85219,3
56523,85235,4
56484,85243,5
56483,85254,5
56489,85249,5
56500,85237,4
56466,85231,5
56461,85223,5
56458,85210,5
56456,85193,5
56458,85216,4
56468,85215,5
56461,85211,5
56464,85168,5
56462,85232,5
56476,85233,4
56475,85234,5
56485,85182,5
56484,85246,5
56504,85270,5
56529,85293,5
56539,85301,4
56549,85323,5
56553,85337,5
56575,85367,6
56583,85428,3
56602,85378,5
56587,85366,5
56585,85368,5
56592,85443,4
56580,85370,5
56592,85369,5
56590,85384,5
56594,85405,5
56583,85366,4
56568,85351,5
56551,85314,5
56532,85298,5
56512,85267,5
56492,85246,4
56487,85231,5
56472,85209,5
56467,85203,5
56454,85204,5
56452,85193,4
56452,85191,6
56450,85174,4
56450,85184,5
56449,85174,5
56439,85172,6
56438,85165,3
56437,85163,5
56434,85158,5
56429,85141,4
56414,85130,4
56412,85128,5
56418,85121,5
56398,85113,5
56399,85115,4
56401,85108,5
56394,85121,5
56395,85110,5
56395,85103,5
56399,85119,4
56399,85112,5
56397,85125,5
56406,85115,5
56402,85108,5
56393,85100,4
56374,85080,5
56371,85072,6
56366,85067,4
56357,85053,5
56348,85048,4
56342,85038,5
56335,85032,5
56324,85012,5
56321,85009,4
56314,85005,4
56314,85010,5
56311,84998,5
56302,84987,5
56297,84988,4
56296,84977,5
56301,84973,5
56307,84980,5
56306,84989,5
56310,84997,4
56298,84987,5
56295,84981,5
56292,84976,5
56294,84976,5
56293,84981,4
56294,84980,5
56299,84987,5
56292,84982,6
56291,84987,4
56287,84983,4
56297,84992,5
56295,84995,5
56307,85011,5
56314,85016,5
56328,85022,4
56332,85038,5
56333,85049,5
56340,85048,5
56340,85054,4
56349,85058,5
56346,85070,5
56347,85060,5
56348,85067,5
56350,85070,4
56342,85061,5
56353,85066,5
56346,85065,5
56348,85060,5
56348,85060,5
56345,85073,4
56310,85068,5
56356,85076,5
56360,85072,6
56359,85088,3
56303,85097,5
56377,85099,5
56378,85108,5
56386,85121,5
56341,85119,4
56393,85140,5
56398,85155,5
56405,85146,5
56432,85147,4
56405,85141,4
56395,85138,5
56394,85139,5
56435,85103,5
56351,85082,4
56350,85064,5
56339,85060,5
56380,85056,5
56331,85063,5
56335,85057,4
56343,85067,6
56361,85074,4
56357,85076,5
56355,85091,5
56361,85101,4
56368,85064,5
56365,85102,5
56373,85107,5
56375,85129,5
56382,85088,4
56402,85173,5
56432,85202,5
56450,85222,5
56461,85181,5
56483,85266,4
56489,85283,5
56500,85297,5
56516,85304,5
56510,85324,4
56529,85344,5
56554,85371,5
56569,85455,5
56597,85417,5
56604,85428,7
56595,85436,2
56590,85504,6
56615,85448,4
56623,85469,5
56637,85491,4
56652,85540,5
56671,85533,5
56685,85553,5
56697,85555,5
56680,85561,4
56701,85563,5
56714,85590,5
56724,85604,5
56732,85628,5
56763,85670,4
56796,85704,5
56818,85743,5
56846,85767,5
56854,85797,4
56899,85843,4
56911,85871,5
56941,85918,5
56974,85959,5
56997,85983,4
57020,86002,5
57020,86009,5
57031,86028,6
57053,86077,4
57069,86089,4
57110,86128,5
57131,86148,5
57143,86186,5
57153,86197,5
57164,86206,4
57186,86239,5
57212,86286,5
57244,86317,5
57264,86356,5
57297,86377,4
57307,86405,5
57323,86419,5
57341,86443,5
57362,86492,4
57423,86571,4
57485,86653,5
57552,86723,5
57613,86821,5
57678,86889,5
57720,86954,4
57771,87014,5
57812,87074,5
57843,87100,5
57840,87112,4
57832,87084,5
57825,87067,5
57800,87046,5
57789,87035,5
57771,87012,4
57763,87019,5
57786,87049,5
57803,87071,5
57812,87069,5
57817,87065,4
57813,87071,5
57824,87106,5
57852,87132,5
57884,87185,5
57922,87254,4
57967,87304,5
58014,87354,5
58058,87404,5
58072,87419,4
58066,87422,5
58069,87426,4
58080,87452,5
58108,87503,5
58135,87527,4
58157,87551,5
58185,87589,5
58200,87610,5
58218,87631,5
58236,87653,4
58254,87673,5
58263,87701,5
58292,87719,5
58297,87737,5
58328,87791,4
58350,87822,5
58370,87835,5
58386,87842,5
58349,87858,5
58391,87875,4
58403,87887,5
58424,87908,5
58383,87910,5
58417,87889,5
58406,87880,4
58394,87861,6
58346,87854,4
58383,87865,5
58385,87857,4
58397,87868,5
58423,87876,5
58393,87853,5
58380,87839,5
58374,87829,4
58432,87831,5
58374,87827,5
58374,87834,5
58379,87834,5
58447,87863,4
58416,87896,5
58443,87925,5
58441,87910,5
58438,87887,5
58409,87878,4
58391,87862,5
58389,87855,5
58392,87817,5
58382,87842,5
58360,87805,4
58339,87788,5
58350,87749,5
58366,87819,5
58369,87820,4
58373,87831,4
58368,87753,5
58365,87812,5
58362,87793,5
58337,87785,5
58343,87786,4
58339,87780,5
58334,87783,5
58348,87774,5
58336,87818,4
58298,87693,5
58249,87621,5
58215,87592,5
58208,87649,5
58198,87555,4
58154,87505,5
58123,87443,5
58087,87452,5
58074,87402,5
58058,87387,4
58053,87368,5
58059,87369,5
58057,87350,5
58045,87351,4
58043,87341,4
58039,87344,5
58044,87346,5
58044,87355,5
58056,87378,4
58069,87389,5
58079,87375,5
58078,87371,5
58079,87372,5
58087,87393,4
58082,87375,5
58061,87355,5
58054,87341,5
58026,87296,5
58016,87278,4
58022,87276,5
58024,87292,5
58020,87271,5
58016,87268,5
58000,87239,5
57970,87199,3
57950,87169,5
57932,87159,5
57937,87153,4
57935,87149,4
57929,87131,5
57904,87115,5
57893,87082,5
57871,87060,4
57866,87044,5
57861,87041,5
57868,87047,5
57889,87075,5
57889,87083,4
57907,87095,5
57917,87105,5
57936,87119,5
57941,87123,5
57956,87150,4
57972,87162,5
57977,87169,6
57970,87159,4
57957,87127,5
57935,87093,4
57909,87080,5
57915,87082,5
57925,87105,5
57934,87113,4
57946,87111,4
57944,87111,5
57936,87115,5
57941,87099,5
57927,87088,4
57932,87090,5
57935,87104,5
57936,87108,5
57942,87121,5
57955,87130,4
57963,87138,5
57954,87109,5
57951,87099,5
57962,87132,5
57981,87153,4
57990,87158,5
57980,87138,5
57926,87086,6
57899,87027,4
57859,86999,4
57853,86991,5
57866,86987,5
57864,86990,5
57876,87003,5
57878,87029,4
57877,87025,5
57870,86994,5
57862,86989,5
57867,86997,4
57881,87010,5
57815,86976,5
57843,86949,5
57828,86937,5
57817,86922,4
57742,86891,5
57790,86856,5
57801,86865,5
57805,86894,5
57789,86884,5
57816,86892,4
57801,86875,5
57799,86850,5
57810,86814,6
57727,86753,3
57718,86757,5
57746,86795,5
57818,86789,5
57739,86764,5
57736,86750,4
57732,86758,5
57787,86780,5
57744,86773,5
57757,86770,4
57754,86775,4
57767,86769,5
57736,86734,5
57703,86710,5
57701,86703,4
57708,86680,5
57715,86726,5
57726,86739,5
57729,86724,5
57711,86654,4
57698,86694,6
57717,86731,4
57744,86762,5
57761,86724,5
57773,86798,4
57789,86825,5
57804,86830,5
57784,86833,5
57793,86811,5
57797,86834,4
57819,86868,5
57818,86927,5
57772,86801,5
57738,86754,4
57734,86760,4
57748,86823,5
57746,86759,5
57728,86734,5
57722,86713,4
57705,86735,5
57707,86717,5
57699,86698,5
57694,86707,5
57707,86709,4
57700,86722,5
57699,86692,6
57678,86686,4
57694,86713,5
57722,86746,4
57734,86747,5
57723,86735,5
57705,86689,5
57661,86656,5
57640,86626,4
57616,86595,5
57597,86574,5
57595,86561,5
57583,86557,4
57563,86536,4
57551,86500,5
57504,86454,5
57475,86406,5
57460,86386,4
57467,86397,5
57469,86409,5
57470,86405,5
57458,86383,5
57448,86355,4
57435,86359,5
57450,86385,5
57464,86404,6
57468,86401,4
57458,86390,4
57438,86367,5
57411,86343,5
57409,86325,5
57409,86327,5
57411,86339,4
57428,86357,5
57424,86337,5
57414,86319,5
57399,86329,4
57420,86355,4
57450,86387,5
57459,86402,5
57450,86379,5
57436,86349,4
57440,86353,5
57433,86367,5
57444,86372,5
57434,86363,5
57426,86357,5
57428,86356,4
57436,86353,5
57437,86350,5
57435,86364,6
57457,86393,3
57483,86432,5
57474,86416,5
57465,86386,5
57456,86392,5
57465,86395,4
57473,86405,5
57482,86423,5
57497,86445,5
57512,86465,5
57511,86463,4
57517,86469,5
57526,86490,5
57552,86534,5
57585,86561,4
57586,86554,5
57581,86563,5
57613,86609,5
57668,86673,5
57691,86702,4
57680,86680,6
57667,86661,4
57668,86654,5
57663,86660,5
57649,86653,4
57659,86646,5
57647,86642,5
57632,86619,5
57592,86626,5
57661,86657,4
57684,86690,5
57722,86733,5
57673,86758,5
57756,86771,5
57766,86798,4
57799,86839,5
57792,86849,5
57825,86883,5
57869,86926,4
57914,87006,4
57996,87063,5
58003,87102,5
58008,87123,5
58016,87110,4
58058,87074,5
57961,87045,6
57923,86996,4
57900,86974,5
57939,86996,4
57919,86995,5
57925,87006,5
57938,87025,5
57970,87049,5
57972,87066,4
57987,87089,5
58010,87125,5
58049,87168,5
58096,87257,5
58134,87297,4
58143,87303,5
58155,87264,5
58169,87339,5
58185,87372,5
58215,87412,4
58249,87404,5
58272,87485,5
58303,87522,5
58335,87556,5
58353,87613,4
58375,87608,5
58379,87629,6
58387,87632,4
58417,87728,4
58436,87697,5
58470,87761,5
58531,87828,5
58562,87936,5
58596,87895,4
58609,87921,5
58655,87993,5
58711,88074,5
58741,88103,5
58771,88134,4
58802,88173,5
58810,88189,5
58814,88174,5
58794,88169,5
58811,88184,4
58820,88209,5
58828,88206,5
58835,88225,5
58851,88236,5
58853,88235,4
58855,88241,5
58859,88254,5
58892,88305,5
58934,88359,4
58980,88432,5
59032,88488,5
59051,88513,5
59062,88515,5
59074,88554,4
59096,88590,5
59158,88654,5
59202,88705,5
59233,88737,5
59263,88787,4
59273,88792,5
59274,88783,5
59256,88773,5
59264,88776,5
59267,88800,4
59267,88792,5
59279,88806,5
59299,88832,5
59315,88858,5
59301,88848,5
59292,88820,4
59285,88824,5
59299,88841,5
59309,88851,4
59328,88878,5
59343,88911,5
59367,88925,5
59357,88895,5
59340,88865,4
59327,88853,5
59308,88847,5
59288,88811,5
59276,88796,5
59281,88802,4
59270,88785,5
59234,88727,5
59200,88690,5
59179,88659,5
59164,88654,4
59168,88661,5
59162,88662,5
59181,88671,5
59179,88683,5
59186,88690,4
59179,88683,6
59176,88663,4
59176,88678,5
59199,88702,4
59210,88721,4
59232,88750,5
59259,88781,5
59268,88807,5
59279,88807,4
59267,88818,5
59301,88868,5
59352,88916,5
59393,88986,5
59434,89054,4
59487,89089,5
59502,89135,5
59525,89164,5
59550,89211,5
59596,89256,4
59610,89296,5
59643,89326,5
59670,89357,5
59669,89375,5
59680,89370,4
59629,89368,5
59690,89382,5
59713,89420,5
59743,89451,5
59704,89479,4
59776,89498,5
59786,89524,5
59786,89515,5
59742,89484,4
59750,89476,5
59768,89485,5
59768,89500,5
59815,89510,5
59787,89512,4
59799,89539,5
59830,89567,5
59907,89590,5
59856,89615,5
59874,89648,4
59885,89660,4
59935,89664,5
59889,89647,5
59890,89660,6
59901,89675,3
59900,89658,5
59889,89653,5
59885,89655,5
59896,89670,5
59922,89677,4
59938,89726,5
59956,89750,5
59970,89772,5
59976,89716,4
59966,89782,4
59961,89768,5
59951,89759,5
59949,89686,5
59955,89756,4
59967,89776,5
59995,89808,5
60003,89838,5
60017,89836,5
59995,89811,4
59987,89781,6
59972,89837,4
59974,89778,5
59969,89774,5
59947,89725,6
59915,89763,3
59893,89674,5
59869,89632,5
59858,89612,5
59842,89629,4
59846,89605,5
59849,89614,5
59847,89601,5
59834,89579,5
59810,89547,4
59804,89530,5
59780,89518,5
59771,89482,5
59732,89440,4
59712,89401,5
59700,89405,5
59695,89386,5
59674,89355,5
59647,89312,4
59631,89296,5
59616,89274,6
59622,89266,4
59626,89285,5
59633,89296,4
59643,89305,5
59635,89301,5
59633,89300,5
59633,89288,5
59634,89295,4
59638,89301,5
59629,89288,5
59624,89281,5
59619,89279,5
59624,89285,4
59614,89277,5
59623,89281,5
59621,89268,5
59620,89275,4
59624,89270,4
59610,89242,5
59584,89227,5
59585,89213,5
59573,89218,4
59582,89217,5
59572,89190,5
59549,89162,6
59527,89142,4
59499,89104,4
59459,89040,5
59422,88998,5
59401,88958,5
59392,88945,5
59384,88950,4
59377,88937,5
59384,88945,5
59395,88957,5
59395,88966,5
59410,88995,4
59448,89019,5
59446,89026,5
59442,89028,5
59461,89051,5
59483,89080,4
59504,89095,5
59499,89099,5
59485,89081,5
59484,89067,5
59506,89091,4
59522,89123,5
59515,89124,5
59508,89108,6
59504,89101,3
59500,89108,5
59526,89135,5
59541,89157,5
59561,89182,5
59577,89188,4
59576,89188,5
59561,89170,5
59550,89158,5
59549,89172,5
59566,89193,4
59581,89201,5
59580,89202,5
59570,89184,5
59556,89173,5
59574,89184,4
59568,89199,5
59576,89199,5
59533,89191,5
59578,89197,4
59606,89230,5
59635,89283,4
59595,89292,5
59659,89294,5
59667,89313,6
59699,89349,3
59687,89403,5
59785,89459,5
59811,89494,5
59810,89473,4
59827,89461,5
59799,89464,5
59812,89487,5
59844,89537,5
59938,89554,4
59886,89589,5
59893,89602,5
59915,89627,5
59984,89645,5
59935,89649,4
59935,89650,5
59937,89664,5
59970,89671,5
59955,89662,4
59946,89634,4
59917,89607,6
59906,89581,4
59892,89590,5
59891,89591,4
59899,89604,10
59912,89561,8
59921,89633,5
59914,89610,5
59909,89595,10
59906,89545,5
59923,89621,5
59896,89609,10
59896,89609,2
59889,89605,3
59893,89644,5
59891,89602,4
59894,89609,5
59907,89633,5
59900,89700,5
59910,89637,5
59911,89615,4
59899,89602,5
59884,89638,6
59874,89573,4
59851,89569,4
59837,89533,5
59804,89497,5
59762,89447,5
59742,89407,5
59719,89396,4
