RED,IR,EKG,TIME
115013,214346,183703
115016,214345,1
115022,214353,4
104594,155470,4
104597,171995,5
104592,188398,5
104596,204723,5
104592,221014,4
104583,220461,5
104578,220464,5
104575,220450,5
104575,220449,5
104573,220448,4
104565,220440,5
104559,220425,5
104559,220438,6
104545,220428,4
104550,220415,4
104542,220412,5
104534,220413,5
104525,220398,5
104513,220391,5
104520,220380,4
104509,220370,5
104516,220385,5
104508,220366,5
104498,220360,4
104483,220329,4
104474,220312,5
104464,220314,5
104446,220308,5
104442,220299,4
104440,220288,5
104445,220277,5
104433,220293,5
104438,220286,5
104426,220293,5
104442,220290,4
104427,220288,5
104440,220294,5
104446,220287,6
104443,220289,3
104451,220292,5
104447,220298,5
104444,220300,5
104444,220306,5
104451,220305,4
104456,220313,5
104460,220322,5
104456,220332,5
104462,220339,4
104454,220341,4
104470,220348,5
104469,220357,5
104472,220359,5
104472,220359,4
104473,220346,5
104465,220361,5
104470,220341,5
104462,220351,5
104465,220338,4
104452,220338,6
104453,220335,4
104465,220330,5
104450,220328,5
104447,220325,4
104440,220322,5
104433,220300,5
104437,220296,5
104429,220290,5
104422,220278,4
104383,220266,5
104400,220257,5
104382,220240,5
104382,220233,4
104250,220223,4
104349,220193,5
104332,220174,5
104330,220171,5
104156,220136,4
104304,220123,5
104283,220117,5
104275,220107,5
104237,220098,5
104275,220096,4
104269,220100,5
104263,220090,6
104385,220097,4
104276,220112,5
104278,220118,4
104276,220128,5
104456,220128,5
104294,220131,5
104300,220148,5
104284,220138,4
104373,220132,5
104292,220136,5
104276,220138,5
104275,220127,4
104298,220116,4
104269,220109,5
104270,220101,5
104252,220075,5
104246,219970,4
104226,220043,5
104215,220040,5
104213,220006,5
104187,219832,5
104160,219965,4
104153,219956,5
104142,219949,5
104134,219824,6
104145,219939,4
104140,219930,5
104136,219934,4
104142,220035,5
104138,219951,5
104139,219948,5
104152,219934,4
104150,220127,5
104157,219973,5
104158,219968,5
104161,219984,4
104169,220117,4
104181,220014,5
104184,220004,5
104190,220020,5
104186,220057,4
104199,220032,5
104199,220036,5
104214,220030,5
104207,220043,5
104201,220029,5
104208,220033,4
104212,220033,5
104205,220031,5
104204,220032,5
104200,220033,4
104198,220012,5
104196,220016,5
104187,220024,5
104193,220016,5
104188,219990,4
104171,219996,5
104165,219972,5
104150,219956,5
104143,219950,5
104139,219939,4
104148,219934,5
104147,219944,5
104130,219929,5
104132,219939,4
104141,219934,5
104138,219925,5
104136,219938,5
104142,219946,5
104141,219956,4
104147,219965,6
104168,219980,4
104180,219983,5
104184,220000,5
104193,220011,4
104194,220033,5
104211,220046,5
104213,220051,5
104229,220075,5
104257,220097,4
104256,220120,5
104277,220154,5
104294,220153,5
104298,220171,5
104321,220188,4
104321,220189,5
104329,220202,5
104341,220228,5
104346,220219,4
104337,220231,4
104346,220240,5
104351,220249,5
104348,220227,5
104348,220238,4
104332,220230,5
104345,220235,6
104330,220219,4
104331,220221,5
104321,220217,4
104332,220194,5
104319,220200,5
104322,220185,5
104316,220194,5
104300,220168,4
104287,220174,5
104287,220159,5
104289,220160,5
104283,220157,5
104274,220138,4
104271,220139,5
104272,220132,5
104272,220144,5
104270,220148,4
104280,220149,4
104279,220157,5
104280,220156,5
104297,220164,5
104290,220172,4
104295,220183,5
104303,220184,5
104309,220200,6
104221,220208,4
104313,220205,4
104308,220187,5
104314,220196,5
104156,220208,5
104302,220178,5
104291,220179,4
104290,220162,5
104121,220147,5
104273,220142,5
104268,220137,5
104249,220117,4
104286,220107,5
104235,220088,5
104225,220091,5
104225,220081,5
104381,220100,4
104235,220109,5
104253,220119,5
104266,220131,5
104410,220138,5
104272,220155,4
104277,220165,5
104293,220182,5
104350,220191,5
104312,220209,4
104323,220233,5
104336,220247,5
104347,220226,5
104365,220284,5
104362,220292,4
104388,220306,5
104392,220187,5
104394,220330,5
104414,220344,5
104405,220355,4
104418,220198,5
104415,220362,5
104427,220368,5
104423,220371,5
104419,220333,4
104424,220357,5
104429,220374,5
104428,220366,5
104438,220506,4
104437,220397,5
104445,220387,4
104452,220403,5
104447,220573,5
104444,220388,4
104453,220404,5
104449,220402,5
104445,220480,5
104458,220412,5
104462,220406,4
104467,220417,5
104471,220442,5
104473,220424,5
104482,220436,5
104492,220467,4
104506,220483,5
104528,220510,5
104549,220536,5
104550,220534,5
104553,220548,4
104576,220561,5
104580,220579,5
104596,220586,5
104611,220609,4
104629,220634,4
104640,220654,7
104651,220671,3
104674,220676,5
104679,220712,4
104692,220710,5
104690,220726,5
104705,220732,5
104703,220739,5
104711,220741,4
104719,220761,5
104722,220756,5
104735,220779,5
104735,220786,5
104748,220783,4
104747,220795,5
104756,220792,5
104763,220805,5
104757,220789,5
104761,220800,4
104750,220782,5
104743,220797,5
104746,220788,6
104749,220800,3
104748,220795,4
104765,220788,5
104755,220791,5
104754,220797,5
104764,220808,4
104755,220810,5
104767,220814,5
104763,220814,5
104777,220827,5
104779,220839,4
104790,220833,5
104815,220858,5
104817,220886,5
104836,220884,5
104850,220913,4
104850,220934,5
104850,220936,5
104865,220941,5
104860,220933,5
104869,220944,5
104877,220950,4
104872,220943,5
104863,220943,5
104858,220939,6
104869,220931,3
104867,220949,5
104880,220955,5
104893,220976,5
104909,220997,4
104926,221020,4
104936,221045,5
104966,221068,5
104972,221092,5
104997,221112,4
105013,221155,5
105046,221175,5
105052,221199,5
105064,221214,5
105088,221224,4
105091,221235,5
105082,221249,5
105112,221260,5
105121,221267,5
105132,221262,4
105014,221277,6
105135,221291,4
105144,221280,5
105143,221288,5
104995,221301,6
105149,221305,3
105158,221322,5
105175,221330,5
105113,221328,4
105187,221351,4
105197,221353,5
105196,221362,5
105309,221380,5
105207,221365,4
105196,221360,5
105198,221362,5
105368,221340,5
105192,221338,5
105195,221340,4
105193,221347,5
105294,221352,5
105191,221362,5
105206,221363,6
105198,221378,3
105235,221355,5
105210,221386,6
105219,221381,4
105235,221403,5
105227,221315,4
105229,221403,5
105235,221411,5
105249,221427,5
105246,221279,4
105255,221415,4
105254,221420,5
105255,221415,5
105256,221296,5
105246,221439,4
105253,221436,6
105245,221425,4
105245,221485,5
105247,221427,5
105236,221412,4
105228,221403,5
105217,221556,5
105207,221386,5
105209,221360,5
105189,221350,4
105182,221469,5
105179,221319,5
105162,221304,6
105140,221283,4
105121,221303,4
105113,221238,5
105098,221197,5
105074,221177,5
105053,221154,5
105040,221139,4
105018,221123,5
104992,221091,5
104985,221070,5
104982,221060,4
104979,221048,5
104963,221034,5
104952,221034,5
104939,221024,5
104942,221019,4
104936,221013,5
104933,221009,5
104923,220995,5
104920,220989,5
104910,220971,5
104905,220965,4
104884,220947,5
104874,220921,5
104864,220914,6
104844,220906,3
104835,220871,5
104818,220855,5
104802,220822,5
104783,220796,5
104756,220778,4
104741,220789,5
104733,220767,5
104734,220773,5
104733,220759,4
104731,220749,4
104740,220768,5
104725,220768,5
104739,220770,5
104741,220750,4
104743,220766,5
104737,220765,5
104734,220776,5
104737,220755,5
104732,220765,4
104739,220753,6
104727,220756,4
104725,220763,5
104732,220755,5
104727,220748,4
104723,220746,5
104724,220739,5
104714,220740,5
104707,220734,5
104714,220733,4
104705,220719,5
104705,220738,5
104702,220715,5
104699,220703,4
104684,220707,4
104685,220710,5
104687,220700,5
104685,220705,5
104675,220692,4
104679,220694,5
104662,220684,5
104663,220665,5
104653,220652,5
104646,220650,4
104648,220641,5
104646,220646,6
104646,220640,4
104643,220644,5
104639,220653,4
104635,220641,5
104638,220633,5
104642,220642,5
104643,220637,5
104649,220654,4
104649,220643,5
104656,220663,5
104653,220661,5
104576,220678,4
104668,220672,4
104663,220683,5
104670,220681,5
104536,220700,5
104684,220711,4
104695,220711,4
104694,220715,5
104543,220720,5
104706,220731,5
104706,220736,4
104703,220730,5
104759,220738,5
104701,220721,6
104698,220724,4
104691,220708,4
104849,220714,5
104695,220708,5
104690,220718,5
104688,220709,5
104827,220699,4
104685,220700,5
104684,220703,5
104677,220691,5
104722,220687,5
104678,220694,4
104664,220677,5
104658,220658,5
104645,220603,5
104637,220628,4
104616,220611,4
104608,220589,5
104592,220450,5
104584,220566,5
104572,220547,5
104567,220536,4
104563,220388,5
104562,220554,5
104563,220547,5
104570,220542,4
104573,220542,5
104571,220560,5
104582,220562,5
104583,220569,5
104582,220709,4
104589,220579,5
104583,220583,5
104594,220588,5
104592,220770,5
104593,220596,4
104584,220577,5
104578,220577,5
104588,220654,5
104572,220566,4
104570,220540,4
104554,220541,5
104545,220538,5
104523,220506,5
104509,220476,4
104485,220459,6
104487,220448,4
104479,220447,5
104487,220453,5
104489,220463,4
104486,220456,5
104497,220454,5
104495,220473,5
104498,220462,5
104504,220471,4
104510,220486,5
104504,220498,5
104509,220492,5
104514,220491,5
104526,220506,4
104528,220509,5
104539,220524,5
104537,220527,5
104547,220522,5
104537,220526,4
104547,220518,5
104534,220516,5
104537,220531,5
104533,220530,4
104541,220521,4
104533,220515,6
104549,220514,4
104546,220519,5
104534,220523,4
104548,220531,5
104541,220530,5
104535,220532,5
104540,220523,5
104529,220514,4
104534,220523,5
104512,220495,5
104502,220472,5
104495,220463,5
104495,220449,4
104487,220450,5
104485,220443,5
104478,220423,5
104475,220429,5
104465,220424,4
104467,220410,5
104469,220427,5
104464,220413,5
104459,220416,4
104459,220428,4
104466,220434,5
104469,220439,5
104476,220445,5
104485,220451,4
104484,220449,5
104496,220474,5
104501,220471,5
104499,220476,5
104511,220482,4
104520,220493,5
104517,220504,5
104524,220504,5
104526,220515,5
104526,220506,4
104519,220496,5
104517,220489,5
104522,220502,5
104517,220483,5
104513,220483,4
104514,220476,5
104501,220460,5
104491,220477,5
104494,220462,5
104489,220446,4
104493,220443,5
104469,220439,5
104477,220411,5
104457,220408,4
104442,220385,4
104332,220389,5
104435,220374,5
104415,220344,5
104398,220334,4
104226,220305,5
104380,220292,5
104359,220275,5
104346,220264,5
104249,220241,4
104324,220230,5
104329,220231,5
104321,220233,5
104416,220227,5
104326,220247,4
104325,220241,6
104321,220237,4
104492,220246,5
104322,220229,5
104335,220258,5
104332,220257,3
104444,220254,5
104332,220263,5
104322,220245,4
104328,220250,4
104351,220231,5
104313,220234,5
104311,220243,5
104300,220208,4
104284,220106,5
104267,220177,5
104264,220147,5
104244,220140,5
104237,219981,4
104212,220096,5
104187,220068,5
104175,220059,5
104169,219873,5
104151,220026,4
104159,220030,5
104152,220038,6
104149,220081,4
104149,220037,5
104145,220027,4
104147,220006,5
104140,220171,5
104152,220023,5
104160,220047,5
104165,220042,4
104174,220222,5
104176,220073,5
104184,220078,5
104193,220082,4
104198,220161,4
104204,220097,5
104200,220109,5
104205,220110,5
104217,220130,4
104213,220111,5
104227,220132,5
104222,220124,5
104217,220114,5
104224,220123,4
104220,220116,5
104217,220107,5
104213,220112,6
104215,220100,4
104214,220113,4
104212,220116,5
104210,220109,5
104208,220118,5
104200,220098,5
104193,220101,4
104187,220068,5
104178,220059,5
104170,220048,5
104161,220049,4
104162,220042,4
104157,220035,5
104155,220028,5
104160,220024,5
104150,220017,4
104152,220019,5
104150,220033,5
104162,220043,5
104162,220046,5
104159,220049,5
104162,220056,4
104166,220051,5
104169,220061,5
104190,220072,6
104184,220074,3
104186,220082,5
104191,220095,5
104201,220091,5
104213,220105,5
104217,220116,4
104226,220126,5
104227,220132,5
104228,220134,5
104228,220135,5
104231,220130,4
104233,220140,5
104235,220127,5
104227,220122,5
104232,220118,4
104223,220128,4
104224,220120,5
104217,220108,5
104210,220106,5
104192,220082,4
104191,220077,6
104182,220059,4
104164,220034,5
104162,220030,5
104150,220008,6
104133,219987,3
104126,219992,5
104110,219969,5
104097,219958,5
104092,219952,4
104088,219968,5
104096,219959,5
104089,219950,5
104091,219960,5
104094,219965,4
104108,219966,5
104101,219969,5
104100,219988,5
104107,219970,4
104100,219959,4
104097,219968,5
104099,219969,5
104104,219950,5
104055,219945,4
104090,219942,5
104085,219939,6
104064,219927,4
103942,219911,5
104057,219894,4
104053,219883,5
104028,219859,5
103876,219871,5
104012,219848,5
104001,219826,4
104003,219816,5
103977,219824,5
103993,219814,5
103996,219832,5
104012,219838,4
104151,219854,5
104022,219869,5
104032,219880,5
104039,219882,5
104216,219890,4
104061,219892,5
104076,219904,5
104076,219935,5
104163,219947,4
104097,219944,4
104106,219964,5
104105,219980,6
104133,219978,4
104132,219991,4
104132,219999,5
104148,220026,5
104149,219929,5
104151,220026,5
104153,220033,4
104154,220045,5
104157,219886,9
104151,220050,1
104161,220036,5
104155,220074,4
104165,219958,5
104168,220051,5
104173,220068,5
104180,220066,5
104170,220149,4
104175,220059,5
104162,220045,5
104166,220040,5
104158,220208,5
104152,220027,4
104150,220041,5
104145,220028,5
104147,220140,6
104148,220022,3
104144,220009,4
104153,220012,5
104140,220057,5
104147,220010,5
104151,220041,4
104169,220049,5
104165,220069,5
104173,220065,5
104180,220080,5
104188,220091,4
104199,220105,5
104221,220116,5
104223,220143,5
104235,220157,5
104239,220164,4
104247,220168,5
104263,220176,5
104264,220185,5
104279,220196,5
104276,220207,5
104279,220185,4
104275,220200,5
104285,220200,5
104277,220208,4
104278,220205,4
104272,220207,5
104288,220203,5
104281,220209,5
104281,220205,4
104278,220208,5
104281,220204,5
104279,220208,5
104274,220200,5
104269,220196,4
104271,220182,5
104261,220179,5
104248,220163,5
104245,220149,5
104221,220135,4
104215,220117,5
104207,220099,5
104193,220098,5
104186,220082,5
104186,220092,4
104182,220086,6
104182,220087,4
104193,220100,5
104192,220120,5
104196,220105,4
104205,220114,5
104202,220107,5
104211,220116,5
104217,220119,4
104211,220117,4
104214,220122,5
104226,220128,5
104226,220131,5
104222,220123,4
104213,220123,5
104198,220104,5
104207,220103,5
104191,220102,5
104188,220092,4
104180,220069,5
104175,220066,5
104164,220053,5
104151,220042,5
104146,220030,4
104141,220021,5
104133,220016,6
104140,220013,4
104149,220042,5
104155,220040,4
104160,220049,5
104176,220075,5
104171,220081,5
104194,220106,4
104211,220122,4
104222,220141,5
104237,220166,5
104259,220200,5
104276,220211,4
104289,220225,5
104239,220249,5
104314,220261,5
104331,220286,5
104342,220308,4
104227,220324,5
104363,220331,5
104373,220334,5
104377,220359,5
104230,220343,4
104380,220350,5
104370,220353,5
104383,220342,5
104401,220347,5
104381,220340,4
104378,220349,5
104381,220356,5
104541,220366,5
104385,220351,5
104392,220364,4
104383,220352,5
104539,220330,5
104372,220328,5
104368,220328,4
104368,220334,4
104424,220316,5
104369,220325,5
104364,220327,5
104365,220332,4
104380,220308,5
104376,220342,5
104377,220345,5
104388,220354,5
104397,220264,5
104405,220373,4
104405,220388,5
104432,220422,5
104435,220274,5
104453,220444,4
104463,220462,5
104483,220492,5
104497,220445,5
104513,220525,5
104524,220552,4
104535,220567,5
104549,220701,5
104573,220592,5
104581,220598,4
104577,220621,4
104588,220813,5
104600,220621,5
104589,220622,5
104591,220639,4
104603,220719,5
104601,220643,5
104593,220632,5
104590,220628,5
104598,220639,4
104589,220610,6
104580,220615,4
104574,220596,5
104571,220606,5
104566,220581,4
104566,220581,5
104560,220573,5
104543,220573,5
104551,220569,5
104546,220567,4
104543,220559,5
104548,220558,5
104545,220565,5
104558,220570,5
104552,220577,4
104560,220577,5
104579,220590,5
104564,220583,5
104575,220600,4
104580,220608,4
104584,220623,5
104585,220622,5
104589,220613,5
104582,220612,4
104579,220609,5
104576,220595,5
104566,220589,5
104570,220595,5
104564,220603,4
104562,220590,5
104556,220583,5
104546,220575,5
104564,220569,5
104559,220580,4
104571,220601,5
104586,220629,5
104595,220639,5
104608,220652,5
104634,220687,4
104638,220700,5
104656,220718,5
104687,220748,5
104701,220778,5
104725,220804,4
104749,220842,5
104766,220845,5
104785,220879,6
104799,220921,3
104818,220930,5
104835,220959,5
104850,220974,5
104869,220995,5
104881,221003,4
104882,221028,5
104894,221025,5
104898,221037,5
104903,221035,5
104916,221038,4
104914,221043,5
104919,221062,5
104923,221063,5
104933,221089,5
104939,221083,4
104944,221092,5
104952,221084,5
104945,221098,5
104948,221092,5
104948,221101,5
104953,221111,4
104955,221108,5
104958,221121,5
104985,221133,6
104986,221154,3
105004,221147,5
105000,221174,5
105019,221186,5
105019,221196,4
105045,221205,5
105047,221224,5
105064,221236,5
104976,221251,5
105073,221267,4
105080,221267,5
105087,221278,5
104942,221284,5
105097,221294,5
105109,221300,4
105113,221296,5
104985,221305,5
105116,221312,5
105123,221323,5
105123,221323,4
105184,221309,6
105117,221314,4
105112,221308,5
105105,221303,4
105273,221285,6
105108,221276,3
105092,221265,5
105083,221259,5
105204,221240,4
105055,221221,5
105040,221207,5
105032,221189,5
105057,221170,5
105004,221141,4
104985,221123,5
104986,221116,5
104974,221045,5
104970,221096,5
104941,221074,4
104945,221062,5
104937,220927,5
104922,221041,5
104910,221043,5
104916,221032,4
104907,220858,5
104891,221026,6
104899,221023,4
104877,221003,5
104867,220984,4
104856,220960,5
104835,220936,5
104830,220930,5
104809,221060,4
104806,220898,4
104788,220854,5
104756,220836,5
104743,221008,5
104732,220797,4
104722,220781,5
104717,220784,5
104713,220867,5
104719,220792,5
104722,220794,4
104718,220789,5
104726,220798,5
104724,220782,5
104707,220772,5
104709,220772,4
104713,220765,5
104703,220768,5
104706,220766,6
104709,220763,4
104706,220769,4
104698,220763,5
104702,220758,5
104696,220762,5
104690,220761,5
104698,220745,4
104681,220748,5
104687,220738,5
104678,220721,5
104669,220721,4
104656,220705,4
104649,220711,5
104653,220713,5
104654,220715,5
104656,220713,4
104658,220700,5
104658,220716,5
104655,220709,5
104658,220696,5
104640,220693,5
104648,220671,4
104625,220674,5
104620,220670,5
104624,220658,6
104623,220654,3
104604,220665,5
104600,220641,5
104600,220619,5
104595,220626,5
104596,220618,4
104590,220615,5
104592,220626,5
104600,220606,5
104593,220629,4
104597,220611,4
104598,220625,5
104606,220643,5
104602,220649,5
104627,220668,4
104624,220679,5
104635,220668,5
104635,220669,5
104646,220688,5
104639,220697,4
104651,220698,6
104641,220689,4
104645,220705,5
104651,220703,5
104658,220693,4
104646,220709,5
104650,220701,5
104645,220696,5
104649,220696,5
104640,220697,4
104646,220699,5
104637,220681,5
104648,220699,5
104640,220677,5
104627,220682,4
104631,220673,5
104618,220668,5
104622,220662,5
104613,220648,4
104605,220645,5
104600,220639,5
104587,220621,5
104588,220622,5
104572,220597,4
104565,220591,5
104540,220565,6
104540,220554,4
104521,220541,5
104511,220528,4
104379,220499,5
104481,220493,5
104470,220474,5
104470,220479,5
104321,220484,4
104473,220482,5
104468,220484,5
104468,220470,5
104397,220487,5
104474,220486,4
104476,220494,5
104494,220505,5
104590,220501,5
104496,220498,4
104496,220514,4
104501,220509,5
104671,220518,5
104503,220515,5
104499,220489,4
104487,220502,5
104585,220493,5
104483,220498,6
104471,220485,4
104476,220478,4
104488,220453,5
104432,220433,5
104423,220400,5
104408,220389,5
104403,220304,4
104400,220393,5
104401,220390,5
104410,220390,5
104402,220253,5
104403,220396,4
104412,220395,5
104420,220423,5
104430,220270,5
104432,220425,4
104438,220431,5
104444,220434,4
104451,220507,5
104459,220455,5
104458,220460,5
104471,220458,5
104468,220626,3
104474,220467,5
104467,220475,5
104470,220465,4
104470,220617,5
104477,220488,5
104479,220478,5
104465,220470,5
104460,220516,4
104463,220464,5
104464,220463,5
104449,220450,5
104452,220463,5
104451,220456,4
104455,220467,5
104464,220470,5
104464,220462,5
104460,220464,5
104449,220454,4
104446,220435,5
104438,220426,5
104436,220428,5
104428,220420,4
104426,220415,5
104427,220420,4
104431,220404,5
104418,220420,5
104420,220413,4
104424,220424,5
104429,220417,5
104426,220409,5
104436,220424,5
104442,220431,4
104447,220432,5
104448,220449,5
104450,220446,5
104451,220457,5
104469,220462,4
104470,220465,5
104480,220496,5
104487,220487,5
104481,220489,5
104491,220503,4
104502,220520,5
104518,220532,5
104506,220521,5
104512,220536,4
104506,220516,4
104510,220523,6
104508,220516,4
104519,220526,5
104511,220527,4
104508,220526,5
104500,220527,5
104495,220524,5
104493,220513,5
104491,220500,4
104491,220497,5
104501,220488,5
104484,220497,5
104479,220481,5
104467,220479,4
104462,220475,5
104456,220461,5
104448,220439,5
104437,220425,5
104431,220423,4
104423,220409,5
104412,220386,5
104391,220372,5
104379,220348,5
104369,220342,4
104362,220321,5
104352,220301,5
104350,220297,5
104335,220292,4
104338,220285,4
104339,220286,5
104343,220297,5
104342,220293,5
104342,220309,4
104355,220313,5
104363,220329,5
104352,220332,5
104365,220334,5
104368,220330,4
104363,220339,5
104366,220341,5
104360,220346,5
104292,220350,5
104368,220336,4
104356,220328,5
104349,220315,5
104187,220291,5
104328,220285,5
104311,220266,4
104305,220253,5
104132,220240,5
104270,220214,5
104258,220181,4
104240,220161,4
104275,220163,5
104232,220156,5
104241,220168,5
104238,220171,4
104394,220183,5
104243,220187,5
104237,220186,5
104249,220184,5
104401,220204,4
104259,220201,5
104270,220223,5
104272,220230,5
104341,220245,5
104302,220257,4
104301,220264,6
104296,220261,4
104314,220220,5
104305,220273,5
104320,220271,6
104319,220292,3
104321,220154,5
104313,220275,5
104321,220284,5
104321,220274,4
104323,220105,5
104309,220275,5
104309,220268,5
104315,220269,4
104303,220260,4
104306,220274,5
104300,220267,5
104304,220268,5
104308,220402,4
104307,220246,5
104292,220243,5
104284,220223,5
104265,220399,5
104271,220212,4
104276,220218,5
104264,220210,6
104259,220288,4
104260,220202,5
104260,220186,4
104257,220191,5
104258,220202,5
104259,220202,5
104252,220195,5
104263,220215,4
104269,220203,5
104270,220207,5
104268,220211,5
104267,220226,4
104279,220226,4
104277,220231,5
104291,220242,5
104302,220256,5
104305,220271,4
104311,220275,5
104318,220260,5
104320,220285,5
104328,220286,5
104315,220282,4
104319,220281,5
104328,220290,5
104322,220290,6
104322,220289,4
104318,220274,4
104315,220269,5
104311,220262,5
104304,220270,5
104306,220246,5
104296,220255,4
104288,220236,5
104287,220237,5
104275,220222,5
104270,220206,4
104249,220183,4
104240,220172,5
104224,220147,5
104203,220130,5
104189,220104,4
104174,220083,5
104166,220083,5
104163,220081,5
104159,220070,5
104164,220092,5
104166,220072,4
104162,220074,5
104166,220087,5
104165,220087,6
104179,220102,3
104170,220096,5
104175,220115,5
104176,220111,5
104180,220099,5
104186,220097,4
104186,220102,5
104179,220089,5
104176,220077,5
104186,220088,5
104175,220080,4
104169,220071,5
104150,220067,5
104145,220047,5
104138,220039,4
104132,220019,4
104121,220001,5
104108,219984,5
104090,219979,5
104074,219946,4
104058,219941,6
104064,219946,4
104061,219928,5
104076,219940,5
104064,219940,6
104068,219940,3
104082,219953,5
104082,219955,5
104100,219980,5
104095,219977,4
104113,219993,5
104088,219999,5
104122,220009,5
104133,220017,5
104145,220030,4
104034,220042,5
104157,220060,5
104164,220047,5
104159,220052,4
104001,220075,4
104169,220066,5
104174,220086,5
104172,220051,5
104108,220075,4
104176,220066,5
104173,220067,6
104163,220064,4
104262,220058,5
104164,220056,4
104152,220049,5
104158,220057,5
104329,220058,5
104152,220042,5
104147,220035,4
104137,220038,5
104232,220019,5
104125,220015,5
104129,220005,5
104114,220001,4
104141,219992,5
104122,220008,5
104116,220008,5
104129,219995,5
104112,219917,4
104120,220004,5
104119,220003,5
104124,220021,5
104139,219874,4
104146,220023,4
104148,220037,5
104153,220034,6
104168,219931,4
104182,220083,4
104182,220093,6
104203,220097,4
104223,220189,5
104227,220138,5
104230,220161,4
104245,220168,5
104262,220342,5
104266,220216,5
104283,220215,5
104282,220224,4
104283,220359,5
104284,220216,5
104290,220227,5
104287,220217,5
104288,220273,4
104289,220233,5
104295,220220,5
104279,220218,5
104274,220212,5
104283,220207,4
104269,220212,5
104269,220178,5
104257,220168,6
104265,220172,3
104234,220160,5
104225,220143,5
104208,220122,5
104209,220109,5
104192,220114,4
104196,220109,5
104195,220092,5
104182,220093,5
104182,220099,5
104191,220096,4
104193,220106,5
104200,220113,5
104203,220109,5
104206,220128,5
104212,220111,4
104220,220132,5
104222,220128,5
104217,220130,5
104232,220146,5
104223,220155,5
104234,220155,4
104225,220149,5
104223,220152,5
104228,220144,4
104217,220142,5
104223,220148,5
104214,220138,5
104218,220132,5
104209,220118,4
104187,220101,5
104184,220074,5
104174,220080,5
104151,220070,5
104157,220060,4
104173,220075,5
104174,220080,5
104190,220097,5
104183,220109,5
104187,220115,4
104198,220129,5
104211,220127,5
104213,220129,5
104221,220149,5
104233,220164,4
104253,220190,6
104266,220204,4
104284,220235,5
104298,220232,4
104311,220263,4
104316,220275,5
104334,220288,5
104339,220299,5
104350,220313,4
104353,220313,5
104363,220306,5
104360,220310,5
104356,220312,5
104349,220321,4
104362,220324,5
104361,220332,5
104355,220326,5
104356,220320,5
104358,220333,4
104367,220331,5
104354,220307,5
104353,220315,5
104348,220310,5
104340,220308,4
104344,220296,5
104333,220298,6
104338,220277,4
104266,220279,4
104336,220296,4
104339,220285,5
104346,220298,5
104210,220303,5
104350,220306,4
104366,220326,5
104364,220347,5
104222,220336,5
104393,220372,5
104397,220375,4
104427,220384,5
104450,220404,5
104430,220421,5
104446,220436,5
104449,220452,4
104614,220470,5
104482,220488,5
104491,220495,5
104508,220510,5
104673,220534,4
104521,220543,5
104526,220550,5
104543,220569,5
104601,220574,5
104549,220575,4
104558,220584,5
104554,220583,5
104564,220551,5
104557,220590,4
104560,220580,4
104554,220585,5
104550,220459,5
104546,220568,5
104538,220565,4
104536,220551,4
104527,220378,5
104515,220533,5
104509,220503,5
104495,220505,4
104498,220447,5
104492,220494,5
104472,220486,5
104482,220487,5
104473,220612,5
104486,220497,4
104487,220501,5
104492,220509,5
104496,220699,5
104502,220528,4
104510,220535,5
104523,220545,5
104519,220646,5
104531,220551,4
104534,220559,4
104543,220562,5
104534,220580,5
104538,220569,9
104535,220563,0
104525,220553,5
104529,220510,5
104528,220542,5
104523,220533,5
104524,220529,4
104508,220529,5
104505,220513,5
104497,220506,5
104489,220497,5
104483,220505,4
104496,220518,6
104508,220522,4
104520,220542,5
104534,220553,5
104539,220562,4
104558,220593,5
104581,220600,5
104580,220617,5
104604,220651,5
104622,220673,4
104644,220698,5
104661,220723,5
104672,220735,5
104693,220751,4
104702,220773,4
104721,220805,5
104728,220817,5
104742,220827,5
104745,220839,4
104758,220854,5
104760,220860,5
104772,220855,5
104770,220854,4
104765,220856,4
104763,220865,5
104783,220870,5
104782,220876,5
104785,220867,5
104794,220895,4
104805,220895,5
104798,220904,5
104797,220909,5
104798,220895,5
104794,220897,4
104788,220886,5
104787,220889,5
104781,220884,5
104782,220882,4
104790,220898,4
104785,220879,5
104794,220897,5
104786,220892,5
104798,220908,5
104806,220909,4
104820,220929,5
104829,220946,5
104831,220950,6
104847,220972,3
104863,220988,5
104868,220997,5
104882,221030,5
104896,221030,5
104912,221058,4
104934,221074,5
104933,221081,5
104945,221104,5
104962,221104,5
104959,221116,4
104976,221143,5
104974,221140,5
104968,221136,5
104974,221125,5
104971,221126,4
104969,221137,5
104961,221129,5
104960,221130,5
104966,221127,4
104962,221109,5
104847,221102,4
104943,221085,5
104927,221073,5
104913,221053,6
104747,221032,3
104881,221030,5
104885,220996,5
104869,220976,5
104773,220967,4
104854,220965,5
104834,220953,5
104849,220950,5
104933,220952,5
104829,220953,4
104828,220949,5
104832,220936,5
105012,220940,5
104827,220939,5
104824,220933,4
104827,220927,5
104933,220931,5
104805,220917,5
104795,220903,4
104794,220906,4
104808,220893,6
104771,220877,4
104757,220856,5
104748,220841,4
104735,220726,5
104715,220790,5
104712,220784,5
104702,220783,5
104701,220656,4
104713,220788,5
104715,220795,5
104711,220811,5
104723,220652,5
104722,220820,4
104724,220817,5
104740,220830,5
104743,220897,5
104740,220826,5
104736,220836,4
104740,220829,5
104743,220998,5
104744,220842,5
104743,220836,5
104742,220849,4
104740,221000,5
104740,220840,6
104744,220853,4
104740,220842,4
104724,220871,4
104730,220825,5
104723,220813,5
104721,220820,5
104722,220807,4
104712,220810,5
104719,220817,5
104717,220813,5
104721,220824,5
104719,220809,4
104717,220807,5
104706,220779,5
104680,220763,5
104668,220742,5
104657,220739,4
104657,220728,5
104646,220705,5
104636,220705,5
104636,220698,5
104629,220691,4
104624,220691,5
104637,220687,5
104625,220680,6
104613,220676,4
104617,220667,4
104622,220673,5
104618,220668,5
104620,220668,5
104623,220687,4
104619,220692,5
104633,220688,5
104639,220712,5
104657,220713,5
104657,220720,4
104647,220724,5
104658,220730,5
104670,220735,5
104669,220745,5
104670,220755,4
104679,220767,5
104686,220750,5
104671,220758,5
104676,220763,5
104677,220760,5
104672,220755,4
104676,220753,5
104674,220746,5
104675,220750,6
104670,220739,3
104671,220736,5
104662,220731,5
104662,220731,5
104654,220730,4
104659,220728,4
104655,220710,5
104645,220703,5
104631,220696,5
104624,220680,4
104612,220646,5
104605,220636,5
104590,220622,5
104568,220603,5
104562,220595,4
104553,220585,5
104541,220579,5
104529,220560,5
104528,220568,5
104519,220543,4
104519,220539,6
104524,220549,4
104525,220535,5
104532,220556,5
104533,220562,4
104537,220573,5
104542,220580,5
104535,220582,5
104541,220576,5
104549,220587,4
104543,220586,5
104556,220579,5
104559,220592,5
104506,220576,4
104547,220583,4
104535,220575,5
104536,220552,5
104397,220554,5
104518,220536,4
104511,220512,5
104491,220490,5
104638,220484,56
104638,220484,3
104493,220488,3
104486,220501,5
104482,220501,5
104565,220508,5
104483,220500,4
104488,220508,4
104481,220494,5
104495,220486,5
104474,220478,5
104470,220482,4
104460,220476,5
104471,220370,5
104477,220463,5
104452,220450,5
104452,220458,4
104461,220303,5
104443,220441,5
104444,220452,6
104453,220458,4
104448,220369,4
104456,220461,5
104454,220454,5
104468,220450,5
104456,220530,5
104447,220430,4
104438,220423,5
104435,220420,5
104433,220592,5
104427,220426,5
104431,220407,4
104417,220409,5
104410,220505,5
104408,220386,5
104403,220372,4
104394,220378,4
104396,220402,5
104407,220368,5
104390,220362,5
104389,220360,5
104390,220364,3
104395,220360,5
104398,220370,5
104398,220385,5
104402,220382,4
104402,220379,5
104406,220388,5
104405,220378,5
104413,220384,5
104406,220390,4
104414,220389,5
104403,220390,5
104409,220390,5
104416,220382,5
104404,220371,4
104405,220372,5
104389,220369,5
104392,220355,5
104396,220345,5
104379,220333,4
104369,220320,5
104366,220316,5
104348,220310,5
104347,220278,4
104327,220273,5
104316,220235,4
104297,220219,5
104276,220188,5
104268,220177,4
104248,220160,5
104251,220145,5
104233,220130,5
104228,220123,5
104225,220105,4
104219,220119,5
104211,220101,5
104210,220107,5
104194,220075,5
104185,220061,4
104172,220038,5
104164,220013,5
104150,220016,5
104161,220022,5
104167,220028,4
104169,220015,5
104161,220028,5
104124,220000,5
104101,219966,4
104084,219953,4
104083,219949,6
104071,219940,4
104076,219933,5
104070,219916,4
104030,219856,5
103992,219789,5
103954,219734,5
103903,219679,5
103864,219645,4
103794,219558,5
103733,219487,5
103678,219398,5
103578,219246,5
103453,219106,4
103345,218957,5
103238,218826,5
103133,218664,5
103027,218515,5
102916,218391,4
102814,218279,5
102746,218193,5
102689,218090,5
102553,217953,5
102458,217831,4
102338,217679,5
102249,217557,5
102115,217338,5
101952,217189,4
101814,217145,4
101832,217103,5
101780,217049,5
101751,217047,5
101656,217103,4
101805,217134,5
101805,217094,5
101789,217083,5
101602,217077,5
101727,217083,4
101697,217055,5
101633,216979,5
101666,217003,5
101648,217014,5
101676,217050,4
101706,217103,5
101887,217161,5
101808,217264,5
101881,217373,5
101952,217472,4
102143,217525,5
102010,217580,5
102021,217586,5
102036,217621,4
102122,217672,4
102102,217723,5
102150,217804,5
102203,217921,5
102256,217929,4
102257,217985,5
102310,218071,5
102353,218136,5
102396,218101,5
102449,218293,4
102521,218402,5
102611,218527,5
102701,218491,5
102793,218768,5
102884,218877,4
102958,218997,6
103073,219073,4
103172,219257,5
103261,219377,5
103323,219478,6
103363,219615,3
103420,219613,5
103527,219756,5
103626,219886,5
103718,220177,4
103830,220161,5
103948,220344,5
104105,220539,5
104233,220827,4
104419,220985,4
104572,221216,5
104758,221473,5
104956,221758,5
105145,222001,4
105342,222256,5
105523,222518,5
105712,222782,5
105881,222997,5
105978,223114,4
106064,223189,5
106196,223325,6
106349,223507,4
106498,223716,5
106597,223879,4
106804,224122,7
106995,224361,5
107168,224571,3
107369,224801,5
107551,225098,4
107792,225409,5
108064,225673,5
108254,225874,5
108450,226116,4
108601,226273,4
108756,226487,5
108917,226713,5
109068,226829,5
109143,226954,4
109312,227110,5
109451,227227,5
109559,227305,5
109642,227400,5
109790,227590,4
109964,227698,5
110073,227770,5
110153,227911,6
110376,228124,4
110609,228410,4
110858,228725,5
111064,228950,5
111218,229121,5
111414,229374,5
111656,229644,4
111836,229251,5
111951,229339,5
112129,229545,5
112254,229711,5
112438,229824,4
112570,229953,5
112750,230178,5
112994,230508,5
113199,230738,4
113407,231016,4
113631,231324,5
113896,231637,5
114203,231783,5
114457,232055,5
114788,232469,4
114602,232794,5
114832,233104,5
115054,233343,6
115256,233494,3
115439,233717,5
115650,233918,5
115850,234059,5
115903,234129,5
116028,234232,4
116183,234368,5
116337,234500,5
116501,234645,5
116646,234753,5
116761,234824,4
116922,234908,5
117074,235017,5
117205,235122,5
117302,235120,4
117304,235097,4
117461,235192,5
117499,235153,5
117394,234618,5
117433,234657,4
117452,234487,6
117513,234460,4
117687,234659,5
117954,234641,5
117945,234469,6
117981,234376,3
117978,234526,5
118240,234549,5
118317,234805,5
118451,234987,4
118425,235100,5
118581,235134,5
118658,235193,5
118697,235355,5
118783,235356,4
118838,235261,5
118953,235106,5
118930,234935,5
118901,234620,5
118420,233744,4
118025,233296,5
117822,232756,5
117701,232446,5
117575,232108,4
117486,231916,4
117388,231749,6
117417,231585,4
117181,231024,5
116948,230644,4
116779,230254,5
116563,229870,5
116157,229168,5
115937,228641,5
115236,227666,4
114782,226959,5
114531,226737,5
114206,226161,5
114143,226048,5
113873,225623,4
113737,225539,5
113594,225271,5
113474,225061,5
113243,224612,5
112842,224085,4
112644,223861,5
112440,223666,5
112245,223421,5
112084,223218,5
112191,223329,4
112147,223193,5
112037,223170,6
112002,222883,4
111826,222715,4
111706,222556,4
111612,222476,5
111497,222335,5
111372,222213,5
111271,222134,4
111187,222054,5
111117,221894,5
111052,221762,5
110957,221632,5
110838,221466,4
110751,221324,5
110560,221152,5
110497,221060,5
110415,220912,5
110294,220734,4
110213,220607,5
110153,220476,5
110030,220282,5
109932,220047,5
109879,219992,4
109788,219773,5
109634,219635,5
109595,219518,6
109654,219683,3
109846,219994,4
109988,220166,5
110040,220229,5
110049,220222,5
110015,220226,4
110094,220379,5
110267,220661,5
110586,221134,5
110875,221573,5
111076,221887,4
111310,222278,5
111702,222888,5
112126,223514,5
112400,223909,5
112737,224442,4
113114,225044,5
113569,225770,5
114047,226535,5
114531,227293,5
115060,228121,5
115556,228875,4
116058,229657,5
116782,230753,5
117683,232027,5
118366,232933,4
118845,233631,5
119343,234350,5
119751,235057,5
120570,236316,4
121534,237636,4
122227,238371,5
122829,239197,5
123432,240007,5
123975,240636,4
124366,241109,5
124636,241300,5
124864,241635,5
125212,241828,5
125284,241906,4
125584,242351,5
126051,242905,5
126362,243161,5
126280,242911,5
126090,242613,4
126006,242515,6
126215,242788,4
126468,243028,5
126576,243090,5
126541,242959,4
126522,242963,5
126488,242874,5
126550,243033,5
126932,243573,4
127625,244439,4
128222,245088,5
128823,245997,5
129439,246279,5
129839,246786,4
129865,246867,5
129472,246850,5
129762,247341,5
130186,248016,5
130641,248813,4
131242,249484,5
130836,249883,5
130629,249618,5
130236,249454,5
130384,249405,4
129857,248913,5
129703,248861,6
129417,248676,4
129195,248172,5
129174,248328,4
129322,248440,5
129185,248096,5
128863,247820,5
128638,247469,5
128332,247149,4
128487,247091,5
128233,247001,5
128012,246700,5
127969,246705,4
128106,246650,4
127836,246425,5
127684,246258,5
127719,246318,5
127783,246327,4
127725,246303,5
127669,246221,5
127617,246158,5
127516,245926,5
127426,245927,4
127445,245965,5
127382,245867,5
127328,245674,5
127342,245867,5
127328,245824,4
127267,245753,5
127283,245578,5
127233,245652,5
127059,245421,5
126956,245316,5
126959,245422,4
127014,245450,5
127043,245475,5
127031,245460,5
127015,245577,4
126923,245281,5
126794,245111,5
126638,244939,5
126643,245177,4
126629,244960,5
126610,244967,5
126608,244963,5
126618,245080,5
126680,245055,5
126678,245031,4
126644,245017,5
126619,244983,5
126584,244906,5
126529,244856,4
126485,244804,5
126483,244811,5
126493,244800,5
126398,244653,5
126278,244513,4
126259,244483,5
126235,244483,5
126266,244522,5
126300,244567,5
126266,244484,4
126223,244440,5
126261,244475,5
126243,244443,5
126145,244329,4
126145,244356,4
126226,244462,5
126367,244670,5
126513,244825,5
126655,245030,4
126840,245282,6
126941,245351,4
126893,245272,5
126768,245141,5
126696,245078,4
126685,245090,5
126753,245177,5
126794,245196,5
126804,245214,5
126827,245253,4
126850,245253,5
126859,245268,5
126787,245138,5
126677,245014,5
126594,244913,4
126512,244782,5
126510,244864,5
126628,245004,5
126713,245123,5
126747,245141,4
126770,245157,5
126770,245160,5
126780,245170,4
126792,245192,4
126791,245166,4
126766,245145,5
126778,245191,5
126866,245288,5
126931,245338,4
126943,245323,5
126900,245282,5
126850,245218,5
126810,245175,5
126788,245136,4
126780,245124,5
126781,245113,5
126809,245162,5
126850,245199,5
126871,245220,4
126878,245230,5
126895,245259,5
126927,245273,5
126961,245310,5
126995,245337,4
127045,245388,5
127041,245390,5
127081,245414,6
127123,245468,3
127159,245521,4
127191,245555,5
127223,245568,5
127251,245601,5
127303,245685,4
127368,245745,5
127436,245825,5
127467,245888,5
127566,245964,5
127644,246057,4
127719,246163,5
127665,246260,5
127883,246354,5
127948,246421,5
128004,246491,4
127866,246556,5
128072,246555,5
128080,246579,5
128068,246588,5
128054,246619,5
128142,246667,4
128177,246720,5
128228,246786,5
128417,246843,6
128350,246930,3
128418,246995,5
128477,247059,5
128720,247126,5
128547,247157,4
128593,247212,5
128627,247243,5
128782,247300,5
128719,247373,5
128773,247446,4
128835,247542,5
128939,247662,5
129016,247788,5
129138,247930,5
129243,248041,4
129332,248015,5
129371,248180,5
129410,248208,5
129425,248221,5
129448,248083,4
129461,248271,6
129464,248282,4
129468,248267,5
129470,248117,5
129467,248245,6
129442,248223,3
129432,248213,5
129424,248272,5
129403,248172,4
129379,248115,4
129329,248079,5
129305,248241,5
129269,247990,5
129225,247920,4
129179,247840,5
129129,247931,5
129082,247740,5
129063,247676,5
129058,247666,4
129049,247691,5
129037,247627,5
129017,247591,5
128994,247555,5
128976,247522,4
128950,247462,5
128904,247418,6
128858,247350,4
128828,247303,5
128785,247253,4
128737,247154,5
128684,247105,5
128625,247010,5
128563,246913,5
128501,246836,4
128427,246752,5
128406,246689,5
128375,246645,5
128373,246638,4
128339,246600,5
128327,246568,5
128310,246541,5
128288,246524,5
128259,246470,9
128234,246429,1
129269,247990,4
128179,246333,5
128164,246279,5
128115,246229,4
128078,246170,5
128027,246090,5
127949,245985,6
127869,245896,4
127801,245793,4
127721,245730,5
127666,245630,5
127608,245551,5
127540,245460,5
127473,245372,4
127413,245302,5
127355,245213,5
127300,245137,5
127240,245038,4
127168,244931,4
127086,244817,5
126979,244680,5
126929,244570,5
126839,244427,4
126739,244301,5
126646,244148,5
126541,244018,5
126440,243841,5
126318,243698,5
126208,243516,4
126122,243359,5
126000,243180,5
125886,242984,6
125762,242805,3
125656,242647,5
125480,242332,5
125247,242008,5
125029,241646,5
124705,241161,4
124328,240608,5
123927,240078,5
123508,239464,5
123106,238879,5
122661,238199,4
122133,237383,5
121460,236360,5
120718,235273,5
119975,234194,4
119226,233181,4
118522,232181,5
117910,231249,5
117343,230368,5
116593,229178,4
115821,228684,6
115206,227813,4
114756,227111,5
114580,226767,5
114989,226286,4
114789,225821,5
114519,225433,5
114394,225246,5
114261,225228,5
114430,225294,4
114418,225263,5
114389,225256,5
114191,225206,5
114205,225195,5
114197,225295,4
114374,225645,5
114690,226159,5
115012,226718,5
115287,227213,4
115573,227723,4
115957,228152,5
116023,228430,5
116154,228752,5
116118,228943,4
116044,228927,5
115779,228969,6
115605,228961,4
115580,229065,5
115408,228844,4
114818,228218,5
113770,227247,5
112558,225987,5
110627,223875,5
108497,221652,4
106699,220120,5
104694,218181,5
102716,216244,5
100774,214543,5
98738,212812,4
96980,212193,5
96221,210989,5
94573,209868,5
93209,208771,5
92149,207899,5
90953,206617,4
89460,205332,5
87898,203882,5
86358,202435,4
84780,201040,4
83254,199970,5
82207,199493,6
81452,199060,4
81585,199069,4
80792,198515,5
79834,197471,5
78799,196284,5
77924,195692,5
77148,194824,4
76537,193952,5
75709,192734,5
74871,191679,5
74196,190541,5
73840,190261,4
74200,190814,5
74307,190783,5
74489,190870,5
74872,190989,5
75423,191343,4
76085,191656,5
76813,191383,5
77828,191194,5
79147,190179,5
79486,188164,4
80041,186571,5
79848,183894,5
79628,181522,5
78988,178904,4
77772,175690,5
76086,171586,5
74553,167699,5
73265,163972,5
71088,158784,4
69607,155352,5
68564,152176,5
68346,150593,5
68378,149704,5
67840,147690,4
66648,144772,5
65489,142469,5
65153,140510,5
64633,139082,5
64107,137623,4
63416,136047,5
62847,134464,5
62007,132595,5
61225,130568,5
60445,129217,5
59888,127693,4
59375,126206,5
58894,124573,5
58202,122592,4
57433,120419,4
56831,118435,5
56118,116829,5
55601,115232,5
54605,113134,4
53894,112154,5
53000,110190,5
52325,108796,5
51938,107880,5
51695,107442,4
51441,106593,5
51003,105821,5
50771,105386,5
50672,105109,5
50493,104789,4
50304,104379,5
50017,103975,5
49937,103846,5
49681,103340,5
49132,102176,4
49092,100461,6
48315,98719,4
47295,96799,5
46180,95109,5
45098,93054,4
44069,91259,5
43265,89805,5
42647,88630,5
42009,87502,4
41104,85880,5
40330,84575,5
39673,83670,5
39445,83195,5
39119,82485,4
38836,81760,5
38295,81110,5
37678,80061,5
37204,79196,5
36759,78412,4
36250,77623,5
36046,77289,5
35944,77157,5
35920,77045,5
35902,77089,4
36091,77537,5
36478,78247,5
36915,79053,5
37361,79965,5
37829,80857,4
38263,81736,5
38720,82628,5
39081,83269,5
39404,83890,4
39657,84357,4
39811,84596,5
39927,84797,5
40071,85028,5
40201,85253,4
40327,85427,5
40416,85544,5
40482,85665,5
40510,85767,5
40538,85788,4
40433,85540,5
40203,85053,5
39899,84476,5
39695,84114,5
39573,83965,3
39589,83963,5
39566,83914,5
39462,83717,5
39328,83470,5
39175,83232,4
39192,83247,5
39169,83193,5
39189,83226,5
39206,83205,5
39253,83263,4
39267,83287,5
39281,83343,5
39325,83422,5
39373,83436,4
39337,83299,4
39185,83015,5
39085,82904,5
39051,82841,5
39051,82871,4
39062,82879,6
39019,82840,4
39053,82914,5
39123,83064,5
39245,83312,6
39400,83606,3
39579,83906,5
39762,84249,5
39929,84556,5
40100,84914,4
40296,85248,5
40469,85590,5
40640,85866,5
40751,86028,5
40835,86234,4
40905,86262,5
40759,85907,5
40530,85461,5
40280,84996,4
40038,84582,4
39978,84570,5
39981,84618,5
39993,84644,5
40009,84727,4
40002,84706,5
40061,84940,6
40187,85178,4
40237,85253,5
40276,85365,4
40373,85555,7
40551,85869,3
40632,86050,5
40777,86367,5
40972,86771,4
41174,87083,5
41339,87358,5
41466,87566,5
41552,87726,5
41635,87865,4
41735,88057,5
41900,88356,5
42031,88558,5
42196,88873,5
42463,89372,4
42810,90000,5
43155,90704,5
43581,91397,5
43862,91837,4
44060,92193,4
44251,92553,5
44562,93084,6
44978,93811,4
45311,94263,4
45618,94867,5
45949,95482,5
46177,95775,5
46101,95652,5
45980,95410,4
45688,94955,5
45602,94914,5
45628,95101,5
45925,95617,5
46223,95829,4
46072,95491,5
45304,94327,5
44640,93242,5
44051,92433,5
43440,91500,4
43056,90919,5
42650,90116,5
41976,89020,5
41164,87745,5
40358,86338,4
39493,84684,5
38391,82779,5
37269,80944,6
36397,79422,3
35726,78402,5
35308,77779,5
35095,77429,5
34948,77167,5
34665,76820,4
34496,76532,5
34283,76103,5
33984,75548,5
33734,75205,5
33497,74878,4
33400,74777,5
33293,74712,5
33223,74589,5
33046,74383,5
32892,74197,4
32799,74126,5
32738,74042,5
33366,73781,5
33230,73488,5
33056,73217,5
32900,72915,4
32785,72707,5
32664,72477,5
32536,72142,6
32325,71757,3
32170,71466,5
32039,71235,5
31894,71031,5
31806,70826,4
31714,70616,5
31589,70456,5
31474,70272,5
31370,70055,5
31181,69754,4
31083,69655,5
30933,69454,5
30795,69306,5
30713,69216,5
30631,69143,4
30590,69082,5
30558,69036,5
30480,68934,5
30391,68790,5
30308,68619,4
30222,68485,6
30144,68367,4
30051,68215,5
29983,68103,5
29931,68083,5
29971,68166,4
29992,68251,5
30004,68363,5
30085,68494,4
30168,68752,4
30284,69009,5
30468,69434,5
30520,69454,5
30606,69790,4
30824,70214,5
31008,70450,5
30975,70605,5
31047,70825,5
31176,71154,4
31293,71405,5
31148,71254,5
31168,71449,5
31299,71639,5
31420,71967,4
31554,72214,5
31783,72626,6
32012,73018,4
32238,73348,5
32376,73724,4
32738,74223,5
32929,74749,5
33079,75082,5
33109,75233,4
33284,75680,4
33473,76172,5
33813,76851,5
34118,77387,5
34202,77563,4
33828,77610,5
33906,77997,5
33948,78206,5
33985,78305,5
34046,78462,4
34085,78635,5
34036,78803,5
34104,79082,5
34232,79451,5
34343,79848,4
34537,80295,5
34722,80712,5
34903,81089,6
34997,81419,4
35085,81755,4
34954,81845,5
34933,82134,5
34859,82383,7
34819,82620,3
34755,82795,4
34821,83122,5
34813,83255,5
34846,83571,5
34922,83966,4
34976,84320,4
35171,84946,5
35377,85587,5
35525,86100,5
35603,86517,4
35802,87168,5
36066,87830,5
36284,88352,5
36405,88769,5
36256,88915,5
36392,89527,4
36514,90358,5
36781,91254,5
37131,92180,5
37429,92914,4
37725,93737,5
38027,94467,5
38254,95151,5
38572,96006,5
38901,96861,4
39279,97817,5
39683,98801,5
40142,99212,5
40542,99906,5
40599,99920,4
40489,99783,5
40470,99799,5
40545,100026,5
40772,100661,4
41140,101481,4
41432,101969,5
41500,101889,5
41218,101160,5
40862,100484,4
40665,100139,6
40663,100135,4
40696,100180,5
40827,100555,5
40996,100922,4
41147,101255,5
41200,101358,5
41202,101386,5
41264,101605,5
41585,102449,4
42151,103769,5
42983,105575,5
43897,107360,5
44834,109020,5
45509,110174,4
46148,111176,5
46610,111961,5
46880,112384,5
46864,112375,4
46840,112322,4
46867,112442,5
46942,112539,6
46752,112038,4
46373,111437,4
45752,110244,5
44746,108456,6
43844,106878,4
43280,106116,5
43074,106048,4
43223,106720,5
43646,107723,5
44072,108768,5
44710,110145,5
45337,111522,4
46079,112814,5
46571,113601,5
46460,113187,5
45628,110649,5
43663,106601,4
42223,102980,5
41063,99561,5
40354,97182,5
39492,94096,5
38372,91446,4
37445,89074,5
36761,86932,5
36161,85281,5
35756,83970,4
35320,82711,4
34985,81918,5
34930,82208,5
34908,81978,5
34953,81966,4
35119,82131,5
35235,82160,5
35228,82028,5
35191,81837,5
35198,81780,4
35131,81555,5
34930,81066,5
34647,80482,5
34359,79888,5
34041,79249,4
33713,78655,5
33470,78157,5
33275,77721,5
33083,77263,5
32862,76760,4
32615,76216,5
32311,75509,5
31931,74581,5
31472,73510,5
31050,72622,4
30757,71956,5
30491,71399,5
30328,71052,5
30255,70927,4
30263,70886,4
30314,70992,5
30346,71063,5
30417,71193,5
30470,71373,4
30591,71683,5
30750,72051,5
30867,72290,5
30892,72315,5
30842,72197,4
30765,72036,5
30728,71964,5
30701,71940,5
30724,71963,5
30723,71973,4
30715,71961,5
30727,71983,5
30764,72056,5
30798,72134,5
30848,72259,5
30929,72430,4
30981,72511,5
31004,72587,5
31043,72678,4
31117,72826,4
31194,72969,5
31259,73093,5
31308,73209,5
31397,73410,4
31484,73601,5
31556,73723,5
31536,73640,5
31418,73304,5
31199,72756,4
30899,72093,5
30586,71355,5
30288,70681,5
29994,69948,5
29609,68888,4
29055,67453,5
28497,65855,6
27852,64148,4
27316,63410,5
26921,62322,4
26653,61592,7
26456,61036,3
26306,60560,5
26205,60257,5
26157,60136,4
26138,60045,5
26121,59959,5
26087,59833,5
26061,59775,4
26055,59769,4
26085,59827,5
26133,59932,5
26179,60079,5
26247,60270,4
26352,60586,5
26553,61136,5
26776,61682,5
26970,62119,5
27091,62356,4
27139,62494,5
27203,62621,5
27284,62773,6
27316,62837,4
27341,62868,4
27360,62920,5
27404,63075,5
27515,63388,5
27696,63883,5
27895,64223,4
27959,64349,5
27965,64405,5
27956,64343,5
27851,64093,5
27751,63852,4
27647,63593,5
27507,63232,5
27332,62783,5
27126,62276,4
26995,61974,4
26887,61679,5
26767,61422,5
26700,61300,5
26654,61149,5
26555,60922,4
26424,60584,5
26314,60329,5
26214,60128,6
26136,59965,3
26021,59614,5
25920,59417,5
25840,59287,5
25813,59253,5
25827,59297,4
25883,59361,5
25919,59453,5
26002,59711,5
26074,59836,5
26063,59823,5
26006,59819,4
25972,59846,5
25967,59870,5
25940,59821,4
25895,59656,4
25761,59359,5
25603,58936,5
25449,58522,5
25308,58205,4
25215,57994,6
25175,57908,4
25154,57789,5
25092,57582,5
24962,57225,6
24839,56913,3
24773,56791,5
24725,56747,5
24668,56714,5
24632,56711,4
24630,56783,5
24696,56972,5
24743,57079,5
24715,57135,5
24712,57215,4
24712,57315,5
24756,57506,5
24829,57801,5
24900,58133,5
25002,58495,4
25093,58823,5
25168,59060,5
25229,59241,5
25243,59341,4
25260,59505,4
25376,59855,6
25530,60341,4
25777,61020,5
25972,61491,4
26109,61859,5
26258,62221,5
26373,62484,5
26438,62615,5
26447,62644,4
26430,62591,5
26407,62529,5
26367,62443,5
26311,62300,5
26255,62136,4
26214,62035,5
26212,62043,5
26213,62145,5
26278,62332,5
26333,62458,4
26336,62426,5
26306,62383,5
26284,62296,5
26250,62191,5
26178,62016,4
26151,61981,5
26141,61964,6
26150,62011,4
26202,62132,4
26266,62304,4
26331,62524,5
26411,62714,5
26471,62851,5
26500,62932,4
26496,62908,5
26466,62800,5
26399,62640,5
26322,62474,5
26229,62303,4
26193,62212,5
26164,62148,5
26144,62086,5
26109,61985,5
26067,61864,4
26035,61781,5
26009,61734,5
26011,61738,5
26012,61774,5
26039,61853,4
26075,61986,5
26127,62127,5
26159,62246,6
26207,62343,3
26228,62380,4
26201,62340,5
26182,62303,5
26154,62212,5
26134,62212,4
26135,62275,5
26179,62374,5
26217,62507,5
26271,62676,5
26330,62844,4
26388,63012,5
26436,63156,5
26484,63285,5
26535,63396,5
26549,63465,4
26561,63507,5
26574,63504,5
26559,63462,5
26549,63480,5
26581,63662,5
26654,63862,4
26706,63999,5
26719,64026,5
26710,63985,5
26689,63997,4
26720,64098,5
26796,64308,5
26876,64500,5
26922,64650,4
26955,64692,4
26903,64572,5
26866,64504,5
26858,64548,5
26916,64698,4
27002,64968,5
27141,65359,5
27262,65664,5
27265,65620,5
27193,65391,4
27072,64992,5
26920,64623,5
26812,64355,5
26709,63998,5
26502,63433,4
26265,62718,6
26041,62090,4
25874,61681,5
25814,61547,5
25831,61620,4
25885,61822,5
25957,62005,5
26000,62076,5
25983,62030,5
25938,61872,4
25891,61719,5
25830,61568,5
25789,61436,5
25775,61429,4
25806,61542,4
25845,61679,5
25904,61818,5
25960,61951,5
26005,62089,4
26050,62254,5
26126,62442,5
26200,62668,5
26287,62906,5
26383,63166,4
26468,63406,5
26558,63638,6
26653,63906,4
26775,64224,5
26910,64577,4
27049,64942,5
27201,65320,5
27329,65675,5
27471,66026,5
27595,66370,4
27729,66710,5
27871,67118,5
28054,67596,5
28280,68098,4
28519,68652,4
28741,69162,5
28946,69569,5
29105,69907,5
29265,70268,4
29427,70642,5
29538,70819,5
29606,70907,5
29658,71030,5
29698,71125,4
29784,71317,5
29858,71449,5
29887,71539,6
29910,71581,4
29929,71677,4
30024,71923,5
30087,72091,5
30180,72273,5
30246,72384,5
30288,72511,4
30362,72621,5
30400,72670,5
30383,72612,5
30335,72511,5
30353,72597,4
30432,72755,5
30473,72852,5
30513,72953,5
30526,73024,4
30556,73089,9
30593,73138,5
30556,73017,5
30498,72891,5
30436,72736,4
30436,72726,5
30422,72686,5
30381,72578,5
30336,72464,4
30308,72386,5
30267,72243,5
30191,72010,5
30045,71675,5
29884,71263,4
29647,70689,5
29354,70007,5
29058,69293,5
28700,68422,5
28338,67524,4
28024,66664,5
27703,65767,5
27391,64952,5
27129,64205,5
26911,63582,4
26772,63139,5
26676,62866,5
26622,62702,5
26570,62637,4
26565,62664,5
26587,62707,4
26629,62808,5
26683,62982,5
26774,63230,4
26887,63517,5
27019,63853,5
27144,64253,5
27309,64656,5
27438,64998,4
27547,65287,5
27649,65529,5
27723,65710,5
27773,65875,5
27851,66005,4
27890,66098,5
27914,66142,5
27917,66188,5
27939,66189,5
27933,66178,4
27907,66089,5
27873,65941,5
27787,65732,5
27690,65453,4
27579,65189,4
27507,64900,6
27387,64647,4
27318,64444,5
27262,64280,4
27225,64167,5
27196,64119,5
27190,64082,5
27182,64045,5
27164,63988,4
27139,63938,5
27124,63887,5
27117,63866,5
27127,63849,5
27126,63877,4
27136,63900,5
27153,63937,5
27168,64002,5
27211,64108,5
27242,64203,4
27274,64282,4
27303,64319,5
27326,64400,5
27357,64476,4
27393,64563,4
27432,64663,5
27476,64755,5
27500,64818,5
27528,64887,4
27546,64973,5
27578,65019,5
27604,65093,5
27626,65140,5
27644,65184,4
27646,65182,5
27650,65176,5
27627,65161,5
27616,65137,5
27596,65089,4
27585,65071,5
27583,65075,5
27587,65089,5
27601,65126,5
27637,65255,5
27713,65459,4
27786,65650,5
27852,65837,5
27928,66033,6
28031,66338,3
28178,66767,5
28391,67341,5
28620,67903,5
28817,68467,4
29073,69180,4
29376,69971,5
29698,70787,5
30000,71500,5
30172,71832,4
30311,72161,5
30473,72602,5
30781,73381,5
31248,74499,5
31791,75801,4
32270,77025,5
32761,78374,5
33483,80422,5
34730,83369,5
36318,86006,4
37844,89243,6
39470,92243,4
40856,94928,5
42291,97605,5
43616,100096,6
44847,101510,3
45485,102530,5
45602,102577,5
45235,101869,5
44549,100683,4
43637,98982,5
42484,97071,5
41542,95495,5
40923,94619,4
40691,94284,4
40640,94198,5
40602,94141,5
40564,94051,5
40508,93952,4
40449,93899,5
40397,93875,5
40374,93900,5
40373,93960,5
40373,94037,4
40376,94026,5
40223,93654,6
39907,92982,4
39536,92223,5
39204,91555,4
38880,90835,5
38387,89790,5
37891,88795,5
37505,88091,5
37334,87718,4
37234,87550,5
37142,87403,5
37065,87193,5
36936,86877,4
36738,86430,4
36490,85876,5
36232,85241,5
35953,84583,5
35717,84047,4
35491,83530,5
35279,83061,5
35090,82654,5
34905,82248,5
34761,81876,4
34619,82191,5
34470,81855,5
34372,81647,6
34290,81441,4
34199,81218,4
34129,81044,5
34036,80886,5
34003,80753,5
33957,80623,5
33922,80470,4
33818,80265,5
33781,80102,5
33742,79933,5
33646,79654,5
33525,79269,4
33329,78831,5
33155,78403,5
32981,78079,5
32902,77821,4
32798,77670,4
32757,77531,5
32683,77351,5
32634,77180,5
32542,77021,5
32497,76882,4
32436,76680,5
32348,76445,5
32270,76282,6
32237,76160,3
32190,76059,5
32152,75955,5
32122,75860,5
32087,75760,5
32053,75645,4
32019,75516,5
31988,75445,5
31958,75352,5
31915,75231,5
31892,75123,4
31858,75071,5
31851,75014,5
31844,74950,5
31822,74892,5
31806,74865,4
31801,74821,5
31771,74735,5
31751,74732,5
31747,74685,4
31753,74656,6
31736,74595,4
31706,74529,5
31711,74484,5
31698,74485,4
31716,74498,5
31715,74536,5
31731,74521,5
31739,74541,5
31737,74565,4
31733,74550,5
31721,74498,5
31705,74467,5
31685,74417,5
31695,74368,4
31667,74281,5
31641,74234,5
31621,74210,5
31617,74194,5
31601,74174,4
31610,74196,5
31611,74201,5
31591,74187,5
31605,74206,4
31610,74198,4
31613,74201,6
31603,74186,4
31588,74173,5
31599,74202,4
31610,74224,5
31613,74249,5
31612,74251,5
31616,74278,5
31634,74304,4
31636,74348,5
31645,74381,5
31668,74429,5
31664,74473,5
31687,74500,4
31695,74522,5
31700,74504,5
31671,74445,5
31662,74401,5
31638,74354,4
31631,74310,5
31595,74268,5
31593,74253,5
31585,74246,5
31581,74228,4
31577,74202,5
31565,74171,6
31543,74117,4
31536,74108,4
31531,74120,4
31533,74142,5
31545,74163,5
31548,74151,5
31546,74172,4
31556,74183,5
31563,74191,5
31569,74202,5
31582,74240,5
31597,74293,4
31596,74299,5
31609,74320,5
31626,74345,5
31647,74388,5
31649,74417,4
31669,74451,5
31676,74473,5
31695,74502,5
31717,74530,5
31713,74568,4
31743,74639,5
31773,74720,5
31801,74784,5
31817,74832,4
31827,74795,4
31771,74637,5
31693,74453,5
31625,74285,5
31586,74179,4
31557,74100,5
31530,74056,5
31514,74018,5
31504,73979,5
31499,73950,4
31497,73958,5
31504,73994,5
31532,74044,5
31561,74138,5
31586,74246,4
31654,74376,5
31688,74468,5
31737,74547,5
31741,74613,5
31787,74698,5
31835,74797,4
31876,74910,5
31898,75008,5
31954,75075,5
31964,75144,4
32002,75208,5
32037,75269,5
32030,75280,5
32031,75297,4
32031,75310,4
32066,75330,5
32050,75364,5
32057,75369,5
32061,75365,4
32088,75389,5
32078,75422,5
32079,75450,5
32088,75460,5
32091,75435,4
32066,75363,5
32029,75274,6
31992,75186,4
31955,75085,5
31917,75016,4
31901,74957,7
31885,74943,3
31876,74893,5
31874,74889,5
31868,74877,4
31878,74861,5
31868,74836,5
31875,74859,5
31876,74857,5
31860,74839,4
31858,74842,5
31858,74831,5
31847,74807,5
31817,74724,4
31789,74665,5
31746,74535,5
31717,74410,5
31687,74321,5
31666,74297,4
31661,74240,5
31654,74227,5
31645,74235,5
31647,74222,5
31632,74184,4
31632,74169,5
31627,74147,6
31620,74150,4
31631,74130,5
31615,74122,4
31630,74124,5
31644,74140,5
31658,74207,5
31682,74260,5
31715,74343,4
31744,74436,5
31782,74514,5
31807,74591,5
31841,74643,4
31845,74653,4
31841,74616,5
31820,74546,5
31792,74513,5
31788,74473,4
31754,74432,5
31747,74442,5
31762,74484,5
31765,74492,5
31776,74504,4
31788,74565,5
31814,74632,5
31848,74703,5
31858,74746,5
31877,74806,4
31901,74868,5
31935,74933,5
31963,75013,5
31986,75091,5
32033,75186,4
32057,75264,5
32085,75330,5
32106,75377,5
32118,75406,4
32139,75473,4
32160,75551,5
32202,75617,5
32213,75688,5
32241,75757,4
32271,75837,5
32306,75932,4
32339,76038,5
32383,76131,5
32413,76224,5
32445,76313,3
32470,76354,5
32477,76358,5
32471,76349,5
32461,76307,4
32423,76233,5
32401,76156,5
32378,76088,5
32350,76036,7
32347,76013,2
32342,76012,5
32360,76045,5
32375,76084,5
32384,76127,5
32385,76128,4
32393,76129,5
32403,76133,5
32398,76137,5
32400,76128,4
32388,76083,4
32365,76027,6
32346,75951,4
32309,75882,5
32303,75818,4
32270,75762,7
32243,75683,3
32222,75628,5
32195,75568,5
32178,75501,4
32150,75437,5
32130,75390,5
32093,75325,5
32070,75214,5
32038,75125,4
31995,75021,5
31923,74881,5
31897,74790,5
31856,74695,5
31832,74610,4
31788,74547,5
31793,74497,5
31773,74430,5
31757,74384,5
31742,74310,4
31705,74236,5
31678,74140,6
31629,74042,4
31632,73955,4
31584,73888,4
31549,73784,5
31506,73701,5
31500,73612,5
31444,73521,4
31407,73440,5
31381,73379,5
31363,73327,5
31339,73266,5
31330,73218,4
31314,73181,5
31305,73136,5
31287,73105,5
31273,73072,5
31265,73031,4
31250,72974,5
31234,72974,5
31216,72936,5
31211,72879,5
31186,72809,4
31169,72800,5
31160,72766,5
31152,72739,6
31150,72705,3
31150,72713,4
31135,72691,5
31133,72672,5
31132,72674,5
31128,72653,4
31125,72654,5
31126,72635,5
31119,72628,5
31109,72587,5
31088,72560,4
31084,72531,5
31085,72532,5
31074,72516,5
31081,72506,5
31067,72498,4
31068,72514,5
31083,72522,5
31092,72538,5
31086,72533,5
31086,72548,5
31087,72548,4
31091,72550,5
31092,72559,5
31110,72572,6
31116,72591,3
31121,72607,5
31130,72623,5
31144,72650,5
31157,72683,4
31161,72698,4
31166,72718,5
31174,72743,5
31191,72763,5
31209,72804,4
31226,72843,5
31237,72877,5
31250,72919,5
31267,72928,5
31272,72938,4
31268,72932,5
31272,72937,5
31276,72931,5
31272,72923,5
31262,72927,4
31261,72918,6
31265,72922,4
31261,72921,5
31256,72916,5
31259,72908,4
31259,72901,5
31261,72898,5
31252,72909,5
31250,72901,4
31258,72905,4
31251,72918,5
31259,72935,5
31267,72959,5
31269,72975,4
31284,72990,5
31288,72999,5
31298,73032,5
31306,73064,5
31328,73093,4
31330,73110,5
31345,73131,5
31351,73153,5
31350,73175,5
31369,73200,4
31369,73202,5
31389,73232,6
31397,73263,4
31398,73290,5
31418,73318,4
31408,73315,5
31413,73311,5
31416,73305,5
31418,73327,5
31422,73347,4
31433,73372,5
31439,73392,5
31455,73408,5
31452,73421,4
31467,73440,4
31473,73480,5
31496,73522,5
31512,73576,5
31539,73624,4
31554,73664,5
31564,73711,5
31584,73757,5
31609,73819,5
31633,73882,4
31657,73944,5
31689,73992,5
31703,74059,6
31726,74111,4
31744,74160,4
31774,74207,5
31797,74249,5
31802,74301,5
31815,74339,5
31834,74367,4
31843,74389,5
31848,74401,5
31839,74411,5
31855,74398,5
31853,74383,4
31850,74371,5
31834,74355,5
31839,74345,5
31836,74332,4
31829,74325,4
31854,74328,5
31829,74316,5
31825,74329,5
31831,74338,5
31859,74341,4
31845,74341,5
31837,74342,5
31834,74341,6
31843,74343,3
31841,74340,5
31839,74351,5
31833,74327,5
31825,74309,5
31838,74309,4
31820,74297,5
31827,74309,5
31824,74292,5
31825,74306,5
31816,74292,4
31813,74291,5
31812,74254,5
31804,74265,5
31816,74258,5
31800,74250,4
31805,74239,5
31786,74208,5
31774,74179,5
31767,74139,4
31749,74110,6
31732,74061,4
31717,74036,5
31705,74010,5
31693,73989,4
31674,73915,5
31651,73873,5
31641,73834,5
31623,73817,5
31610,73788,4
31600,73746,5
31582,73718,5
31574,73716,5
31575,73699,5
31558,73691,4
31570,73670,5
31547,73660,5
31547,73659,5
31549,73669,5
31560,73674,4
31563,73677,5
31564,73688,5
31566,73690,5
31581,73721,4
31584,73738,4
31585,73753,6
31591,73763,4
31602,73774,5
31607,73792,4
31610,73808,5
31615,73809,5
31614,73814,5
31619,73830,5
31622,73831,4
31624,73822,5
31616,73829,5
31623,73826,5
31621,73822,5
31627,73820,4
31617,73823,5
31615,73828,5
31617,73823,5
31610,73819,5
31611,73810,4
31614,73785,5
31605,73782,5
31603,73775,5
31589,73740,5
31576,73724,4
31568,73683,5
31551,73648,6
31538,73612,4
31527,73567,4
31516,73530,4
31489,73498,5
31485,73450,5
31467,73417,5
31454,73380,4
31446,73357,5
31428,73331,5
31420,73283,5
31403,73232,5
31382,73164,4
31342,73091,5
31314,73030,5
31304,72978,5
31282,72932,5
31263,72886,4
31234,72818,5
31216,72784,5
31216,72768,5
31220,72758,5
31216,72769,4
31214,72774,5
31215,72767,5
31213,72778,5
31222,72788,5
31224,72801,4
31230,72796,5
31219,72792,5
31225,72791,5
31218,72766,4
31220,72772,4
31215,72764,5
31213,72758,5
31226,72783,5
31224,72807,4
31237,72824,5
31255,72861,5
31268,72900,5
31280,72937,5
31302,72979,4
31304,73024,5
31309,73045,5
31341,73088,5
31349,73124,5
31371,73152,5
31365,73192,4
31392,73221,5
31411,73251,5
31427,73295,5
31421,73337,4
31450,73359,5
31456,73387,5
31467,73409,5
31480,73435,4
31485,73454,4
31493,73472,5
31504,73508,5
31532,73543,5
31529,73577,4
31540,73589,5
31546,73631,5
31566,73643,5
31569,73664,5
31567,73684,4
31573,73685,5
31577,73686,5
31581,73692,5
31592,73721,5
31598,73741,4
31605,73774,6
31614,73806,4
31627,73819,5
31630,73819,5
31625,73805,4
31620,73821,5
31630,73844,5
31642,73859,5
31658,73879,5
31653,73913,4
31667,73925,5
31663,73934,5
31663,73946,5
31671,73967,4
31689,73998,4
31703,74047,5
31732,74120,5
31753,74146,5
31777,74214,4
31795,74281,5
31826,74377,5
31846,74424,6
31872,74480,4
31899,74537,4
31905,74583,5
31922,74616,5
31936,74641,5
31947,74679,5
31972,74730,4
31979,74762,5
32008,74794,5
32007,74807,5
32011,74837,5
32022,74857,4
32041,74891,5
32045,74903,5
32055,74920,5
32052,74938,5
32056,74952,4
32063,74957,5
32083,74987,5
32083,75000,5
32100,75028,5
32107,75048,4
32110,75065,5
32120,75077,5
32126,75089,6
32137,75110,3
32140,75103,5
32130,75117,5
32140,75141,5
32161,75144,5
32166,75170,4
32167,75167,5
32159,75174,5
32160,75167,5
32157,75167,5
32160,75145,4
32147,75131,5
32132,75106,5
32114,75063,5
32108,75011,5
32073,74948,4
32052,74911,5
32036,74849,5
32018,74795,5
31991,74733,4
31967,74694,5
31963,74653,4
31947,74623,5
31947,74611,5
31943,74592,6
31920,74547,3
31905,74504,5
31892,74474,5
31892,74451,5
31871,74416,4
31864,74377,5
31844,74324,5
31818,74256,5
31785,74186,5
31751,74118,4
31723,74053,5
31706,73976,5
31679,73926,5
31654,73851,5
31630,73768,4
31589,73673,5
31545,73578,5
31528,73496,5
31481,73400,5
31441,73313,4
31406,73209,11
31382,73121,4
31343,73014,4
31304,72919,4
31262,72793,5
31222,72684,5
31168,72553,5
31128,72423,4
31086,72318,5
31042,72253,5
31017,72163,5
30983,72067,5
30939,71957,4
30880,71837,5
30832,71719,5
30782,71592,5
30737,71484,5
30565,71267,4
30518,71148,5
30479,71051,5
30431,70947,5
30379,70833,5
30364,70746,4
30341,70666,5
30304,70596,6
30274,70535,4
30254,70427,5
30205,70311,4
30170,70238,5
30161,70137,5
30121,70038,5
30070,69938,4
30041,69861,4
30046,69800,5
29997,69735,5
29981,69675,5
29955,69607,4
29942,69514,5
29891,69433,5
29865,69378,5
29856,69336,5
29853,69283,4
29827,69196,5
29795,69121,5
29773,69053,5
29762,68999,5
29749,68960,4
29753,68928,5
29730,68889,5
29728,68840,6
29711,68812,4
29686,68756,4
29665,68694,5
29641,68608,5
29630,68587,5
29603,68531,4
29582,68472,4
29572,68426,5
29552,68379,5
29539,68330,5
29501,68253,4
29477,68193,4
29456,68116,5
29428,68071,5
29424,68035,5
29396,68017,4
29377,67943,5
29365,67902,5
29360,67874,5
29353,67843,5
29339,67797,5
29321,67754,4
29307,67725,5
29293,67702,5
29282,67680,6
29288,67678,3
29298,67706,5
29313,67735,5
29329,67754,5
29336,67805,5
29361,67857,4
29373,67918,5
29408,67987,5
29424,68055,5
29440,68092,4
29467,68148,4
29496,68217,5
29514,68288,5
29546,68363,5
29582,68460,4
29627,68589,5
29677,68705,5
29729,68854,5
29784,68997,5
29830,69136,4
29884,69269,6
29935,69383,4
29972,69506,5
30015,69620,5
30061,69731,4
30107,69849,5
30137,69941,5
30177,70027,5
30208,70102,5
30233,70177,4
30270,70263,5
30297,70352,5
30334,70437,5
30365,70525,5
30402,70612,4
30440,70710,5
30473,70796,5
30515,70888,5
30535,70972,4
30572,71037,4
30591,71113,5
30614,71181,5
30656,71256,5
30679,71320,4
30711,71400,5
30739,71474,6
30780,71571,4
30816,71667,5
30851,71768,4
30896,71870,5
30943,71990,5
30984,72090,5
31024,72180,5
31068,72291,4
31109,72389,5
31146,72496,5
31183,72577,5
31211,72643,5
31231,72711,4
31255,72749,5
31278,72794,5
31293,72862,5
31315,72908,5
31337,72976,4
31366,73045,5
31403,73128,5
31425,73207,5
31465,73283,4
31507,73361,5
31528,73436,5
31557,73513,6
31588,73603,4
31636,73709,4
31681,73821,5
31722,73932,5
31762,74049,5
31826,74170,5
31872,74300,4
31919,74401,5
31928,74483,5
31969,74551,5
32012,74619,5
32034,74693,4
32040,74750,5
32074,74809,5
32087,74861,5
32127,74926,5
32128,74962,4
32140,74955,5
32149,74981,5
32165,75015,5
32186,75048,5
32195,75089,4
32205,75119,5
32226,75165,5
32251,75167,5
32244,75206,4
32256,75246,5
32280,75292,5
32309,75327,5
32302,75346,5
32313,75363,4
32321,75381,5
32325,75382,5
32330,75392,5
32319,75383,5
32322,75388,4
32316,75359,5
32318,75368,5
32320,75364,5
32308,75350,5
32297,75296,4
32289,75305,6
32289,75284,4
32280,75256,5
32266,75214,5
32269,75227,6
32263,75234,3
32267,75224,5
32259,75218,5
32254,75215,4
32264,75200,4
32252,75180,5
32243,75189,5
32236,75154,5
32235,75123,4
32221,75116,5
32218,75100,5
32206,75056,5
32184,75023,5
32180,74999,4
32166,74968,5
32156,74923,5
32129,74860,5
32111,74815,5
32098,74784,4
32086,74765,5
32088,74764,5
32088,74762,5
32092,74769,5
32081,74767,4
32080,74772,6
32095,74773,4
32086,74776,5
32090,74766,5
32096,74793,4
32101,74791,5
32090,74743,5
32078,74717,5
32064,74695,4
32063,74680,4
32055,74674,5
32066,74675,5
32055,74672,5
32055,74664,4
32057,74655,5
32046,74649,5
32036,74634,5
32026,74606,5
32012,74585,4
32003,74572,5
31996,74531,5
31977,74496,5
31957,74464,5
31946,74444,4
31946,74428,5
31934,74394,5
31907,74366,5
31893,74330,5
31873,74298,4
31872,74271,5
31859,74249,5
31834,74199,5
31813,74153,4
31808,74121,4
31789,74094,5
31785,74098,5
31799,74107,5
31793,74125,4
31791,74110,5
31795,74112,5
31786,74121,5
31797,74138,5
31809,74170,4
31815,74190,4
31827,74213,5
31823,74219,5
31817,74200,6
31806,74199,3
31805,74197,5
31802,74187,5
31789,74176,5
31778,74166,5
31777,74144,4
31768,74129,5
31755,74128,5
31757,74117,5
31751,74100,5
31747,74089,4
31736,74065,5
31720,74045,5
31715,74028,5
31714,74031,4
31717,74057,4
31730,74078,5
31736,74092,5
31723,74081,5
31719,74064,4
31714,74049,6
31697,74040,4
31705,74038,5
31721,74071,5
31713,74110,6
31735,74158,3
31753,74193,5
31750,74228,5
31750,74273,5
31778,74298,4
31793,74330,5
31804,74363,5
31790,74377,5
31815,74395,5
31825,74425,4
31831,74447,5
31846,74467,5
31857,74489,5
31853,74500,4
31859,74499,4
31884,74516,5
31874,74540,5
31887,74557,5
31899,74578,4
31925,74576,5
31888,74582,6
31887,74579,4
31890,74553,5
31890,74537,4
31883,74519,7
31868,74505,3
31858,74491,5
31868,74490,5
31857,74494,4
31855,74494,5
31862,74503,5
31860,74489,5
31860,74505,5
31851,74494,4
31837,74479,5
31837,74441,5
31829,74438,5
31814,74415,5
31801,74389,4
31786,74338,5
31775,74318,5
31758,74293,5
31745,74275,4
31741,74266,4
31730,74228,5
31715,74212,6
31702,74197,4
31689,74179,4
31685,74132,5
31666,74101,5
31668,74105,5
31656,74089,5
31634,74016,4
31615,73970,5
31594,73943,5
31590,73938,5
31589,73933,5
31590,73941,4
31594,73925,5
31585,73926,5
31588,73925,5
31595,73927,5
31589,73928,4
31585,73932,5
31588,73935,5
31596,73933,5
31592,73917,5
31586,73909,4
31569,73890,5
31570,73867,5
31565,73862,6
31573,73863,3
31572,73882,4
31581,73903,5
31587,73930,5
31602,73965,5
31606,73979,4
31622,74000,5
31628,74027,5
31634,74057,5
31652,74093,5
31672,74140,4
31695,74194,5
31709,74259,5
31735,74326,5
31769,74382,5
31798,74455,4
31819,74515,5
31849,74584,5
31872,74637,5
31894,74707,5
31928,74776,5
31950,74846,4
31969,74906,5
31989,74953,5
32016,75005,6
32040,75061,3
32056,75106,5
32070,75136,5
32079,75169,5
32093,75212,4
32112,75275,5
32142,75335,5
32177,75426,5
32208,75505,5
32248,75588,4
32276,75668,5
32300,75719,5
32328,75779,5
32336,75820,5
32376,75928,4
32420,76028,5
32444,76081,5
32475,76165,5
32521,76278,5
32571,76438,4
32652,76641,6
32737,76885,4
32836,77126,5
32944,77420,5
33057,77721,4
33168,78001,5
33274,78285,5
33382,78524,5
33470,78768,4
33549,78972,4
33616,79135,5
33676,79295,5
33741,79467,5
33806,79645,8
33894,79852,1
33975,80079,5
34070,80303,5
34158,80541,5
34258,80782,4
34373,81047,5
34454,81263,5
34536,81462,5
34613,81633,5
34670,81787,4
34718,81935,5
34790,82054,6
34823,82149,4
34855,82212,5
34853,82272,4
34884,82302,5
34880,82324,5
34879,82351,5
34907,82387,5
34899,82421,4
34898,82440,5
34893,82459,5
34925,82479,5
34906,82484,4
34901,82479,4
34898,82480,5
34917,82483,5
34894,82499,5
34911,82494,4
34909,82493,5
34916,82469,5
34893,82440,5
34880,82426,5
34879,82390,4
34864,82364,5
34860,82361,5
34857,82356,6
34856,82335,4
34842,82282,4
34817,82242,5
34794,82188,5
34784,82193,5
34799,82169,5
34773,82124,5
34742,82056,4
34726,82017,5
34709,81996,5
34710,81987,4
34705,81982,4
34699,81962,5
34682,81946,5
34658,81876,5
34641,81840,4
34625,81794,4
34606,81796,5
34601,81725,5
34586,81697,5
34563,81663,5
34549,81627,4
34540,81587,5
34518,81548,5
34502,81508,5
34485,81462,4
34468,81407,5
34436,81337,5
34410,81295,5
34414,81271,5
34386,81230,4
34370,81188,5
34351,81141,5
34335,81110,5
34322,81097,5
34316,81089,4
34322,81070,5
34312,81075,5
34317,81068,5
34304,81069,4
34308,81064,4
34319,81069,5
34307,81063,5
34317,81068,5
34320,81052,4
34316,81064,6
34328,81081,4
34332,81087,5
34331,81099,5
34344,81115,4
34349,81141,5
34362,81162,5
34362,81153,5
34349,81099,5
34326,81033,4
34294,80966,5
34265,80916,5
34261,80867,5
34256,80854,5
34249,80862,4
34250,80883,5
34269,80897,5
34283,80922,5
34295,80971,5
34350,81113,4
34407,81226,5
34429,81258,5
34431,81265,5
34424,81235,4
34404,81179,4
34383,81134,6
34363,81083,4
34363,81072,5
34378,81113,4
34403,81171,5
34441,81257,5
34495,81371,5
34541,81469,5
34586,81552,4
34605,81619,5
34636,81679,5
34662,81748,5
34683,81814,5
34727,81874,4
34750,81924,5
34766,81939,5
34767,81955,5
34771,81962,5
34768,81947,4
34758,81900,5
34731,81850,5
34704,81805,5
34695,81764,5
34686,81757,4
34681,81718,5
34669,81668,5
34637,81603,5
34616,81539,4
34574,81456,5
34557,81387,5
34536,81331,5
34526,81278,5
34511,81253,4
34489,81209,5
34486,81157,5
34465,81123,5
34432,81090,5
34445,81067,4
34436,81009,5
34407,80927,5
34333,80810,5
34316,80704,5
34286,80619,4
34247,80548,5
34216,80468,5
34210,80438,5
34206,80439,5
34207,80438,4
34226,80433,5
34204,80418,5
34213,80442,5
34232,80519,4
34291,80577,4
34280,80655,5
34315,80719,5
34325,80716,5
34314,80648,4
34239,80480,5
34175,80348,5
34117,80239,5
34084,80154,5
34036,80038,4
33962,79828,5
33843,79527,5
33714,79218,5
33586,78915,5
33456,78597,4
33317,78243,5
33197,77910,4
33086,77661,5
32995,77430,5
32921,77241,5
32837,76968,3
32742,76698,5
32617,76379,5
32496,76127,5
32378,75847,4
32298,75608,5
32214,75418,5
32158,75282,5
32131,75229,4
32093,75106,4
32060,74994,5
32010,74912,5
32006,74923,5
32000,74880,4
31987,74848,5
31980,74822,5
31983,74859,5
32015,74935,5
32052,75044,4
32115,75190,5
32199,75409,6
32299,75671,4
32422,75989,5
32570,76318,4
32700,76642,7
32829,76976,3
32963,77337,5
33115,77742,5
33287,78142,4
33429,78485,5
33531,78714,5
33613,78869,5
33647,78965,5
33684,79035,4
33729,79147,5
33779,79248,5
33839,79413,5
33922,79621,4
34023,79876,4
34144,80156,5
34245,80406,5
34369,80736,5
34511,81063,4
34631,81353,5
34771,81671,5
34897,81931,6
34993,82183,4
35092,82413,4
35186,82635,5
35267,82864,5
35377,83109,5
35489,83393,5
35619,83715,4
35777,84072,5
35946,84476,5
36131,84901,5
36281,85262,5
36427,85582,4
36553,85852,5
36658,86114,5
36742,86302,5
36833,86510,5
36897,86664,4
36962,86803,5
37022,86886,5
37048,86953,5
37066,86987,5
37069,87014,4
37088,87026,5
37093,87030,5
37092,87012,6
37087,87019,3
37085,87003,5
37074,86995,5
37064,86969,5
37038,86915,5
37017,86877,4
36980,86807,5
36955,86716,5
36894,86630,5
36847,86508,5
36806,86418,4
36764,86316,5
36723,86241,5
36697,86178,5
36663,86081,5
36593,85921,4
36522,85744,5
36440,85567,5
36352,85367,5
36263,85137,5
36152,84882,5
36042,84649,4
35941,84411,5
35836,84163,5
35744,83969,6
35658,83781,3
35577,83588,5
35511,83403,5
35436,83180,5
35366,83014,4
35333,83000,5
35354,82980,5
35339,82895,5
35290,82785,5
35219,82665,4
35206,82590,5
35183,82536,5
35177,82515,5
35157,82507,5
35170,82488,4
35166,82464,5
35156,82428,5
35168,82411,5
35134,82380,5
35131,82353,4
35133,82360,6
35163,82366,4
35124,82345,5
35113,82315,4
35103,82269,4
35093,82218,5
35052,82153,5
35015,82061,5
34985,81963,4
34949,81880,5
34913,81791,5
34872,81691,5
34835,81595,5
34807,81510,4
34799,81464,5
34774,81431,5
34757,81367,5
34729,81267,5
34701,81222,5
34673,81151,4
34644,81101,5
34619,81023,5
34607,81016,5
34596,80973,4
34577,80914,5
34553,80854,6
34541,80831,4
34532,80842,5
34528,80831,4
34540,80847,5
34537,80842,5
34533,80848,5
34534,80841,4
34522,80807,4
34473,80706,5
34458,80662,5
34421,80592,5
34407,80571,4
34380,80515,5
34365,80485,5
34347,80455,5
34326,80405,5
34278,80325,4
34273,80298,5
34265,80302,5
34259,80289,5
34246,80259,5
34247,80280,4
34266,80318,5
34275,80347,5
34292,80387,6
34296,80413,4
34308,80415,4
34302,80429,5
34310,80429,5
34302,80418,5
34275,80370,5
34272,80336,4
34251,80273,5
34234,80220,5
34200,80156,5
34166,80088,4
34155,80041,4
34152,80022,5
34124,79992,5
34109,79946,5
34095,79893,4
34071,79850,5
34042,79796,5
34031,79780,5
34040,79785,5
34039,79775,5
34026,79760,4
34020,79744,5
34008,79713,5
33991,79665,5
33988,79663,4
33985,79653,5
33979,79648,5
33997,79675,5
33995,79701,5
33996,79717,4
34006,79743,5
34028,79778,5
34035,79825,5
34058,79880,4
34078,79921,4
34093,79939,5
34089,79967,5
34110,80007,5
34127,80047,4
34151,80082,5
34161,80154,5
34173,80228,5
34212,80314,5
34268,80458,4
34327,80637,6
34409,80829,4
34484,81026,5
34557,81202,5
34588,81268,4
34592,81299,5
34617,81390,5
34627,81448,5
34634,81483,5
34660,81521,4
34679,81597,5
34688,81647,5
34718,81721,5
34732,81746,5
34750,81751,4
34731,81746,5
34736,81744,5
34731,81757,5
34750,81794,4
34771,81850,4
34797,81914,5
34818,81993,5
34850,82084,5
34898,82184,4
34947,82309,5
35065,82584,11
35065,82584,4
35053,82615,4
35106,82674,5
35137,82751,5
35169,82819,5
35195,82879,5
35214,82920,4
35233,82985,5
35270,83086,5
35344,83212,5
35358,83325,5
35410,83434,4
35435,83498,5
35476,83539,5
35471,83598,5
35494,83664,4
35513,83704,4
35544,83759,5
35557,83802,5
35558,83828,5
35552,83835,4
35551,83807,5
35531,83760,5
35505,83702,6
35486,83647,4
35454,83541,4
35420,83473,5
35381,83416,5
35365,83367,5
35326,83243,5
35261,83134,4
35205,83011,5
35167,82918,5
35145,82830,5
35074,82635,5
34988,82456,4
34941,82370,5
34910,82291,5
34849,82119,5
34786,81978,5
34722,81797,4
34652,81687,5
34618,81574,5
34597,81518,5
34567,81448,6
34531,81386,3
34506,81340,5
34508,81315,5
34497,81326,5
34501,81289,4
34468,81190,5
34432,81102,5
34394,80990,5
34343,80875,5
34327,80840,4
34307,80793,5
34292,80758,5
34274,80735,5
34284,80732,5
34306,80759,4
34314,80804,5
34330,80804,5
34308,80757,5
34279,80688,5
34277,80646,4
34261,80629,5
34249,80616,5
34244,80609,5
34245,80584,5
34230,80553,5
34210,80491,4
34182,80447,5
34173,80406,5
34164,80374,4
34168,80323,4
34147,80287,5
34137,80241,5
34125,80217,5
34130,80215,4
34135,80218,5
34134,80194,5
34120,80165,5
34100,80092,5
34071,80006,4
34037,79920,5
33994,79833,5
33956,79741,5
33926,79669,5
33904,79584,4
33865,79498,5
33828,79433,5
33813,79372,5
33779,79312,5
33772,79275,4
33747,79183,6
33689,79015,4
33637,78926,5
33617,78891,4
33603,78824,4
33556,78724,5
33542,78671,5
33521,78622,5
33498,78584,4
33480,78530,5
33469,78488,5
33450,78439,5
33425,78386,5
33404,78334,4
33401,78304,5
33384,78299,5
33380,78275,5
33363,78244,5
33352,78210,4
33340,78164,5
33309,78104,5
33299,78066,6
33281,78009,4
33250,77966,4
33227,77908,5
33210,77852,5
33182,77779,5
33155,77725,5
33134,77660,4
33110,77593,5
33079,77536,5
33069,77491,5
33051,77453,4
33037,77425,4
33034,77425,5
33046,77432,5
33040,77440,5
33049,77434,4
33051,77442,5
33058,77454,5
33052,77463,5
33084,77483,5
33085,77496,5
33088,77511,4
33080,77516,5
33105,77523,5
33117,77532,6
33119,77553,3
33133,77590,5
33147,77615,5
33154,77625,5
33156,77625,5
33176,77627,4
33159,77635,5
33160,77628,5
33153,77631,5
33162,77603,5
33142,77574,4
33135,77564,5
33128,77538,5
33134,77524,5
33113,77515,4
33119,77526,4
33127,77538,5
33119,77487,5
33081,77434,5
33075,77426,4
33081,77440,6
33074,77395,4
33055,77388,5
33055,77370,5
33055,77373,4
33047,77341,4
33040,77338,5
33031,77300,5
33009,77252,5
32981,77182,4
32969,77135,5
32947,77092,5
32934,77048,5
32922,77040,5
32909,76987,4
32895,76960,5
32893,76935,5
32881,76929,5
32866,76872,5
32854,76835,4
32836,76801,5
32834,76776,5
32814,76735,5
32807,76700,4
32784,76663,5
32778,76646,6
32778,76629,4
32765,76615,5
32758,76585,4
32752,76555,5
32729,76520,5
32732,76503,5
32732,76487,5
32707,76468,4
32698,76441,5
32694,76420,5
32682,76403,5
32681,76406,5
32686,76401,4
32693,76399,5
32679,76391,5
32676,76393,5
32682,76382,5
32679,76372,4
32670,76360,5
32663,76349,5
32667,76346,5
32666,76350,4
32656,76347,4
32655,76326,5
32658,76315,6
32654,76298,4
32640,76279,4
32630,76249,5
32615,76211,5
32593,76157,5
32584,76105,5
32562,76077,4
32560,76061,5
32554,76073,5
32553,76067,5
32562,76078,5
32566,76103,4
32571,76083,5
32544,76015,5
32523,75978,5
32528,76017,5
32537,76021,4
32537,76036,5
32552,76087,5
32570,76120,5
32595,76150,5
32608,76168,4
32615,76188,5
32618,76206,5
32627,76215,6
32628,76212,3
32636,76206,4
32620,76192,5
32626,76182,5
32607,76159,5
32604,76141,4
32602,76124,5
32603,76120,5
32597,76116,5
32600,76122,5
32609,76146,4
32624,76173,5
32634,76209,5
32652,76238,5
32670,76275,5
32682,76305,4
32685,76323,5
32695,76333,5
32710,76354,5
32704,76350,5
32706,76361,5
32709,76370,4
32706,76372,5
32711,76359,5
32708,76337,5
32698,76310,4
32690,76300,5
32691,76297,5
32697,76328,5
32699,76349,4
32696,76355,4
32716,76345,5
32706,76314,5
32695,76278,5
32651,76226,4
32653,76166,5
32634,76114,5
32623,76072,5
32588,76031,5
32590,76000,4
32589,75997,5
32583,76003,5
32595,75977,5
32578,75962,5
32570,75955,4
32578,75936,6
32591,75917,4
32557,75879,5
32549,75856,5
32540,75827,4
32554,75833,5
32539,75824,5
32541,75844,5
32556,75859,5
32572,75873,4
32583,75904,5
32612,75951,5
32616,75921,5
32588,75865,4
32591,75899,4
32610,75944,5
32609,75928,5
32602,75900,5
32605,75921,4
32614,75933,5
32629,75951,5
32625,75917,5
32618,75943,5
32627,75945,4
32636,75953,5
32636,75955,6
32630,75936,4
32621,75924,5
32620,75912,4
32629,75932,5
32622,75913,5
32642,75940,5
32648,75976,5
32670,76046,4
32694,76054,5
32718,76110,5
32733,76137,5
32761,76205,5
32775,76232,4
32794,76290,5
32816,76326,5
32842,76381,5
32852,76422,4
32870,76450,4
32879,76478,5
32898,76510,5
32906,76526,5
32914,76581,4
32943,76636,5
32962,76678,5
32982,76731,6
32997,76767,4
33025,76835,4
33064,76921,5
33087,77004,5
33130,77083,5
33164,77186,5
33208,77289,4
33260,77399,5
33304,77499,5
33354,77606,5
33403,77702,5
33458,77812,4
33496,77933,5
33545,78040,5
33585,78121,5
33603,78175,4
33631,78245,4
33668,78368,5
33720,78460,5
33763,78567,5
33797,78649,5
33850,78786,4
33906,78932,5
33973,79094,5
34050,79274,5
34120,79437,4
34190,79577,5
34265,79758,5
34359,79941,5
34444,80142,5
34512,80333,4
34599,80541,5
34701,80805,5
34827,81046,5
34887,81163,5
34927,81279,4
35012,81467,5
35124,81697,5
35190,81847,5
35236,81990,5
35327,82171,4
35404,82365,5
35479,82543,5
35558,82726,5
35638,82923,4
35731,83133,5
35825,83379,4
35914,83608,5
36005,83848,5
36104,84113,4
36205,84342,5
36306,84575,5
36392,84768,5
36463,84921,5
36522,85075,4
36577,85177,5
36619,85304,5
36677,85419,5
36743,85583,5
36822,85772,4
36890,85931,5
36940,86081,5
37005,86234,5
37045,86334,5
37052,86335,4
37022,86296,5
36999,86207,5
36974,86162,5
36965,86168,5
36991,86212,4
37016,86281,6
37038,86356,4
37085,86381,5
37096,86339,4
37081,86306,4
37024,86155,5
36984,85984,5
36948,85863,5
36931,85838,4
36933,85844,5
37012,85926,5
37037,85971,5
37066,86046,5
37103,86079,8
37101,86149,1
37180,86312,5
37288,86485,5
37373,86622,5
37415,86910,4
37546,87169,5
37651,87448,5
37846,87827,5
37972,88153,5
38138,88517,4
38242,88770,5
38325,88972,5
38382,89205,5
38475,89514,5
38642,89900,4
38814,90205,5
38861,90370,5
38940,90593,5
39094,91017,4
39289,91511,5
39599,92453,5
40103,93650,5
40666,95014,5
41295,96173,4
41736,97234,5
42140,97993,5
42273,98141,5
42219,98031,5
42172,97996,4
42172,98020,4
42146,97993,5
42237,98378,5
42425,98086,6
42506,98211,3
42487,98150,5
42357,97916,5
42178,97453,5
41923,96937,5
41647,96321,4
41349,95721,5
41007,94997,5
40665,94278,5
40319,93513,4
39982,92744,4
39643,91983,5
39344,91299,5
39094,90749,5
38913,90345,4
38746,90030,5
38645,89842,5
38587,89776,5
38595,89778,5
38589,89774,4
38562,89727,6
38532,89690,4
38521,89644,5
38496,89581,5
38474,89532,6
38466,89512,3
38452,89509,5
38458,89513,5
38465,89510,5
38449,89422,4
38412,89325,5
38372,89221,5
38328,89132,5
38300,89079,5
38291,89071,4
38290,89066,5
38289,89025,5
38235,88881,5
38128,88601,4
37985,88241,4
37823,87885,5
37675,87545,5
37548,87247,5
37455,86994,4
37378,86789,5
37305,86631,6
37255,86527,4
37215,86430,5
37180,86333,4
37122,86181,5
37057,86004,5
36993,85861,5
36959,85804,5
36955,85797,4
36959,85804,5
36982,85839,5
37002,85887,5
37023,85940,5
37036,85976,4
37060,85999,5
37051,86006,5
37059,85990,5
37049,85961,5
37032,85934,4
37016,85898,5
37013,85869,5
37006,85862,5
37002,85876,4
37023,85908,5
37003,85837,5
36931,85647,6
36876,85575,4
36902,85614,4
36883,85562,5
36847,85497,5
36834,85492,5
36846,85537,5
36870,85582,4
36896,85658,5
36931,85721,5
36968,85791,5
36983,85870,5
37028,85940,4
37048,85994,5
37072,86008,5
37062,85997,5
37049,85963,5
37017,85913,4
37013,85848,5
36988,85795,5
36978,85768,5
36934,85760,5
36968,85763,4
36972,85763,5
36969,85736,5
36913,85694,6
36938,85661,3
36917,85636,5
36924,85622,5
36913,85591,5
36897,85536,5
36871,85468,4
36852,85428,5
36877,85390,5
36812,85324,5
36780,85249,5
36753,85154,4
36736,85056,5
36655,84973,5
36635,84884,5
36600,84815,5
36584,84754,4
36551,84666,5
36505,84573,5
36475,84494,5
36449,84417,5
36410,84316,5
36368,84224,4
36326,84134,5
36299,84040,5
36268,83985,6
36235,83896,3
36192,83804,5
36141,83633,5
36086,83530,5
36005,83363,4
35934,83189,5
35854,83009,5
35776,82814,5
35706,82622,5
35619,82443,4
35555,82311,5
35493,82121,5
35432,81981,5
35398,81843,5
35320,82341,4
35270,82158,5
35209,81990,5
35159,81833,5
35069,81651,5
35011,81471,4
34932,81298,6
34852,81137,4
34780,80995,5
34720,80844,5
34666,80707,4
34613,80604,5
34595,80555,5
34576,80489,5
34495,80249,4
34439,80115,5
34429,80082,5
34411,80030,5
34373,79939,5
34331,79835,4
34301,79749,5
34269,79678,5
34223,79555,5
34177,79456,5
34134,79384,4
34107,79332,5
34080,79277,5
34067,79215,5
34061,79199,5
34052,79194,4
34052,79184,5
34057,79184,6
34055,79188,4
34039,79165,5
34043,79140,4
34037,79112,5
34014,79076,5
34000,79028,5
33991,78998,4
33980,78965,4
33972,78933,5
33967,78914,5
33956,78903,5
33955,78879,4
33963,78885,5
33964,78880,5
33954,78856,5
33936,78819,5
33929,78794,4
33920,78770,5
33908,78727,5
33875,78677,5
33854,78631,5
33849,78597,4
33840,78588,5
33837,78543,5
33820,78504,6
33810,78470,4
33806,78450,4
33795,78428,5
33791,78400,5
33782,78373,5
33771,78355,5
33756,78315,4
33740,78262,5
33724,78220,5
33703,78157,5
33682,78122,4
33669,78109,4
33671,78112,5
33684,78143,5
33708,78174,5
33707,78182,4
33709,78181,5
33702,78168,5
33700,78170,5
33704,78162,5
33687,78132,5
33682,78125,4
33678,78131,5
33685,78158,5
33693,78156,5
33693,78151,4
33685,78125,5
33673,78098,5
33669,78073,5
33650,78042,5
33638,78022,4
33640,78019,5
33633,78014,5
33662,78040,5
33652,78003,4
33602,77927,4
33584,77925,5
33612,77923,5
33596,77886,5
33561,77820,4
33533,77750,5
33517,77673,5
33484,77580,5
33458,77498,5
33453,77451,4
33417,77379,6
33402,77293,4
33374,77231,5
33364,77156,5
33309,77079,4
33295,77038,5
33282,77001,5
33277,76952,5
33235,76894,5
33216,76846,4
33193,76804,5
33195,76764,5
33178,76753,5
33169,76730,5
33182,76736,4
33183,76750,5
33191,76766,5
33201,76800,5
33208,76837,4
33227,76852,4
33224,76870,5
33210,76849,5
33209,76832,5
33198,76776,4
33187,76769,5
33173,76728,6
33141,76650,4
33103,76568,5
33065,76464,4
33027,76384,5
33002,76326,5
32996,76335,5
33000,76322,5
32989,76315,4
32981,76299,5
32958,76251,5
32915,76075,5
32825,75882,5
32743,75665,4
32671,75478,5
32605,75294,5
32529,75148,5
32510,75096,4
32503,75079,4
32496,75057,5
32466,74988,5
32423,74884,5
32373,74767,4
32333,74643,5
32280,74515,5
32259,74418,5
32218,74333,5
32179,74236,4
32133,74106,5
32085,73966,5
32033,73852,5
31997,73765,5
31980,73726,4
31989,73759,5
32028,73859,5
32056,73932,5
32074,73960,5
32067,73944,4
32041,73896,5
32023,73831,5
31965,73704,5
31914,73564,5
31888,73497,4
31839,73387,5
31809,73281,5
31776,73206,5
31759,73204,5
31770,73229,4
31801,73315,5
31853,73442,5
31896,73516,5
31905,73527,4
31884,73481,5
31866,73411,5
31829,73326,5
31808,73290,5
31806,73302,4
31830,73326,5
31824,73290,5
31780,73193,5
31744,73091,5
31703,73016,4
31686,72961,5
31695,73000,5
31736,73095,5
31783,73256,5
31880,73484,4
31988,73745,5
32102,74002,5
32206,74276,5
32319,74557,5
32427,74840,5
32549,75140,3
32676,75500,5
32831,75841,5
32971,76160,4
33090,76453,8
33198,76692,5
33238,76842,7
33297,76967,8
33362,77076,5
33412,77192,7
33456,77319,8
33422,77248,9
33422,77248,5
33399,77120,8
33362,77105,7
33339,77031,5
33342,76974,8
33294,76939,7
33279,76918,10
33279,76918,5
33257,76858,7
33201,76771,5
33146,76605,8
33069,76429,7
32808,75822,8
32808,75822,7
32721,75699,9
32694,75533,10
32396,74867,9
32396,74867,10
32376,74818,9
32273,74546,8
32273,74546,7
32284,74557,5
32265,74550,13
32258,74559,7
32264,74502,10
32264,74502,7
32243,74487,5
32221,74461,10
32223,74474,5
32217,74398,5
32247,74501,10
32247,74501,5
32271,74564,5
32304,74620,10
32327,74721,5
32351,74765,5
32451,75016,10
32451,75016,5
32467,75057,5
32488,75120,10
32511,75163,5
32522,75212,5
32517,75270,10
32544,75321,5
32589,75395,5
32770,75834,10
32770,75834,5
32816,75915,7
32838,75981,8
32859,76031,5
32879,76089,7
32897,76150,8
33090,76625,5
33090,76625,7
33132,76727,8
33166,76829,5
33204,76896,7
33249,77011,8
33285,77106,5
33337,77197,7
33530,77729,8
33530,77729,5
33568,77744,7
33591,77807,8
33617,77913,9
33761,78244,8
33761,78244,5
33831,78305,7
33824,78360,8
33819,78407,5
33858,78473,7
33871,78507,8
33881,78578,5
33930,78661,7
33930,78661,8
33943,78672,5
33943,78675,7
33959,78714,8
33976,78740,7
34019,78789,5
34088,79017,8
34088,79017,5
34105,79052,1
34105,79052,1
34125,79094,5
34133,79110,4
34145,79129,5
34159,79152,5
34171,79180,6
34188,79230,4
34203,79277,4
34228,79326,5
34248,79352,5
34254,79387,5
34277,79417,5
34280,79445,4
34289,79448,5
34308,79484,5
34327,79515,5
34339,79554,5
34341,79568,4
34358,79600,5
34376,79617,5
34368,79650,5
34393,79680,5
34396,79700,4
34420,79739,5
34416,79780,5
34461,79820,5
34474,79853,5
34474,79858,4
34442,79851,5
34466,79824,5
34463,79803,6
34454,79814,3
34456,79820,5
34461,79822,5
34460,79838,5
34469,79843,5
34495,79851,4
34470,79849,5
34477,79859,5
34480,79878,5
34507,79870,5
34471,79858,4
34482,79851,5
34470,79842,5
34474,79836,5
34461,79834,5
34453,79828,4
34461,79843,5
34458,79867,5
34481,79910,5
34487,79917,4
34503,79921,5
34492,79904,4
34499,79930,5
34502,79943,5
34504,79937,5
34495,79917,4
34497,79929,5
34495,79901,5
34484,79879,5
34459,79826,4
34456,79804,5
34446,79799,5
34455,79830,5
34470,79905,5
34472,79848,4
34429,79748,5
34436,79755,5
34449,79834,5
34455,79814,5
34446,79784,4
34446,79788,5
34455,79809,5
34460,79817,5
34461,79834,5
34470,79830,4
34467,79826,6
34460,79825,4
34475,79840,5
34483,79866,4
34495,79890,4
34502,79909,5
34510,79932,5
34518,79954,5
34529,79964,4
34528,79981,5
34543,80000,5
34547,79988,5
34544,80000,5
34548,80006,4
34547,79999,5
34543,79999,5
34543,79984,5
34541,79979,5
34533,79985,4
34541,79994,5
34551,80006,5
34561,80011,5
34566,80037,5
34576,80065,4
34584,80072,5
34571,80062,6
34583,80063,4
34581,80074,4
34585,80075,4
34588,80085,5
34601,80103,5
34603,80107,5
34608,80123,4
34607,80126,5
34602,80111,5
34604,80110,5
34620,80118,5
34628,80132,4
34628,80144,5
34630,80144,5
34638,80158,5
34649,80164,5
34656,80180,4
34655,80205,5
34667,80217,5
34676,80231,5
34680,80244,5
34688,80265,4
34696,80289,5
34713,80308,5
34724,80336,5
34731,80355,5
34738,80363,4
34743,80378,5
34757,80378,5
34758,80394,5
34757,80399,4
34767,80418,4
34775,80429,5
34781,80427,5
34785,80429,5
34778,80416,4
34781,80419,5
34787,80425,5
34780,80445,5
34793,80455,5
34799,80482,4
34822,80539,5
34861,80610,5
34884,80646,5
34867,80592,5
34851,80600,5
34881,80670,4
34907,80706,5
34909,80714,5
34910,80714,5
34913,80725,4
34923,80745,5
34925,80769,5
34943,80801,5
34959,80821,5
34964,80870,4
35000,80911,5
35003,80926,5
35022,80955,5
35001,80972,4
35029,80985,4
35039,81012,5
35052,81031,5
35056,81058,5
35089,81107,4
35109,81161,5
35136,81209,6
35173,81263,4
35179,81312,5
35202,81364,4
35227,81409,12
