RED,IR,EKG,TIME
118155,216465,10
118171,216464,5
118165,216477,5
118185,216482,10
118181,216483,5
118176,216473,7
117831,216464,8
118176,216491,5
118186,216474,6
118197,216463,8
117754,216471,5
118189,216450,7
118223,216503,8
118223,216503,5
118223,216502,7
118592,216518,8
118236,216508,5
118217,216502,7
118213,216473,8
118647,216494,5
118199,216485,7
118199,216485,8
118221,216483,5
118196,216475,7
118208,216399,8
118185,216469,5
118184,216487,7
118130,216427,8
118130,216427,5
118122,216001,7
118089,216420,8
118100,216417,7
118111,216431,10
118135,216766,5
118135,216766,7
118129,216463,5
118145,216472,8
118118,216415,7
118120,216915,5
118130,216442,8
118094,216430,7
118091,216439,5
118073,216462,8
118073,216462,7
118067,216361,8
118058,216397,9
118045,216388,5
118019,216393,8
118019,216393,7
118015,216387,5
118006,216386,8
118008,216376,7
118005,216373,7
118001,216380,10
118001,216380,5
118002,216424,5
118000,216402,8
117995,216340,7
118015,216391,12
118015,216391,7
118034,216416,10
118015,216425,9
118018,216430,5
118037,216444,8
118037,216444,7
117998,216451,9
118035,216450,10
118049,216449,9
118049,216449,10
118056,216457,5
118061,216445,5
118057,216447,10
118044,216441,5
118069,216420,7
118069,216420,8
118068,216436,5
118084,216426,7
118086,216451,8
118117,216464,5
118125,216428,3
118146,216477,2
118173,216494,1
118186,216496,5
118184,216528,5
118190,216513,5
118191,216513,4
118176,216501,4
118181,216502,5
118192,216506,5
118192,216500,5
118182,216498,4
118178,216498,5
118167,216481,5
118174,216489,5
118189,216488,5
118196,216511,4
118223,216521,5
118224,216529,9
118242,216534,1
118243,216533,5
118245,216555,4
118235,216533,6
118191,216541,4
118240,216533,5
118245,216548,5
118260,216550,6
117958,216538,3
118272,216553,5
118273,216554,5
118268,216559,5
117869,216552,4
118282,216558,5
118281,216561,5
118280,216550,5
118131,216531,4
118281,216537,5
118285,216546,5
118295,216554,5
118574,216549,5
118295,216560,4
118303,216567,5
118301,216569,5
118746,216571,5
118306,216575,5
118306,216579,4
118298,216556,5
118532,216571,6
118304,216570,4
118307,216579,5
118305,216572,4
118368,216569,5
118313,216576,5
118315,216570,5
118324,216572,5
118327,216334,4
118324,216580,5
118333,216586,5
118324,216579,5
118334,216187,4
118326,216578,4
118327,216589,5
118327,216598,5
118329,216342,5
118339,216607,4
118333,216617,6
118340,216611,4
118346,216840,5
118349,216632,5
118348,216634,4
118358,216632,5
118362,217083,5
118357,216643,6
118360,216635,4
118362,216647,4
118354,216916,5
118352,216634,5
118355,216622,5
118354,216612,5
118333,216692,4
118349,216612,5
118343,216604,5
118350,216602,5
118351,216599,4
118353,216604,4
118353,216614,5
118359,216609,5
118363,216610,5
118367,216619,4
118373,216615,5
118369,216624,5
118369,216622,5
118371,216613,5
118381,216640,5
118387,216641,4
118401,216648,5
118419,216672,5
118427,216665,6
118433,216670,3
118426,216681,5
118422,216670,5
118423,216676,5
118427,216683,5
118427,216683,4
118417,216662,5
118402,216660,5
118412,216663,5
118412,216653,5
118416,216658,4
118429,216673,5
118435,216685,5
118435,216677,5
118445,216675,4
118450,216687,5
118446,216677,5
118449,216692,5
118455,216684,5
118458,216696,4
118473,216693,6
118474,216707,4
118500,216727,5
118511,216729,5
118515,216735,4
118515,216725,5
118525,216736,5
118525,216736,5
118521,216725,5
118521,216737,4
118514,216737,5
118519,216725,5
118516,216733,5
118516,216725,5
118519,216732,4
118514,216738,5
118524,216721,5
118510,216744,5
118522,216741,4
118516,216743,4
118511,216728,5
118520,216741,5
118517,216726,5
118515,216729,4
118505,216722,5
118497,216724,6
118497,216718,4
118498,216719,5
118511,216718,4
118502,216723,5
118506,216725,5
118501,216716,5
118504,216728,5
118502,216721,4
118502,216721,5
118491,216713,5
118497,216722,5
118495,216729,5
118476,216718,4
118488,216717,5
118501,216732,5
118498,216720,5
118228,216739,4
118505,216731,4
118508,216737,5
118517,216738,5
118121,216732,5
118502,216744,4
118515,216734,5
118525,216740,5
118316,216751,6
118522,216735,4
118519,216737,4
118518,216749,5
118772,216742,5
118513,216743,5
118519,216743,5
118517,216730,4
118957,216732,5
118528,216726,5
118517,216724,5
118526,216729,5
118790,216734,4
118536,216741,5
118538,216738,5
118529,216734,5
118587,216756,4
118539,216750,4
118546,216764,5
118569,216776,5
118582,216561,5
118579,216775,5
118575,216789,4
118569,216781,5
118574,216405,5
118583,216791,5
118582,216787,5
118566,216768,4
118538,216402,5
118541,216759,5
118543,216763,5
118535,216754,4
118538,216921,5
118556,216782,5
118557,216778,5
118567,216773,5
118573,217210,4
118562,216774,5
118557,216763,5
118565,216763,5
118563,217114,5
118567,216777,4
118578,216786,5
118579,216806,5
118577,216893,5
118582,216796,4
118574,216796,7
118571,216797,3
118562,216792,5
118548,216781,5
118538,216770,4
118512,216761,5
118490,216759,5
118476,216752,5
118470,216744,5
118452,216739,4
118435,216738,5
118445,216736,5
118434,216750,5
118432,216757,5
118437,216746,4
118436,216760,5
118441,216757,5
118443,216788,5
118431,216770,5
118418,216763,4
118421,216759,5
118405,216771,5
118391,216762,5
118398,216754,4
118385,216760,4
118386,216751,6
118377,216746,4
118383,216749,5
118387,216757,4
118392,216756,5
118392,216764,5
118383,216756,5
118386,216751,5
118381,216748,4
118382,216768,5
118387,216764,5
118376,216758,5
118379,216766,5
118376,216758,4
118373,216759,5
118374,216765,5
118377,216754,5
118378,216762,5
118371,216765,4
118369,216761,5
118369,216771,5
118369,216769,5
118380,216765,4
118373,216773,4
118380,216747,5
118370,216749,5
118371,216742,5
118368,216752,4
118365,216744,5
118373,216748,5
118375,216760,5
118365,216761,5
118370,216761,4
118377,216773,5
118376,216781,5
118380,216783,5
118379,216778,5
118385,216800,4
118382,216809,5
118379,216806,5
118392,216806,5
118393,216808,5
118382,216819,4
118375,216810,5
118369,216804,5
118360,216819,5
118381,216817,5
118364,216802,4
118346,216795,5
118319,216781,5
118320,216787,5
118321,216783,4
118332,216786,5
118341,216811,5
118107,216800,5
118353,216819,5
118354,216811,4
118362,216826,5
117975,216827,5
118369,216827,5
118357,216827,5
118372,216837,4
118035,216830,5
118375,216834,5
118373,216829,5
118383,216839,5
118559,216843,4
118402,216853,5
118396,216853,4
118394,216862,5
118796,216845,5
118374,216855,5
118388,216862,3
118383,216858,5
118686,216856,5
118362,216852,4
118351,216852,4
118354,216863,5
118445,216843,5
118345,216843,5
118336,216846,4
118344,216844,5
118357,216689,5
118352,216867,5
118344,216863,5
118353,216857,4
118337,216487,5
118331,216855,5
118323,216842,5
118319,216853,5
118325,216427,4
118321,216829,5
118324,216836,6
118317,216846,4
118324,216898,5
118320,216837,4
118310,216822,5
118319,216841,5
118314,217223,5
118318,216818,4
118315,216816,4
118315,216828,5
118307,217233,5
118313,216819,5
118319,216832,4
118327,216823,5
118313,216969,5
118320,216833,5
118319,216817,5
118316,216819,4
118312,216833,5
118317,216829,5
118320,216817,5
118315,216826,5
118323,216824,4
118319,216824,5
118315,216811,5
118311,216822,6
118314,216820,4
118316,216814,4
118315,216817,5
118312,216808,5
118302,216812,5
118303,216819,5
118312,216817,4
118317,216807,5
118309,216811,5
118312,216809,5
118315,216804,4
118304,216794,5
118307,216797,5
118299,216785,5
118305,216780,5
118306,216782,4
118317,216794,5
118313,216795,5
118309,216794,5
118308,216798,5
118302,216781,5
118306,216774,4
118317,216785,5
118318,216794,5
118314,216787,6
118311,216783,3
118313,216802,5
118326,216798,5
118329,216804,5
118319,216800,5
118323,216793,4
118308,216787,5
118312,216791,5
118323,216790,5
118307,216782,4
118291,216766,4
118281,216766,5
118289,216748,5
118287,216760,5
118280,216751,4
118298,216757,5
118313,216770,5
118315,216776,5
118322,216776,5
118323,216776,4
118314,216773,6
118310,216772,4
118319,216775,5
118313,216768,5
118314,216764,6
118319,216777,3
118322,216772,5
118324,216777,5
118321,216784,5
118325,216773,4
118321,216760,5
118326,216761,5
118315,216769,5
118315,216767,5
118316,216769,4
118318,216764,5
118321,216768,5
118320,216764,5
118321,216763,4
118321,216758,5
118326,216784,5
118334,216760,5
118329,216770,5
118336,216777,4
118184,216786,5
118345,216778,6
118327,216767,4
118333,216774,5
117983,216776,4
118329,216769,5
118334,216769,5
118328,216779,5
117916,216772,5
118339,216764,4
118333,216765,8
118344,216784,2
118394,216766,5
118355,216762,5
118331,216765,4
118335,216765,5
118709,216764,5
118327,216757,5
118335,216756,4
118334,216758,4
118731,216753,5
118338,216747,5
118323,216745,5
118334,216751,4
118463,216750,5
118326,216746,5
118323,216761,6
118333,216751,4
118351,216671,4
118333,216750,5
118336,216757,5
118326,216759,5
118328,216450,5
118320,216753,4
118334,216761,5
118325,216752,5
118327,216336,5
118324,216759,5
118322,216740,5
118323,216749,4
118319,216681,5
118318,216743,5
118328,216744,4
118335,216750,4
118330,217089,5
118332,216748,5
118336,216738,5
118341,216759,5
118345,217206,4
118340,216758,5
118344,216766,5
118346,216752,6
118341,216957,3
118338,216761,5
118338,216749,5
118344,216751,5
118340,216786,5
118345,216751,4
118338,216741,5
118331,216749,5
118332,216754,5
118339,216745,5
118336,216754,4
118337,216734,5
118339,216746,5
118338,216750,5
118334,216732,4
118332,216728,4
118336,216749,5
118336,216748,5
118339,216736,5
118333,216735,4
118334,216728,6
118333,216712,4
118329,216727,5
118341,216729,5
118341,216724,4
118340,216724,5
118342,216737,5
118344,216738,5
118340,216737,5
118339,216736,4
118340,216733,5
118339,216731,5
118332,216723,5
118332,216719,5
118343,216735,4
118345,216731,5
118344,216715,5
118342,216734,5
118325,216731,5
118335,216732,4
118337,216743,5
118325,216740,5
118330,216740,5
118318,216720,4
118312,216711,4
118301,216710,6
118287,216704,4
118281,216691,5
118285,216702,4
118290,216689,5
118300,216709,5
118290,216704,5
118285,216710,5
118283,216682,4
118271,216688,5
118266,216678,5
118262,216682,5
118273,216681,5
118265,216680,4
118277,216703,5
118276,216678,5
118272,216691,5
118274,216680,5
118264,216689,4
118264,216685,5
118262,216682,5
118247,216669,5
118250,216673,4
118252,216673,4
118230,216665,5
118235,216649,6
118236,216653,4
118229,216656,4
118231,216662,5
118235,216661,5
118228,216654,5
118224,216649,5
118223,216655,4
118229,216653,5
118233,216668,5
118224,216652,5
118100,216647,5
118218,216639,4
118217,216658,5
118206,216644,5
117879,216638,5
118211,216633,5
118197,216638,5
118202,216632,4
117779,216633,5
118205,216645,5
118195,216647,5
118196,216645,4
118176,216635,5
118194,216638,5
118196,216640,5
118188,216634,4
118528,216639,5
118181,216625,5
118176,216636,5
118171,216633,5
118610,216636,4
118161,216632,5
118154,216637,5
118168,216637,5
118327,216635,5
118162,216628,4
118165,216615,5
118166,216628,5
118186,216582,5
118163,216630,5
118155,216648,4
118165,216629,5
118162,216330,5
118181,216636,5
118169,216641,5
118161,216636,5
118172,216214,4
118160,216629,5
118161,216635,5
118146,216620,4
118153,216475,4
118156,216617,5
118149,216614,5
118136,216620,5
118130,216901,4
118134,216603,5
118122,216595,5
118127,216601,5
118113,217046,5
118123,216587,4
118129,216591,5
118122,216592,5
118106,216839,5
118115,216587,5
118122,216591,4
118117,216578,5
118122,216657,5
118102,216573,5
118110,216584,5
118111,216580,4
118099,216572,6
118099,216575,4
118094,216565,5
118079,216563,4
118057,216543,4
118059,216523,5
118044,216502,5
118037,216510,5
118013,216480,4
118005,216471,5
117990,216464,5
118000,216477,5
117992,216460,5
117999,216447,4
117998,216461,5
118006,216459,5
118030,216487,5
118026,216487,5
118041,216481,4
118046,216486,5
118065,216490,5
118055,216497,5
118054,216492,5
118053,216493,4
118048,216477,5
118032,216469,5
118039,216472,5
118030,216471,5
118030,216464,4
118021,216450,5
118005,216436,5
118003,216424,5
117998,216419,4
117989,216431,4
117994,216422,5
117995,216416,5
118002,216418,5
118001,216406,4
117998,216394,5
118007,216405,5
117998,216409,5
118001,216401,5
118004,216401,5
117996,216404,4
118004,216399,5
118006,216415,5
118017,216405,6
118018,216425,3
118018,216414,5
118023,216414,5
118022,216412,5
118027,216394,5
118019,216389,4
118020,216384,5
118025,216372,5
118017,216364,5
118024,216366,4
118026,216369,4
118022,216364,5
118022,216351,5
118033,216369,5
118027,216350,4
118024,216351,5
118034,216354,5
118035,216348,5
118036,216353,5
118033,216353,4
118037,216340,6
118022,216334,4
118033,216336,5
118026,216340,5
118016,216328,6
118032,216317,3
118023,216327,5
118038,216321,5
118041,216331,5
118036,216330,4
117789,216321,5
118043,216333,5
118039,216309,5
118033,216316,5
117641,216315,4
118039,216313,5
118048,216320,5
118039,216316,5
117786,216308,4
118039,216319,5
118041,216325,5
118037,216331,5
118250,216339,5
118043,216333,4
118049,216336,5
118046,216347,6
118483,216353,4
118053,216352,5
118064,216357,4
118059,216358,5
118350,216358,5
118064,216360,5
118065,216364,5
118066,216354,4
118143,216352,5
118062,216352,5
118074,216354,5
118073,216358,5
118065,216156,4
118068,216353,5
118066,216354,5
118080,216359,5
118066,215988,4
118078,216352,4
118066,216358,5
118072,216349,5
118075,215946,5
118075,216356,4
118073,216348,6
118080,216358,4
118088,216486,6
118082,216363,4
118078,216361,4
118084,216369,5
118083,216780,5
118077,216362,5
118082,216369,5
118080,216364,4
118083,216741,5
118087,216369,5
118082,216353,5
118076,216352,5
118068,216488,4
118089,216361,5
118088,216359,5
118090,216365,5
118095,216384,5
118104,216384,4
118100,216381,5
118112,216382,5
118112,216377,5
118121,216395,5
118124,216397,4
118125,216389,5
118122,216409,5
118125,216393,6
118123,216400,3
118122,216398,5
118114,216395,5
118109,216395,5
118110,216398,5
118106,216384,4
118093,216382,5
118091,216373,5
118094,216373,5
118105,216388,5
118105,216383,4
118106,216406,5
118106,216400,5
118114,216387,5
118124,216386,5
118120,216397,4
118116,216387,5
118110,216385,5
118106,216385,5
118111,216377,4
118112,216395,5
118125,216407,4
118132,216415,5
118131,216409,5
118130,216408,4
118141,216415,5
118150,216422,5
118153,216429,5
118158,216425,5
118166,216427,4
118155,216421,5
118153,216422,5
118148,216432,5
118136,216420,5
118140,216427,4
118131,216408,5
118126,216394,5
118113,216405,5
118089,216391,5
118061,216380,4
118047,216375,5
118042,216372,5
118035,216379,5
118017,216364,4
118001,216356,4
118005,216355,6
117990,216369,4
117989,216377,5
117990,216368,4
117998,216389,5
118002,216376,5
118002,216393,5
118002,216395,5
117995,216395,4
118002,216398,5
117989,216404,5
117994,216416,5
117983,216419,5
117990,216430,4
117981,216418,5
117982,216425,5
117972,216425,5
117968,216433,5
117957,216437,4
117975,216444,5
117967,216452,5
117964,216459,5
117809,216457,5
117969,216462,4
117968,216461,5
117966,216450,6
117610,216459,4
117951,216454,4
117950,216461,4
117944,216456,5
117549,216462,5
117953,216451,5
117946,216452,4
117946,216446,5
117980,216445,5
117933,216446,5
117937,216447,5
117920,216427,4
118271,216421,5
117912,216428,5
117888,216419,5
117876,216422,5
118279,216411,4
117853,216403,5
117840,216410,5
117836,216409,5
117989,216425,10
117838,216421,4
117829,216435,5
117840,216435,6
117864,216366,4
117834,216442,4
117831,216475,5
117842,216469,5
117848,216178,5
117844,216501,5
117843,216514,4
117847,216517,5
117833,216111,5
117813,216514,5
117811,216518,4
117806,216504,5
117786,216402,5
117777,216505,5
117760,216502,5
117756,216500,4
117750,216815,5
117765,216533,5
117784,216538,5
117781,216547,5
117791,217002,5
117789,216573,4
117788,216581,5
117799,216576,5
117811,216827,5
117802,216619,4
117828,216622,5
117835,216643,5
117841,216701,5
117844,216661,4
117862,216678,4
117870,216682,5
117868,216678,5
117855,216695,5
117851,216699,4
117859,216701,5
117856,216709,5
117862,216704,5
117870,216711,5
117865,216730,4
117853,216738,5
117852,216738,5
117862,216732,5
117858,216746,5
117864,216769,4
117874,216752,6
117869,216756,4
117885,216753,5
117880,216770,5
117878,216775,4
117883,216774,5
117889,216762,5
117896,216786,5
117892,216801,4
117889,216786,4
117894,216800,5
117892,216812,5
117884,216810,5
117893,216807,4
117891,216814,5
117896,216814,5
117885,216816,5
117896,216815,5
117892,216806,4
117900,216804,5
117905,216788,5
117915,216781,5
117927,216763,5
117940,216773,4
117959,216788,5
117964,216801,6
117978,216807,4
117992,216806,5
118008,216819,4
118014,216820,5
118042,216830,5
118051,216847,5
118061,216843,5
118081,216839,4
118091,216841,5
118117,216867,5
118119,216853,5
118134,216859,4
118142,216850,4
118159,216863,5
118188,216859,5
118199,216868,5
118214,216871,4
118238,216886,5
118256,216907,5
118276,216921,5
118293,216900,5
118292,216921,4
118306,216921,5
118309,216919,5
118326,216940,5
118362,216957,5
118366,216957,4
118378,216962,5
118386,216986,5
118377,216957,5
118378,216965,5
118375,216960,4
118396,216961,5
118388,216963,5
118339,216953,5
118378,216954,4
118383,216946,4
118377,216940,5
118111,216956,5
118393,216967,5
118423,216978,4
118449,216981,5
118044,216994,5
118448,216993,5
118441,216995,5
118457,216985,5
118266,216992,4
118465,216993,5
118475,217010,5
118478,217005,5
118736,217007,4
118479,217010,5
118487,217004,5
118483,217005,5
118933,217008,5
118497,217011,4
118501,217012,5
118506,217025,5
118769,217008,5
118519,217028,5
118521,217014,4
118527,217031,5
118609,217034,5
118548,217042,5
118566,217041,4
118563,217058,5
118585,216844,5
118599,217055,4
118591,217052,5
118600,217056,4
118606,216681,7
118613,217056,3
118603,217066,5
118611,217051,5
118614,216671,4
118624,217047,5
118635,217053,4
118643,217061,5
118646,217211,5
118654,217056,4
118650,217051,5
118650,217053,5
118649,217474,5
118656,217051,5
118646,217039,4
118652,217037,5
118642,217388,5
118641,217043,5
118647,217035,4
118658,217039,4
118658,217166,5
118661,217041,6
118664,217023,4
118659,217031,4
118655,217051,5
118646,217037,5
118658,217040,5
118649,217034,5
118644,217024,4
118648,217024,5
118649,217027,5
118651,217025,5
118639,217015,5
118645,217014,4
118622,217015,5
118641,217029,5
118632,217024,5
118634,217022,5
118639,217014,4
118628,217008,5
118627,217018,5
118612,217004,5
118598,217001,5
118586,216978,4
118580,216993,5
118583,217007,5
118574,216996,6
118559,216997,3
118542,216983,4
118519,216965,5
118492,216962,5
118494,216950,5
118490,216962,4
118486,216963,5
118464,216948,5
118437,216941,5
118442,216948,5
118441,216953,4
118437,216964,5
118443,216963,5
118439,216973,5
118447,216979,5
118438,216979,4
118422,216970,5
118404,216955,5
118414,216972,5
118407,216978,5
118402,216976,5
118406,216986,4
118417,216983,5
118422,216981,5
118414,217003,6
118438,217002,3
118447,217018,5
118463,217028,5
118461,217027,5
118468,217033,4
118468,217039,5
118474,217052,5
118479,217043,5
118474,217047,5
118481,217043,4
118479,217036,5
118465,217033,5
118467,217027,5
118461,217027,5
118463,217038,4
118457,217029,5
118457,217028,5
118452,217020,5
118451,217032,5
118447,217024,4
118444,217018,6
118458,217022,4
118460,217032,5
118461,217031,5
118462,217026,4
118466,217036,5
118470,217026,5
118463,217040,5
118460,217026,4
118296,217029,4
118456,217019,5
118441,217012,5
118436,217005,5
118079,217017,4
118430,217006,5
118436,217009,5
118447,217021,5
118026,217020,5
118446,217021,4
118445,217008,5
118440,217016,5
118489,217026,5
118451,217038,5
118451,217031,4
118443,217023,5
118802,217033,6
118446,217029,4
118445,217037,5
118436,217022,4
118864,217027,5
118433,217017,5
118434,217011,5
118424,217011,5
118584,217015,4
118413,217007,5
118411,217002,5
118417,217005,5
118430,216928,4
118424,217012,4
118431,217001,5
118424,217019,5
118415,216718,5
118415,217023,4
118419,217016,4
118407,217011,5
118415,216611,5
118423,217031,5
118418,217048,4
118430,217033,5
118424,216889,5
118423,217029,6
118423,217032,4
118419,217025,4
118404,217334,5
118400,217036,5
118392,217016,5
118361,216994,5
118324,217429,4
118295,216953,5
118280,216949,5
118274,216959,5
118283,217201,4
118271,216955,4
118286,216960,5
118291,216960,5
118300,217028,5
118285,216959,4
118280,216972,5
118282,216969,5
118282,216984,5
118295,216975,5
118288,216982,5
118295,216984,4
118286,216990,5
118299,216991,5
118288,216996,6
118274,216989,3
118276,216982,5
118262,216977,5
118256,216984,5
118259,216975,5
118238,216984,4
118237,216971,5
118230,216976,5
118226,216966,5
118225,216978,5
118234,216969,4
118240,216968,5
118251,216969,5
118249,216975,5
118257,216981,4
118249,216988,4
118243,216964,5
118253,216967,5
118237,216972,5
118238,216971,4
118249,216965,6
118242,216953,4
118241,216958,5
118251,216947,5
118243,216944,4
118255,216955,5
118259,216951,5
118255,216943,5
118250,216939,5
118256,216952,4
118261,216942,5
118263,216949,5
118269,216944,5
118274,216951,5
118267,216954,4
118277,216945,5
118275,216958,5
118284,216953,5
118276,216948,4
118282,216954,4
118279,216940,5
118281,216944,5
118283,216952,5
118281,216932,4
118284,216935,5
118300,216943,6
118292,216948,4
118286,216936,5
118280,216929,4
118286,216928,5
118289,216933,5
118289,216939,5
118277,216930,5
118284,216932,4
118287,216927,5
118283,216927,5
118275,216919,5
118276,216925,5
118276,216917,4
118280,216920,5
118276,216922,5
118293,216909,5
118279,216920,5
118285,216915,4
118281,216931,5
118293,216915,5
118272,216909,5
118276,216921,4
118282,216904,4
118271,216911,5
118012,216908,6
118289,216907,4
118282,216905,4
118291,216917,5
117892,216917,5
118283,216912,5
118287,216909,5
118290,216904,4
118056,216912,5
118295,216901,5
118295,216906,5
118296,216913,5
118526,216912,4
118308,216916,5
118316,216922,5
118313,216922,5
118751,216937,5
118320,216933,5
118306,216916,4
118312,216920,5
118582,216931,5
118306,216922,6
118313,216921,3
118292,216908,5
118361,216899,5
118274,216903,5
118287,216898,4
118280,216904,4
118289,216694,5
118288,216897,5
118287,216902,5
118295,216907,4
118284,216516,5
118279,216896,5
118289,216885,8
118278,216896,2
118274,216494,4
118271,216890,5
118262,216895,5
118280,216896,5
118289,217031,5
118279,216895,4
118282,216886,5
118282,216884,5
118274,217303,5
118282,216875,5
118281,216889,5
118276,216882,4
118278,217243,5
118277,216876,5
118266,216876,4
118268,216882,4
118270,216987,5
118269,216880,5
118260,216882,5
118268,216868,4
118259,216882,5
118269,216887,5
118263,216892,5
118258,216878,5
118263,216877,4
118268,216876,5
118260,216872,5
118254,216866,5
118269,216867,5
118268,216870,4
118270,216884,5
118262,216866,5
118262,216866,5
118261,216845,5
118250,216863,4
118248,216854,6
118255,216853,4
118253,216843,5
118243,216852,5
118248,216852,4
118247,216863,5
118252,216848,5
118258,216851,5
118253,216860,4
118258,216858,4
118250,216855,5
118252,216860,5
118253,216867,5
118252,216864,4
118254,216857,5
118265,216856,5
118258,216852,5
118256,216858,5
118252,216865,4
118257,216864,5
118255,216862,5
118260,216866,5
118254,216861,4
118248,216860,4
118253,216867,5
118264,216880,5
118252,216875,5
118268,216877,5
118268,216882,4
118259,216881,5
118264,216873,5
118263,216883,5
118259,216881,4
118259,216871,4
118250,216868,5
118241,216875,5
118237,216868,5
118236,216865,4
118238,216872,5
118247,216879,5
118245,216858,5
118233,216867,5
118238,216858,5
118241,216862,4
118224,216854,5
118215,216837,5
118214,216833,6
118191,216819,3
118183,216818,5
118173,216809,5
118165,216804,5
118169,216802,5
118165,216806,4
118158,216801,5
118160,216809,5
118153,216814,5
118159,216810,5
118149,216799,4
118150,216793,5
118140,216779,5
118127,216779,5
118108,216767,4
117928,216764,4
118093,216751,5
118066,216743,5
118056,216730,5
117698,216731,4
118039,216717,6
118034,216716,4
118021,216715,5
117626,216715,5
118026,216729,6
118034,216716,3
118034,216704,5
118098,216726,5
118032,216724,5
118040,216721,4
118039,216728,5
118408,216735,5
118049,216735,5
118057,216725,5
118054,216741,4
118464,216752,5
118042,216738,5
118017,216732,5
118008,216712,4
118135,216699,4
117967,216691,5
117970,216677,5
117942,216681,5
117976,216601,4
117956,216666,5
117950,216687,6
117951,216680,4
117966,216376,5
117961,216680,4
117964,216689,4
117962,216693,5
117971,216291,5
117973,216706,5
117966,216693,4
117974,216684,5
117975,216594,5
117968,216697,5
117964,216684,5
117971,216680,4
117962,216981,5
117957,216669,5
117963,216680,5
117964,216667,5
117970,217132,4
117977,216669,5
117966,216652,5
117969,216663,5
117960,216879,4
117946,216648,5
117942,216635,5
117947,216657,6
117952,216707,4
117948,216636,4
117950,216638,5
117954,216631,5
117949,216636,5
117960,216622,5
117956,216621,4
117951,216622,5
117956,216633,5
117955,216642,5
117949,216633,5
117946,216631,4
117952,216626,5
117965,216622,5
117978,216625,5
117987,216619,5
117991,216624,4
117984,216621,5
117993,216631,5
117999,216617,5
117990,216610,5
117987,216606,4
117998,216603,5
118000,216611,5
117994,216596,6
118011,216603,3
118008,216594,5
118019,216595,5
118035,216609,5
118040,216592,5
118053,216595,4
118072,216604,5
118068,216612,5
118087,216614,5
118101,216612,5
118108,216616,4
118120,216621,5
118136,216620,5
118141,216634,5
118154,216642,5
118153,216638,4
118157,216633,5
118166,216643,5
118176,216639,5
118165,216628,5
118161,216617,5
118155,216610,4
118163,216598,5
118161,216601,5
118169,216586,4
118167,216583,5
118157,216567,5
118162,216569,5
118154,216551,5
118154,216538,4
118151,216538,5
118145,216527,5
118149,216520,5
118146,216509,5
118153,216504,4
118161,216505,5
118154,216479,5
118156,216469,5
118168,216452,5
118170,216442,4
118176,216450,5
118173,216439,5
118183,216413,5
118188,216413,5
118201,216398,4
118196,216388,6
118199,216382,4
118206,216376,5
118212,216376,4
118231,216373,4
118236,216375,5
118237,216368,5
118231,216361,5
118233,216356,4
118236,216361,5
118257,216364,5
118022,216360,5
118295,216376,5
118313,216373,4
118325,216381,5
117949,216405,5
118354,216404,5
118360,216413,5
118359,216406,4
118063,216415,5
118350,216404,5
118326,216384,5
118309,216381,5
118495,216376,4
118297,216376,5
118309,216377,6
118304,216393,4
118750,216391,5
118319,216394,4
118325,216411,5
118336,216417,5
118637,216416,5
118294,216404,4
118288,216408,4
118289,216400,5
118373,216414,5
118280,216429,5
118289,216435,4
118272,216453,5
118273,216276,5
118259,216448,5
118261,216442,5
118252,216446,4
118251,216091,5
118234,216444,5
118231,216452,5
118212,216453,5
118208,216026,4
118201,216440,5
118190,216452,5
118187,216448,6
118166,216496,4
118155,216431,4
118153,216440,5
118139,216428,5
118111,216807,5
118107,216414,4
118092,216411,4
118071,216398,5
118070,216844,5
118059,216424,5
118067,216424,4
118073,216436,5
118068,216584,5
118064,216424,5
118072,216432,5
118072,216437,4
118069,216442,5
118066,216435,5
118075,216439,5
118073,216441,5
118083,216438,5
118093,216436,4
118088,216451,5
118088,216447,5
118099,216458,5
118095,216468,4
118105,216459,5
118101,216463,5
118098,216465,5
118097,216466,5
118090,216478,4
118090,216470,5
118074,216485,5
118078,216491,5
118079,216481,4
118073,216477,4
118066,216488,5
118065,216471,5
118059,216477,5
118061,216472,4
118069,216473,5
118060,216492,5
118067,216482,5
118066,216482,5
118069,216484,4
118076,216498,6
118079,216494,4
118072,216510,5
118076,216513,5
118070,216508,4
118069,216514,5
118072,216502,5
118070,216497,5
118071,216502,5
118052,216500,4
118054,216491,5
118050,216498,5
118037,216497,5
118042,216503,4
118042,216508,4
118049,216512,5
118045,216514,5
118037,216536,5
118052,216542,4
118036,216548,5
118041,216545,5
118041,216564,5
118049,216557,5
118045,216558,4
118037,216563,5
118028,216567,6
118017,216564,4
117998,216552,5
117986,216558,4
117986,216550,5
117974,216536,5
117950,216528,5
117940,216537,5
117943,216549,4
117925,216544,5
117926,216556,5
117919,216556,5
117914,216560,5
117913,216565,4
117910,216572,5
117911,216592,5
117906,216605,5
117921,216618,4
117916,216621,4
117913,216621,5
117928,216643,5
117926,216638,5
117924,216648,4
117836,216641,5
117924,216644,5
117917,216645,5
117928,216646,5
117619,216649,4
117926,216639,5
117931,216655,5
117922,216659,5
117520,216654,5
117928,216638,4
117935,216643,5
117938,216645,5
117864,216646,5
117940,216653,5
117953,216638,4
117950,216638,5
118251,216640,5
117947,216654,5
117952,216655,4
117962,216658,4
118401,216659,5
117963,216658,5
117967,216656,5
117972,216670,5
118179,216673,4
117986,216672,5
117998,216678,5
117996,216678,5
118032,216671,4
118009,216680,5
118015,216690,5
118027,216694,5
118044,216429,5
118052,216709,4
118061,216709,5
118084,216729,5
118102,216348,5
118115,216755,5
118139,216767,4
118153,216765,5
118164,216532,5
118180,216796,5
118181,216801,5
118190,216799,4
118211,217028,6
118226,216808,4
118235,216811,5
118252,216822,4
118308,217140,10
118308,217140,4
118305,216842,5
118315,216851,4
118328,216842,5
118311,216927,5
118324,216852,5
118326,216842,5
118325,216835,4
118330,216843,5
118332,216837,5
118326,216829,5
118336,216842,5
118338,216848,4
118337,216831,5
118339,216846,5
118334,216838,5
118345,216838,5
118342,216843,4
118357,216864,5
118352,216863,6
118364,216863,4
118370,216865,4
118377,216882,4
118365,216880,5
118368,216873,5
118365,216883,5
118366,216878,4
118364,216870,5
118362,216872,5
118341,216856,5
118344,216846,5
118338,216836,4
118338,216848,5
118345,216844,5
118348,216853,5
118358,216861,5
118359,216862,4
118353,216859,5
118358,216864,5
118350,216862,5
118359,216874,5
118359,216866,4
118367,216869,5
118372,216885,5
118372,216891,6
118376,216882,4
118377,216884,4
118373,216880,5
118380,216877,5
118363,216862,5
118370,216871,4
118370,216875,4
118364,216873,5
118370,216883,5
118363,216874,5
118367,216868,4
118369,216877,5
118368,216881,5
118381,216892,5
118369,216894,5
118371,216888,4
118380,216887,5
118368,216897,5
118375,216881,5
118367,216874,5
118368,216882,5
118362,216891,4
118371,216898,5
118370,216887,5
118377,216888,6
118383,216896,3
118381,216914,5
118399,216906,5
118401,216911,5
118404,216914,4
118393,216907,4
118394,216915,5
118398,216919,5
118398,216914,5
118389,216917,4
118396,216922,5
118389,216927,5
118384,216930,5
118394,216930,5
118393,216929,4
118162,216926,5
118395,216938,5
118390,216938,5
118395,216944,5
118012,216939,4
118399,216944,6
118397,216955,4
118403,216940,5
118045,216938,5
118409,216949,4
118407,216943,5
118397,216952,5
118545,216939,5
118390,216948,5
118389,216944,4
118387,216938,5
118780,216939,5
118379,216946,5
118362,216925,4
118365,216922,4
118699,216918,5
118360,216915,5
118349,216933,5
118351,216922,4
118471,216936,5
118354,216923,5
118358,216933,5
118358,216937,5
118363,216792,4
118354,216931,5
118341,216931,6
118327,216948,4
118319,216608,5
118309,216945,4
118297,216935,5
118291,216949,5
118287,216537,5
118288,216964,5
118288,216969,4
118280,216980,5
118270,216984,5
118262,216968,5
118243,216980,5
118240,216971,4
118228,217318,5
118197,216945,5
118177,216927,5
118171,216937,4
118168,217418,4
118166,216956,5
118181,216961,5
118186,216985,5
118198,217164,4
118191,216990,5
118192,216977,5
118185,216986,6
118176,217015,4
118179,216983,4
118175,217004,5
118187,217023,5
118190,217043,5
118206,217069,5
118210,217084,4
118217,217102,5
118223,217116,5
118223,217128,5
118226,217144,5
118247,217168,4
118265,217202,5
118286,217218,5
118284,217239,5
118302,217277,4
118315,217298,4
118331,217307,5
118339,217323,5
118344,217330,5
118365,217373,5
118400,217401,4
118422,217432,5
118439,217441,5
118433,217451,6
118422,217449,3
118407,217442,5
118388,217457,5
118395,217474,5
118397,217504,5
118411,217503,4
118411,217532,5
118411,217532,5
118395,217535,5
118395,217543,5
118387,217549,4
118397,217547,5
118389,217567,5
118398,217573,5
118408,217561,5
118412,217574,4
118413,217580,5
118410,217583,5
118411,217565,5
118420,217558,4
118427,217553,5
118423,217550,4
118439,217566,5
118449,217539,5
118450,217537,4
118465,217539,5
118465,217540,5
118488,217540,5
118497,217527,5
118504,217521,4
118514,217532,5
118525,217515,5
118536,217508,5
118541,217507,5
118548,217491,4
118543,217483,5
118554,217480,5
118567,217485,5
118545,217484,5
118564,217489,4
118565,217487,5
118583,217494,5
118577,217486,5
118587,217498,5
118593,217507,4
118594,217505,6
118603,217499,4
118606,217508,5
118627,217510,4
118629,217519,5
118627,217506,5
118630,217515,5
118582,217507,5
118621,217498,4
118630,217495,5
118615,217495,5
118334,217495,5
118609,217485,5
118583,217456,4
118580,217445,5
118173,217438,5
118581,217446,5
118584,217452,5
118589,217435,4
118400,217453,5
118598,217447,5
118589,217442,5
118597,217442,5
118838,217420,4
118585,217413,5
118582,217411,6
118588,217419,4
119032,217410,4
118595,217421,4
118608,217428,5
118597,217422,5
118870,217424,5
118613,217424,4
118599,217415,5
118594,217413,5
118652,217398,5
118588,217411,5
118580,217409,4
118576,217404,5
118569,217184,5
118576,217410,5
118570,217408,5
118574,217407,5
118559,217030,4
118564,217389,5
118569,217407,5
118547,217404,6
118550,217016,3
118535,217370,5
118514,217364,5
118508,217358,5
118496,217505,5
118489,217343,4
118483,217335,5
118474,217329,5
118480,217754,5
118476,217339,4
118481,217347,4
118477,217336,5
118467,217695,5
118475,217335,5
118459,217327,4
118454,217324,5
118452,217433,5
118456,217316,5
118450,217304,5
118448,217313,4
118450,217321,5
118443,217317,5
118447,217321,5
118449,217308,5
118439,217305,5
118436,217314,4
118442,217314,5
118438,217312,5
118435,217314,5
118435,217319,4
118428,217314,5
118438,217322,5
118446,217334,5
118443,217307,4
118425,217312,4
118430,217311,5
118430,217299,5
118422,217289,5
118416,217298,4
118431,217301,5
118428,217304,5
118416,217298,5
118421,217283,5
118424,217293,4
118419,217284,5
118420,217284,5
118430,217297,5
118425,217286,5
118420,217274,4
118420,217272,6
118413,217267,4
118420,217268,5
118428,217263,5
118415,217263,4
118411,217269,5
118414,217267,5
118425,217268,5
118416,217258,5
118419,217264,4
118408,217250,5
118400,217244,5
118399,217242,5
118392,217242,4
118384,217243,4
118387,217231,5
118387,217227,5
118377,217218,5
118371,217224,4
118379,217221,5
118365,217206,5
118372,217207,5
118376,217195,4
118354,217175,4
118348,217170,5
118342,217146,5
118326,217144,5
118330,217144,5
118328,217131,4
118330,217133,5
118337,217138,5
118337,217139,5
118351,217159,5
118346,217153,4
118353,217136,5
118343,217142,5
118342,217158,5
118360,217147,5
118363,217151,4
118348,217144,5
118334,217133,5
118322,217126,5
118326,217134,5
118337,217129,4
118320,217137,5
118339,217144,5
118353,217133,6
118349,217121,3
118186,217140,5
118357,217130,5
118355,217127,5
118358,217134,5
117999,217117,4
118360,217118,5
118359,217123,5
118372,217104,5
117954,217123,5
118384,217116,4
118395,217132,5
118389,217118,5
118451,217114,5
118391,217110,5
118398,217118,4
118403,217115,5
118781,217125,5
118404,217118,5
118403,217114,4
118399,217126,5
118808,217113,4
118405,217125,5
118408,217119,5
118409,217122,6
118546,217109,3
118415,217123,5
118410,217127,5
118408,217118,5
118424,217025,4
118401,217112,5
118387,217103,5
118378,217088,5
118377,216766,5
118392,217082,4
118377,217082,5
118379,217069,5
118373,216645,5
118382,217052,5
118371,217049,4
118362,217051,5
118357,216952,5
118354,217027,5
118354,217026,5
118354,217036,4
118357,217350,6
118362,217024,4
118352,217033,5
118355,217039,4
118356,217494,4
118355,217037,5
118365,217048,5
118356,217050,5
118371,217259,4
118372,217036,5
118375,217045,5
118377,217058,5
118390,217102,5
118377,217037,4
118384,217053,5
118384,217056,5
118387,217060,5
118401,217060,8
118398,217061,1
118383,217075,5
118405,217074,5
118410,217062,5
118401,217062,5
118412,217074,4
118423,217077,5
118424,217074,6
118421,217063,4
118430,217074,4
118433,217080,4
118438,217079,5
118437,217083,5
118450,217074,5
118455,217095,4
118456,217080,5
118461,217102,5
118469,217084,5
118475,217094,5
118470,217092,4
118482,217092,5
118469,217098,5
118471,217085,5
118469,217087,5
118474,217095,4
118480,217096,5
118474,217081,5
118478,217099,5
118478,217098,5
118487,217096,4
118482,217103,5
118487,217105,5
118483,217111,6
118490,217119,4
118487,217120,4
118472,217111,5
118473,217102,5
118459,217095,5
118446,217071,4
118446,217071,4
118424,217058,5
118412,217041,5
118397,217032,5
118394,217016,4
118390,217009,5
118378,217017,5
118384,217016,5
118391,217006,5
118385,217016,4
118383,217023,5
118376,217016,5
118380,217013,5
118367,217023,5
118379,217009,5
118375,217022,4
118371,217025,5
118371,217024,5
118386,217024,7
118378,217023,2
118379,217024,5
118366,217023,5
118366,217022,5
118365,217010,5
118344,217004,4
118336,216983,5
118313,216974,5
118315,216965,5
118305,216964,4
118298,216958,5
118289,216952,5
118291,216943,5
118241,216945,5
118277,216936,4
118260,216929,5
118253,216940,5
117962,216925,5
118251,216927,5
118250,216919,4
118252,216923,6
117864,216943,4
118267,216939,5
118270,216933,5
118267,216937,4
118059,216935,5
118257,216925,5
118257,216919,5
118262,216919,5
118503,216924,4
118263,216928,5
118256,216913,5
118255,216920,5
118692,216905,4
118258,216912,4
118259,216906,5
118261,216913,5
118527,216939,5
118267,216927,4
118274,216930,5
118278,216940,5
118344,216930,5
118280,216934,5
118269,216936,4
118274,216919,5
118272,216703,6
118269,216926,4
118265,216919,5
118264,216928,4
118266,216547,5
118255,216920,5
118256,216905,5
118250,216914,5
118245,216502,4
118244,216896,5
118237,216905,5
118239,216891,5
118239,217024,5
118247,216891,4
118246,216901,5
118239,216878,5
118248,217297,5
118249,216885,4
118243,216880,4
118239,216870,5
118225,217239,5
118232,216845,5
118227,216853,4
118219,216848,5
118226,216959,5
118228,216841,6
118228,216820,4
118214,216832,4
118210,216833,5
118209,216811,5
118208,216810,5
118206,216811,5
118204,216801,4
118201,216798,5
118198,216798,5
118188,216796,5
118184,216788,5
118188,216792,4
118186,216797,5
118185,216779,5
118176,216775,5
118175,216757,4
118164,216750,4
118169,216744,5
118155,216749,5
118154,216736,5
118153,216716,5
118148,216716,4
118147,216714,5
118148,216708,5
118148,216703,5
118143,216705,4
118144,216693,5
118145,216708,5
118144,216672,5
118126,216681,5
118120,216682,4
118128,216666,5
118124,216667,5
118131,216670,5
118125,216669,5
118124,216648,4
118118,216633,5
118128,216638,5
118122,216633,5
118111,216632,5
118122,216627,4
118130,216634,5
118124,216618,5
118123,216612,5
118120,216613,4
118123,216617,5
118121,216617,4
118116,216608,5
118117,216622,5
118127,216612,4
118128,216609,5
118121,216624,5
118120,216593,5
118118,216587,5
118111,216586,4
118104,216581,5
118107,216565,5
118094,216552,5
118082,216536,5
118084,216512,4
118090,216512,5
118072,216511,5
118085,216503,5
118092,216500,5
118091,216491,4
118086,216485,5
118087,216464,5
118091,216461,5
118084,216472,5
118073,216439,4
118083,216428,6
118072,216426,4
118078,216434,5
118091,216429,4
118081,216412,5
118081,216396,5
118069,216387,5
118081,216381,5
118089,216378,4
117952,216382,5
118096,216379,5
118085,216372,5
118106,216363,5
117758,216353,4
118088,216356,5
118088,216351,5
118092,216346,5
117671,216339,5
118085,216330,4
118072,216314,5
118086,216328,5
118049,216328,5
118089,216332,5
118079,216316,4
118071,216314,5
118407,216301,5
118074,216302,5
118064,216298,4
118074,216282,4
118507,216283,5
118048,216279,5
118061,216293,5
118072,216279,4
118248,216272,5
118063,216285,5
118063,216284,5
118057,216268,5
118096,216256,4
118063,216290,5
118067,216290,5
118072,216292,5
118079,216026,5
118080,216294,4
118081,216304,5
118088,216314,5
118096,215919,5
118094,216310,5
118087,216300,3
118093,216303,5
118094,216122,5
118109,216326,5
118111,216335,5
118110,216326,4
118125,216585,5
118127,216324,5
118122,216329,5
118119,216328,4
118125,216775,4
118124,216323,5
118117,216315,5
118122,216309,5
118123,216571,4
118123,216308,5
118118,216316,5
118125,216304,5
118127,216382,5
118118,216304,4
118121,216319,6
118122,216314,4
118126,216309,5
118124,216318,5
118125,216317,6
118126,216311,3
118137,216310,5
118143,216312,5
118157,216331,5
118157,216335,4
118172,216337,5
118174,216336,5
118171,216331,5
118179,216341,4
118179,216346,4
118180,216349,5
118170,216339,5
118171,216343,5
118176,216348,4
118190,216365,5
118180,216349,5
118183,216359,5
118178,216366,5
118179,216354,4
118171,216359,5
118186,216349,6
118177,216350,4
118165,216351,5
118164,216335,4
118170,216343,5
118178,216355,5
118189,216345,5
118193,216370,5
118197,216379,4
118210,216381,5
118214,216385,5
118215,216369,5
118218,216378,5
118216,216388,4
118220,216390,5
118229,216393,5
118237,216403,5
118237,216405,4
118251,216406,4
118246,216416,5
118265,216420,5
118255,216416,5
118262,216410,4
118263,216428,5
118267,216420,5
118266,216420,6
118268,216438,4
118255,216422,4
118270,216417,5
118259,216425,5
118256,216417,5
118253,216411,5
118249,216423,4
118246,216420,5
118255,216409,5
118258,216428,5
118250,216431,5
118254,216428,4
118253,216419,5
118252,216425,5
118257,216416,5
118251,216417,4
118256,216419,4
118250,216422,5
118251,216425,5
118259,216411,5
118256,216404,5
118260,216404,4
118252,216414,5
118255,216404,5
118254,216414,6
118260,216410,3
118265,216413,5
118271,216415,5
118003,216422,5
118264,216434,5
118269,216431,4
118281,216440,5
117881,216452,5
118281,216456,5
118291,216452,5
118292,216452,4
118053,216449,5
118288,216452,5
118301,216458,5
118297,216455,5
118534,216458,4
118296,216456,5
118305,216460,5
118305,216462,5
118739,216460,4
118308,216457,6
118308,216450,4
118320,216460,5
118596,216470,5
118328,216472,6
118325,216476,3
118328,216470,5
118406,216461,5
118327,216463,5
118327,216474,4
118332,216467,5
118326,216266,5
118339,216452,5
118331,216467,5
118339,216464,4
118340,216088,5
118336,216458,5
118338,216461,5
118338,216460,5
118345,216082,4
118353,216474,5
118358,216485,5
118359,216478,5
118359,216615,4
118354,216480,4
118341,216482,6
118354,216486,4
118342,216893,5
118333,216475,4
118333,216474,5
118322,216475,5
118319,216845,5
118308,216476,5
118305,216477,4
118304,216466,5
118301,216584,5
118287,216446,5
118285,216438,5
118279,216449,4
118288,216462,5
118289,216457,5
118288,216460,5
118284,216457,5
118271,216445,4
118256,216441,5
118246,216436,5
118242,216437,5
118230,216429,5
118232,216454,4
118234,216445,5
118237,216445,6
118232,216453,4
118226,216459,4
118228,216447,4
118221,216442,5
118221,216445,7
118215,216456,3
118219,216448,4
118228,216446,5
118224,216465,5
118225,216469,5
118231,216464,5
118232,216451,4
118232,216455,5
118230,216472,5
118234,216467,5
118238,216470,5
118227,216486,4
118239,216477,5
118246,216484,5
118237,216478,5
118234,216475,5
118240,216487,4
118235,216468,5
118227,216469,5
118229,216472,6
118225,216479,4
118220,216467,4
118231,216471,5
118233,216475,5
118232,216473,5
118248,216468,4
118239,216470,5
118232,216455,5
118240,216466,5
118241,216466,5
118247,216469,4
118249,216480,5
118261,216490,5
118258,216489,5
118264,216489,5
118273,216498,4
118272,216496,5
118274,216494,5
118276,216505,5
118289,216496,5
118262,216498,5
118278,216505,4
118282,216505,5
118282,216495,5
118289,216504,5
118288,216509,4
118291,216520,5
118305,216525,5
118303,216526,5
118317,216522,4
118306,216525,4
118309,216527,5
118310,216526,5
118319,216523,5
118313,216521,4
118310,216518,5
118316,216532,5
118307,216531,5
118313,216521,5
118315,216539,4
118150,216537,5
118326,216540,5
118334,216543,5
118335,216558,5
117988,216561,4
118365,216561,6
118372,216568,4
118373,216573,5
117954,216576,5
118357,216583,4
118364,216557,5
118366,216566,5
118447,216562,5
118354,216564,5
118352,216553,4
118350,216554,5
118739,216546,5
118363,216558,5
118354,216561,4
118367,216570,5
118756,216580,5
118384,216577,5
118375,216591,5
118381,216609,4
118512,216604,5
118380,216604,5
118388,216605,5
118386,216615,5
118402,216508,4
118386,216629,5
118388,216634,6
118387,216635,4
118390,216308,5
118385,216630,4
118372,216611,5
118380,216615,5
118377,216198,5
118379,216621,5
118379,216622,4
118382,216633,5
118376,216569,5
118388,216621,5
118378,216632,4
118387,216635,4
118383,216967,5
118391,216628,5
118385,216629,5
118386,216638,4
118391,217101,5
118387,216644,5
118385,216648,5
118394,216635,6
118377,216845,3
118382,216644,5
118379,216643,5
118379,216638,5
118393,216685,5
118394,216637,4
118394,216663,5
118404,216664,5
118404,216647,5
118408,216676,5
118411,216670,4
118410,216672,5
118410,216667,5
118421,216671,5
118423,216660,5
118419,216669,4
118425,216671,5
118428,216666,5
118426,216687,5
118432,216679,4
118455,216693,4
118452,216705,5
118458,216696,5
118470,216707,5
118484,216720,5
118487,216713,4
118476,216723,5
118483,216713,5
118484,216712,5
118483,216712,4
118484,216719,5
118493,216724,5
118490,216714,5
118488,216711,5
118491,216707,4
118497,216697,5
118494,216722,5
118507,216731,5
118510,216723,5
118524,216726,4
118540,216733,5
118541,216746,5
118551,216757,5
118554,216768,5
118561,216776,4
118565,216786,5
118592,216790,5
118584,216790,5
118580,216791,4
118580,216792,5
118567,216793,4
118579,216796,5
118570,216799,5
118567,216782,4
118551,216771,5
118539,216757,5
118527,216740,5
118514,216746,5
118527,216753,4
118532,216762,5
118544,216763,5
118543,216764,5
118534,216758,5
118548,216757,4
118539,216756,5
118546,216761,5
118536,216768,5
118534,216757,5
118532,216769,4
118537,216759,5
118545,216759,6
118541,216768,4
118538,216764,4
118535,216755,4
118534,216752,5
118530,216757,5
118515,216754,5
118520,216760,4
118511,216746,5
118506,216761,5
118507,216738,5
118451,216748,5
118510,216756,4
118508,216764,5
118519,216766,5
118214,216757,5
118517,216776,5
118520,216779,4
118510,216771,5
118105,216760,5
118517,216760,5
118505,216751,5
118491,216737,4
118352,216738,5
118473,216741,5
118469,216717,6
118456,216725,4
118736,216734,4
118446,216726,5
118425,216717,5
118440,216707,5
118865,216707,4
118417,216703,4
118408,216695,5
118407,216694,5
118633,216710,5
118400,216703,4
118402,216714,5
118395,216712,5
118460,216714,5
118427,216737,5
118416,216748,4
118429,216753,5
118431,216526,5
118427,216765,5
118435,216789,5
118443,216791,5
118438,216397,4
118441,216777,5
118444,216783,5
118433,216784,6
118433,216469,3
118428,216783,5
118432,216788,5
118434,216763,5
118422,216961,5
118427,216783,4
118420,216761,5
118425,216762,5
118428,217192,5
118414,216744,4
118407,216761,5
118416,216754,5
118411,217091,5
118420,216748,5
118410,216741,4
118421,216750,5
118433,216849,5
118425,216759,5
118429,216760,5
118437,216752,4
118440,216774,6
118439,216766,4
118428,216763,5
118432,216745,5
118435,216746,6
118419,216748,3
118420,216734,5
118414,216732,5
118408,216727,5
118409,216729,4
118426,216725,5
118423,216745,5
118413,216735,5
118408,216728,4
118421,216731,4
118415,216715,5
118410,216733,5
118419,216732,5
118414,216749,4
118416,216745,5
118415,216753,5
118423,216744,5
118425,216751,5
118425,216745,4
118420,216747,5
118431,216750,6
118432,216753,4
118420,216752,5
118418,216746,4
118405,216729,5
118395,216726,5
118386,216714,5
118394,216716,5
118388,216714,4
118401,216719,5
118395,216721,5
118400,216723,5
118414,216725,5
118405,216719,4
118409,216729,5
118415,216725,5
118406,216723,5
118407,216719,4
118418,216733,4
118410,216734,5
118409,216733,5
118415,216727,5
118403,216728,4
118395,216722,5
118395,216726,5
118395,216716,6
118380,216709,4
118370,216704,4
118372,216707,5
118370,216702,5
118375,216694,5
118359,216694,5
118365,216701,4
118359,216692,5
118352,216684,5
118355,216683,5
118349,216680,5
118349,216668,4
118348,216678,5
118353,216670,5
118342,216671,5
118340,216668,4
118337,216667,4
118337,216668,5
118343,216678,5
118345,216667,5
118359,216664,5
118346,216681,4
118348,216682,5
118350,216676,5
118356,216677,6
118359,216676,3
118191,216677,5
118349,216680,5
118353,216681,5
118354,216682,5
118001,216681,4
118360,216678,5
118367,216684,5
118365,216704,5
117939,216687,5
118360,216684,4
118359,216687,5
118368,216689,5
118407,216691,5
118371,216695,5
118372,216681,4
118375,216691,5
118741,216680,5
118379,216671,5
118376,216689,4
118383,216686,5
118796,216686,4
118381,216681,5
118388,216674,5
118385,216675,4
118540,216677,5
118385,216668,5
118393,216684,5
118382,216673,5
118402,216604,4
118383,216691,5
118388,216693,5
118388,216680,5
118384,216370,5
118389,216678,4
118373,216682,5
118384,216680,5
118379,216272,5
118373,216684,5
118371,216681,4
118373,216679,5
118364,216595,5
118369,216674,5
118368,216666,4
118374,216675,4
118370,216994,6
118356,216667,4
118366,216659,5
118358,216668,4
118364,217126,5
118351,216648,5
118345,216650,5
118337,216642,5
118320,216830,4
118310,216626,5
118306,216622,5
118306,216623,5
118301,216660,5
118288,216621,4
118293,216615,5
118283,216630,5
118288,216611,5
118274,216610,5
118272,216614,4
118277,216628,5
118284,216617,5
118287,216633,5
118278,216626,5
118266,216618,4
118266,216620,5
118242,216603,6
118230,216598,4
118218,216577,4
118214,216564,5
118184,216552,5
118174,216526,5
118175,216533,5
118174,216527,4
118176,216527,5
118185,216534,5
118179,216529,5
118186,216533,5
118185,216522,4
118185,216528,5
118181,216525,5
118163,216522,5
118153,216523,5
118149,216520,9
118161,216522,5
118163,216509,5
118156,216529,5
118155,216528,4
118150,216528,5
118142,216516,5
118148,216503,5
118146,216510,4
118134,216498,4
118143,216500,5
118140,216493,5
118142,216505,5
118147,216506,4
118145,216498,5
118150,216499,5
118157,216503,5
118165,216499,5
118163,216500,4
118157,216494,5
118169,216503,5
118171,216508,5
118174,216508,5
118168,216500,4
118169,216497,5
118161,216495,5
118175,216490,5
118168,216491,5
118171,216494,5
118167,216493,4
118178,216495,5
118176,216501,5
118179,216498,5
118172,216494,4
118174,216490,5
118164,216487,5
118171,216491,5
118179,216486,4
118171,216491,5
118179,216481,5
118177,216496,5
118173,216496,5
118184,216494,4
118181,216503,5
118186,216508,5
118181,216495,5
118181,216495,5
118103,216499,4
118200,216489,5
118200,216501,5
118201,216511,5
117898,216513,5
118211,216514,4
118212,216507,6
118225,216516,4
117805,216526,5
118218,216520,5
118222,216514,4
118217,216506,5
118129,216512,5
118220,216516,5
118202,216509,4
118204,216506,4
118499,216507,5
118197,216510,5
118187,216503,5
118192,216508,4
118637,216510,5
118184,216495,5
118183,216495,5
118182,216493,5
118386,216475,4
118173,216478,5
118180,216472,5
118178,216477,5
118215,216474,5
118178,216488,4
118179,216484,5
118179,216482,5
118173,216212,5
118175,216457,5
118168,216469,4
118161,216468,5
118177,216055,5
118166,216445,5
118161,216454,5
118167,216458,4
118170,216193,5
118161,216460,5
118160,216464,5
118169,216459,4
118161,216687,5
118164,216454,5
118160,216447,5
118157,216461,5
118163,216906,4
118156,216460,5
118147,216464,5
118146,216463,5
118141,216759,5
118133,216459,3
118105,216443,5
118093,216414,5
118067,216499,5
118052,216386,5
118049,216383,4
118035,216363,5
118022,216355,5
118011,216351,5
118018,216347,5
118020,216360,4
118022,216351,5
118035,216377,5
118038,216367,5
118038,216369,4
118037,216373,4
118039,216361,5
118038,216365,5
118053,216372,5
118035,216373,4
118040,216370,6
118042,216365,4
118045,216372,5
118050,216377,5
118045,216375,6
118060,216362,3
118051,216374,5
118042,216376,5
118042,216361,5
118044,216354,4
118044,216353,5
118051,216352,5
118043,216353,5
118037,216347,5
118037,216349,4
118032,216346,5
118043,216351,5
118029,216342,5
118028,216338,5
118031,216339,4
118031,216341,5
118032,216332,5
118026,216330,5
118024,216332,4
118026,216323,4
118021,216330,6
118016,216331,4
118024,216321,5
118018,216323,4
118021,216326,7
118034,216335,3
118027,216320,5
118030,216323,5
118036,216330,4
118042,216316,5
118048,216325,5
118033,216317,5
118033,216312,5
118027,216319,4
118039,216315,5
118034,216320,5
118031,216326,5
118040,216337,5
118037,216322,4
118031,216317,5
118036,216318,5
118029,216319,5
118033,216316,5
118038,216332,4
118034,216319,5
118031,216319,6
118035,216324,4
118029,216330,4
118046,216324,4
118038,216330,5
118056,216332,5
118047,216336,5
118054,216334,4
118051,216342,5
118050,216342,5
118050,216339,5
118046,216341,5
118064,216335,4
118045,216326,5
117868,216333,5
118058,216326,5
118045,216317,5
118049,216310,4
117685,216322,5
118045,216305,5
118050,216307,5
118056,216317,5
117627,216308,4
118053,216299,5
118045,216291,5
118043,216286,6
118119,216273,3
118036,216279,4
118036,216263,5
118032,216268,5
118422,216257,5
118024,216255,4
118024,216240,5
118014,216243,5
118413,216242,5
118009,216219,5
118010,216225,4
118009,216202,5
118142,216218,5
118002,216204,5
118001,216214,5
118004,216205,4
118011,216099,5
117993,216206,5
118000,216219,5
118004,216225,5
118010,215899,5
118011,216232,4
118008,216251,5
118021,216259,5
118020,215847,6
118024,216264,3
118023,216254,5
118022,216255,5
118022,216187,5
118010,216253,4
118019,216253,4
118009,216248,5
117994,216561,5
117993,216229,5
117991,216230,4
117997,216235,5
118009,216705,5
118014,216260,5
118006,216239,5
118018,216255,4
118020,216464,5
118024,216260,5
118009,216246,5
118010,216247,5
117998,216289,4
118008,216251,6
118011,216241,4
118012,216250,5
118028,216261,5
118017,216257,4
118036,216259,5
118029,216266,5
118040,216271,5
118040,216266,5
118042,216257,4
118040,216264,5
118051,216257,5
118058,216250,5
118047,216265,4
118048,216250,4
118042,216259,5
118050,216262,5
118049,216263,5
118055,216263,4
118066,216264,5
118076,216273,5
118074,216274,5
118077,216265,5
118085,216272,4
118079,216255,5
118083,216252,6
118086,216256,4
118084,216265,5
118091,216245,4
118080,216258,5
118086,216258,5
118084,216266,5
118095,216268,5
118087,216269,4
118096,216267,5
118094,216273,5
118103,216273,5
118101,216282,4
118118,216275,4
118112,216280,5
118117,216265,5
118110,216294,5
118138,216284,4
118148,216312,5
118156,216309,5
118156,216314,5
118169,216332,5
118162,216331,4
118178,216328,5
118173,216346,5
118175,216336,6
118187,216337,4
118189,216349,4
118185,216352,5
118190,216345,5
118183,216344,5
118190,216345,5
118200,216352,4
118214,216357,5
118215,216349,5
118204,216359,5
118212,216347,5
118211,216362,4
118222,216359,5
118222,216361,5
118228,216371,5
118230,216355,4
118236,216359,4
118224,216356,5
118221,216352,5
118219,216346,5
118219,216355,5
118222,216354,4
118213,216351,5
118214,216356,5
118225,216355,5
118189,216352,4
118219,216361,5
118225,216356,5
118219,216371,5
117937,216360,5
118218,216365,4
118222,216383,5
118216,216364,5
117809,216362,5
118207,216358,5
118191,216354,4
118183,216361,5
117954,216356,5
118171,216347,5
118164,216350,5
118166,216340,4
118393,216331,5
118130,216327,5
118131,216325,5
118126,216329,4
118577,216338,6
118152,216339,4
118145,216339,5
118151,216354,5
118412,216340,4
118149,216345,5
118133,216341,5
118119,216334,5
118186,216353,5
118123,216342,4
118119,216344,5
118123,216350,5
118109,216140,5
118114,216346,5
118096,216336,4
118107,216348,5
118107,215980,5
118113,216368,5
118113,216360,5
118119,216363,4
118113,215967,5
118105,216362,5
118094,216361,5
118095,216360,4
118111,216488,4
118107,216378,6
118110,216377,4
118108,216373,5
118119,216803,4
118116,216380,5
118109,216395,5
118110,216380,5
118104,216756,5
118092,216362,4
118079,216381,5
118070,216365,5
118076,216500,5
118080,216368,5
118079,216373,4
118079,216372,5
118078,216391,5
118073,216379,5
118069,216381,5
118077,216375,4
118068,216390,5
118071,216390,5
118073,216391,5
118074,216397,5
118083,216411,4
118077,216417,5
118080,216400,5
118076,216410,5
118082,216408,4
118076,216416,5
118074,216424,5
118076,216423,5
118072,216414,5
118072,216420,4
118071,216408,5
118062,216409,5
118047,216412,5
118046,216411,5
118037,216409,4
118040,216404,5
118030,216410,5
118015,216408,5
118007,216396,5
117997,216388,4
117994,216381,5
117980,216376,5
117972,216389,5
117952,216380,5
117946,216380,4
117949,216392,5
117949,216399,5
117936,216409,5
117931,216410,4
117934,216413,4
117912,216406,5
117904,216422,5
117893,216445,7
117901,216460,2
117901,216484,5
117913,216487,5
117910,216516,5
117900,216534,5
117896,216533,4
117893,216520,5
117896,216544,5
117899,216549,5
117898,216546,5
117879,216546,4
117887,216550,5
117894,216551,5
117901,216567,5
117912,216583,5
117927,216588,5
117952,216602,4
117951,216606,5
117956,216603,5
117965,216618,5
117970,216610,4
117972,216617,5
117987,216624,5
117985,216631,5
117981,216629,4
117985,216623,4
117992,216636,5
117992,216644,5
117985,216638,5
117984,216638,4
117980,216627,5
117979,216624,5
117985,216611,5
117976,216607,5
117981,216624,4
117988,216633,5
117851,216628,6
118013,216634,4
118000,216649,5
118002,216640,4
117647,216645,7
117994,216653,3
118004,216650,5
118003,216655,5
117585,216669,4
118008,216660,5
117998,216657,5
117994,216657,5
118012,216646,5
117985,216641,4
117982,216641,5
117976,216645,5
118326,216646,5
117974,216656,4
117970,216669,5
117969,216668,5
118398,216665,5
117965,216671,5
117970,216666,4
117959,216666,5
118120,216677,5
117970,216690,6
117959,216699,4
117973,216694,4
117996,216655,5
117988,216724,5
117989,216722,5
117989,216717,5
117997,216422,4
117993,216727,5
117993,216726,5
118005,216719,5
118004,216327,5
118004,216732,4
118013,216732,5
118021,216740,5
118019,216603,5
118037,216754,4
118030,216773,4
118031,216751,5
118033,217016,5
118038,216756,5
118029,216756,5
118037,216747,4
118034,217215,5
118040,216755,5
118047,216766,6
118046,216778,3
118052,217039,5
118058,216775,5
118059,216781,5
118064,216788,5
118074,216858,4
118083,216810,5
118088,216800,5
118082,216801,5
118094,216800,5
118085,216812,4
118087,216815,5
118087,216816,5
118064,216797,5
118063,216783,5
118062,216800,4
118067,216799,5
118068,216797,5
118080,216807,5
118090,216805,4
118100,216807,6
118118,216809,4
118120,216820,5
118118,216818,5
118117,216810,6
118125,216826,3
118137,216827,5
118157,216832,5
118152,216836,5
118165,216842,4
118175,216864,5
118189,216866,5
118198,216867,5
118201,216864,5
118206,216869,4
118217,216858,5
118220,216857,5
118225,216869,5
118236,216864,5
118247,216877,4
118253,216900,5
118266,216897,5
118282,216896,5
118289,216888,4
118287,216902,4
118303,216912,6
118310,216907,4
118322,216920,5
118333,216913,4
118330,216926,5
118333,216931,5
118328,216941,5
118330,216941,5
118326,216947,4
118342,216939,5
118359,216952,5
118362,216960,5
118365,216946,5
118365,216953,4
118371,216958,5
118375,216957,5
118376,216958,5
118369,216951,5
118375,216951,4
118369,216963,5
118381,216961,5
118384,216972,5
118381,216962,5
118393,216969,4
118407,216974,5
118402,216986,6
118419,216990,4
118421,216994,4
118419,216992,4
118422,216999,5
118422,217010,5
118436,216998,5
118428,217004,4
118430,216998,5
118435,217005,5
118431,217003,5
118432,216995,5
118424,216998,4
118433,216986,5
118432,216995,5
118430,216988,5
118194,216990,5
118442,216987,4
118441,216984,5
118445,216986,5
118036,216987,5
118443,216977,5
118447,216989,4
118455,216980,5
118186,217002,5
118474,217016,6
118474,217012,4
118467,217015,4
118675,217013,5
118453,217029,5
118460,217016,5
118455,217024,4
118885,217017,5
118438,217006,5
118416,216971,5
118416,216988,5
118701,216975,4
118420,216974,5
118419,216988,5
118428,216986,5
118516,216985,5
118443,216996,4
118435,216983,5
118436,216988,5
118429,216795,5
118435,216980,5
118431,216989,5
118439,216984,4
118443,216621,5
118436,216991,5
118440,216988,5
118436,216984,4
118441,216565,5
118446,216990,5
118434,216983,5
118423,216984,4
118440,217072,4
118433,216976,5
118436,216984,5
118434,216973,5
118425,217381,4
118426,216981,5
118423,216971,5
118426,216978,5
118436,217389,5
118431,216986,4
118426,216970,5
118422,216985,5
118419,217120,5
118415,216961,5
118409,216956,4
118411,216973,6
118405,216965,4
118402,216956,5
118391,216959,5
118398,216951,4
118392,216957,5
118382,216954,5
118378,216942,5
118380,216945,5
118376,216939,4
118391,216957,5
118381,216954,5
118389,216946,5
118386,216969,4
118387,216971,4
118397,216962,5
118394,216967,5
118399,216970,5
118398,216967,4
118397,216977,5
118388,216962,5
118385,216961,5
118384,216947,5
118356,216915,4
118342,216847,5
118315,216767,6
118280,216678,4
118259,216592,5
118230,216511,4
118213,216459,5
118204,216425,5
118182,216384,5
118175,216351,5
118172,216329,4
118175,216306,5
118187,216305,5
118207,216304,5
118201,216304,5
118212,216272,4
118213,216277,5
118204,216268,5
118196,216255,5
118205,216260,4
118191,216251,5
118199,216254,5
118192,216272,5
118191,216275,5
118184,216266,4
118203,216276,5
118200,216306,5
118205,216312,6
118192,216305,4
118182,216311,4
118189,216315,5
118179,216310,5
118193,216315,5
118178,216317,5
118188,216335,4
118194,216334,5
118197,216340,5
118200,216362,5
118203,216375,5
118195,216394,4
118208,216410,5
118200,216417,5
118209,216447,5
118224,216457,4
118217,216471,4
118233,216498,5
118245,216504,5
118260,216535,5
118263,216547,5
118268,216585,4
118250,216583,5
118241,216584,5
118218,216575,5
118190,216550,4
118149,216530,5
118004,216519,5
118088,216515,5
118081,216537,5
118096,216532,4
117768,216547,5
118081,216556,5
118083,216573,5
118086,216595,5
117671,216591,4
118093,216614,5
118095,216635,5
118089,216653,5
118047,216664,5
118115,216676,4
118128,216687,6
118131,216686,4
118450,216692,5
118141,216722,4
118147,216717,5
118143,216719,4
118577,216706,5
118126,216705,5
118124,216715,4
118125,216722,5
118326,216714,5
118132,216738,5
118145,216743,5
118152,216752,4
118187,216752,5
118151,216757,5
118143,216753,5
118150,216756,5
118150,216502,4
118157,216769,5
118171,216776,5
118168,216778,5
118174,216382,5
118185,216777,4
118178,216775,5
118188,216786,5
118199,216540,5
118218,216777,5
118224,216783,4
118245,216785,6
118247,217010,4
118258,216792,5
118262,216795,4
118262,216778,5
118274,217242,5
118276,216775,5
118279,216780,5
118282,216791,4
118285,217057,5
118286,216776,5
118291,216755,5
118296,216761,5
118301,216831,4
118311,216750,5
118321,216756,5
118329,216750,5
118332,216744,5
118342,216740,4
118344,216738,5
118356,216745,5
118356,216738,5
118363,216728,4
118366,216730,4
118364,216731,5
118365,216730,5
118361,216727,5
118367,216724,4
118353,216713,4
118365,216718,5
118353,216712,5
118357,216719,5
118355,216706,4
118350,216693,5
118353,216691,5
118354,216698,5
118357,216715,5
118350,216700,4
118365,216699,5
118351,216704,5
118351,216701,5
118353,216700,5
118361,216708,5
118364,216706,4
118362,216715,5
118348,216697,5
118367,216704,6
118376,216717,3
118370,216711,5
118372,216715,5
118370,216710,5
118368,216707,5
118368,216703,4
118367,216724,5
118367,216725,5
118368,216711,5
118349,216698,4
118337,216689,5
118322,216677,5
118322,216676,5
118317,216675,5
118317,216674,4
118320,216676,5
118327,216681,5
118324,216667,5
118329,216677,5
118326,216667,4
118324,216682,10
118339,216675,5
118325,216681,5
118332,216672,6
118340,216687,3
118336,216680,5
118344,216675,5
118330,216663,5
118331,216657,4
118328,216667,5
118321,216671,5
118330,216670,5
118320,216663,4
118313,216658,4
118310,216648,5
118312,216656,5
118300,216648,5
118299,216635,4
118293,216637,5
118288,216634,5
118298,216641,5
118300,216649,5
118303,216646,4
118294,216637,5
118296,216636,6
118285,216622,4
118293,216616,5
118078,216620,4
118294,216629,5
118305,216642,5
118307,216622,5
117924,216621,5
118298,216637,4
118306,216621,5
118304,216628,5
117912,216626,5
118303,216635,5
118301,216629,4
118302,216617,5
118412,216622,5
118287,216617,5
118300,216624,4
118293,216610,4
118694,216612,5
118281,216618,5
118273,216611,5
118277,216608,4
118628,216619,5
118286,216621,5
118292,216610,6
118292,216610,4
118402,216610,4
118295,216614,5
118296,216632,5
118292,216616,5
118314,216492,5
118300,216626,4
118296,216620,5
118290,216617,5
118286,216284,5
118282,216603,5
118278,216615,4
118285,216602,5
118290,216192,5
118283,216603,5
118277,216619,5
118273,216613,4
118272,216591,5
118250,216594,5
118216,216595,5
118161,216558,5
118109,216912,4
118077,216554,5
118039,216532,5
117984,216511,6
117943,216953,3
117905,216472,5
117879,216432,5
117842,216431,5
117813,216597,5
117798,216392,4
117789,216372,5
117766,216378,5
117763,216401,5
117763,216354,5
117760,216363,4
117777,216363,5
117784,216347,5
117787,216352,5
117807,216363,5
117801,216367,4
117816,216360,5
117834,216369,5
117853,216366,5
117865,216369,4
117876,216371,5
117885,216380,4
117894,216382,5
117919,216400,5
117931,216387,4
117950,216395,5
117955,216389,5
117978,216411,5
117988,216395,5
117998,216421,4
118012,216421,5
118006,216414,5
118011,216410,5
118004,216404,5
118008,216384,4
118008,216401,5
118011,216395,5
118024,216390,5
118023,216391,5
118027,216401,4
118044,216395,5
118043,216406,5
118047,216399,5
118046,216413,5
118053,216410,4
118063,216418,6
118074,216445,4
118089,216436,5
118094,216445,4
118112,216448,4
118105,216460,5
118099,216450,5
118095,216442,5
118099,216444,4
118087,216428,5
118071,216426,5
118073,216419,5
118074,216422,5
118067,216418,4
118065,216412,5
118068,216415,5
118068,216407,5
118083,216414,5
118082,216416,4
118078,216420,5
118081,216421,5
118078,216420,5
118078,216413,5
118072,216420,4
118081,216428,5
118081,216416,6
118081,216419,4
118075,216419,5
118074,216413,4
118066,216412,5
118067,216409,5
118083,216400,5
118064,216415,4
118065,216403,4
118059,216398,5
118064,216399,5
118064,216404,5
118066,216391,4
118048,216387,5
118040,216388,5
117992,216378,5
118038,216388,5
118047,216394,4
118027,216369,5
117734,216372,5
118022,216366,5
118013,216373,5
118018,216365,4
117598,216360,5
117998,216359,5
117998,216348,6
117987,216352,4
117827,216348,4
117975,216353,5
117981,216370,5
117981,216351,5
118247,216358,4
117982,216351,4
117969,216349,5
117967,216326,5
118408,216334,5
117958,216341,4
117957,216351,5
117955,216340,5
118208,216338,5
117961,216335,5
117968,216351,4
117965,216334,5
118006,216330,5
117965,216342,5
117962,216346,5
117956,216337,5
117962,216102,4
117951,216335,5
117959,216343,5
117945,216335,5
117948,215949,4
117942,216334,5
117946,216344,5
117939,216331,5
117947,216011,5
117928,216319,5
117924,216320,4
117923,216327,5
117920,216494,5
117914,216330,4
117925,216320,4
117918,216322,5
117925,216751,5
117919,216313,5
117913,216317,4
117916,216307,5
117914,216634,5
117917,216317,5
117907,216302,5
117909,216288,4
117905,216386,6
117889,216274,4
117897,216285,5
117892,216282,5
117888,216285,4
117886,216284,5
117883,216264,5
117875,216273,5
117876,216269,5
117878,216265,4
117866,216258,5
117871,216266,5
117870,216245,5
117872,216257,5
117865,216254,4
117860,216241,5
117866,216239,5
117863,216234,5
117864,216238,4
117866,216246,5
117875,216246,5
117871,216252,5
117873,216231,5
117867,216231,4
117860,216225,5
117872,216219,6
117867,216231,4
117854,216226,5
117857,216222,4
117866,216230,5
117858,216214,5
117847,216199,5
117848,216200,5
117847,216214,4
117838,216205,5
117845,216204,5
117850,216208,5
117846,216223,5
117848,216199,4
117843,216201,5
117833,216192,5
117830,216194,5
117837,216194,4
117831,216181,4
117820,216176,5
117824,216176,5
117824,216180,5
117825,216180,4
117835,216185,5
117838,216184,5
117848,216186,5
117843,216195,5
117852,216194,4
117852,216194,5
117846,216181,5
117842,216195,5
117851,216185,5
117860,216191,4
117856,216186,5
117865,216199,5
117870,216203,5
117874,216215,5
117868,216206,4
117876,216207,5
117880,216206,5
117876,216204,5
117880,216204,5
117884,216205,4
117882,216204,4
117883,216199,5
117887,216205,5
117880,216182,5
117874,216188,3
117867,216200,5
117893,216205,5
117869,216178,5
117887,216185,4
117877,216183,5
117881,216179,5
117875,216181,5
117887,216180,5
117721,216183,4
117870,216167,5
117888,216173,5
117869,216175,5
117533,216172,5
117883,216178,4
117887,216169,5
117896,216187,5
117480,216188,5
117909,216178,5
117911,216184,4
117911,216182,6
117945,216176,4
117902,216171,5
117910,216175,5
117903,216164,6
118270,216166,3
117907,216172,5
117911,216175,5
117924,216177,4
118347,216199,4
117932,216189,5
117935,216194,5
117942,216198,5
118098,216210,4
117947,216199,5
117960,216212,5
117951,216208,5
117981,216170,5
117972,216216,4
117954,216230,5
117969,216229,5
117964,215931,5
117971,216233,5
117978,216225,4
117986,216234,5
117985,215815,6
117992,216221,4
117990,216227,5
117988,216229,4
117999,216088,5
117999,216242,5
118006,216246,5
117999,216231,4
118001,216527,4
117996,216233,5
117998,216219,5
117997,216222,5
117998,216673,4
117995,216228,5
118005,216216,5
117997,216210,5
117995,216475,5
118004,216220,4
118008,216213,5
118008,216205,5
118006,216261,5
118014,216204,5
118002,216213,4
118007,216222,5
118008,216231,5
118018,216227,6
118024,216232,4
118040,216249,4
118048,216250,5
118052,216258,5
118039,216246,5
118034,216231,5
118033,216232,4
118023,216232,5
118026,216232,5
118021,216231,5
118008,216222,4
118008,216206,4
118002,216208,5
118012,216199,5
117996,216215,5
118005,216206,4
118012,216206,5
118007,216206,5
118007,216218,5
118010,216224,5
118012,216225,5
118021,216226,4
118018,216225,5
118028,216235,5
118031,216238,6
118041,216264,3
118050,216249,5
118064,216261,5
118065,216259,5
118078,216250,5
118074,216259,4
118079,216260,5
118079,216267,5
118086,216279,5
118089,216256,5
118086,216261,4
118083,216270,5
118084,216268,5
118080,216269,5
118089,216273,4
118086,216270,5
118095,216282,5
118101,216272,5
118112,216296,5
118104,216274,4
118117,216282,6
118109,216290,4
118112,216295,5
118117,216302,5
118115,216298,6
118115,216283,3
118118,216289,5
118113,216292,5
118116,216299,5
118113,216295,4
118108,216275,5
118076,216254,5
118054,216247,5
118031,216225,8
118007,216202,1
117989,216196,5
117969,216174,5
117952,216187,5
117971,216196,5
117979,216203,4
117989,216220,5
117998,216232,5
118008,216226,5
118014,216249,4
118011,216235,5
118009,216239,6
118007,216250,4
118005,216239,5
118013,216245,4
118001,216231,5
117772,216240,5
117998,216235,5
118001,216233,5
118003,216222,4
117603,216221,5
117989,216215,5
117991,216225,5
118005,216226,5
117691,216217,4
117987,216223,5
117987,216220,5
118002,216219,5
118176,216222,5
117985,216218,4
117997,216218,5
117999,216215,5
118419,216216,5
118001,216215,4
118013,216221,4
118009,216221,5
118323,216222,6
118014,216217,4
118022,216223,4
118010,216227,5
118108,216212,5
118019,216225,5
118022,216228,5
118040,216226,4
118045,216064,5
118061,216253,5
118065,216261,5
118074,216256,5
118088,215920,4
118097,216290,5
118107,216272,5
118103,216298,5
118095,215870,5
118105,216291,5
118096,216292,4
118082,216276,5
118077,216321,5
118079,216283,5
118074,216265,4
118066,216254,5
118047,216635,5
118060,216245,6
118061,216255,3
118067,216262,4
118076,216700,5
118085,216268,5
118081,216259,5
118095,216265,4
118100,216439,5
118085,216255,5
118084,216254,5
118096,216267,5
118083,216287,4
118098,216268,5
118103,216282,5
118118,216287,5
118121,216316,5
118125,216304,4
118123,216313,5
118125,216324,5
118123,216318,5
118113,216324,5
118117,216324,5
118114,216323,4
118112,216338,5
118123,216331,5
118127,216326,5
118123,216333,4
118125,216347,5
118124,216340,5
118136,216346,5
118151,216355,4
118152,216372,5
118156,216359,5
118159,216354,5
118151,216354,5
118166,216365,4
118174,216365,5
118164,216366,5
118179,216364,5
118184,216367,5
118172,216360,4
118186,216362,5
118194,216375,5
118206,216385,5
118222,216394,5
118221,216392,4
118221,216397,6
118229,216399,4
118231,216402,5
118242,216407,5
118249,216424,4
118259,216428,5
118276,216435,5
118295,216453,5
118305,216469,4
118308,216464,4
118303,216459,5
118311,216467,5
118305,216459,5
118310,216473,4
118309,216456,5
118308,216471,5
118305,216450,5
118317,216460,5
118319,216471,4
118310,216460,5
118316,216464,5
118312,216467,5
118314,216463,5
118313,216461,4
118319,216453,5
118307,216465,6
118307,216454,4
118314,216468,5
118323,216469,4
118319,216452,5
118327,216465,5
118320,216470,5
118336,216471,5
118333,216479,4
118342,216492,5
118347,216486,5
118353,216498,5
118357,216517,4
118371,216526,4
118374,216527,5
118363,216522,5
118366,216543,5
118241,216542,4
118366,216542,5
118362,216523,5
118356,216516,5
118008,216514,5
118349,216508,4
118338,216526,5
118356,216533,5
117944,216521,5
118362,216533,5
118364,216542,4
118361,216534,5
118339,216544,5
118366,216536,5
118357,216534,5
118351,216539,4
118697,216544,5
118367,216539,5
118360,216545,5
118356,216542,4
118799,216551,4
118349,216551,5
118347,216534,5
118346,216535,5
118508,216527,4
118318,216520,6
118319,216528,4
118325,216532,5
118354,216493,5
118327,216529,6
118328,216539,3
118332,216538,5
118330,216256,5
118346,216548,5
118343,216538,4
118345,216541,5
118344,216131,5
118336,216545,5
118336,216544,5
118330,216540,4
118337,216369,5
118317,216520,5
118318,216514,5
118312,216498,5
118315,216788,4
118314,216518,5
118320,216502,5
118317,216500,5
118307,216968,4
118329,216508,4
118315,216505,5
118326,216503,5
118321,216768,5
118335,216503,4
118346,216510,6
118346,216526,4
118364,216580,5
118373,216534,5
118382,216546,4
118386,216558,5
118390,216550,5
118396,216557,5
118405,216564,5
118401,216561,4
118406,216553,5
118410,216558,5
118397,216561,5
118404,216569,5
118396,216556,4
118405,216566,5
118400,216563,5
118406,216569,5
118387,216553,5
118403,216567,4
118401,216563,5
118390,216560,6
118397,216537,4
118397,216556,4
118407,216551,5
118411,216565,5
118410,216560,5
118419,216563,5
118421,216569,4
118423,216572,5
118433,216562,5
118431,216581,5
118433,216594,5
118448,216601,4
118445,216604,5
118449,216606,5
118446,216595,5
118437,216605,5
118446,216599,4
118432,216601,5
118431,216608,5
118431,216580,5
118411,216576,5
118394,216574,4
118379,216557,5
118384,216559,5
118387,216569,6
118387,216562,3
118390,216555,4
118390,216557,5
118384,216558,5
118376,216556,5
118375,216563,4
118366,216560,5
118373,216563,5
118367,216563,5
118371,216558,5
118376,216569,4
118373,216559,5
118370,216562,5
118367,216553,5
118363,216561,5
118366,216553,4
118353,216550,5
118341,216548,5
118333,216543,5
118331,216544,5
118331,216539,5
118319,216529,4
118313,216515,5
118323,216535,5
118325,216532,6
118332,216521,3
118314,216534,5
118326,216533,5
118327,216542,5
118330,216534,4
118328,216537,4
118324,216531,5
118316,216531,5
118325,216527,5
118319,216528,4
118311,216521,5
118055,216517,5
118310,216535,5
118318,216528,5
118312,216537,4
117914,216525,5
118311,216525,5
118289,216528,5
118298,216524,5
118035,216522,4
118302,216516,6
118293,216518,4
118292,216522,5
118512,216534,5
118296,216529,6
118297,216523,3
118310,216545,5
118739,216524,5
118316,216527,5
118320,216534,4
118325,216528,5
118622,216531,5
118322,216549,5
118334,216542,4
118347,216551,5
118441,216560,5
118356,216567,5
118351,216549,5
118349,216540,4
118355,216363,5
118349,216544,5
118344,216553,5
118350,216550,5
118342,216190,4
118341,216555,5
118342,216539,6
118336,216553,4
118342,216136,5
118341,216548,5
118350,216547,4
118328,216526,5
118338,216640,5
118335,216540,5
118342,216541,4
118346,216544,5
118338,216940,5
118349,216542,5
118334,216535,4
118335,216527,4
118334,216932,5
118339,216529,5
118327,216522,5
118326,216527,4
118320,216660,5
118331,216529,5
118322,216521,5
118335,216512,5
118331,216529,4
118323,216516,5
118334,216516,5
118328,216519,6
118337,216534,4
118342,216530,4
118333,216522,5
118339,216537,5
118349,216538,5
118350,216541,5
118353,216544,4
118346,216538,5
118359,216542,5
118345,216547,5
118354,216547,5
118349,216538,4
118346,216518,5
118322,216509,5
118311,216512,5
118308,216515,4
118302,216516,4
118301,216501,5
118306,216500,5
118312,216511,5
118307,216504,5
118314,216515,4
118309,216516,5
118317,216510,5
118305,216517,6
118315,216509,3
118312,216517,5
118308,216522,5
118319,216509,5
118317,216511,5
118320,216521,4
118313,216519,5
118317,216521,5
118328,216515,5
118317,216520,5
118313,216513,4
118320,216508,5
118316,216516,5
118316,216532,5
118313,216521,5
118307,216516,4
118315,216520,5
118300,216505,5
118296,216504,5
118298,216508,4
118299,216514,6
118294,216509,4
118299,216502,5
118307,216522,5
118297,216511,4
118306,216506,5
118297,216508,5
118296,216497,5
118290,216508,5
118293,216496,4
118298,216488,5
118299,216487,5
118296,216490,5
118307,216499,5
118304,216498,4
118305,216505,5
118305,216509,5
118308,216515,5
118305,216511,5
118316,216521,4
118317,216508,5
118308,216511,5
118317,216497,5
118309,216503,4
118309,216511,4
118303,216500,11
118303,216500,4
118303,216498,4
118304,216502,5
117972,216518,5
118312,216504,5
118307,216502,5
118307,216508,4
117897,216516,5
118320,216514,5
118322,216507,5
118320,216521,5
118314,216516,4
118317,216514,5
118316,216506,5
118323,216509,5
118661,216513,5
118318,216506,4
118315,216507,5
118310,216512,5
118757,216503,5
118306,216491,5
118308,216501,4
118304,216500,5
118473,216504,6
118308,216507,4
118301,216511,4
118305,216509,5
118327,216436,5
118302,216497,5
118291,216492,5
118296,216495,4
118285,216204,5
118285,216485,5
118277,216482,5
118273,216478,5
118269,216074,4
118262,216470,5
118258,216484,5
118253,216468,5
118259,216315,5
118255,216477,4
118255,216470,5
118251,216464,5
118243,216751,5
118244,216450,5
118228,216446,4
118229,216434,5
118214,216884,5
118214,216421,5
118207,216416,4
118196,216422,4
118201,216649,5
118203,216410,5
118190,216403,5
118204,216420,4
118206,216464,5
118203,216405,5
118198,216412,5
118201,216420,5
118214,216424,4
118210,216424,5
118208,216427,5
118210,216420,5
118213,216431,5
118212,216446,4
118206,216439,5
118203,216441,5
118201,216438,5
118190,216424,5
118186,216416,5
118176,216392,4
118149,216373,5
118133,216366,5
118134,216368,5
118128,216357,4
118122,216359,5
118124,216357,5
118126,216357,5
118122,216367,4
118126,216367,5
118132,216355,5
118119,216355,5
118127,216359,5
118129,216358,4
118118,216359,5
118133,216373,5
118131,216363,5
118128,216367,5
118137,216365,4
118138,216366,5
118121,216361,5
118138,216354,5
118127,216368,5
118130,216342,4
118121,216354,6
118118,216345,4
118118,216345,5
118093,216345,5
118084,216335,4
118090,216323,5
118086,216326,5
118073,216305,5
118067,216305,4
118048,216302,4
118059,216313,5
118058,216310,5
118051,216304,5
118039,216302,4
118024,216295,5
118027,216288,5
118012,216275,5
118007,216269,5
118008,216268,4
118016,216268,5
118001,216271,5
118014,216265,5
117994,216264,5
117989,216264,4
117989,216270,5
117985,216253,5
117974,216255,5
117987,216264,5
117972,216257,4
117976,216270,5
117970,216263,5
117982,216276,5
117975,216264,5
117975,216272,4
117982,216263,5
117973,216279,5
117966,216256,5
117971,216249,4
117958,216254,4
117980,216266,5
117974,216256,5
117984,216267,5
117712,216259,4
117982,216272,4
117987,216270,5
118000,216269,5
117583,216254,6
117976,216244,3
117975,216234,5
117980,216229,5
117760,216218,5
117974,216213,5
117977,216209,4
117976,216206,5
118210,216184,5
117969,216178,5
117959,216181,5
117961,216178,4
118402,216172,5
117973,216161,5
117984,216163,5
117989,216166,4
118264,216161,4
117988,216157,5
117999,216157,5
117998,216154,5
118069,216145,4
118006,216138,6
118002,216135,4
118015,216123,5
118009,215914,5
117999,216128,6
118007,216120,3
118002,216098,5
118001,215713,5
117999,216094,5
117995,216095,4
117996,216096,5
117999,215697,5
117991,216071,5
117990,216065,5
117996,216060,5
117996,216188,4
117994,216050,5
117991,216046,5
117989,216038,5
117990,216444,4
117996,216010,5
117996,216018,5
118009,216015,5
118021,216375,4
118034,216023,4
118041,216020,6
118050,216026,4
118050,216145,5
118067,216029,4
118075,216050,7
118084,216052,3
118091,216057,5
118084,216041,5
118096,216033,4
118100,216032,5
118098,216027,5
118078,216013,5
118078,216003,5
118073,216002,4
118068,215987,5
118049,215976,5
118050,215961,5
118045,215942,5
118042,215953,4
118055,215953,5
118070,215952,5
118080,215959,5
118094,215963,5
118110,215968,4
118108,215955,5
118118,215956,6
118127,215969,4
118131,215947,4
118129,215954,5
118146,215953,5
118151,215949,5
118162,215966,5
118175,215967,4
118167,215975,5
118175,215985,5
118178,215986,5
118176,215963,5
118169,215974,4
118166,215965,5
118178,215970,5
118176,215969,5
118177,215967,5
118171,215980,4
118163,215961,5
118168,215984,5
118158,215980,5
118152,215984,5
118162,215989,4
118146,216000,5
118158,216007,5
118147,216022,6
118138,216020,3
118136,216028,4
118128,216028,5
118104,216015,5
118103,216020,5
118103,216015,4
118096,216026,5
118080,216029,5
118085,216030,5
118092,216016,5
118084,216040,4
118081,216032,5
118066,216038,5
118065,216042,5
118066,216035,5
118074,216043,4
118073,216039,5
118068,216049,5
118076,216042,5
118069,216058,5
118063,216062,5
118076,216067,4
118080,216075,5
118082,216080,5
118080,216080,6
118076,216081,3
118078,216079,5
118082,216088,5
118066,216065,5
118075,216102,4
118075,216087,4
118062,216092,5
117912,216095,5
118054,216093,5
118055,216081,4
118057,216092,5
117717,216089,5
118053,216079,5
118053,216081,5
118058,216089,4
117642,216088,5
118059,216091,5
118067,216081,5
118064,216089,5
118087,216078,4
118060,216091,6
118060,216075,4
118065,216087,5
118422,216100,5
118067,216084,4
118061,216083,5
118066,216069,5
118499,216084,5
118067,216069,5
118056,216064,4
118058,216072,5
118227,216089,5
118062,216078,5
118061,216080,4
118061,216070,4
118089,216015,5
118069,216098,5
118076,216081,5
118072,216083,4
118081,215807,5
118079,216109,5
118092,216105,5
118094,216116,5
118096,215711,4
118098,216122,5
118097,216118,6
118093,216112,4
118088,215968,5
118090,216106,4
118085,216086,5
118070,216088,5
118066,216366,5
118068,216084,5
118058,216074,4
118068,216083,5
118079,216537,5
118072,216105,5
118075,216096,5
118083,216115,4
118094,216362,5
118083,216115,5
118085,216134,5
118085,216136,4
118082,216197,4
118087,216141,5
118106,216152,5
118088,216165,5
118093,216153,4
118099,216169,5
118094,216158,5
118091,216161,6
118095,216150,4
118085,216144,4
118079,216145,5
118091,216151,5
118086,216143,5
118087,216149,5
118077,216144,4
118078,216138,5
118073,216152,5
118078,216149,5
118079,216151,5
118083,216149,4
118066,216137,5
118070,216150,5
118086,216148,5
118093,216148,5
118078,216157,4
118085,216144,5
118077,216148,5
118077,216145,5
118088,216132,5
118085,216140,4
118079,216147,5
118090,216135,5
118085,216143,5
118094,216131,4
118091,216127,5
118078,216134,5
118093,216131,5
118088,216129,5
118094,216130,4
118104,216131,5
118101,216148,5
118114,216153,5
118128,216169,5
118139,216181,4
118155,216174,5
118149,216180,5
118158,216183,5
118167,216190,5
118165,216192,4
118167,216204,5
118157,216204,5
118161,216189,5
118179,216199,4
118171,216201,5
118170,216204,4
118185,216194,5
118173,216198,5
118173,216198,4
118171,216203,5
118173,216188,5
118184,216201,5
118180,216192,5
118178,216198,4
118185,216193,5
118175,216192,5
118181,216192,5
118184,216191,5
118170,216194,4
118176,216202,5
118194,216209,5
118199,216213,5
118188,216216,5
118202,216226,4
118200,216234,5
118209,216236,5
118207,216233,5
118213,216246,5
118208,216254,4
118223,216264,6
118219,216265,4
118220,216268,5
117980,216266,4
118225,216274,4
118219,216272,5
118204,216274,5
117793,216250,5
118173,216262,4
118156,216241,5
118133,216225,5
117810,216200,5
118101,216209,5
118104,216214,8
118100,216211,1
118284,216222,5
118106,216226,5
118104,216235,5
118107,216227,4
118540,216229,5
118113,216239,5
118117,216250,5
118120,216255,5
118431,216267,4
118143,216282,5
118152,216292,6
118148,216293,4
118241,216297,5
118148,216305,4
118133,216305,5
118132,216310,5
118128,216130,5
118125,216306,4
118118,216318,4
118140,216311,5
118144,215961,5
118135,216325,5
118136,216334,4
118134,216326,5
118134,215913,5
118134,216340,5
118138,216340,5
118141,216337,5
118145,216420,4
118146,216349,5
118143,216349,5
118154,216356,6
118155,216761,3
118155,216368,5
118167,216378,5
118161,216374,5
118164,216775,5
118165,216364,4
118161,216366,5
118176,216379,5
118173,216522,5
118165,216370,5
118175,216379,4
118177,216392,5
118183,216396,5
118189,216387,5
118184,216400,4
118198,216381,5
118183,216393,5
118200,216404,5
118213,216401,5
118221,216406,4
118231,216407,5
118228,216414,5
118250,216415,5
118254,216430,5
118265,216423,5
118277,216436,3
118281,216436,5
118275,216439,5
118278,216447,5
118294,216435,4
118285,216446,5
118283,216457,5
118272,216442,5
118277,216436,5
118278,216452,4
118279,216433,5
118273,216446,5
118266,216450,5
118272,216434,4
118264,216451,4
118265,216452,5
118266,216434,5
118251,216439,5
118258,216432,4
118255,216443,5
118259,216431,6
118254,216436,4
118250,216429,5
118256,216451,4
118254,216440,7
118258,216435,3
118257,216432,5
118251,216442,5
118247,216456,4
118246,216459,5
118237,216448,5
118232,216455,5
118228,216455,5
118233,216450,4
118225,216437,5
118190,216429,5
118183,216430,5
118192,216430,5
118189,216436,4
118195,216433,5
118198,216445,5
118203,216447,5
118230,216458,4
118222,216464,4
118225,216459,5
118220,216465,6
118226,216465,4
118215,216464,4
118230,216491,5
118226,216490,5
118232,216516,5
118243,216515,5
118244,216541,4
118255,216550,5
118249,216566,5
118271,216588,5
118271,216601,5
118266,216614,4
118273,216639,5
118272,216657,5
118272,216649,5
118271,216648,5
118264,216663,4
118259,216663,5
118143,216679,5
118262,216699,5
118280,216713,5
118279,216733,4
117956,216747,5
118282,216757,5
118280,216768,6
118271,216789,3
117847,216788,4
118253,216795,5
118249,216803,5
118258,216807,5
118214,216812,4
118259,216817,5
118249,216815,5
118258,216807,5
118571,216811,5
118240,216793,4
118243,216806,5
118239,216794,5
118698,216802,5
118262,216798,5
118274,216807,4
118273,216807,5
118478,216803,5
118302,216816,5
118303,216819,5
118317,216819,5
118350,216791,4
118314,216816,5
118305,216803,5
118310,216818,6
118314,216532,3
118312,216812,5
118306,216820,5
118319,216825,5
118304,216407,4
118309,216809,5
118313,216815,5
118308,216809,5
118303,216586,5
118320,216815,4
118305,216815,5
118316,216808,5
118307,217044,5
118310,216794,5
118302,216802,4
118310,216799,5
118307,217239,5
118311,216797,5
118314,216807,5
118322,216817,4
118330,217079,6
118323,216802,4
118326,216810,5
118335,216811,5
118325,216881,4
118343,216829,5
118350,216827,5
118354,216845,5
118358,216858,4
118361,216846,4
118343,216838,5
118358,216861,5
118355,216839,5
118358,216850,4
118347,216837,5
118330,216812,5
118314,216809,5
118308,216804,5
118303,216802,4
118294,216796,5
118301,216814,5
118288,216794,5
118284,216815,5
118280,216806,4
118274,216791,5
118278,216802,6
118279,216795,4
118277,216799,5
118270,216790,4
118271,216804,5
118272,216804,5
118260,216798,5
118261,216799,5
118266,216788,4
118264,216803,5
118269,216815,5
118271,216809,5
118260,216796,4
118260,216800,4
118249,216794,5
118254,216817,5
118256,216819,5
118253,216820,4
118252,216821,5
118243,216830,5
118249,216825,5
118247,216829,5
118252,216841,4
118258,216856,5
118264,216866,5
118249,216885,6
118245,216879,4
118241,216866,4
118223,216859,5
118212,216853,5
118220,216858,5
118214,216850,5
118212,216856,4
118215,216864,5
118197,216854,5
118194,216859,5
118190,216857,4
118182,216843,4
118191,216842,5
118180,216829,5
118187,216841,5
118175,216824,4
118186,216822,5
118176,216818,5
118186,216835,5
118185,216829,5
118185,216830,5
118206,216854,4
118196,216841,5
118207,216837,5
118200,216849,5
118209,216860,4
118210,216857,5
118217,216853,5
118224,216866,5
118223,216857,5
118215,216843,4
118221,216855,5
118218,216850,5
118211,216850,5
117975,216853,5
118209,216849,4
118205,216836,5
118204,216837,5
117823,216842,5
118211,216839,4
118209,216845,4
118211,216832,5
117881,216842,5
118232,216834,5
118235,216832,4
118254,216836,6
118407,216819,4
118264,216822,5
118259,216826,5
118269,216805,4
118678,216815,5
118285,216817,5
118282,216822,5
118297,216809,5
118615,216793,4
118295,216797,5
118287,216790,5
118297,216785,5
118396,216781,5
118289,216789,4
118294,216764,5
118297,216769,5
118306,216616,5
118312,216770,5
118329,216778,4
118327,216779,5
118324,216433,5
118328,216795,5
118340,216801,4
118343,216799,5
118349,216386,6
118351,216792,4
118351,216793,5
118362,216810,5
118372,216861,4
118373,216816,5
118357,216803,5
118349,216795,5
118352,217173,4
118339,216800,5
118341,216798,5
118340,216774,5
118319,217210,5
118307,216764,4
118307,216742,5
118294,216753,5
118304,216899,5
118310,216755,5
118296,216735,4
118299,216744,5
118294,216760,5
118296,216732,5
118277,216753,4
118271,216733,4
118283,216741,5
118280,216743,6
118276,216727,4
118275,216738,4
118269,216741,5
118280,216742,5
118269,216746,5
118269,216749,5
118269,216738,4
118264,216745,5
118269,216731,5
118258,216730,5
118260,216719,5
118248,216720,4
118246,216718,5
118249,216713,5
118249,216711,5
118247,216699,5
118243,216709,4
118235,216690,5
118233,216689,5
118240,216695,5
118240,216705,5
118237,216699,4
118239,216696,5
118238,216699,5
118239,216671,5
118245,216692,4
118237,216672,4
118236,216683,5
118242,216682,5
118245,216694,5
118252,216697,4
118249,216681,5
118244,216679,5
118240,216675,5
118237,216676,5
118237,216659,4
118233,216657,5
118229,216651,5
118227,216658,5
118233,216656,5
118224,216661,4
118228,216656,5
118227,216659,5
118235,216668,5
118237,216654,5
118237,216660,5
118242,216647,4
118248,216662,5
118245,216661,5
118260,216668,5
118245,216678,4
118253,216664,5
118265,216659,5
118258,216655,5
118264,216656,4
118257,216654,4
118264,216663,5
118265,216658,5
118271,216646,5
118267,216657,4
118275,216656,5
118276,216644,5
118284,216638,5
118282,216660,5
118284,216644,4
118281,216654,5
118288,216651,5
118279,216643,5
118288,216640,5
118270,216640,4
118278,216632,6
118184,216625,4
118283,216632,5
118282,216641,5
118287,216632,4
117963,216634,5
118273,216632,5
118275,216623,5
118278,216617,5
117864,216615,4
118274,216622,5
118280,216623,5
118280,216611,5
118186,216603,4
118280,216613,5
118282,216613,5
118269,216606,5
118574,216598,5
118282,216604,4
118278,216599,5
118272,216591,5
118701,216597,6
118260,216590,4
118257,216575,4
118255,216577,5
118463,216570,5
118254,216574,7
118260,216572,3
118258,216583,4
118296,216567,5
118261,216582,5
118257,216581,5
118257,216582,5
118256,216314,4
118250,216577,5
118249,216580,5
118264,216576,5
118270,216201,4
118291,216598,4
118307,216598,5
118292,216611,5
118306,216332,5
118286,216588,5
118290,216586,4
118270,216583,5
118280,216798,5
118270,216561,6
118265,216553,3
118255,216547,5
118244,216984,5
118246,216539,5
118236,216535,5
118243,216540,4
118240,216855,5
118258,216548,5
118254,216542,5
118258,216536,5
118249,216632,4
118254,216540,5
118261,216544,5
118264,216538,5
118265,216536,5
118261,216537,4
118257,216539,5
118251,216535,5
118263,216542,5
118251,216533,4
118256,216530,5
118261,216546,4
118253,216537,5
118241,216525,5
118242,216524,6
118238,216519,3
118233,216522,5
118213,216507,5
118220,216503,5
118207,216516,4
118205,216485,5
118210,216498,5
118197,216489,5
118207,216485,5
118197,216487,4
118200,216481,5
118209,216484,5
118203,216489,5
118196,216503,5
118198,216491,4
118191,216476,5
118188,216468,5
118185,216469,5
118176,216466,5
118168,216461,4
118181,216464,6
118166,216456,4
118155,216447,5
118144,216440,4
118150,216445,5
118141,216445,5
118131,216439,5
118134,216444,5
118129,216443,4
118123,216440,5
118124,216438,5
118126,216440,5
118121,216440,5
118120,216430,4
118114,216432,5
118112,216426,5
118130,216446,5
118113,216446,5
118113,216450,4
118104,216441,5
118115,216424,5
118108,216449,5
118115,216420,5
118103,216426,4
118107,216434,5
118101,216430,6
118104,216417,4
118096,216421,4
118090,216415,4
118088,216405,5
118085,216407,5
118087,216396,5
118083,216411,4
118089,216384,5
118078,216372,5
118072,216385,5
118067,216372,5
118073,216359,4
118069,216350,5
118062,216346,5
118061,216334,5
118056,216330,5
118040,216318,4
118046,216304,5
118043,216289,5
118039,216281,5
117805,216261,5
118031,216249,4
118022,216242,5
118029,216241,5
117642,216230,6
118024,216229,4
118021,216223,4
118015,216220,5
117659,216231,5
118005,216213,5
118007,216197,4
117998,216191,4
118167,216182,5
118001,216176,5
118009,216177,5
118001,216165,4
118409,216168,5
117996,216149,5
117987,216136,5
117992,216122,5
118316,216111,4
117973,216103,5
117975,216073,5
117978,216092,5
118082,216055,5
117986,216067,5
117971,216052,4
117959,216045,5
117973,215891,5
117975,216039,6
117978,216036,3
117974,216022,5
117980,215672,5
117987,216017,5
117986,216006,5
117978,215985,4
117982,215565,5
117983,215992,5
117992,215985,5
117968,215957,5
117960,215989,4
117949,215936,5
117971,215932,5
117966,215937,5
117967,216314,4
117969,215932,5
117979,215924,5
117987,215939,5
117976,216373,5
117996,215932,4
117979,215930,6
117986,215936,4
117987,216100,5
117994,215930,5
117995,215941,4
117995,215942,5
117998,215969,5
117996,215945,5
118003,215955,5
118001,215954,4
118002,215958,5
117999,215962,5
117992,215954,5
117993,215951,4
117997,215947,4
117996,215942,5
117989,215956,5
117985,215935,5
117986,215937,4
117981,215938,5
117981,215933,5
117975,215943,5
117983,215938,5
117992,215941,4
117998,215955,5
117994,215937,6
117997,215942,4
117996,215939,5
117992,215925,4
117986,215929,5
117980,215930,5
117985,215940,5
117987,215952,5
117991,215937,4
117996,215932,5
117997,215943,5
118005,215951,5
118004,215940,5
118012,215938,4
118006,215944,5
118012,215936,5
118011,215933,5
118006,215940,4
118008,215937,4
118011,215936,5
118016,215956,5
118019,215946,5
118024,215946,4
118016,215952,5
118021,215965,5
118022,215964,6
118029,215960,4
118037,215973,4
118033,215978,5
118031,215983,5
118046,215975,5
118041,215982,5
118044,215984,4
118039,215980,5
118041,215968,5
118042,215979,5
118048,215975,5
118059,215975,4
118059,215997,5
118053,215985,5
118068,216002,5
118065,215994,5
118068,215997,4
118079,216000,5
118080,215993,5
118073,216001,5
118085,215998,5
118083,216012,4
118077,216011,5
118081,216002,5
118067,215999,5
118073,215997,4
118069,216008,5
118075,216006,5
118079,215993,5
118062,215999,5
118063,215982,4
118073,215988,5
117946,215995,5
118065,215997,5
118070,215979,5
118068,215998,4
117741,215993,5
118087,216017,5
118095,216027,5
118115,216026,5
117709,216048,4
118125,216031,5
118128,216042,5
118131,216045,5
118124,216052,4
118137,216039,5
118136,216049,4
118128,216036,5
118461,216042,5
118120,216033,4
118099,216016,5
118099,216022,5
118551,216021,5
118100,216004,5
118114,216020,4
118110,216021,5
118292,216028,5
118124,216031,5
118118,216026,5
118118,216035,4
118151,215982,5
118133,216032,5
118132,216042,5
118142,216048,5
118146,215770,4
118159,216048,5
118159,216056,5
118157,216070,5
118162,215654,5
118165,216062,4
118156,216053,6
118165,216060,4
118167,215885,5
118161,216065,4
118173,216068,4
118173,216078,5
118165,216338,5
118165,216067,5
118166,216055,4
118159,216060,5
118174,216521,5
118167,216072,5
118167,216070,5
118160,216054,4
118153,216324,5
118169,216076,5
118158,216071,5
118166,216049,5
118164,216125,4
118161,216065,5
118158,216056,5
118170,216063,6
118180,216066,4
118192,216076,4
118190,216080,5
118199,216088,5
118210,216079,5
118200,216086,5
118198,216077,4
118203,216077,5
118200,216084,5
118204,216090,5
118214,216096,4
118215,216103,5
118218,216099,5
118227,216101,5
118232,216113,5
118234,216123,4
118242,216121,5
118242,216138,5
118232,216124,5
118251,216129,5
118244,216127,4
118247,216139,4
118266,216139,5
118266,216151,5
118272,216151,6
118271,216150,3
118275,216152,5
118281,216148,5
118281,216156,5
118282,216141,5
118276,216147,4
118284,216144,5
118290,216140,5
118287,216151,5
118282,216140,4
118300,216147,4
118293,216151,5
118297,216156,5
118296,216156,5
118292,216162,4
118303,216161,5
118292,216177,5
118309,216177,5
118306,216188,5
118308,216212,4
118311,216211,6
118297,216197,4
118295,216211,5
118282,216197,5
118261,216183,6
118235,216178,3
118224,216173,5
118208,216160,5
118180,216167,5
118166,216137,4
118130,216145,5
118126,216137,5
118117,216139,5
118113,216142,5
118115,216149,4
118121,216175,5
118125,216182,5
118128,216183,5
118140,216207,4
118131,216226,4
118141,216233,5
118143,216248,5
118146,216252,5
118149,216247,4
118161,216259,5
118153,216277,6
118179,216279,4
118182,216301,5
118169,216305,4
118191,216304,5
118189,216305,5
118201,216310,5
117929,216311,5
118206,216324,4
118216,216315,5
118227,216343,5
117824,216335,5
118232,216322,5
118247,216343,4
118243,216339,5
118028,216344,5
118242,216349,5
118247,216353,5
118250,216355,4
118494,216361,5
118259,216368,5
118258,216373,5
118256,216370,4
118687,216375,5
118264,216367,5
118256,216367,6
118263,216381,4
118531,216376,4
118264,216382,5
118263,216391,5
118266,216398,5
118332,216392,5
118269,216386,4
118276,216394,5
118281,216391,5
118279,216189,5
118297,216411,5
118294,216414,4
118310,216422,5
118315,216047,5
118313,216440,5
118319,216427,5
118325,216416,8
118318,216024,1
118316,216448,5
118315,216423,5
118312,216428,5
118314,216548,4
118319,216432,5
118316,216429,5
118324,216428,12
118324,216852,7
118326,216434,5
118316,216423,10
118316,216411,5
118329,216790,5
118334,216424,10
118334,216424,5
118340,216438,5
118332,216427,10
118313,216406,5
118326,216434,5
118346,216466,10
118346,216466,5
118361,216454,5
118339,216461,10
118320,216455,5
118327,216455,5
118332,216462,10
118311,216444,5
118305,216457,5
118308,216453,10
118308,216453,5
118297,216462,7
118316,216455,8
118318,216481,5
118347,216488,7
118338,216533,8
118338,216533,5
118334,216548,7
118337,216556,8
118340,216438,5
118347,216581,7
118364,216575,8
118349,216593,5
118341,216604,7
118370,216649,8
118370,216649,5
118374,216662,7
118393,216674,8
118390,216682,5
118390,216690,7
118391,216700,8
118390,216720,7
118390,216720,5
118395,216713,8
118400,216740,7
118395,216722,5
118403,216720,8
118425,216709,7
118452,216746,10
118452,216746,7
118437,216754,5
118441,216758,5
