RED,IR,EKG,TIME
117584,219967,10
117595,219970,5
117592,219954,7
117591,219942,8
117571,219930,5
117544,219847,7
117544,219847,8
117538,219838,5
117541,219839,7
117554,219850,8
117552,219841,5
117557,219805,7
117578,219815,8
117578,219815,5
117579,219811,7
117588,219820,8
117594,219794,5
117597,219794,7
117601,219788,8
117609,219807,5
117622,219788,7
117622,219788,8
117643,219792,7
117622,219788,8
117628,219773,5
117605,219768,7
117624,219762,8
117624,219762,5
117646,219779,7
117631,219781,8
117613,219772,5
117626,219773,7
117617,219777,8
117623,219785,5
117638,219815,7
117638,219815,8
117634,219807,5
117620,219800,7
117624,219805,8
117625,219829,5
117655,219834,7
117634,219846,8
117634,219846,5
117296,219849,7
117635,219842,8
117637,219846,7
117642,219849,5
117026,219844,8
117630,219842,7
117640,219844,7
117640,219844,8
117636,219827,7
117841,219828,5
117642,219835,8
117647,219850,7
117649,219807,5
118248,219832,8
118248,219832,7
117647,219848,10
117653,219855,7
117653,219849,5
117844,219862,5
117649,219856,10
117649,219856,5
117647,219798,5
117652,219838,10
117651,219285,5
117658,219842,5
117643,219847,10
117657,219849,5
117656,219130,5
117662,219851,10
117659,219858,5
117661,219863,4
117662,220443,10
117657,219868,5
117667,219862,5
117665,219883,10
117677,220651,5
117673,219879,5
117683,219883,10
117683,219883,5
117680,219899,5
117684,219943,10
117675,219923,5
117674,219891,7
117680,219860,8
117680,219892,5
117677,219888,6
117677,219888,8
117678,219891,5
117685,219886,7
117680,219870,8
117682,219868,5
117692,219872,7
117678,219858,8
117678,219858,5
117680,219872,7
117674,219863,8
117669,219818,5
117691,219859,7
117703,219878,8
117701,219872,5
117687,219873,7
117705,219897,8
117705,219897,5
117684,219943,7
117702,219915,8
117702,219902,5
117697,219888,7
117675,219899,8
117694,219885,7
117694,219885,5
117689,219903,8
117706,219889,7
117699,219899,5
117701,219888,8
117701,219851,7
117709,219895,5
117708,219905,8
117708,219905,7
117708,219917,8
117716,219925,5
117712,219918,7
117702,219869,5
117703,219916,8
117711,219934,7
117711,219934,5
117730,219935,8
117710,219938,7
117688,219921,5
117713,219944,8
117704,219960,7
117712,219954,5
117679,219955,10
117679,219955,9
117680,219953,8
117671,219959,7
117665,219945,10
117665,219945,9
117139,219956,10
117672,219957,9
117672,219957,9
117692,219951,10
117691,219956,5
118220,219979,8
118220,219979,7
117661,219978,9
117701,219974,10
117707,219984,9
117707,219984,10
118052,219988,9
117709,219976,10
117709,219976,5
117720,219989,5
117701,219988,10
117700,219544,5
117709,219987,5
117689,219990,3
117699,220006,1
117693,219330,4
117687,220000,5
117694,220015,4
117681,220016,4
117684,219608,5
117687,220020,5
117683,220028,5
117699,220032,4
117693,220424,5
117698,220040,5
117700,220047,5
117691,220049,4
117693,220810,5
117684,220068,5
117677,220081,5
117692,220096,5
117688,220579,4
117673,220103,5
117672,220125,5
117674,220155,6
117691,220339,4
117699,220252,4
117701,220251,5
117707,220265,5
117708,220262,5
117701,220281,5
117710,220293,4
117706,220281,5
117700,220304,5
117706,220306,5
117699,220295,5
117713,220297,4
117707,220304,5
117722,220295,5
117714,220306,5
117711,220301,4
117720,220286,4
117714,220296,5
117707,220296,5
117709,220297,5
117716,220297,5
117720,220313,4
117708,220319,5
117715,220324,5
117712,220331,6
117721,220343,3
117723,220342,5
117731,220335,5
117727,220350,5
117724,220355,5
117736,220339,4
117728,220336,5
117730,220338,5
117737,220344,5
117736,220342,5
117742,220334,4
117742,220343,5
117730,220333,5
117737,220342,5
117735,220325,5
117733,220325,4
117730,220319,5
117728,220325,5
117726,220319,5
117732,220312,4
117729,220306,6
117733,220307,4
117743,220307,5
117739,220305,5
117746,220313,6
117747,220316,3
117739,220304,5
117755,220312,5
117754,220302,5
117750,220302,4
117771,220304,5
117758,220307,5
117759,220309,5
117765,220302,5
117774,220317,4
117772,220308,5
117767,220307,5
117770,220313,5
117761,220322,5
117780,220326,4
117770,220327,5
117767,220316,5
117775,220331,5
117771,220322,5
117771,220331,4
117787,220324,6
117774,220329,4
117776,220314,5
117774,220300,4
117778,220311,5
117779,220315,5
117773,220300,5
117768,220287,7
117771,220286,2
117769,220287,5
117754,220282,5
117342,220267,5
117761,220272,5
117761,220256,4
117766,220255,5
117098,220241,5
117761,220260,5
117765,220257,5
117768,220255,4
117317,220273,5
117775,220277,5
117774,220269,5
117768,220253,5
118111,220263,4
117776,220272,5
117776,220275,6
117775,220273,4
118488,220283,4
117775,220279,4
117783,220284,5
117769,220291,5
118249,220302,5
117768,220292,4
117771,220295,5
117752,220275,5
117892,220279,5
117756,220281,5
117751,220279,4
117753,220288,5
117753,219952,5
117752,220271,5
117767,220271,5
117767,220273,4
117762,219641,5
117760,220250,5
117758,220259,5
117775,220271,5
117776,219561,4
117772,220257,5
117766,220248,5
117770,220261,6
117777,220438,4
117771,220234,4
117775,220237,5
117780,220243,5
117773,220939,5
117785,220258,4
117772,220235,5
117774,220228,5
117772,220874,5
117759,220236,5
117776,220242,4
117780,220245,5
117778,220454,5
117771,220238,5
117774,220259,5
117780,220248,4
117771,220247,5
117778,220227,5
117764,220236,5
117775,220239,5
117772,220248,5
117768,220236,4
117766,220224,5
117767,220234,5
117777,220231,5
117762,220233,4
117765,220231,5
117766,220227,5
117759,220228,5
117760,220231,4
117750,220218,4
117752,220243,5
117758,220217,5
117753,220224,5
117751,220220,4
117750,220216,5
117753,220210,5
117754,220213,5
117755,220214,5
117745,220212,4
117762,220224,5
117756,220228,5
117751,220219,5
117749,220219,5
117763,220214,4
117768,220239,6
117753,220226,4
117750,220222,5
117766,220220,5
117768,220217,4
117761,220220,5
117768,220231,5
117766,220224,5
117758,220223,5
117760,220223,4
117761,220224,5
117767,220220,5
117762,220229,5
117755,220216,4
117761,220230,4
117755,220210,5
117761,220220,5
117755,220210,5
117755,220205,4
117757,220220,5
117759,220214,5
117768,220208,5
117751,220203,5
117750,220217,4
117755,220211,5
117757,220208,6
117755,220211,4
117746,220211,5
117750,220213,4
117750,220223,5
117755,220221,5
117755,220221,5
117747,220222,5
117752,220213,4
117739,220203,5
117747,220213,5
117743,220208,5
117747,220210,5
117738,220215,4
117738,220204,5
117747,220196,5
117752,220206,5
117745,220217,5
117748,220212,4
117744,220219,5
117740,220211,5
117742,220214,5
117743,220219,4
117371,220226,5
117735,220222,5
117735,220221,5
117731,220216,5
117075,220198,4
117717,220198,5
117716,220203,5
117708,220206,5
117102,220202,5
117700,220195,4
117703,220205,5
117703,220206,5
117955,220209,5
117703,220208,5
117703,220193,4
117708,220203,5
118393,220219,5
117706,220210,5
117706,220219,4
117712,220227,4
118257,220235,5
117712,220233,5
117702,220241,5
117700,220266,5
117866,220253,4
117696,220244,5
117691,220235,5
117692,220239,5
117696,219979,4
117685,220236,5
117681,220229,5
117683,220235,5
117683,219655,5
117693,220226,4
117689,220235,5
117692,220226,5
117690,219529,5
117686,220239,5
117676,220257,5
117662,220290,4
117649,220383,5
117654,220315,5
117654,220343,5
117652,220359,4
117640,220999,5
117661,220377,5
117652,220385,5
117653,220401,4
117661,221128,6
117652,220424,4
117660,220435,5
117655,220440,5
117659,220712,4
117660,220455,5
117655,220449,5
117650,220461,5
117658,220493,5
117660,220464,4
117667,220459,5
117666,220453,5
117667,220454,5
117676,220442,5
117663,220430,4
117662,220432,5
117657,220430,5
117666,220421,5
117658,220421,5
117651,220417,4
117665,220422,5
117662,220416,6
117664,220398,4
117667,220397,4
117664,220399,4
117672,220395,5
117671,220390,5
117672,220379,5
117667,220376,4
117663,220378,5
117679,220367,5
117677,220384,5
117674,220375,5
117668,220371,4
117682,220378,5
117683,220376,5
117685,220371,5
117683,220367,5
117680,220372,4
117685,220365,5
117687,220354,5
117688,220352,5
117684,220360,5
117673,220365,4
117683,220352,5
117686,220351,5
117680,220344,6
117684,220354,4
117681,220347,4
117683,220345,5
117677,220359,5
117674,220354,5
117680,220360,4
117676,220364,4
117674,220347,5
117674,220352,5
117675,220356,5
117677,220344,4
117673,220357,5
117675,220354,5
117680,220366,5
117678,220344,5
117666,220355,4
117664,220363,5
117662,220339,5
117673,220354,5
117663,220351,5
117662,220344,5
117659,220345,4
117665,220348,5
117653,220342,5
117659,220355,6
117658,220342,3
117664,220353,5
117655,220344,5
117655,220341,5
117658,220350,5
117658,220354,4
117654,220359,5
117653,220352,5
117648,220348,5
117650,220358,4
117645,220363,5
117647,220355,5
117650,220357,5
117413,220361,5
117651,220367,4
117639,220375,5
117642,220379,5
117075,220383,5
117634,220372,5
117635,220373,4
117633,220372,6
116937,220373,4
117626,220367,5
117631,220367,5
117631,220377,6
117642,220380,3
117620,220367,5
117632,220369,5
117632,220360,5
118221,220358,4
117630,220363,5
117629,220358,5
117635,220363,5
118351,220365,4
117630,220374,4
117639,220352,5
117635,220358,5
117908,220359,5
117634,220365,4
117628,220353,5
117627,220344,5
117670,220246,5
117636,220333,5
117629,220345,4
117627,220335,5
117624,219831,6
117620,220347,4
117618,220331,5
117616,220335,4
117607,219641,5
117609,220321,5
117613,220316,5
117611,220300,5
117607,220098,4
117599,220273,5
117605,220283,5
117593,220270,5
117603,220778,5
117594,220257,4
117591,220263,5
117592,220260,5
117592,221017,5
117583,220248,4
117582,220265,4
117584,220239,5
117584,220619,5
117580,220232,5
117568,220224,4
117574,220222,5
117579,220271,5
117576,220194,6
117579,220201,4
117566,220195,4
117562,220192,5
117564,220180,5
117561,220189,5
117566,220194,5
117563,220175,4
117568,220179,5
117559,220161,5
117562,220160,5
117559,220155,5
117559,220141,4
117541,220135,5
117553,220127,5
117550,220116,5
117547,220113,5
117548,220107,4
117551,220103,5
117545,220112,5
117541,220115,5
117543,220092,5
117544,220099,4
117552,220099,5
117542,220103,5
117545,220092,6
117545,220112,3
117547,220099,5
117548,220112,5
117541,220120,5
117544,220117,5
117540,220103,4
117533,220093,5
117538,220106,5
117541,220103,5
117543,220093,5
117537,220087,4
117545,220105,5
117544,220086,5
117548,220082,5
117541,220083,5
117550,220069,4
117544,220098,5
117557,220099,5
117557,220101,5
117560,220106,5
117568,220109,5
117568,220113,4
117569,220114,5
117577,220127,5
117578,220131,4
117587,220121,5
117594,220126,5
117583,220124,5
117586,220128,5
117584,220146,4
117590,220137,5
117583,220146,5
117580,220127,5
117580,220137,5
117590,220135,4
117590,220124,5
117581,220130,5
117586,220133,5
117589,220130,5
117587,220134,4
117575,220128,5
117590,220129,5
117596,220120,5
117592,220125,5
117600,220126,4
117602,220146,6
117602,220131,4
117596,220120,5
117588,220120,4
117600,220117,4
117553,220120,5
117609,220129,5
117606,220129,5
117611,220133,4
117141,220134,5
117608,220137,5
117603,220149,5
117604,220142,5
116931,220153,4
117606,220145,5
117593,220150,5
117592,220160,5
117301,220161,5
117598,220146,4
117600,220151,5
117602,220156,6
118011,220150,4
117593,220170,5
117598,220173,4
117602,220179,5
118316,220172,6
117599,220184,4
117588,220188,5
117593,220180,4
117995,220180,5
117593,220180,5
117606,220174,5
117594,220171,4
117687,220175,4
117593,220166,5
117607,220177,5
117605,220184,5
117603,219809,4
117605,220174,5
117594,220179,5
117601,220170,5
117607,219534,5
117611,220179,4
117596,220169,5
117604,220165,5
117606,219579,5
117605,220152,5
117612,220149,5
117618,220123,4
117612,220410,5
117606,220097,5
117618,220113,5
117618,220097,4
117634,220811,5
117631,220087,5
117636,220076,5
117631,220070,5
117633,220611,4
117631,220050,5
117631,220044,5
117638,220024,5
117635,220192,4
117635,220037,4
117639,220024,5
117642,220015,5
117640,219999,5
117642,219999,4
117640,219997,5
117638,219994,5
117641,219982,5
117640,219985,5
117643,219982,6
117651,219982,3
117646,219972,5
117654,219971,5
117662,219972,5
117651,219956,4
117663,219962,5
117662,219950,5
117651,219941,5
117653,219954,5
117647,219950,4
117650,219941,5
117657,219929,5
117645,219924,5
117643,219924,4
117645,219930,4
117634,219915,5
117645,219937,5
117649,219935,5
117645,219923,4
117649,219907,5
117649,219908,5
117651,219912,5
117655,219899,5
117648,219902,4
117651,219914,6
117668,219897,4
117668,219904,5
117669,219896,5
117669,219898,4
117673,219892,5
117675,219884,5
117676,219882,5
117683,219883,5
117675,219875,4
117672,219892,5
117679,219882,5
117681,219890,5
117682,219869,5
117663,219866,4
117680,219876,5
117662,219860,5
117667,219866,5
117666,219872,4
117662,219878,4
117666,219882,5
117659,219879,5
117663,219870,5
117655,219875,4
117654,219883,5
117657,219884,6
117654,219897,4
117652,219890,5
117657,219880,4
117658,219874,5
117651,219876,5
117658,219873,5
117648,219869,5
117656,219871,4
117651,219869,5
117660,219879,5
117655,219879,5
117655,219875,5
117656,219882,4
117657,219896,5
117658,219888,5
117664,219903,5
117666,219893,5
117672,219905,4
117670,219903,5
117677,219915,5
117292,219916,5
117671,219927,4
117679,219930,4
117674,219939,5
117040,219914,5
117670,219938,5
117677,219923,4
117685,219928,5
117091,219918,5
117679,219938,5
117693,219933,5
117678,219933,4
117935,219921,5
117680,219922,5
117679,219917,5
117673,219895,5
118349,219891,4
117664,219888,5
117658,219882,5
117656,219888,5
118204,219867,5
117659,219860,5
117646,219864,4
117649,219847,5
117824,219848,5
117651,219856,6
117654,219854,3
117660,219860,5
117676,219603,5
117663,219865,5
117669,219873,4
117666,219866,5
117673,219275,5
117673,219871,5
117665,219879,5
117665,219876,4
117682,219176,5
117667,219878,5
117656,219874,5
117656,219872,5
117664,219941,4
117663,219878,5
117665,219872,5
117660,219867,5
117669,220511,5
117675,219870,4
117675,219872,6
117675,219864,4
117686,220605,5
117681,219861,5
117688,219857,6
117682,219870,3
117696,220128,5
117694,219859,5
117692,219858,5
117689,219854,4
117705,219885,5
117697,219839,5
117694,219837,5
117706,219846,4
117708,219847,5
117695,219839,5
117699,219838,5
117701,219840,5
117696,219835,4
117697,219837,5
117704,219823,5
117698,219828,5
117696,219820,5
117702,219815,4
117713,219815,5
117701,219822,6
117704,219809,4
117698,219821,5
117712,219813,4
117702,219815,5
117709,219813,5
117714,219812,5
117713,219814,5
117717,219799,4
117713,219805,5
117716,219800,5
117712,219792,5
117713,219788,4
117721,219799,4
117720,219765,5
117726,219776,5
117723,219761,5
117725,219762,4
117720,219762,5
117734,219753,5
117733,219744,5
117726,219717,5
117730,219731,4
117736,219724,5
117718,219716,5
117731,219730,6
117730,219714,4
117726,219706,4
117730,219704,5
117726,219716,5
117722,219697,5
117730,219717,5
117722,219720,4
117728,219699,5
117724,219702,5
117725,219695,5
117734,219698,5
117725,219689,4
117718,219706,5
117729,219708,5
117730,219703,5
117722,219698,4
117730,219702,4
117722,219710,5
117715,219710,5
117727,219711,5
117724,219713,5
117717,219735,4
117722,219767,5
117728,219780,5
117725,219783,6
117733,219793,3
117737,219815,5
117737,219831,5
117735,219854,5
117734,219849,5
117741,219857,4
117738,219843,5
117709,219843,5
117710,219839,5
117716,219847,5
117706,219872,4
117532,219869,5
117705,219849,5
117718,219851,5
117723,219850,5
117174,219839,4
117723,219839,5
117726,219837,5
117727,219829,5
117021,219825,4
117728,219827,6
117733,219838,4
117738,219840,5
117656,219830,5
117743,219831,4
117737,219848,5
117740,219837,5
118296,219832,5
117743,219843,5
117732,219820,4
117737,219827,5
118493,219814,5
117735,219813,5
117735,219814,5
117738,219827,4
118053,219827,5
117737,219817,5
117739,219807,5
117751,219810,5
117798,219755,4
117747,219809,5
117743,219814,5
117749,219809,5
117740,219339,4
117736,219812,4
117745,219800,6
117748,219804,4
117744,219114,5
117736,219800,4
117747,219796,5
117744,219807,5
117743,219501,5
117747,219799,5
117740,219802,4
117738,219791,5
117750,220244,5
117761,219788,5
117747,219789,5
117751,219792,4
117751,220560,5
117759,219791,5
117756,219791,5
117760,219786,5
117754,220223,4
117757,219778,5
117751,219779,5
117757,219775,5
117746,219883,5
117759,219783,4
117755,219787,5
117758,219799,6
117756,219786,4
117749,219786,4
117745,219803,4
117747,219798,5
117746,219779,5
117742,219788,5
117739,219786,4
117750,219792,5
117738,219790,5
117736,219792,5
117744,219797,5
117748,219795,4
117740,219807,5
117740,219809,5
117711,219816,5
117691,219862,5
117661,219939,4
117670,220089,5
117654,220240,5
117646,220356,5
117656,220443,5
117677,220464,4
117676,220451,5
117690,220452,5
117695,220457,6
117694,220441,4
117689,220461,4
117696,220452,5
117694,220446,5
117684,220434,5
117686,220437,4
117685,220421,4
117688,220414,5
117683,220388,5
117683,220376,5
117699,220343,4
117716,220317,5
117714,220307,5
117724,220281,5
117739,220264,5
117756,220255,4
117770,220241,5
117769,220216,5
117779,220201,5
117781,220179,5
117782,220169,5
117785,220153,4
117792,220137,5
117779,220123,5
117797,220115,5
117791,220107,4
117790,220100,5
117792,220085,5
117802,220079,5
117795,220073,5
117801,220074,4
117799,220069,5
117806,220061,5
117813,220070,5
117796,220064,4
117808,220048,5
117808,220056,5
117797,220056,5
117805,220053,5
117800,220062,4
117807,220057,5
117797,220053,5
117800,220068,5
117808,220068,5
117793,220064,4
117799,220065,6
117797,220056,4
117795,220052,5
117796,220063,5
117789,220042,4
117799,220053,5
117793,220041,5
117390,220035,5
117797,220037,5
117801,220030,4
117801,220025,5
117140,220024,5
117799,220022,5
117791,220024,5
117787,220029,4
117285,220020,5
117792,220010,5
117790,220012,5
117785,220009,4
118117,220004,5
117791,220008,5
117787,219999,6
117795,220001,4
118511,219998,4
117793,220008,5
117808,220004,6
117817,219995,4
118328,220014,5
117810,220007,4
117800,220000,5
117810,219995,5
117949,220000,5
117802,220002,7
117794,220012,2
117806,220008,5
117813,219715,5
117803,220001,5
117809,219995,5
117794,219991,4
117797,219388,5
117798,219993,5
117794,219993,5
117790,219989,4
117787,219264,4
117788,219979,5
117778,219983,5
117788,219992,5
117790,220076,4
117787,219979,5
117781,219987,5
117794,219976,5
117785,220629,5
117786,219995,4
117789,219990,5
117790,219988,5
117799,220720,5
117795,219991,5
117788,219993,4
117797,219991,5
117788,220262,5
117786,220000,5
117787,220008,5
117777,220012,4
117779,220034,5
117781,220003,5
117770,220009,5
117764,220010,5
117766,220012,4
117768,220020,5
117767,220000,5
117772,220002,5
117765,220010,5
117771,219996,4
117768,219998,5
117770,219996,5
117759,219990,5
117773,219989,4
117768,219986,5
117772,219991,5
117768,219987,5
117768,219991,5
117772,219988,4
117766,220003,5
117768,220001,5
117774,220004,5
117768,220000,5
117766,220005,4
117769,220007,5
117766,219997,5
117774,220008,5
117762,220001,5
117771,219999,4
117768,220017,6
117768,220003,4
117770,220008,5
117761,220007,5
117772,220002,6
117769,220012,3
117763,219997,5
117763,220008,5
117773,220001,4
117767,220000,4
117759,220007,5
117756,220012,5
117761,219994,5
117765,220017,4
117758,220003,5
117763,219997,5
117757,219997,5
117760,219987,5
117750,219993,4
117757,219995,5
117760,219992,5
117754,219988,5
117759,219997,5
117763,220007,4
117767,220014,5
117760,220000,6
117765,220009,4
117766,220007,5
117767,220016,4
117767,220008,5
117762,219991,5
117770,219993,5
117767,219997,5
117758,219989,4
117763,220001,5
117771,220005,5
117766,220000,5
117763,219985,4
117759,219995,5
117755,219985,5
117749,219981,5
117758,219977,5
117761,219977,4
117769,219989,5
117762,219990,5
117752,219968,5
117756,219970,5
117749,219974,4
117622,219972,5
117759,219964,5
117753,219982,6
117745,219966,4
117231,219974,4
117748,219979,5
117743,219972,5
117746,219970,5
117050,219975,5
117746,219976,4
117737,219970,5
117740,219984,5
117530,219981,5
117740,219971,5
117746,219982,4
117745,219976,5
118221,219986,5
117731,219980,5
117740,219982,4
117738,219984,5
118478,219975,5
117738,219980,5
117730,219982,5
117744,219981,5
118113,219993,4
117743,219990,5
117749,219984,5
117739,219986,6
117821,219975,3
117735,219981,5
117735,219983,5
117738,219974,5
117745,219587,5
117736,219990,4
117742,219991,5
117733,219982,5
117739,219334,5
117735,219993,5
117739,219996,4
117741,219979,4
117737,219431,5
117742,219999,5
117728,219993,5
117726,219997,4
117725,220289,5
117722,220014,5
117704,220000,5
117708,220005,4
117703,220739,6
117697,220024,4
117687,220033,5
117686,220046,5
117699,220604,6
117684,220038,3
117691,220043,5
117686,220050,5
117697,220220,5
117683,220056,4
117692,220070,5
117697,220074,5
117695,220080,5
117694,220076,5
117692,220073,4
117696,220067,5
117690,220089,5
117684,220112,5
117691,220136,5
117691,220118,4
117673,220125,5
117660,220125,5
117664,220115,5
117661,220138,4
117664,220165,4
117658,220179,6
117662,220181,4
117660,220197,5
117659,220178,4
117669,220169,5
117669,220189,5
117672,220174,5
117656,220174,5
117663,220177,4
117664,220173,5
117661,220174,5
117671,220183,5
117667,220182,5
117664,220168,4
117673,220162,5
117669,220161,5
117658,220158,5
117662,220159,5
117662,220162,4
117673,220143,5
117672,220138,5
117658,220142,5
117663,220132,5
117665,220135,4
117667,220131,5
117667,220137,6
117665,220138,4
117674,220150,4
117658,220143,4
117664,220155,5
117667,220150,5
117668,220152,5
117662,220159,4
117663,220165,5
117664,220161,5
117657,220159,5
117653,220154,5
117660,220160,4
117658,220152,5
117663,220154,5
117655,220158,5
117658,220152,5
117658,220146,4
117660,220147,5
117662,220137,5
117653,220149,5
117652,220140,5
117650,220133,4
117645,220140,5
117643,220133,5
117643,220122,6
117648,220140,4
117642,220120,4
117634,220125,5
117637,220133,5
117647,220134,5
117648,220124,4
117648,220120,5
117648,220135,5
117649,220113,5
117646,220129,5
117636,220111,4
117636,220113,5
117636,220112,5
117310,220099,5
117632,220107,5
117624,220093,4
117625,220107,5
117019,220088,5
117611,220076,5
117610,220071,5
117607,220071,5
116913,220060,4
117606,220060,5
117621,220050,5
117607,220049,5
117737,220059,4
117598,220043,5
117592,220051,5
117596,220047,5
118223,220037,5
117589,220043,4
117578,220033,5
117585,220036,5
118227,220029,5
117591,220032,4
117580,220008,5
117570,220009,5
117800,220011,5
117571,219983,5
117559,219993,4
117561,219985,5
117574,219824,5
117549,219983,5
117542,219966,5
117536,219963,4
117539,219441,6
117543,219983,4
117536,219960,5
117533,219960,5
117542,219261,4
117530,219955,5
117526,219967,5
117533,219966,5
117530,219838,5
117536,219975,4
117534,219968,5
117524,219963,5
117518,220476,5
117516,219962,4
117517,219962,4
117511,219987,5
117513,220757,5
117509,219992,5
117505,219971,4
117498,219970,5
117488,220315,5
117494,219959,5
117499,219962,5
117491,219952,4
117507,220045,5
117494,219951,6
117502,219945,4
117508,219933,5
117503,219946,4
117510,219948,5
117503,219939,5
117506,219945,5
117490,219941,5
117500,219932,4
117507,219933,5
117498,219939,5
117497,219922,5
117506,219917,5
117509,219912,4
117514,219917,5
117507,219914,5
117512,219918,5
117522,219929,4
117523,219924,4
117523,219920,5
117517,219923,5
117533,219914,5
117531,219918,4
117532,219908,5
117529,219899,5
117532,219909,5
117539,219898,5
117533,219887,4
117535,219892,5
117535,219893,5
117549,219891,5
117539,219887,5
117538,219884,4
117542,219889,5
117544,219883,5
117546,219881,5
117543,219888,5
117552,219874,4
117561,219872,5
117556,219874,5
117556,219878,5
117555,219877,5
117563,219871,4
117566,219867,5
117558,219853,5
117569,219864,5
117563,219857,5
117563,219859,4
117580,219857,5
117574,219855,5
117582,219860,5
117576,219866,4
117583,219870,5
117585,219863,5
117587,219850,5
117590,219848,5
117584,219846,4
117599,219855,5
117588,219847,5
117596,219850,5
117590,219844,5
117591,219835,4
117594,219852,5
117601,219845,5
117606,219845,5
117600,219851,5
117601,219840,4
117595,219838,5
117595,219840,5
117600,219841,5
117604,219845,5
117601,219851,5
117593,219839,4
117600,219849,5
117605,219843,5
117598,219834,4
117586,219840,4
117606,219843,5
117596,219853,5
117597,219831,5
117188,219824,4
117601,219830,5
117603,219844,5
117591,219838,5
116932,219823,5
117605,219828,4
117600,219832,5
117588,219807,5
117062,219833,5
117605,219829,5
117590,219820,4
117597,219826,5
117894,219830,5
117597,219833,5
117595,219821,5
117606,219825,4
118292,219827,6
117606,219828,3
117607,219820,5
117612,219825,5
118126,219841,4
117616,219834,5
117618,219828,5
117613,219841,5
117767,219835,4
117606,219838,5
117601,219852,5
117618,219853,5
117617,219561,5
117600,219837,4
117608,219837,5
117602,219836,5
117613,219227,5
117613,219834,5
117612,219827,5
117624,219821,9
117622,219113,6
117631,219820,4
117634,219811,4
117627,219802,5
117632,219907,5
117636,219802,5
117645,219804,5
117642,219786,4
117636,220441,5
117634,219779,5
117635,219772,5
117640,219749,4
117636,220469,4
117640,219740,5
117624,219734,5
117628,219738,5
117634,219986,4
117632,219724,5
117636,219722,5
117628,219722,5
117632,219753,5
117630,219720,5
117635,219714,4
117624,219715,5
117631,219714,5
117629,219722,6
117639,219720,3
117630,219712,5
117631,219713,5
117628,219724,5
117634,219732,5
117645,219726,4
117634,219720,5
117631,219726,5
117626,219719,5
117635,219725,5
117613,219727,4
117638,219717,5
117634,219720,5
117627,219717,5
117630,219714,4
117640,219721,4
117652,219736,5
117658,219721,5
117648,219710,5
117649,219703,4
117645,219710,6
117653,219718,4
117640,219721,5
117643,219703,5
117656,219703,6
117658,219705,3
117658,219707,5
117662,219695,5
117669,219678,5
117676,219686,4
117675,219681,5
117680,219674,5
117671,219649,5
117682,219660,5
117679,219651,4
117680,219650,5
117685,219644,5
117685,219652,5
117689,219659,5
117699,219636,4
117688,219643,5
117690,219639,5
117693,219646,5
117690,219636,4
117693,219647,5
117697,219628,6
117692,219630,4
117691,219616,5
117686,219617,4
117689,219614,5
117684,219606,5
117680,219617,5
117668,219617,5
117672,219599,4
117676,219598,5
117688,219595,5
117673,219592,5
117686,219597,5
117680,219589,4
117688,219591,5
117688,219591,5
117695,219594,5
117695,219607,5
117700,219601,4
117709,219617,5
117714,219605,5
117712,219616,5
117706,219637,4
117716,219626,4
117713,219620,5
117704,219632,6
117520,219620,4
117704,219610,4
117699,219625,5
117707,219637,5
117149,219646,5
117706,219625,5
117709,219615,4
117716,219617,5
117021,219629,5
117722,219621,5
117736,219622,5
117732,219616,4
117673,219614,5
117736,219594,5
117729,219596,5
117748,219598,5
118300,219598,4
117740,219599,5
117734,219595,5
117746,219609,5
118490,219592,5
117736,219593,4
117734,219574,5
117737,219591,5
118056,219590,6
117745,219601,3
117750,219594,5
117741,219586,5
117791,219536,5
117742,219599,5
117740,219581,4
117751,219581,5
117749,219093,5
117742,219582,5
117747,219570,5
117763,219581,4
117749,218882,5
117752,219565,5
117762,219582,5
117752,219566,5
117753,219256,4
117757,219556,5
117753,219550,5
117754,219548,5
117762,220017,5
117770,219558,5
117770,219559,4
117775,219544,5
117774,220320,5
117782,219541,4
117780,219542,4
117785,219539,5
117786,219972,5
117799,219533,5
117809,219529,4
117801,219522,5
117803,219619,5
117808,219501,5
117803,219510,5
117802,219502,4
117806,219498,5
117808,219502,5
117806,219502,5
117814,219501,5
117808,219496,4
117807,219494,5
117811,219482,5
117810,219476,5
117809,219492,5
117806,219486,4
117802,219488,6
117805,219493,4
117800,219482,5
117804,219475,5
117796,219470,4
117799,219450,5
117801,219456,5
117800,219455,5
117796,219457,4
117803,219463,5
117797,219455,5
117801,219467,5
117812,219458,5
117806,219457,4
117820,219460,5
117826,219461,5
117814,219463,5
117819,219455,5
117809,219465,4
117810,219462,5
117818,219462,5
117803,219466,5
117799,219453,5
117802,219466,4
117800,219464,5
117792,219454,6
117803,219469,4
117816,219455,5
117818,219450,4
117818,219456,5
117806,219459,5
117820,219460,5
117820,219466,4
117817,219461,4
117813,219455,5
117833,219455,5
117836,219460,5
117835,219477,4
117833,219471,5
117850,219453,5
117837,219476,5
117847,219458,5
117837,219466,4
117841,219460,5
117841,219456,5
117837,219472,5
117851,219468,5
117841,219462,4
117847,219457,5
117846,219453,5
117833,219450,6
117839,219461,4
117843,219449,4
117839,219452,5
117845,219449,5
117845,219457,5
117852,219459,5
117861,219463,4
117848,219452,5
117851,219464,5
117842,219457,5
117833,219457,4
117847,219464,4
117833,219444,5
117841,219459,5
117833,219454,5
117842,219447,4
117436,219450,5
117835,219451,5
117832,219440,5
117836,219446,5
117170,219448,5
117836,219453,4
117820,219456,5
117836,219466,5
117244,219450,5
117837,219448,4
117848,219455,5
117838,219457,5
118123,219461,5
117843,219458,5
117843,219458,4
117843,219461,5
118550,219459,5
117839,219466,5
117840,219463,5
117837,219448,4
118378,219449,5
117834,219461,5
117820,219459,5
117829,219463,4
117998,219450,4
117836,219470,6
117831,219472,4
117826,219462,5
117832,219229,4
117830,219475,7
117828,219483,3
117829,219481,5
117828,218897,5
117824,219504,5
117847,219509,4
117842,219516,5
117829,218780,5
117832,219520,5
117834,219527,4
117831,219534,5
117838,219589,5
117838,219552,5
117826,219554,5
117828,219545,4
117819,220186,5
117812,219550,5
117801,219564,5
117797,219574,5
117812,220355,4
117801,219582,5
117801,219573,5
117805,219576,5
117809,219872,4
117798,219592,5
117792,219592,6
117800,219596,4
117794,219649,5
117806,219612,4
117810,219606,5
117808,219622,5
117813,219627,5
117816,219629,5
117814,219638,4
117816,219639,5
117806,219649,5
117814,219646,5
117821,219663,5
117814,219661,4
117817,219654,5
117817,219665,5
117800,219674,5
117807,219665,5
117810,219671,4
117813,219664,5
117810,219652,5
117811,219671,5
117813,219679,4
117806,219656,4
117811,219674,5
117805,219662,5
117800,219679,5
117804,219662,4
117796,219665,5
117797,219668,5
117803,219670,5
117800,219667,5
117793,219677,4
117794,219679,5
117797,219685,5
117806,219694,5
117793,219675,5
117795,219674,4
117790,219670,5
117786,219671,5
117781,219677,5
117778,219673,5
117787,219685,5
117786,219686,4
117788,219675,5
117789,219659,5
117794,219672,6
117795,219662,3
117790,219662,5
117794,219684,5
117793,219667,5
117797,219663,4
117791,219667,4
117795,219670,5
117788,219667,5
117798,219668,5
117793,219669,4
117803,219673,5
117796,219676,5
117800,219674,5
117796,219667,5
117804,219664,4
117799,219677,5
117804,219681,5
117801,219674,5
117792,219668,5
117799,219669,4
117792,219674,6
117793,219671,4
117803,219688,5
117790,219673,5
117796,219663,6
117789,219660,3
117788,219650,5
117788,219667,5
117769,219659,5
117763,219666,4
117774,219657,5
117769,219648,5
117684,219652,5
117772,219666,4
117773,219664,4
117770,219664,5
117273,219658,5
117765,219662,5
117760,219656,4
117766,219634,5
117059,219662,5
117761,219662,5
117769,219664,5
117773,219645,4
117473,219659,5
117768,219656,6
117774,219657,4
117775,219668,5
118208,219674,4
117776,219695,5
117768,219697,5
117767,219692,5
118507,219689,5
117752,219680,4
117755,219688,5
117740,219679,5
118167,219671,5
117741,219677,5
117746,219672,4
117737,219668,5
117846,219642,5
117739,219660,5
117763,219651,4
117744,219652,5
117736,219286,5
117744,219654,5
117738,219654,5
117738,219652,4
117748,219003,5
117741,219648,5
117738,219654,6
117735,219666,4
117745,219026,4
117756,219671,5
117749,219663,5
117746,219670,5
117745,219921,5
117747,219653,4
117742,219666,5
117743,219678,5
117748,220387,5
117747,219661,7
117742,219667,2
117748,219676,5
117750,220261,5
117740,219669,5
117745,219653,5
117755,219673,4
117738,219857,5
117738,219682,5
117745,219676,5
117745,219676,5
117742,219680,4
117740,219674,5
117742,219669,5
117741,219660,6
117731,219673,3
117740,219670,5
117734,219674,5
117744,219661,5
117726,219659,5
117739,219657,4
117723,219660,5
117728,219657,5
117736,219654,5
117730,219657,5
117740,219673,4
117729,219666,5
117738,219657,5
117731,219661,5
117723,219675,5
117743,219683,4
117739,219672,5
117738,219675,5
117730,219671,5
117734,219680,4
117740,219676,5
117733,219670,4
117736,219667,5
117723,219678,5
117737,219672,6
117732,219665,3
117731,219666,5
117724,219670,5
117729,219667,5
117731,219656,4
117735,219671,5
117726,219668,5
117725,219670,5
117713,219659,5
117717,219655,4
117721,219651,5
117720,219648,5
117727,219659,5
117721,219639,5
117714,219639,4
117711,219647,5
117696,219639,5
117703,219639,5
117689,219644,5
117700,219639,4
117704,219651,6
117704,219659,4
117695,219662,5
117706,219677,4
117703,219683,4
117707,219680,5
117706,219677,5
117695,219692,5
117704,219672,4
117700,219689,5
117705,219694,5
117699,219684,5
117706,219689,5
117716,219702,4
117714,219712,5
117706,219713,5
117703,219729,5
117699,219818,5
117688,219896,4
117663,219975,5
117640,220041,5
117622,220091,5
117625,220136,5
117632,220169,4
117633,220209,5
117647,220215,6
117654,220213,4
117655,220193,5
117366,220179,4
117658,220183,5
117663,220181,5
117666,220167,5
117063,220156,4
117674,220155,5
117681,220141,5
117681,220127,5
116989,220137,5
117699,220127,4
117707,220108,5
117701,220103,5
117824,220106,5
117713,220097,5
117720,220084,4
117719,220089,5
118354,220063,5
117709,220049,5
117713,220039,5
117710,220036,4
118369,220034,5
117718,220025,5
117721,220034,6
117722,220022,4
117954,220025,4
117728,220020,5
117727,220009,5
117724,220012,5
117750,219838,4
117730,220016,4
117731,220016,5
117730,219997,5
117722,219448,5
117731,219995,5
117734,219979,4
117731,220000,5
117726,219301,5
117714,220014,5
117718,220021,4
117716,220037,5
117694,219965,5
117706,220052,5
117693,220047,5
117690,220056,5
117685,220626,4
117686,220055,5
117688,220065,5
117686,220051,5
117685,220847,4
117680,220063,5
117675,220074,5
117675,220059,5
117681,220380,5
117671,220046,4
117682,220048,5
117678,220054,5
117684,220095,5
117673,220039,4
117676,220034,4
117684,220028,5
117680,220016,5
117674,220005,5
117671,220011,4
117675,220004,5
117673,219997,5
117667,219998,5
117678,219985,5
117677,219989,4
117679,219985,6
117685,219983,4
117676,219978,5
117683,219967,5
117680,219970,4
117682,219966,5
117673,219944,5
117671,219954,5
117676,219955,5
117679,219948,4
117679,219952,5
117674,219951,5
117666,219938,5
117672,219942,5
117674,219938,4
117689,219938,5
117684,219950,5
117675,219947,5
117674,219951,4
117693,219956,5
117687,219946,5
117696,219955,5
117679,219953,5
117682,219945,4
117685,219946,5
117687,219955,6
117687,219954,4
117677,219958,5
117679,219961,4
117667,219962,5
117667,219961,5
117650,219951,5
117646,219948,5
117648,219945,4
117658,219950,5
117653,219958,5
117661,219961,5
117669,219957,5
117665,219947,4
117657,219948,5
117661,219935,5
117653,219947,5
117658,219940,4
117658,219927,4
117659,219949,5
117651,219945,5
117651,219931,5
117655,219946,4
117655,219939,5
117657,219940,5
117659,219936,5
117656,219927,5
117655,219935,4
117652,219931,5
117645,219932,5
117645,219930,5
117639,219922,5
117651,219934,4
117644,219926,5
117631,219917,5
117639,219905,5
117630,219910,5
117634,219906,4
117627,219889,5
117623,219884,5
117405,219882,5
117620,219888,5
117610,219875,4
117614,219884,5
117052,219879,5
117605,219866,5
117603,219858,5
117596,219853,4
116899,219842,5
117584,219830,5
117593,219827,5
117584,219814,4
117538,219805,5
117591,219805,5
117574,219803,5
117567,219792,5
118130,219781,4
117559,219781,5
117567,219764,5
117565,219762,5
118297,219750,5
117551,219729,4
117540,219713,5
117544,219679,5
117842,219652,5
117516,219627,5
117505,219594,4
117483,219558,5
117532,219501,5
117470,219524,5
117458,219511,5
117452,219490,5
117459,219021,3
117451,219478,5
117442,219462,5
117448,219460,4
117437,218765,4
117431,219432,5
117427,219411,5
117416,219406,5
117416,219043,4
117406,219381,5
117401,219349,5
117399,219347,5
117393,219761,5
117396,219341,4
117382,219318,5
117379,219313,5
117390,220073,5
117382,219308,5
117385,219321,4
117396,219325,5
117379,219751,6
117391,219329,4
117390,219347,5
117394,219357,4
117397,219463,5
117399,219363,5
117405,219372,5
117408,219374,5
117413,219397,4
117419,219400,5
117416,219390,5
117420,219396,5
117426,219403,4
117423,219394,5
117428,219412,5
117446,219413,5
117437,219413,5
117436,219415,4
117431,219413,5
117436,219418,5
117446,219429,5
117449,219440,5
117442,219441,4
117454,219431,5
117448,219443,5
117448,219441,6
117451,219441,4
117450,219450,4
117451,219436,5
117449,219451,5
117470,219451,5
117462,219451,5
117462,219458,4
117474,219460,5
117476,219457,5
117471,219471,5
117475,219473,4
117472,219487,4
117475,219477,5
117477,219482,5
117472,219486,5
117472,219504,4
117460,219513,5
117462,219525,5
117468,219519,5
117468,219521,5
117465,219513,5
117467,219506,4
117462,219529,5
117474,219520,5
117472,219517,6
117465,219531,3
117484,219520,5
117486,219525,5
117491,219509,5
117493,219514,5
117492,219518,4
117492,219508,5
117499,219517,5
117502,219526,5
117504,219520,5
117503,219524,4
117514,219528,5
117514,219519,5
117509,219524,5
117510,219519,4
117521,219520,5
117525,219524,5
117530,219522,5
117530,219523,5
117525,219530,4
117517,219530,6
117528,219539,4
117514,219526,5
117524,219520,5
117526,219532,6
117520,219513,3
117526,219514,5
117523,219508,5
117514,219507,5
117522,219499,4
117443,219487,5
117515,219486,5
117515,219494,5
117513,219497,5
117025,219486,4
117515,219493,5
117515,219489,5
117508,219489,5
116824,219488,4
117516,219483,4
117521,219481,5
117524,219486,5
117246,219479,5
117516,219457,4
117521,219479,5
117528,219460,6
117982,219462,4
117534,219472,5
117516,219469,4
117521,219459,5
118277,219461,5
117532,219477,5
117543,219455,5
117532,219460,4
117928,219449,5
117533,219449,5
117540,219454,5
117548,219445,5
117626,219428,4
117542,219426,5
117549,219418,5
117540,219414,5
117541,219007,4
117547,219410,4
117555,219411,5
117547,219403,5
117550,218742,5
117549,219400,5
117543,219400,4
117550,219405,5
117546,218900,6
117549,219394,4
117551,219405,4
117540,219400,5
117541,219761,5
117545,219391,5
117553,219404,5
117557,219383,4
117549,220142,5
117550,219389,5
117558,219404,5
117557,219376,5
117546,219903,4
117550,219389,5
117556,219393,5
117551,219373,5
117554,219524,5
117561,219374,4
117559,219386,5
117559,219396,5
117567,219399,5
117561,219390,5
117558,219394,4
117564,219408,5
117566,219410,6
117566,219407,5
117563,219417,3
117553,219404,5
117565,219406,5
117560,219383,5
117550,219399,5
117547,219396,4
117555,219394,5
117561,219380,5
117551,219378,5
117559,219394,5
117556,219385,4
117567,219377,5
117560,219390,5
117561,219375,5
117570,219382,5
117574,219378,4
117577,219387,5
117566,219377,5
117582,219382,5
117584,219377,4
117592,219368,5
117603,219375,4
117607,219368,5
117604,219356,5
117588,219355,4
117600,219374,5
117595,219358,5
117586,219355,5
117595,219347,5
117603,219346,4
117601,219362,5
117594,219348,5
117604,219344,5
117607,219349,5
117612,219358,4
117613,219353,5
117613,219356,5
117625,219349,5
117622,219343,5
117616,219351,4
117618,219347,5
117614,219352,5
117612,219334,5
117618,219344,5
117615,219333,4
117622,219314,6
117608,219315,4
117623,219312,5
117620,219314,4
117616,219316,5
117622,219309,5
117624,219319,5
117622,219303,5
117627,219303,4
117628,219301,5
117632,219299,5
117634,219314,5
117634,219313,5
117633,219309,4
117638,219313,5
117642,219301,5
117646,219311,5
117639,219311,5
117650,219295,4
117653,219296,5
117658,219292,5
117655,219290,5
117643,219294,5
117651,219297,4
117666,219298,5
117667,219328,6
117221,219315,4
117664,219311,4
117664,219315,4
117677,219310,5
116992,219318,5
117663,219310,5
117664,219310,4
117664,219301,5
117233,219297,5
117661,219304,5
117669,219296,5
117658,219301,4
118036,219300,5
117674,219297,5
117668,219307,5
117665,219296,5
118407,219303,4
117671,219302,5
117682,219303,5
117679,219317,5
118158,219315,5
117683,219310,4
117691,219323,5
117688,219320,5
117806,219322,5
117695,219339,5
117693,219356,4
117687,219348,5
117691,218998,5
117686,219344,5
117673,219350,4
117687,219345,5
117694,218707,5
117683,219338,5
117690,219343,5
117689,219342,4
117695,218660,5
117699,219337,5
117706,219342,5
117696,219354,5
117706,219576,4
117716,219351,5
117718,219361,5
117712,219341,5
117720,220074,5
117727,219362,6
117720,219361,3
117724,219351,5
117722,219960,5
117720,219341,5
117715,219356,4
117728,219353,5
117723,219558,5
117717,219359,5
117713,219358,4
117713,219353,4
117709,219360,5
117715,219348,5
117708,219349,5
117714,219348,4
117714,219346,5
117713,219342,5
117714,219341,5
117712,219347,5
117702,219331,4
117701,219338,5
117700,219337,5
117691,219331,5
117691,219330,5
117690,219340,4
117702,219335,6
117694,219340,4
117700,219330,5
117708,219339,5
117700,219340,4
117697,219339,5
117705,219343,5
117707,219339,5
117704,219331,4
117704,219333,4
117714,219335,5
117708,219330,5
117706,219337,5
117713,219356,4
117712,219346,5
117714,219356,5
117717,219350,5
117707,219344,5
117729,219340,4
117716,219340,5
117710,219347,5
117720,219342,5
117721,219335,5
117712,219335,4
117720,219333,5
117718,219334,5
117712,219337,5
117717,219327,5
117720,219315,4
117723,219319,5
117713,219316,5
117716,219314,5
117721,219307,5
117726,219302,4
117723,219316,5
117727,219312,5
117730,219317,5
117731,219317,4
117736,219319,4
117729,219310,5
117730,219327,5
117734,219333,5
117731,219333,5
117735,219331,4
117734,219324,5
117740,219341,5
117733,219349,6
117735,219336,3
117726,219344,5
117732,219347,5
117733,219338,5
117735,219347,5
117729,219348,4
117742,219345,5
117728,219333,5
117726,219335,5
117726,219331,5
117737,219341,4
117738,219327,5
117738,219328,5
117729,219325,5
117748,219314,5
117740,219330,4
117432,219319,5
117752,219317,5
117749,219325,5
117755,219330,4
117140,219332,5
117763,219323,4
117763,219326,5
117763,219327,5
117053,219317,6
117767,219317,3
117769,219326,5
117764,219330,5
117927,219322,5
117764,219323,4
117772,219321,5
117765,219326,5
118437,219318,5
117772,219318,5
117769,219322,4
117773,219327,5
118418,219334,5
117776,219325,5
117778,219331,5
117772,219343,4
117994,219325,5
117772,219340,5
117781,219356,5
117779,219348,5
117790,219165,4
117764,219370,6
117767,219349,4
117770,219361,5
117763,218800,4
117766,219355,5
117770,219364,5
117768,219356,5
117760,218639,5
117771,219351,5
117782,219363,4
117772,219365,5
117767,219278,5
117776,219364,5
117766,219364,4
117777,219380,5
117768,219941,5
117776,219378,5
117775,219378,5
117764,219402,4
117740,220207,5
117739,219450,5
117707,219477,5
117698,219515,5
117707,219874,4
117704,219526,5
117710,219536,6
117700,219537,4
117695,219602,4
117685,219540,4
117698,219549,5
117698,219573,5
117704,219569,5
117695,219574,4
117693,219575,5
117692,219564,5
117700,219557,5
117708,219570,5
117709,219562,4
117712,219579,5
117716,219575,5
117717,219572,5
117723,219585,5
117720,219588,4
117726,219576,5
117721,219575,5
117722,219571,5
117721,219566,5
117729,219581,4
117716,219586,5
117730,219588,5
117727,219588,6
117729,219578,4
117730,219576,4
117727,219577,5
117734,219582,5
117734,219593,5
117725,219573,4
117730,219583,4
117733,219568,5
117722,219557,5
117725,219572,5
117726,219558,4
117726,219561,5
117723,219547,5
117729,219556,5
117727,219555,5
117726,219549,4
117722,219546,5
117721,219532,5
117727,219524,5
117727,219531,5
117729,219529,5
117725,219530,4
117723,219531,5
117729,219534,5
117739,219527,6
117730,219535,3
117727,219526,5
117727,219531,5
117732,219533,5
117732,219539,5
117739,219532,4
117732,219530,5
117731,219535,5
117725,219517,5
117722,219523,4
117734,219531,4
117726,219526,5
117726,219547,5
117721,219542,5
117728,219538,4
117721,219535,5
117728,219536,5
117722,219530,5
117722,219524,5
117715,219539,4
117716,219546,6
117726,219533,4
117721,219539,5
117730,219542,5
117712,219536,4
117718,219531,5
117718,219525,5
117718,219526,5
117664,219525,5
117710,219548,4
117718,219534,5
117707,219535,5
117239,219553,5
117717,219532,5
117719,219537,4
117711,219537,5
117025,219534,5
117709,219531,5
117718,219538,4
117722,219540,4
117376,219529,5
117712,219542,5
117713,219548,5
117713,219552,4
118127,219553,5
117710,219550,6
117716,219548,4
117718,219544,5
118449,219541,4
117713,219547,5
117703,219528,5
117714,219531,5
118162,219542,5
117711,219533,4
117707,219541,5
117711,219544,5
117822,219531,5
117717,219539,5
117710,219531,4
117710,219529,5
117709,219166,5
117708,219529,5
117713,219529,5
117714,219520,4
117710,218881,5
117704,219530,5
117716,219527,5
117720,219526,4
117708,218869,5
117708,219532,5
117710,219536,6
117700,219532,4
117708,219777,4
117704,219534,5
117695,219540,5
117709,219537,5
117706,220259,5
117703,219538,4
117700,219544,5
117700,219535,5
117705,220146,5
117700,219544,5
117699,219525,4
117698,219542,5
117691,219738,5
117693,219543,5
117685,219534,5
117687,219525,4
117684,219542,5
117683,219532,5
117687,219531,5
117675,219530,5
117676,219520,4
117668,219531,5
117664,219526,5
117657,219507,5
117654,219531,4
117646,219518,5
117661,219523,5
117656,219517,5
117656,219512,5
117665,219528,4
117669,219538,5
117665,219553,5
117651,219563,5
117647,219566,5
117645,219569,7
117650,219560,2
117646,219547,5
117638,219553,5
117625,219549,5
117633,219559,4
117627,219555,5
117635,219560,5
117625,219562,5
117637,219538,5
117625,219528,5
117633,219536,4
117638,219534,5
117635,219540,5
117629,219522,4
117628,219517,4
117629,219536,5
117638,219539,5
117628,219534,5
117633,219543,4
117625,219534,5
117642,219542,5
117636,219546,5
117625,219546,5
117621,219525,4
117631,219522,5
117612,219525,5
117625,219525,5
117628,219526,5
117615,219523,4
117623,219521,5
117633,219536,5
117612,219534,5
117615,219527,5
117604,219531,4
117605,219528,6
117600,219529,4
117617,219529,5
117614,219521,5
117610,219527,4
117605,219522,5
117603,219541,5
117608,219530,5
117602,219522,4
117600,219524,5
117600,219517,5
117601,219526,5
117597,219526,5
117593,219517,4
117606,219517,5
117600,219527,5
117602,219537,5
117604,219523,5
117604,219536,4
117597,219535,5
117606,219539,5
117592,219548,5
117596,219535,5
117596,219525,4
117288,219528,5
117589,219526,6
117593,219524,4
117593,219535,5
116984,219526,4
117588,219541,5
117597,219534,5
117600,219531,5
116886,219542,5
117594,219557,4
117581,219542,5
117594,219540,5
117697,219547,5
117594,219534,4
117579,219545,5
117585,219543,5
118221,219555,5
117579,219544,5
117574,219542,4
117585,219543,5
118245,219537,5
117581,219532,5
117582,219538,5
117579,219536,4
117811,219535,5
117567,219523,5
117571,219529,5
117565,219522,5
117590,219361,4
117562,219525,5
117563,219518,5
117565,219515,5
117561,218990,5
117563,219535,4
117560,219536,5
117563,219532,5
117570,218840,5
117557,219546,5
117564,219544,4
117555,219542,5
117556,219401,5
117557,219535,5
117557,219542,4
117558,219534,5
117552,220079,5
117547,219546,5
117551,219553,5
117541,219577,5
117539,220347,4
117541,219568,5
117528,219579,5
117531,219572,5
117525,219939,4
117518,219568,5
117515,219564,5
117513,219561,5
117527,219625,5
117516,219536,4
117505,219526,5
117509,219527,5
117510,219532,5
117505,219534,5
117510,219546,4
117509,219541,5
117507,219551,5
117510,219572,5
117519,219573,4
117520,219578,4
117521,219575,6
117517,219580,4
117522,219579,5
117521,219561,4
117522,219533,7
117513,219521,3
117500,219499,5
117505,219498,5
117505,219484,4
117505,219467,5
117491,219465,5
117490,219458,5
117494,219455,5
117484,219430,4
117490,219410,5
117482,219403,5
117469,219408,5
117478,219420,5
117482,219395,4
117467,219404,5
117470,219402,5
117468,219392,5
117468,219391,5
117460,219382,4
117455,219373,5
117463,219370,6
117457,219361,4
117456,219358,4
117461,219354,4
117461,219355,5
117451,219339,5
117446,219356,5
117453,219347,4
117455,219351,5
117457,219364,5
117457,219376,5
117448,219403,5
117449,219419,4
117442,219442,5
117447,219450,5
117436,219459,5
117442,219464,5
117427,219459,4
117423,219444,5
117422,219449,5
117416,219451,5
117408,219428,5
117395,219426,4
117387,219435,5
117378,219411,5
117389,219404,6
117387,219382,4
117375,219378,4
117372,219373,5
117371,219373,5
117375,219366,5
117375,219363,4
117375,219345,5
117365,219329,5
117366,219320,5
117374,219329,5
117380,219341,4
117377,219342,5
117379,219351,5
117378,219345,5
117332,219347,5
117390,219354,4
117384,219359,5
117383,219337,5
116911,219345,5
117392,219333,5
117393,219328,5
117396,219341,4
116709,219312,5
117395,219310,5
117386,219309,6
117394,219307,3
117083,219312,5
117409,219315,5
117406,219334,5
117402,219350,4
117839,219353,4
117424,219365,5
117427,219384,5
117434,219387,5
118164,219398,4
117440,219390,5
117435,219415,5
117435,219412,5
117855,219430,5
117444,219454,4
117450,219462,5
117454,219463,5
117552,219450,5
117444,219446,5
117451,219452,4
117447,219439,6
117446,219088,4
117440,219445,5
117449,219444,5
117453,219433,4
117466,218806,5
117453,219437,5
117466,219448,5
117458,219438,5
117476,218799,4
117463,219439,5
117469,219419,5
117466,219419,5
117476,219665,4
117473,219404,4
117481,219407,5
117469,219410,5
117480,220109,5
117485,219408,4
117484,219399,5
117492,219402,5
117494,219989,5
117483,219392,5
117485,219394,4
117492,219394,5
117481,219589,6
117481,219406,4
117481,219400,5
117485,219399,4
117482,219408,5
117484,219391,5
117493,219397,5
117482,219392,5
117491,219391,4
117483,219375,5
117487,219369,5
117481,219366,5
117481,219365,5
117478,219373,4
117484,219381,5
117492,219365,5
117494,219373,5
117490,219361,4
117488,219376,4
117487,219382,5
117480,219382,5
117481,219390,5
117495,219390,4
117496,219380,5
117488,219387,5
117504,219388,6
117505,219383,4
117506,219369,4
117506,219380,5
117506,219379,5
117507,219375,5
117509,219371,5
117510,219363,4
117508,219352,5
117502,219368,5
117503,219358,5
117502,219353,5
117512,219354,4
117511,219350,5
117512,219341,5
117516,219344,5
117510,219334,5
117518,219338,4
117522,219340,5
117517,219348,5
117515,219338,5
117516,219345,5
117511,219343,4
117512,219335,5
117516,219336,5
117515,219329,6
117512,219334,3
117510,219333,5
117506,219330,5
117508,219337,5
117520,219357,5
117509,219341,4
117502,219341,5
117499,219348,5
117498,219331,5
117505,219342,5
117502,219345,4
117499,219353,5
117503,219341,5
117513,219352,5
117508,219355,5
117506,219351,4
117502,219366,5
117504,219372,5
117510,219389,5
117512,219383,5
117512,219390,5
117507,219395,4
117510,219377,5
117506,219395,5
117493,219385,4
117500,219386,5
117500,219400,5
117509,219401,5
117507,219398,5
117505,219405,4
117252,219385,5
117513,219399,5
117520,219401,5
117513,219400,5
116930,219400,4
117521,219397,5
117529,219403,5
117539,219406,5
116837,219406,5
117542,219392,4
117551,219409,5
117554,219415,5
117614,219415,5
117550,219411,5
117556,219402,4
117562,219412,6
118170,219410,4
117558,219419,5
117557,219415,5
117557,219414,4
118243,219404,5
117557,219398,5
117555,219405,5
117554,219405,4
117788,219399,5
117557,219397,5
117555,219408,5
117560,219409,5
117588,219260,4
117570,219400,5
117558,219406,5
117557,219406,5
117556,218874,5
117561,219402,4
117566,219402,5
117566,219400,5
117556,218685,5
117554,219392,5
117567,219404,4
117566,219399,5
117570,219248,6
117569,219400,4
117581,219393,5
117582,219384,4
117580,219927,5
117584,219398,5
117590,219389,5
117583,219394,4
117598,220179,4
117597,219387,5
117593,219381,5
117609,219402,5
117606,219773,4
117605,219387,5
117607,219390,5
117603,219392,5
117605,219470,5
117610,219382,4
117604,219391,5
117608,219400,5
117607,219402,5
117611,219409,5
117604,219408,4
117616,219402,5
117613,219416,5
117604,219409,5
117608,219403,5
117616,219410,4
117609,219420,5
117607,219392,5
117617,219404,5
117618,219396,5
117623,219380,4
117615,219391,5
117610,219393,5
117613,219389,5
117601,219377,4
117610,219386,4
117612,219387,5
117609,219376,5
117613,219378,5
117611,219381,4
117616,219370,5
117612,219370,5
117616,219369,5
117619,219372,5
117613,219359,5
117625,219378,4
117631,219368,5
117623,219364,6
117623,219386,4
117630,219381,4
117619,219384,5
117618,219386,5
117629,219406,5
117622,219382,5
117625,219385,4
117627,219382,5
117616,219400,5
117622,219397,5
117634,219396,5
117628,219393,4
117631,219389,5
117636,219400,5
117641,219384,5
117634,219390,4
117642,219379,5
117630,219375,5
117629,219376,5
117632,219376,5
117635,219360,4
117641,219380,6
117640,219392,4
117639,219380,5
117636,219376,5
117634,219380,4
117641,219381,5
117640,219389,5
117633,219378,5
117645,219371,5
117639,219372,4
117641,219374,5
117642,219381,5
117643,219387,5
117645,219378,5
117645,219376,4
117643,219369,5
117642,219370,5
117647,219368,5
117653,219372,5
117654,219367,4
117652,219371,5
117653,219365,6
117547,219374,4
117639,219369,4
117648,219372,5
117642,219370,5
117149,219375,5
117648,219378,5
117655,219376,4
117657,219377,5
116958,219370,5
117649,219363,5
117652,219375,5
117663,219370,4
117429,219382,5
117662,219375,5
117660,219382,5
117664,219390,5
118133,219385,4
117659,219398,5
117651,219400,5
117655,219397,5
118404,219398,5
117655,219403,4
117653,219415,5
117657,219412,5
118046,219416,6
117654,219432,3
117657,219422,4
117662,219432,5
117738,219437,5
117658,219457,5
117657,219466,4
117651,219461,5
117645,219058,5
117646,219471,5
117654,219462,5
117654,219468,4
117653,218801,5
117652,219462,5
117660,219468,5
117655,219467,5
117650,218914,4
117664,219465,5
117652,219463,5
117643,219449,5
117659,219767,5
117652,219441,5
117654,219433,4
117657,219426,5
117656,220155,5
117665,219429,6
117651,219422,3
117654,219423,5
117664,219981,5
117651,219418,5
117666,219416,4
117673,219430,5
117666,219598,5
117673,219446,5
117678,219456,5
117680,219457,4
117687,219450,5
117679,219466,5
117689,219462,5
117694,219462,5
117695,219471,4
117702,219476,5
117698,219485,5
117696,219493,5
117697,219486,5
117686,219472,4
117692,219476,6
117692,219483,4
117688,219471,5
117677,219476,5
117677,219490,6
117677,219503,3
117692,219503,5
117694,219518,5
117683,219509,5
117702,219515,4
117690,219512,5
117697,219517,5
117690,219515,5
117697,219524,4
117695,219515,5
117701,219531,5
117692,219514,5
117696,219498,5
117709,219505,4
117704,219513,5
117703,219507,5
117698,219513,5
117705,219518,5
117705,219505,4
117712,219514,5
117713,219501,6
117708,219501,4
117709,219501,5
117708,219481,4
117710,219486,5
117715,219492,5
117713,219487,5
117705,219478,5
117703,219492,4
117715,219482,5
117724,219495,5
117716,219502,5
117719,219496,4
117719,219515,4
117717,219501,5
117714,219517,5
117718,219525,5
117717,219527,4
117718,219531,5
117712,219516,5
117717,219525,5
117714,219525,5
117706,219526,4
117723,219538,5
117725,219547,5
117723,219544,6
117717,219537,4
117713,219527,4
117713,219538,5
117711,219522,5
117708,219537,5
117708,219537,5
117716,219536,4
117718,219533,5
117715,219548,5
117717,219545,5
117725,219555,5
117718,219550,4
117717,219563,5
117723,219574,5
117716,219587,5
117720,219594,5
117426,219601,4
117725,219602,5
117721,219603,5
117728,219620,5
117104,219624,5
117720,219618,4
117703,219639,5
117704,219623,5
116979,219625,6
117707,219632,3
117701,219631,5
117702,219638,5
117780,219635,5
117702,219619,5
117693,219626,4
117684,219617,5
118301,219615,5
117688,219618,5
117691,219626,5
117690,219629,4
118389,219623,5
117685,219612,5
117692,219622,5
117687,219619,5
117957,219619,4
117697,219627,5
117693,219628,5
117709,219615,5
117728,219505,4
117710,219632,5
117705,219647,4
117707,219646,5
117704,219136,5
117705,219659,5
117707,219669,4
117719,219676,5
117710,218973,5
117705,219663,5
117697,219682,4
117682,219676,5
117698,219438,5
117686,219673,5
117686,219678,5
117694,219675,4
117695,220148,5
117698,219668,5
117700,219673,5
117700,219677,5
117700,220453,4
117699,219680,5
117704,219682,5
117704,219683,5
117707,220096,5
117704,219688,4
117695,219679,6
117704,219691,4
117703,219791,5
117696,219704,4
117703,219707,4
117709,219708,5
117706,219703,5
117701,219704,5
117700,219694,4
117698,219702,5
117700,219690,5
117693,219698,5
117698,219697,5
117692,219689,4
117712,219697,5
117703,219714,5
117699,219713,5
117695,219722,5
117694,219732,4
117701,219736,5
117700,219741,5
117701,219755,5
117701,219747,5
117695,219754,4
117706,219753,5
117702,219759,6
117695,219754,4
117697,219763,5
117694,219761,4
117704,219761,5
117697,219750,5
117698,219755,5
117700,219753,4
117698,219746,4
117707,219750,5
117704,219746,5
117705,219747,5
117693,219745,4
117693,219753,5
117687,219751,5
117691,219759,5
117699,219759,5
117698,219760,4
117689,219766,5
117681,219770,5
117690,219760,5
117684,219769,5
117689,219766,4
117692,219793,5
117691,219797,5
117704,219826,5
117700,219840,5
117706,219843,4
117707,219846,5
117704,219839,5
117701,219851,5
117697,219850,5
117702,219828,4
117702,219818,5
117691,219823,5
117699,219801,5
117680,219806,4
117683,219799,4
117680,219800,5
117670,219775,5
117668,219755,5
117668,219760,4
117662,219742,5
117658,219714,5
117660,219712,5
117667,219720,5
117664,219717,5
117666,219706,4
117664,219728,5
117659,219707,5
117655,219722,5
117658,219710,4
117664,219713,5
117652,219705,5
117645,219700,5
117644,219697,5
117643,219693,4
117646,219696,5
117224,219690,5
117636,219676,5
117644,219688,5
117650,219688,4
116982,219689,5
117647,219694,5
117654,219692,5
117651,219702,4
117172,219702,5
117653,219693,6
117655,219699,4
117666,219724,5
117990,219733,4
117679,219742,6
117676,219749,4
117685,219747,5
118400,219748,5
117673,219755,4
117678,219756,5
117679,219796,5
118186,219779,5
117679,219784,5
117672,219786,4
117658,219802,5
117808,219841,5
117657,219889,5
117651,219923,5
117667,219947,4
117674,219656,5
117673,219983,5
117687,219998,5
117698,220018,5
117700,219433,4
117696,220055,5
117713,220064,5
117719,220059,5
117719,219362,4
117736,220058,6
117721,220059,5
117723,220062,4
117719,220191,5
117728,220058,4
117716,220073,5
117718,220082,5
117722,220737,5
117717,220096,5
117718,220086,4
117715,220082,5
117722,220777,5
117714,220073,5
117724,220087,5
117716,220080,4
117717,220317,5
117725,220089,5
117725,220095,5
117718,220090,5
117724,220107,4
117719,220097,5
117722,220102,5
117705,220093,5
117717,220094,3
117709,220102,4
117715,220095,5
117707,220088,5
117697,220090,5
117707,220088,4
117702,220086,5
117698,220089,5
117697,220076,5
117698,220084,5
117699,220068,4
117696,220077,5
117707,220065,5
117692,220059,5
117697,220058,5
117693,220057,4
117703,220054,5
117691,220046,5
117696,220057,5
117696,220051,5
117700,220050,5
117703,220047,4
117698,220052,5
117695,220034,5
117697,220026,6
117697,220034,3
117695,220039,5
117700,220035,5
117700,220038,5
117702,220031,4
117705,220028,4
117697,220023,5
117692,220026,5
117698,220029,5
117704,220034,4
117699,220032,5
117702,220024,5
117698,220030,5
117700,220027,5
117702,220032,7
117701,220027,2
117700,220029,5
117695,220033,5
117698,220033,5
117706,220015,4
117701,220027,6
117696,220018,4
117698,220013,5
117688,220016,5
117697,220028,6
117694,220029,3
117694,220029,5
117694,220018,5
117692,220012,5
117687,220012,4
117685,220026,5
117693,220022,5
117688,220009,5
117691,220008,4
117681,220011,4
117689,220008,5
117683,220015,5
117686,220012,5
117682,220014,4
117690,220014,5
117682,220025,5
117687,220024,5
117684,220047,5
117683,220039,4
117687,220058,5
117681,220067,6
117676,220053,4
117677,220037,5
117454,220050,4
117667,220074,5
117678,220067,5
117675,220082,5
117106,220079,5
117670,220074,4
117665,220069,5
117672,220071,5
116975,220058,5
117676,220066,5
117674,220063,4
117674,220068,5
117620,220055,5
117667,220064,5
117667,220058,4
117666,220066,5
118233,220067,5
117667,220063,5
117668,220067,5
117667,220067,4
118411,220062,5
117659,220075,5
117666,220061,6
117668,220061,4
117965,220046,4
117653,220061,5
117655,220045,5
117652,220063,5
117693,220012,5
117648,220056,4
117637,220076,5
117655,220058,5
117651,219614,5
117654,220058,5
117655,220061,4
117644,220081,5
117654,219398,5
117640,220072,5
117640,220071,4
117638,220067,4
117638,219723,5
117641,220071,5
117647,220067,5
117631,220056,5
117638,220486,4
117634,220061,5
117625,220066,5
117628,220063,6
117637,220821,3
117632,220059,5
117626,220079,5
117634,220066,5
117628,220525,5
117628,220076,4
117627,220062,5
117624,220062,5
117616,220194,5
117616,220064,5
117623,220076,4
117628,220074,5
117618,220082,5
117621,220067,5
117620,220069,5
117618,220085,4
117616,220078,5
117614,220077,5
117613,220076,5
117611,220072,4
117611,220069,5
117614,220062,4
117607,220055,5
117606,220054,5
117593,220043,6
117602,220029,3
117601,220028,5
117595,220033,5
117584,220027,5
117583,220009,4
117571,220006,5
117579,220001,5
117567,220005,5
117569,219995,5
117578,219994,4
117575,219987,5
117567,219990,5
117565,219987,5
117566,219968,5
117562,219962,4
117560,219969,5
117560,219957,5
117552,219958,5
117548,219936,5
117547,219955,4
117547,219940,6
117547,219943,4
117543,219936,5
117537,219938,4
117529,219925,4
117524,219907,5
117526,219903,5
117523,219897,5
117520,219889,4
117523,219881,5
117506,219869,5
117509,219853,5
117510,219846,5
117506,219831,4
117504,219841,5
117490,219828,5
117492,219825,5
117505,219825,5
117499,219824,4
117495,219816,5
117499,219823,5
117496,219800,5
117497,219791,5
117490,219794,4
117488,219787,5
117490,219779,6
117474,219783,4
117472,219787,5
117477,219797,4
117476,219790,5
117471,219791,5
117472,219786,5
117452,219773,4
117461,219784,4
117458,219796,5
117463,219786,5
117460,219764,5
117449,219751,4
117459,219749,5
117454,219755,5
117451,219754,5
117444,219759,5
117454,219735,4
117456,219743,5
117086,219738,5
117462,219767,5
117459,219765,5
117464,219786,4
116832,219775,5
117465,219782,5
117474,219785,6
117490,219797,4
116865,219801,4
117484,219791,5
117484,219807,5
117487,219806,5
117737,219799,5
117487,219796,4
117497,219817,5
117503,219811,5
118174,219813,5
117507,219811,4
117503,219799,5
117509,219808,5
118069,219795,5
117510,219802,5
117509,219811,4
117521,219798,5
117704,219803,5
117512,219803,5
117525,219806,5
117517,219787,5
117527,219557,4
117528,219791,5
117524,219801,5
117533,219774,5
117533,219212,4
117535,219767,5
117533,219783,5
117541,219754,5
117528,219044,5
117524,219736,5
117528,219730,4
117525,219708,5
117533,219715,5
117525,219701,5
117524,219694,4
117522,219689,5
117522,220276,5
117534,219680,5
117538,219665,4
117529,219669,5
117535,220435,5
117539,219663,5
117530,219656,5
117533,219639,4
117538,219944,6
117539,219642,4
117543,219633,5
117540,219614,5
117529,219664,4
117532,219612,5
117533,219627,5
117527,219611,5
117532,219608,5
117533,219606,4
117538,219616,5
117540,219606,5
117531,219609,5
117531,219602,5
117540,219597,4
117520,219597,5
117527,219581,5
117526,219590,5
117525,219600,4
117533,219584,4
117522,219575,5
117534,219573,5
117529,219575,5
117536,219571,4
117537,219572,5
117521,219580,6
117536,219570,4
117548,219563,5
117552,219566,4
117551,219577,5
117553,219575,5
117551,219579,5
117550,219596,5
117547,219591,4
117547,219606,5
117543,219595,5
117536,219574,5
117545,219582,5
117545,219583,4
117533,219582,5
117524,219579,5
117535,219577,5
117538,219568,5
117543,219588,4
117555,219579,5
117545,219574,5
117549,219576,5
117551,219563,4
117555,219552,4
117565,219552,5
117566,219546,5
117555,219543,5
117550,219531,4
117559,219533,5
117558,219522,5
117566,219528,5
117557,219534,5
117562,219524,4
117559,219516,5
117561,219513,5
117567,219497,5
117564,219507,5
117561,219506,4
117567,219491,5
117559,219495,5
117555,219481,5
117562,219478,5
117559,219486,4
117552,219471,5
117552,219466,5
117572,219476,5
117563,219469,5
117572,219467,4
117577,219465,5
117567,219474,5
117574,219463,5
117581,219471,4
117578,219470,4
117578,219470,5
117577,219460,5
117585,219474,5
117464,219448,4
117587,219459,5
117581,219450,5
117587,219447,5
117083,219439,5
117581,219434,4
117582,219436,5
117587,219427,5
116891,219436,5
117583,219427,5
117593,219429,4
117576,219418,5
117355,219408,4
117583,219411,5
117574,219394,5
117585,219391,6
118048,219399,3
117576,219391,5
117587,219377,5
117585,219389,5
118333,219370,4
117579,219385,5
117587,219367,5
117577,219360,5
117970,219358,4
117587,219360,4
117586,219362,5
117585,219354,5
117673,219346,5
117583,219349,4
117576,219352,5
117578,219341,5
117581,218934,5
117577,219334,5
117573,219333,4
117586,219321,5
117575,218662,6
117581,219327,4
117580,219323,5
117584,219325,4
117573,218725,7
117577,219331,3
117579,219317,5
117591,219329,5
117595,219615,4
117595,219327,5
117587,219330,5
117603,219336,5
117603,220059,5
117603,219337,4
117590,219329,5
117598,219349,5
117596,219904,5
117605,219326,4
117585,219330,4
117595,219321,5
117596,219513,5
117596,219338,5
117604,219324,4
117608,219325,5
117611,219330,5
117600,219312,6
117602,219317,4
117608,219306,4
117608,219311,5
117613,219298,5
117617,219293,5
117613,219295,5
117613,219280,4
117622,219276,5
117617,219261,5
117619,219271,5
117632,219261,5
117621,219264,4
117623,219247,5
117621,219264,5
117623,219263,5
117616,219246,5
117614,219258,4
117617,219249,5
117615,219253,5
117615,219242,5
117607,219247,5
117620,219237,4
117601,219249,5
117614,219242,5
117600,219224,6
117609,219242,3
117603,219236,5
117606,219238,5
117599,219232,5
117599,219241,5
117597,219238,4
117593,219235,5
117599,219250,5
117594,219230,5
117603,219242,5
117597,219231,4
117597,219231,5
117595,219225,5
117596,219236,5
117589,219225,5
117606,219225,4
117594,219232,5
117605,219229,5
117605,219225,5
117606,219235,5
117605,219247,5
117607,219243,4
117609,219246,5
117598,219245,5
117610,219269,6
117610,219251,3
117611,219261,5
117604,219258,6
117620,219276,4
117616,219263,4
117617,219255,5
117612,219266,5
117609,219262,5
117613,219265,5
117614,219268,4
117609,219253,5
117613,219265,5
117613,219266,5
117608,219248,5
117594,219249,4
117594,219237,5
117599,219233,5
117595,219243,5
117597,219247,5
117596,219261,4
117602,219265,6
117606,219262,4
117600,219271,5
117604,219270,5
117601,219277,4
117358,219268,5
117601,219265,5
117608,219288,5
117609,219294,4
117021,219298,5
117603,219305,5
117608,219323,5
117597,219331,5
116892,219327,4
117593,219312,5
117591,219325,5
117594,219317,5
117587,219316,5
117589,219324,4
117596,219328,5
117593,219321,5
118177,219328,5
117597,219330,5
117588,219337,4
117605,219350,5
118345,219364,6
117602,219380,4
117610,219391,5
117605,219409,4
117910,219419,5
117618,219414,5
117618,219436,5
117620,219443,5
117665,219395,4
117630,219468,5
117630,219496,5
117635,219519,5
117647,219059,4
117651,219563,5
117655,219581,5
117667,219599,5
117668,218937,5
117676,219634,5
117677,219650,4
117680,219658,5
117680,219337,5
117694,219680,5
117695,219695,4
117703,219709,5
117714,220144,5
117714,219717,6
117703,219724,4
117708,219739,4
117707,220505,5
117719,219751,5
117717,219747,5
117725,219756,5
117722,220236,4
117734,219790,5
117746,219789,5
117748,219818,5
117753,219946,4
117759,219818,4
117750,219828,5
117763,219815,5
117766,219831,5
117771,219833,4
117777,219831,5
117779,219836,5
117777,219856,5
117781,219848,5
117782,219865,5
117789,219873,4
117789,219890,5
117806,219910,5
117805,219910,5
117825,219927,4
117817,219919,5
117816,219915,5
117817,219930,5
117823,219940,5
117818,219935,4
117825,219943,5
117824,219942,5
117811,219941,5
117813,219931,5
117809,219929,4
117825,219944,5
117815,219929,5
117817,219939,5
117825,219951,4
117822,219947,4
117818,219955,5
117828,219957,5
117826,219955,5
117815,219963,4
117823,219963,6
117830,219950,4
117840,219950,5
117829,219963,5
117844,219968,4
117839,219978,5
117848,219986,5
117849,219998,5
117856,219995,5
117835,219997,4
117844,220006,5
117837,220007,5
117846,220020,5
117845,220016,5
117843,220007,4
117835,220006,5
117841,220008,5
117838,220007,5
117840,219986,5
117848,220004,4
117846,220007,5
117837,219996,5
117845,220001,5
117834,219987,4
117844,219992,5
117840,219977,6
117847,219990,4
117844,219982,5
117841,219980,4
117843,219982,5
117837,219984,5
117844,219994,5
117844,220012,5
117836,220017,4
117832,220036,5
117830,220085,5
117815,220139,5
117810,220215,5
117822,220320,4
117841,220419,5
117837,220469,5
117838,220513,5
117835,220532,5
117838,220543,4
117832,220562,5
117832,220575,5
117502,220588,5
117838,220601,5
117840,220594,4
117830,220585,5
117228,220599,6
117859,220591,4
117855,220576,4
117844,220562,5
117163,220542,5
117858,220546,5
117861,220517,5
117873,220513,4
118022,220492,5
117864,220489,5
117864,220478,5
117877,220462,5
118528,220451,4
117886,220441,5
117885,220445,5
117876,220447,5
118517,220425,5
117903,220423,5
117893,220418,4
117903,220409,5
118126,220406,5
117909,220401,6
117907,220391,3
117911,220373,5
117936,220183,5
117905,220340,5
117899,220350,5
117894,220333,4
117903,219789,5
117901,220307,5
117895,220312,5
117899,220295,4
117884,219575,5
117899,220273,5
117890,220267,5
117887,220259,5
117886,220148,4
117897,220263,5
117885,220270,5
117888,220260,5
117888,220792,5
117894,220251,4
117885,220244,5
117883,220231,5
117880,221004,5
117878,220225,5
117883,220219,5
117880,220220,4
117878,220568,5
117877,220213,5
117877,220212,5
117873,220202,4
117861,220270,5
117876,220211,5
117882,220214,5
117867,220216,5
117862,220210,4
117870,220215,5
117864,220211,5
117876,220216,5
117864,220230,4
117875,220229,5
117871,220224,5
117874,220223,5
117872,220219,5
117879,220219,4
117874,220230,5
117879,220235,5
117886,220248,5
117894,220234,5
117881,220243,4
117882,220240,6
117874,220247,3
117874,220230,5
117872,220242,5
117867,220233,4
117866,220231,5
117862,220239,5
117861,220251,5
117860,220255,5
117855,220249,4
117855,220241,5
117865,220236,5
117859,220232,5
117853,220230,4
117855,220230,4
117864,220230,5
117859,220239,5
117856,220238,5
117860,220225,4
117866,220227,5
117859,220228,5
117862,220233,6
117851,220228,4
117850,220228,4
117858,220224,5
117847,220230,5
117849,220230,5
117853,220233,5
117849,220246,4
117850,220234,5
117841,220233,5
117856,220240,5
117849,220223,5
117859,220238,4
117847,220243,5
117855,220232,5
117849,220226,5
117867,220219,5
117844,220227,4
117849,220220,5
117851,220221,5
117855,220225,5
117848,220222,5
117855,220224,4
117848,220219,5
117860,220212,5
117852,220197,6
117856,220197,3
117857,220201,5
117855,220198,5
117857,220196,5
117859,220189,5
117866,220183,4
117854,220196,5
117851,220193,5
117861,220197,5
117860,220182,5
117855,220195,4
117849,220182,5
117857,220198,5
117855,220187,5
117863,220190,5
117434,220183,4
117846,220190,5
117856,220175,5
117848,220173,5
117181,220182,5
117855,220169,5
117853,220169,4
117848,220182,5
117348,220164,5
117832,220174,6
117840,220179,3
117833,220172,5
118156,220165,5
117831,220161,5
117833,220169,4
117836,220166,5
118529,220160,5
117837,220168,5
117828,220166,5
117831,220170,4
118337,220172,5
117825,220171,5
117828,220165,5
117824,220157,5
117976,220168,4
117825,220168,5
117827,220167,5
117824,220167,5
117836,219898,5
117830,220170,4
117823,220167,6
117826,220169,4
117833,219569,5
117825,220160,5
117829,220161,4
117817,220154,5
117820,219447,5
117825,220152,5
117816,220149,4
117818,220134,4
117808,220192,5
117820,220141,5
117818,220138,5
117821,220147,4
117821,220768,5
117821,220143,5
117824,220153,5
117810,220140,5
117814,220903,4
117824,220150,5
117823,220159,5
117820,220157,5
117827,220443,5
117827,220155,4
117809,220150,5
117814,220146,6
117814,220201,4
117809,220146,5
117804,220165,4
117799,220148,5
117806,220132,5
117803,220133,5
117793,220123,5
117791,220118,4
117796,220110,5
117792,220092,5
117787,220052,5
117779,220027,4
117771,219998,5
117761,219992,5
117768,219973,5
117753,219960,5
117746,219933,4
117748,219926,5
117743,219898,5
117744,219901,5
117742,219901,5
117736,219901,4
117750,219905,5
117742,219911,5
117755,219897,6
117748,219904,4
117745,219898,4
117746,219908,5
117738,219908,5
117746,219902,5
117743,219898,5
117747,219903,4
117740,219892,5
117739,219902,5
117739,219889,5
117737,219896,5
117739,219876,4
117748,219885,5
117731,219866,5
117745,219882,5
117744,219885,4
117724,219879,5
117732,219858,5
117731,219866,5
117732,219864,5
117733,219859,5
117715,219840,4
117722,219835,5
117711,219833,5
117712,219839,6
117715,219832,3
117710,219828,5
117725,219838,5
117716,219827,5
117717,219831,5
117719,219834,4
117721,219830,5
117708,219831,5
117727,219838,5
117717,219832,5
117713,219845,4
117712,219851,5
117714,219843,5
117712,219841,5
117706,219840,7
117716,219850,2
117707,219859,5
117700,219847,5
117701,219854,5
117699,219852,4
117691,219860,6
117696,219864,4
117695,219856,5
117690,219862,5
117695,219854,4
117697,219859,5
117681,219860,5
117600,219866,5
117690,219869,5
117682,219870,4
117679,219869,5
117183,219883,5
117687,219875,5
117686,219895,5
117682,219895,4
117000,219896,5
117683,219893,5
117687,219907,5
117682,219922,5
117445,219939,4
117687,219952,5
117697,219955,5
117694,219952,5
118142,219962,4
117698,219966,4
117692,219963,6
117681,219959,4
118417,219966,5
117665,219955,4
117670,219959,5
117678,219972,5
118067,219966,5
117668,219968,5
117674,219970,4
117667,219968,5
117759,219974,5
117677,219971,5
117679,219971,5
117677,219971,4
117660,219590,5
117666,219962,5
117666,219979,5
117658,219994,5
117664,219347,4
117657,220004,5
117661,219991,5
117663,219987,5
117654,219384,5
117647,219977,5
117640,219971,4
117653,219973,6
117647,220238,4
117647,219960,4
117645,219965,4
117652,219974,5
117657,220680,5
117636,219978,5
117635,219993,4
117648,220031,5
117637,220647,5
117650,220122,5
117647,220152,5
117654,220165,4
117663,220338,5
117673,220156,5
117672,220153,5
117673,220144,5
117678,220153,4
117671,220139,5
117661,220156,5
117661,220173,5
117657,220184,5
117661,220177,4
117634,220174,5
117645,220181,5
117646,220187,5
117646,220176,5
117651,220172,4
117645,220174,5
117650,220167,5
117651,220155,5
117655,220154,4
117658,220147,5
117661,220142,5
117660,220137,5
117668,220139,5
117654,220125,4
117661,220138,5
117666,220118,5
117659,220127,5
117671,220109,5
117673,220101,4
117662,220088,5
117662,220093,5
117659,220075,5
117653,220063,5
117654,220065,5
117650,220061,4
117647,220051,5
117652,220057,5
117654,220051,5
117647,220052,4
117657,220051,5
117653,220023,5
117647,220036,5
117653,220014,5
117651,220029,4
117659,220020,5
117652,219978,5
117647,219990,5
117648,219968,4
117648,219964,5
117632,219965,5
117632,219952,5
117637,219949,5
117633,219938,4
117633,219929,5
117614,219896,5
117623,219900,5
117635,219880,5
117624,219876,4
117626,219866,6
117626,219872,4
117621,219862,5
117622,219857,5
117629,219853,4
117637,219854,5
117625,219840,5
117624,219846,5
117621,219839,5
117632,219839,4
117614,219810,5
117622,219810,5
117632,219814,5
117623,219810,5
117635,219808,4
117630,219804,5
117635,219796,5
117636,219793,5
117643,219793,4
117640,219809,5
117636,219793,5
117633,219776,5
117632,219765,5
117382,219763,4
117634,219768,5
117637,219769,5
117638,219758,5
117048,219758,5
117647,219754,4
117641,219753,5
117632,219742,5
116927,219731,5
117633,219727,5
117636,219721,4
117629,219716,5
117632,219704,5
117628,219698,5
117620,219700,5
117627,219693,4
118208,219690,5
117624,219697,5
117617,219689,5
117616,219692,4
118355,219689,4
117612,219696,5
117611,219690,5
117609,219700,6
117905,219701,3
117616,219718,5
117622,219706,5
117626,219734,5
117657,219641,5
117618,219731,4
117621,219739,5
117623,219740,5
117637,219246,5
117624,219745,5
117629,219739,4
117638,219750,5
117633,219070,5
117633,219756,5
117645,219766,5
117627,219773,4
117639,219492,5
117631,219772,5
117637,219769,5
117640,219770,5
117629,220219,5
117638,219773,4
117635,219777,5
117637,219781,5
117639,220539,6
117637,219784,3
117648,219781,5
117638,219763,5
117642,220194,5
117640,219768,4
117641,219776,5
117642,219759,5
117643,219870,5
117653,219767,5
117654,219766,4
117642,219783,5
117645,219766,5
117654,219768,5
117651,219770,5
117659,219768,4
117650,219772,5
117656,219762,5
117654,219769,5
117651,219769,5
117661,219769,4
117659,219778,6
117659,219774,4
117660,219771,5
117662,219777,5
117646,219774,6
117657,219774,3
117651,219765,5
117653,219777,5
117659,219770,4
117660,219767,4
117644,219779,5
117652,219777,5
117647,219779,5
117651,219790,4
117655,219775,5
117652,219783,5
117652,219773,5
117654,219756,5
117661,219768,4
117664,219762,5
117673,219790,5
117663,219774,5
117665,219772,5
117670,219773,4
117668,219784,5
117662,219777,6
117665,219772,4
117668,219771,5
117664,219783,4
117667,219769,5
117673,219771,5
117674,219778,5
117676,219790,5
117668,219772,4
117672,219775,5
117674,219778,5
117671,219771,5
117672,219760,4
117677,219769,4
117678,219792,5
117683,219775,5
117686,219786,5
117684,219785,4
117679,219778,5
117674,219788,5
117670,219772,5
117674,219783,5
117678,219780,4
117669,219783,5
117668,219793,5
117671,219801,6
117670,219802,4
117679,219819,4
117676,219829,5
117684,219842,5
117687,219834,5
117690,219844,5
117688,219851,4
117691,219862,5
117700,219857,5
117700,219887,5
117711,219886,5
117701,219921,4
117725,219938,5
117723,219970,5
117720,219991,5
117720,220034,4
117725,220046,5
117352,220082,5
117726,220083,5
117722,220096,5
117720,220122,5
117075,220141,4
117716,220145,5
117728,220175,5
117728,220174,6
117100,220171,3
117744,220172,5
117738,220180,5
117748,220208,5
117966,220220,5
117746,220225,4
117756,220240,5
117756,220263,5
118438,220268,5
117770,220275,5
117776,220293,4
117775,220287,5
118359,220296,5
117773,220291,5
117778,220304,5
117776,220311,4
117985,220326,5
117780,220337,5
117786,220331,5
117786,220348,4
117815,220145,6
117800,220368,4
117801,220387,5
117808,220388,5
117806,219854,4
117816,220390,5
117810,220408,5
117810,220414,5
117813,219723,5
117822,220424,5
117836,220438,4
117827,220455,5
117827,220413,5
117828,220482,5
117828,220489,4
117833,220476,5
117840,221047,5
117830,220471,5
117835,220481,5
117842,220484,4
117842,221248,5
117843,220483,5
117847,220496,5
117845,220512,4
117849,220854,4
117858,220533,6
117860,220524,4
117853,220505,5
117854,220572,4
117857,220516,5
117866,220542,5
117871,220540,5
117868,220541,5
117867,220558,4
117892,220585,5
117883,220604,5
117899,220632,5
117905,220647,5
117908,220635,4
117905,220638,5
117914,220627,5
117907,220625,5
117902,220616,5
117909,220606,4
117900,220622,5
117901,220615,5
117907,220615,5
117899,220603,5
117907,220603,4
117907,220608,5
117903,220618,6
117909,220613,4
117914,220622,4
117917,220607,4
117910,220619,5
117926,220594,5
117919,220591,5
117931,220585,4
117933,220564,5
117927,220546,5
117923,220538,5
117932,220537,5
117932,220526,4
117929,220496,5
117915,220450,5
117905,220418,5
117903,220400,5
117908,220390,4
117915,220376,5
117907,220360,5
117908,220342,5
117924,220311,5
117916,220302,4
117926,220293,5
117922,220268,5
117916,220259,6
117924,220253,4
117934,220234,4
117934,220228,5
117942,220221,5
117951,220206,5
117945,220196,5
117948,220178,4
117949,220173,5
117942,220146,5
117942,220131,5
117932,220129,4
117932,220122,5
117930,220097,5
117948,220112,5
117929,220100,5
117935,220090,4
117933,220095,5
117941,220095,5
117930,220095,5
117929,220095,5
117935,220103,5
117928,220096,4
117925,220083,5
117911,220074,5
117915,220080,5
117915,220076,4
117925,220074,5
117919,220081,6
117916,220062,4
117910,220053,5
117907,220047,4
117915,220044,5
117923,220046,5
117481,220040,5
117913,220035,4
117910,220037,4
117912,220017,5
117248,220008,5
117900,220004,5
117899,219999,4
117908,219994,5
117427,220002,5
117895,219988,5
117909,220007,5
117908,220005,4
118236,220009,6
117908,220004,4
117922,220013,5
117915,220008,5
118638,220010,4
117921,220006,5
117921,220022,5
117935,220027,5
118445,220020,5
117923,220010,4
117912,220022,5
117915,220018,5
118072,220001,5
117913,219999,5
117917,219996,4
117924,220011,5
117931,219718,5
117931,220008,5
117929,219995,5
117915,219998,4
117922,219387,5
117921,219987,6
117924,219991,4
117925,220000,4
117927,219283,5
117932,220004,7
117931,219995,3
117930,219991,5
117930,220098,4
117925,219990,5
117922,219975,5
117923,219957,5
117926,220607,5
117914,219947,4
117907,219947,5
117910,219939,5
117912,220639,5
117904,219916,5
117904,219900,4
117913,219890,5
117907,220138,5
117909,219889,5
117914,219871,5
117909,219870,4
117904,219896,5
117907,219858,5
117921,219850,5
117910,219842,4
117910,219834,4
117903,219829,5
117910,219832,5
117906,219823,5
117913,219821,4
117906,219809,5
117919,219815,5
117929,219820,5
117916,219797,5
117902,219795,4
117911,219792,5
117913,219794,5
117920,219786,5
117909,219791,5
117900,219753,4
117895,219760,5
117893,219742,5
117902,219740,5
117892,219722,5
117881,219718,4
117894,219716,5
117887,219726,5
117893,219716,5
117898,219721,5
117889,219726,4
117895,219723,5
117891,219694,5
117892,219688,5
117883,219699,4
117889,219698,4
117893,219699,5
117891,219699,5
117892,219697,5
117890,219698,4
117898,219688,5
117895,219690,5
117889,219676,5
117902,219689,5
117885,219688,4
117901,219683,5
117901,219683,5
117901,219678,5
117896,219687,5
117901,219686,4
117899,219668,6
117903,219688,4
117901,219675,5
117896,219678,5
117888,219680,6
117890,219676,3
117891,219665,5
117891,219666,5
117882,219668,5
117884,219669,4
117883,219681,5
117889,219658,5
117880,219664,5
117890,219661,4
117879,219662,4
117885,219667,5
117885,219675,5
117878,219665,5
117882,219672,4
117876,219668,5
117878,219674,5
117877,219679,5
117889,219695,5
117877,219671,4
117876,219681,5
117876,219661,6
117875,219660,4
117881,219661,5
117887,219652,4
117716,219646,5
117871,219627,5
117876,219634,5
117880,219632,5
117340,219636,4
117878,219632,5
117883,219645,5
117893,219642,5
117177,219647,5
117887,219633,4
117894,219641,5
117894,219624,5
117734,219625,5
117903,219617,4
117909,219603,5
117916,219602,5
118426,219599,5
117919,219595,5
117921,219596,4
117918,219592,5
118675,219584,5
117916,219558,6
117924,219547,4
117919,219527,4
118296,219532,5
117919,219559,5
117931,219534,5
117925,219534,5
118009,219523,4
117935,219518,5
117944,219528,5
117943,219532,5
117948,219102,5
117950,219527,4
117956,219528,5
117960,219507,5
117967,218829,5
117954,219501,5
117963,219507,4
117965,219490,5
117967,218997,5
117974,219514,5
117973,219508,5
117989,219509,4
117991,219855,5
117995,219521,5
118004,219520,6
118009,219513,3
118024,220250,5
118027,219520,5
118030,219499,5
118028,219504,5
118035,220063,4
118040,219502,5
118053,219497,5
118041,219488,5
118045,219664,5
118040,219486,4
118048,219479,5
118053,219470,5
118056,219474,5
118056,219451,5
118054,219413,4
118063,219397,5
118054,219388,5
118051,219400,5
118049,219394,5
118060,219394,5
118048,219391,4
118046,219406,5
118048,219384,5
118063,219379,6
118045,219394,3
118053,219372,5
118053,219388,5
118064,219384,5
118066,219379,4
118076,219375,5
118069,219387,5
118068,219380,5
118075,219379,5
118068,219385,4
118072,219381,5
118077,219365,5
118082,219353,5
118071,219364,5
118080,219358,4
118073,219362,5
118072,219356,5
118068,219329,5
118061,219324,5
118064,219330,4
118072,219337,6
118076,219319,4
118078,219318,5
118079,219324,5
118074,219325,4
118066,219330,5
118081,219334,5
118081,219321,5
118087,219310,4
118074,219294,5
118075,219293,5
118083,219290,5
118079,219277,5
118070,219275,4
118075,219276,5
118065,219271,5
118072,219267,5
118072,219277,5
118081,219277,4
118073,219264,5
118076,219275,5
118080,219285,5
118076,219278,5
118087,219287,4
118097,219273,5
118081,219265,6
118087,219274,4
118091,219280,5
118092,219272,4
118082,219290,5
118081,219289,5
118078,219286,5
118085,219278,5
118076,219277,4
118064,219272,5
118059,219279,5
118060,219284,5
118063,219275,4
118069,219273,5
118055,219256,5
118065,219267,5
118058,219255,5
118057,219256,4
118059,219261,5
118060,219256,5
117801,219255,5
118064,219239,5
118060,219266,4
118062,219259,5
117453,219263,5
118060,219250,6
118069,219243,4
118068,219254,4
117342,219261,5
118065,219256,5
118073,219262,5
118074,219271,5
118092,219261,4
118076,219249,5
118068,219252,5
118069,219244,5
118680,219250,5
118071,219257,4
118070,219253,5
118074,219266,5
118823,219256,5
118079,219261,4
118067,219260,5
118064,219255,5
118357,219272,5
118075,219278,5
118071,219263,5
118061,219255,4
118111,219173,5
118063,219265,5
118071,219263,5
118064,219250,4
118078,218752,5
118066,219257,5
118075,219257,5
118068,219253,5
118073,218546,4
118077,219260,5
118074,219253,5
118068,219246,5
118079,218966,5
118072,219256,4
118071,219249,5
118071,219256,5
118073,219752,5
118067,219264,4
118078,219265,4
118080,219260,5
118079,220065,5
118084,219261,5
118078,219265,4
118085,219274,6
118083,219697,4
118072,219254,5
118072,219261,5
118070,219261,4
118074,219370,5
118082,219272,5
118069,219270,5
118069,219271,5
118066,219260,4
118073,219259,5
118064,219264,5
118071,219269,5
118056,219270,5
118065,219277,4
118062,219265,5
118060,219271,5
118068,219278,5
118060,219262,5
118064,219261,4
118059,219270,5
118064,219268,5
118057,219258,5
118054,219257,4
118054,219255,4
118052,219252,6
118053,219252,4
118055,219253,5
118059,219260,4
118049,219261,5
118054,219254,5
118050,219251,5
118053,219258,5
118061,219256,4
118053,219278,5
118055,219264,5
118053,219264,5
118054,219273,5
118060,219274,4
118056,219271,5
118051,219275,5
118065,219269,5
118052,219270,5
118054,219280,4
118048,219274,5
118041,219284,5
118031,219279,5
118036,219269,5
118031,219274,4
118028,219280,5
118022,219262,8
118019,219269,2
118015,219271,4
118014,219265,5
117985,219251,5
118017,219258,5
118000,219260,5
118010,219262,4
118007,219267,5
118014,219270,5
118009,219276,5
118010,219266,5
118012,219284,4
118004,219295,5
118001,219292,5
117987,219298,5
117977,219296,5
117985,219296,4
117980,219294,5
117980,219279,5
117972,219276,5
117971,219288,5
117958,219281,4
117950,219288,5
117959,219280,5
117962,219277,5
117949,219284,4
117960,219289,4
117957,219285,5
117960,219284,5
117951,219286,5
117953,219286,4
117942,219290,5
117954,219292,5
117947,219286,5
117945,219293,5
117505,219280,4
117948,219295,5
117952,219275,5
117954,219284,5
117269,219274,7
117951,219271,2
117943,219257,5
117932,219258,5
117454,219249,5
117931,219249,5
117935,219251,5
117931,219239,4
118274,219241,5
117935,219238,5
117932,219229,5
117931,219245,4
118663,219220,5
117927,219226,5
117929,219223,5
117928,219222,4
118434,219222,4
117922,219211,5
117915,219217,5
117910,219225,5
118069,219220,4
117917,219213,5
117907,219212,5
117914,219200,5
117913,218905,5
117909,219183,4
117907,219198,5
117911,219166,6
117912,218552,4
117898,219169,5
117907,219150,4
117904,219154,7
117901,218422,3
117903,219142,5
117900,219150,5
117906,219147,4
117909,219261,5
117912,219152,5
117911,219142,5
117905,219144,5
117913,219812,4
117917,219128,5
117918,219120,5
117929,219111,5
117918,219842,4
117912,219098,5
117915,219098,5
117902,219099,5
117901,219358,5
117902,219085,4
117907,219079,5
117901,219078,5
117887,219098,6
117885,219048,4
117898,219057,4
117880,219041,5
117892,219046,5
117884,219033,5
117878,219032,5
117866,219026,4
117873,219022,5
117875,219022,5
117865,219023,5
117859,219004,5
117857,218996,4
117854,218986,5
117844,218999,5
117852,218978,5
117841,218975,4
117838,218961,4
117843,218972,5
117832,218983,5
117834,218984,5
117846,218979,5
117840,218970,4
117832,218956,5
117843,218968,5
117839,218966,6
117839,218968,3
117838,218964,5
117843,218970,5
117843,218960,5
117844,218977,5
117848,218966,4
117840,218972,5
117842,218971,5
117843,218975,5
117845,218964,5
117837,218976,4
117842,218975,5
117837,218985,5
117841,218968,5
117822,218960,5
117833,218974,4
117842,218972,5
117838,218971,5
117850,218974,5
117840,218992,4
117847,218988,5
117844,218987,4
117849,218988,5
117864,219005,5
117876,219024,6
117887,219041,3
117893,219062,5
117900,219084,5
117905,219094,5
117906,219114,4
117905,219121,5
117916,219119,5
117908,219121,5
117921,219125,5
117918,219124,4
117925,219138,5
117928,219129,5
117934,219153,5
117947,219159,5
117945,219184,4
117946,219212,5
117954,219223,5
117968,219234,5
117964,219259,5
117968,219264,4
117975,219294,6
117993,219317,4
117993,219321,5
118002,219339,4
118004,219348,5
118003,219338,5
117804,219343,5
117992,219338,5
117998,219323,4
117996,219301,5
117438,219314,5
118003,219301,5
118013,219296,5
118017,219285,4
117298,219281,5
118024,219291,5
118026,219288,5
118033,219296,5
117948,219280,4
118030,219267,5
118027,219282,5
118039,219286,5
118590,219293,5
118027,219289,4
118030,219286,5
118038,219298,6
118806,219284,4
118042,219300,5
118038,219288,4
118040,219284,5
118362,219288,5
118039,219289,5
118041,219283,4
118035,219278,5
118088,219240,5
118039,219277,5
118054,219284,5
118043,219298,4
118049,218818,5
118055,219290,5
118061,219286,5
118065,219284,5
118058,218584,4
118053,219281,5
118062,219286,5
118056,219267,5
118065,218866,5
118066,219256,4
118069,219278,5
118075,219263,5
118065,219684,6
118068,219252,4
118069,219250,4
118075,219259,5
118070,220029,5
118071,219278,5
118071,219280,4
118071,219280,4
118070,219779,5
118078,219274,5
118071,219275,5
118078,219267,4
118083,219403,5
118080,219280,5
118068,219279,5
118062,219291,5
118071,219293,4
118067,219296,5
118073,219299,5
118078,219281,5
118061,219285,5
118068,219295,5
118073,219287,4
118064,219298,5
118080,219291,5
118079,219294,5
118090,219293,4
118087,219294,5
118096,219275,5
118101,219287,5
118105,219281,5
118101,219275,4
118097,219284,5
118110,219285,5
118106,219294,5
118115,219280,4
118114,219295,4
118115,219286,5
118127,219307,5
118128,219306,5
118131,219303,4
118124,219309,5
118132,219325,5
118144,219324,5
118135,219319,5
118147,219327,4
118141,219338,6
118152,219348,4
118150,219347,5
118161,219347,5
118157,219348,4
118150,219346,5
118155,219346,5
118155,219344,5
118163,219349,5
118165,219345,4
118154,219354,5
118155,219350,5
118154,219346,5
118152,219337,5
118162,219351,4
118159,219347,5
118159,219355,5
118166,219363,5
118170,219356,4
118173,219357,4
118177,219355,5
118177,219366,5
118176,219355,5
118188,219339,4
118181,219349,5
118188,219357,6
118192,219352,4
118206,219370,5
118213,219373,4
118213,219373,5
118223,219368,5
118218,219360,5
118233,219379,5
118232,219366,4
118235,219381,5
118236,219393,5
118233,219382,5
118233,219388,5
118245,219391,4
118243,219390,5
118237,219408,5
118246,219397,5
118245,219394,5
118247,219389,4
118255,219379,5
118244,219378,5
118251,219372,5
117937,219387,4
118254,219377,5
118244,219378,5
118256,219387,6
117612,219373,4
118247,219362,4
118258,219377,5
118266,219387,5
117545,219392,5
118276,219383,5
118285,219396,4
118288,219405,5
118412,219391,5
118308,219410,5
118323,219412,5
118315,219421,4
118977,219416,5
118315,219432,5
118319,219449,5
118318,219442,5
119026,219429,4
118306,219437,5
118313,219434,5
118313,219444,5
118577,219439,5
118328,219441,4
118333,219436,5
118341,219450,5
118380,219289,5
118347,219444,4
118345,219448,5
118351,219450,5
118352,218894,5
118360,219447,5
118369,219452,4
118368,219453,5
118389,218733,5
118391,219457,5
118382,219460,5
118389,219455,4
118395,219268,5
118399,219463,5
118393,219457,5
118388,219466,5
118387,219992,4
118394,219458,5
118389,219463,5
118381,219466,5
118393,220269,5
118386,219453,6
118395,219466,3
118383,219459,5
118386,219882,5
118396,219472,5
118383,219466,4
118391,219464,5
118379,219563,5
118396,219469,5
118380,219461,4
118380,219463,5
118386,219470,5
118382,219467,5
118375,219457,5
118374,219467,4
118380,219473,5
118386,219468,5
118385,219470,5
118386,219467,5
118377,219481,4
118392,219464,5
118388,219476,5
118393,219474,5
118396,219470,5
118414,219483,4
118399,219468,6
118404,219472,4
118400,219468,5
118417,219482,5
118408,219470,4
118419,219468,5
118425,219474,5
118428,219465,5
118427,219456,4
118424,219467,4
118426,219465,5
118417,219456,5
118427,219457,5
118427,219456,4
118437,219456,5
118426,219456,5
118439,219458,5
118436,219445,5
118437,219452,4
118428,219436,5
118430,219426,5
118434,219422,5
118431,219423,5
118429,219440,4
118432,219425,5
118439,219426,5
118437,219444,5
118442,219423,5
118451,219439,4
118449,219438,5
118462,219437,5
118457,219430,5
118455,219459,5
118453,219451,4
118454,219445,5
118458,219451,5
118450,219446,5
118443,219443,4
118442,219446,4
118450,219453,5
118457,219449,5
118455,219436,5
118459,219440,5
118479,219450,4
118482,219449,5
118476,219450,5
118494,219450,6
118484,219456,3
118496,219459,5
118491,219452,5
118493,219450,5
118503,219456,5
118509,219448,4
118498,219460,5
118508,219465,5
118500,219456,5
118515,219467,5
118503,219458,4
118508,219469,5
118499,219453,5
118509,219457,5
118515,219457,5
118519,219467,4
118050,219454,5
118515,219464,5
118531,219470,5
118527,219470,4
117817,219468,5
118536,219465,4
118531,219452,5
118525,219462,5
118101,219461,6
118523,219460,3
118517,219455,5
118519,219447,5
118923,219453,5
118520,219454,4
118533,219464,10
118505,219432,5
118505,219432,5
118988,219427,4
118512,219432,5
118504,219432,5
118518,219426,5
118650,219426,5
118522,219439,4
118513,219448,5
118518,219442,5
118529,219078,5
118534,219458,5
118531,219441,4
118520,219454,6
118528,218789,4
118527,219464,5
118536,219460,4
118538,219461,5
118536,218734,5
118528,219472,5
118530,219456,5
118531,219471,5
118527,219696,4
118527,219467,5
118530,219465,5
118525,219478,5
118525,220215,4
118528,219478,5
118508,219480,5
118514,219490,5
118511,220146,5
118522,219497,4
118521,219506,5
118526,219492,5
118519,219724,5
118526,219508,5
118530,219513,4
118531,219508,5
118525,219523,6
118516,219517,4
118513,219533,4
118510,219533,4
118510,219522,5
118499,219544,5
118492,219544,5
118490,219560,4
118489,219562,5
118496,219576,5
118499,219564,5
118509,219584,5
118504,219574,4
118505,219575,5
118504,219587,5
118495,219591,5
118506,219598,5
118503,219595,4
118501,219595,5
118503,219596,5
118508,219604,5
118507,219610,5
118509,219609,4
118501,219617,5
118504,219601,5
118493,219596,6
118500,219616,4
118509,219611,4
118497,219623,5
118498,219613,5
118503,219612,5
118496,219622,4
118495,219631,4
118491,219626,5
118487,219635,5
118475,219628,5
118477,219635,4
118492,219641,5
118490,219656,5
118486,219659,5
118492,219664,5
118482,219663,4
118485,219667,5
118485,219669,5
118479,219686,5
118481,219671,5
118481,219672,5
118474,219660,4
118471,219667,5
118470,219671,5
118462,219672,6
118467,219648,3
118467,219662,5
118462,219658,5
118465,219662,5
118458,219645,5
118468,219657,4
118467,219652,5
118459,219666,5
118458,219661,5
118456,219653,4
118457,219653,5
118461,219666,5
118451,219651,5
118460,219662,5
118461,219653,4
118467,219648,5
118452,219661,5
118457,219667,5
118464,219671,5
118457,219671,4
118456,219666,6
118458,219668,4
118457,219656,5
118458,219656,5
118456,219657,4
118456,219655,5
118220,219674,5
118449,219656,5
118467,219658,5
118456,219657,4
117860,219649,5
118470,219659,5
118460,219652,5
118455,219655,5
117718,219642,4
118467,219652,5
118463,219640,5
118463,219641,5
118434,219634,4
118464,219627,5
118463,219645,5
118466,219636,5
119062,219628,5
118470,219638,4
118463,219651,5
118471,219649,6
119255,219647,4
118466,219653,5
118472,219658,4
118482,219662,5
118791,219657,5
118477,219665,5
118483,219660,5
118487,219663,4
118538,219606,5
118496,219655,5
118492,219655,5
118488,219664,5
118488,219165,4
118478,219668,5
118479,219666,5
118467,219654,5
118476,218932,4
118473,219649,4
118472,219638,5
118462,219639,5
118471,219300,5
118462,219625,4
118465,219607,5
118462,219605,5
118462,220062,6
118466,219598,4
118460,219605,4
118460,219580,5
118459,220370,5
118456,219572,5
118456,219583,5
118463,219561,4
118451,220043,5
118465,219551,5
118462,219544,5
118458,219533,5
118460,219655,4
118465,219517,5
118460,219525,5
118454,219514,5
118448,219499,5
118449,219493,4
118449,219479,5
118447,219475,5
118443,219464,5
118449,219453,5
118441,219445,4
118450,219430,5
118435,219419,5
118445,219402,5
118448,219408,4
118444,219395,5
118443,219390,5
118437,219380,5
118433,219373,5
118436,219361,4
118435,219358,5
118444,219337,5
118434,219337,5
118423,219316,5
118428,219317,4
118436,219304,5
118444,219300,5
118438,219299,5
118443,219296,5
118430,219275,4
118441,219263,5
118435,219265,5
118432,219259,5
118430,219249,5
118413,219252,5
118420,219237,4
118419,219246,5
118407,219228,5
118411,219226,4
118400,219214,5
118403,219215,5
118403,219213,5
118398,219207,5
118385,219206,4
118372,219161,5
118350,219071,5
118284,218925,5
118231,218792,5
118205,218670,4
118173,218569,5
118151,218508,5
118134,218471,5
118130,218443,5
118125,218411,4
118123,218426,5
118114,218413,5
118121,218426,5
118108,218457,5
118093,218465,4
118088,218517,6
118080,218577,4
118057,218570,5
118019,218532,5
117979,218447,4
117864,218158,5
117705,217566,5
117611,216953,5
117526,216360,4
117550,215959,5
117618,215620,5
117646,215282,5
117755,215097,5
117894,215052,4
118106,215078,5
118219,215026,5
118356,214965,5
118470,214834,5
118564,214619,4
118631,214415,5
118690,214100,5
118733,213875,5
118360,213752,5
118786,213688,4
118777,213645,5
118766,213556,5
117994,213498,5
118740,213488,5
118764,213518,4
118764,213549,5
117953,213605,5
118756,213675,5
118756,213739,4
118737,213789,4
118952,213805,5
118718,213866,5
118663,213864,5
118618,213820,4
119352,213766,5
118563,213726,5
118503,213657,5
118460,213637,5
119121,213604,4
118385,213605,5
118361,213609,5
118330,213673,5
118525,213755,5
118260,213899,4
118251,214115,5
118232,214346,5
118228,214373,5
118200,214820,5
118212,215053,4
118234,215258,9
118233,214829,5
118227,215598,8
118246,215712,5
118251,215816,7
118249,215125,8
118250,215966,5
118228,215980,7
118228,216289,8
118228,216289,5
118221,216996,7
118246,216453,8
118259,216497,7
118275,216545,5
118298,217440,7
118311,216645,1
118349,216734,4
118373,216819,5
118397,217262,4
118422,216965,5
118451,217046,5
118449,217085,5
118464,217218,5
118459,217222,4
118480,217283,5
118490,217353,5
118502,217412,5
118514,217455,5
118528,217492,4
118529,217515,5
118520,217541,5
118532,217582,5
118528,217603,4
