RED,IR,EKG,TIME
20914,56858,5
20916,56664,5
20855,56431,10
20820,56311,5
20893,56158,5
20750,55104,10
20829,54895,5
20887,54684,5
21149,54465,10
21121,54334,5
21282,54167,5
21527,54044,9
21878,54255,5
22045,54408,5
23393,54812,10
23393,54812,5
23656,54940,7
23963,54757,8
24211,55280,5
24489,55460,7
24833,55683,8
26132,56754,9
26132,56754,10
26231,56594,5
26289,56598,7
26344,56637,8
26437,57244,5
26776,57303,7
26776,57303,8
26817,57495,5
26958,57695,7
27006,57865,8
26957,57547,5
26872,57336,7
26618,56554,8
26618,56554,5
26577,56501,7
26597,56452,8
26593,56394,5
26574,56342,7
26554,56231,8
26180,55178,9
26180,55178,8
26056,54799,5
25933,54510,7
25908,54242,8
25808,54004,5
25748,53824,7
25620,53298,8
25620,53298,5
25603,53228,7
25597,53197,8
25598,53183,7
25609,53169,5
25611,53182,8
25655,53243,7
25655,53243,5
25667,53286,8
25699,53335,7
25732,53384,5
25768,53460,8
25808,53557,7
25863,53698,5
26101,54251,8
26101,54251,7
26128,54346,7
26168,54381,10
26181,54438,5
26208,54509,5
26514,55246,8
26514,55246,7
26654,55465,10
26719,55701,9
27421,57382,9
27421,57382,10
27613,57809,5
27818,58316,8
27979,58683,7
28516,59997,9
28516,59997,10
28633,60272,8
29166,62155,6
29166,62155,4
29370,62748,5
29592,63408,5
29723,64059,5
30127,64824,4
30391,65524,5
30660,66246,6
30570,67041,4
31261,67816,5
31560,68679,4
31867,69537,5
31640,70448,5
32406,71321,5
32638,72072,4
32892,72998,4
33152,74244,5
33602,75408,5
34030,76781,5
34587,78581,4
35816,80885,5
36320,83082,5
37235,84542,5
38098,86686,5
39390,88722,4
39836,90797,5
40665,92896,5
41668,95439,5
43528,99514,5
46186,105832,4
49640,113011,5
52119,119834,5
54924,125175,6
57099,130136,4
58968,134191,4
60960,136999,5
62754,140354,5
63773,142300,5
65192,144772,5
65905,146239,4
65963,147391,5
66782,149085,5
67595,149754,5
67660,149925,5
68048,150190,4
68250,150811,5
68697,151128,5
68834,151389,5
69010,151806,4
69142,151831,5
69028,151630,5
69064,151562,5
69431,152280,5
69586,152031,5
69771,152365,4
69989,152536,5
69958,152656,5
69665,151956,6
69345,151428,3
69039,150868,5
68654,150221,5
68256,149571,5
67782,148811,5
67232,147873,4
66786,147169,5
66396,146578,5
65935,145798,5
65682,145406,5
65489,144978,4
65166,144565,5
65004,144203,5
64809,143893,5
64774,143764,4
64660,143569,4
64559,143368,5
64465,143198,5
64376,142985,5
64197,142668,4
63910,142128,6
63619,141590,4
63294,140987,5
63009,140558,5
62788,140151,4
62586,139814,5
62431,139545,5
62345,139376,5
62317,139291,5
62328,139299,4
62267,139165,5
62178,138962,5
61983,138568,5
61800,138206,5
61543,137728,4
61278,137259,5
61116,136899,5
60839,136390,5
60617,135974,5
60460,135611,4
60274,135266,5
60108,134944,5
60022,134773,5
60013,134684,4
59929,134509,4
59847,134383,6
59816,134301,4
59780,134225,5
59753,134181,4
59766,134147,5
59741,134139,5
59741,134088,5
59738,134077,5
59751,134092,4
59729,134045,5
59696,133975,5
59661,133878,5
59585,133725,5
59483,133481,4
59302,133155,5
59141,132861,5
59021,132632,5
58959,132477,5
58892,132407,4
58894,132392,5
58899,132372,5
58841,132268,5
58775,132159,4
58732,132105,4
58704,132045,5
58715,132086,6
58748,132158,4
58805,132243,4
58876,132384,5
58947,132467,5
58987,132545,5
59019,132596,5
59049,132665,4
59076,132718,5
59130,132834,5
59212,133013,5
59330,133230,5
59481,133526,4
59633,133954,5
59951,134470,5
60241,135008,5
60508,135509,5
60612,135991,4
60966,136387,5
61156,136784,5
61407,137183,5
61371,137394,5
61587,137552,4
61754,137930,5
61766,137965,5
61851,138020,5
61835,137988,4
61816,137984,4
61809,137975,5
61958,137988,5
61841,138026,5
61855,138063,4
61873,138089,5
62063,138088,5
61880,138100,5
61875,138105,5
61893,138123,4
61957,138123,5
61900,138158,5
61916,138142,5
61894,138121,5
61867,138019,4
61792,137928,5
61705,137796,5
61650,137683,5
61607,137487,5
61574,137542,5
61544,137497,4
61529,137462,5
61506,137259,5
61474,137369,5
61446,137329,4
61431,137289,5
61411,137187,5
61402,137245,5
61386,137227,4
61384,137217,4
61395,137322,5
61395,137209,5
61359,137126,5
61278,136971,4
61195,136996,5
61106,136643,5
61002,136473,5
60928,136336,5
60889,136372,4
60838,136179,5
60795,136103,5
60766,136036,5
60729,135999,5
60704,135914,4
60686,135877,11
60679,135867,4
60659,135824,5
60641,135806,4
60632,135776,5
60629,135755,5
60595,135720,5
60584,135666,5
60568,135646,4
60545,135613,5
60532,135580,5
60514,135556,5
60503,135528,4
60495,135509,4
60497,135517,5
60521,135578,5
60544,135617,5
60581,135673,4
60586,135680,5
60560,135645,5
60552,135627,5
60544,135606,5
60550,135629,4
60578,135675,5
60609,135710,6
60624,135745,4
60629,135741,5
60641,135773,4
60663,135807,5
60681,135857,5
60724,135944,5
60797,136046,5
60864,136174,4
60929,136286,5
60968,136355,5
60989,136385,5
60994,136370,4
60979,136365,4
60994,136380,5
61004,136390,5
61007,136402,5
61035,136462,4
61099,136561,5
61150,136672,5
61214,136805,5
61334,137031,5
61448,137243,4
61555,137434,5
61632,137602,5
61742,137835,5
61867,138069,5
61959,138225,4
62013,138346,5
62068,138453,5
62111,138564,5
62140,138610,5
62140,138636,4
62143,138634,5
62146,138667,5
62184,138750,5
62244,138876,5
62352,139089,4
62467,139298,5
62569,139494,5
62691,139762,5
62836,140033,4
62989,140309,4
63141,140591,4
63260,140812,5
63313,140931,5
63369,141079,5
63484,141274,3
63598,141508,5
63726,141749,5
63879,142060,5
64043,142371,4
64147,142580,5
64281,142872,5
64472,143289,5
64616,143635,5
64854,143898,4
64991,144125,5
65124,144386,5
65098,144655,5
65454,144948,5
65599,145194,4
65661,145273,5
65528,145384,5
65808,145566,5
65907,145695,5
65987,145845,4
66110,145964,6
66088,146030,4
66105,146064,5
66097,146082,4
66344,146178,6
66191,146229,3
66173,146200,5
66178,146223,5
66376,146264,4
66215,146313,5
66232,146319,5
66222,146330,5
66311,146365,5
66272,146407,4
66274,146433,5
66287,146474,5
66336,146508,5
66375,146609,5
66404,146682,4
66461,146794,5
66502,146704,5
66517,146889,5
66597,147037,5
66707,147251,4
66817,147201,5
66935,147611,6
67019,147722,4
67032,147707,5
67013,147629,4
66992,147651,5
66974,147606,5
66934,147580,5
66935,147745,4
67023,147722,4
67096,147841,5
67180,148013,5
67300,148435,5
67371,148311,4
67385,148364,5
67435,148475,5
67541,148752,5
67654,148750,5
67695,148806,4
67659,148721,5
67574,148689,5
67565,148716,5
67569,148761,5
67581,148834,4
67555,148805,5
67492,148745,5
67449,148724,6
67371,148610,4
67273,148516,4
67179,148373,5
67033,148205,5
66921,148051,5
66853,147976,5
66789,147897,4
66691,147743,5
66655,147697,5
66626,147662,5
66617,147564,4
66515,147346,4
66227,146949,5
65988,146500,5
65696,146048,5
65417,145611,4
65076,145112,5
64873,144663,5
64525,144072,5
64197,143511,5
63925,143033,5
63609,142468,4
63329,141940,5
63098,141522,5
62917,141121,6
62658,140598,3
62369,139994,5
62082,139477,5
61762,138843,5
61430,138255,5
61191,137813,4
60977,137260,5
60732,136650,5
60357,135999,5
60155,135551,4
59918,135088,4
59704,134653,5
59473,134183,5
59192,133596,5
58959,133143,4
58733,132657,5
58580,132293,5
58501,131936,5
58325,131533,5
58092,131049,4
57913,131325,6
57759,130995,4
57557,130608,5
57490,130349,5
57459,130234,4
57443,130188,5
57416,130101,5
57414,130052,5
57377,129943,5
57362,129879,4
57377,129864,5
57391,129806,5
57428,129859,5
57391,129753,5
57389,129712,4
57363,129635,5
57300,129476,5
57218,129341,5
57176,129282,4
57234,129356,4
57300,129446,5
57359,129470,5
57355,129455,5
57357,129378,4
57305,129288,5
57322,129285,6
57312,129217,4
57303,129170,5
57294,129114,4
57065,128915,5
57081,128708,5
57021,128733,5
57065,128726,5
56857,128706,4
57011,128577,5
56972,128519,5
56987,128524,5
56846,128617,5
57125,128725,4
57211,128832,5
57222,128834,5
57312,128838,5
57293,128951,5
57359,129043,4
57402,129085,5
57657,129121,5
57411,129115,5
57452,129165,4
57496,129218,4
57771,129345,5
57652,129481,6
57752,129619,4
57823,129760,4
57984,129916,5
58000,130062,5
58075,130212,5
58168,130364,5
58301,130484,4
58396,130694,5
58458,130793,5
58532,130899,5
58554,130715,5
58555,130938,4
58607,131011,5
58692,131167,5
58810,131108,5
58938,131517,5
58997,131581,5
59011,131583,4
59040,131612,5
59069,131669,5
59118,131740,5
59182,131814,4
59211,132051,5
59279,131936,5
59348,131980,6
59341,131955,3
59371,132263,4
59443,132084,5
59563,132168,5
59601,132180,5
59609,132212,4
59540,131903,5
59443,131726,5
59429,131684,5
59436,131660,5
59410,131572,4
59454,131558,5
59376,131348,5
59271,131144,5
59196,130982,5
59099,130772,4
59014,130622,5
59006,130562,5
59010,130560,5
59059,130558,5
59065,130549,5
59087,130535,4
59190,130636,5
59283,130727,5
59418,130873,5
59395,130739,4
59359,130662,5
59431,130740,5
59535,130835,5
59650,130947,4
59736,131022,4
59776,131052,5
59836,131084,5
59872,131083,5
59900,131099,4
59954,131142,5
60074,131309,5
60221,131531,5
60381,131718,5
60455,131797,4
60581,131995,5
60707,132133,5
60785,132224,5
60826,132256,5
60900,132320,4
60973,132445,6
61208,132751,4
61422,132919,5
61559,132985,5
61554,133035,4
61683,133171,5
61795,133313,5
61899,133446,5
61997,133619,4
62133,133762,4
62157,133790,5
62140,133724,5
62131,133700,5
62137,133757,4
62279,133944,5
62389,134058,5
62481,134180,5
62538,134268,5
62592,134284,4
62556,134252,5
62586,134327,5
62725,134550,5
62805,134612,5
62788,134595,4
62818,134645,5
62916,134810,6
63095,135071,4
63295,135341,5
63435,135515,4
63545,135697,5
63680,135846,5
63818,136056,5
63925,136185,5
63965,136250,4
64031,136318,5
64089,136423,5
64172,136563,5
64306,136757,4
64550,137119,4
64865,137520,5
65141,137859,5
65338,138147,5
65580,138445,4
65753,138630,5
65966,138955,5
65941,139142,5
66232,139231,5
66235,139228,4
66258,139258,5
65939,139240,5
66242,139214,5
66240,139196,5
66173,139117,4
65925,139080,5
66141,139062,5
66161,139072,5
66164,139081,5
66306,139074,4
66142,139057,5
66137,139043,5
66080,138945,5
66317,138791,5
65841,138588,4
65695,138399,5
65637,138334,5
65854,138287,5
65561,138259,4
65538,138213,5
65574,138288,4
65749,138397,5
65723,138458,5
65775,138517,6
65806,138543,3
65849,138456,5
65759,138426,5
65687,138364,5
65700,138377,4
65759,138148,5
65756,138417,5
65792,138495,5
65928,138705,5
66170,138679,4
66451,139407,5
66684,139468,5
66653,139529,5
66754,139686,5
66871,139815,4
67074,140039,5
67223,140217,5
67370,140680,5
67473,140490,5
67525,140489,4
67500,140452,5
67438,140705,4
67406,140305,5
67431,140350,4
67465,140389,5
67557,140641,3
67618,140566,5
67698,140684,5
67881,140906,4
68026,141078,5
68118,141153,5
68095,141053,5
68003,140892,5
67872,140728,4
67838,140678,5
67834,140671,5
67819,140648,5
67803,140606,8
67751,140501,1
67667,140403,5
67619,140388,5
67705,140450,5
67700,140369,5
67651,140273,4
67506,140001,5
67241,139647,6
66972,139368,4
66826,139163,4
66770,139117,4
66771,139020,5
66722,138853,5
66693,138815,5
66687,138781,4
66625,138637,5
66511,138388,5
66332,138145,5
66218,137914,5
66033,137628,4
65912,137460,5
65931,137487,5
66021,137562,5
66207,137724,5
66377,137871,4
66607,138126,5
66829,138379,5
67055,138626,5
67283,139010,5
67523,139264,4
67836,139568,5
68109,139907,5
68527,140380,6
68925,140884,4
69388,141375,4
69776,141828,5
70132,142244,5
70524,142698,5
70934,143146,4
71281,143539,4
71655,143979,5
72055,144389,5
72364,144749,5
72633,145031,4
72820,145204,5
73048,145506,5
73344,145839,5
73651,146217,5
74006,146564,4
74390,146897,5
74697,147163,5
74900,147309,5
75107,147495,5
75385,147072,5
75618,147242,4
75877,147495,5
76083,147600,5
76227,147698,6
76426,147852,3
76566,147951,5
76734,148072,5
76894,148231,5
77102,148431,5
77391,148744,4
77772,149126,5
78090,149442,5
78460,149851,5
78825,150190,4
78917,150260,4
79098,150353,5
79197,150406,5
79307,150526,5
79211,150789,4
79782,151025,5
80011,151232,5
80176,151400,5
79944,151641,5
80576,151807,4
80737,151869,6
80845,151942,4
80917,152162,5
81423,152551,5
81781,152893,6
82044,153132,3
81895,153303,5
81783,153535,5
81839,153553,5
81881,153495,4
82495,153634,5
82259,153935,5
82649,154399,5
83079,154886,5
83812,155302,4
83802,155558,5
83962,155643,5
84044,155707,5
84231,155846,4
84349,156062,4
84520,156234,5
84678,156373,5
84858,156314,5
85083,156793,4
85293,157038,5
85402,157110,6
85409,156603,4
85470,157169,5
85695,157470,5
85905,157666,4
85941,157131,5
85849,157552,5
85884,157625,5
86026,157733,4
86052,157903,5
86006,157652,5
85990,157668,5
86154,157909,5
86406,158683,4
86548,158222,5
86599,158273,5
86745,158494,5
87086,159391,4
87507,159336,4
87687,159446,5
87728,159529,5
87922,159947,5
88188,160078,4
88443,160354,5
88618,160563,5
88695,160698,6
88901,161016,4
89308,161478,4
89595,161755,5
89730,161883,5
89934,162124,5
90157,162379,5
90339,162576,4
90398,162585,5
90359,162551,5
90471,162744,5
90752,163099,5
91070,163424,4
91196,163468,5
91063,163307,5
91001,163372,5
91111,163573,5
91212,163616,4
91089,163447,5
90917,163248,5
90700,163050,5
90717,163196,5
90873,163411,4
90962,163505,5
90926,163477,5
90904,163471,6
90938,163500,3
90885,163451,5
90837,163422,5
90833,163489,5
90968,163704,5
91113,163841,4
91225,163312,5
91351,163457,5
91459,163554,5
91434,163509,5
91294,163317,4
91008,163090,5
90918,163117,5
91012,163239,5
91099,163392,5
91212,163497,4
91165,163437,5
91111,163354,5
90845,163049,5
90689,162873,5
90444,162568,5
90018,162080,4
89680,161701,5
89367,161362,5
88984,160915,4
88544,160448,4
88157,160072,5
87849,159776,5
87617,159544,5
87349,159304,4
87102,159080,5
86813,158801,5
86539,158473,5
86230,158069,5
85839,157559,4
85410,157084,5
85039,156671,5
84662,156250,5
84293,155853,5
83997,155526,4
83804,155351,5
83679,155182,5
83528,155057,5
83386,154887,5
83229,154711,4
83036,154495,6
82876,154324,4
82697,154133,5
82578,154015,5
82498,153960,4
82470,153943,5
82253,153906,5
82416,153909,5
82364,153865,4
82365,153897,4
81956,153928,5
82317,153872,5
82206,153746,5
82004,153520,4
81304,153291,5
81584,153065,5
81330,152769,5
81047,152418,5
80721,152097,4
80519,151827,5
80297,151550,5
80008,151188,5
79971,150622,5
78951,149796,4
78186,148829,5
77410,147915,6
77285,147241,4
76352,147388,5
75918,146820,4
75514,146310,5
75291,145824,5
74682,145288,5
74321,144838,5
73978,144433,4
73677,143982,5
73331,143636,5
73086,143333,5
72904,143080,4
72712,142543,4
72485,142510,5
72255,142228,5
72089,141987,5
71810,141233,4
71533,141269,5
71186,140843,5
71019,140614,5
70806,140100,5
70613,140078,4
70402,139797,5
70149,139466,5
69910,139412,5
69871,139106,5
69719,138897,4
69634,138787,5
69660,139221,5
69639,138740,5
69603,138654,5
69531,138553,4
69462,138735,5
69390,138332,5
69276,138196,5
69184,138044,5
69028,137901,4
68873,137622,5
68744,137455,5
68627,137285,5
68459,137046,4
68243,136773,4
68022,136501,5
67810,136243,5
67562,135938,5
67347,135641,5
67099,135315,4
66903,135057,5
66694,134785,5
66416,134435,5
66119,134069,4
65769,133583,5
65454,133257,5
65888,132901,5
65649,132607,5
65472,132399,4
65388,132258,5
65278,132132,5
65137,131902,5
65065,131849,5
65030,131768,4
65002,131707,5
64986,131664,5
64988,131643,5
64960,131603,4
64933,131592,4
64981,131624,5
65045,131696,5
65114,131779,5
65177,131855,4
65217,131879,6
65222,131846,4
65176,131765,5
65070,131616,5
65015,131543,4
64998,131518,5
65005,131520,5
65002,131504,5
64950,131440,5
64940,131439,4
65031,131566,5
65181,131766,5
65320,131923,5
65435,132050,5
65518,132118,4
65551,132171,5
65617,132242,5
65690,132322,5
65712,132326,5
65682,132239,4
65578,132114,5
65484,132021,5
65460,132011,5
65462,132001,4
65484,132042,4
65519,132092,6
65538,132082,4
65560,132126,5
65549,132089,4
65473,131984,5
65392,131885,5
65334,131818,5
65317,131773,5
65281,131740,4
65272,131737,5
65267,131730,5
65235,131679,5
65193,131618,5
65178,131590,4
65156,131568,5
65143,131544,5
65125,131535,5
65123,131534,5
65120,131507,4
65139,131544,5
65169,131584,5
65170,131573,6
64993,131553,4
65122,131486,4
65070,131412,5
65035,131353,5
64644,131285,5
64929,131232,4
64866,131145,4
64787,131050,5
64347,131651,5
64664,131556,5
64664,131567,4
64701,131614,5
64767,131605,5
64685,131566,5
64661,131517,5
64636,131484,4
64930,131408,5
64551,131361,5
64466,131224,5
64351,131084,5
64625,130955,5
64186,130841,4
64060,130653,5
63942,130516,5
63968,130350,6
63725,130230,3
63638,130117,5
63558,130023,5
63482,129819,5
63333,129725,5
63155,129469,4
62965,129257,5
62844,128811,5
62746,129004,5
62700,128920,5
62644,128843,4
62595,128415,5
62564,128724,5
62536,128707,5
62536,128702,4
62529,128584,5
62520,128721,5
62562,128738,5
62575,128769,5
62596,129047,4
62613,128798,6
62626,128820,4
62634,128854,5
62675,129323,5
62725,128956,6
62762,129015,3
62816,129080,5
62819,129304,5
62873,129140,5
62893,129172,4
62914,129187,5
62914,129246,5
62930,129236,5
62953,129238,4
62949,129247,4
62930,129210,5
62883,129151,5
62839,129102,5
62807,129075,4
62792,129060,5
62796,129062,5
62809,129083,5
62830,129097,5
62809,129103,4
62810,129091,5
62786,129061,6
62764,129041,4
62733,128992,5
62705,128973,4
62700,128955,5
62714,128985,7
62741,129021,3
62731,129001,5
62721,128993,4
62720,129020,5
62750,129054,5
62766,129075,5
62779,129094,5
62767,129090,4
62763,129075,5
62751,129052,5
62683,129002,5
62655,128956,4
62640,128932,4
62627,128919,5
62602,128895,5
62585,128858,5
62529,128787,4
62481,128745,5
62443,128677,5
62394,128620,6
62345,128558,4
62305,128523,4
62307,128515,5
62286,128492,5
62267,128485,5
62262,128489,5
62271,128491,4
62271,128530,5
62302,128573,5
62318,128602,5
62345,128633,5
62380,128692,4
62413,128752,5
62443,128788,5
62463,128822,5
62496,128881,5
62514,128904,4
62544,128959,5
62591,129016,5
62647,129071,5
62655,129103,5
62675,129127,4
62700,129153,5
62713,129177,5
62747,129248,6
62821,129342,3
62898,129430,5
62927,129468,5
62947,129483,5
62925,129459,5
62904,129438,4
62899,129434,5
62905,129430,5
62878,129418,5
62879,129400,5
62874,129417,4
62890,129428,5
62882,129425,5
62895,129432,5
62907,129461,5
62924,129489,4
62712,129498,5
62935,129485,5
62935,129480,5
62917,129461,5
62550,129449,5
62902,129425,4
62887,129398,5
62871,129363,5
62567,129346,4
62814,129301,4
62799,129286,5
62790,129273,5
62960,129287,5
62826,129335,4
62880,129403,5
62931,129485,5
63365,129555,5
63049,129650,5
63108,129739,4
63189,129827,5
63525,129892,5
63286,129974,5
63362,130079,5
63447,130194,4
63637,130330,5
63610,130407,5
63647,130448,5
63672,130485,5
63707,130388,4
63756,130593,6
63809,130666,4
63845,130726,5
63857,130413,5
63859,130736,4
63849,130699,5
63810,130654,5
63804,130262,5
63795,130663,4
63831,130701,4
63837,130712,4
63848,130743,5
63814,130678,5
63777,130627,4
63754,130595,5
63732,130921,5
63733,130569,5
63722,130563,5
63720,130548,4
63710,130957,5
63706,130535,5
63713,130548,5
63717,130570,5
63706,130706,4
63693,130526,5
63663,130501,6
63647,130478,4
63635,130485,5
63618,130454,4
63626,130457,5
63634,130488,5
63655,130529,5
63686,130581,4
63743,130658,4
63782,130713,5
63817,130749,5
63820,130766,5
63842,130782,4
63848,130800,5
63852,130810,5
63862,130821,5
63887,130862,5
63915,130907,4
63964,130965,5
64015,131022,5
64032,131065,5
64055,131095,5
64048,131063,4
63996,130997,5
63934,130922,5
63873,130830,6
63809,130775,4
63754,130675,4
63668,130583,5
63607,130490,5
63551,130405,5
63489,130315,5
63432,130253,4
63395,130205,5
63367,130173,5
63303,130091,5
63233,129995,4
63166,129912,4
63126,129853,5
63079,129783,5
63047,129748,5
62993,129662,4
62913,129559,5
62835,129451,5
62759,129347,5
62669,129251,5
62631,129191,5
62598,129140,4
62577,129104,5
62555,129080,5
62536,129074,5
62537,129068,4
62538,129068,5
62527,129053,5
62517,129022,5
62497,128995,5
62457,128947,4
62414,128879,5
62376,128860,5
62365,128821,5
62329,128779,5
62303,128737,4
62280,128726,5
62264,128694,5
62243,128675,5
62224,128664,4
62236,128688,4
62270,128728,5
62304,128772,5
62315,128800,5
62327,128796,4
62316,128791,6
62320,128782,4
62299,128768,5
62306,128786,5
62307,128770,4
62296,128772,5
62303,128775,5
62309,128771,5
62272,128789,5
62307,128780,4
62309,128806,5
62323,128821,5
62086,128834,5
62357,128877,5
62372,128891,4
62389,128911,5
62036,128920,5
62419,128934,5
62410,128927,5
62412,128945,4
62215,128936,5
62392,128916,5
62384,128887,5
62355,128864,4
62546,128818,4
62289,128743,6
62205,128636,4
62122,128537,5
62455,128469,4
62045,128433,5
62006,128402,5
61969,128325,5
62160,128254,5
61863,128193,4
61825,128139,5
61769,128073,5
61797,128024,5
61719,128007,5
61713,128000,4
61694,127964,5
61678,127762,5
61672,127933,5
61660,127931,5
61663,127933,4
61652,127582,5
61638,127878,5
61610,127838,6
61590,127817,4
61573,127422,4
61567,127795,5
61565,127798,5
61581,127797,5
61598,127925,4
61612,127865,5
61642,127881,5
61636,127877,5
61630,128250,5
61627,127870,4
61609,127847,5
61598,127825,5
61593,128169,5
61584,127816,5
61581,127821,4
61570,127810,5
61577,127936,5
61591,127839,5
61589,127828,5
61584,127820,4
61562,127808,4
61559,127787,5
61566,127798,5
61567,127814,6
61587,127830,3
61580,127833,5
61587,127823,5
61583,127829,5
61593,127840,4
61616,127883,4
61642,127917,5
61672,127954,5
61689,127977,5
61709,127980,4
61697,127983,5
61699,127991,5
61706,127986,5
61717,128012,5
61718,128012,4
61725,128017,5
61714,127999,5
61701,127987,5
61686,127966,5
61672,127946,4
61685,127970,6
61688,127983,4
61692,127996,5
61720,128022,5
61732,128034,6
61720,128013,3
61695,127987,5
61653,127919,5
61605,127869,5
61571,127824,4
61545,127781,5
61502,127728,5
61474,127676,5
61436,127632,4
61407,127595,4
61383,127568,5
61360,127546,5
61343,127518,5
61336,127515,4
61348,127532,5
61354,127551,5
61381,127572,5
61381,127572,5
61376,127585,4
61394,127599,5
61402,127601,6
61417,127612,4
61408,127609,5
61423,127636,4
61439,127668,5
61462,127683,5
61462,127679,5
61458,127653,5
61454,127665,4
61471,127678,5
61456,127666,5
61447,127664,5
61450,127652,5
61443,127649,4
61436,127654,5
61442,127645,5
61454,127676,5
61480,127711,4
61493,127713,4
61514,127756,5
61537,127768,5
61539,127768,5
61536,127769,4
61516,127744,5
61518,127743,5
61539,127764,6
61550,127791,4
61553,127794,4
61431,127811,5
61601,127856,5
61613,127867,5
61613,127874,5
61307,127881,4
61650,127931,5
61681,127986,5
61732,128058,5
61407,128106,5
61823,128178,4
61869,128241,5
61903,128289,5
61957,128353,5
61990,128416,5
62023,128455,4
62043,128500,5
62404,128551,5
62149,128630,5
62212,128731,5
62298,128831,4
62754,128908,5
62404,128975,5
62467,129047,6
62502,129115,3
62677,129134,5
62524,129131,5
62509,129107,5
62495,129113,5
62515,129042,4
62490,129108,5
62505,129122,5
62518,129141,5
62547,128920,5
62593,129247,4
62638,129342,5
62695,129398,5
62742,129070,5
62786,129523,5
62847,129600,5
62910,129687,4
62994,129659,5
63084,129935,5
63175,130041,4
63256,130146,5
63326,130509,4
63391,130322,5
63443,130402,5
63500,130469,6
63545,130954,3
63575,130573,5
63614,130618,5
63629,130652,5
63682,130933,4
63741,130797,5
63790,130853,5
63818,130885,5
63822,130957,5
63844,130942,4
63876,130989,5
63892,131002,5
63886,130989,5
63882,130999,5
63900,131014,4
63918,131054,5
63940,131074,5
63967,131115,5
63990,131156,5
64032,131202,4
64084,131284,6
64145,131355,4
64209,131450,5
64260,131515,4
64291,131542,4
64316,131580,5
64357,131639,5
64381,131672,5
64401,131686,4
64401,131687,5
64381,131659,5
64363,131631,5
64379,131659,5
64394,131691,4
64413,131728,5
64435,131745,5
64457,131763,5
64457,131755,9
64436,131722,0
64394,131665,5
64352,131565,5
64300,131521,5
64233,131459,5
64194,131406,4
64156,131342,5
64134,131334,6
64122,131324,4
64133,131317,5
64106,131299,4
64075,131238,5
64014,131179,5
63990,131155,5
63968,131134,4
63965,131130,4
63967,131127,5
63950,131102,5
63935,131085,5
63907,131057,4
63881,131020,5
63858,131007,5
63833,130980,5
63830,130987,5
63803,130931,4
63767,130911,5
63775,130899,5
63750,130876,5
63725,130836,5
63712,130820,4
63692,130800,5
63673,130782,5
63645,130767,6
63640,130754,4
63650,130758,4
63647,130765,5
63641,130754,5
63647,130767,5
63659,130795,5
63693,130819,4
63728,130856,5
63759,130910,5
63793,130954,5
63811,130990,4
63822,131007,4
63833,131025,5
63856,131038,5
63865,131049,5
63854,131044,4
63850,131039,5
63850,131028,5
63593,131001,5
63791,130963,5
63771,130940,5
63756,130932,4
63383,130916,5
63705,130876,5
63695,130850,5
63685,130841,4
63400,130838,5
63687,130830,5
63678,130830,5
63661,130804,5
63833,130803,4
63662,130822,5
63676,130839,5
63703,130872,5
64103,130891,4
63730,130918,4
63737,130917,5
63743,130930,5
64017,130907,5
63719,130907,4
63695,130869,4
63695,130868,5
63777,130858,5
63679,130848,5
63674,130857,4
63661,130836,6
63625,130622,4
63561,130699,5
63487,130598,5
63404,130499,4
63325,130094,5
63304,130377,5
63277,130355,5
63252,130333,5
63227,129912,4
63205,130275,5
63162,130214,5
63111,130154,5
63069,130155,5
63040,130064,4
63019,130053,5
63025,130052,5
63026,130412,5
63032,130060,4
63051,130104,4
63082,130139,5
63089,130561,5
63117,130181,5
63146,130210,4
63157,130254,5
63185,130409,6
63187,130280,4
63180,130270,5
63171,130258,4
63162,130272,5
63169,130263,5
63182,130279,5
63191,130291,5
63190,130277,4
63170,130253,5
63155,130231,5
63140,130216,5
63132,130209,5
63122,130190,4
63095,130161,5
63062,130106,5
62997,130022,5
62938,129950,5
62887,129866,4
62828,129787,5
62786,129741,5
62761,129710,5
62732,129676,4
62701,129628,4
62657,129575,5
62625,129535,5
62595,129510,5
62576,129483,4
62580,129482,5
62566,129480,5
62565,129477,5
62555,129458,5
62549,129446,4
62543,129441,5
62535,129428,5
62514,129403,5
62489,129372,5
62462,129329,4
62427,129296,5
62384,129223,5
62325,129155,5
62254,129049,5
62189,128984,4
62157,128940,5
62119,128886,5
62075,128851,5
62051,128815,5
62032,128786,4
61991,128717,5
61923,128637,5
61822,128502,5
61736,128391,4
61674,128304,4
61621,128243,5
61566,128167,5
61508,128096,5
61467,128033,4
61418,127981,5
61386,127921,5
61334,127865,5
61338,127882,5
61359,127916,4
61392,127966,5
61408,127986,5
61419,128013,5
61455,128068,5
61500,128135,4
61544,128183,5
61564,128208,4
61571,128220,5
61563,128199,5
61551,128188,6
61549,128160,3
61525,128143,5
61497,128102,5
61485,128083,5
61477,128062,4
61471,128072,5
61480,128109,5
61505,128127,5
61520,128138,4
61434,128143,4
61519,128152,5
61509,128146,5
61523,128154,5
61242,128171,4
61568,128225,5
61611,128299,5
61669,128361,5
61343,128426,5
61761,128487,4
61804,128534,5
61817,128552,6
61750,128567,4
61835,128578,5
61853,128591,4
61862,128617,7
62143,128618,3
61869,128608,5
61869,128622,5
61852,128594,4
62218,128550,5
61804,128544,5
61817,128535,5
61808,128540,5
61984,128506,4
61783,128501,5
61781,128489,5
61770,128474,5
61792,128443,4
61732,128428,4
61735,128421,5
61717,128410,5
61717,128175,5
61690,128369,4
61668,128339,5
61637,128297,5
61609,127912,6
61603,128250,4
61580,128220,5
61554,128194,4
61527,127885,5
61451,128027,5
61377,127939,5
61305,127837,4
61252,127960,5
61206,127710,5
61146,127638,5
61095,127569,5
61039,127899,4
61001,127462,5
60975,127420,5
60958,127413,5
60950,127676,5
60970,127420,4
60975,127433,5
60966,127428,5
60972,127511,5
60963,127429,5
60979,127446,4
60995,127470,5
61019,127499,5
61020,127508,6
61032,127505,3
61023,127501,5
61021,127497,5
61025,127522,5
61035,127539,5
61060,127566,4
61066,127587,5
61094,127607,5
61127,127632,5
61133,127656,5
61150,127661,4
61151,127686,5
61163,127685,5
61168,127698,5
61174,127717,5
61171,127726,4
61169,127705,5
61161,127699,5
61158,127694,5
61165,127710,4
61163,127704,5
61158,127691,4
61164,127694,5
61154,127691,5
61156,127689,6
61148,127679,3
61149,127671,5
61128,127644,5
61115,127646,5
61117,127647,4
61130,127663,5
61147,127692,5
61173,127727,5
61175,127717,5
61160,127703,4
61155,127689,5
61136,127671,5
61138,127663,5
61144,127672,5
61151,127679,4
61145,127687,5
61141,127663,5
61130,127648,5
61110,127618,5
61102,127614,4
61095,127610,6
61100,127621,4
61121,127634,5
61126,127658,4
61124,127636,4
61117,127640,5
61111,127638,5
61104,127628,5
61096,127613,4
61061,127552,5
61024,127498,5
60993,127443,5
60935,127384,5
60892,127317,4
60852,127265,5
60814,127223,5
60779,127189,5
60758,127151,5
60743,127137,4
60714,127102,5
60691,127084,5
60688,127074,5
60679,127062,5
60674,127050,4
60673,127050,5
60669,127044,6
60645,127018,4
60661,127030,5
60668,127044,4
60674,127063,5
60495,127068,5
60673,127056,5
60672,127044,4
60665,127033,4
60316,127025,5
60649,127032,5
60665,127046,5
60684,127072,4
60343,127084,5
60701,127087,5
60689,127081,5
60675,127067,5
60786,127050,4
60671,127053,5
60661,127035,5
60660,127041,5
61020,127054,5
60655,127045,4
60645,127021,5
60626,126991,5
60914,126962,6
60589,126954,4
60593,126948,4
60592,126947,5
60688,126955,5
60582,126947,5
60577,126934,5
60565,126912,4
60548,126776,5
60532,126864,5
60507,126835,5
60492,126827,4
60493,126528,4
60474,126797,5
60458,126772,5
60435,126748,5
60423,126371,4
60412,126724,5
60403,126686,5
60378,126660,5
60337,126583,5
60282,126516,5
60218,126421,4
60126,126307,5
60032,126487,5
59926,126040,5
59860,125958,4
59799,125866,5
59751,126203,5
59696,125749,5
59665,125697,5
59634,125630,4
59559,125685,5
59453,125391,5
59343,125198,5
59206,125038,5
59091,124898,4
58965,124713,5
58853,124522,5
58721,124349,5
58613,124193,4
58507,124054,5
58384,123901,5
58284,123744,5
58169,123617,5
58051,123440,4
57936,123298,6
57839,123165,4
57719,123006,5
57580,122824,5
57432,122628,4
57287,122459,5
57175,122304,5
57063,122173,5
56980,122042,5
56835,121842,4
56656,121578,5
56447,121288,5
56227,121002,5
56015,120692,5
55760,120346,4
55518,120008,5
55282,119693,5
55036,119375,5
54795,119022,4
54534,118672,4
54298,118340,5
54033,117955,5
53826,117658,5
53625,117358,4
53436,117071,5
53295,116848,6
53122,116564,4
52942,116266,5
52758,115983,4
52603,115746,5
52476,115557,7
52342,115360,3
52234,115190,5
52111,115011,4
51988,114806,5
51889,114644,5
51749,115152,5
51610,114937,5
51484,114746,4
51364,114575,5
51262,114428,5
51191,114319,5
51117,114198,5
51032,114071,4
50910,113928,5
50834,113776,5
50729,113626,5
50632,113524,4
50581,113472,4
50565,113446,5
50530,113404,6
50525,113396,4
50506,113395,4
50534,113454,5
50575,113520,5
50603,113607,5
50646,113731,5
50734,113906,4
50852,114142,5
50984,114370,5
51077,114504,5
51116,114652,5
51190,114777,4
51225,114862,5
51233,114926,5
51228,114938,5
51214,114905,5
51123,114774,4
51014,114606,5
50900,114456,5
50843,114409,5
50633,114404,5
50848,114463,4
50891,114604,5
51001,114797,5
50786,114930,5
51163,115153,4
51304,115437,4
51454,115684,5
51422,115932,5
51724,116191,5
51839,116394,4
51985,116671,5
52297,116937,5
52265,117143,5
52363,117361,5
52481,117583,4
52897,117818,5
52739,118058,5
52840,118249,5
52971,118500,5
53247,118642,4
53126,118809,5
53204,118966,5
53279,119131,5
53427,119337,5
53492,119540,5
53552,119669,4
53647,119901,5
53809,120035,5
53945,120415,5
54078,120631,4
54146,120761,5
54169,120539,5
54166,120822,5
54211,120922,5
54277,121083,4
54379,120982,5
54447,121402,5
54528,121567,5
54635,121764,4
54742,122008,5
54839,122143,5
54917,122266,5
54940,122330,5
54948,122647,4
55001,122479,5
55026,122533,6
55031,122565,4
55035,122863,5
55063,122618,4
55047,122621,7
55050,122620,3
55024,122682,5
54992,122559,5
54981,122567,4
54981,122569,5
54990,122636,5
55030,122743,5
55079,122805,4
55070,122776,4
55023,122729,5
54982,122665,5
54958,122614,5
54879,122455,4
54743,122219,5
54628,122064,5
54540,121934,5
54472,121800,5
54374,121646,4
54298,121537,5
54288,121531,5
54265,121474,6
54182,121314,4
54082,121128,4
53998,120986,5
53903,120821,5
53782,120629,5
53660,120403,5
53540,120210,4
53416,119992,5
53288,119809,5
53195,119639,5
53084,119458,5
53027,119352,4
52999,119298,5
52960,119237,5
52909,119160,5
52861,119101,4
52896,119112,4
52920,119159,5
52942,119228,5
52986,119297,5
53034,119368,5
53056,119404,4
53070,119419,5
53082,119433,5
53098,119480,6
53142,119536,3
53181,119613,5
53227,119658,5
53245,119689,5
53315,119788,5
53382,119929,4
53481,120107,5
53569,120243,5
53648,120390,5
53775,120623,5
53904,120852,4
54045,121079,5
54175,121296,5
54305,121493,5
54394,121611,5
54456,121711,4
54552,121856,5
54652,122035,5
54775,122230,5
54833,122344,4
54933,122480,5
54981,122544,4
55000,122552,5
54989,122517,5
54977,122525,6
54981,122521,3
54977,122520,5
54978,122527,5
54985,122545,5
55004,122583,4
55027,122613,5
55054,122666,5
55082,122721,5
55125,122761,5
55154,122813,4
55160,122808,5
55103,122770,5
55112,122741,5
55066,122627,5
54972,122486,4
54684,122345,5
54802,122227,5
54735,122136,5
54694,122062,4
54396,122038,4
54626,121962,6
54587,121903,4
54554,121844,5
54415,121815,4
54517,121790,5
54491,121748,5
54463,121707,5
54605,121664,5
54432,121653,4
54401,121636,5
54400,121620,5
54697,121617,5
54391,121584,5
54350,121513,4
54292,121444,5
54414,121353,5
54190,121266,5
54140,121188,5
54084,121092,4
54053,120973,5
53946,120853,5
53871,120733,5
53798,120629,5
53734,120363,4
53682,120434,5
53619,120326,6
53558,120212,4
53493,119848,4
53430,119987,4
53350,119874,5
53292,119769,5
53256,119459,5
53191,119590,4
53101,119409,6
52993,119234,4
52891,119162,5
52795,118902,5
52700,118746,4
52638,118617,5
52564,118768,5
52498,118403,5
52457,118327,5
52411,118251,4
52381,118416,5
52343,118125,5
52289,118039,5
52252,117942,5
52209,117943,4
52160,117790,5
52124,117708,5
52073,117623,6
52023,117530,3
51986,117428,4
51923,117332,5
51866,117227,5
51799,117137,5
51767,117054,4
51732,116982,5
51694,116922,5
51669,116864,5
51625,116783,5
51567,116655,4
51491,116549,5
51424,116403,5
51365,116325,5
51322,116238,5
51288,116190,4
51263,116132,5
51235,116076,5
51185,115967,5
51127,115886,5
51093,115796,5
51035,115700,4
50979,115591,5
50917,115471,5
50867,115374,5
50806,115258,4
50757,115174,5
50723,115095,5
50700,115040,5
50670,115008,4
50645,114939,4
50610,114871,5
50576,114815,5
50554,114729,5
50424,114574,4
50377,114483,5
50308,114367,5
50248,114272,5
50221,114195,5
50165,114126,4
50148,114081,5
50120,114019,5
50077,113949,5
50033,113872,5
49993,113793,4
49949,113726,6
49923,113659,4
49880,113551,5
49822,113457,5
49776,113385,4
49742,113322,5
49722,113268,5
49683,113216,5
49654,113151,4
49638,113090,4
49607,113036,5
49585,112986,5
49567,112966,5
49554,112934,4
49515,112851,5
49479,112777,5
49430,112702,5
49402,112647,5
49388,112592,4
49352,112522,5
49313,112476,5
49286,112418,5
49278,112386,5
49267,112368,4
49270,112356,5
49259,112330,6
49246,112316,4
49249,112314,5
49241,112311,4
49242,112289,5
49235,112275,5
49242,112282,5
49145,112286,5
50027,112307,4
50038,112312,5
50050,112324,5
49846,112321,5
50061,112345,4
50072,112345,5
50069,112341,5
49840,112352,5
50079,112374,5
50085,112384,4
50100,112394,4
50144,112405,5
50112,112433,5
50143,112483,5
50178,112536,4
50430,112588,5
50239,112632,5
50250,112647,5
50253,112629,5
50467,112602,4
50230,112602,5
50224,112594,5
50226,112582,5
50302,112583,5
50216,112578,4
50208,112569,5
50210,112553,5
50224,112497,5
50196,112557,4
50203,112542,4
50193,112535,5
50205,112372,5
50208,112569,5
50227,112595,5
50232,112622,4
50258,112407,5
50277,112698,5
50306,112744,5
50322,112761,5
50332,112729,4
50329,112767,5
50333,112775,5
50336,112786,5
50347,112993,4
50367,112819,5
50365,112848,5
50390,112887,5
50415,113200,5
50451,112997,4
50483,113046,5
50531,113103,5
50552,113286,5
50554,113178,4
50564,113200,4
50579,113210,5
50580,113248,5
50589,113237,5
50598,113253,4
50611,113266,5
50609,113267,5
50624,113279,5
50621,113281,5
50621,113290,4
50630,113298,6
50631,113294,4
50619,113285,5
50626,113301,5
50641,113313,4
50645,113318,5
50653,113332,5
50660,113344,5
50666,113364,5
50666,113363,4
50671,113360,5
50672,113367,5
50663,113352,5
50653,113345,5
50655,113332,4
50649,113323,5
50660,113328,5
50650,113319,5
50641,113313,4
50642,113309,5
50652,113313,5
50637,113307,5
50638,113307,5
50638,113296,4
50625,113274,5
50614,113260,6
50612,113244,4
50594,113222,5
50582,113204,4
50577,113177,5
50558,113147,5
50533,113125,5
50535,113110,5
50514,113075,4
50498,113059,5
50498,113045,5
50474,112978,5
50419,112912,5
50378,112838,4
50343,112771,5
50304,112694,5
50269,112635,5
50248,112592,9
50218,112549,1
50209,112521,4
50193,112464,5
50180,112477,5
50168,112440,4
50151,112436,5
50153,112422,5
50153,112419,5
50148,112406,5
50137,112387,4
50132,112383,5
50121,112360,5
50104,112346,5
50094,112313,5
50089,112288,4
50071,112269,5
50057,112252,5
50060,112251,5
50059,112243,5
50058,112233,4
50053,112239,5
50055,112235,5
50050,112230,5
50049,112240,5
50054,112232,5
50046,112226,4
50016,112244,5
50062,112239,5
50055,112242,6
50058,112243,3
49882,112241,5
50050,112234,5
50058,112225,5
50042,112211,4
49804,112209,5
50032,112205,5
50035,112195,5
50036,112188,5
49951,112191,4
50035,112177,5
50027,112184,5
50021,112178,5
50183,112158,5
50020,112173,4
50020,112165,5
50021,112171,5
50281,112181,5
50026,112174,5
50029,112181,4
50031,112183,6
50177,112195,4
50038,112205,5
50036,112209,4
50045,112215,6
50066,112205,3
50044,112198,5
50033,112205,5
50030,112181,4
50015,112019,5
50015,112150,5
50002,112140,5
50016,112145,5
50014,111907,4
50004,112145,5
50022,112152,5
50018,112162,5
50018,111969,5
50033,112193,4
50046,112223,5
50060,112245,4
50056,112333,5
50060,112230,5
50061,112233,4
50052,112227,5
50047,112457,6
50041,112177,4
50020,112146,5
50001,112116,4
49990,112295,5
49985,112073,5
49976,112068,5
49969,112042,4
49957,112107,4
49959,112036,5
49965,112028,5
49952,112024,5
49958,112045,4
49967,112045,5
49972,112054,5
49968,112055,5
49991,112082,5
50002,112102,4
50007,112099,5
50003,112115,5
50005,112106,5
50002,112107,5
50003,112092,4
50001,112085,5
49993,112085,5
49983,112076,6
49992,112080,4
49989,112081,4
49997,112088,5
49990,112087,5
50004,112101,5
49996,112101,5
50003,112100,4
50011,112120,5
50011,112126,5
50019,112128,5
50023,112130,4
50019,112136,4
50025,112135,5
50022,112148,5
50036,112149,5
50034,112155,4
50038,112153,5
50029,112166,5
50041,112165,5
50031,112171,5
50046,112173,5
50039,112170,4
50039,112150,5
50035,112152,5
50027,112156,6
50028,112159,3
50029,112146,5
50025,112140,5
50017,112143,5
50026,112143,5
50017,112133,4
50008,112120,5
50004,112113,5
49997,112117,5
49997,112095,4
49986,112084,4
49978,112080,5
49985,112064,5
49988,112076,5
49985,112082,4
49980,112067,5
49984,112063,5
49981,112068,5
49983,112067,5
49977,112074,4
49973,112064,6
49972,112062,4
49974,112056,5
49974,112056,5
49975,112051,4
49971,112052,5
49970,112060,5
49980,112083,5
49987,112088,5
49989,112089,4
49980,112085,5
49978,112066,5
49972,112055,5
49952,112023,5
49949,112018,4
49941,112013,5
49947,112015,5
49946,112016,5
49858,112020,4
49955,112035,4
49959,112048,5
49968,112058,5
49761,112067,5
49987,112080,4
49987,112061,5
49972,112066,6
49735,112053,4
49966,112060,5
49970,112073,4
49989,112075,5
50021,112100,5
50013,112124,5
50022,112141,5
50033,112162,4
50257,112186,5
50047,112193,5
50050,112191,5
50062,112228,5
50318,112223,4
50076,112233,5
50077,112248,5
50078,112227,5
50174,112233,5
50079,112229,4
50072,112214,5
50064,112193,5
50067,112157,5
50046,112187,4
50039,112172,4
50041,112158,5
50017,111953,6
50011,112096,4
49996,112081,4
49982,112064,4
49969,111813,5
49968,112043,5
49966,112031,5
49952,112011,4
49951,111908,5
49930,111971,5
49909,111944,5
49897,111922,5
49891,112066,4
49884,111886,5
49856,111836,5
49828,111793,5
49811,112006,5
49782,111705,4
49761,111687,5
49757,111641,5
49733,111774,5
49712,111593,5
49706,111559,4
49685,111528,5
49679,111539,5
49654,111456,6
49625,111421,3
49621,111405,4
49596,111368,5
49594,111357,5
49585,111337,5
49582,111326,4
49557,111284,5
49575,111304,5
49567,111290,5
49558,111266,5
49555,111262,4
49553,111261,5
49558,111263,5
49562,111280,5
49564,111282,5
49565,111297,4
49565,111271,5
49552,111248,5
49544,111218,5
49527,111159,5
49478,111100,5
49457,111050,4
49430,111028,5
49423,110995,5
49413,110991,4
49426,110992,4
49433,111012,5
49436,111018,5
49441,111036,5
49449,111041,4
49454,111049,5
49468,111070,5
49485,111097,5
49502,111140,5
49511,111160,4
49527,111188,5
49539,111205,5
49558,111251,5
49590,111296,5
49617,111340,4
49654,111405,5
49669,111435,5
49680,111436,5
49674,111429,5
49673,111412,4
49670,111411,6
49666,111414,4
49671,111438,5
49697,111450,5
49703,111484,4
49732,111517,5
49736,111539,5
49759,111572,5
49772,111598,4
49784,111619,4
49808,111645,5
49832,111707,5
49875,111771,5
49914,111853,4
49952,111894,5
49980,111953,5
50011,112010,5
50033,112076,5
50077,112114,4
50084,112135,5
50087,112143,5
50101,112156,5
50098,112167,5
50097,112156,4
50093,112140,5
50083,112138,6
50087,112146,4
50110,112191,5
50149,112273,4
50225,112407,5
50294,112563,5
50403,112735,5
50491,112912,5
50597,113075,4
50528,113213,5
50737,113317,5
50796,113419,5
50838,113477,4
50628,113531,4
50877,113546,5
50878,113562,5
50880,113572,5
50656,113579,4
50881,113587,5
50888,113576,5
50875,113580,5
50959,113558,5
50863,113539,4
50862,113546,5
50862,113549,5
51123,113571,5
50876,113573,5
50874,113586,4
50889,113588,5
51106,113609,5
50910,113621,5
50926,113645,5
50924,113661,4
50995,113643,5
50908,113611,5
50872,113545,5
50833,113492,4
50802,113344,4
50750,113331,5
50682,113222,5
50628,113115,5
50574,112818,4
50521,112936,5
50478,112879,5
50457,112833,5
50434,112550,5
50415,112769,5
50408,112761,4
50411,112759,5
50413,112763,5
50413,112774,5
50413,112773,4
50411,112752,5
50409,112963,5
50393,112744,5
50395,112724,5
50379,112693,4
50360,112947,5
50343,112646,5
50328,112633,5
50321,112624,5
50331,112730,4
50328,112628,5
50343,112642,5
50360,112685,5
50385,112741,4
50384,112738,4
50386,112752,6
50390,112750,4
50370,112727,5
50363,112719,4
50381,112731,7
50375,112735,3
50381,112747,5
50386,112753,5
50398,112778,4
50403,112807,5
50426,112859,5
50462,112915,5
50489,112983,5
50531,113070,4
50599,113182,5
50655,113296,5
50732,113452,5
50807,113562,5
50851,113645,4
50885,113704,5
50929,113801,5
50989,113920,5
51036,114015,5
51088,114092,4
51145,114199,5
51197,114309,6
51253,114413,4
51315,114535,4
51401,114700,4
51515,114895,5
51630,115105,5
51719,115240,5
51756,115301,4
51780,115342,5
51809,115408,5
51867,115542,5
51933,115658,5
51996,115790,4
52069,115924,5
52133,116051,5
52212,116198,5
52287,116312,5
52338,116400,4
52367,116452,5
52409,116556,5
52470,116642,5
52538,116792,5
52616,116902,4
52647,116965,5
52686,117013,5
52698,117039,6
52681,117022,3
52659,116964,4
52651,116939,5
52627,116891,5
52582,116810,5
52547,116770,4
52546,116776,5
52532,116762,5
52535,116763,8
52542,116767,2
52546,116778,4
52554,116806,5
52571,116852,5
52590,116852,5
52571,116840,5
52570,116848,4
52588,116881,5
52602,116908,5
52609,116923,5
52626,116931,5
52632,116956,5
52653,116993,4
52683,117047,5
52722,117112,5
52724,117184,7
52797,117247,2
52824,117299,5
52839,117315,5
52650,117328,5
52842,117330,4
52849,117361,4
52890,117431,5
52660,117484,5
52959,117579,5
53015,117665,4
53037,117713,5
52973,117777,5
53078,117810,5
53111,117859,5
53125,117881,4
53295,117882,5
53112,117886,5
53107,117866,5
53113,117866,5
53373,117867,4
53115,117891,6
53131,117939,4
53155,117981,5
53329,118030,5
53201,118055,4
53194,118044,5
53174,118010,5
53183,117959,5
53123,117938,5
53104,117918,4
53085,117874,5
53055,117684,5
53025,117769,5
53008,117749,4
52993,117717,4
52962,117457,5
52947,117636,5
52917,117608,5
52907,117584,4
52882,117327,5
52850,117490,5
52819,117427,5
52757,117347,5
52715,117354,4
52655,117175,5
52613,117107,6
52567,116999,4
52494,117122,5
52421,116768,4
52362,116677,5
52327,116609,5
52295,116759,5
52269,116503,5
52238,116459,4
52220,116413,5
52176,116410,5
52149,116310,5
52114,116251,4
52054,116132,4
51968,115993,5
51915,115887,5
51847,115781,5
51786,115657,4
51723,115548,5
51675,115461,5
51624,115378,5
51581,115306,5
51544,115232,4
51490,115134,5
51444,115063,5
51406,115006,6
51386,114949,4
51354,114909,4
51345,114886,5
51323,114860,5
51302,114834,5
51289,114805,5
51271,114773,4
51241,114700,5
51202,114647,5
51179,114589,5
51148,114568,5
51139,114539,4
51141,114538,5
51132,114528,5
51135,114536,5
51135,114540,4
51143,114553,4
51157,114582,5
51156,114584,5
51170,114601,5
51161,114577,5
51138,114523,4
51102,114460,5
51048,114376,5
51011,114300,6
50953,114207,3
50920,114132,5
50876,114060,5
50840,114007,5
50825,113971,5
50817,113944,4
50805,113919,5
50789,113898,5
50760,113842,5
50724,113774,5
50675,113703,4
50644,113640,5
50620,113588,5
50567,113501,5
50524,113398,5
50474,113311,4
50412,113223,5
50381,113149,5
50320,113041,5
50264,112981,4
50261,112947,5
50252,112919,4
50225,112886,5
50221,112870,5
50195,112856,4
50191,112847,5
50190,112851,5
50187,112843,5
50177,112827,5
50154,112778,4
50117,112695,5
50079,112626,5
50047,112567,5
50024,112515,5
49979,112420,4
49944,112336,5
49894,112256,5
49862,112201,5
49836,112128,5
49798,112026,4
49677,111962,5
49732,111890,5
49693,111851,5
49668,111807,5
49480,111775,4
49646,111767,6
49652,111746,4
49649,111739,5
49421,111723,4
49635,111715,4
49622,111680,5
49579,111609,5
49534,111532,5
49522,111505,4
49491,111422,5
49457,111369,5
49615,111311,5
49407,111253,5
49380,111201,4
49354,111157,5
49562,111122,5
49319,111093,5
49300,111052,5
49274,111017,4
49354,110973,5
49238,110939,5
49224,110917,6
49213,110898,4
49224,110854,4
49184,110825,5
49167,110783,6
49149,110750,4
49127,110580,4
49110,110672,4
49077,110604,5
49053,110554,5
49010,110284,5
48991,110438,4
48974,110408,4
48966,110391,5
48955,110288,5
48966,110387,5
48985,110416,5
48977,110417,4
48982,110542,5
48988,110419,5
48989,110417,5
48975,110401,4
48969,110607,5
48943,110325,5
48905,110251,5
48864,110159,5
48817,110219,4
48781,110004,5
48742,109932,5
48716,109852,5
48679,109826,5
48665,109743,4
48639,109692,5
48614,109662,5
48601,109613,5
48572,109534,4
48539,109483,4
48511,109434,5
48487,109361,5
48466,109323,5
48446,109278,4
48434,109250,5
48420,109222,5
48407,109195,5
48367,109133,5
48345,109063,4
48318,108994,5
48283,108917,5
48249,108886,5
48229,108842,5
48223,108807,5
48193,108764,4
48171,108726,5
48168,108674,5
48127,108612,5
48102,108571,4
48055,108491,5
48051,108449,5
48021,108408,5
47976,108330,5
47949,108237,4
47885,108137,5
47844,108064,5
47814,108001,5
47772,107910,4
47736,107849,4
47707,107803,5
47694,107756,5
47665,107729,5
47662,107679,4
47624,107639,5
47590,107571,5
47568,107514,5
47540,107465,5
47513,107415,4
47469,107321,6
47420,107232,4
47384,107152,5
47337,107070,5
47290,107000,4
47247,106919,5
47209,106838,5
47175,106769,5
47146,106696,5
47113,106651,4
47089,106618,5
47076,106585,5
47098,106602,5
47079,106540,5
47045,106501,4
47019,106430,5
46978,106334,5
46937,106259,5
46906,106183,4
46877,106130,4
46865,106099,5
46838,106047,5
46792,105979,4
46764,105914,4
46745,105872,5
46727,105827,5
46719,105797,5
46707,105780,5
46696,105770,4
46697,105748,5
46681,105735,5
46691,105738,5
46682,105732,5
46685,105723,4
46676,105709,5
46665,105694,5
46567,105710,5
46678,105708,5
46667,105688,4
46668,105691,5
46483,105677,5
46669,105687,5
46685,105711,5
46694,105717,4
46524,105737,5
46697,105725,5
46694,105717,6
46677,105704,3
46733,105698,5
46673,105693,5
46682,105700,5
46696,105710,5
46888,105727,4
46707,105756,5
46720,105766,5
46720,105779,5
46908,105800,5
46733,105817,4
46744,105831,5
46759,105853,5
46830,105867,5
46774,105885,5
46784,105904,4
46789,105899,5
46797,105853,5
46796,105904,5
46797,105914,5
46795,105908,5
46804,105763,4
46808,105932,5
46812,105940,5
46822,105970,6
46824,105783,3
46829,105985,5
46843,105996,5
46841,106004,5
46852,105982,4
46848,106015,5
46860,106031,5
46859,106044,5
46859,106184,5
46851,106017,4
46854,106015,5
46840,106010,5
46836,106209,5
46827,105985,5
46822,105974,4
46837,105972,5
46821,106059,5
46817,105962,5
46826,105950,5
46817,105954,4
46808,105961,6
46802,105945,4
46809,105938,5
46814,105940,5
46808,105948,6
46820,105950,3
46825,105958,5
46814,105938,5
46796,105898,4
46762,105844,4
46748,105807,5
46728,105763,5
46695,105702,5
46667,105635,4
46631,105590,5
46614,105545,5
46599,105511,5
46586,105489,5
46579,105473,4
46587,105477,5
46584,105498,5
46589,105497,5
46599,105512,5
46609,105540,4
46617,105571,5
46636,105587,6
46647,105606,4
46641,105604,5
46634,105575,4
46623,105560,5
46603,105509,5
46588,105487,5
46574,105466,4
46571,105458,4
46562,105444,5
46575,105453,5
46570,105464,5
46582,105482,4
46587,105493,5
46584,105479,5
46587,105506,5
46598,105507,5
46602,105520,4
46610,105519,5
46614,105522,5
46604,105516,5
46608,105526,5
46597,105513,4
46604,105508,5
46597,105501,5
46586,105490,6
46581,105485,4
46591,105485,4
46596,105492,5
46601,105513,5
46616,105538,5
46627,105575,5
46651,105614,4
46674,105647,5
46715,105723,5
46728,105765,5
46755,105824,4
46787,105869,4
46807,105929,5
46846,105982,5
46871,106046,5
46913,106116,4
46954,106179,5
46989,106275,5
47040,106369,5
47098,106495,5
47159,106615,10
47230,106721,4
47287,106846,5
47340,106962,6
47400,107050,3
47428,107122,5
47471,107179,5
47497,107228,5
47518,107266,5
47540,107309,4
47438,107347,5
47577,107396,5
47615,107436,5
47639,107482,5
47464,107506,4
47665,107523,5
47673,107539,5
47683,107556,5
47565,107594,4
47727,107633,4
47736,107661,5
47744,107679,5
47850,107684,5
47750,107690,4
47758,107698,6
47753,107677,4
47955,107664,5
47744,107646,5
47710,107586,4
47683,107543,5
47811,107491,5
47621,107423,5
47588,107364,5
47556,107306,4
47571,107238,5
47474,107161,5
47437,107085,5
47420,107062,5
47417,106998,4
47444,107144,5
47474,107153,5
47430,107055,5
47336,106672,4
47183,106553,4
47055,106309,5
46930,106091,5
46890,105830,5
46897,106060,5
46916,106082,4
46935,106096,6
46930,106111,4
46922,106109,5
46940,106136,4
46945,106151,5
46962,106356,5
46983,106215,5
47000,106243,5
47016,106284,4
47038,106525,5
47021,106309,5
47022,106287,5
47030,106296,5
47026,106383,4
47035,106310,5
47054,106361,5
47071,106396,5
47089,106430,5
47108,106469,4
47136,106511,5
47156,106556,5
47183,106593,5
47209,106642,4
47229,106684,4
47253,106749,5
47293,106818,6
47327,106863,4
47358,106926,4
47395,106988,5
47438,107064,5
47492,107184,5
47560,107357,5
47702,107630,4
47819,107829,5
47843,107834,5
47813,107764,5
47746,107609,5
47650,107431,4
47563,107316,5
47541,107281,5
47549,107311,5
47581,107358,5
47602,107390,4
47625,107441,5
47641,107481,5
47677,107532,5
47709,107588,5
47731,107637,4
47744,107637,5
47749,107652,5
47752,107655,5
47741,107649,4
47735,107649,4
47741,107642,5
47742,107649,5
47749,107651,5
47752,107664,4
47752,107670,5
47756,107685,5
47754,107682,5
47763,107682,5
47751,107661,4
47740,107641,5
47721,107587,5
47679,107522,5
47648,107476,5
47626,107412,4
47598,107365,5
47580,107339,5
47564,107316,5
47564,107295,5
47549,107280,5
47552,107274,4
47547,107289,5
47562,107319,5
47606,107420,4
47668,107513,4
47673,107495,5
47622,107378,5
47517,107164,5
47392,106915,4
47254,106670,5
47165,106527,5
47123,106458,5
47105,106409,5
47081,106362,4
47048,106326,5
47039,106307,5
47036,106294,5
47033,106292,5
47035,106289,4
47024,106277,5
47025,106257,5
47019,106243,5
46980,106211,5
46964,106159,4
46935,106108,6
46910,106068,4
46777,106048,5
46893,106036,5
46903,106052,4
46912,106075,5
46731,106076,5
46923,106071,5
46923,106085,4
46919,106088,4
46817,106091,5
46919,106075,5
46914,106068,5
46908,106073,4
47021,106065,5
46906,106054,5
46909,106058,5
46902,106046,5
47117,106036,4
46889,106021,5
46889,106018,5
46882,106021,5
47030,106014,5
46895,106024,4
46893,106035,5
46888,106022,5
46926,106017,5
46886,106008,5
46885,105996,4
46877,105989,5
46874,105895,5
46869,105969,5
46858,105957,5
46855,105925,4
46832,105715,5
46816,105871,5
46810,105852,5
46797,105837,4
46796,105632,4
46804,105837,5
46804,105847,5
46811,105859,5
46801,105895,4
46799,105837,4
46781,105810,5
46776,105791,5
46765,105943,5
46738,105705,4
46717,105684,5
46703,105659,5
46695,105822,5
46682,105597,5
46670,105579,4
46651,105571,5
46656,105626,5
46651,105550,5
46649,105558,5
46658,105556,4
46656,105553,5
46628,105475,5
46584,105383,5
46554,105348,5
46535,105289,4
46503,105246,5
46491,105197,5
46463,105154,5
46455,105102,4
46418,105061,6
46397,105017,4
46373,104968,5
46357,104923,5
46336,104884,6
46312,104831,3
46295,104778,5
46254,104705,5
46223,104643,5
46190,104575,4
46149,104496,5
46113,104416,5
46058,104327,5
46033,104242,5
45974,104133,4
45948,104061,5
45916,104011,5
45903,103970,5
45900,103959,5
45890,103935,4
45891,103904,5
45871,103857,5
45830,103785,5
45821,103750,4
45807,103725,4
45816,103741,6
45814,103745,4
45814,103735,5
45806,103726,4
45805,103704,7
45798,103697,3
45795,103683,5
45818,103726,5
45837,103726,4
45822,103718,5
45838,103725,5
45844,103745,5
45828,103712,5
45812,103668,4
45826,103698,5
45848,103752,5
45883,103797,5
45935,103902,5
45988,104016,4
46040,104091,5
46077,104144,5
46085,104162,5
46095,104179,5
46101,104188,4
46129,104245,5
46165,104309,6
46182,104344,4
46198,104386,4
46240,104481,4
46312,104604,5
46359,104688,5
46377,104684,5
46355,104667,4
46338,104632,5
46343,104640,5
46351,104654,5
46355,104656,5
46345,104640,4
46324,104588,5
46305,104554,5
46285,104510,5
46271,104493,5
46260,104490,4
46224,104511,5
46278,104532,5
46283,104545,5
46289,104539,5
46141,104553,4
46297,104581,5
46309,104590,5
46306,104574,6
46095,104557,4
46287,104548,4
46284,104524,5
46275,104487,5
46188,104438,5
46214,104380,4
46168,104303,4
46142,104244,5
46272,104198,5
46112,104144,5
46072,104078,4
46039,104000,5
46222,103942,5
45967,103860,5
45921,103789,5
45887,103710,4
45978,103679,5
45871,103675,5
45877,103683,5
45878,103698,5
45915,103720,5
45911,103746,4
45936,103778,5
45940,103786,5
45938,103661,6
45938,103759,3
45923,103739,5
45917,103733,5
45917,103552,5
45919,103739,5
45931,103742,4
45936,103763,5
45949,103616,5
45956,103813,5
45970,103829,4
45971,103842,4
45984,103952,5
46000,103875,5
45996,103902,5
46025,103926,4
46038,104183,5
46067,104017,5
46078,104044,5
46067,104022,5
46058,104158,4
46043,103966,6
46042,103974,4
46047,103979,5
46059,104067,5
46078,104038,4
46101,104067,5
46101,104088,5
46111,104099,5
46123,104108,5
46131,104134,4
46172,104198,5
46212,104292,5
46236,104303,5
46230,104318,5
46255,104352,4
46285,104399,5
46305,104430,5
46311,104451,5
46320,104459,4
46318,104447,4
46348,104543,5
46380,104598,5
46395,104607,5
46418,104651,4
46455,104708,5
46480,104745,6
46507,104798,4
46535,104836,5
46532,104855,4
46569,104930,5
46648,105100,5
46749,105264,5
46810,105358,5
46809,105367,4
46822,105382,5
46826,105390,5
46814,105374,5
46805,105325,5
46773,105289,4
46775,105296,5
46799,105347,5
46802,105360,5
46806,105350,4
46796,105339,4
46810,105385,5
46839,105393,5
46819,105331,5
46769,105245,4
46737,105197,5
46732,105201,5
46761,105255,6
46773,105294,4
46776,105278,4
46789,105297,5
46789,105296,5
46778,105293,5
46797,105335,5
46799,105304,4
46784,105288,5
46779,105283,5
46775,105250,5
46737,105184,5
46691,105096,4
46651,105035,5
46634,105023,5
46650,105070,5
46703,105176,5
46750,105230,4
46766,105246,5
46779,105278,5
46765,105250,5
46756,105230,5
46753,105229,4
46763,105257,5
46760,105255,5
46772,105257,5
46768,105291,4
46822,105360,5
46863,105476,5
46901,105497,5
46900,105510,5
46910,105529,4
46919,105536,5
46929,105567,5
46880,105604,8
46936,105578,2
46931,105564,4
46928,105569,5
46758,105558,5
46942,105586,5
46954,105597,5
46981,105660,4
46803,105697,5
47032,105746,5
47081,105812,5
47119,105861,5
47126,105905,5
47165,105955,4
47184,105985,5
47202,106020,5
47395,106048,4
47240,106094,4
47263,106132,5
47281,106163,5
47577,106287,5
47456,106537,4
47609,106827,5
47675,106882,5
47726,106760,5
47527,106600,5
47416,106383,4
47283,106135,5
47228,106029,5
47218,106086,5
47274,106193,5
47342,106312,4
47368,106208,5
47392,106408,6
47446,106527,4
47531,106676,5
47612,106585,4
47684,106956,7
47766,107092,3
47832,107202,5
47880,107153,5
47878,107297,4
47909,107371,5
47985,107535,5
48114,107875,5
48190,107868,4
48200,107854,4
48186,107829,5
48158,108035,5
48137,107728,5
48151,107738,4
48171,107796,5
48193,107989,5
48155,107741,5
48090,107634,5
48063,107591,4
48059,107620,5
48075,107606,5
48099,107654,5
48141,107726,5
48200,107815,4
48238,107861,5
48260,107879,6
48281,107916,4
48284,107944,5
48321,108022,4
48379,108127,5
48449,108254,5
48525,108389,5
48563,108447,5
48565,108410,4
48486,108261,5
48384,108089,5
48290,107910,5
48211,107805,4
48177,107773,5
48168,107738,5
48147,107684,5
48126,107678,5
48156,107724,4
48184,107770,5
48177,107748,5
48145,107684,5
48107,107600,5
48069,107528,4
48044,107500,5
48029,107477,5
48036,107504,5
48068,107565,5
48088,107614,4
48118,107664,5
48131,107670,5
48153,107722,5
48174,107779,5
48204,107794,4
48197,107796,5
48173,107747,5
48123,107642,5
48068,107562,4
48040,107537,4
48050,107569,5
48075,107618,5
48090,107647,5
48115,107670,4
48121,107691,5
48131,107725,5
48152,107776,5
48193,107824,5
48203,107875,5
48225,107901,3
48245,107930,5
48245,107943,5
48264,107976,5
48293,108029,4
48335,108110,5
48364,108158,5
48360,108138,5
48337,108070,5
48287,107994,4
48231,107885,5
48201,107849,5
48192,107844,5
48208,107889,5
48237,107939,4
48265,107985,5
48275,107995,5
48274,107999,5
48284,108008,4
48285,108017,4
48306,108052,6
48326,108081,4
48345,108100,5
48354,108107,4
48353,108114,7
48353,108094,3
48344,108063,5
48322,108036,5
48190,108012,4
48301,107991,5
48285,107986,5
48276,107951,5
48037,107930,5
48257,107910,4
48245,107894,5
48229,107874,5
47963,107845,5
48213,107843,5
48208,107844,4
48225,107861,5
48271,107867,5
48205,107831,5
48200,107814,5
48187,107797,4
48417,107782,5
48168,107775,6
48180,107764,4
48171,107772,4
48426,107795,4
48192,107794,5
48195,107808,5
48201,107805,5
48284,107815,4
48208,107822,5
48202,107820,5
48217,107830,5
48228,107799,5
48222,107850,4
48217,107850,5
48214,107845,5
48212,107657,5
48227,107855,5
48217,107852,4
48217,107841,5
48225,107582,5
48217,107848,5
48222,107844,5
48220,107844,4
48215,107762,5
48211,107818,5
48199,107814,6
48203,107808,4
48192,107995,4
48200,107795,5
48198,107790,5
48202,107800,5
48210,108104,4
48204,107806,4
48188,107791,5
48187,107780,5
48176,107907,5
48181,107743,4
48175,107749,5
48166,107734,5
48169,107778,5
48169,107743,5
48172,107750,4
48174,107755,5
48182,107769,5
48188,107771,5
48182,107765,5
48185,107762,5
48181,107751,4
48185,107744,5
48181,107759,5
48190,107786,6
48214,107797,3
48214,107813,5
48208,107787,5
48195,107780,5
48190,107766,5
48180,107743,4
48171,107743,5
48180,107741,5
48178,107745,5
48186,107767,4
48200,107794,4
48223,107822,5
48219,107829,5
48225,107817,5
48219,107815,4
48204,107782,5
48189,107746,5
48168,107719,5
48154,107683,5
48133,107641,4
48121,107634,6
48108,107619,4
48113,107607,5
48097,107606,5
48101,107593,4
48086,107581,5
48082,107578,5
48079,107557,5
48071,107541,5
48061,107524,4
48052,107526,5
48051,107504,5
48047,107513,5
48043,107508,4
48057,107517,4
48065,107551,5
48081,107552,5
48080,107550,5
48073,107552,4
48078,107545,5
48073,107554,5
48080,107558,5
48085,107578,5
48106,107600,4
48123,107619,5
48131,107642,6
48129,107631,4
48124,107621,5
48110,107618,4
48122,107612,5
48105,107609,5
48120,107623,5
48121,107628,5
48129,107616,4
48117,107615,5
48116,107606,5
48109,107599,5
48106,107582,5
48109,107588,4
48104,107594,5
48111,107598,5
48117,107606,5
48105,107607,4
48121,107612,4
48114,107597,5
48110,107609,5
48105,107599,5
48121,107606,4
48114,107595,5
47966,107600,5
48125,107617,6
48121,107620,4
48124,107627,4
47901,107637,5
48143,107660,5
48157,107674,5
48162,107690,5
47950,107714,4
48183,107743,5
48199,107764,5
48205,107762,5
48318,107775,5
48213,107789,4
48219,107798,5
48228,107805,5
48488,107819,5
48243,107818,5
48246,107837,4
48249,107835,5
48456,107840,5
48246,107841,5
48245,107825,5
48246,107825,4
48302,107826,5
48238,107809,5
48232,107787,6
48221,107784,3
48221,107704,5
48225,107805,5
48223,107811,5
48234,107809,5
48232,107589,4
48229,107793,5
48222,107777,5
48206,107734,5
48172,107416,5
48131,107631,5
48118,107586,4
48069,107516,5
48043,107488,5
48014,107429,5
47993,107372,4
47958,107315,5
47934,107512,5
47929,107261,5
47922,107272,5
47926,107264,5
47926,107536,4
47905,107241,5
47900,107219,5
47890,107209,4
47895,107311,4
47888,107210,5
47895,107206,5
47895,107215,5
47904,107238,4
47913,107231,5
47905,107241,5
47901,107231,5
47913,107241,5
47920,107257,4
47930,107270,5
47941,107286,5
47946,107295,5
47949,107324,5
47962,107341,4
47981,107360,5
47995,107396,5
48011,107406,5
48013,107412,5
48006,107399,4
48000,107403,6
47999,107400,4
48008,107416,5
48013,107433,5
48029,107451,4
48030,107436,5
48037,107446,5
48025,107452,5
48037,107442,4
48027,107446,5
48039,107448,5
48036,107447,5
48022,107439,5
48024,107432,4
48017,107421,5
48006,107406,5
48013,107414,5
48030,107435,5
48030,107437,4
48046,107461,5
48051,107480,5
48065,107498,5
48081,107519,5
48086,107539,4
48087,107555,5
48102,107561,6
48112,107563,4
48122,107583,5
48130,107601,4
48125,107606,5
48126,107605,5
48135,107616,5
48147,107628,4
48155,107652,4
48180,107672,5
48180,107678,5
48183,107684,5
48176,107676,4
48175,107678,5
48169,107661,5
48168,107668,5
48166,107661,5
48163,107668,4
48168,107670,5
48165,107669,5
48172,107664,5
48161,107659,5
48163,107645,4
48155,107632,5
48152,107628,5
48141,107625,5
48131,107605,5
48119,107592,4
48115,107581,5
48120,107567,5
48100,107538,5
48080,107507,5
48077,107509,4
48077,107514,5
48085,107517,5
48079,107527,5
48054,107523,4
48081,107511,4
48081,107506,5
48063,107488,5
47861,107428,5
48013,107373,4
47973,107321,5
47938,107263,5
47670,107221,5
47907,107195,5
47821,107046,10
47821,107046,4
47811,107034,5
47953,107011,5
47777,106986,4
47760,106964,5
47761,106947,5
48029,106943,5
47740,106936,5
47737,106917,4
47736,106914,5
47905,106913,5
47742,106919,5
47749,106937,5
47753,106955,4
47792,106945,5
47763,106967,5
47768,106962,5
47763,106981,4
47770,106859,4
47772,106978,5
47775,106974,5
47772,106982,5
47777,106752,4
47777,106986,6
47777,107005,4
47778,106996,5
47780,106743,5
47775,106991,4
47765,106976,5
47764,106962,5
47757,107009,5
47745,106940,5
47735,106923,4
47735,106912,5
47725,107133,5
47699,106848,5
47669,106803,5
47651,106774,4
47633,106980,5
47608,106685,5
47592,106672,5
47572,106638,5
47556,106683,4
47543,106582,5
47546,106586,6
47533,106571,4
47523,106577,4
47527,106567,4
47534,106569,5
47528,106565,5
47534,106573,5
47525,106575,4
47535,106583,5
47541,106590,5
47547,106608,5
47546,106611,5
47558,106606,4
47550,106610,5
47554,106615,5
47551,106610,5
47555,106609,5
47553,106607,4
47552,106606,5
47556,106603,5
47548,106600,5
47547,106593,5
47551,106599,4
47545,106587,5
47538,106590,5
47538,106580,6
47521,106553,4
47515,106543,4
47510,106528,5
47497,106497,5
47479,106480,5
47461,106456,4
47447,106421,4
47416,106363,5
47396,106324,5
47378,106290,5
47363,106272,4
47353,106267,5
47357,106264,5
47350,106259,5
47354,106271,5
47351,106272,4
47349,106268,5
47349,106257,5
47334,106240,5
47334,106232,5
47324,106202,5
47312,106172,4
47295,106149,5
47266,106110,5
47243,106050,6
47218,106024,3
47207,106003,5
47194,105976,5
47186,105939,5
47165,105915,4
47141,105874,4
47116,105823,5
47090,105790,5
47079,105756,5
47069,105745,4
47069,105744,5
47063,105746,5
47081,105766,5
47071,105766,5
47064,105751,4
47064,105731,5
47054,105718,5
47045,105711,5
47048,105708,5
47057,105717,4
47070,105749,6
47085,105766,4
47074,105762,5
47079,105751,5
47070,105729,6
47062,105725,3
47060,105728,5
47068,105740,5
47033,105737,5
47054,105731,4
47057,105727,5
47044,105701,5
46866,105691,5
47035,105677,4
47029,105663,4
47015,105660,5
46756,105627,5
46989,105610,5
46974,105574,4
46958,105548,5
46840,105547,5
46952,105528,5
46950,105534,5
46946,105507,4
47079,105481,5
46902,105451,6
46896,105413,4
46881,105400,5
47145,105398,4
46876,105402,5
46868,105386,5
46864,105383,5
47025,105377,5
46857,105371,4
46853,105355,5
46846,105350,5
46875,105328,5
46834,105317,5
46827,105306,4
46820,105293,5
46814,105163,5
46808,105271,5
46797,105271,4
46791,105248,4
46795,105012,5
46779,105215,5
46768,105214,5
46764,105192,5
46752,104941,4
46755,105170,5
46741,105160,6
46732,105138,4
46718,105178,4
46710,105088,5
46700,105072,5
46679,105043,5
46646,105239,5
46616,104953,4
46589,104886,5
46558,104818,5
46531,105014,5
46503,104724,5
46481,104696,4
46464,104680,5
46470,104744,5
46449,104648,5
46459,104637,5
46438,104602,4
46427,104591,5
46403,104555,5
46388,104513,5
46380,104500,5
46360,104489,4
46358,104461,5
46339,104428,5
46319,104386,6
46285,104313,3
46251,104246,5
46205,104166,5
46163,104105,5
46118,104016,5
46078,103957,4
46040,103866,5
46007,103803,5
45969,103736,5
45936,103683,5
45920,103628,4
45894,103609,5
45889,103581,5
45893,103583,5
45889,103565,5
45883,103553,4
45860,103522,5
45846,103482,5
45826,103438,5
45805,103400,5
45782,103366,5
45779,103345,4
45767,103321,5
45753,103317,5
45739,103299,4
45738,103274,4
45722,103240,5
45710,103218,5
45695,103177,5
45660,103136,4
45651,103099,5
45637,103067,5
45617,103027,5
45590,102990,5
45576,102955,4
45559,102931,5
45540,102889,5
45532,102868,5
45509,102818,5
45486,102774,4
45458,102730,5
45436,102685,5
45408,102612,5
45375,102567,5
45356,102520,4
45343,102473,6
45318,102452,4
45301,102405,5
45276,102363,5
45248,102309,4
45225,102246,5
45199,102195,5
45180,102172,5
45155,102146,4
45139,102114,4
45138,102093,5
45137,102087,5
45140,102086,5
45142,102108,4
45148,102113,5
45159,102137,5
45161,102142,5
45161,102144,5
45181,102180,4
45195,102201,5
45200,102225,5
45232,102272,5
45254,102321,5
45290,102379,4
45300,102429,5
45347,102466,6
45373,102519,4
45386,102547,5
45258,102578,4
45430,102605,5
45429,102639,5
45455,102667,5
45236,102699,5
45486,102711,4
45491,102739,5
45502,102758,5
45374,102782,5
45527,102804,4
45533,102809,5
45542,102827,5
45669,102838,5
45552,102852,5
45554,102855,4
45582,102877,5
45823,102885,5
45589,102907,5
45595,102916,5
45593,102924,4
45777,102941,5
45624,102957,5
45623,102975,5
45636,102993,5
45696,102998,4
45640,103000,5
45641,102990,5
45630,102979,5
45636,102859,5
45622,102962,4
45616,102952,5
45618,102945,5
45619,102739,5
45616,102942,4
45615,102947,4
45613,102957,5
45623,102710,5
45615,102955,5
45613,102954,4
45623,102953,6
45626,102998,4
45638,102983,5
45641,102988,5
45652,103005,6
45659,103243,3
45666,103038,5
45677,103072,5
45682,103086,5
45699,103362,4
45696,103112,5
45717,103126,5
45724,103157,5
45740,103260,5
45751,103193,4
45773,103222,5
45776,103255,5
45797,103307,5
45821,103309,5
45828,103328,4
45833,103330,5
45830,103338,5
45828,103342,5
45826,103337,4
45833,103347,4
45835,103347,5
45849,103353,5
45830,103348,5
45837,103343,4
45828,103339,6
45829,103329,4
45825,103325,5
45824,103318,5
45829,103329,4
45831,103341,5
45832,103347,5
45852,103359,5
45860,103392,5
45867,103405,4
45874,103417,5
45884,103450,5
45912,103465,5
45912,103484,5
45911,103490,4
45924,103512,5
45931,103528,5
45945,103558,5
45960,103590,5
45980,103605,4
45974,103617,5
45988,103635,5
45996,103638,5
46010,103664,4
46006,103670,4
46028,103696,6
46024,103696,4
46029,103694,5
46027,103691,4
46035,103691,5
46028,103687,5
46032,103700,5
46030,103693,5
46024,103693,4
46024,103694,5
46024,103689,5
46018,103682,5
46016,103671,5
46020,103669,4
46021,103686,5
46023,103684,5
46022,103679,5
46022,103696,5
46030,103703,4
46037,103721,5
46054,103744,5
46074,103775,6
46090,103798,4
46106,103830,4
46111,103825,5
46095,103811,5
46080,103790,5
46075,103762,4
46058,103730,4
46053,103710,5
46035,103703,5
46028,103691,5
46031,103683,4
46023,103680,5
46022,103669,5
46015,103653,5
46010,103647,5
46015,103645,4
46017,103658,5
46010,103654,5
45993,103669,5
46024,103689,5
46050,103723,5
46055,103763,4
45908,103775,5
46083,103798,5
46100,103811,6
46099,103824,3
45878,103835,5
46124,103857,5
46125,103877,5
46140,103889,5
46041,103895,4
46145,103902,5
46147,103905,5
46159,103929,5
46324,103953,4
46182,103964,4
46187,103958,5
46183,103960,9
46435,103955,1
46179,103977,4
46171,103942,5
46172,103942,5
46311,103933,5
46155,103925,5
46156,103919,4
46158,103907,6
46188,103892,4
46144,103883,5
46140,103884,5
46129,103871,6
46138,103752,3
46133,103884,5
46138,103879,5
46136,103887,5
46147,103666,4
46149,103881,5
46144,103889,5
46138,103897,5
46150,103683,4
46165,103925,4
46157,103928,5
46168,103944,5
46179,104030,5
46173,103969,4
46190,103991,5
46199,104007,5
46216,104263,5
46220,104041,5
46226,104052,4
46229,104047,5
46225,104259,6
46226,104055,4
46239,104069,5
46232,104061,4
46238,104136,5
46240,104073,5
46246,104081,5
46239,104077,5
46242,104090,4
46256,104092,5
46262,104110,5
46268,104135,5
46266,104139,5
46278,104148,4
46283,104145,5
46282,104148,5
46289,104155,5
46295,104152,4
46279,104141,4
46276,104128,5
46263,104120,5
46263,104095,5
46236,104059,4
46226,104023,5
46205,103996,5
46206,103982,6
46201,103987,4
46190,103975,4
46200,103982,5
46199,103984,5
46198,103980,5
46199,103988,5
46193,103999,4
46207,103997,5
46205,104006,5
46212,104023,5
46218,104030,5
46227,104030,4
46231,104047,5
46233,104056,5
46248,104065,5
46259,104090,5
46262,104102,4
46274,104111,5
46272,104116,5
46276,104136,5
46291,104143,5
46297,104166,4
46313,104180,5
46318,104214,5
46337,104229,6
46341,104256,3
46361,104272,5
46372,104283,5
46369,104298,5
46377,104301,5
46388,104322,4
46392,104343,5
46410,104367,5
46423,104385,5
46442,104409,5
46441,104412,4
46449,104424,5
46456,104444,5
46452,104440,5
46472,104452,5
46469,104453,4
46467,104455,5
46465,104452,5
46478,104466,5
46485,104485,5
46493,104498,5
46499,104513,4
46500,104531,5
46508,104536,5
46516,104536,4
46509,104537,4
46516,104546,5
46518,104550,5
46535,104568,5
46539,104591,4
46541,104606,5
46553,104607,5
46555,104608,5
46545,104607,5
46482,104600,4
46543,104580,5
46541,104591,5
46542,104590,5
46352,104590,5
46538,104582,4
46537,104590,5
46534,104583,5
46300,104581,5
46520,104573,5
46524,104565,4
46528,104558,6
46499,104570,4
46529,104566,5
46527,104571,4
46517,104542,4
46688,104512,5
46484,104465,5
46470,104433,5
46443,104404,4
46680,104377,5
46398,104345,5
46387,104316,5
46377,104297,5
46497,104295,4
46373,104297,5
46374,104293,5
46367,104287,5
46397,104290,5
46369,104291,4
46369,104286,5
46375,104290,5
46375,104152,5
46383,104326,5
46393,104340,4
46398,104329,5
46383,104089,6
46383,104300,4
46375,104304,5
46377,104292,4
46373,104123,4
46373,104286,5
46374,104300,5
46374,104286,5
46371,104407,4
46363,104279,5
46363,104274,5
46360,104275,5
46362,104540,4
46372,104274,5
46357,104264,5
46336,104234,5
46326,104375,5
46296,104132,4
46267,104090,5
46249,104073,5
46244,104110,5
46238,104036,5
46232,104027,4
46214,104012,5
46229,104008,5
46214,104009,6
46222,104014,4
46225,104004,4
46230,104010,5
46225,104007,5
46228,104012,5
46231,104014,5
46231,104004,4
46213,103986,5
46208,103959,5
46202,103943,5
46201,103953,4
46203,103965,4
46216,103968,5
46218,103982,5
46221,103981,5
46237,104004,4
46258,104034,5
46288,104109,5
46334,104168,5
46366,104234,5
46407,104311,5
46456,104404,4
46506,104473,5
46514,104509,5
46545,104545,5
46561,104556,4
46547,104542,5
46537,104508,5
46517,104462,5
46480,104406,5
46464,104373,4
46458,104380,5
46452,104365,5
46457,104366,5
46453,104342,5
46444,104337,4
46429,104326,5
46428,104314,5
46407,104278,5
46358,104190,4
46301,104082,4
46226,103959,5
46156,103849,5
46111,103750,5
46042,103641,4
45984,103513,6
45914,103385,4
45847,103285,5
45804,103199,5
45769,103154,4
45738,103106,5
45717,103070,5
45718,103047,5
45716,103064,5
45723,103075,4
45721,103074,5
45719,103067,5
45705,103050,5
45691,103033,5
45686,103017,4
45656,102964,5
45625,102893,5
45588,102820,5
45532,102749,5
45520,102721,4
45513,102682,5
45494,102664,5
45492,102654,5
45482,102637,4
45482,102627,4
45503,102678,6
45518,102694,4
45528,102722,5
45536,102744,4
45564,102787,5
45526,102843,5
45618,102886,5
45633,102929,5
45654,102957,4
45479,102969,5
45673,103005,5
45680,103005,5
45692,103009,5
45452,103017,4
45695,103016,5
45694,103022,5
45699,103038,5
45666,103044,5
45731,103073,4
45744,103118,5
45753,103139,5
45928,103112,5
45739,103076,5
45707,103022,4
45679,102982,5
45906,102952,5
45647,102913,5
45628,102873,4
45612,102870,4
45742,102882,5
45638,102917,5
45664,102965,5
45700,103031,4
45769,103114,5
45805,103240,5
45868,103371,5
45939,103507,5
46010,103485,4
46050,103703,5
46094,103778,5
46133,103868,5
46219,103826,5
46306,104204,4
46369,104294,4
46394,104373,5
46455,104281,5
46547,104652,5
46633,104809,3
46746,105040,5
46885,105361,5
46993,105502,5
47114,105694,5
47205,105883,4
47318,106341,5
47410,106236,5
47497,106381,5
47556,106512,4
47626,106827,5
47704,106771,5
47825,106999,5
47977,107290,5
48126,107611,4
48231,107705,5
48273,107767,5
48307,107822,5
48370,107951,5
48443,108058,4
48489,108119,6
48497,108140,4
48485,108129,5
48485,108122,5
48477,108122,6
48472,108103,3
48452,108062,5
48429,108043,5
48427,108036,5
48438,108050,4
48461,108092,5
48475,108133,5
48480,108132,5
48481,108118,4
48480,108130,4
48501,108146,5
48502,108187,5
48519,108204,5
48537,108227,4
48540,108228,5
48530,108199,5
48510,108168,5
48488,108120,5
48455,108072,4
48438,108033,5
48426,108010,6
48396,107978,4
48379,107954,5
48351,107907,4
48340,107865,5
48306,107836,5
48285,107786,5
48266,107743,5
48237,107704,4
48214,107662,5
48191,107625,5
48157,107579,5
48143,107535,5
48123,107495,4
48102,107472,5
48083,107427,5
48075,107418,5
48069,107419,4
48079,107428,4
48080,107448,5
48084,107472,5
48096,107477,5
48097,107465,4
48094,107468,5
48083,107454,5
48066,107428,6
48062,107408,4
48039,107377,4
48018,107362,5
47998,107308,5
47982,107262,5
47944,107209,5
47909,107146,4
47868,107075,5
47838,107016,5
47787,106932,5
47742,106837,5
47708,106751,4
47663,106699,5
47638,106641,5
47601,106594,5
47582,106540,5
47544,106475,4
47508,106414,5
47475,106329,5
47432,106268,5
47390,106201,5
47351,106116,4
47306,106018,5
47260,105942,5
47182,105866,6
47177,105797,3
47150,105769,5
47132,105734,5
46950,105697,5
47089,105651,5
47065,105590,4
47046,105563,5
46798,105525,5
47007,105486,5
46993,105461,5
46962,105411,4
46839,105347,5
46895,105277,5
46868,105225,5
46833,105177,5
46967,105136,4
46799,105094,5
46777,105061,5
46747,105020,5
46971,104987,5
46731,104979,5
46715,104969,4
46736,104987,5
46879,105003,5
46764,105039,11
46758,105037,3
46774,105060,5
46806,105069,5
46773,105068,4
46776,105083,5
46779,105078,5
46786,104970,5
46788,105101,5
46794,105107,4
46804,105124,5
46810,104945,5
46831,105178,5
46846,105194,5
46855,105200,4
46854,104990,5
46862,105229,5
46864,105241,5
46876,105250,5
46886,105340,4
46908,105323,6
46928,105359,4
46946,105389,5
46962,105637,5
46980,105449,4
46995,105479,5
47001,105491,5
47031,105756,5
47037,105559,4
47060,105591,4
47077,105616,5
47086,105713,5
47086,105657,5
47110,105687,4
47126,105703,5
47143,105755,5
47154,105779,5
47170,105796,5
47184,105816,4
47183,105815,5
47189,105826,5
47188,105843,5
47199,105850,5
47210,105866,4
47221,105884,5
47228,105889,6
47219,105894,4
47226,105886,5
47221,105891,4
47232,105917,5
47250,105930,5
47263,105957,5
47273,105981,5
47284,105997,4
47287,106015,5
47293,106032,5
47299,106053,5
47311,106064,4
47320,106075,4
47317,106067,5
47327,106057,5
47306,106045,5
47304,106024,4
47293,106004,5
47288,105990,5
47279,105981,5
47269,105969,5
47260,105955,4
47242,105930,5
47233,105907,5
47232,105905,6
47230,105888,4
47231,105904,4
47235,105905,5
47240,105910,5
47237,105919,5
47244,105911,5
47241,105936,4
47254,105950,5
47251,105952,5
47258,105960,5
47269,105972,5
47264,105971,4
47262,105966,5
47267,105989,5
47277,105999,5
47294,106018,4
47312,106048,5
47322,106085,5
47337,106110,5
47354,106135,5
47372,106164,5
47386,106200,4
47395,106211,5
47409,106233,5
47425,106268,5
47443,106305,4
47465,106341,5
47490,106387,5
47506,106414,5
47520,106442,5
47526,106450,4
47537,106472,5
47532,106470,5
47544,106477,5
47549,106491,5
47556,106522,4
47568,106529,5
47569,106544,5
47579,106541,5
47585,106550,4
47571,106551,4
47545,106575,5
47598,106578,5
47609,106598,5
47620,106636,4
47477,106674,6
47656,106708,4
47679,106741,5
47694,106768,5
47477,106804,4
47727,106840,5
47744,106864,5
47757,106885,5
47683,106917,5
47782,106936,4
47792,106951,5
47796,106991,5
47964,107006,5
47832,107038,5
47848,107063,4
47865,107092,5
48128,107125,5
47896,107161,5
47920,107187,5
47918,107184,4
48062,107196,5
47920,107197,5
47922,107195,5
47924,107194,4
47959,107208,4
47934,107229,6
47944,107243,4
47962,107270,5
47974,107169,4
47979,107315,5
47996,107337,5
48010,107363,5
48010,107160,5
48011,107353,4
48014,107367,5
48011,107351,5
48003,107130,5
47997,107335,5
47989,107322,5
47982,107316,4
47983,107382,5
47985,107306,5
47987,107319,5
47986,107321,4
47990,107577,5
48001,107345,5
48012,107363,6
48010,107378,4
48022,107587,4
48021,107383,5
48029,107400,5
48040,107414,5
48049,107503,4
48050,107440,4
48051,107450,5
48059,107453,5
48052,107462,5
48057,107466,4
48065,107480,5
48080,107496,5
48089,107526,5
48105,107551,5
48113,107582,4
48122,107601,5
48153,107632,5
48166,107652,5
48168,107665,5
48172,107685,4
48175,107671,5
48172,107673,5
48165,107665,5
48164,107663,5
48163,107662,4
48166,107651,5
48158,107653,5
48163,107667,5
48162,107662,5
48163,107656,4
48164,107667,5
48172,107675,5
48183,107683,5
48165,107688,4
48179,107694,4
48177,107685,5
48172,107690,5
48171,107683,5
48174,107660,4
48143,107639,5
48142,107610,5
48118,107593,5
48119,107590,5
48113,107583,4
48121,107596,5
48123,107610,5
48130,107624,5
48151,107641,5
48157,107662,5
48160,107659,3
48157,107668,5
48165,107670,5
48165,107674,5
48163,107674,4
48163,107668,5
48154,107670,5
48162,107665,5
48144,107650,5
48151,107645,4
48155,107639,5
48154,107640,5
48136,107636,5
48133,107621,4
48123,107611,4
48118,107600,5
48116,107582,5
48110,107559,5
48092,107545,4
48077,107508,5
48067,107498,6
48054,107501,4
48061,107493,5
48047,107490,4
48052,107473,7
48051,107485,3
48048,107478,5
48045,107483,5
48049,107478,4
48042,107475,5
48051,107481,5
48050,107475,5
48038,107463,5
48033,107441,4
48006,107389,5
47983,107343,5
47901,107285,5
47934,107245,4
47908,107208,4
47880,107162,5
47686,107114,5
47835,107082,5
47822,107047,4
47807,107020,5
47559,107000,5
47793,106999,6
47788,106996,4
47784,106977,4
47711,106964,5
47765,106956,5
47761,106937,5
47748,106930,5
47911,106927,4
47745,106934,5
47752,106937,5
47758,106935,5
48008,106938,5
47754,106939,4
47752,106939,5
47753,106928,5
47882,106926,5
47752,106931,5
47752,106926,4
47744,106911,5
47776,106910,5
47739,106912,5
47738,106917,5
47738,106919,4
47737,106796,5
47751,106928,5
47739,106927,6
47746,106916,3
47737,106688,5
47731,106884,5
47718,106872,5
47700,106837,5
47679,106598,4
47655,106750,5
47629,106713,5
47600,106661,5
47576,106705,5
47557,106573,4
47542,106542,5
47523,106521,5
47512,106740,5
47510,106475,5
47493,106465,4
47492,106446,5
47480,106617,5
47462,106404,5
47454,106378,5
47446,106369,5
47436,106425,4
47425,106346,5
47426,106316,5
47411,106309,6
47407,106290,3
47384,106264,5
47374,106245,5
47359,106220,5
47360,106208,4
47345,106187,5
47327,106165,5
47321,106134,5
47295,106111,5
47300,106099,4
47278,106053,5
47262,106030,5
47244,106001,5
47229,105962,5
47216,105935,4
47197,105915,5
47182,105888,5
47159,105847,5
47161,105843,5
47150,105818,4
47133,105810,6
47132,105790,4
47115,105752,5
47102,105724,5
47087,105704,4
47064,105683,5
47056,105647,5
47038,105622,5
47022,105588,4
47007,105555,4
46986,105520,5
46967,105480,5
46948,105445,5
46930,105412,4
46917,105404,5
46915,105375,5
46906,105375,5
46891,105337,5
46868,105314,4
46854,105291,5
46839,105252,5
46822,105225,5
46803,105191,5
46794,105192,4
46791,105174,5
46793,105169,6
46774,105142,4
46753,105097,5
46717,105038,4
46693,104976,5
46651,104901,5
46612,104829,5
46576,104769,4
46557,104711,4
46524,104651,5
46494,104587,5
46456,104536,5
46428,104476,4
46407,104445,4
46400,104420,5
46389,104411,5
46379,104407,5
46369,104399,4
46370,104386,5
46367,104374,5
46362,104363,5
46340,104329,5
46325,104311,4
46312,104278,5
46303,104272,5
46294,104259,6
46298,104258,4
46287,104257,4
46286,104246,5
46280,104231,5
46266,104218,5
46262,104191,5
46215,104179,4
46236,104150,5
46223,104124,5
46208,104107,5
46032,104073,4
46182,104044,4
46170,104025,5
46164,104013,5
45947,104011,5
46158,104009,4
46145,103999,4
46147,103972,5
46045,103953,5
46107,103920,5
46097,103885,5
46082,103856,4
46201,103824,5
46052,103816,5
46059,103814,5
46053,103815,4
46294,103824,5
46063,103817,5
46062,103834,5
46069,103838,5
46206,103861,4
46081,103860,5
46088,103881,5
46100,103887,5
46139,103899,5
46119,103939,4
46143,103966,5
46154,103998,9
46166,103916,1
46205,104069,4
46209,104115,4
46231,104135,5
46247,103955,5
46255,104178,5
46253,104194,5
46278,104222,5
46286,104016,4
46296,104254,5
46306,104274,5
46325,104290,4
46330,104379,5
46343,104333,5
46364,104379,5
46378,104394,5
46380,104629,4
46395,104432,5
46407,104444,5
46414,104464,5
46427,104711,5
46448,104505,4
46447,104534,5
46463,104551,5
46485,104652,5
46481,104585,5
46487,104604,4
46501,104619,5
46507,104652,5
46531,104664,5
46534,104681,4
46531,104686,4
46544,104702,6
46551,104701,4
46555,104711,5
46554,104706,4
46560,104703,5
46548,104691,5
46548,104685,5
46534,104678,5
46540,104674,4
46539,104675,5
46545,104681,5
46549,104680,5
46542,104665,5
46533,104667,4
46528,104671,5
46535,104664,5
46535,104671,5
46545,104683,5
46556,104696,4
46567,104716,5
46573,104742,5
46592,104769,5
46605,104795,5
46613,104818,4
46624,104838,5
46632,104848,6
46642,104866,4
46653,104877,4
46660,104893,4
46672,104901,5
46679,104927,5
46683,104935,5
46688,104942,4
46693,104963,5
46713,104981,5
46721,105009,5
46732,105025,5
46748,105041,4
46749,105056,5
46758,105052,5
46748,105055,5
46747,105048,5
46737,105034,4
46730,105025,5
46736,105026,5
46735,105023,5
46743,105031,5
46738,105035,4
46753,105032,5
46749,105025,5
46735,105023,5
46739,105014,5
46735,105016,4
46732,105019,5
46733,105019,5
46747,105028,5
46750,105040,4
46763,105053,4
46774,105066,5
46775,105088,5
46785,105103,5
46801,105117,4
46801,105126,5
46805,105135,5
46819,105157,5
46836,105203,5
46875,105262,4
46911,105328,5
46934,105379,5
46965,105428,5
47004,105475,5
47013,105522,5
47035,105540,4
47036,105568,5
47070,105603,5
47101,105661,5
47130,105720,4
47015,105785,5
47195,105854,5
47250,105940,5
47301,106030,5
47131,106121,4
47382,106184,5
47411,106236,5
47457,106363,5
47463,106652,4
47819,107079,4
48063,107545,5
48319,108043,5
48692,108487,5
48717,108743,4
48794,108850,5
48803,108881,5
49052,108866,5
48810,108879,5
48851,109030,4
49083,109555,6
49616,110228,3
49744,110768,5
49918,111069,5
49966,111117,4
50012,111126,5
49993,111204,5
50106,111459,5
50238,111687,5
50293,111676,4
50332,111866,5
50418,112076,5
50587,112379,5
50785,112563,5
50988,113106,4
51080,113268,5
51142,113408,5
51276,113451,5
51491,114096,4
51699,114470,5
51883,114774,4
52029,115048,6
52121,115207,4
52238,115437,4
52364,115645,5
52451,116043,5
52519,115950,5
52667,116237,5
52847,116573,4
53027,117171,5
53105,116998,5
53114,117064,5
53163,117139,5
53233,117407,4
53271,117327,5
53252,117312,5
53283,117379,5
53377,117563,5
53465,117721,4
53513,117795,5
53532,117770,5
53444,117608,5
53313,117392,5
53260,117375,4
53336,117537,5
53440,117698,5
53494,117767,6
53502,117776,3
53491,117755,4
53490,117770,5
53518,117843,5
53561,117915,5
53585,117945,4
53598,117956,5
53598,117967,5
53594,117965,5
53560,117901,5
53494,117763,4
53376,117555,5
53245,117320,5
53154,117184,5
53103,117122,5
53096,117098,4
53069,117042,5
53003,116922,5
52932,116785,5
52819,116581,5
52671,116313,5
52499,115993,4
52308,115674,5
52149,115385,5
52012,115163,6
51906,114986,3
51809,114819,5
51731,114668,5
51620,114469,5
51508,114266,4
51405,114074,4
51305,113907,5
51199,113711,5
51092,113506,5
50949,113247,4
50821,113002,5
50693,112780,5
50565,112523,5
50427,112279,5
50323,112081,4
50226,111916,5
50139,111739,5
50050,111559,5
49943,111389,5
49865,111252,4
49803,111126,6
49750,111027,4
49705,110963,5
49676,110911,5
49650,110865,6
49630,110825,3
49618,110791,5
49583,110724,5
49550,110665,5
49511,110587,4
49452,110471,5
49382,110350,5
49320,110243,5
49267,110149,4
49222,110051,4
49169,109946,5
49109,109841,5
49067,109759,5
49016,109669,4
48968,109585,5
48920,109501,5
48866,109393,5
48810,109288,5
48758,109180,4
48697,109070,5
48633,108930,6
48430,108823,4
48517,108749,5
48482,108686,4
48442,108598,5
48181,108508,5
48320,108404,5
48277,108296,5
48225,108223,4
47991,108204,5
48210,108204,5
48188,108165,5
48150,108072,5
48164,107987,4
48067,107944,5
48047,107918,5
48069,107991,5
48351,108130,4
48237,108342,4
48369,108606,5
48509,108890,5
48857,109179,5
48802,109478,4
48957,109779,5
49151,110188,5
49439,110627,6
49602,111068,4
49781,111414,4
49917,111674,5
50041,111833,5
50138,112116,5
50266,112367,5
50404,112642,4
50564,112832,5
50739,113358,5
50965,113826,5
51198,114265,5
51388,114402,4
51559,115016,5
51755,115408,5
51951,115800,5
52102,116042,5
52189,116276,4
52233,116391,5
52374,116714,5
52623,117392,5
52834,117595,5
52980,117839,4
53065,118015,5
53149,118452,5
53240,118375,6
53376,118608,3
53468,118806,5
53604,119251,5
53761,119436,5
53906,119747,5
53971,119852,4
54031,120050,5
54091,120155,5
54177,120339,5
54254,120517,5
54381,120863,4
54593,121215,5
54813,121644,5
54931,121839,5
54925,121794,5
54839,121685,4
54887,121837,5
55066,122182,5
55244,122502,5
55425,122854,5
55603,123175,5
55687,123306,4
55773,123465,5
55804,123560,5
55842,123631,4
55911,123778,5
56035,124050,5
56201,124394,5
56446,124864,5
56690,125278,4
56882,125625,5
56949,125742,5
56930,125702,5
56874,125590,5
56755,125407,4
56709,125365,5
56738,125428,5
56744,125394,5
56663,125325,5
56703,125385,4
56734,125432,5
56754,125489,5
56847,125689,5
57009,125984,5
57130,126231,4
57373,126662,6
57620,127124,4
57834,127479,5
57934,127697,4
58128,128074,4
58402,128551,5
58515,128699,5
58445,128550,5
58306,128356,4
58137,128030,5
57904,127639,5
57756,127437,5
57714,127369,5
57737,127436,4
57790,127538,5
57799,127508,5
57728,127358,5
57616,127184,5
57520,127049,4
57451,126916,5
57348,126705,5
57223,126524,5
57122,126349,5
56973,126106,4
56882,125956,5
56857,125919,6
56819,125812,4
56654,125480,5
56487,125231,4
56428,125160,5
56440,125181,5
56426,125140,5
56384,125054,4
56284,124901,4
56208,124795,5
56180,124760,5
56198,124768,5
56219,124843,4
56293,124937,5
56327,125002,5
56359,125047,5
56340,124997,5
56209,124940,4
56247,124842,5
56148,124660,5
56021,124471,5
55749,124348,5
55934,124368,4
55989,124453,5
56022,124502,5
55801,124533,5
56057,124560,5
56086,124598,4
56070,124571,5
56059,124582,5
56105,124674,5
56160,124749,5
56142,124710,4
56317,124665,5
56125,124711,5
56140,124715,5
56096,124653,4
56353,124632,4
56084,124645,5
56130,124733,5
56156,124771,5
56246,124716,4
56102,124684,5
56109,124662,5
56062,124592,5
56028,124473,5
55931,124382,5
55924,124331,4
55871,124263,5
55831,123998,5
55721,123949,5
55606,123763,6
55514,123605,3
55460,123270,5
55430,123476,5
55433,123490,5
55432,123489,4
55418,123321,5
55373,123341,5
55287,123198,5
55215,123083,5
55178,123155,4
55149,122970,5
55069,122825,5
54974,122650,5
54877,122742,4
54809,122348,4
54742,122227,6
54674,122112,4
54615,122166,5
54552,121881,4
54495,121775,7
54476,121757,3
54456,121721,5
54347,121446,5
54227,121218,4
54107,120981,5
53980,120733,5
53902,120606,5
53855,120505,5
53765,120333,4
53694,120205,5
53615,120055,5
53537,119913,5
53460,119762,5
53373,119617,4
53324,119531,5
53280,119458,5
53241,119380,5
53172,119256,5
53117,119149,4
53067,119061,5
53024,118982,5
52966,118876,5
52930,118792,4
52878,118704,4
52840,118628,6
52773,118483,4
52707,118359,5
52654,118258,4
52612,118209,5
52601,118167,5
52562,118091,5
52516,118015,5
52488,117970,4
52461,117952,5
52441,117883,5
52400,117797,5
52338,117687,5
52277,117557,4
52210,117435,5
52163,117346,5
52127,117296,5
52112,117239,5
52095,117223,4
52094,117205,5
52087,117190,5
52081,117166,6
52037,117065,4
51980,116985,4
51930,116895,5
51900,116826,5
51865,116773,5
51845,116703,4
51818,116662,5
51788,116590,5
51769,116557,5
51765,116525,5
51723,116445,4
51679,116355,5
51633,116284,5
51613,116242,5
51601,116212,5
51599,116211,4
51608,116227,5
51617,116250,5
51617,116263,5
51632,116283,5
51652,116328,5
51675,116370,4
51684,116369,5
51678,116360,5
51675,116342,6
51664,116340,3
51668,116343,5
51677,116362,5
51676,116372,5
51693,116385,5
51699,116379,4
51666,116340,5
51655,116295,5
51629,116259,5
51605,116233,4
51600,116224,5
51518,116205,5
51582,116166,5
51565,116144,5
51565,116142,4
51395,116133,5
51567,116145,5
51575,116153,5
51563,116124,5
51340,116102,4
51545,116095,6
51543,116094,4
51549,116107,5
51572,116128,5
51578,116173,6
51597,116222,3
51647,116281,5
51836,116311,5
51659,116284,5
51620,116217,4
51583,116146,5
51793,116131,5
51572,116117,5
51561,116114,4
51555,116103,4
51657,116110,5
51564,116131,5
51572,116117,5
51566,116113,4
51560,116067,5
51533,116056,5
51517,116024,5
51512,116025,5
51519,115893,4
51529,116057,5
51545,116084,6
51555,116108,4
51560,115911,5
51550,116076,4
51536,116061,5
51523,116039,5
51510,115920,5
51502,116011,5
51513,116008,4
51509,116018,5
51515,116173,5
51523,116060,5
51547,116077,5
51556,116104,4
51550,116319,5
51529,116048,5
51508,116024,5
51497,116018,4
51499,116130,4
51499,116016,5
51519,116043,5
51546,116084,5
51556,116148,4
51583,116172,5
51606,116202,5
51610,116206,6
51601,116190,4
51599,116189,4
51612,116203,5
51618,116217,5
51627,116235,5
51642,116261,5
51661,116295,4
51685,116325,5
51704,116391,5
51734,116428,5
51752,116481,5
51775,116520,4
51802,116566,5
51838,116620,5
51873,116693,5
51893,116731,5
51904,116740,4
51913,116746,5
51923,116768,5
51922,116768,5
51932,116787,5
51939,116801,4
51942,116830,5
51954,116848,5
51957,116837,6
51972,116853,3
51973,116857,5
51976,116867,5
51985,116872,5
51968,116856,5
51976,116854,4
51969,116840,5
51950,116817,5
51954,116814,5
51951,116816,5
51945,116804,4
51932,116778,5
51913,116739,5
51899,116714,5
51895,116690,5
51888,116712,4
51897,116714,5
51906,116729,5
51907,116736,5
51910,116739,5
51902,116716,5
51882,116678,4
51884,116686,5
51872,116673,5
51856,116610,4
51822,116575,5
51825,116565,5
51809,116540,5
51794,116532,5
51797,116524,4
51797,116527,5
51806,116544,5
51800,116548,5
51819,116565,5
51819,116562,4
51819,116550,5
51804,116544,5
51816,116549,5
51807,116556,5
51815,116564,4
51823,116580,5
51830,116591,5
51835,116585,5
51828,116560,5
51819,116564,4
51814,116548,6
51804,116551,4
51811,116543,5
51814,116561,4
51823,116572,4
51829,116592,5
51848,116628,5
51776,116672,5
51871,116661,4
51872,116675,10
51874,116681,5
51699,116687,5
51894,116685,5
51899,116701,10
51901,116733,5
51717,116762,5
51879,116698,10
51879,116698,5
51894,116699,5
51884,116696,10
52075,116706,5
51906,116734,5
51919,116761,10
51919,116761,5
51951,116759,7
51983,116770,4
51925,116765,0
51919,116755,4
51928,116769,4
51944,116749,5
51932,116801,5
51943,116809,5
51936,116795,4
51922,116619,5
51910,116740,5
51899,116724,5
51896,116713,5
51888,116491,4
51883,116701,5
51882,116692,5
51887,116702,5
51892,116623,5
51889,116700,4
51891,116697,5
51891,116689,5
51874,116814,6
51854,116614,4
51818,116566,4
51780,116486,5
51735,116638,5
51690,116330,5
51660,116266,5
51621,116200,4
51591,116293,5
51579,116128,5
51565,116090,5
51547,116049,4
51526,116051,4
51514,115998,5
51516,116008,5
51524,116013,5
51506,115983,4
