RED,IR,EKG,TIME
31996,66565,10
32006,66569,10
32018,66575,9
32072,66550,10
32072,66550,9
32000,66541,8
31992,66524,7
31976,66494,5
31947,66421,8
31947,66421,7
31924,66431,10
31925,66391,7
31916,66377,5
31898,66284,8
31898,66284,7
31894,66347,5
31889,66346,8
31896,66355,7
31898,66290,5
31859,66344,8
31896,66342,7
31895,66353,7
31895,66353,10
31905,66411,5
31897,66346,5
31887,66311,10
31895,66311,5
31890,66401,5
31834,66212,10
31834,66212,5
31818,66162,5
31790,66112,10
31747,66054,5
31735,65998,5
31644,65847,10
31644,65847,5
31673,65841,5
31670,65856,10
31654,65855,5
31658,65877,5
31657,65889,10
31671,65901,5
31681,65937,5
31713,65987,10
31713,65987,5
31704,65949,7
31675,65908,8
31668,65859,5
31680,65828,7
31601,65746,8
31601,65746,5
31597,65738,7
31591,65734,8
31588,65713,5
31592,65734,7
31631,65745,8
31610,65746,5
31592,65755,7
31652,65855,8
31652,65855,5
31663,65863,7
31671,65890,8
31681,65921,5
31695,65929,7
31689,65949,8
31732,66026,7
31732,66026,5
31742,66046,8
31762,66093,7
31771,66091,5
31772,66087,8
31768,66074,7
31778,66102,8
31778,66102,5
31772,66115,7
31778,66129,8
31772,66098,5
31768,66083,7
31757,66058,5
31755,66061,8
31717,65990,7
31717,65990,5
31722,65967,8
31679,65954,7
31692,65937,5
31690,65937,8
31690,65966,7
31687,65932,8
31687,65932,7
31683,65950,9
31693,65945,10
31703,65951,9
31703,65951,8
31712,65957,7
31650,65970,10
31706,65971,8
31706,65971,5
31710,65994,8
31703,65937,7
31706,65960,5
31710,65955,8
31708,65946,7
31675,65883,7
31675,65883,10
31714,65860,5
31642,65818,5
31608,65775,10
31597,65721,5
31602,65689,5
31456,65455,10
31456,65455,9
31461,65453,10
31448,65445,5
31456,65407,5
31481,65512,10
31481,65512,5
31501,65520,5
31503,65534,10
31488,65494,5
31524,65573,5
31464,65461,10
31464,65461,5
31472,65439,5
31459,65473,10
31440,65404,5
31438,65391,5
31425,65385,10
31427,65443,5
31444,65415,7
31444,65415,8
31444,65428,5
31444,65453,7
31455,65470,8
31474,65482,5
31512,65499,7
31527,65592,8
31527,65592,5
31528,65596,7
31532,65607,8
31534,65614,5
31548,65640,7
31586,65658,8
31563,65667,5
31560,65679,7
31586,65719,13
31594,65717,7
31579,65709,8
31586,65718,7
31576,65701,5
31573,65693,8
31555,65653,7
31555,65653,5
31558,65646,8
31547,65649,7
31542,65621,5
31531,65593,8
31528,65586,7
31504,65550,10
31504,65550,7
31504,65564,5
31511,65561,8
31470,65552,6
31485,65557,0
31512,65567,2
31510,65568,4
31491,65576,4
31515,65582,5
31529,65579,5
31527,65576,5
31527,65594,4
31527,65586,5
31525,65592,5
31533,65590,5
31522,65584,5
31524,65598,4
31530,65595,5
31517,65598,5
31527,65592,5
31527,65579,5
31522,65585,4
31529,65584,5
31526,65577,5
31523,65576,4
31512,65562,5
31513,65552,4
31505,65550,6
31503,65535,3
31489,65520,5
31484,65498,4
31466,65475,4
31459,65444,5
31443,65410,5
31431,65365,5
31398,65319,4
31379,65291,5
31368,65260,5
31352,65232,5
31345,65203,5
31327,65194,4
31330,65193,5
31328,65191,5
31325,65195,5
31337,65198,5
31334,65215,4
31305,65220,5
31349,65235,5
31353,65243,6
31359,65248,4
31304,65265,4
31365,65273,5
31373,65283,5
31378,65275,5
31313,65237,4
31339,65188,4
31321,65150,5
31292,65121,5
31312,65109,5
31280,65090,4
31280,65080,5
31272,65069,5
31324,65074,5
31270,65079,5
31275,65079,4
31282,65104,5
31345,65117,5
31299,65136,5
31314,65167,5
31330,65199,5
31370,65216,4
31355,65242,5
31358,65269,5
31377,65301,6
31395,65322,3
31409,65351,5
31422,65370,5
31432,65400,5
31446,65383,4
31459,65446,4
31466,65486,5
31485,65505,5
31491,65477,5
31512,65560,4
31524,65581,5
31534,65615,5
31549,65611,5
31555,65654,5
31555,65662,5
31551,65661,4
31553,65692,5
31568,65666,5
31567,65661,5
31567,65662,4
31560,65729,6
31557,65671,4
31559,65666,5
31557,65659,5
31553,65702,6
31552,65648,3
31551,65648,5
31551,65640,5
31554,65664,5
31546,65634,4
31550,65636,5
31542,65628,5
31547,65627,5
31537,65627,4
31547,65637,5
31542,65641,5
31546,65631,5
31543,65651,5
31551,65655,4
31550,65661,5
31555,65664,5
31553,65672,5
31563,65666,5
31568,65680,4
31572,65694,5
31571,65693,6
31577,65699,4
31583,65710,5
31576,65712,4
31584,65719,5
31590,65712,5
31590,65722,5
31594,65720,5
31586,65722,4
31583,65712,5
31586,65700,5
31569,65695,5
31570,65682,4
31565,65667,5
31551,65667,5
31556,65665,5
31559,65660,5
31550,65654,4
31549,65663,5
31557,65672,5
31566,65672,5
31568,65682,5
31568,65701,4
31591,65713,5
31591,65719,5
31598,65747,6
31605,65760,4
31613,65786,4
31624,65805,5
31630,65812,5
31637,65807,5
31621,65777,5
31600,65738,4
31575,65702,5
31560,65671,5
31547,65655,5
31550,65618,4
31527,65608,5
31525,65596,5
31532,65591,5
31523,65594,5
31527,65606,4
31530,65610,5
31540,65631,5
31550,65654,5
31557,65678,5
31578,65707,5
31595,65745,4
31611,65777,5
31636,65807,5
31647,65852,6
31659,65876,3
31682,65918,5
31694,65948,5
31710,65988,5
31725,66001,5
31729,66024,4
31743,66047,5
31759,66061,5
31765,66081,5
31776,66110,4
31787,66126,5
31801,66149,5
31799,66156,5
31801,66159,5
31798,66153,4
31797,66162,5
31800,66168,5
31795,66165,5
31801,66161,5
31815,66153,4
31797,66152,6
31749,66143,4
31785,66117,5
31784,66110,5
31776,66092,4
31705,66076,5
31765,66078,5
31763,66067,5
31770,66073,5
31723,66068,4
31763,66072,5
31769,66075,5
31766,66085,5
31805,66101,4
31775,66108,5
31788,66124,5
31787,66134,5
31872,66163,5
31809,66183,4
31818,66220,5
31845,66247,5
31912,66274,5
31875,66309,5
31889,66331,4
31894,66350,5
31930,66371,6
31918,66391,4
31915,66396,5
31931,66401,4
31933,66387,5
31927,66392,5
31920,66388,5
31927,66398,5
31927,66340,4
31925,66394,5
31918,66389,5
31924,66397,5
31923,66338,4
31933,66415,4
31942,66431,5
31955,66463,5
31975,66474,5
31990,66527,4
32001,66571,5
32019,66596,5
32050,66676,5
32053,66657,5
32067,66690,4
32066,66696,5
32072,66743,5
32043,66627,6
32028,66592,4
32006,66551,4
31996,66568,5
31988,66506,5
31980,66495,5
31964,66488,5
31976,66506,4
31975,66480,5
31974,66503,5
31989,66520,5
31995,66532,4
32001,66558,4
32027,66585,5
32035,66620,5
32055,66659,5
32077,66703,4
32098,66742,5
32126,66798,5
32154,66842,5
32166,66893,5
32204,66929,5
32215,66971,4
32239,67016,5
32259,67047,5
32275,67096,5
32296,67126,4
32320,67166,5
32340,67202,5
32353,67247,5
32367,67271,5
32373,67277,4
32384,67281,5
32377,67271,5
32381,67284,5
32381,67294,4
32376,67276,4
32385,67279,5
32373,67283,5
32366,67259,5
32364,67244,4
32352,67232,5
32346,67206,5
32332,67184,5
32325,67157,5
32305,67134,4
32307,67121,6
32295,67107,4
32291,67104,5
32286,67090,5
32288,67085,4
32286,67080,5
32284,67080,5
32287,67085,5
32287,67087,5
32282,67086,4
32285,67100,5
32285,67106,5
32298,67101,5
32290,67109,4
32296,67106,4
32283,67106,5
32289,67102,5
32292,67095,5
32281,67081,4
32274,67059,5
32264,67043,5
32252,67027,5
32241,66998,5
32229,66977,4
32214,66952,5
32199,66918,6
32185,66901,4
32183,66884,5
32166,66863,4
32174,66863,5
32163,66849,5
32147,66829,5
32145,66818,5
32136,66814,4
32139,66805,5
32134,66802,5
32139,66796,5
32132,66773,4
32110,66731,4
32075,66641,5
32028,66578,5
31996,66516,5
31970,66468,4
31953,66417,5
31938,66389,5
31920,66359,5
31882,66342,5
31900,66325,4
31899,66315,5
31897,66320,5
31850,66315,5
31900,66326,5
31898,66334,4
31901,66337,5
31847,66350,5
31908,66353,5
31913,66365,5
31916,66377,4
31904,66391,5
31925,66392,5
31939,66401,5
31939,66415,4
31992,66431,4
31952,66442,5
31951,66441,5
31954,66451,5
32029,66454,4
31969,66478,5
31981,66500,4
31983,66512,5
32025,66509,5
31981,66506,5
31984,66501,3
31990,66495,5
31991,66497,5
31985,66488,5
31970,66482,4
31974,66472,5
31963,66434,5
31954,66435,5
31944,66417,5
31932,66390,4
31915,66306,5
31908,66336,5
31899,66309,5
31883,66294,4
31872,66211,4
31864,66257,5
31865,66242,5
31850,66235,5
31850,66217,4
31842,66207,5
31831,66193,6
31830,66197,4
31827,66241,5
31822,66175,4
31821,66179,7
31836,66184,3
31826,66244,5
31821,66182,5
31826,66183,4
31817,66190,5
31819,66203,5
31816,66158,5
31804,66150,5
31795,66134,4
31795,66133,5
31775,66089,5
31768,66063,5
31755,66037,9
31740,66012,5
31720,65977,5
31706,65940,5
31698,65928,4
31689,65925,5
31684,65917,5
31679,65905,6
31678,65908,4
31684,65904,4
31679,65904,5
31685,65915,5
31682,65924,5
31696,65931,5
31697,65943,4
31697,65923,5
31679,65899,5
31656,65837,5
31640,65791,5
31620,65759,4
31596,65730,5
31584,65696,5
31576,65664,5
31561,65652,4
31544,65625,4
31540,65615,5
31545,65622,5
31530,65614,5
31536,65616,5
31542,65621,4
31548,65631,5
31544,65628,5
31550,65644,6
31553,65651,3
31557,65660,5
31566,65678,5
31566,65682,5
31574,65694,5
31588,65709,4
31597,65724,5
31600,65740,5
31603,65756,5
31616,65774,5
31619,65791,4
31637,65792,5
31631,65813,5
31639,65814,5
31647,65825,4
31646,65833,4
31641,65838,5
31654,65852,5
31659,65871,5
31677,65894,4
31689,65906,6
31693,65924,4
31700,65931,5
31701,65954,5
31704,65954,6
31706,65962,3
31708,65968,5
31723,65978,5
31710,65963,5
31709,65955,4
31699,65951,5
31705,65966,5
31709,65979,5
31725,65985,5
31727,65983,4
31711,65986,5
31725,66013,5
31767,66080,5
31806,66178,4
31842,66238,4
31852,66257,5
31860,66250,5
31848,66241,5
31846,66247,4
31849,66251,5
31859,66277,6
31881,66325,4
31904,66365,5
31935,66425,4
31933,66479,5
31979,66499,5
32004,66569,5
32049,66667,5
32049,66743,4
32105,66747,5
32116,66756,5
32148,66827,5
32125,66907,5
32206,66940,4
32238,66972,5
32223,66928,5
32178,66845,5
32161,66853,5
32151,66816,4
32137,66797,5
32202,66813,5
32139,66801,5
32121,66771,4
32110,66748,5
32179,66758,5
32126,66793,6
32138,66815,4
32126,66772,4
32141,66749,5
32113,66772,5
32138,66827,5
32165,66847,5
32181,66895,4
32211,66948,5
32226,66998,5
32208,66924,5
32143,66740,5
32059,66587,4
31953,66412,5
31911,66348,5
31909,66307,5
31932,66413,5
31957,66464,4
31991,66524,5
32001,66471,5
31993,66495,5
31960,66434,5
31941,66420,4
31927,66397,5
31891,66298,5
31875,66297,6
31896,66352,3
31954,66540,5
32019,66593,5
32039,66615,5
32040,66604,5
32039,66667,4
32025,66593,5
32024,66591,5
32008,66547,5
31980,66510,5
31969,66479,4
31983,66496,5
31984,66507,5
32010,66578,5
32067,66700,5
32122,66787,4
32165,66876,5
32197,66945,5
32220,66989,5
32220,66982,4
32214,66935,6
32195,66928,4
32208,66926,5
32216,66967,5
32250,67033,4
32278,67066,5
32253,67022,5
32237,66985,5
32185,66873,5
32132,66772,4
32108,66751,5
32125,66791,5
32153,66839,5
32179,66894,5
32203,66913,4
32195,66914,5
32197,66935,5
32209,66944,5
32209,66935,5
32210,66942,4
32218,66961,5
32223,66956,5
32194,66911,5
32182,66888,4
32175,66876,5
32153,66832,6
32129,66778,4
32135,66791,5
32147,66807,4
32135,66803,5
32140,66798,5
32121,66749,5
32094,66701,5
32045,66599,4
31979,66463,5
31933,66399,5
31924,66398,5
31949,66431,5
31964,66455,4
31986,66514,5
32022,66593,5
32090,66702,5
32119,66743,5
32094,66664,4
32051,66603,5
32030,66556,5
32023,66555,5
32006,66541,4
32001,66502,4
31972,66468,5
31979,66488,6
31987,66501,4
31992,66502,4
31987,66475,5
31976,66458,5
31950,66428,5
31936,66382,5
31919,66346,4
31900,66332,5
31897,66300,5
31883,66296,5
31870,66261,5
31877,66250,4
31869,66230,5
31854,66231,5
31858,66229,5
31860,66247,5
31874,66261,4
31867,66271,5
31879,66279,5
31874,66275,5
31871,66270,5
31879,66276,4
31887,66287,5
31877,66295,5
31880,66294,5
31880,66290,4
31880,66289,5
31847,66279,5
31878,66298,5
31883,66308,5
31904,66330,4
31853,66341,5
31923,66372,5
31931,66385,5
31947,66408,5
31899,66414,4
31957,66426,5
31946,66423,5
31955,66423,5
31969,66426,5
31955,66421,4
31942,66413,5
31944,66402,5
31993,66399,5
31930,66389,4
31930,66370,5
31922,66362,4
31969,66330,5
31903,66308,5
31885,66282,4
31863,66261,5
31878,66220,5
31840,66190,5
31828,66165,5
31817,66144,4
31805,66092,5
31789,66093,5
31780,66069,5
31773,66056,5
31766,65999,4
31759,66031,5
31750,66015,5
31739,66000,5
31744,65944,5
31731,65996,4
31737,65982,4
31734,65970,5
31724,65930,5
31724,65956,5
31720,65948,4
31708,65941,6
31711,65973,4
31711,65929,5
31701,65923,4
31704,65923,5
31702,65978,5
31700,65912,5
31698,65897,5
31681,65870,4
31673,65886,5
31647,65800,5
31636,65759,5
31603,65696,5
31583,65672,4
31553,65600,5
31526,65559,5
31508,65523,5
31498,65493,5
31482,65464,4
31473,65456,5
31475,65449,5
31473,65449,5
31479,65449,4
31480,65463,4
31479,65459,5
31484,65480,5
31482,65479,5
31499,65477,4
31502,65501,5
31499,65515,5
31512,65535,5
31520,65517,5
31495,65484,4
31476,65442,5
31456,65403,5
31442,65376,5
31436,65357,5
31419,65344,4
31417,65333,5
31419,65339,5
31412,65337,5
31420,65334,5
31415,65333,5
31426,65356,4
31430,65366,5
31440,65392,5
31451,65415,6
31465,65435,3
31477,65462,5
31488,65495,5
31514,65521,5
31521,65554,4
31531,65582,5
31552,65609,5
31565,65632,5
31581,65662,5
31601,65702,4
31607,65733,5
31631,65771,5
31643,65791,5
31659,65823,5
31665,65840,4
31683,65874,5
31692,65903,5
31705,65928,5
31714,65949,5
31732,65963,4
31736,65970,6
31747,65993,4
31758,66010,5
31758,66017,4
31760,66031,6
31764,66040,3
31770,66024,5
31755,66018,5
31756,66001,4
31745,65995,5
31744,65991,5
31737,65982,5
31739,65975,5
31738,65971,4
31725,65940,5
31708,65911,5
31692,65882,5
31690,65872,5
31680,65860,4
31682,65872,5
31690,65871,5
31698,65889,5
31698,65901,5
31709,65919,4
31726,65947,5
31731,65966,6
31747,66002,4
31759,66027,4
31766,66060,4
31797,66093,5
31807,66126,5
31819,66164,5
31841,66186,4
31861,66218,5
31864,66235,5
31835,66261,5
31888,66280,5
31891,66294,4
31887,66274,5
31819,66267,5
31869,66246,5
31864,66231,5
31870,66231,4
31827,66235,5
31864,66223,5
31868,66230,5
31866,66236,5
31896,66231,4
31870,66214,5
31856,66220,5
31860,66217,6
31918,66230,4
31871,66244,4
31885,66276,5
31901,66307,5
31998,66381,5
31977,66483,4
32027,66578,5
32078,66638,5
32113,66673,5
32104,66693,5
32092,66656,4
32081,66636,5
32063,66596,5
32076,66634,5
32090,66675,5
32109,66694,4
32125,66693,5
32148,66791,5
32175,66850,5
32212,66918,5
32253,66920,5
32285,67051,4
32314,67103,5
32325,67140,5
32356,67185,6
32401,67289,3
32447,67393,5
32498,67499,5
32548,67599,5
32555,67577,7
32570,67603,2
32590,67663,5
32637,67807,5
32689,67806,5
32723,67919,4
32772,68003,5
32789,68120,5
32842,68143,5
32874,68209,5
32906,68272,4
32936,68367,5
32977,68399,5
33011,68486,5
33072,68604,5
33116,68702,4
33169,68774,6
33199,68814,4
33196,68825,5
33202,68815,5
33187,68782,4
33172,68746,5
33158,68722,5
33121,68657,5
33116,68667,4
33133,68696,5
33144,68707,5
33128,68677,5
33132,68689,5
33138,68688,4
33135,68676,5
33105,68628,5
33081,68560,5
33048,68532,5
33044,68516,4
33076,68604,5
33172,68795,5
33275,69007,5
33369,69175,5
33445,69338,4
33526,69468,5
33510,69392,6
33446,69287,4
33426,69254,5
33417,69267,4
33439,69306,5
33461,69350,5
33514,69439,5
33556,69563,4
33609,69684,4
33675,69795,5
33700,69816,5
33676,69740,5
33619,69657,4
33606,69621,5
33591,69597,5
33583,69607,5
33629,69710,5
33726,69918,4
33836,70127,5
33898,70220,5
33906,70212,5
33866,70118,5
33819,70059,4
33828,70076,5
33857,70145,5
33917,70284,6
34006,70438,4
34044,70472,4
33996,70372,5
33925,70228,5
33868,70119,5
33861,70122,4
33872,70164,4
33908,70225,5
33940,70263,5
33935,70241,5
33900,70170,4
33868,70135,5
33885,70187,5
33901,70199,5
33908,70228,5
33923,70252,4
33959,70335,5
33985,70395,5
33988,70378,5
33984,70378,5
34004,70430,5
34032,70474,4
34014,70402,5
33967,70303,5
33925,70230,5
33890,70144,4
33844,70104,5
33873,70159,5
33958,70355,5
34080,70614,4
34162,70758,4
34220,70818,5
34184,70724,5
34056,70571,5
34027,70431,4
33973,70301,5
33915,70191,5
33815,70139,5
33859,70126,5
33868,70121,4
33859,70115,5
33835,70129,5
33870,70136,5
33851,70090,5
33839,70069,4
33892,70089,6
33828,70050,4
33818,70047,5
33838,70076,5
33919,70087,4
33821,70034,5
33791,69934,5
33729,69834,5
33734,69756,4
33659,69713,4
33599,69562,5
33529,69464,5
33560,69493,5
33571,69564,4
33614,69666,5
33688,69794,5
33699,69774,5
33691,69767,5
33669,69714,4
33565,69483,5
33380,69080,5
33309,69019,6
33315,69054,4
33354,69164,4
33418,69217,5
33482,69408,7
33526,69476,3
33530,69460,5
33507,69391,4
33481,69369,5
33442,69247,5
33338,69076,5
33308,69087,4
33326,69076,4
33327,69063,5
33307,69009,5
33277,69020,5
33260,68916,4
33239,68897,5
33206,68811,5
33168,68786,5
33162,68740,5
33169,68748,4
33158,68731,5
33151,68727,5
33148,68721,5
33147,68723,5
33146,68710,4
33128,68671,5
33096,68610,5
33071,68530,5
33029,68461,5
32986,68383,4
32965,68330,5
32943,68294,5
32933,68289,5
32926,68281,4
32927,68298,4
32947,68310,5
32957,68328,5
32962,68349,5
32959,68366,4
32965,68354,5
32951,68328,5
32934,68304,5
32932,68272,5
32925,68271,4
32925,68268,5
32906,68245,5
32901,68226,5
32899,68204,5
32892,68205,5
32897,68203,4
32891,68215,5
32898,68226,5
32897,68223,5
32896,68224,4
32902,68226,5
32895,68228,5
32908,68224,5
32902,68225,5
32899,68224,4
32890,68217,5
32894,68196,5
32876,68181,5
32872,68149,4
32851,68121,5
32830,68081,5
32807,68021,5
32780,67965,5
32755,67917,4
32730,67879,5
32717,67856,5
32700,67808,5
32673,67775,5
32673,67739,4
32657,67719,6
32639,67692,4
32630,67673,5
32612,67662,5
32611,67641,4
32603,67625,5
32597,67622,5
32598,67610,5
32590,67610,5
32593,67603,4
32590,67595,5
32582,67590,5
32577,67582,5
32581,67575,4
32572,67553,4
32558,67539,5
32537,67488,5
32524,67443,5
32493,67397,4
32467,67343,5
32440,67284,5
32420,67243,5
32384,67172,4
32357,67128,4
32341,67094,5
32325,67069,5
32322,67038,5
32311,67037,5
32308,67039,4
32306,67020,5
32299,67022,5
32302,67026,5
32298,67027,5
32292,67034,4
32311,67052,5
32312,67072,5
32324,67077,5
32270,67057,4
32295,66996,4
32280,66950,5
32250,66899,5
32155,66851,5
32195,66815,5
32182,66786,4
32177,66766,5
32130,66745,5
32157,66732,6
32158,66717,3
32146,66721,5
32189,66736,5
32155,66730,5
32155,66748,5
32164,66761,4
32238,66768,5
32178,66789,5
32185,66794,5
32191,66815,5
32257,66824,4
32209,66832,5
32207,66846,5
32218,66866,5
32243,66883,4
32235,66896,4
32243,66905,5
32249,66910,5
32248,66902,5
32267,66942,4
32271,66964,6
32283,66987,4
32286,66949,5
32281,66995,5
32281,66975,6
32288,66980,3
32291,66926,5
32292,66988,5
32284,66999,5
32287,66980,4
32283,66960,5
32272,66969,5
32272,66949,5
32265,66936,5
32250,66966,4
32257,66912,5
32231,66884,5
32224,66852,5
32205,66898,4
32195,66817,4
32195,66796,5
32174,66770,5
32171,66793,5
32158,66732,4
32157,66728,5
32157,66721,6
32142,66727,4
32144,66710,5
32140,66700,4
32148,66705,5
32140,66707,5
32144,66710,5
32145,66704,5
32148,66711,4
32150,66704,5
32136,66701,5
32152,66710,5
32147,66714,5
32144,66716,4
32144,66709,5
32147,66711,5
32143,66711,5
32147,66715,4
32151,66709,4
32144,66715,5
32141,66713,5
32152,66712,5
32143,66703,4
32144,66706,5
32140,66692,5
32132,66668,6
32114,66646,4
32095,66615,4
32073,66558,5
32053,66502,5
32024,66444,5
31983,66393,5
31964,66323,4
31932,66281,5
31906,66222,5
31889,66205,5
31881,66180,5
31878,66181,4
31879,66184,5
31887,66180,5
31892,66196,5
31885,66199,5
31899,66213,4
31898,66230,5
31902,66234,5
31915,66251,5
31918,66274,5
31931,66303,4
31940,66303,5
31935,66282,5
31908,66238,6
31890,66198,3
31866,66168,5
31858,66131,5
31851,66116,5
31837,66110,5
31839,66088,4
31825,66088,5
31825,66088,5
31823,66084,5
31840,66091,5
31836,66091,4
31842,66110,5
31848,66113,5
31861,66142,5
31855,66152,5
31855,66165,4
31877,66185,5
31889,66199,5
31891,66215,5
31906,66230,4
31910,66257,5
31917,66272,4
31930,66285,5
31941,66320,5
31957,66334,4
31957,66353,5
31972,66366,5
31981,66387,5
31997,66411,5
32004,66430,4
32011,66444,5
32022,66460,5
32010,66471,5
32014,66463,5
32023,66468,4
32003,66458,5
32020,66459,5
32008,66447,5
32012,66439,5
31963,66442,4
31998,66440,5
32000,66427,5
32001,66416,5
31935,66411,4
31986,66390,4
31979,66370,6
31976,66359,4
31947,66346,5
31959,66331,4
31942,66309,5
31947,66301,5
31979,66291,5
31928,66271,5
31924,66258,4
31921,66262,5
31979,66252,5
31913,66239,5
31911,66243,5
31903,66238,4
31951,66241,5
31911,66245,5
31912,66239,5
31903,66244,5
31926,66255,4
31912,66238,5
31910,66251,5
31919,66247,5
31922,66228,5
31925,66257,4
31917,66259,5
31920,66264,6
31919,66209,4
31916,66257,5
31918,66255,4
31914,66249,5
31907,66183,5
31908,66236,5
31905,66231,4
31910,66220,5
31893,66207,5
31896,66214,5
31892,66185,5
31882,66169,4
31868,66185,5
31847,66104,5
31833,66055,5
31797,66014,5
31787,66041,4
31760,65923,5
31743,65877,5
31718,65848,5
31702,65853,5
31688,65793,4
31685,65763,5
31683,65763,5
31669,65772,5
31678,65775,4
31681,65776,5
31681,65771,5
31685,65793,5
31694,65801,5
31691,65801,4
31700,65810,5
31706,65822,5
31710,65829,5
31707,65833,5
31703,65818,4
31675,65758,5
31643,65690,5
31626,65630,5
31609,65589,5
31589,65557,4
31571,65526,5
31548,65508,5
31541,65477,5
31538,65470,5
31530,65452,5
31532,65444,4
31520,65448,5
31527,65452,5
31533,65459,4
31539,65477,5
31550,65496,5
31558,65514,5
31559,65526,5
31575,65541,4
31582,65573,5
31593,65581,5
31600,65608,5
31613,65637,5
31621,65662,4
31631,65686,5
31659,65712,5
31673,65745,5
31679,65783,5
31699,65799,4
31718,65830,5
31730,65861,5
31754,65903,5
31768,65922,5
31771,65944,4
31775,65955,6
31775,65956,4
31785,65961,5
31781,65977,4
31785,65973,5
31789,65971,5
31777,65972,5
31776,65973,5
31784,65954,4
31784,65962,5
31779,65951,5
31774,65934,5
31763,65932,5
31772,65928,4
31768,65926,5
31764,65923,5
31765,65923,5
31772,65918,5
31761,65931,4
31766,65932,5
31765,65938,5
31769,65941,5
31772,65943,5
31780,65956,4
31790,65971,5
31786,65976,5
31783,65985,5
31794,65995,4
31801,66010,4
31808,66021,5
31810,66029,5
31815,66037,5
31829,66054,4
31825,66068,5
31832,66069,5
31831,66088,5
31842,66097,5
31844,66101,4
31852,66118,5
31841,66117,5
31858,66128,5
31867,66125,5
31865,66134,4
31810,66135,5
31866,66125,5
31862,66126,5
31857,66111,5
31793,66093,4
31845,66069,5
31829,66057,5
31817,66037,5
31797,66022,4
31799,66011,4
31799,66004,5
31793,65993,5
31835,65983,5
31787,65989,4
31793,66000,5
31799,66003,5
31867,66029,5
31813,66037,5
31815,66049,4
31824,66056,5
31871,66082,5
31846,66093,5
31849,66105,5
31859,66131,4
31878,66132,5
31853,66107,4
31831,66063,5
31815,66031,5
31798,65972,6
31792,65974,3
31775,65960,5
31775,65957,5
31766,65893,4
31771,65938,4
31776,65943,5
31779,65948,5
31772,65913,5
31782,65989,5
31800,66015,4
31811,66041,5
31829,66072,5
31852,66114,5
31869,66151,4
31889,66193,5
31904,66280,5
31924,66267,5
31934,66287,5
31957,66318,4
31967,66425,5
31977,66377,6
31996,66413,4
32005,66437,5
32028,66513,4
32044,66495,5
32050,66509,5
32061,66539,5
32074,66573,4
32090,66590,4
32087,66600,5
32091,66593,5
32088,66589,5
32093,66597,4
32103,66604,5
32092,66607,5
32097,66609,5
32097,66600,5
32091,66589,4
32086,66575,5
32078,66559,5
32071,66549,5
32063,66534,5
32050,66524,4
32050,66503,5
32053,66504,5
32051,66503,6
32046,66501,4
32047,66500,4
32049,66491,5
32049,66505,5
32047,66514,5
32055,66524,5
32055,66527,4
32056,66539,5
32075,66548,5
32074,66574,5
32088,66589,4
32100,66613,5
32114,66632,5
32123,66656,5
32136,66674,5
32148,66691,4
32151,66713,5
32168,66735,5
32174,66740,5
32181,66757,5
32167,66758,5
32174,66755,4
32170,66756,5
32173,66747,5
32174,66737,6
32163,66732,3
32156,66726,5
32170,66722,5
32160,66712,5
32159,66723,5
32166,66734,4
32163,66734,5
32170,66744,5
32171,66766,5
32193,66788,4
32201,66804,5
32209,66822,5
32224,66853,5
32235,66873,5
32247,66907,4
32256,66933,5
32270,66949,5
32277,66942,5
32259,66902,5
32246,66861,4
32215,66812,6
32197,66794,4
32192,66755,5
32167,66728,5
32161,66725,4
32147,66711,5
32156,66698,5
32153,66700,5
32160,66716,5
32161,66727,4
32168,66744,5
32179,66774,5
32201,66789,5
32198,66818,4
32218,66837,4
32232,66850,5
32240,66878,5
32255,66905,5
32274,66945,4
32306,66983,5
32316,67024,5
32325,67084,5
32362,67126,5
32393,67180,4
32419,67213,5
32378,67248,6
32444,67279,4
32474,67321,5
32484,67371,4
32443,67397,5
32504,67409,5
32515,67429,5
32528,67433,5
32528,67459,4
32545,67471,5
32554,67479,5
32555,67484,5
32608,67486,4
32552,67477,4
32557,67488,5
32545,67474,5
32610,67465,5
32539,67448,4
32532,67434,5
32534,67420,5
32558,67421,5
32524,67424,5
32523,67413,4
32529,67422,5
32539,67428,5
32532,67433,6
32529,67439,4
32536,67456,4
32537,67432,5
32553,67479,5
32564,67493,5
32562,67521,5
32580,67485,4
32583,67558,5
32607,67583,5
32616,67601,5
32616,67556,4
32632,67630,5
32631,67632,4
32625,67617,5
32622,67617,5
32616,67600,4
32607,67593,5
32602,67582,5
32602,67623,5
32598,67562,5
32589,67545,5
32585,67540,4
32593,67611,5
32582,67540,5
32586,67540,6
32586,67536,3
32588,67582,5
32583,67550,5
32584,67552,5
32587,67552,5
32595,67567,4
32595,67552,5
32570,67525,5
32552,67476,5
32516,67403,4
32499,67349,4
32477,67304,5
32443,67265,5
32432,67219,5
32409,67191,4
32395,67167,5
32378,67130,5
32376,67119,5
32375,67114,5
32371,67107,4
32362,67112,6
32365,67117,4
32379,67118,5
32374,67123,5
32379,67134,4
32386,67148,5
32386,67159,5
32400,67179,5
32400,67180,5
32406,67207,4
32415,67212,5
32425,67222,5
32441,67224,5
32435,67242,4
32441,67253,4
32442,67271,5
32445,67280,5
32456,67295,5
32456,67303,4
32461,67295,5
32459,67285,5
32444,67273,5
32455,67277,5
32447,67275,4
32449,67266,5
32440,67252,6
32451,67250,4
32424,67228,5
32417,67205,4
32404,67184,5
32388,67147,5
32376,67125,5
32362,67094,5
32335,67055,4
32333,67033,5
32318,67009,5
32306,66986,5
32302,66976,5
32284,66953,4
32278,66944,5
32275,66932,5
32260,66924,5
32262,66917,4
32267,66903,5
32269,66905,5
32272,66916,5
32264,66924,5
32270,66912,4
32267,66915,5
32269,66925,5
32269,66910,6
32266,66913,4
32258,66906,4
32257,66888,5
32250,66875,5
32230,66847,5
32219,66819,5
32204,66795,4
32186,66757,5
32166,66722,5
32148,66680,5
32128,66660,5
32119,66634,4
32114,66615,5
32114,66601,5
32111,66599,5
32112,66606,4
32113,66595,4
32103,66610,4
32109,66611,5
32086,66614,5
32117,66634,5
32125,66639,4
32125,66640,5
32069,66608,5
32088,66567,5
32065,66522,4
32054,66485,5
31967,66442,5
32025,66420,5
31996,66393,5
31989,66371,4
31981,66362,5
31973,66348,5
31969,66346,8
31976,66342,2
32017,66347,4
31977,66351,5
31965,66344,5
31977,66354,5
32059,66361,4
31988,66384,4
31997,66385,5
32001,66390,5
32032,66395,5
32004,66401,4
32012,66422,6
32016,66424,4
32026,66442,5
32023,66455,5
32027,66474,4
32041,66481,5
32052,66466,5
32063,66517,5
32064,66541,5
32077,66563,4
32098,66523,5
32100,66591,5
32100,66598,5
32095,66603,5
32102,66548,4
32103,66606,5
32094,66603,5
32104,66599,5
32096,66607,4
32092,66585,4
32084,66575,5
32082,66567,5
32075,66613,5
32065,66548,4
32061,66525,5
32055,66513,6
32052,66562,4
32037,66488,5
32032,66465,4
32025,66450,5
32011,66466,5
32014,66434,5
32002,66427,5
32004,66417,4
32012,66419,5
32006,66409,5
31997,66406,5
31999,66422,5
32010,66409,4
32002,66415,5
32008,66410,5
31999,66414,5
32004,66421,5
32006,66412,4
32003,66416,5
32004,66431,5
32013,66421,5
32005,66420,3
32008,66424,5
32008,66418,5
32001,66415,5
32004,66408,5
31989,66381,4
31980,66350,5
31956,66310,5
31937,66266,5
31911,66210,5
31894,66155,4
31862,66106,5
31829,66054,5
31811,66015,5
31800,65991,5
31795,65972,4
31783,65982,5
31784,65970,5
31783,65979,5
31779,65972,5
31794,65986,5
31793,65993,4
31794,66006,5
31801,66016,5
31805,66038,6
31826,66054,3
31831,66050,5
31809,66027,5
31793,65983,5
31773,65942,4
31748,65914,5
31745,65874,5
31739,65868,5
31714,65839,5
31714,65815,4
31703,65812,5
31702,65816,5
31707,65807,5
31706,65816,5
31709,65819,4
31719,65829,5
31721,65841,5
31720,65867,5
31728,65881,5
31744,65902,4
31753,65919,6
31764,65944,4
31778,65970,5
31778,65984,4
31787,66007,6
31808,66026,3
31815,66049,5
31833,66075,5
31842,66092,4
31845,66110,5
31864,66130,5
31872,66155,5
31883,66176,5
31887,66196,4
31899,66217,5
31918,66235,5
31916,66242,5
31915,66255,5
31914,66257,4
31921,66261,5
31920,66264,5
31915,66259,5
31922,66257,5
31912,66251,4
31917,66243,5
31917,66237,6
31912,66242,4
31872,66224,4
31901,66214,4
31896,66203,5
31885,66187,5
31828,66180,5
31875,66163,4
31877,66144,5
31859,66133,5
31801,66115,5
31845,66111,5
31846,66101,4
31845,66099,5
31841,66092,5
31837,66091,5
31841,66080,5
31837,66082,4
31886,66087,5
31838,66090,5
31847,66092,5
31844,66097,5
31907,66093,4
31842,66106,5
31850,66099,5
31845,66101,6
31884,66094,3
31846,66106,4
31845,66095,5
31838,66101,5
31844,66089,5
31832,66074,4
31822,66057,5
31813,66032,5
31792,65957,5
31782,65956,5
31762,65916,4
31738,65878,5
31728,65778,5
31702,65806,5
31691,65784,5
31683,65773,4
31679,65706,5
31686,65778,5
31689,65771,5
31686,65785,5
31684,65798,5
31695,65798,4
31707,65807,5
31703,65820,5
31719,65888,6
31721,65856,3
31739,65870,5
31741,65878,5
31726,65927,5
31707,65833,4
31706,65795,5
31685,65769,5
31674,65769,5
31663,65733,5
31662,65716,4
31654,65709,5
31647,65699,5
31646,65691,5
31643,65698,5
31645,65702,4
31656,65704,5
31645,65711,5
31665,65718,5
31665,65723,5
31668,65753,4
31678,65758,6
31690,65786,4
31705,65807,5
31703,65822,5
31714,65839,4
31723,65858,5
31730,65877,5
31742,65894,5
31745,65909,4
31755,65923,4
31760,65949,5
31768,65968,5
31785,65968,5
31793,65982,4
31801,66004,5
31801,66021,5
31822,66032,5
31820,66041,5
31818,66038,4
31817,66044,5
31819,66048,5
31825,66046,5
31812,66048,5
31810,66037,4
31820,66021,5
31807,66024,6
31806,66018,4
31804,66012,5
31792,65995,4
31789,65986,5
31780,65969,5
31770,65951,5
31764,65939,4
31763,65917,4
31745,65905,5
31741,65887,5
31735,65880,5
31739,65870,4
31729,65870,5
31733,65864,5
31733,65867,5
31722,65865,5
31723,65864,4
31721,65861,5
31728,65861,5
31731,65866,5
31736,65863,5
31738,65858,4
31735,65852,5
31733,65866,5
31723,65857,6
31733,65866,4
31722,65865,4
31730,65862,5
31734,65865,5
31732,65872,5
31738,65880,5
31739,65869,4
31740,65870,5
31733,65867,5
31745,65872,5
31743,65891,4
31731,65881,5
31739,65877,5
31736,65881,5
31734,65862,5
31724,65864,4
31730,65850,5
31706,65829,5
31709,65809,5
31683,65775,5
31675,65748,5
31667,65722,4
31651,65692,5
31635,65667,5
31629,65657,5
31602,65641,4
31612,65641,5
31623,65632,5
31625,65630,5
31586,65644,5
31632,65646,4
31627,65668,5
31638,65676,5
31581,65685,5
31643,65687,4
31663,65710,4
31666,65721,5
31668,65740,5
31671,65727,5
31651,65690,4
31638,65663,5
31677,65632,5
31612,65609,5
31603,65607,5
31600,65582,4
31654,65580,6
31600,65587,4
31597,65577,5
31591,65587,5
31626,65604,4
31605,65619,5
31621,65646,5
31638,65674,5
31658,65708,5
31674,65752,4
31693,65800,5
31711,65852,5
31753,65879,5
31775,65969,4
31804,66026,4
31832,66074,5
31861,66098,5
31892,66214,5
31927,66269,4
31961,66333,5
31979,66330,5
32009,66433,6
32025,66491,4
32054,66532,4
32073,66578,5
32101,66616,7
32123,66677,3
32149,66710,5
32166,66809,4
32188,66773,5
32202,66817,5
32214,66839,5
32221,66930,5
32233,66864,4
32229,66868,5
32236,66870,5
32239,66922,5
32239,66875,4
32236,66893,4
32246,66883,5
32251,66924,5
32267,66935,5
32281,66969,4
32309,67011,5
32325,67063,5
32350,67097,5
32357,67120,5
32369,67140,4
32369,67141,5
32388,67151,5
32376,67169,5
32383,67189,5
32403,67204,4
32428,67235,5
32438,67293,5
32454,67316,5
32463,67343,5
32485,67382,4
32511,67425,5
32534,67462,5
32538,67458,5
32538,67474,5
32540,67474,4
32551,67491,5
32558,67507,5
32577,67550,5
32594,67594,4
32611,67614,5
32622,67632,5
32623,67649,5
32626,67644,5
32629,67653,5
32620,67641,4
32629,67646,5
32633,67639,5
32628,67650,5
32638,67667,4
32653,67706,5
32678,67757,5
32712,67816,5
32723,67856,5
32730,67856,4
32732,67865,5
32739,67875,5
32739,67894,5
32750,67922,5
32767,67953,4
32807,68030,5
32881,68181,5
32950,68316,5
32996,68381,4
33002,68391,4
32989,68353,5
32959,68319,4
32955,68303,5
32933,68260,4
32936,68259,6
32938,68275,3
32936,68274,5
32939,68260,5
32929,68258,4
32931,68255,5
32931,68267,5
32941,68278,5
32954,68308,5
32959,68337,4
32990,68381,5
33007,68415,5
33019,68451,5
33034,68481,5
33062,68519,4
33072,68535,5
33070,68541,5
33068,68518,5
33068,68538,4
33079,68556,4
33096,68588,5
33112,68613,6
33125,68650,4
33156,68711,4
33176,68759,5
33197,68784,5
33203,68793,7
33198,68813,3
33214,68812,4
33197,68826,5
33214,68825,5
33217,68814,5
33204,68800,5
33147,68789,4
33191,68767,5
33187,68769,5
33182,68741,5
33111,68723,5
33164,68713,4
33154,68689,5
33136,68662,5
33136,68620,5
33101,68596,5
33090,68554,4
33078,68536,5
33118,68516,5
33064,68503,6
33046,68486,3
33048,68469,5
33108,68465,5
33033,68453,5
33025,68459,5
33022,68446,4
33057,68445,5
33035,68454,5
33030,68460,5
33035,68466,5
33048,68464,4
33025,68466,5
33033,68463,5
33023,68442,5
33028,68394,5
33006,68408,4
33007,68400,5
32999,68376,5
32994,68308,5
32978,68355,5
32979,68366,5
32984,68363,4
32985,68314,5
32994,68382,5
33008,68402,6
33003,68406,3
33008,68442,5
33007,68434,5
33024,68437,5
33036,68450,4
33030,68517,5
33030,68459,5
33033,68482,5
33042,68479,5
33036,68512,4
33018,68399,5
32993,68349,5
32961,68309,5
32939,68290,5
32920,68240,4
32913,68204,5
32901,68189,5
32891,68178,5
32889,68160,5
32884,68154,4
32887,68159,6
32884,68164,4
32887,68179,5
32898,68190,4
32907,68211,4
32910,68226,5
32925,68245,5
32937,68267,5
32954,68282,4
32954,68310,5
32968,68330,5
32980,68364,5
32994,68378,5
33001,68409,4
33020,68429,5
33031,68453,5
33036,68470,5
33052,68488,5
33068,68516,4
33087,68562,5
33092,68575,5
33101,68586,5
33102,68599,5
33112,68594,4
33108,68602,5
33112,68611,6
33104,68612,4
33108,68603,4
33109,68596,4
33101,68574,5
33088,68568,5
33085,68542,5
33081,68521,4
33066,68506,5
33066,68480,5
33045,68460,5
33031,68440,5
33028,68432,4
33015,68423,5
33010,68417,5
33011,68394,5
33003,68392,5
33013,68380,4
33003,68387,5
32995,68377,5
32996,68384,5
32995,68383,5
32998,68387,4
33000,68390,5
32996,68397,5
33004,68399,6
33011,68402,3
33004,68396,4
33007,68392,5
33000,68384,5
32992,68367,5
32983,68345,4
32970,68305,5
32949,68277,5
32933,68248,5
32919,68210,5
32899,68185,4
32885,68144,5
32875,68117,5
32858,68112,5
32839,68075,5
32844,68058,4
32834,68043,5
32826,68026,5
32818,68008,5
32811,67999,5
32803,68000,5
32807,67993,4
32801,67992,5
32810,67984,5
32785,67940,5
32741,67855,4
32701,67792,5
32677,67732,5
32650,67677,5
32630,67630,4
32605,67592,5
32566,67554,5
32574,67526,5
32558,67500,5
32553,67491,4
32497,67478,5
32548,67469,5
32540,67479,5
32549,67481,5
32485,67483,4
32557,67486,5
32552,67501,5
32563,67510,5
32572,67509,5
32567,67516,4
32570,67522,6
32571,67524,4
32627,67534,5
32578,67545,5
32580,67558,4
32586,67563,5
32667,67582,5
32609,67589,5
32607,67603,4
32618,67623,4
32655,67633,5
32626,67630,5
32616,67620,5
32617,67621,4
32636,67627,5
32634,67616,5
32615,67608,5
32609,67603,5
32603,67559,4
32591,67582,5
32587,67562,5
32586,67543,5
32574,67457,5
32554,67484,4
32543,67459,4
32534,67419,6
32511,67334,4
32498,67373,5
32478,67347,4
32473,67327,5
32470,67333,5
32456,67301,5
32453,67280,4
32448,67284,4
32450,67329,5
32445,67270,5
32443,67258,5
32436,67255,4
32427,67323,5
32439,67258,5
32439,67262,5
32435,67258,5
32432,67278,4
32437,67250,5
32435,67255,5
32444,67260,5
32438,67260,5
32437,67260,4
32436,67253,5
32431,67249,5
32440,67259,6
32439,67263,4
32432,67258,4
32435,67263,5
32429,67255,5
32429,67243,5
32422,67224,4
32414,67200,4
32390,67170,5
32372,67113,5
32341,67049,5
32308,66977,4
32270,66909,5
32232,66848,5
32191,66771,5
32160,66713,5
32142,66676,4
32132,66639,5
32117,66619,5
32109,66612,5
32125,66608,5
32113,66629,5
32121,66635,4
32133,66646,5
32128,66656,5
32143,66666,5
32151,66691,4
32153,66719,5
32164,66721,5
32155,66703,5
32137,66654,5
32115,66600,4
32084,66553,5
32075,66522,5
32053,66490,5
32033,66449,4
32017,66425,5
32001,66396,5
31995,66381,5
31978,66377,5
31979,66364,4
31984,66365,5
31979,66386,5
31990,66383,5
31999,66395,5
32006,66401,4
32006,66427,6
32017,66431,4
32021,66447,5
32026,66452,5
32038,66472,4
32050,66501,5
32044,66513,5
32066,66524,5
32069,66539,5
32076,66556,4
32089,66576,5
32095,66586,5
32100,66592,5
32107,66619,4
32111,66628,5
32125,66650,5
32126,66664,5
32135,66669,5
32139,66677,4
32149,66673,5
32139,66681,5
32145,66681,5
32144,66673,5
32143,66674,4
32128,66667,5
32132,66668,6
32134,66657,4
32122,66638,5
32119,66630,4
32119,66616,5
32107,66610,5
32095,66577,5
32083,66572,5
32078,66548,4
32066,66525,5
32028,66513,5
32047,66502,5
32042,66471,4
32029,66464,4
31973,66463,5
32020,66444,5
32021,66426,5
32019,66430,4
31962,66416,5
32005,66421,5
32005,66413,5
32009,66411,5
32019,66411,4
32014,66404,5
32009,66412,5
32011,66411,5
32071,66426,5
32004,66420,4
32004,66420,5
32004,66416,5
32069,66419,5
32013,66426,5
32014,66422,4
32010,66426,5
32029,66413,5
32006,66421,5
32005,66397,4
31999,66396,4
31993,66374,5
31977,66337,5
31946,66299,5
31931,66244,4
31904,66154,5
31881,66130,4
31852,66072,5
31818,66030,5
31798,65942,6
31786,65967,3
31774,65946,5
31766,65936,5
31772,65886,5
31770,65946,5
31773,65949,4
31774,65959,5
31785,65998,5
31791,65984,5
31797,65989,4
31799,66011,5
31816,66087,5
31827,66040,5
31825,66051,4
31819,66033,4
31791,66038,5
31774,65935,5
31748,65896,5
31741,65873,4
31729,65864,5
31711,65821,6
31706,65806,4
31701,65788,5
31699,65793,4
31697,65785,7
31697,65784,3
31695,65799,5
31706,65808,5
31708,65826,4
31722,65844,5
31730,65868,5
31743,65886,5
31754,65921,5
31769,65941,4
31782,65965,5
31781,65980,5
31797,65989,5
31796,66012,5
31816,66030,4
31817,66053,5
31832,66076,5
31841,66089,5
31847,66107,4
31853,66131,4
31862,66135,5
31871,66146,6
31884,66172,4
31888,66179,4
31889,66196,5
31886,66188,5
31894,66191,5
31895,66184,5
31901,66184,4
31884,66187,5
31895,66181,5
31891,66180,5
31885,66179,5
31879,66179,4
31880,66170,5
31879,66159,5
31872,66144,5
31870,66130,5
31852,66111,4
31844,66096,5
31834,66083,5
31832,66067,5
31820,66049,5
31822,66046,4
31818,66033,5
31818,66021,5
31811,66012,6
31808,66019,3
31804,66016,5
31799,66010,5
31801,66005,5
31801,66016,5
31806,66026,4
31802,66026,5
31816,66026,5
31810,66032,5
31810,66036,5
31819,66032,4
31814,66046,5
31814,66039,5
31819,66044,5
31820,66050,5
31812,66038,4
31819,66038,9
31816,66040,1
31819,66041,5
31824,66047,4
31821,66038,5
31815,66036,4
31821,66046,5
31816,66040,5
31822,66034,6
31810,66045,3
31814,66038,5
31808,66031,5
31808,66018,5
31796,66002,4
31792,65993,5
31779,65974,5
31770,65943,5
31750,65899,5
31730,65867,4
31719,65817,5
31702,65785,5
31647,65745,5
31649,65697,5
31643,65669,4
31625,65642,5
31561,65641,5
31613,65631,5
31611,65627,5
31617,65627,4
31556,65630,6
31623,65640,4
31623,65659,5
31626,65672,4
31642,65676,5
31642,65690,5
31640,65695,5
31652,65711,5
31710,65712,4
31654,65711,5
31645,65685,5
31623,65632,5
31658,65567,5
31570,65526,4
31554,65490,5
31543,65458,5
31552,65433,5
31503,65414,5
31494,65392,4
31495,65381,5
31499,65373,5
31488,65377,5
31500,65381,5
31497,65394,4
31510,65380,5
31511,65435,6
31525,65443,4
31540,65477,4
31533,65433,4
31557,65510,5
31564,65530,5
31573,65553,5
31591,65518,4
31596,65605,5
31605,65630,4
31614,65639,5
31625,65669,5
31631,65674,4
31635,65681,5
31642,65696,5
31652,65775,5
31658,65727,5
31665,65743,4
31679,65752,5
31679,65812,5
31676,65749,5
31675,65743,5
31663,65732,4
31663,65762,5
31672,65728,5
31664,65718,6
31664,65721,3
31654,65712,4
31652,65705,5
31640,65682,5
31633,65671,5
31629,65649,4
31623,65623,5
31612,65610,5
31602,65605,5
31590,65580,5
31588,65563,4
31586,65550,5
31578,65539,5
31568,65533,5
31564,65534,5
31565,65527,4
31568,65526,5
31561,65538,5
31564,65522,5
31569,65529,5
31566,65530,5
31575,65539,4
31571,65552,5
31581,65543,5
31573,65552,4
31577,65560,4
31589,65555,5
31579,65559,5
31585,65564,5
31588,65571,4
31592,65590,5
31595,65600,5
31594,65599,5
31609,65607,5
31608,65623,4
31624,65630,5
31624,65632,5
31628,65639,5
31628,65631,5
31625,65632,4
31622,65624,5
31612,65601,5
31598,65587,5
31591,65579,5
31582,65562,4
31573,65536,6
31570,65523,4
31560,65516,5
31553,65512,5
31556,65523,4
31569,65530,5
31572,65540,5
31580,65558,5
31596,65580,4
31600,65608,4
31612,65624,5
31624,65654,5
31635,65681,5
31650,65693,4
31659,65724,5
31681,65748,5
31681,65774,5
31689,65761,5
31679,65740,4
31657,65706,5
31642,65664,5
31624,65648,5
31628,65636,5
31609,65621,4
31613,65618,5
31614,65621,6
31615,65617,4
31617,65631,5
31618,65646,4
31636,65656,5
31635,65665,5
31644,65687,5
31656,65723,4
31676,65755,4
31697,65798,5
31714,65831,5
31732,65868,5
31743,65912,4
31771,65942,5
31789,65974,5
31798,66013,5
31784,66045,5
31821,66060,5
31846,66093,4
31855,66114,5
31815,66137,5
31869,66149,5
31881,66167,4
31891,66191,5
31843,66217,5
31914,66222,5
31912,66227,5
31915,66220,4
31915,66228,5
31917,66235,5
31922,66236,5
31917,66233,4
31964,66221,4
31916,66222,5
31910,66223,5
31914,66216,5
31971,66215,4
31904,66203,5
31895,66184,5
31894,66174,5
31927,66172,5
31884,66172,4
31884,66170,5
31881,66171,5
31884,66162,5
31873,66165,5
31882,66178,5
31888,66174,4
31889,66156,5
31890,66183,5
31895,66199,5
31901,66213,4
31912,66177,5
31922,66244,5
31929,66259,5
31938,66273,5
31937,66226,4
31955,66314,5
31953,66327,5
31982,66335,5
31977,66356,4
31980,66365,5
31985,66369,5
31980,66364,5
31978,66406,5
31980,66337,4
31975,66345,5
31975,66339,5
31968,66389,5
31963,66305,5
31957,66311,4
31960,66304,6
31951,66334,4
31961,66311,5
31956,66323,5
31971,66335,4
31975,66358,5
31984,66363,5
31987,66375,5
31995,66382,5
32001,66409,4
32004,66416,5
32016,66431,5
32011,66436,5
32010,66420,4
32000,66375,4
31974,66334,5
31957,66283,5
31934,66254,5
31923,66236,4
31918,66206,5
31908,66201,5
31908,66199,5
31894,66195,4
31900,66197,4
31899,66211,5
31913,66225,5
31920,66252,5
31930,66283,5
31964,66305,4
31974,66341,5
31999,66385,5
32006,66417,5
32031,66449,5
32050,66508,4
32066,66544,5
32089,66572,5
32110,66613,5
32138,66642,4
32154,66673,4
32160,66718,5
32172,66745,5
32189,66768,5
32207,66792,5
32212,66821,4
32236,66852,5
32246,66879,5
32253,66893,6
32254,66901,3
32263,66906,5
32269,66918,5
32259,66917,5
32263,66906,5
32272,66907,4
32265,66899,5
32254,66895,5
32256,66879,5
32253,66871,5
32244,66855,4
32238,66844,5
32225,66827,5
32225,66802,5
32219,66796,4
32208,66796,4
32207,66799,5
32212,66798,5
32215,66798,5
32214,66811,4
32218,66822,6
32233,66831,4
32238,66843,5
32248,66857,5
32253,66874,6
32261,66901,3
32266,66922,5
32280,66949,5
32294,66971,5
32298,66981,4
32311,66999,5
32312,67009,5
32320,67013,5
32316,67010,5
32306,67003,4
32327,67010,5
32317,66998,5
32312,67002,5
32321,67004,4
32312,67003,4
32318,67008,5
32318,67019,5
32325,67024,5
32315,67040,4
32350,67055,5
32361,67093,6
32366,67109,4
32335,67145,5
32403,67167,4
32406,67191,5
32422,67228,5
32373,67256,5
32435,67239,5
32428,67216,4
32404,67174,5
32378,67140,5
32369,67102,5
32362,67083,5
32360,67062,4
32392,67055,5
32343,67056,5
32340,67061,5
32352,67058,5
32426,67078,4
32365,67092,5
32375,67121,5
32383,67135,5
32442,67172,4
32412,67211,5
32444,67233,5
32458,67264,6
32480,67302,4
32487,67350,4
32515,67401,5
32530,67437,5
32561,67452,5
32579,67516,5
32589,67554,4
32611,67583,5
32625,67571,5
32649,67653,5
32659,67678,5
32679,67729,4
32697,67696,5
32711,67784,5
32725,67797,5
32722,67798,5
32728,67820,4
32740,67809,5
32741,67810,5
32740,67826,5
32743,67870,5
32731,67809,4
32730,67795,5
32722,67783,5
32712,67844,6
32702,67749,3
32699,67733,5
32670,67707,5
32661,67717,5
32667,67668,5
32652,67661,4
32644,67643,5
32644,67649,5
32636,67621,5
32634,67616,5
32620,67593,4
32624,67591,5
32629,67588,5
32624,67591,5
32619,67587,5
32621,67582,4
32618,67597,5
32623,67589,5
32620,67592,5
32617,67583,4
32616,67579,5
32607,67573,4
32601,67551,5
32595,67519,5
32570,67490,4
32559,67456,5
32541,67426,5
32522,67399,5
32514,67367,5
32497,67338,4
32491,67318,5
32479,67299,5
32465,67285,5
32466,67281,5
32462,67274,4
32455,67270,5
32455,67268,5
32451,67269,5
32461,67272,5
32455,67275,4
32464,67281,5
32461,67261,5
32439,67215,5
32411,67152,4
32378,67091,4
32348,67048,6
32329,67008,4
32311,66971,5
32299,66925,4
32280,66898,5
32261,66884,5
32244,66854,5
32245,66846,5
32236,66839,4
32250,66842,8
32245,66843,2
32243,66849,5
32251,66855,5
32245,66867,4
32255,66875,5
32267,66883,5
32264,66896,5
32274,66899,5
32270,66917,4
32280,66930,5
32284,66943,5
32297,66950,5
32308,66972,4
32310,66974,4
32316,66993,5
32318,67004,6
32329,67017,4
32336,67041,4
32353,67068,5
32351,67067,5
32359,67063,5
32360,67071,5
32361,67065,4
32354,67075,5
32348,67069,5
32351,67064,5
32344,67056,5
32343,67038,4
32335,67031,5
32331,67013,5
32318,66998,5
32318,66975,5
32299,66952,4
32293,66943,5
32278,66918,5
32272,66899,5
32259,66879,5
32239,66863,4
32246,66852,5
32242,66834,5
32231,66818,5
32186,66813,4
32223,66807,5
32215,66791,5
32217,66794,5
32155,66794,5
32216,66793,4
32209,66787,5
32214,66793,5
32195,66796,5
32210,66788,5
32214,66797,4
32223,66781,5
32254,66788,5
32220,66781,5
32207,66772,5
32197,66755,4
32242,66724,5
32161,66671,5
32144,66641,5
32123,66597,5
32142,66547,5
32079,66499,4
32048,66453,5
32026,66416,5
32029,66386,4
32001,66376,4
32002,66379,5
32005,66375,5
32003,66346,5
32003,66383,4
32002,66387,5
32016,66395,5
32018,66353,5
32029,66425,5
32042,66448,4
32051,66463,5
32044,66409,5
32044,66447,5
32018,66396,5
31998,66370,4
31989,66327,5
31971,66296,6
31949,66268,4
31941,66237,5
31923,66259,4
31908,66180,7
31900,66161,3
31900,66154,5
31895,66224,4
31899,66160,4
31904,66173,5
31905,66184,5
31906,66221,5
31915,66200,4
31919,66209,5
31932,66231,5
31938,66257,5
31939,66251,5
31951,66272,4
31960,66282,5
31968,66298,5
31967,66307,5
31975,66319,5
31983,66336,4
31982,66353,5
31994,66372,5
32000,66383,5
32016,66395,5
32025,66414,4
32039,66439,5
32044,66455,5
32036,66450,5
32049,66456,4
32045,66464,4
32061,66467,5
32048,66469,5
32046,66469,5
32039,66456,4
32050,66444,5
32039,66435,5
32036,66431,5
32031,66410,5
32017,66393,4
32013,66374,5
31998,66357,5
31986,66339,5
31979,66318,5
31965,66302,4
31961,66290,5
31951,66265,5
31944,66261,5
31942,66250,5
31940,66239,4
31930,66235,5
31935,66237,5
31925,66227,5
31934,66238,4
31940,66225,4
31941,66240,5
31939,66237,5
31932,66229,5
31942,66239,4
31937,66245,5
31936,66248,5
31931,66240,5
31937,66234,5
31937,66247,4
31937,66246,5
31934,66239,5
31939,66237,5
31935,66245,5
31945,66235,4
31929,66223,5
31930,66228,4
31927,66212,5
31913,66189,5
31895,66145,6
31878,66103,3
31839,66043,5
31810,65988,5
31777,65917,5
31743,65847,4
31710,65787,5
31685,65745,5
31671,65701,5
31648,65690,4
31658,65678,5
31651,65668,5
31647,65682,5
31659,65687,5
31660,65701,4
31671,65720,5
31675,65726,5
31685,65750,5
31684,65768,5
31701,65795,4
31713,65820,5
31726,65845,6
31729,65839,4
31725,65818,5
31705,65782,4
31675,65744,7
31673,65717,3
31663,65679,5
31644,65663,5
31595,65657,4
31630,65639,5
31630,65634,5
31631,65632,5
31569,65630,4
31633,65644,4
31633,65651,5
31637,65658,5
31639,65668,5
31654,65688,4
31663,65710,5
31672,65735,5
31732,65749,5
31684,65759,5
31704,65773,4
31711,65804,5
31782,65822,5
31726,65843,6
31746,65865,4
31742,65882,4
31801,65907,5
31779,65926,5
31770,65928,5
31779,65943,5
31786,65957,4
31787,65964,5
31800,65981,5
31813,66004,5
31817,65977,4
31816,66012,4
31814,66013,5
31815,66018,5
31813,65962,5
31819,66019,5
31815,66013,4
31819,66017,5
31819,65947,5
31811,66011,5
31806,65996,5
31811,65990,4
31797,65987,5
31787,65975,5
31789,65957,6
31784,65950,3
31781,65986,5
31763,65917,5
31766,65904,5
31768,65900,5
31761,65955,4
31762,65881,5
31743,65874,5
31739,65864,5
31743,65903,4
31742,65879,4
31748,65878,5
31745,65877,5
31753,65891,5
31757,65889,4
31753,65896,5
31763,65902,5
31761,65899,5
31761,65899,5
31765,65911,4
31768,65904,6
31766,65902,4
31760,65912,5
31767,65900,5
31769,65912,6
31767,65906,3
31770,65912,5
31770,65907,5
31768,65909,5
31766,65917,4
31771,65902,5
31749,65893,5
31744,65864,5
31729,65828,5
31713,65801,4
31700,65771,5
31682,65731,5
31659,65710,5
31646,65679,4
31638,65648,5
31630,65638,5
31624,65629,5
31624,65631,5
31619,65630,4
31627,65639,5
31631,65649,6
31635,65666,4
31650,65672,5
31657,65691,4
31658,65710,5
31678,65724,5
31683,65751,5
31688,65775,5
31705,65801,4
31710,65797,5
31700,65781,5
31680,65726,5
31663,65693,5
31663,65696,4
31649,65686,5
31653,65680,5
31654,65684,5
31658,65672,4
31649,65678,4
31642,65671,5
31651,65685,5
31668,65693,5
31668,65730,4
31687,65753,5
31700,65780,5
31718,65827,6
31737,65857,4
31745,65895,4
31771,65946,5
31796,65991,5
31831,66039,5
31853,66081,5
31860,66118,4
31879,66131,5
31884,66151,5
31886,66175,5
31911,66211,5
31924,66242,4
31941,66275,5
31972,66326,5
31985,66358,5
32003,66404,4
32033,66453,4
32059,66494,5
32064,66518,5
32080,66540,5
32087,66539,5
32089,66536,4
32081,66521,5
32070,66509,5
32058,66500,6
32064,66494,3
32061,66488,5
32031,66487,5
32053,66468,5
32049,66449,5
32035,66440,4
31973,66415,5
32015,66397,5
32002,66378,5
32003,66350,5
31932,66350,4
31986,66359,5
31983,66347,5
31985,66337,5
31988,66347,4
31983,66332,4
31982,66333,5
31980,66332,5
32026,66325,5
31977,66338,4
31983,66360,6
32009,66389,4
32083,66408,5
32017,66412,5
32014,66399,4
32007,66398,5
32046,66404,5
32016,66427,5
32026,66451,5
32045,66471,4
32066,66471,5
32056,66489,5
32064,66505,5
32062,66507,5
32066,66494,4
32093,66546,5
32105,66577,5
32104,66574,5
32095,66516,4
32095,66565,4
32086,66558,5
32094,66543,5
32070,66459,5
32047,66474,5
32031,66455,4
32040,66465,6
32046,66507,4
32064,66514,5
32054,66510,4
32067,66504,5
32069,66594,5
32088,66571,5
32105,66614,5
32153,66690,4
32210,66894,5
32275,66967,5
32323,67041,5
32338,67061,5
32337,67071,4
32343,67060,5
32349,67075,5
32368,67133,5
32403,67201,5
32436,67235,4
32431,67245,5
32428,67231,5
32401,67170,5
32379,67108,4
32362,67077,5
32372,67116,5
32406,67161,6
32431,67241,4
32468,67306,4
32495,67377,5
32536,67435,5
32558,67483,5
32554,67451,5
32527,67415,4
32535,67429,5
32561,67492,5
32607,67591,5
32704,67778,5
32811,67984,4
32885,68119,5
32916,68198,5
32941,68247,5
32953,68253,4
32939,68205,4
32913,68179,5
32924,68187,5
32922,68198,5
32925,68178,10
32925,68178,4
32907,68165,5
32905,68140,5
32899,68152,4
32898,68140,5
32894,68121,5
32890,68096,5
32870,68070,5
32844,68018,4
32804,67935,5
32762,67873,5
32735,67803,5
32712,67754,5
32679,67706,4
32663,67654,5
32641,67618,5
32619,67591,5
32604,67568,5
32593,67544,4
32588,67537,5
32584,67530,5
32585,67538,5
32584,67541,4
32582,67544,6
32585,67544,4
32596,67545,5
32590,67542,5
32587,67530,4
32589,67526,5
32586,67523,5
32582,67529,5
32583,67527,5
32576,67515,4
32578,67506,5
32572,67492,5
32556,67483,5
32546,67463,5
32546,67444,4
32528,67425,5
32525,67401,5
32524,67394,5
32520,67387,5
32510,67379,4
32508,67376,5
32509,67377,5
32517,67385,5
32510,67392,4
32514,67397,4
32519,67398,6
32532,67416,4
32534,67421,5
32538,67434,4
32499,67457,5
32553,67452,5
32541,67462,5
32535,67435,5
32460,67372,4
32483,67313,5
32455,67252,5
32425,67209,5
32375,67189,5
32399,67160,4
32402,67148,5
32390,67129,5
32410,67124,5
32387,67134,5
32394,67136,4
32398,67157,5
32478,67177,5
32416,67200,5
32436,67223,4
32441,67258,4
32513,67277,5
32481,67317,5
32480,67329,5
32498,67360,4
32528,67383,5
32517,67403,5
32525,67426,5
32546,67439,5
32555,67456,4
32567,67485,5
32568,67505,5
32583,67535,5
32602,67509,5
32606,67596,4
32630,67613,5
32631,67628,5
32631,67565,5
32632,67637,5
32650,67638,5
32641,67645,4
32648,67611,5
32635,67648,5
32643,67638,6
32647,67643,3
32637,67669,5
32638,67612,5
32629,67594,5
32606,67560,4
32599,67618,5
32595,67538,5
32595,67536,5
32585,67534,5
32587,67579,4
32586,67521,5
32595,67533,5
32594,67535,5
32592,67568,5
32599,67559,4
32601,67573,5
32614,67591,5
32616,67601,5
32634,67615,5
32644,67636,4
32649,67662,6
32659,67670,4
32666,67695,5
32675,67704,4
32690,67711,6
32686,67728,3
32689,67729,5
32690,67732,5
32686,67721,4
32682,67724,5
32685,67720,5
32683,67698,5
32669,67698,5
32669,67708,4
32678,67701,5
32684,67690,5
32677,67704,5
32679,67707,5
32679,67714,4
32693,67733,5
32692,67748,5
32702,67765,5
32716,67778,5
32722,67809,4
32730,67826,5
32749,67843,6
32761,67862,4
32754,67855,4
32737,67811,4
32709,67756,5
32696,67712,5
32671,67685,5
32657,67656,4
32637,67627,5
32625,67614,5
32626,67586,5
32611,67585,5
32613,67584,4
32608,67581,5
32616,67583,5
32622,67609,5
32630,67618,5
32646,67640,4
32648,67671,5
32673,67698,5
32678,67733,5
32698,67756,5
32716,67777,4
32723,67809,5
32735,67831,5
32745,67848,6
32759,67880,4
32769,67898,4
32789,67925,5
32792,67949,5
32806,67970,5
32816,67996,4
32836,68024,5
32854,68049,5
32861,68061,5
32860,68051,5
32849,68061,4
32850,68064,5
32859,68065,5
32853,68064,5
32854,68046,5
32851,68044,4
32844,68033,5
32836,68000,5
32827,67991,5
32816,67972,5
32802,67930,5
32797,67907,4
32765,67877,5
32753,67846,5
32747,67816,6
32733,67799,3
32712,67770,5
32698,67759,5
32706,67748,5
32696,67738,4
32690,67724,4
32640,67703,5
32681,67706,5
32680,67700,5
32675,67701,4
32611,67693,5
32687,67700,5
32676,67706,5
32668,67703,5
32649,67700,4
32670,67698,5
32675,67686,5
32665,67678,5
32689,67645,5
32630,67609,4
32619,67571,6
32601,67528,4
32643,67493,5
32555,67449,5
32538,67400,4
32515,67372,5
32553,67345,5
32490,67323,5
32481,67303,4
32473,67288,4
32498,67283,5
32460,67286,5
32468,67283,5
32458,67278,4
32464,67259,5
32479,67293,5
32475,67306,5
32481,67329,5
32477,67260,4
32474,67273,5
32444,67230,5
32415,67172,5
32397,67078,5
32377,67088,4
32349,67052,5
32340,67023,6
32329,66974,4
32314,66973,5
32304,66956,4
32300,66941,5
32299,66993,5
32300,66946,5
32301,66954,4
32300,66960,4
32310,67043,5
32312,66983,5
32325,67000,5
32331,67008,4
32334,67061,5
32332,67033,5
32352,67048,5
32348,67048,5
32350,67093,4
32364,67082,5
32373,67082,5
32372,67107,5
32385,67125,5
32396,67133,4
32391,67150,5
32406,67171,5
32423,67182,6
32429,67198,4
32428,67197,4
32419,67194,5
32418,67199,5
32431,67204,5
32428,67204,4
32436,67210,4
32432,67201,5
32426,67204,5
32424,67198,5
32420,67192,4
32420,67184,5
32409,67183,5
32404,67154,5
32404,67152,5
32397,67135,4
32391,67138,5
32382,67124,5
32382,67127,5
32389,67113,5
32386,67119,5
32387,67120,4
32386,67122,5
32381,67122,5
32388,67126,5
32396,67138,4
32391,67138,5
32404,67140,5
32397,67152,5
32397,67168,5
32422,67170,4
32417,67190,5
32420,67196,5
32429,67199,5
32427,67209,4
32430,67208,5
32435,67215,5
32432,67216,5
32429,67216,5
32430,67202,4
32430,67205,5
32428,67198,5
32422,67192,5
32419,67179,5
32402,67157,4
32396,67131,6
32378,67089,4
32356,67043,5
32326,66999,5
32305,66942,4
32280,66904,5
32257,66868,5
32243,66809,5
32216,66795,5
32220,66767,4
32197,66769,5
32203,66767,5
32200,66773,5
32213,66774,4
32210,66787,4
32223,66809,5
32219,66816,5
32227,66826,5
32243,66838,4
32259,66860,5
32261,66870,5
32263,66876,5
32254,66843,5
32219,66787,4
32188,66733,5
32168,66687,6
32144,66643,4
32131,66608,5
32112,66573,4
32093,66542,5
32091,66510,5
32060,66495,5
32059,66491,5
32063,66491,4
32063,66496,5
32030,66506,5
32079,66525,5
32081,66531,4
32101,66552,4
32046,66568,5
32106,66586,5
32121,66600,5
32129,66610,5
32113,66620,4
32145,66636,5
32152,66663,5
32160,66676,5
32204,66687,4
32177,66715,5
32174,66725,5
32179,66735,5
32264,66748,5
32196,66760,4
32202,66773,5
32211,66788,5
32267,66813,5
32224,66819,5
32232,66810,4
32231,66828,5
32238,66829,5
32240,66826,5
32223,66820,4
32237,66819,4
32229,66786,5
32221,66804,5
32219,66798,5
32215,66773,4
32203,66711,5
32199,66746,5
32183,66715,5
32176,66703,5
32169,66625,5
32163,66663,4
32149,66652,5
32133,66641,5
32133,66628,5
32132,66619,4
32140,66625,5
32133,66625,5
32126,66678,5
32130,66632,5
32143,66629,4
32138,66634,5
32131,66699,5
32146,66641,5
32145,66646,5
32138,66646,4
32142,66686,5
32149,66655,5
32160,66652,5
32150,66658,4
32150,66668,5
32152,66667,5
32157,66661,5
32149,66661,5
32156,66670,4
32152,66661,6
32151,66664,3
32152,66671,5
32150,66661,5
32149,66666,4
32148,66645,5
32139,66643,5
32137,66631,5
32124,66609,5
32108,66572,4
32093,66534,5
32066,66483,5
32046,66442,5
32022,66389,8
32004,66357,1
31980,66337,5
31960,66289,5
31959,66268,5
31954,66267,4
31951,66265,4
31956,66275,5
31963,66279,6
31964,66299,4
31968,66312,4
31982,66321,5
31986,66335,5
31984,66350,5
31993,66349,5
32002,66372,4
32011,66382,5
32008,66397,5
32010,66366,5
31987,66319,5
31956,66278,4
31943,66246,5
31930,66215,5
31921,66195,5
31900,66169,5
31898,66160,4
31886,66132,5
31879,66129,5
31889,66123,5
31892,66119,5
31883,66142,4
31885,66143,5
31902,66156,5
31907,66182,6
31917,66201,3
31925,66220,5
31934,66241,5
31948,66271,5
31968,66303,5
31983,66317,4
31981,66355,5
31996,66362,5
32005,66395,5
32027,66421,5
32030,66428,4
32039,66451,5
32041,66461,5
32053,66478,5
32061,66491,5
32054,66494,4
32070,66511,5
32078,66532,5
32075,66525,5
32085,66531,4
32070,66525,5
32080,66525,4
32065,66518,5
32073,66500,5
32060,66494,6
32065,66491,3
32057,66486,5
32058,66473,5
32056,66455,5
32038,66453,4
32028,66430,5
32023,66406,5
32013,66399,5
31982,66381,5
32003,66354,4
31997,66339,5
31987,66313,5
31922,66308,5
31966,66289,5
31959,66287,4
31959,66278,5
31900,66270,5
31962,66267,5
31953,66282,4
31956,66274,4
31962,66281,6
31969,66282,4
31965,66296,5
31962,66293,4
32016,66300,5
31970,66291,5
31968,66296,5
31964,66302,5
32039,66299,4
31973,66307,5
31968,66305,5
31970,66299,5
32009,66301,5
31966,66289,4
31967,66296,5
31966,66292,5
31975,66285,5
31969,66285,5
31969,66279,4
31957,66275,5
31962,66243,5
31950,66262,5
31955,66249,4
31940,66245,4
31936,66164,5
31926,66186,6
31902,66149,4
31878,66114,5
31859,65989,4
31829,66008,5
31808,65962,5
31785,65912,5
31770,65882,4
31752,65848,5
31741,65828,5
31726,65805,5
31721,65864,5
31729,65816,4
31731,65826,5
31731,65829,5
31735,65909,5
31752,65843,5
31739,65852,4
31753,65854,5
31760,65893,5
31766,65874,5
31764,65882,5
31763,65891,4
31763,65870,5
31731,65817,5
31708,65760,6
31679,65700,3
31657,65664,5
31638,65633,5
31621,65602,5
31618,65575,5
31602,65561,4
31602,65543,5
31603,65528,5
31588,65536,5
31600,65543,5
31602,65566,4
31613,65579,5
31628,65600,5
31632,65618,5
31642,65638,5
31661,65674,4
31673,65695,5
31674,65725,5
31687,65738,5
31703,65759,5
31713,65783,5
31718,65805,4
31730,65833,5
31740,65844,5
31747,65854,4
31753,65860,5
31759,65888,5
31769,65897,5
31768,65912,5
31783,65927,4
31798,65947,5
31797,65960,5
31802,65964,5
31799,65965,5
31815,65969,4
31802,65974,5
31812,65982,5
31804,65985,5
31804,65976,5
31808,65978,4
31817,65982,5
31810,65973,5
31816,65973,5
31812,65968,5
31814,65956,4
31797,65957,6
31801,65957,4
31797,65944,5
31793,65933,4
31793,65937,5
31790,65941,5
31796,65943,5
31791,65946,5
31791,65953,4
31800,65952,5
31799,65964,5
31811,65981,5
31810,65983,5
31823,66003,4
31826,66015,5
31834,66035,5
31843,66038,5
31849,66054,5
31853,66081,4
31867,66093,5
31870,66106,5
31878,66107,5
31882,66129,5
31889,66140,4
31896,66153,5
31895,66167,6
31903,66176,4
31918,66182,4
31920,66200,4
31919,66215,5
31925,66207,5
31920,66221,5
31927,66228,4
31939,66237,5
31939,66241,5
31938,66241,5
31930,66237,5
31901,66231,4
31917,66209,5
31920,66201,5
31907,66184,5
31855,66177,5
31905,66168,4
31902,66156,5
31888,66161,5
31835,66158,5
31889,66160,5
31904,66170,4
31910,66184,5
31918,66213,5
31936,66228,5
31940,66259,4
31952,66280,4
32013,66306,5
31986,66350,5
31997,66382,5
32019,66406,4
32086,66430,5
32019,66410,5
32003,66387,5
32000,66364,5
32032,66355,4
31989,66350,5
31992,66354,5
31997,66361,5
32006,66371,5
32004,66392,4
32025,66411,5
32036,66445,5
32057,66462,5
32083,66572,5
32143,66670,5
32184,66763,4
32239,66824,5
32302,66995,5
32358,67100,4
32413,67185,4
32453,67225,5
32509,67383,5
32569,67506,5
32631,67620,5
32686,67746,4
32732,67814,5
32754,67856,5
32774,67896,5
32803,68006,4
32835,68034,5
32873,68104,5
32910,68190,5
32966,68368,5
33018,68388,4
33053,68477,5
33096,68567,6
33130,68666,4
33155,68656,5
33160,68671,4
33161,68666,7
33152,68658,3
33144,68668,5
33155,68684,5
33168,68719,4
33200,68776,5
33227,68809,5
33250,68874,5
33261,68888,4
33266,68887,5
33270,68893,5
33258,68884,5
33253,68868,5
33246,68882,4
33254,68894,5
33270,68926,5
33297,68985,5
33330,69064,5
33384,69174,4
33443,69282,5
33482,69360,5
33507,69415,5
33543,69477,5
33571,69532,4
33600,69603,5
33635,69682,5
33680,69768,5
33731,69866,5
33775,69962,4
33820,70024,5
33834,70051,5
33842,70071,5
33850,70100,4
33848,70079,4
33838,70044,5
33833,70057,5
33850,70092,5
33885,70159,4
33921,70224,5
33939,70246,5
33943,70255,5
33932,70242,5
33916,70206,4
33906,70194,5
33918,70244,5
33954,70312,5
33995,70385,5
34033,70469,4
34052,70489,5
34036,70429,5
34005,70381,5
34004,70390,5
34009,70418,4
34037,70448,5
34041,70450,5
33995,70344,5
33954,70266,4
33931,70259,4
33951,70265,5
33949,70279,5
33946,70279,5
33958,70282,4
33975,70327,5
34000,70392,5
34030,70450,5
34063,70496,5
34095,70574,4
34148,70676,5
34169,70725,4
34190,70752,5
34213,70831,5
34267,70913,6
34302,70964,3
34322,71031,5
34358,71099,5
34381,71159,5
34395,71178,4
34395,71157,5
34363,71110,5
34372,71128,5
34415,71222,4
34452,71329,4
34519,71470,5
34603,71618,5
34675,71777,5
34740,71866,4
34685,71776,5
34627,71597,5
34529,71436,5
34498,71410,5
34479,71478,4
34593,71603,5
34643,71701,6
34666,71726,4
34582,71674,5
34593,71543,4
34529,71437,5
34511,71419,5
34505,71430,5
34531,71451,5
34541,71490,4
34581,71572,5
34648,71608,5
34596,71576,5
34564,71502,4
34541,71454,4
34599,71429,5
34484,71316,5
34386,71121,5
34330,71052,4
34386,71080,5
34362,71130,5
34398,71210,5
34455,71313,5
34480,71341,4
34472,71348,5
34457,71279,5
34406,71166,6
34351,71063,4
34348,71089,4
34344,71067,5
34337,71048,5
34324,70967,5
34307,71018,5
34294,70956,4
34242,70864,5
34214,70736,5
34199,70788,5
34191,70751,5
34155,70644,5
34079,70513,4
34024,70420,5
34011,70386,5
34007,70408,4
34006,70449,5
33996,70386,5
33980,70320,5
33941,70240,5
33894,70227,5
33869,70108,4
33848,70085,5
33841,70059,5
33817,70037,6
33784,69925,3
33735,69823,5
33662,69676,5
33601,69588,5
33584,69583,6
33593,69580,3
33606,69600,5
33618,69633,5
33632,69641,5
33638,69657,5
33632,69653,4
33637,69647,5
33623,69631,5
33603,69596,5
33593,69566,4
33576,69526,5
33559,69501,5
33536,69452,5
33518,69407,5
33491,69367,4
33469,69331,6
33451,69301,4
33445,69288,5
33451,69297,5
33457,69301,6
33452,69306,3
33449,69288,5
33435,69271,5
33432,69266,5
33427,69251,4
33421,69222,5
33396,69178,5
33369,69145,5
33348,69092,5
33323,69038,4
33289,68965,5
33239,68849,5
33169,68730,5
33117,68619,4
33069,68520,4
33019,68436,5
32984,68372,5
32958,68311,5
32924,68258,4
32907,68221,5
32890,68180,6
32871,68166,4
32859,68129,5
32849,68124,4
32836,68107,5
32828,68091,5
32827,68065,5
32815,68044,5
32800,68016,4
32783,67980,5
32761,67951,5
32732,67902,5
32718,67858,5
32698,67817,4
32668,67769,5
32653,67735,5
32644,67711,5
32622,67676,4
32610,67660,4
32607,67655,5
32602,67652,5
32600,67641,5
32596,67618,4
32583,67606,5
32586,67605,5
32577,67595,6
32582,67604,4
32581,67602,4
32572,67567,5
32539,67495,5
32500,67431,5
32475,67392,5
32459,67361,4
32455,67337,5
32449,67319,5
32443,67320,5
32444,67312,5
32438,67325,4
32438,67331,5
32450,67336,5
32450,67354,5
32453,67366,4
32474,67388,4
32450,67401,5
32500,67430,5
32515,67464,5
32533,67496,5
32491,67516,4
32559,67559,5
32574,67598,5
32593,67620,6
32533,67649,3
32616,67673,5
32629,67712,5
32639,67743,5
32662,67771,5
32689,67797,4
32700,67834,5
32707,67858,5
32768,67879,5
32723,67903,5
32743,67919,4
32754,67942,5
32828,67959,5
32762,67977,5
32778,67988,5
32787,68007,4
32819,68008,5
32787,68015,5
32780,67992,5
32768,67982,4
32762,67963,6
32756,67941,4
32748,67931,5
32736,67906,5
32718,67847,4
32718,67863,5
32705,67851,5
32700,67827,5
32684,67748,5
32678,67787,4
32672,67783,5
32658,67763,5
32647,67679,5
32648,67728,5
32643,67706,4
32625,67678,5
32608,67664,5
32592,67605,5
32559,67560,5
32542,67508,4
32511,67526,5
32496,67427,5
32484,67389,5
32452,67347,4
32439,67386,4
32424,67296,6
32412,67277,4
32409,67270,5
32404,67308,4
32408,67280,5
32416,67282,5
32405,67281,5
32416,67289,5
32418,67290,4
32427,67302,5
32432,67337,5
32443,67337,5
32438,67333,5
32418,67292,4
32404,67239,5
32372,67201,5
32358,67176,5
32341,67154,5
32337,67121,4
32327,67114,5
32325,67105,5
32310,67096,5
32320,67103,4
32314,67086,4
32313,67094,5
32318,67101,6
32319,67114,4
32332,67127,4
32352,67134,5
32348,67162,5
32348,67185,5
32360,67192,5
32373,67210,4
32376,67210,5
32386,67227,5
32384,67242,5
32399,67259,5
32406,67274,4
32406,67300,5
32418,67298,5
32426,67310,5
32443,67346,5
32440,67356,4
32448,67389,5
32463,67411,5
32485,67426,5
32488,67441,5
32493,67446,4
32498,67460,5
32505,67467,5
32510,67478,5
32501,67474,4
32514,67478,5
32498,67469,5
32497,67469,5
32507,67466,5
32503,67454,4
32492,67446,5
32489,67441,5
32480,67427,5
32468,67408,5
32468,67402,4
32461,67377,5
32454,67356,5
32444,67346,5
32429,67318,5
32432,67304,4
32413,67282,5
32417,67273,5
32402,67256,5
32394,67245,4
32380,67230,5
32385,67230,4
32365,67210,5
32370,67202,5
32367,67192,4
32356,67186,5
32359,67180,5
32350,67176,5
32350,67155,5
32350,67165,4
32352,67150,5
32344,67126,5
32324,67111,5
32306,67088,5
32299,67053,4
32274,67005,5
32238,66945,5
32217,66896,5
32182,66832,5
32151,66778,4
32130,66718,5
32072,66676,5
32079,66641,5
32077,66621,5
32063,66605,4
32009,66598,6
32062,66607,4
32064,66606,5
32067,66613,4
32014,66625,5
32082,66646,5
32078,66640,5
32094,66655,5
32114,66675,4
32107,66695,5
32126,66721,5
32115,66715,5
32161,66674,5
32080,66637,4
32062,66592,5
32048,66567,5
32098,66547,5
32034,66530,5
32026,66512,4
32021,66496,5
32034,66464,5
32007,66457,5
32007,66456,4
31991,66443,4
31989,66449,5
32001,66469,5
32006,66473,5
32011,66476,4
32020,66457,4
32029,66512,5
32037,66530,5
32036,66536,5
32040,66486,4
32055,66566,5
32049,66584,5
32072,66594,5
32070,66567,5
32083,66629,4
32089,66642,5
32102,66654,5
32092,66688,5
32106,66683,5
32112,66690,5
32126,66720,4
32134,66802,5
32143,66741,5
32143,66753,6
32151,66756,3
32145,66816,5
32154,66758,5
32156,66766,5
32155,66753,4
32155,66789,4
32147,66764,5
32149,66766,5
32151,66758,5
32150,66758,4
32150,66750,5
32143,66742,5
32151,66740,5
32131,66725,5
32128,66712,4
32124,66712,5
32128,66682,5
32114,66693,5
32109,66679,5
32113,66684,4
32115,66675,6
32111,66682,4
32117,66693,5
32108,66690,5
32111,66706,6
32119,66708,3
32130,66720,5
32120,66712,5
32123,66734,4
32132,66738,4
32140,66746,5
32148,66752,5
32140,66751,5
32149,66769,4
32157,66782,5
32151,66773,5
32167,66776,5
32163,66783,5
32155,66783,4
32164,66777,5
32156,66765,5
32150,66745,5
32134,66730,5
32124,66705,4
32123,66684,5
32115,66663,6
32101,66648,4
32095,66647,5
32094,66641,4
32095,66645,5
32098,66657,5
32103,66671,5
32109,66680,4
32114,66692,4
32132,66711,5
32140,66740,5
32146,66761,5
32163,66802,4
32184,66834,5
32206,66882,5
32224,66906,5
32222,66894,5
32211,66867,4
32204,66856,5
32198,66833,5
32189,66831,5
32182,66817,5
32185,66813,4
32176,66810,5
32184,66806,5
32188,66813,6
32188,66823,4
32188,66828,4
32189,66843,5
32196,66845,5
32205,66865,5
32215,66888,4
32219,66908,4
32236,66918,5
32241,66931,5
32257,66949,5
32262,66973,4
32265,66987,5
32270,67006,5
32277,67027,5
32295,67043,5
32296,67076,4
32312,67091,5
32323,67117,5
32339,67146,5
32346,67168,5
32364,67189,5
32387,67222,4
32406,67258,5
32365,67286,5
32428,67304,6
32419,67313,3
32433,67317,5
32384,67330,5
32440,67334,5
32439,67343,4
32448,67351,4
32411,67354,5
32448,67348,5
32440,67343,5
32442,67341,4
32464,67329,5
32437,67325,5
32432,67308,5
32435,67307,5
32487,67301,4
32415,67297,5
32421,67298,5
32417,67292,5
32466,67287,5
32421,67299,4
32419,67299,6
32414,67303,4
32446,67317,5
32426,67329,5
32427,67335,4
32441,67340,5
32452,67340,5
32457,67366,5
32461,67380,5
32472,67391,4
32475,67357,5
32483,67428,5
32487,67441,5
32499,67460,5
32498,67406,4
32515,67481,5
32515,67496,5
32522,67506,5
32530,67489,4
32531,67534,5
32539,67540,5
32545,67546,10
32538,67577,4
32547,67544,5
32542,67537,6
32533,67517,4
32523,67566,5
32522,67479,4
32506,67458,5
32495,67433,5
32493,67464,5
32474,67399,5
32472,67387,4
32462,67385,5
32466,67379,5
32459,67381,5
32468,67392,4
32461,67392,5
32467,67399,5
32480,67418,5
32485,67437,5
32498,67439,4
32502,67477,5
32511,67491,5
32535,67517,5
32524,67519,5
32513,67473,4
32498,67447,5
32486,67416,5
32474,67389,6
32456,67365,4
32453,67343,4
32441,67339,5
32443,67314,5
32425,67312,5
32428,67313,5
32428,67313,4
32434,67320,5
32441,67330,5
32439,67348,5
32454,67363,4
32463,67377,4
32467,67394,5
32477,67418,5
32487,67432,5
32497,67467,4
32510,67486,5
32529,67511,5
32538,67537,5
32553,67558,5
32558,67587,5
32570,67610,4
32593,67628,5
32598,67648,5
32611,67673,5
32617,67687,4
32636,67717,5
32652,67753,5
32661,67772,5
32670,67791,5
32672,67794,4
32671,67814,5
32682,67812,5
32696,67823,5
32692,67814,4
32687,67822,4
32683,67812,5
32685,67801,5
32680,67790,5
32676,67787,4
32665,67773,5
32657,67759,5
32651,67738,5
32644,67726,5
32644,67720,4
32637,67720,6
32637,67703,4
32633,67708,5
32642,67713,5
32633,67709,4
32635,67709,5
32634,67708,5
32635,67704,5
32639,67715,5
32638,67723,4
32638,67723,5
32642,67728,5
32642,67734,5
32652,67739,4
32654,67741,4
32652,67747,5
32654,67747,5
32657,67757,5
32666,67769,4
32657,67765,5
32662,67773,5
32661,67776,5
32655,67764,5
32663,67757,4
32653,67750,5
32656,67741,6
32643,67718,4
32632,67691,5
32573,67663,4
32596,67632,5
32578,67603,5
32564,67574,5
32502,67544,5
32543,67508,4
32522,67488,5
32505,67473,5
32466,67459,5
32505,67456,5
32498,67440,4
32495,67429,5
32525,67442,5
32493,67437,5
32490,67439,5
32490,67431,4
32552,67441,5
32498,67444,5
32490,67413,6
32474,67370,3
32493,67291,5
32395,67223,5
32362,67169,5
32339,67104,5
32338,67071,4
32305,67028,5
32275,66991,5
32259,66973,5
32259,66958,5
32253,66951,4
32236,66954,5
32252,66960,5
32255,66923,5
32263,66980,5
32276,67002,4
32280,67012,5
32286,66969,5
32295,67047,5
32299,67066,5
32303,67074,4
32319,67049,5
32321,67092,5
32321,67102,5
32331,67125,5
32332,67162,4
32341,67142,5
32348,67155,5
32356,67155,5
32370,67243,4
32370,67209,5
32383,67231,5
32379,67230,5
32390,67282,5
32376,67219,4
32374,67216,5
32380,67214,5
32380,67227,5
32371,67182,5
32364,67176,4
32357,67154,5
32341,67139,5
32328,67118,5
32324,67094,4
32309,67055,4
32294,67037,5
32277,67009,4
32267,66990,5
32252,66963,4
32244,66937,6
32241,66929,3
32240,66921,5
32227,66916,5
32225,66899,4
32222,66901,5
32219,66904,5
32223,66906,5
32218,66906,5
32226,66905,4
32231,66914,5
32220,66910,5
32230,66908,5
32232,66912,5
32235,66918,4
32235,66925,5
32234,66922,5
32241,66922,5
32230,66923,5
32233,66935,4
32238,66931,5
32234,66926,6
32234,66927,4
32240,66927,4
32229,66924,5
32222,66912,5
32233,66913,5
32229,66896,5
32223,66900,4
32219,66882,5
32220,66882,5
32214,66877,5
32206,66875,5
32203,66856,4
32192,66845,5
32191,66842,5
32185,66838,5
32177,66822,5
32175,66799,4
32165,66789,5
32154,66757,5
32142,66729,5
32126,66690,5
32101,66654,4
32072,66607,5
32054,66549,5
32031,66506,6
32000,66451,3
31979,66402,4
31958,66361,5
31937,66345,5
31934,66326,5
31925,66314,4
31925,66298,5
31919,66306,5
31932,66317,5
31927,66324,5
31930,66331,4
31944,66342,5
31937,66344,5
31944,66350,5
31942,66365,5
31954,66368,4
31947,66348,5
31924,66299,5
31903,66238,5
31869,66193,5
31856,66144,5
31836,66114,4
31808,66087,5
31798,66060,5
31790,66040,6
31790,66029,3
31777,66017,5
31783,66028,5
31790,66033,5
31800,66054,4
31775,66075,5
31814,66099,5
31830,66114,5
31836,66139,5
31800,66171,4
31866,66196,5
31882,66220,5
31887,66250,5
31849,66263,5
31908,66287,4
31913,66302,5
31922,66319,5
31960,66344,5
31944,66362,5
31954,66381,4
31954,66389,6
32024,66412,4
31982,66431,5
31997,66456,4
32001,66473,4
32067,66473,5
31999,66474,5
31997,66468,5
31997,66465,4
32019,66468,5
32001,66472,5
31998,66460,5
31999,66454,5
31997,66438,4
31987,66439,5
31980,66417,5
31969,66404,5
31967,66347,5
31947,66378,4
31949,66364,5
31938,66340,5
31942,66275,5
31923,66325,5
31923,66312,4
31919,66299,4
31915,66251,6
31910,66280,4
31905,66286,5
31908,66278,4
31905,66313,5
31903,66284,5
31908,66296,5
31909,66295,4
31916,66370,5
31919,66311,5
31922,66317,5
31926,66321,5
31928,66384,4
31929,66332,5
31935,66329,5
31936,66339,5
31936,66357,5
31931,66336,4
31938,66343,5
31938,66334,5
31940,66342,5
31938,66340,5
31940,66333,4
31929,66340,5
31938,66343,5
31930,66343,6
31941,66345,4
31939,66335,4
31925,66329,5
31925,66316,5
31922,66302,5
31916,66283,4
31902,66259,4
31894,66233,5
31866,66213,5
31856,66168,5
31837,66148,4
31826,66103,5
31816,66081,5
31808,66072,5
31802,66064,5
31803,66056,4
31796,66064,5
31798,66067,5
31797,66073,5
31811,66089,5
31808,66092,5
31820,66102,4
31819,66112,5
31820,66131,5
31825,66138,5
31838,66131,4
31825,66113,5
31815,66071,5
31789,66036,5
31768,65992,4
31746,65956,4
31735,65916,5
31719,65892,5
31704,65873,5
31701,65846,4
31688,65831,5
31686,65826,5
31686,65832,5
31690,65851,5
31698,65855,4
31701,65872,5
31721,65898,5
31730,65929,5
31739,65956,5
31751,65982,4
31764,66012,6
31784,66033,4
31791,66076,5
31803,66086,5
31818,66114,4
31824,66135,5
31836,66166,5
31860,66192,5
31866,66202,5
31875,66229,4
31885,66243,5
31899,66262,5
31911,66297,5
31916,66310,4
31926,66314,5
31924,66316,5
31922,66308,5
31928,66297,5
31918,66300,4
31920,66301,5
31912,66296,5
31909,66296,5
31906,66286,5
31901,66274,4
31899,66257,5
31881,66232,6
31878,66209,4
31869,66194,5
31859,66172,4
31843,66149,5
31830,66122,5
31835,66112,5
31821,66098,5
31815,66078,4
31778,66074,5
31797,66063,5
31809,66072,5
31796,66069,4
31741,66063,4
31804,66073,5
31808,66073,5
31808,66070,5
31752,66078,4
31809,66078,5
31795,66076,5
31805,66086,5
31826,66089,5
31811,66079,4
31815,66089,5
31814,66092,5
31863,66104,6
31822,66096,4
31817,66104,4
31815,66102,5
31874,66103,5
31817,66108,5
31821,66105,5
31813,66113,4
31834,66106,5
31807,66089,8
31804,66079,2
31791,66057,4
31767,66025,4
31771,66002,5
31747,65952,5
31735,65934,5
31717,65860,4
31694,65872,5
31690,65832,5
31681,65823,5
31667,65741,5
31660,65791,5
31655,65780,4
31656,65774,5
31664,65748,5
31666,65789,5
31659,65797,5
31664,65801,4
31659,65827,5
31663,65805,5
31675,65810,5
31673,65805,4
31656,65857,5
31648,65765,5
31631,65709,5
31594,65640,5
31570,65663,4
31552,65562,5
31549,65535,5
31528,65509,5
31514,65515,4
31513,65491,5
31501,65469,5
31499,65483,5
31519,65489,5
31508,65492,4
31516,65509,7
31522,65530,3
31545,65549,5
31543,65580,5
31564,65606,4
31577,65633,5
31583,65646,5
31595,65670,5
31612,65695,5
31613,65703,4
31625,65723,5
31635,65737,5
31638,65762,5
31654,65766,5
31654,65789,4
31663,65808,5
31669,65817,5
31685,65843,5
31695,65858,4
31697,65864,4
31703,65871,5
31698,65861,5
31697,65860,5
31694,65866,4
31691,65857,5
31699,65854,6
31695,65849,4
31688,65847,5
31695,65849,4
31689,65842,5
31680,65836,5
31688,65828,5
31681,65822,5
31667,65811,4
31666,65795,5
31656,65787,5
31666,65778,5
31659,65789,5
31665,65778,4
31655,65784,5
31672,65778,5
31663,65783,5
31659,65798,4
31663,65806,4
31674,65815,5
31677,65817,5
31679,65829,5
31695,65843,4
31691,65851,5
31696,65868,5
31702,65875,5
31702,65888,5
31704,65892,4
31716,65912,5
31717,65918,5
31721,65925,5
31737,65944,5
31740,65955,4
31744,65969,5
31756,65974,5
31764,65990,5
31761,65983,5
31756,65982,4
31747,65972,5
31750,65972,5
31751,65956,5
31737,65944,4
31737,65930,5
31718,65912,4
31709,65896,5
31706,65861,5
31693,65852,6
31680,65833,3
31671,65829,5
31678,65821,5
31679,65826,5
31688,65842,4
31688,65848,5
31698,65875,5
31698,65876,5
31715,65898,5
31730,65918,4
31727,65940,5
31708,65957,5
31756,65978,5
31745,65976,5
31740,65957,4
31670,65920,5
31708,65883,5
31700,65860,5
31691,65848,5
31632,65846,4
31680,65837,6
31683,65829,4
31686,65836,5
31702,65846,4
31682,65855,7
31706,65874,3
31705,65906,5
31784,65938,5
31736,65963,4
31766,66007,5
31781,66053,5
31876,66098,5
31833,66135,5
31843,66176,4
31869,66233,5
31923,66275,5
31914,66314,5
31935,66352,5
31944,66385,4
31980,66427,5
31984,66454,5
32004,66495,5
32024,66521,5
32039,66519,4
32047,66573,5
32058,66609,6
32081,66632,4
32081,66577,4
32078,66642,5
32076,66646,5
32081,66649,5
32087,66590,5
32088,66648,4
32088,66645,5
32084,66639,4
32078,66662,5
32081,66630,5
32073,66618,4
32077,66613,5
32064,66648,5
32065,66592,5
32065,66582,5
32058,66593,4
32055,66646,5
32060,66584,5
32053,66590,5
32056,66592,5
32057,66628,4
32063,66622,5
32077,66636,5
32087,66667,6
32108,66711,3
32119,66736,4
32141,66775,5
32161,66807,5
32175,66852,5
32198,66881,4
32216,66924,5
32239,66974,5
32268,67018,5
32285,67056,5
32293,67072,4
32302,67086,5
32308,67101,5
32313,67116,5
32322,67128,5
32326,67138,4
32338,67155,5
32343,67166,5
32345,67169,5
32351,67198,5
32372,67234,5
32396,67290,4
32434,67352,5
32455,67398,5
32487,67454,6
32512,67526,3
32550,67586,5
32586,67641,5
32609,67712,5
32651,67768,4
32656,67785,5
32659,67769,5
32643,67748,5
32635,67737,5
32619,67705,4
32612,67690,5
32608,67683,5
32610,67679,5
32610,67687,5
32627,67722,4
32637,67739,5
32665,67800,5
32710,67897,5
32759,67996,5
32806,68092,4
32858,68170,6
32886,68243,4
32945,68341,5
32968,68421,4
33003,68475,4
33052,68577,5
33105,68675,5
33151,68753,5
33177,68830,4
33219,68928,5
33289,69041,5
33339,69128,5
33373,69210,5
33421,69303,4
33460,69377,5
33485,69421,5
33501,69468,5
33534,69511,5
33550,69556,4
33576,69609,5
33602,69681,5
33635,69739,5
33662,69778,5
33657,69777,4
33671,69797,5
33690,69834,6
33703,69847,4
33694,69830,5
33686,69847,4
33695,69854,5
33699,69860,5
33710,69895,5
33726,69902,4
33742,69925,5
33736,69928,5
33751,69972,5
33769,70014,5
33795,70037,4
33801,70058,5
33811,70068,5
33781,70068,5
33861,70179,5
33914,70299,4
33979,70419,5
33959,70506,5
34060,70563,5
34085,70608,5
34093,70624,4
34036,70643,5
34064,70547,5
34014,70458,6
33989,70408,4
33983,70392,4
33975,70393,5
33989,70431,5
34019,70501,5
34107,70563,4
34087,70616,4
34112,70662,5
34116,70680,5
34182,70665,5
34125,70714,4
34178,70832,5
34262,70978,5
34328,71018,5
34282,70972,5
34241,70892,4
34183,70777,5
34134,70677,5
34079,70579,5
34024,70466,5
33966,70347,5
33899,70151,4
33811,70041,5
33749,69940,5
33725,69893,5
33698,69779,4
33660,69755,5
33639,69724,5
33633,69710,5
33624,69631,4
33614,69684,4
33615,69704,5
33611,69688,5
33607,69698,5
33610,69683,4
33609,69677,5
33607,69675,5
33608,69735,5
33613,69681,5
33602,69681,4
33615,69677,5
33597,69742,5
33597,69665,5
33586,69651,5
33586,69630,4
33574,69649,6
33573,69604,4
33568,69593,5
33559,69563,5
33541,69528,4
33519,69491,5
33501,69463,5
33489,69424,5
33461,69390,5
33445,69353,4
33424,69308,5
33408,69254,5
33378,69202,5
33343,69146,4
33331,69090,5
33289,69026,5
33256,68967,5
33239,68913,5
33207,68862,4
33175,68810,5
33166,68776,5
33145,68739,5
33123,68704,5
33119,68684,4
33102,68654,5
33084,68631,6
33067,68593,4
33043,68560,5
33035,68530,4
33012,68484,5
32981,68434,5
32967,68381,5
32946,68333,5
32911,68290,4
32890,68246,5
32866,68186,5
32841,68133,5
32816,68092,4
32781,68047,4
32775,68023,5
32757,68011,5
32764,67988,5
32755,67975,4
32751,67961,5
32740,67961,5
32741,67967,5
32740,67968,5
32742,67978,4
32740,67966,5
32738,67962,5
32740,67927,5
32699,67862,5
32672,67809,4
32651,67751,5
32625,67707,5
32605,67692,5
32587,67663,5
32577,67624,4
32571,67622,5
32560,67605,5
32551,67595,5
32552,67600,4
32557,67599,4
32558,67609,5
32560,67622,5
32566,67630,5
32581,67641,4
32589,67654,5
32590,67665,5
32597,67682,5
32600,67687,5
32603,67692,5
32614,67708,4
32615,67722,5
32627,67727,5
32625,67736,5
32628,67737,4
32633,67744,5
32637,67746,5
32629,67757,5
32641,67775,5
32656,67783,4
32663,67804,5
32666,67798,5
32657,67799,5
32666,67799,4
32658,67805,4
32655,67795,5
32652,67798,5
32620,67793,5
32655,67786,4
32650,67769,5
32649,67761,5
32586,67753,5
32630,67745,5
32629,67708,4
32613,67693,11
32547,67679,4
32599,67665,5
32582,67649,4
32577,67623,5
32565,67624,5
32568,67612,5
32564,67603,5
32556,67585,4
32598,67578,5
32554,67572,5
32542,67559,5
32539,67561,5
32598,67542,4
32531,67543,5
32541,67553,5
32543,67550,5
32572,67552,4
32532,67555,5
32541,67538,5
32521,67526,6
32526,67505,4
32507,67485,4
32487,67453,5
32469,67405,5
32442,67321,5
32406,67280,5
32380,67229,4
32339,67153,5
32313,67031,5
32275,67033,5
32253,66999,5
32246,66967,4
32237,66884,5
32235,66936,5
32227,66945,5
32226,66951,5
32222,66969,4
32233,66978,5
32241,66979,5
32252,66996,5
32258,67060,5
32276,67034,4
32274,67049,5
32289,67074,5
32282,67130,6
32271,67032,3
32250,66996,5
32236,66963,5
32233,66964,5
32217,66906,5
32202,66887,4
32206,66868,5
32186,66857,5
32168,66848,5
32175,66822,5
32172,66824,4
32172,66823,5
32167,66830,5
32179,66834,5
32181,66848,5
32183,66851,4
32194,66867,5
32190,66882,5
32203,66894,5
32200,66905,4
32211,66907,5
32221,66920,4
32216,66940,5
32223,66947,5
32229,66953,6
32245,66965,3
32248,66978,5
32250,66992,5
32252,67005,5
32264,67021,4
32274,67035,5
32271,67055,5
32292,67082,5
32301,67090,5
32302,67106,4
32312,67119,5
32316,67118,5
32323,67123,5
32321,67123,5
32328,67127,4
32316,67130,5
32312,67119,5
32325,67119,5
32313,67120,5
32305,67108,4
32303,67104,6
32299,67088,4
32294,67066,5
32283,67053,4
32275,67045,5
32275,67022,5
32267,67016,5
32255,67006,5
32254,66983,4
32248,66979,5
32236,66976,5
32238,66958,5
32227,66961,5
32232,66953,4
32226,66938,5
32232,66939,5
32228,66940,5
32227,66938,5
32227,66938,4
32225,66935,5
32223,66935,5
32223,66941,5
32227,66941,5
32221,66930,4
32220,66927,5
32220,66917,6
32214,66898,4
32202,66877,4
32172,66844,4
32159,66799,5
32144,66757,5
32115,66717,5
32096,66666,4
32078,66613,5
32052,66565,5
32020,66523,5
32004,66497,5
31995,66478,4
31999,66473,5
31998,66475,5
31995,66477,5
31995,66482,5
32004,66494,4
32013,66511,5
32019,66526,5
32021,66539,5
32040,66563,5
32022,66586,4
32056,66601,5
32066,66620,5
32068,66602,6
31989,66564,3
32017,66530,4
32020,66496,5
32005,66479,5
31930,66461,5
31987,66448,4
31988,66439,5
31969,66425,5
31981,66417,5
31973,66425,5
31982,66419,4
31978,66438,5
32027,66432,5
31984,66449,5
31987,66454,5
32003,66475,4
32071,66492,5
32015,66510,5
32021,66519,5
32022,66532,5
32060,66547,5
32033,66552,4
32040,66569,5
32053,66582,5
32066,66598,4
32060,66604,4
32072,66623,5
32081,66633,5
32081,66613,5
32081,66665,4
32098,66677,5
32101,66708,5
32107,66659,5
32124,66727,5
32124,66735,4
32129,66736,5
32125,66691,5
32134,66753,5
32136,66753,5
32138,66752,4
32136,66758,5
32132,66745,5
32132,66747,5
32125,66750,5
32123,66794,4
32119,66726,6
32118,66715,4
32106,66700,5
32110,66762,4
32088,66677,4
32088,66663,5
32076,66642,5
32073,66652,5
32068,66624,4
32066,66603,5
32068,66608,5
32066,66604,5
32066,66598,5
32057,66599,4
32057,66606,5
32068,66608,5
32058,66622,5
32066,66612,5
32061,66614,4
32069,66618,5
32072,66629,5
32082,66620,5
32072,66625,5
32071,66628,4
32071,66636,5
32077,66637,6
32076,66636,4
32076,66637,5
32076,66643,4
32079,66635,5
32069,66626,5
32080,66632,5
32070,66630,4
32073,66628,5
32074,66630,5
32070,66609,5
32060,66613,5
32053,66588,4
32043,66566,5
32029,66526,5
32007,66488,5
31989,66436,5
31966,66379,4
31937,66343,5
31915,66298,5
31892,66251,5
31876,66217,5
31857,66178,4
31844,66153,5
31839,66147,5
31840,66149,6
31834,66152,4
31840,66147,4
31843,66171,5
31850,66178,5
31850,66191,5
31854,66188,4
31862,66208,4
31874,66234,5
31882,66251,5
31878,66236,5
31861,66210,4
31854,66172,5
31826,66140,5
31825,66106,5
31809,66091,5
31799,66065,4
31790,66056,5
31790,66037,5
31783,66033,5
31777,66027,5
31775,66019,5
31779,66013,4
31779,66023,5
31784,66037,5
31782,66049,5
31804,66064,4
31805,66079,5
31809,66094,5
31819,66117,5
31816,66123,4
31829,66137,4
31834,66147,5
31844,66155,5
31844,66168,5
31847,66183,4
31849,66190,5
31859,66207,5
31872,66217,5
31875,66227,5
31877,66236,4
31884,66256,5
31891,66267,5
31892,66283,5
31914,66282,5
31902,66290,4
31878,66283,6
31910,66287,4
31914,66282,5
31908,66281,5
31847,66272,4
31902,66273,5
31894,66262,5
31891,66254,5
31830,66246,4
31882,66233,4
31876,66214,5
31872,66204,5
31873,66198,5
31862,66183,4
31853,66174,5
31840,66163,5
31889,66151,5
31833,66137,5
31827,66126,4
31828,66127,5
31889,66121,5
31820,66124,6
31823,66117,4
31817,66106,4
31837,66086,5
31798,66080,5
31809,66088,5
31810,66088,5
31828,66098,4
31816,66099,5
31815,66108,5
31831,66118,5
31823,66089,5
31831,66138,4
31829,66135,5
31833,66147,5
31837,66089,5
31842,66156,5
31833,66156,4
31842,66163,5
31841,66108,5
31842,66174,5
31847,66175,4
31853,66172,5
31851,66204,5
31852,66181,5
31860,66175,5
31858,66182,4
31855,66243,5
31862,66195,5
31865,66184,5
31856,66197,5
31861,66253,4
31860,66183,5
31853,66182,5
31852,66174,5
31834,66183,5
31835,66130,4
31823,66111,5
31812,66098,5
31799,66076,5
31795,66053,4
31789,66045,4
31784,66034,5
31777,66037,5
31775,66032,5
31777,66044,4
31791,66057,5
31791,66073,4
31805,66088,5
31815,66113,5
31818,66135,6
31842,66152,3
31840,66173,5
31861,66196,9
31870,66228,5
31830,66136,8
31830,66136,5
31853,66110,5
31825,66093,8
31790,66080,5
31796,66064,5
31799,66063,8
31798,66071,5
31797,66066,5
31785,66072,5
31804,66087,8
31817,66103,5
31821,66117,5
31890,66257,8
31890,66257,5
31891,66294,5
31890,66322,4
31934,66352,2
31933,66378,1
31933,66378,4
31957,66405,5
31971,66415,4
31981,66451,5
31986,66475,5
32004,66494,5
32022,66513,5
32032,66529,4
32037,66552,5
32040,66580,5
32062,66601,5
32057,66614,5
32057,66604,4
32058,66616,5
32070,66624,5
32073,66631,5
32068,66618,4
32082,66625,5
32074,66613,5
32058,66604,6
32064,66600,4
32056,66597,4
32058,66589,5
32053,66581,5
32047,66569,5
32045,66558,5
32033,66547,4
32029,66546,5
32028,66545,5
32031,66537,5
32028,66542,5
32027,66536,4
32029,66543,5
32030,66546,5
32033,66551,5
32033,66559,5
32039,66572,8
32049,66580,1
32048,66607,5
32060,66607,5
32070,66625,5
32076,66635,4
32084,66653,5
32090,66668,5
32102,66688,6
32107,66716,3
32124,66721,5
32129,66751,5
32143,66771,5
32155,66794,5
32156,66819,4
32170,66829,5
32173,66836,5
32173,66846,5
32181,66842,5
32184,66843,4
32163,66836,5
32167,66820,5
32169,66823,5
32165,66814,5
32165,66815,4
