RED,IR,EKG,TIME
51488,115923,12
51420,115782,5
51319,115572,7
51265,115501,8
51232,115412,5
51162,115317,7
50957,114870,8
50957,114870,5
50905,114834,7
50896,114804,8
50931,114823,5
50941,114835,7
50957,114901,8
51028,114989,9
51028,114989,5
51035,114954,8
51040,114999,7
51031,114984,5
51028,114915,8
50945,114810,7
50883,114737,5
50798,114531,8
50798,114531,7
50796,114515,5
50785,114537,8
50794,114541,7
50782,114531,5
50783,114542,8
50840,114615,7
50840,114615,5
50833,114602,8
50806,114536,7
50760,114468,5
50722,114383,8
50680,114263,7
50557,114063,10
50557,114063,7
50557,114064,5
50570,114072,10
50570,114077,5
50544,114081,5
50579,114097,5
50583,114105,10
50583,114105,5
50568,114070,5
50558,114048,10
50540,114026,5
50537,114021,5
50533,114006,10
50512,113951,5
50415,113766,5
50415,113766,10
50404,113750,5
50409,113747,7
50415,113744,8
50320,113757,5
50424,113746,7
50281,113466,8
50281,113466,5
50265,113402,7
50023,113300,8
50185,113282,9
50121,113118,8
50121,113118,5
50124,113089,7
50280,113033,8
50057,112985,5
50035,112932,7
50002,112901,8
50189,112870,5
49965,112783,7
49965,112783,8
49944,112739,4
49927,112707,7
49902,112552,8
49836,112505,9
49749,112291,7
49749,112291,8
49739,112290,9
49726,112059,8
49713,112196,5
49688,112136,7
49623,112028,13
49630,112190,7
49637,112072,8
49622,112011,7
49609,111995,5
49608,112185,8
49591,111965,7
49591,111965,5
49616,111979,8
49611,111962,7
49573,111969,5
49577,111923,8
49571,111914,7
49575,111933,5
49605,111979,8
49605,111979,7
49595,111977,5
49589,111974,8
49579,111941,7
49577,111905,10
49478,111740,7
49478,111740,5
49455,111734,8
49446,111666,7
49421,111621,5
49418,111607,8
49384,111562,7
49376,111524,5
49299,111380,8
49299,111380,7
49269,111301,7
49247,111297,8
49246,111267,7
49224,111278,5
49230,111262,8
49230,111262,7
49226,111282,12
49235,111286,5
49249,111287,5
49241,111268,5
49198,111183,10
49198,111183,5
49195,111231,5
49196,111181,10
49170,111095,5
49140,111080,5
49125,111032,10
49114,110994,5
49071,110951,5
49007,110793,10
49007,110793,5
48990,110742,7
48961,110705,8
48944,110659,5
48908,110600,7
48821,110402,8
48821,110402,5
48779,110404,7
48811,110411,8
48829,110416,5
48826,110397,7
48818,110395,8
48702,110142,9
48702,110142,8
48682,110062,5
48654,110059,7
48657,109995,8
48529,109922,5
48556,109859,7
48499,109733,8
48499,109733,5
48501,109727,7
48329,109772,8
48522,109789,5
48513,109759,7
48497,109754,8
48548,109745,5
48521,109784,7
48521,109784,8
48530,109776,5
48514,109761,7
48707,109738,3
48513,109731,2
48826,110397,4
48497,109741,5
48597,109745,5
48513,109728,5
48497,109696,5
48490,109680,4
48482,109620,6
48453,109627,4
48443,109595,5
48437,109599,4
48430,109443,4
48420,109574,5
48400,109543,5
48383,109483,5
48357,109259,4
48331,109402,5
48324,109369,5
48299,109322,5
48281,109237,5
48276,109283,4
48278,109285,5
48265,109264,5
48250,109367,5
48241,109225,5
48254,109228,4
48247,109219,5
48240,109422,5
48239,109203,5
48222,109179,5
48219,109168,4
48214,109280,5
48217,109164,6
48224,109179,4
48227,109184,5
48237,109246,4
48254,109246,5
48270,109272,5
48281,109268,5
48264,109263,4
48271,109257,5
48275,109252,5
48268,109253,5
48261,109262,5
48279,109270,4
48265,109247,5
48255,109236,5
48253,109221,5
48245,109217,5
48247,109209,4
48241,109210,5
48241,109212,5
48246,109214,5
48245,109218,5
48248,109218,4
48244,109214,5
48237,109198,5
48243,109212,6
48243,109199,4
48242,109202,4
48245,109203,5
48254,109226,5
48246,109215,5
48252,109201,4
48238,109194,4
48230,109178,5
48230,109166,5
48220,109159,5
48194,109125,4
48187,109093,5
48176,109067,5
48164,109052,5
48173,109057,5
48173,109070,4
48193,109095,5
48195,109107,5
48203,109117,5
48214,109135,5
48225,109141,5
48219,109141,4
48214,109140,5
48217,109140,5
48221,109146,5
48239,109162,4
48233,109178,5
48240,109194,5
48250,109190,5
48229,109150,5
48210,109120,4
48198,109087,5
48176,109049,5
48166,109008,5
48153,108991,4
48137,108986,4
48139,108982,5
48146,108993,5
48150,109005,5
48161,109026,4
48176,109060,5
48186,109060,5
48185,109089,5
48199,109113,5
48221,109152,4
48249,109190,6
48275,109239,4
48307,109290,5
48332,109365,5
48361,109419,4
48390,109484,5
48428,109530,5
48439,109548,5
48447,109567,5
48460,109607,4
48478,109648,5
48505,109687,5
48529,109719,5
48471,109778,5
48573,109809,4
48595,109861,5
48611,109888,5
48459,109897,5
48608,109878,4
48604,109872,4
48610,109878,5
48415,109876,5
48619,109878,5
48611,109875,4
48618,109891,5
48648,109898,6
48622,109873,4
48605,109859,5
48593,109838,4
48747,109819,5
48563,109794,5
48559,109789,5
48564,109786,5
48756,109806,4
48579,109832,5
48593,109852,5
48611,109899,5
48719,109957,5
48683,110023,4
48704,110047,5
48708,110068,5
48721,110055,5
48728,110106,5
48728,110116,4
48753,110148,5
48757,110035,5
48780,110217,5
48798,110253,5
48812,110280,4
48827,110110,5
48840,110323,5
48846,110345,5
48853,110364,4
48862,110326,5
48884,110413,5
48902,110436,5
48910,110474,5
48923,110618,4
48923,110498,5
48924,110481,5
48914,110465,5
48901,110658,5
48894,110430,4
48886,110423,5
48891,110428,5
48886,110533,5
48875,110408,5
48879,110406,4
48880,110410,5
48884,110453,5
48893,110442,5
48900,110453,6
48924,110483,3
48925,110497,5
48936,110532,5
48951,110542,5
48945,110523,4
48913,110462,5
48888,110422,5
48879,110405,5
48863,110374,5
48852,110345,4
48838,110310,5
48827,110293,5
48818,110273,5
48812,110280,5
48809,110272,4
48815,110306,5
48837,110337,5
48848,110382,5
48878,110404,5
48904,110462,4
48926,110494,5
48932,110509,4
48940,110534,5
48963,110567,5
48968,110604,5
48985,110618,3
48983,110617,5
48989,110618,5
48985,110615,4
48993,110633,4
48991,110645,5
49004,110657,5
49015,110676,5
49034,110719,4
49067,110779,5
49095,110842,5
49106,110845,5
49098,110844,5
49102,110850,4
49106,110839,5
49097,110842,5
49102,110863,5
49111,110877,5
49109,110887,4
49121,110888,5
49118,110861,6
49104,110836,4
49085,110823,5
49084,110806,4
49069,110786,5
49069,110788,5
49076,110792,5
49073,110798,5
49076,110802,4
49072,110802,5
49081,110796,5
49081,110801,5
49087,110816,4
49096,110828,4
49094,110859,5
49121,110896,5
49137,110916,5
49147,110940,4
49163,110987,5
49185,111017,5
49211,111073,5
49224,111112,5
49242,111156,4
49262,111164,5
49262,111180,5
49269,111197,6
49284,111204,4
49287,111222,4
49296,111232,5
49303,111252,5
49309,111258,5
49308,111266,5
49314,111267,4
49239,111272,5
49314,111266,5
49300,111249,5
49295,111240,5
49139,111235,4
49291,111239,5
49295,111222,5
49290,111245,5
49113,111249,4
49305,111253,4
49295,111239,5
49292,111231,5
49297,111198,5
49250,111119,5
49226,111082,4
49210,111057,5
49355,111011,5
49165,110964,6
49151,110936,3
49133,110908,5
49336,110902,5
49117,110892,5
49134,110893,5
49112,110870,4
49181,110865,5
49108,110855,5
49102,110854,5
49090,110841,5
49093,110797,4
49065,110793,5
49065,110775,5
49058,110773,5
49055,110634,5
49045,110765,4
49063,110768,5
49058,110782,5
49060,110598,5
49060,110762,4
49049,110745,5
49030,110734,4
49034,110628,5
49032,110734,5
49040,110748,6
49053,110775,3
49061,110910,5
49058,110781,5
49068,110807,5
49076,110823,8
49074,111020,1
49060,110787,5
49038,110759,5
49043,110726,5
49011,110821,4
48981,110623,5
48943,110556,5
48928,110499,5
48892,110494,5
48869,110419,4
48842,110374,5
48831,110353,5
48820,110330,5
48819,110323,5
48825,110318,4
48806,110321,6
48808,110301,4
48795,110277,5
48784,110262,4
48786,110251,4
48779,110240,5
48778,110237,5
48767,110225,5
48771,110228,4
48766,110231,5
48770,110229,5
48761,110212,5
48748,110200,5
48747,110196,4
48750,110183,5
48755,110186,5
48743,110179,5
48738,110156,5
48709,110117,4
48689,110052,5
48665,110008,5
48634,109954,5
48623,109922,5
48604,109900,4
48596,109886,5
48593,109880,6
48597,109885,4
48594,109883,5
48595,109884,4
48590,109864,5
48585,109870,5
48566,109834,5
48557,109806,4
48538,109778,4
48531,109742,5
48513,109708,5
48466,109599,5
48408,109497,4
48380,109445,5
48338,109375,5
48299,109292,5
48281,109232,5
48265,109206,4
48243,109168,5
48223,109148,5
48231,109134,5
48222,109164,5
48241,109146,4
48221,109141,5
48225,109138,5
48212,109117,6
48208,109113,4
48212,109111,4
48214,109119,5
48218,109120,5
48226,109147,5
48233,109149,4
48229,109151,4
48235,109156,5
48234,109154,5
48233,109158,5
48229,109158,4
48241,109166,4
48246,109166,5
48244,109182,5
48263,109204,5
48280,109235,4
48286,109268,5
48309,109305,5
48326,109338,5
48336,109359,5
48352,109372,5
48336,109358,4
48327,109342,5
48275,109323,5
48314,109309,5
48318,109304,4
48311,109298,5
48171,109292,5
48298,109278,5
48283,109249,5
48267,109211,4
48065,109169,5
48238,109128,5
48211,109110,5
48214,109107,4
48166,109097,4
48204,109086,5
48203,109092,5
48212,109092,5
48352,109111,4
48211,109109,5
48209,109101,5
48205,109093,5
48403,109092,5
48194,109084,4
48200,109067,6
48191,109087,4
48300,109071,5
48185,109056,5
48179,109028,4
48157,109011,5
48178,108990,5
48131,108950,5
48115,108918,5
48100,108900,4
48085,108768,5
48079,108857,5
48073,108841,5
48055,108799,5
48031,108570,4
48010,108712,5
48001,108681,5
47981,108656,5
47968,108447,4
47942,108607,4
47942,108585,5
47932,108570,5
47933,108615,5
47911,108544,4
47925,108538,5
47916,108535,6
47898,108690,4
47870,108450,5
47857,108424,4
47867,108433,5
47861,108571,5
47853,108387,5
47837,108364,5
47824,108338,4
47820,108376,5
47811,108303,5
47805,108294,5
47800,108298,5
47793,108277,4
47790,108241,5
47783,108242,5
47784,108230,5
47774,108238,5
47790,108246,4
47798,108268,5
47801,108274,5
47805,108288,5
47815,108273,4
47811,108284,4
47800,108270,5
47800,108274,6
47801,108276,4
47807,108287,4
47817,108300,5
47829,108318,5
47829,108343,5
47842,108351,5
47837,108341,4
47836,108345,5
47839,108337,5
47826,108334,5
47825,108306,5
47810,108275,4
47798,108255,5
47782,108224,5
47772,108210,5
47762,108181,5
47751,108176,4
47745,108156,5
47730,108143,5
47729,108133,5
47733,108121,5
47717,108095,4
47696,108059,5
47680,108016,5
47663,107991,5
47634,107954,4
47625,107908,4
47614,107899,5
47611,107885,5
47604,107873,5
47594,107861,4
47584,107843,5
47588,107839,5
47578,107826,5
47586,107828,5
47583,107843,4
47581,107844,5
47596,107838,5
47583,107840,5
47589,107845,5
47590,107843,4
47574,107824,5
47589,107823,5
47583,107809,5
47564,107802,5
47568,107797,5
47551,107784,4
47543,107744,5
47536,107711,5
47516,107688,5
47497,107639,4
47480,107598,5
47460,107565,5
47437,107515,5
47409,107456,4
47374,107377,4
47327,107288,5
47298,107218,5
47267,107165,5
47250,107116,4
47237,107085,5
47230,107081,5
47219,107076,5
47224,107061,5
47185,107024,4
47185,106990,5
47162,106942,5
47150,106896,4
47022,106896,5
47148,106902,4
47154,106909,6
47162,106915,3
46984,106907,5
47135,106848,5
47095,106746,4
47073,106709,5
46952,106681,5
47037,106641,5
47013,106595,5
47019,106584,4
47096,106565,5
46990,106543,5
46967,106495,5
46948,106434,4
47112,106396,4
46908,106359,5
46903,106346,5
46894,106325,5
47008,106318,4
46874,106287,5
46863,106266,5
46847,106219,6
46866,106190,4
46822,106169,4
46806,106140,5
46808,106125,5
46806,106044,5
46792,106088,5
46777,106075,4
46782,106065,5
46771,105901,5
46781,106067,5
46772,106075,5
46795,106090,4
46797,105926,5
46805,106125,5
46820,106145,5
46835,106182,5
46850,106220,4
46857,106221,5
46864,106247,5
46872,106273,5
46889,106451,5
46897,106285,4
46891,106292,5
46898,106296,5
46897,106487,6
46908,106303,3
46920,106317,5
46920,106330,5
46925,106415,5
46929,106355,5
46947,106384,4
46960,106407,5
46964,106427,5
46968,106436,5
46972,106452,5
46986,106462,4
46989,106474,5
46988,106471,5
46983,106462,5
46993,106473,5
46997,106495,4
47012,106515,5
47028,106544,5
47048,106596,5
47075,106646,4
47099,106687,5
47119,106733,4
47133,106767,5
47151,106779,5
47150,106789,6
47157,106799,3
47167,106809,5
47164,106817,5
47169,106827,5
47173,106830,4
47167,106813,5
47156,106780,5
47137,106766,5
47131,106757,5
47133,106752,4
47129,106744,5
47124,106753,5
47134,106743,5
47129,106747,5
47133,106742,4
47128,106753,5
47130,106750,5
47134,106761,5
47147,106768,5
47156,106805,4
47176,106848,6
47197,106897,4
47224,106931,5
47225,106949,4
47232,106946,4
47222,106910,5
47212,106893,5
47210,106899,5
47205,106879,4
47184,106856,5
47186,106843,5
47179,106837,5
47172,106827,5
47169,106819,4
47174,106823,5
47171,106819,5
47180,106829,5
47183,106837,5
47185,106829,4
47184,106853,5
47189,106856,5
47203,106879,5
47208,106900,5
47219,106924,4
47238,106958,5
47253,106991,6
47273,107017,4
47275,107045,5
47298,107068,4
47316,107115,5
47340,107154,5
47348,107195,5
47374,107223,4
47388,107251,4
47407,107287,5
47434,107349,5
47452,107409,5
47476,107421,4
47493,107463,5
47493,107459,5
47511,107489,5
47528,107511,5
47521,107519,4
47423,107544,5
47536,107550,5
47545,107536,5
47545,107552,5
47371,107537,4
47535,107542,5
47533,107535,5
47536,107544,6
47396,107544,4
47538,107549,4
47538,107550,5
47544,107553,5
47618,107557,5
47547,107557,5
47549,107574,4
47565,107597,5
47759,107614,5
47587,107652,5
47597,107678,4
47618,107707,4
47781,107761,5
47675,107830,5
47682,107856,5
47705,107875,4
47757,107906,5
47723,107934,5
47743,107957,5
47763,107994,5
47786,107954,5
47789,108058,4
47798,108074,5
47803,108078,5
47804,107937,6
47811,108096,3
47809,108096,5
47815,108100,5
47816,107916,5
47825,108118,5
47824,108130,5
47833,108131,4
47837,108134,5
47839,108129,5
47828,108120,5
47822,108131,4
47837,108293,5
47831,108141,5
47847,108160,5
47854,108189,4
47860,108403,4
47862,108217,5
47872,108223,6
47887,108252,4
47898,108361,4
47904,108284,6
47907,108275,4
47894,108244,5
47890,108274,5
47895,108246,4
47877,108199,5
47849,108183,5
47850,108166,5
47840,108154,5
47838,108135,4
47837,108133,5
47833,108146,5
47847,108158,5
47854,108166,5
47855,108171,4
47854,108187,5
47860,108197,5
47869,108207,5
47878,108219,4
47883,108239,4
47880,108231,5
47895,108257,5
47906,108286,5
47923,108306,4
47933,108337,5
47959,108390,6
47979,108438,4
48016,108494,5
48041,108565,4
48070,108610,5
48083,108630,5
48099,108663,5
48113,108697,5
48132,108744,4
48168,108811,5
48175,108839,5
48189,108839,5
48204,108873,5
48211,108891,4
48221,108908,5
48216,108908,5
48222,108903,5
48208,108887,5
48209,108877,4
48213,108872,5
48202,108860,5
48190,108838,5
48167,108806,4
48156,108779,4
48139,108752,5
48127,108718,6
48119,108692,4
48112,108678,4
48100,108654,5
48077,108629,5
48067,108606,5
48068,108586,5
48064,108591,4
48054,108578,5
48061,108587,5
48059,108570,5
48048,108562,5
48044,108557,4
48024,108535,5
48024,108536,5
48030,108535,5
48026,108542,5
48017,108516,4
48022,108529,5
48014,108504,5
48011,108509,5
48015,108506,5
48008,108515,4
48015,108525,5
48019,108526,5
48027,108544,5
48025,108544,4
48027,108538,4
48027,108545,5
48027,108551,5
48026,108547,5
48033,108561,4
48039,108565,5
48040,108590,5
47959,108601,5
48078,108644,5
48112,108684,4
48129,108744,5
47975,108763,5
48154,108801,5
48191,108842,5
48211,108899,4
48072,108941,5
48249,108976,5
48271,108976,5
48244,108946,5
48287,108926,5
48227,108909,4
48219,108889,5
48204,108874,5
48369,108818,5
48157,108776,4
48136,108716,5
48106,108654,5
48238,108618,5
48066,108588,4
48056,108570,4
48032,108533,5
48072,108524,5
48020,108510,5
48023,108508,4
48015,108483,5
47990,108373,5
47968,108403,5
47953,108373,5
47941,108361,4
47924,108195,5
47921,108320,5
47913,108299,5
47910,108299,5
47907,108090,4
47890,108261,6
47879,108245,4
47881,108227,5
47884,108203,5
47879,108241,4
47888,108242,5
47892,108253,5
47887,108392,5
47897,108259,5
47903,108279,4
47909,108289,5
47910,108486,5
47899,108280,5
47897,108282,4
47894,108266,4
47886,108369,5
47888,108261,5
47887,108241,5
47878,108238,4
47873,108252,5
47875,108236,5
47888,108248,6
47890,108251,4
47884,108243,4
47892,108237,5
47893,108223,5
47858,108177,5
47831,108123,5
47812,108091,4
47806,108090,5
47815,108122,5
47863,108212,5
47930,108357,5
48002,108494,4
48066,108621,5
48104,108681,5
48107,108664,5
48115,108697,4
48170,108804,4
48254,108976,5
48345,109174,5
48459,109366,5
48531,109506,5
48569,109554,4
48589,109588,5
48592,109625,5
48614,109667,6
48623,109684,3
48638,109692,5
48659,109739,5
48689,109796,5
48695,109803,5
48677,109758,4
48649,109705,5
48617,109666,5
48618,109655,5
48633,109693,5
48673,109787,4
48730,109889,5
48786,110013,5
48835,110046,5
48776,109958,5
48746,109923,4
48752,109926,5
48725,109881,5
48724,109883,5
48768,109968,4
48820,110068,5
48825,110064,4
48792,109991,5
48761,109953,5
48777,110005,6
48867,110196,3
49007,110501,5
49239,110935,5
49403,111227,5
49493,111379,4
49574,111563,5
49709,111821,5
49847,112106,5
49939,112227,5
49932,112229,4
50041,112507,5
50206,112845,5
50359,113117,5
50513,113474,5
50731,113849,4
50797,113911,5
50770,113909,5
50842,114040,5
50948,114252,5
51082,114529,4
51309,115010,6
51588,115538,4
51811,115886,5
51885,116009,4
51924,116108,6
52060,116401,3
52253,116785,5
52371,116950,5
52324,117066,4
52451,117140,5
52513,117278,5
52627,117509,5
52569,117774,5
52869,117945,4
52921,118084,5
53007,118238,5
52827,118357,5
53128,118476,5
53175,118586,4
53207,118669,5
53294,118767,5
53301,118868,5
53326,118941,5
53397,119100,4
53703,119261,5
53536,119319,6
53570,119398,4
53607,119479,5
53928,119681,4
53793,119824,5
53799,119818,5
53771,119822,5
53891,119870,4
53801,119867,4
53794,119874,5
53819,119949,5
53835,119891,5
53796,119867,4
53772,119854,5
53785,119929,5
53857,119895,5
53903,120140,5
53911,120133,4
53838,120001,5
53719,119551,5
53634,119669,5
53574,119542,5
53466,119351,4
53367,119043,5
53237,118962,5
53174,118853,6
53114,118760,4
53088,118884,4
53089,118716,5
53052,118664,5
52977,118501,5
52889,118613,5
52865,118356,4
52914,118444,5
52949,118517,5
52972,118680,5
52994,118576,4
53048,118668,4
53087,118729,5
53067,118742,5
53046,118652,5
52986,118559,4
52943,118474,5
52926,118444,5
52899,118395,5
52899,118409,5
52898,118397,5
52862,118300,4
52731,118068,5
52604,117857,5
52513,117705,6
52472,117642,3
52425,117533,5
52374,117468,5
52345,117431,5
52352,117446,5
52346,117434,4
52351,117445,5
52365,117456,5
52373,117497,5
52415,117594,4
52522,117774,4
52623,117959,5
52769,118228,5
52888,118399,5
52948,118507,4
53025,118606,5
53122,118794,5
53253,119068,5
53380,119283,5
53497,119466,4
53562,119568,6
53547,119533,4
53544,119538,5
53575,119610,5
53642,119749,4
53740,119890,5
53783,119970,5
53821,120024,5
53854,120119,5
53940,120258,4
53972,120286,5
53967,120298,5
53986,120335,5
54026,120406,5
54009,120339,4
53971,120295,5
53976,120301,5
53990,120334,5
54010,120349,4
54001,120337,4
53965,120264,5
53956,120290,5
53994,120344,5
54006,120348,4
54010,120381,5
54064,120466,6
54093,120502,4
54069,120445,5
54051,120447,4
54095,120514,5
54100,120529,5
54108,120536,5
54091,120480,5
54073,120487,4
54096,120501,5
54073,120454,5
54058,120421,5
54051,120433,5
54098,120512,4
54171,120635,5
54223,120722,5
54283,120827,5
54348,120923,5
54401,121010,4
54451,121063,5
54420,120987,5
54363,120899,5
54328,120848,4
54317,120835,4
54241,120867,5
54361,120899,6
54361,120875,4
54376,120940,4
54248,121076,5
54541,121178,5
54607,121297,5
54654,121362,5
54372,121265,4
54551,121158,5
54585,121191,5
54581,121160,5
54549,121165,5
54617,121253,4
54721,121404,5
54817,121574,5
55172,121788,5
55099,122015,5
55282,122297,4
55406,122446,5
55768,122498,5
55514,122596,5
55623,122755,5
55739,122941,4
56067,123261,5
56232,123686,5
56501,124102,5
56887,124652,4
57258,125129,4
57417,125382,5
57545,125601,5
57787,125958,5
57987,126028,4
58161,126481,5
58381,126824,5
58581,127117,5
58765,127036,5
58915,127589,4
59172,128019,5
59613,128588,5
60091,129093,5
60529,129866,5
60835,130298,5
61104,130682,4
61460,131368,5
61839,130963,5
62060,131205,5
62166,131366,5
62304,131970,4
62605,132009,5
63035,132448,5
63294,132798,5
63522,133403,4
63764,133462,5
63976,133759,5
64182,134046,5
64519,134610,8
64912,135056,1
65228,135395,5
65286,135470,5
65375,135593,5
65495,135758,4
65475,135616,5
65185,135230,5
65018,135120,5
65000,135048,5
64752,134663,4
64355,134145,5
64005,133753,5
63901,133658,5
63839,133563,5
63655,133289,4
63442,133057,6
63300,132862,4
63100,132565,5
62941,132368,5
62861,132265,4
62771,132123,5
62610,131904,5
62446,131713,5
62371,131633,4
62326,131575,4
62286,131519,5
62243,131488,5
62241,131495,5
62211,131432,4
62105,131273,5
61980,131103,5
61889,130998,5
61813,130923,5
61777,130883,4
61808,130945,5
61810,130909,5
61705,130734,5
61500,130432,5
61229,130061,4
60937,129672,5
60686,129354,5
60519,129150,5
60426,129049,5
60393,129013,4
60345,128940,5
60266,128845,5
60174,128679,5
60037,128527,5
59969,128430,4
59909,128347,5
59861,128284,5
59879,128303,5
59883,128306,4
59882,128303,4
59897,128329,5
59930,128377,5
59977,128426,5
59996,128456,4
60018,128484,5
60004,128460,5
60014,128494,5
60020,128487,5
60003,128471,4
60015,128484,5
60028,128517,5
60056,128544,5
60104,128615,5
60185,128741,4
60304,128905,5
60389,128999,5
60454,129084,5
60484,129120,5
60469,129091,4
60455,129090,5
60486,129117,5
60522,129178,5
60574,129252,5
60619,129303,4
60663,129358,5
60695,129423,5
60646,129466,5
60778,129527,4
60815,129601,5
60866,129673,4
60672,129781,5
61019,129868,5
61055,129912,6
61089,129964,3
60777,130022,5
61154,130071,5
61194,130106,5
61209,130120,4
61138,130140,5
61212,130149,5
61226,130138,5
61211,130143,5
61460,130132,4
61179,130089,5
61102,129985,5
61033,129879,5
61376,129827,5
60960,129780,4
60926,129734,5
60891,129700,5
61069,129675,5
60854,129666,5
60832,129648,4
60834,129626,6
60863,129604,4
60793,129565,5
60717,129437,4
60620,129298,6
60506,128935,3
60387,128989,5
60274,128832,5
60205,128746,4
60140,128351,5
60096,128623,5
60046,128567,5
59977,128456,5
59905,128085,4
59856,128309,5
59791,128210,5
59723,128126,5
59657,128191,5
59598,127943,4
59521,127843,5
59417,127679,5
59281,127864,5
59174,127347,5
59065,127196,4
58948,127013,5
58843,127177,6
58749,126753,4
58674,126637,4
58594,126518,4
58518,126513,5
58439,126298,5
58340,126154,5
58242,126022,4
58148,125907,5
58081,125788,5
58002,125686,5
57942,125620,5
57911,125572,4
57867,125510,5
57819,125430,5
57771,125368,5
57721,125295,5
57679,125229,4
57642,125192,5
57629,125184,5
57642,125199,5
57654,125214,5
57645,125184,4
57625,125174,5
57611,125145,5
57591,125131,6
57572,125086,4
57546,125049,4
57539,125042,5
57522,125016,5
57516,125010,5
57514,125008,4
57511,125015,4
57513,125019,5
57511,125023,5
57519,125030,5
57506,125028,4
57512,125025,5
57491,124992,5
57457,124934,5
57415,124880,5
57387,124830,4
57359,124790,5
57336,124745,5
57301,124695,5
57268,124648,5
57241,124606,5
57207,124572,4
57185,124535,5
57173,124524,5
57167,124517,6
57155,124505,3
57136,124474,5
57104,124428,5
57077,124393,5
57055,124351,5
57033,124338,4
57025,124325,5
57029,124315,5
57019,124306,5
57018,124294,4
56990,124244,4
56955,124206,5
56903,124104,5
56825,123993,5
56759,123905,4
56709,123814,5
56648,123731,5
56582,123621,5
56523,123535,5
56463,123447,4
56419,123383,6
56387,123354,4
56346,123297,5
56326,123254,5
56299,123197,4
56256,123131,5
56228,123073,5
56198,123034,5
56170,123009,5
56145,122980,4
56126,122941,5
56110,122896,5
56091,122881,5
56085,122859,5
56012,122880,4
56075,122847,5
56042,122797,5
56011,122742,5
55709,122627,4
55858,122486,4
55774,122371,5
55714,122259,5
55352,122184,5
55623,122106,4
55584,122042,5
55552,121977,6
55437,121933,4
55477,121889,5
55453,121826,4
55433,121804,5
55630,121761,5
55378,121699,5
55353,121668,5
55334,121638,4
55645,121604,5
55286,121554,5
55256,121515,5
55249,121504,5
55407,121482,4
55226,121478,5
55212,121434,5
55184,121381,5
55185,121335,5
55125,121281,4
55105,121256,5
55087,121226,5
55080,121048,5
55081,121210,4
55070,121211,5
55075,121201,5
55058,120901,6
55056,121187,4
55040,121144,5
55005,121100,4
54976,120801,5
54955,121006,5
54926,120977,5
54911,120935,4
54897,121036,5
54874,120894,5
54869,120868,5
54846,120834,5
54812,121082,4
54775,120728,5
54755,120672,5
54728,120637,5
54707,120878,5
54687,120591,4
54667,120559,5
54652,120550,5
54646,120591,5
54625,120490,5
54607,120457,4
54597,120435,5
54584,120426,5
54590,120423,5
54606,120444,4
54600,120447,5
54604,120439,5
54596,120437,5
54603,120439,5
54598,120438,4
54583,120411,5
54567,120391,5
54549,120359,5
54539,120333,5
54518,120310,4
54491,120283,5
54486,120263,5
54472,120245,5
54469,120235,5
54462,120218,4
54437,120191,5
54413,120146,5
54391,120113,5
54376,120076,5
54355,120038,5
54330,119993,4
54301,119956,5
54279,119907,5
54249,119852,4
54197,119786,4
54166,119729,5
54125,119670,5
54101,119605,5
54080,119574,4
54070,119544,5
54058,119536,5
54046,119503,5
54035,119490,5
54018,119457,4
53991,119412,5
53978,119395,5
53963,119357,5
53946,119323,5
53923,119293,4
53921,119259,5
53905,119240,5
53884,119212,5
53878,119196,5
53854,119133,4
53794,119042,6
53742,118936,4
53695,118849,5
53626,118747,5
53595,118684,4
53551,118612,5
53529,118568,5
53498,118511,5
53466,118451,4
53450,118406,4
53420,118356,5
53394,118301,5
53364,118273,5
53351,118243,4
53329,118212,5
53328,118193,5
53307,118176,5
53309,118152,5
53297,118128,4
53287,118114,5
53272,118095,5
53254,118053,5
53242,118038,5
53227,118012,4
53208,117983,5
53194,117938,6
53157,117891,4
53138,117853,5
53117,117830,4
53108,117803,5
53030,117787,5
53088,117774,5
53101,117785,5
53103,117807,4
52894,117791,5
53095,117770,5
53083,117747,5
53072,117714,4
52771,117687,4
53027,117657,5
53010,117628,5
52988,117591,5
52881,117557,4
52955,117523,5
52944,117482,5
52917,117449,5
53088,117402,5
52866,117348,4
52844,117308,5
52830,117262,5
53094,117234,5
52775,117189,5
52760,117157,4
52751,117132,5
52893,117134,5
52736,117117,5
52734,117104,5
52739,117114,4
52770,117099,5
52726,117083,5
52729,117088,5
52726,117076,4
52725,116923,4
52723,117066,5
52716,117050,5
52699,117039,5
52696,116780,4
52696,117032,5
52706,117049,5
52712,117080,5
52725,116832,5
52742,117112,5
52754,117119,4
52757,117145,4
52764,117250,5
52784,117185,5
52803,117222,4
52825,117274,5
52856,117602,5
52890,117383,5
52925,117428,5
52940,117451,4
52961,117732,5
52971,117500,5
52982,117505,5
52987,117519,5
52993,117622,4
52995,117538,5
53004,117550,5
53008,117564,5
53017,117591,4
53043,117614,4
53047,117628,6
53075,117648,5
53077,117670,4
53083,117697,4
53100,117722,7
53114,117722,3
53120,117745,5
53119,117758,5
53134,117781,4
53141,117798,5
53151,117812,5
53176,117849,5
53200,117888,5
53222,117920,4
53231,117936,5
53220,117914,5
53204,117885,5
53192,117872,5
53194,117870,4
53183,117841,5
53174,117816,5
53158,117806,5
53148,117794,5
53139,117787,4
53144,117769,5
53131,117760,6
53128,117771,4
53133,117773,4
53147,117775,4
53145,117801,5
53159,117809,5
53152,117815,5
53167,117815,4
53180,117848,5
53175,117856,5
53189,117874,5
53207,117901,5
53216,117923,4
53235,117947,5
53267,117998,5
53292,118025,5
53311,118053,5
53312,118063,4
53312,118084,5
53332,118089,5
53335,118118,5
53342,118119,5
53351,118154,4
53375,118197,5
53393,118224,5
53394,118226,6
53401,118236,4
53401,118239,4
53404,118235,5
53404,118234,5
53411,118248,5
53404,118256,4
53410,118253,4
53425,118263,5
53421,118256,5
53416,118243,5
53407,118227,4
53407,118236,5
53402,118233,5
53408,118233,5
53414,118256,5
53420,118260,4
53427,118269,5
53437,118302,5
53454,118306,5
53464,118329,5
53472,118329,5
53480,118360,4
53490,118383,5
53505,118409,5
53474,118438,6
53538,118453,3
53555,118496,5
53568,118535,5
53391,118558,5
53613,118586,4
53610,118610,4
53627,118628,5
53369,118649,5
53659,118673,5
53668,118678,4
53666,118684,5
53561,118709,5
53683,118723,5
53684,118725,5
53691,118732,4
53865,118723,5
53674,118724,5
53676,118710,5
53683,118721,5
53979,118719,4
53708,118768,6
53721,118788,4
53746,118825,5
53932,118849,5
53773,118871,4
53783,118889,5
53790,118917,5
53856,118934,5
53831,118959,5
53837,118974,4
53851,118982,5
53842,118837,5
53828,118945,5
53801,118931,4
53793,118909,4
53776,118628,5
53767,118866,5
53751,118834,5
53730,118801,4
53716,118500,5
53707,118758,5
53716,118770,5
53713,118784,5
53718,118856,4
53728,118814,5
53736,118821,6
53745,118830,4
53743,119104,5
53752,118852,4
53761,118860,5
53771,118879,5
53790,119186,5
53803,118940,5
53829,118969,4
53846,118997,5
53857,119129,5
53861,119039,5
53877,119041,5
53879,119070,4
53899,119115,5
53908,119125,5
53934,119162,5
53975,119221,4
53996,119267,4
54007,119289,5
54033,119323,5
54053,119391,5
54085,119404,4
54085,119402,5
54086,119411,5
54087,119417,6
54103,119422,4
54102,119437,4
54106,119439,5
54097,119455,5
54105,119441,5
54103,119432,5
54105,119443,4
54120,119456,5
54121,119480,5
54133,119473,5
54124,119480,5
54132,119489,4
54134,119504,5
54148,119518,5
54155,119532,5
54178,119563,5
54189,119595,4
54204,119611,5
54213,119621,5
54229,119640,5
54243,119673,5
54267,119717,4
54299,119768,5
54325,119816,5
54347,119866,6
54369,119888,3
54378,119905,5
54390,119923,5
54396,119942,5
54408,119938,5
54408,119958,4
54409,119967,5
54414,119963,5
54419,119974,5
54419,119971,5
54418,119968,4
54411,119972,5
54403,119956,5
54404,119961,5
54412,119952,5
54408,119960,4
54403,119948,5
54400,119951,5
54404,119959,5
54413,119961,5
54419,119966,5
54419,119979,4
54438,120011,5
54467,120044,5
54477,120083,4
54489,120104,4
54500,120101,5
54496,120085,5
54461,120038,5
54443,120002,4
54426,119976,5
54404,119926,5
54389,119894,5
54354,119863,5
54340,119832,4
54327,119803,5
54303,119782,5
54305,119764,5
54295,119757,5
54294,119751,4
54287,119766,5
54303,119760,5
54303,119785,5
54314,119795,5
54131,119810,4
54327,119814,6
54342,119832,4
54353,119841,5
54080,119862,5
54364,119888,4
54370,119881,5
54373,119893,5
54202,119885,5
54375,119891,4
54373,119897,4
54380,119890,5
54515,119891,5
54377,119883,5
54378,119897,4
54382,119901,5
54667,119880,5
54362,119860,5
54341,119833,5
54330,119821,4
54523,119791,5
54301,119771,5
54288,119745,6
54271,119723,4
54333,119716,4
54265,119712,5
54257,119685,6
54251,119682,4
54240,119549,5
54236,119637,4
54220,119622,5
54217,119614,5
54205,119356,5
54206,119591,5
54207,119593,4
54191,119575,5
54187,119277,5
54188,119555,5
54177,119557,5
54175,119538,4
54178,119553,5
54166,119541,5
54166,119532,5
54172,119541,4
54175,119815,5
54174,119566,5
54193,119568,5
54188,119568,5
54177,119865,4
54169,119533,5
54157,119504,5
54144,119499,5
54129,119590,5
54117,119448,4
54099,119421,5
54090,119410,5
54082,119418,5
54080,119389,5
54078,119376,4
54080,119386,5
54069,119381,5
54067,119372,5
54052,119353,4
54058,119335,4
54045,119321,5
54034,119305,5
54030,119303,5
54027,119285,4
54021,119289,5
54012,119282,5
54016,119281,5
53995,119245,5
53971,119191,5
53936,119148,4
53912,119077,5
53868,119009,5
53838,118945,5
53798,118896,4
53774,118867,5
53742,118814,5
53741,118803,5
53736,118811,5
53733,118802,4
53742,118802,5
53734,118798,5
53739,118792,5
53717,118775,5
53723,118763,4
53702,118741,5
53712,118745,5
53694,118739,5
53706,118742,4
53700,118729,4
53693,118736,5
53698,118744,5
53695,118729,5
53697,118736,4
53709,118750,6
53705,118745,4
53696,118751,5
53712,118762,5
53715,118751,4
53712,118766,5
53709,118766,5
53696,118744,5
53701,118748,5
53707,118747,4
53691,118752,5
53691,118739,5
53686,118735,5
53683,118729,5
53670,118697,4
53653,118669,5
53634,118623,5
53613,118594,5
53603,118564,5
53582,118549,4
53572,118528,5
53566,118504,5
53548,118477,4
53535,118461,4
53525,118449,4
53523,118432,5
53511,118424,5
53503,118402,5
53490,118385,4
53491,118375,5
53482,118375,5
53480,118371,5
53479,118368,5
53481,118377,4
53487,118384,5
53495,118383,5
53485,118391,5
53498,118401,5
53504,118402,4
53495,118396,5
53337,118396,5
53490,118379,5
53481,118365,5
53469,118348,4
53190,118316,5
53435,118276,5
53411,118242,6
53397,118200,4
53131,118182,4
53363,118175,5
53365,118158,5
53351,118134,5
53441,118117,4
53325,118112,4
53322,118098,5
53321,118094,5
53592,118082,5
53319,118083,4
53302,118066,5
53305,118063,5
53519,118056,5
53306,118075,5
53314,118089,4
53319,118104,5
53394,118095,5
53316,118081,5
53283,118023,5
53249,117984,5
53235,117847,4
53208,117887,5
53178,117854,5
53166,117827,6
53146,117561,3
53124,117767,5
53116,117748,5
53107,117711,5
53096,117418,4
53073,117684,4
53062,117646,5
53050,117635,5
53056,117618,5
53037,117609,4
53033,117599,5
53036,117607,5
53029,117815,5
53025,117592,5
53029,117594,4
53028,117602,5
53044,117914,5
53047,117619,5
53047,117623,5
53050,117632,4
53055,117759,6
53054,117628,4
53043,117626,5
53047,117624,5
53043,117643,6
53046,117616,3
53040,117620,5
53056,117630,5
53048,117638,5
53054,117640,4
53051,117617,5
53036,117615,5
53034,117605,5
53026,117605,8
53025,117592,1
53030,117591,5
53010,117585,5
53022,117582,5
53016,117561,4
53012,117551,5
53002,117535,5
52985,117523,5
52978,117500,5
52970,117474,4
52949,117442,5
52925,117405,6
52906,117373,4
52898,117353,5
52876,117315,4
52858,117287,5
52858,117267,5
52828,117245,5
52838,117247,5
52823,117220,4
52817,117206,5
52806,117206,5
52808,117212,5
52818,117216,5
52820,117217,4
52811,117195,5
52786,117152,5
52772,117123,5
52752,117091,4
52733,117053,4
52715,117021,5
52696,116991,5
52682,116965,5
52669,116925,4
52641,116865,5
52616,116827,5
52589,116782,6
52576,116747,4
52561,116734,4
52565,116732,5
52564,116733,5
52565,116732,5
52546,116705,5
52535,116673,4
52530,116655,5
52545,116679,5
52557,116745,5
52612,116837,5
52650,116897,4
52681,116918,5
52681,116927,5
52684,116933,5
52690,116957,4
52726,116983,4
52720,116992,5
52735,117034,5
52765,117072,5
52752,117030,5
52711,116963,4
52671,116884,5
52644,116859,5
52638,116838,6
52634,116835,3
52604,116771,5
52524,116622,5
52464,116530,5
52442,116509,5
52463,116519,4
52465,116528,5
52481,116551,5
52504,116597,5
52409,116654,5
52583,116737,4
52623,116787,5
52604,116757,5
52369,116768,5
52627,116809,5
52678,116922,4
52730,117004,5
52519,117072,5
52791,117079,5
52794,117118,4
52816,117161,5
52908,117186,4
52861,117219,5
52872,117243,5
52893,117297,4
53170,117348,5
52939,117338,5
52917,117320,5
52897,117290,5
53121,117257,4
52889,117280,5
52899,117295,5
52895,117283,5
52970,117264,5
52872,117230,4
52862,117248,5
52885,117272,5
52905,117216,5
52883,117245,5
52844,117185,4
52799,117107,5
52776,116868,5
52772,117066,5
52773,117061,5
52721,116932,4
52623,116510,6
52586,116734,4
52615,116778,5
52641,116801,4
52653,116756,4
52656,116828,5
52675,116868,5
52722,116933,5
52737,117143,4
52752,116991,5
52778,117040,5
52806,117079,5
52819,117412,5
52860,117168,4
52880,117203,5
52905,117246,5
52927,117410,5
52923,117265,5
52924,117283,4
52950,117336,5
52983,117422,5
53028,117466,5
53071,117543,5
53092,117571,4
53096,117585,5
53114,117616,6
53119,117636,4
53141,117663,5
53149,117681,4
53173,117731,5
53219,117804,5
53272,117914,5
53314,117970,4
53333,117998,4
53347,118034,5
53356,118036,5
53331,118006,5
53332,117991,4
53319,117980,5
53296,117954,5
53291,117934,5
53298,117933,5
53296,117929,4
53296,117935,5
53298,117923,5
53295,117921,5
53281,117914,5
53278,117905,4
53271,117884,5
53268,117896,5
53266,117894,5
53251,117884,5
53255,117879,4
53262,117891,5
53272,117901,5
53275,117903,5
53272,117904,5
53274,117922,4
53280,117923,5
53274,117919,5
53279,117915,5
53278,117921,4
53287,117926,4
53280,117932,5
53291,117939,5
53292,117944,5
53285,117941,4
53300,117941,5
53296,117954,5
53300,117965,5
53298,117953,5
53307,117972,5
53302,117977,4
53307,117979,5
53303,117982,5
53320,117998,5
53318,118011,4
53329,118017,5
53329,118019,5
53331,118023,5
53334,118042,5
53336,118034,4
53339,118033,5
53341,118051,5
53346,118041,5
53355,118075,4
53374,118121,4
53403,118178,5
53442,118225,5
53465,118271,5
53491,118322,4
53512,118356,5
53519,118379,5
53530,118402,5
53560,118432,5
53572,118472,4
53615,118535,6
53633,118572,4
53655,118624,5
53681,118658,5
53695,118681,4
53573,118690,5
53700,118691,5
53705,118701,5
53706,118694,5
53459,118694,4
53701,118705,5
53702,118708,5
53714,118710,5
53454,118712,5
53723,118712,4
53715,118717,5
53725,118718,5
53798,118732,5
53735,118754,4
53745,118784,4
53774,118803,5
54032,118822,5
53796,118854,5
53817,118889,4
53842,118946,5
54119,118998,6
53903,119044,4
53923,119077,5
53940,119100,4
54019,119082,5
53912,119054,5
53905,119041,5
53903,119012,5
53895,118924,4
53875,118979,5
53868,118950,5
53846,118932,5
53833,118699,5
53826,118891,4
53818,118883,5
53809,118862,5
53805,118589,5
53807,118861,5
53810,118875,5
53821,118880,4
53828,118846,5
53835,118907,5
53849,118931,3
53857,118949,4
53859,119170,5
53878,118983,5
53895,119012,5
53908,119027,4
53912,119347,5
53922,119064,5
53943,119093,5
53952,119113,5
53960,119293,4
53980,119165,5
54003,119204,5
54019,119234,5
54038,119292,5
54041,119277,4
54051,119282,5
54057,119291,5
54062,119314,5
54084,119327,5
54093,119368,5
54099,119373,4
54117,119401,5
54121,119415,5
54121,119424,6
54130,119412,3
54125,119425,5
54115,119418,5
54127,119420,5
54126,119425,4
54127,119428,4
54134,119436,5
54137,119441,5
54141,119445,5
54145,119445,4
54147,119449,5
54150,119472,5
54164,119480,5
54177,119487,5
54176,119507,4
54182,119527,5
54189,119536,5
54204,119563,5
54210,119578,5
54231,119613,4
54247,119634,6
54251,119670,4
54267,119694,5
54303,119730,5
54312,119751,6
54337,119785,3
54350,119819,5
54370,119841,5
54379,119859,4
54387,119857,4
54396,119873,5
54402,119885,5
54404,119882,5
54397,119886,4
54404,119880,5
54386,119868,5
54377,119858,5
54375,119835,5
54369,119825,4
54366,119812,5
54360,119815,5
54363,119803,5
54358,119809,5
54353,119816,4
54357,119817,5
54357,119821,6
54365,119826,4
54375,119835,5
54378,119829,4
54377,119832,5
54372,119835,5
54374,119848,5
54385,119858,5
54386,119867,4
54397,119884,5
54398,119877,5
54389,119850,5
54371,119845,4
54359,119810,4
54335,119753,5
54318,119707,5
54270,119671,5
54251,119610,4
54221,119564,5
54197,119530,5
54177,119497,5
54173,119493,5
54169,119485,4
54175,119481,5
54177,119496,5
54059,119509,6
54180,119495,4
54183,119499,4
54175,119485,5
53932,119482,5
54162,119479,5
54167,119478,5
54162,119484,4
53896,119476,5
54171,119489,5
54179,119510,5
54183,119512,5
54220,119514,4
54172,119496,5
54170,119478,5
54160,119470,5
54396,119453,4
54147,119460,4
54152,119476,5
54163,119473,5
54432,119472,5
54148,119472,5
54161,119474,4
54151,119470,5
54262,119470,5
54170,119479,6
54158,119499,3
54172,119492,5
54183,119448,5
54159,119497,5
54170,119503,5
54160,119479,4
54156,119270,5
54148,119467,5
54143,119431,5
54119,119405,5
54107,119120,4
54098,119370,5
54087,119350,5
54085,119345,5
54079,119231,5
54077,119338,4
54078,119335,5
54070,119331,5
54068,119516,5
54078,119336,4
54067,119318,6
54054,119312,4
54063,119614,5
54062,119322,5
54070,119339,4
54075,119340,5
54078,119524,5
54092,119368,5
54099,119371,5
54084,119365,4
54086,119397,5
54075,119342,5
54071,119330,5
54073,119327,5
54076,119341,4
54071,119332,5
54071,119337,5
54073,119342,5
54062,119324,5
54068,119322,4
54057,119303,5
54044,119292,5
54037,119278,5
54021,119247,4
54011,119227,4
53997,119200,6
53971,119168,6
53959,119134,3
53939,119116,4
53922,119086,5
53913,119057,5
53898,119018,5
53874,119006,5
53867,118979,4
53865,118977,5
53862,118955,5
53853,118959,5
53847,118950,5
53852,118951,4
53856,118948,5
53857,118949,5
53850,118961,5
53840,118937,5
53833,118940,4
53826,118933,5
53825,118914,5
53820,118893,5
53805,118841,5
53758,118806,4
53735,118758,5
53724,118717,6
53693,118650,4
53663,118600,4
53642,118555,4
53607,118507,5
53583,118455,5
53557,118432,5
53545,118401,4
53528,118393,5
53534,118377,5
53528,118374,5
53519,118369,5
53509,118368,4
53506,118350,5
53503,118357,5
53503,118354,5
53507,118335,5
53502,118335,4
53499,118332,5
53496,118334,5
53498,118329,5
53501,118337,5
53496,118317,4
53496,118327,5
53480,118319,5
53473,118300,6
53475,118288,4
53468,118279,4
53450,118272,5
53456,118261,5
53447,118264,5
53449,118259,4
53443,118249,4
53433,118239,5
53435,118264,5
53439,118243,5
53434,118253,4
53447,118265,5
53450,118271,5
53438,118251,5
53425,118233,5
53316,118195,4
53405,118173,5
53387,118144,5
53372,118128,5
53135,118117,5
53362,118107,5
53351,118092,4
53340,118084,5
53067,118060,5
53328,118053,5
53314,118024,4
53301,118005,5
53315,117970,5
53266,117949,5
53255,117936,5
53248,117926,4
53478,117922,5
53253,117912,5
53258,117922,5
53268,117933,4
53524,117925,4
53252,117930,5
53259,117928,5
53254,117925,5
53354,117926,4
53253,117916,5
53241,117915,6
53233,117899,4
53247,117864,5
53238,117896,4
53240,117893,7
53234,117897,3
53230,117690,5
53236,117879,5
53212,117850,4
53198,117811,5
53171,117509,5
53158,117741,5
53140,117710,5
53121,117697,4
53108,117582,5
53101,117659,5
53097,117644,5
53085,117623,5
53059,117763,4
53034,117531,5
53026,117498,5
53009,117455,5
52977,117697,4
52954,117361,4
52932,117336,5
52924,117329,5
52911,117459,5
52910,117275,4
52894,117248,5
52879,117217,6
52854,117240,4
52840,117170,5
52833,117162,4
52822,117147,5
52801,117110,5
52790,117095,5
52793,117077,5
52782,117057,4
52768,117049,5
52770,117037,5
52761,117034,5
52760,117018,5
52735,116954,4
52706,116890,5
52661,116833,5
52635,116770,5
52578,116662,4
52540,116588,4
52509,116535,5
52469,116485,5
52455,116435,5
52427,116385,4
52408,116362,5
52386,116328,5
52375,116301,5
52377,116276,5
52361,116275,4
52361,116268,5
52361,116265,5
52362,116255,5
52353,116254,5
52352,116243,4
52336,116216,5
52332,116200,5
52323,116188,5
52321,116186,5
52323,116170,4
52318,116176,5
52320,116164,5
52306,116148,5
52297,116147,5
52296,116136,4
52299,116131,4
52290,116108,5
52279,116088,5
52272,116076,5
52262,116064,3
52243,116034,5
52224,116000,5
52208,115951,5
52176,115899,4
52160,115860,5
52138,115839,5
52130,115817,5
52114,115797,5
52100,115760,4
52093,115728,5
52074,115697,5
52066,115681,5
52052,115659,5
52050,115641,4
52046,115629,5
52034,115619,5
52027,115600,5
52016,115591,5
52023,115580,4
52017,115562,6
52001,115551,4
51993,115546,5
51998,115547,5
51992,115550,6
52005,115541,3
51995,115558,5
52009,115566,5
52025,115578,4
52028,115605,4
52040,115644,5
52063,115672,5
52081,115706,5
52102,115736,4
52113,115751,5
52013,115779,5
52138,115814,5
52178,115876,5
52212,115925,4
52016,115990,5
52267,116040,5
52287,116082,5
52327,116134,5
52094,116179,4
52368,116182,5
52362,116200,6
52373,116216,4
52428,116234,5
52386,116245,4
52397,116259,5
52409,116284,5
52650,116291,5
52433,116328,5
52447,116355,4
52472,116381,5
52730,116418,5
52509,116460,5
52528,116493,4
52542,116511,5
52639,116534,5
52568,116561,5
52586,116585,5
52595,116610,4
52617,116584,5
52615,116657,5
52642,116693,5
52659,116713,5
52667,116526,4
52662,116712,5
52655,116712,5
52651,116692,6
52625,116399,4
52612,116637,4
52606,116606,5
52591,116584,5
52576,116499,5
52568,116548,5
52563,116535,4
52567,116548,5
52577,116758,5
52580,116587,5
52592,116605,4
52612,116641,4
52627,116955,5
52638,116670,5
52650,116682,5
52659,116701,4
52664,116865,5
52664,116725,5
52675,116749,5
52689,116781,5
52704,116843,5
52716,116835,4
52735,116862,5
52747,116861,5
52732,116874,6
52748,116883,3
52758,116899,5
52763,116912,5
52768,116922,5
52772,116940,5
52783,116938,4
52782,116938,5
52784,116940,5
52791,116938,5
52782,116941,4
52781,116938,4
52786,116950,5
52789,116941,5
52788,116943,5
52784,116945,4
52784,116941,5
52780,116934,5
52783,116933,5
52790,116934,5
52783,116957,4
52798,116957,6
52803,116974,4
52801,116965,5
52803,116966,5
52805,116966,4
52797,116970,5
52803,116978,5
52811,116993,5
52823,117012,5
52820,117028,4
52841,117046,5
52846,117066,5
52857,117095,5
52865,117094,5
52880,117103,4
52887,117108,5
52879,117112,5
52883,117115,5
52890,117127,4
52887,117128,4
52906,117150,5
52905,117164,5
52901,117177,5
52918,117174,4
52905,117181,5
52916,117175,6
52915,117167,4
52906,117163,5
52891,117144,4
52893,117138,5
52894,117119,5
52881,117114,5
52886,117111,5
52880,117107,4
52882,117109,5
52884,117120,5
52886,117126,5
52896,117134,5
52903,117155,4
52920,117179,5
52937,117213,5
52946,117229,5
52963,117244,4
52962,117267,4
52970,117262,5
52960,117236,5
52929,117186,5
52919,117159,4
52894,117115,5
52867,117074,5
52849,117066,6
52851,117051,4
52851,117045,4
52843,117051,5
52850,117060,5
52858,117064,5
52711,117064,5
52859,117078,4
52861,117081,5
52865,117085,5
52619,117086,5
52882,117105,5
52891,117125,4
52897,117150,5
52723,117170,5
52925,117202,5
52944,117234,5
52962,117252,4
53073,117258,5
52981,117277,5
52978,117301,5
52996,117313,5
53263,117320,4
52998,117323,5
53009,117337,5
53020,117357,6
53220,117362,3
53032,117384,5
53035,117392,5
53041,117398,5
53116,117430,5
53068,117448,4
53065,117447,5
53066,117458,5
53074,117347,5
53082,117467,5
53071,117470,4
53080,117481,5
53089,117263,5
53083,117475,5
53084,117477,5
53081,117473,4
53072,117211,5
53082,117477,5
53074,117460,5
53072,117457,4
53070,117495,5
53071,117458,4
53063,117443,5
53057,117443,5
53056,117674,4
53062,117454,5
53078,117497,5
53112,117544,5
53150,117905,5
53174,117676,4
53195,117714,5
53212,117738,5
53223,117883,5
53258,117819,5
53283,117875,4
53315,117936,5
53339,117986,5
53377,118050,5
53421,118149,5
53485,118266,4
53548,118372,5
53581,118418,5
53582,118403,5
53564,118364,5
53562,118404,4
53640,118569,6
53767,118814,4
53927,119103,5
54110,119406,4
54255,119649,4
54425,119946,5
54549,120158,5
54653,120326,5
54736,120478,4
54863,120695,5
54994,120946,5
55136,121175,5
55233,121357,5
55311,121466,8
55377,121566,1
55414,121636,5
55427,121686,5
55486,121754,5
55543,121864,4
55659,122044,5
55767,122223,5
55840,122358,5
56006,122656,5
56195,122967,4
56370,123245,5
56534,123515,6
56678,123734,4
56818,123965,4
56898,124113,4
57062,124423,5
57262,124761,5
57428,125075,5
57584,125309,4
57681,125425,5
57668,125375,5
57630,125407,5
57711,125562,5
57842,125807,4
57993,126083,5
58142,126303,5
58155,126302,5
58107,126255,5
58162,126382,4
58286,126597,5
58409,126826,5
58552,127102,5
58691,127371,5
58838,127607,4
58920,127759,5
58929,127784,5
58970,127883,5
59099,128128,5
59228,128319,4
59370,128610,5
59598,128984,5
59714,129167,5
59769,129263,4
59778,129287,5
59754,129264,5
59808,129408,5
59933,129648,5
60040,129800,4
60029,129796,5
60079,129939,5
60232,130224,5
60422,130544,5
60585,130876,4
60731,131118,5
60749,131214,5
60703,131085,5
60786,131346,5
61122,131925,5
61166,132322,4
61588,132717,5
61773,133043,5
61807,133084,5
61433,133017,4
61786,133236,5
62103,133781,5
62257,133959,5
61991,133681,4
61921,133506,4
61814,133369,5
61833,133437,5
62134,133600,5
62102,133973,4
62266,134189,5
62229,134124,5
62420,133847,5
61805,133450,5
61722,133429,4
61860,133684,5
62170,133837,5
61930,133659,5
61702,133316,5
61546,133073,4
61519,133058,6
61686,133416,4
61885,133734,5
61912,133710,5
61741,133264,4
61677,133396,5
61638,133339,5
61689,133461,5
61842,133428,4
61902,133744,4
61885,133720,5
61855,133670,5
61776,133324,5
61793,133645,4
61873,133771,6
61850,133718,4
61791,133718,5
61600,133257,5
61445,133106,4
61465,133160,5
61488,133456,5
61508,133226,6
61523,133187,4
61372,132902,4
61280,133073,5
61338,132934,5
61411,133090,5
61545,133277,5
61477,133178,4
61256,132725,5
61010,132378,5
61121,132641,5
61340,132984,5
61409,133068,4
61336,132960,5
61414,133160,5
61619,133531,5
61861,133916,4
61855,133785,4
61673,133557,5
61668,133604,5
61921,134151,5
62503,135084,5
62460,134655,4
61817,133729,5
61429,133246,5
61501,133478,6
61834,134013,3
62081,134290,5
62129,134328,5
62025,134205,5
62130,134457,5
62490,135072,4
62583,135029,5
62529,135094,5
62907,135721,5
62992,135704,5
62819,135407,4
62506,134958,5
62547,135141,5
62636,135254,5
62806,135624,4
63159,136175,4
63170,136194,5
63384,136519,5
63354,136437,5
63225,136240,4
63213,136252,6
63219,136311,4
63461,136788,5
63609,137086,5
63603,137001,6
63318,136534,3
62990,136036,5
62912,136151,5
63285,136756,5
63579,137098,4
63415,136696,5
63028,136203,5
62914,136089,5
62901,136073,5
62875,136090,4
63008,136283,5
62839,135919,5
62640,135763,5
62760,135997,5
62866,136069,4
62759,135891,5
62686,135850,5
62736,135899,5
62703,135846,4
62536,135521,4
62370,135326,6
62417,135423,4
62510,135553,5
62421,135365,4
62266,135171,5
62259,135204,5
62329,135320,5
62368,135389,5
62478,135646,4
62726,136035,5
62759,135947,5
62414,135395,5
62187,135112,5
62199,135226,4
62447,135629,5
62660,135919,5
62796,136148,5
62870,136421,5
63045,136493,4
63021,136434,5
62945,136283,5
62612,136184,5
62876,136281,4
62930,136295,4
62838,136171,5
62465,136000,6
62520,135644,4
62359,135451,4
62389,135548,5
62635,135998,5
62785,136150,5
62751,136084,5
62642,135901,4
62796,135793,5
62464,135624,5
62406,135550,5
62403,135585,5
62706,135564,4
62232,135244,5
62054,135038,5
62064,135058,5
62180,135059,5
62078,135099,4
62111,135129,5
62040,135031,5
62016,134885,5
61884,134783,5
61874,134732,4
61800,134596,5
61743,134360,5
61791,134631,6
61920,134887,4
62127,135171,4
62144,134911,5
62184,135291,5
62339,135525,5
62327,135429,4
62174,135071,5
62087,135075,5
62024,134959,5
61993,134927,5
61964,135032,4
61892,134759,5
61833,134697,5
61811,134669,5
61821,135004,5
61930,134934,4
62085,135166,5
62081,135108,5
62015,135190,5
61936,134877,5
61831,134705,5
61790,134690,4
61773,134703,5
61764,134667,5
61739,134595,4
61667,134442,4
61546,134223,5
61429,134064,5
61360,133940,5
61244,133740,4
61139,133573,5
61124,133553,5
61126,133571,5
61163,133610,5
61074,133414,4
60877,133112,5
60818,133076,5
60885,133173,5
60942,133270,5
60949,133250,4
60868,133102,5
60774,132954,5
60809,133061,5
60932,133246,5
60973,133309,4
60948,133221,6
60879,133109,4
60760,132894,5
60653,132778,4
60685,132834,4
60736,132913,5
60789,132978,5
60744,132895,5
60715,132861,4
60743,132913,5
60753,132914,5
60735,132899,5
60753,132960,5
60786,132987,4
60780,132998,5
60786,132988,5
60736,132857,5
60641,132726,5
60590,132650,4
60563,132612,5
60530,132558,5
60548,132642,5
60685,132869,5
60754,132935,4
60688,132793,5
60617,132756,6
60655,132806,4
60666,132835,5
60696,132866,4
60671,132794,5
60554,132555,5
60381,132289,5
60356,132267,4
60395,132342,4
60445,132433,5
60492,132501,5
60534,132547,5
60536,132555,4
60513,132512,5
60479,132454,5
60436,132372,5
60396,132297,5
60352,132240,4
60308,132149,5
60275,132096,5
60232,132024,5
60193,131957,5
60158,131887,4
60109,131800,5
60054,131715,5
60005,131647,5
59972,131582,5
59954,131517,4
59912,131460,5
59876,131423,5
59834,131333,5
59766,131189,4
59689,131051,4
59497,130934,5
59577,130837,5
59522,130759,5
59484,130691,4
59237,130638,5
59428,130593,5
59419,130570,5
59415,130584,5
59222,130587,4
59420,130556,5
59396,130509,5
59355,130450,5
59412,130382,5
59285,130334,5
59279,130329,4
59285,130358,5
59525,130366,5
59305,130379,5
59318,130404,4
59313,130387,5
59480,130340,5
59303,130357,5
59296,130368,5
59296,130361,4
59357,130351,5
59306,130359,5
59301,130348,5
59307,130361,4
59317,130305,4
59345,130417,5
59375,130489,5
59413,130552,5
59446,130424,4
59477,130644,5
59499,130676,6
59516,130713,4
59545,130524,5
59583,130816,4
59605,130850,7
59635,130902,3
59666,130950,5
59704,131028,5
59735,131081,4
59765,131134,5
59805,131404,5
59859,131287,5
59923,131403,5
59976,131503,4
60043,131887,5
60112,131720,5
60171,131825,5
60235,131943,4
60319,132195,4
60375,132190,5
60422,132274,5
60455,132343,5
60504,132412,4
60540,132457,5
60570,132500,5
60595,132540,5
60595,132516,5
60566,132478,4
60536,132437,5
60534,132405,6
60491,132352,4
60467,132328,5
60470,132345,4
60501,132403,5
60553,132481,5
60616,132574,5
60671,132682,5
60742,132815,4
60817,132910,5
60821,132913,5
60839,132968,5
60884,133045,5
60953,133172,4
61041,133322,5
61126,133454,5
61166,133516,5
61185,133586,4
61226,133650,4
61263,133717,5
61303,133804,5
61352,133871,5
61374,133931,4
61405,133962,5
61444,134008,5
61459,134035,5
61461,134023,7
61437,134003,2
61417,133948,5
61394,133930,5
61400,133921,5
61409,133936,5
61417,133957,4
61409,133942,5
61385,133895,5
61379,133882,5
61365,133860,5
61337,133839,4
61339,133846,5
61360,133868,5
61348,133866,5
61378,133897,4
61412,133968,5
61463,134059,4
61518,134145,5
61581,134258,5
61639,134364,6
61677,134417,3
61700,134469,5
61727,134508,5
61722,134506,5
61707,134459,4
61695,134444,5
61658,134391,5
61639,134360,5
61649,134372,5
61620,134304,4
61536,134178,5
61491,134114,5
61491,134122,5
61502,134143,5
61511,134164,4
61535,134183,5
61544,134208,5
61555,134220,5
61553,134233,5
61568,134265,4
61581,134288,6
61611,134361,4
61683,134466,5
61744,134613,4
61826,134712,7
61873,134813,3
61936,134907,5
61805,134978,5
61984,134981,4
61977,134993,5
61998,135035,5
61802,135105,5
62094,135211,5
62177,135363,4
62271,135546,5
62230,135670,5
62364,135718,5
62390,135775,5
62399,135811,4
62541,135800,5
62365,135756,5
62349,135774,5
62380,135838,5
62694,135947,4
62494,136067,5
62562,136185,6
62643,136346,4
62899,136527,4
62863,136736,4
62914,136774,5
62838,136632,5
62802,136561,5
62779,136599,4
62850,136722,5
62961,136919,5
63099,137017,5
63178,137266,5
63199,137279,4
63194,137274,5
63166,137022,5
63208,137362,5
63350,137601,5
63502,137879,4
63609,137799,5
63676,138172,5
63705,138199,5
63629,138081,5
63534,138013,4
63476,137872,5
63528,138003,5
63706,138328,6
63913,138926,3
64061,138919,4
64113,138987,5
64058,138915,5
64083,139236,5
64171,139139,4
64238,139247,5
64289,139282,5
64252,139329,5
64264,139255,5
64287,139303,4
64353,139412,5
64442,139550,5
64493,139619,5
64420,139459,5
64267,139257,4
64214,139200,5
64245,139277,5
64368,139508,5
64556,139793,5
64690,139973,5
64694,139982,4
64686,139997,5
64700,140020,5
64695,140030,6
64666,139977,3
64615,139916,5
64601,139897,5
64601,139893,5
64568,139836,4
64531,139797,4
64525,139783,5
64514,139767,5
64523,139783,5
64528,139803,4
64528,139819,5
64539,139805,5
64527,139799,5
64515,139785,5
64491,139750,4
64460,139701,5
64430,139664,5
64405,139630,5
64403,139640,5
64400,139641,4
64410,139653,6
64410,139657,4
64412,139671,5
64407,139660,5
64398,139665,4
64384,139650,5
64376,139659,5
64373,139643,5
64358,139603,4
64319,139548,4
64280,139511,5
64267,139494,5
64244,139476,5
64237,139445,4
64193,139404,5
64187,139387,5
64180,139405,5
64167,139371,5
64149,139347,4
64136,139325,5
64099,139263,5
64037,139155,5
63970,139054,5
63900,138940,4
63836,138840,5
63750,138729,6
63680,138618,4
63613,138495,5
63542,138407,4
63492,138324,5
63460,138272,5
63423,138220,5
63372,138158,4
63333,138078,4
63295,138023,5
63260,137979,5
63237,137923,5
63192,137865,4
63168,137827,5
63133,137773,5
63105,137742,5
63085,137714,5
63081,137700,4
63054,137645,5
62928,137578,5
62959,137514,5
62921,137444,5
62866,137353,4
62604,137267,5
62758,137190,5
62705,137088,6
62639,136986,4
62317,136887,4
62506,136747,5
62413,136598,5
62339,136487,5
62256,136364,5
62224,136300,4
62185,136222,5
62143,136153,5
62327,136105,5
62091,136045,4
62045,135973,4
61995,135915,5
62226,135847,5
61929,135795,5
61910,135770,4
61903,135746,5
61996,135712,5
61864,135680,5
61836,135624,5
61778,135514,5
61684,135300,4
61581,135177,5
61519,135079,5
61464,134963,5
61390,134690,4
61340,134770,5
61310,134705,5
61261,134616,5
61223,134318,5
61198,134526,4
61184,134483,5
61153,134450,5
61122,134264,5
61114,134377,5
61100,134360,4
61094,134342,5
61086,134477,5
61086,134351,5
61095,134352,4
61102,134368,5
61104,134631,5
61121,134373,5
61105,134347,5
61089,134343,4
61080,134498,6
61069,134313,4
61058,134285,5
61050,134276,5
61031,134301,4
61032,134248,5
61027,134239,5
61034,134251,5
61034,134255,5
61020,134217,4
60999,134184,5
60977,134179,5
60974,134151,5
60925,134085,5
60913,134046,4
60920,134045,5
60941,134032,5
60932,134011,5
60912,133983,4
60889,133941,4
60877,133903,5
60853,133858,5
60825,133813,5
60817,133783,4
60793,133756,5
60769,133696,6
60752,133663,4
60738,133618,5
60728,133594,4
60706,133568,5
60693,133538,5
60684,133528,5
60681,133535,5
60675,133510,4
60675,133506,5
60679,133507,5
60685,133513,5
60668,133490,5
60665,133481,4
60658,133453,5
60627,133415,5
60618,133398,5
60609,133387,4
60595,133372,4
60585,133353,5
60583,133340,5
60570,133318,5
60549,133270,4
60527,133240,5
60512,133205,5
60480,133157,5
60447,133101,5
60433,133081,4
60424,133048,5
60395,133008,5
60379,132959,5
60350,132904,5
60323,132854,4
60291,132785,5
60255,132729,5
60221,132668,5
60198,132624,5
60158,132554,4
60140,132504,5
60118,132477,5
60114,132447,5
60093,132433,5
60081,132406,4
60072,132371,5
60069,132358,5
60050,132332,5
60025,132304,5
60030,132282,4
60014,132266,5
59996,132227,5
59977,132204,5
59980,132225,4
59980,132204,5
59974,132192,5
59948,132154,5
59911,132042,5
59829,131901,4
59794,131838,5
59761,131809,5
59737,131733,5
59598,131675,5
59693,131653,4
59677,131630,5
59669,131601,5
59446,131567,5
59645,131533,5
59640,131529,4
59627,131514,5
59405,131523,5
59631,131525,5
59628,131520,4
59633,131547,5
59699,131564,4
59658,131588,5
59672,131593,5
59682,131610,4
59923,131642,5
59706,131674,5
59719,131700,5
59729,131706,5
59949,131709,4
59746,131721,5
59765,131726,5
59756,131748,5
59842,131759,5
59772,131781,4
59793,131783,5
59801,131796,5
59822,131771,5
59818,131831,5
59818,131839,4
59818,131844,5
59824,131663,5
59824,131845,4
59818,131838,5
59806,131835,4
59801,131584,7
59805,131805,3
59794,131786,5
59781,131771,4
59780,131727,4
59762,131754,5
59764,131749,5
59765,131750,5
59777,131951,4
59783,131770,5
59777,131768,5
59775,131763,5
59775,132020,5
59775,131763,4
59773,131768,5
59774,131763,5
59772,131880,5
59779,131777,5
59787,131786,4
59799,131828,5
59822,131880,5
59858,131924,6
59901,131975,4
59923,132006,4
59925,132011,5
59931,132001,5
59914,131984,5
59904,131961,4
59898,131937,4
59887,131930,5
59874,131904,5
59849,131860,5
59805,131792,4
59782,131751,5
59761,131704,5
59738,131679,5
59738,131674,5
59720,131657,4
59710,131627,5
59684,131602,5
59671,131569,5
59666,131558,5
59664,131572,5
59681,131590,4
59681,131608,5
59686,131611,5
59684,131617,6
59702,131623,3
59692,131627,5
59696,131606,5
59666,131566,5
59632,131491,5
59565,131358,4
59470,131205,5
59426,131124,5
59387,131058,5
59352,130981,4
59332,130929,5
59312,130896,5
59287,130867,5
59263,130811,5
59233,130760,4
59211,130712,5
59191,130658,10
59163,130618,5
59127,130558,4
59103,130510,6
59090,130486,4
59073,130456,5
59063,130434,5
59060,130425,6
59051,130418,3
59052,130410,5
59049,130417,5
59049,130417,5
59061,130409,4
59054,130398,5
59054,130408,5
59046,130391,5
59028,130360,4
59016,130331,4
59002,130309,5
58997,130288,5
58980,130250,5
58966,130215,4
58923,130154,5
58892,130109,5
58880,130067,5
58852,130035,5
58837,130005,4
58819,129948,5
58790,129878,6
58763,129817,4
58718,129745,5
58671,129664,4
58633,129597,5
58592,129519,5
58544,129456,5
58533,129387,5
58487,129307,4
58445,129243,5
58277,129194,5
58411,129164,5
58381,129113,4
58356,129066,4
58128,129037,5
58323,129001,5
58323,128991,5
58314,128977,4
58199,128954,5
58309,128954,5
58290,128938,5
58280,128923,5
58410,128897,4
58260,128868,5
58245,128841,5
58232,128808,6
58440,128780,4
58206,128769,4
58201,128762,5
58198,128740,5
58333,128735,5
58182,128721,5
58173,128687,4
58153,128656,5
58156,128604,5
58097,128564,5
58079,128505,5
58046,128438,4
58008,128240,5
57959,128264,5
57921,128201,5
57891,128137,4
57855,127852,5
57824,127996,5
57786,127918,5
57735,127824,5
57713,127569,5
57702,127748,4
57682,127719,4
57675,127691,5
57665,127734,6
57641,127620,3
57623,127577,5
57601,127533,5
57583,127730,5
57576,127479,5
57562,127472,4
57556,127455,5
57545,127608,5
57515,127369,5
57482,127277,5
57402,127144,4
57386,127174,5
57377,127092,5
57363,127034,5
57342,126994,4
57327,126980,4
57328,126954,5
57329,126966,5
57336,126984,5
57348,127007,4
57372,127042,6
57385,127075,4
57412,127133,5
57437,127180,5
57477,127222,4
57508,127290,5
57542,127347,5
57575,127402,5
57595,127468,5
57638,127528,4
57667,127578,5
57698,127637,5
57729,127715,5
57777,127782,5
57812,127841,4
57843,127909,5
57880,127958,5
57900,128008,5
57944,128054,4
57972,128119,4
57995,128181,5
58023,128250,5
58062,128292,5
58063,128288,4
58071,128309,5
58080,128317,6
58092,128330,4
58098,128354,5
58110,128356,4
58108,128372,5
58121,128388,5
58126,128407,5
58138,128420,5
58138,128424,4
58149,128432,5
58150,128446,5
58155,128430,5
58146,128444,5
58149,128447,4
58165,128462,5
58165,128462,5
58174,128468,5
58176,128490,5
58182,128499,4
58198,128528,5
58208,128551,5
58226,128585,5
58248,128622,4
58261,128643,5
58278,128674,5
58298,128721,6
58321,128756,4
58341,128803,4
58365,128835,5
58372,128870,5
58409,128918,5
58420,128941,5
58443,128975,4
58459,128997,5
58455,129006,5
58458,129000,5
58449,128978,5
58434,128955,4
58416,128922,5
58403,128906,5
58399,128890,5
58397,128875,5
58388,128862,4
58378,128876,5
58379,128871,5
58391,128860,5
58388,128866,5
58311,128869,4
58398,128886,5
58404,128893,5
58407,128898,5
58233,128908,4
58415,128929,5
58431,128952,5
58440,128981,5
58229,128986,5
58448,128985,4
58435,128975,5
58416,128922,5
58392,128855,5
58358,128813,5
58352,128795,4
58333,128771,5
58501,128730,5
58307,128732,5
58301,128715,5
58297,128706,4
58521,128719,5
58301,128728,5
58305,128737,5
58308,128748,4
58401,128763,5
58327,128777,4
58340,128810,5
58364,128852,5
58400,128858,4
58418,128935,5
58447,128992,5
58485,129049,5
58506,128941,5
58523,129138,4
58536,129164,5
58571,129204,5
58577,129029,5
58602,129278,5
58626,129333,4
58657,129382,5
58664,129331,5
58683,129427,5
58693,129465,5
58719,129490,4
58735,129660,5
58726,129507,6
58722,129508,4
58737,129517,5
58732,129767,4
58751,129541,7
58753,129539,3
58761,129565,5
58773,129738,4
58789,129605,4
58775,129589,5
58778,129589,5
58778,129608,5
58764,129573,4
58758,129567,5
58763,129570,5
58760,129587,5
58779,129583,5
58774,129603,4
58794,129627,5
58815,129668,5
58835,129699,5
58847,129742,5
58878,129799,4
58906,129857,5
58936,129890,5
58963,129949,5
58991,129999,5
59015,130050,4
59052,130109,5
59072,130140,5
59096,130186,5
59122,130257,4
59156,130307,4
59169,130336,5
59193,130360,5
59201,130386,5
59215,130392,4
59210,130397,5
59200,130394,5
59191,130373,5
59169,130329,5
59162,130321,4
59156,130298,5
59149,130287,5
59152,130289,5
59141,130298,5
59157,130303,4
59151,130310,4
59164,130330,5
59177,130342,5
59177,130387,5
59180,130389,3
59188,130400,5
59196,130414,5
59217,130449,5
59240,130486,5
59264,130529,4
59275,130546,5
59285,130566,5
59285,130560,5
59266,130494,4
59214,130408,4
59181,130369,5
59168,130355,5
59143,130302,5
59122,130270,4
59112,130245,5
59104,130235,5
59105,130233,5
59091,130235,5
59102,130238,4
59115,130260,6
59121,130272,4
59138,130304,5
59147,130341,5
59172,130362,6
59197,130414,3
59228,130474,5
59259,130541,5
59279,130577,5
59304,130617,4
59324,130651,5
59342,130687,5
59361,130712,5
59369,130744,5
59390,130781,4
59408,130817,5
59431,130849,5
59450,130894,5
59483,130927,4
59495,130966,5
59507,130977,5
59407,131030,5
59561,131086,5
59570,131091,4
59571,131108,5
59391,131151,6
59609,131182,4
59628,131200,5
59640,131223,4
59432,131227,5
59646,131230,5
59644,131236,5
59642,131219,5
59694,131202,4
59617,131196,5
59613,131189,5
59606,131169,5
59815,131171,5
59594,131168,4
59600,131164,5
59595,131172,5
59801,131170,5
59616,131193,4
59623,131203,4
59627,131232,5
59709,131255,5
59662,131286,5
59679,131338,4
59713,131373,5
59724,131346,5
59738,131442,6
59766,131465,4
59772,131501,4
59781,131346,5
59785,131541,5
59803,131570,5
59812,131595,5
59812,131379,4
59830,131605,5
59818,131609,5
59831,131603,5
59818,131556,5
59822,131599,4
59810,131574,5
59792,131548,5
59785,131699,5
59763,131490,5
59740,131476,4
59735,131453,5
59725,131699,5
59724,131434,5
59717,131432,5
59720,131422,4
59719,131547,5
59714,131426,5
59718,131438,6
59727,131440,3
59724,131474,5
59732,131460,5
59748,131488,5
59755,131507,5
59759,131495,4
59750,131490,5
59727,131412,5
59663,131306,5
59617,131226,5
59592,131190,4
59544,131104,5
59485,131012,5
59461,130961,5
59442,130920,5
59411,130878,4
59385,130852,5
59373,130835,5
59376,130832,5
59384,130831,5
59383,130845,5
59400,130864,4
59401,130887,5
59420,130907,5
59429,130921,6
59436,130935,3
59444,130952,5
59457,130972,5
59480,130996,5
59472,131003,4
59492,131022,5
59489,131039,5
59505,131047,5
59508,131052,5
59511,131047,4
59514,131059,5
59508,131060,5
59505,131066,5
59509,131075,5
59519,131086,4
59535,131106,5
59539,131103,5
59528,131097,5
59529,131110,5
59534,131112,4
59530,131098,6
59535,131091,4
59518,131073,5
59513,131073,4
59505,131049,4
59491,131006,5
59468,130974,5
59452,130941,5
59432,130912,4
59408,130870,8
59383,130833,2
59365,130793,5
59355,130777,5
59342,130760,4
59329,130722,5
59301,130698,5
59301,130682,5
59285,130668,5
59278,130662,4
59288,130672,5
59290,130677,5
59286,130679,5
59303,130697,5
59294,130711,4
59308,130726,5
59325,130744,6
59336,130757,4
59328,130767,5
59339,130782,4
59344,130771,5
59340,130766,5
59337,130749,5
59329,130732,4
59306,130728,4
59306,130688,5
59276,130658,5
59270,130624,5
59127,130590,4
59228,130558,5
59213,130532,5
59203,130504,5
58990,130501,5
59190,130504,4
59193,130508,5
59196,130507,5
59007,130524,5
59216,130535,5
59225,130555,4
59243,130569,5
59313,130583,5
59263,130608,6
59272,130631,4
59295,130663,4
59516,130676,5
59298,130677,5
59301,130658,5
59279,130604,4
59424,130524,4
59215,130495,5
59208,130474,5
59190,130434,5
59230,130420,4
59171,130408,5
59163,130410,5
59171,130403,5
59164,130331,5
59174,130409,4
59157,130393,5
59161,130386,5
59178,130231,5
59182,130428,5
59206,130459,5
59218,130488,4
59240,130296,5
59258,130581,5
59300,130620,5
59329,130694,4
59357,130726,5
59401,130805,5
59437,130866,5
59484,130922,5
59494,131159,4
59521,131003,5
59541,131035,5
59557,131047,5
59572,131322,4
59577,131094,4
59590,131118,5
59617,131160,5
59661,131345,5
59679,131264,4
59682,131282,5
59728,131356,5
59760,131454,5
59797,131470,5
59808,131485,4
59800,131491,6
59807,131495,4
59806,131485,5
59800,131488,5
59813,131499,4
59818,131510,5
59818,131515,5
59814,131506,5
59813,131505,5
59810,131489,4
59803,131472,5
59777,131450,5
59767,131441,5
59758,131422,5
59755,131405,4
59745,131403,5
59745,131391,5
59743,131390,5
59733,131386,4
59739,131390,4
59737,131390,5
59739,131390,5
59743,131400,5
59748,131414,4
59764,131422,5
59758,131415,6
59749,131403,4
59736,131385,5
59725,131350,4
59702,131303,5
59668,131255,5
59621,131189,5
59580,131095,5
59529,131023,4
59486,130941,5
59442,130868,5
59407,130802,5
59372,130754,5
59363,130715,4
59329,130689,5
59304,130647,5
59274,130589,5
59249,130564,4
59236,130530,4
59214,130486,5
59188,130425,5
59154,130406,5
59149,130386,4
59141,130367,5
59129,130369,5
59127,130343,5
59109,130322,5
59085,130255,4
59010,130142,5
58980,130086,5
58967,130048,5
58926,129967,5
58887,129910,4
58856,129860,5
58823,129818,5
58805,129773,5
58780,129730,5
58766,129706,4
58770,129710,5
58760,129714,5
58763,129698,5
58761,129694,5
58774,129724,4
58774,129731,5
58780,129722,5
58776,129724,5
58773,129730,5
58775,129733,4
58766,129721,5
58759,129720,5
58771,129708,5
58769,129736,4
58774,129741,5
58650,129745,5
58786,129757,5
58792,129760,5
58798,129788,4
58610,129788,5
58813,129810,5
58814,129814,5
58825,129824,5
58632,129822,4
58809,129799,5
58810,129798,5
58804,129789,5
58875,129785,5
58788,129769,4
58793,129761,5
58794,129766,5
58998,129763,5
58788,129747,5
58771,129723,5
58755,129695,3
58924,129666,5
58709,129635,5
58707,129597,4
58681,129574,4
58727,129531,5
58651,129512,5
58639,129503,5
58638,129493,4
58647,129426,5
58635,129494,5
58633,129486,5
58628,129474,5
58608,129270,4
58602,129429,5
58586,129399,5
58576,129384,5
58574,129157,5
58570,129361,5
58564,129373,4
58566,129370,6
58569,129353,4
58573,129378,5
58575,129391,4
58575,129393,5
58576,129548,5
58554,129354,5
58554,129337,5
58531,129317,4
58514,129509,5
58480,129202,5
58438,129133,5
58405,129052,4
58371,129096,5
58326,128921,5
58290,128862,5
58267,128830,5
58238,128784,4
58211,128710,5
58184,128675,5
58165,128627,5
58138,128583,5
58117,128549,4
58095,128530,5
58076,128497,5
58061,128465,6
58045,128434,4
58040,128424,4
58034,128422,5
58040,128425,5
58039,128429,5
58036,128412,5
58029,128405,4
58003,128345,5
57961,128269,5
57894,128164,5
57874,128120,4
57856,128083,4
57821,128025,5
57819,128004,5
57791,127951,5
57764,127897,4
57687,127782,5
57647,127719,5
57640,127698,5
57625,127693,5
57625,127677,5
57636,127674,4
57623,127682,5
57639,127705,5
57646,127701,6
57640,127706,3
57636,127693,5
57637,127683,5
57635,127695,5
57645,127704,5
57637,127704,4
57652,127712,5
57649,127730,5
57651,127741,5
57655,127743,5
57668,127750,4
57670,127754,5
57671,127756,5
57667,127753,5
57664,127747,4
57650,127730,4
57651,127732,5
57651,127722,5
57634,127679,5
57606,127666,4
57611,127636,6
57582,127586,4
57558,127543,5
57531,127508,5
57506,127483,6
57492,127440,3
57477,127414,5
57462,127379,5
57438,127352,5
57423,127315,4
57414,127295,5
57392,127249,5
57344,127168,5
57310,127113,5
57286,127094,4
57278,127059,5
57268,127021,5
57250,126998,5
57235,126982,5
57219,126957,4
57219,126939,5
57215,126954,5
57215,126945,5
57203,126933,4
57207,126916,4
57194,126895,6
57182,126882,4
57084,126863,5
57180,126859,4
57165,126847,5
57164,126841,5
56972,126827,5
57155,126824,5
57133,126787,4
57112,126758,5
56897,126713,5
57086,126689,5
57066,126648,5
57038,126606,4
57035,126564,5
56984,126508,5
56955,126450,5
56933,126389,5
57076,126320,4
56841,126196,5
56787,126111,5
56763,126054,5
56941,125990,4
56703,125943,4
56675,125888,5
56646,125844,6
56719,125797,4
56614,125752,4
56599,125752,5
56590,125730,5
56602,125665,5
56564,125670,5
56562,125647,4
56553,125643,5
56562,125487,5
56548,125626,5
56547,125623,5
56547,125631,4
56540,125412,5
56524,125572,5
56495,125508,5
56424,125385,5
56392,125220,4
56363,125271,5
56343,125213,5
56311,125146,5
56299,125244,5
56288,125099,4
56275,125066,5
56271,125071,5
56278,125297,6
56292,125090,3
56300,125098,4
56300,125103,5
56312,125272,5
56319,125160,5
56347,125193,4
56371,125249,5
56399,125328,5
56432,125351,5
56469,125418,5
56502,125478,4
56538,125551,5
56572,125607,5
56618,125674,5
56640,125714,5
56660,125756,4
56685,125790,5
56702,125822,5
56723,125855,5
56739,125889,5
56759,125924,5
56767,125948,4
56796,126000,5
56818,126040,5
56832,126051,5
56833,126064,4
56853,126091,5
56856,126113,5
56870,126130,5
56875,126148,4
56895,126173,4
56910,126193,5
56919,126211,5
56923,126233,5
56944,126252,4
56956,126272,5
56958,126281,5
56965,126300,5
56964,126290,5
56978,126305,4
56986,126333,5
56989,126334,5
56997,126357,5
57018,126389,5
57040,126425,4
57056,126461,6
57081,126501,4
57099,126536,5
57126,126571,5
57143,126609,4
57143,126613,5
57150,126627,5
57172,126648,5
57176,126669,5
57187,126690,4
57194,126712,5
57199,126727,5
57214,126734,5
57217,126755,4
57217,126756,4
57214,126738,5
57202,126716,5
57194,126692,5
57164,126662,4
57153,126623,5
57135,126612,5
57154,126621,10
57154,126621,4
57159,126631,5
57164,126654,6
57175,126679,4
57183,126678,5
57191,126697,4
57195,126725,5
57224,126746,5
57237,126787,5
57257,126830,5
57286,126861,4
57288,126900,5
57306,126900,5
57292,126868,5
57256,126803,5
57231,126763,4
57228,126753,5
57213,126716,5
57156,126691,5
57179,126687,4
57187,126673,4
57179,126684,5
57036,126689,5
57193,126690,5
57205,126711,4
57209,126722,5
57012,126742,5
57232,126773,5
57259,126818,5
57284,126859,4
57238,126909,5
57334,126978,5
57370,127023,5
57403,127088,5
57571,127150,4
57458,127185,5
57473,127206,5
57479,127235,5
57716,127265,5
57520,127305,4
57542,127333,5
57564,127369,5
57702,127410,5
57593,127430,5
57593,127448,4
57607,127467,5
57662,127487,5
57626,127484,5
57630,127493,5
57634,127512,4
57636,127421,5
57647,127533,5
57650,127548,5
57657,127564,4
57671,127384,5
57671,127562,5
57659,127563,5
57661,127544,5
57657,127330,4
57655,127534,5
57655,127545,5
57659,127551,5
57664,127597,5
57675,127580,4
57685,127598,5
57687,127613,5
57697,127822,5
57699,127646,5
57713,127668,4
57731,127715,6
57760,127963,4
57790,127792,5
57818,127856,4
57843,127919,6
57868,128028,3
57889,127999,5
57917,128031,5
57932,128069,4
57942,128102,4
57961,128120,5
57972,128154,5
57988,128186,5
57992,128191,4
58005,128196,5
57998,128196,5
57992,128168,5
57980,128139,5
57965,128124,4
57952,128112,5
57950,128075,5
57940,128080,5
57939,128072,5
57934,128077,4
57935,128086,5
57950,128087,5
57947,128100,5
57951,128099,5
57956,128123,4
57965,128138,6
57974,128156,3
57994,128204,5
58019,128245,4
58044,128292,4
58068,128326,5
58062,128317,5
58060,128276,5
58012,128206,4
57978,128145,5
57969,128122,5
57952,128087,5
57925,128050,5
57905,128032,4
57906,128008,5
57907,128002,5
57895,127991,5
57902,128003,5
57900,128010,4
57917,128044,5
57928,128074,5
57950,128115,6
57971,128144,4
58003,128210,4
58033,128274,5
58063,128322,5
58084,128365,5
58117,128409,5
58146,128459,4
58162,128497,5
58191,128558,5
58219,128603,5
58257,128664,4
58288,128710,4
58308,128768,5
58321,128792,5
58336,128810,5
58346,128829,4
58372,128871,5
58398,128924,5
58423,128984,5
58438,128990,5
58439,128999,5
58451,129019,4
58459,129041,5
58456,129049,5
58471,129050,6
58467,129059,3
58456,129039,5
58463,129048,5
58458,129042,5
58452,129043,5
58461,129038,4
58455,129032,5
58458,129035,5
58455,129035,5
58447,129037,4
58450,129031,4
58463,129039,5
58473,129055,5
58475,129066,5
58357,129095,4
58496,129127,4
58521,129169,5
58547,129211,5
58380,129274,5
58613,129331,4
58642,129376,6
58655,129426,4
58507,129445,5
58687,129477,5
58700,129507,6
58712,129522,3
58809,129532,5
58733,129544,5
58733,129547,5
58729,129554,4
58935,129541,5
58716,129522,5
58699,129505,5
58685,129467,5
58852,129437,4
58662,129411,5
58641,129387,5
58624,129361,5
58682,129352,4
58616,129336,4
58608,129304,5
58601,129309,5
58594,129225,5
58580,129288,4
58573,129269,5
58575,129264,6
58575,129098,4
58569,129281,5
58581,129279,4
58581,129289,5
58576,129059,5
58554,129227,5
58495,129110,5
58438,129037,5
58423,128965,4
58377,128907,5
58346,128851,5
58311,128804,5
58291,128947,4
58280,128735,5
58266,128720,5
58267,128719,5
58267,128968,5
58271,128724,4
58269,128731,5
58268,128732,5
58269,128848,5
58274,128749,4
58282,128758,4
58282,128768,5
58292,128805,6
58301,128786,4
58306,128812,4
58320,128821,5
58325,128844,5
58337,128866,5
58352,128887,5
58358,128888,4
58361,128894,5
58360,128891,5
58368,128899,5
58364,128894,5
58373,128917,4
58374,128932,5
58394,128962,5
58387,128944,5
58387,128941,5
58391,128940,4
58391,128938,5
58378,128920,5
58373,128912,5
58365,128913,5
58365,128896,4
58350,128886,5
58345,128864,5
58346,128854,6
58334,128819,3
58311,128802,4
58298,128783,5
58279,128746,5
58255,128699,5
58247,128687,4
58233,128661,5
58219,128635,5
58214,128634,5
58208,128627,5
58203,128627,4
58209,128629,5
58199,128618,5
58210,128626,5
58220,128634,5
58219,128644,4
58218,128648,5
58223,128648,5
58236,128670,5
58236,128673,5
58231,128668,5
58240,128677,4
58235,128670,5
58234,128669,5
58227,128666,5
58222,128655,4
58221,128650,5
58207,128622,5
58184,128577,5
58156,128535,4
58140,128485,5
58107,128438,5
58085,128399,5
58070,128359,5
58038,128323,4
58037,128291,5
58026,128290,5
58021,128278,5
58015,128264,5
58010,128257,4
58002,128265,5
57999,128256,5
58007,128274,5
58015,128274,5
58020,128286,4
58022,128294,6
58029,128311,4
58033,128319,5
58041,128317,5
58029,128304,4
58015,128256,5
57975,128184,5
57949,128142,5
57939,128125,4
57923,128072,4
57815,127997,5
57861,127961,5
57833,127927,5
57815,127883,4
57629,127847,5
57783,127837,5
57782,127841,5
57790,127848,5
57570,127849,4
57800,127864,5
57805,127881,5
57818,127896,5
57799,127911,5
57823,127908,4
57829,127921,5
57838,127928,6
58005,127937,4
57842,127953,5
57848,127960,4
57854,127981,5
58094,128016,5
57890,128033,5
57900,128055,5
57918,128079,4
58036,128100,5
57926,128111,5
57930,128109,5
57936,128122,4
57966,128124,4
57953,128149,5
57944,128123,5
57941,128134,5
57941,128003,4
57938,128137,5
57939,128128,5
57944,128122,5
57936,127915,5
57929,128102,4
57927,128089,5
57901,128069,5
57900,127886,6
57886,128020,4
57871,127999,4
57867,127987,5
57860,128070,5
57848,127953,5
57846,127956,5
57846,127948,4
57835,128153,5
57827,127918,5
57812,127908,5
57819,127897,5
57816,128072,4
57807,127893,5
57806,127889,5
57804,127891,5
57817,127945,4
57816,127900,4
57814,127900,5
57822,127910,5
57821,127914,5
57826,127903,5
57822,127912,4
57817,127899,5
57826,127894,5
57820,127900,5
57816,127906,4
57817,127892,5
57817,127897,5
57810,127890,5
57801,127878,5
57795,127854,4
57783,127826,5
57757,127771,5
57720,127717,5
57680,127648,5
57655,127574,4
57611,127525,5
57588,127484,5
57581,127458,5
57569,127449,4
57564,127429,4
57543,127407,5
57541,127404,5
57532,127392,5
57542,127387,4
57538,127391,6
57528,127384,4
57530,127388,5
57524,127380,5
57533,127374,4
57533,127378,5
57534,127386,5
57545,127407,5
57540,127405,5
57544,127403,4
57537,127379,5
57498,127290,5
57453,127227,5
57442,127205,5
57427,127161,4
57399,127110,5
57357,127057,5
57353,127027,5
57324,127000,5
57310,126963,4
57303,126942,5
57300,126940,5
57302,126956,5
57308,126961,4
57315,126976,4
57330,126985,6
57334,127003,4
57337,127016,5
57354,127029,4
57351,127043,5
57363,127073,5
57373,127086,5
57381,127105,5
57389,127119,4
57400,127141,8
57408,127144,2
57433,127158,5
57423,127170,5
57422,127175,4
57430,127179,5
57436,127206,5
57438,127202,5
57441,127220,5
57455,127228,4
57463,127250,5
57464,127250,5
57454,127236,5
57446,127225,5
57451,127229,4
57438,127215,5
57445,127207,5
57380,127208,5
57427,127181,4
57421,127168,4
57402,127136,5
57230,127118,5
57365,127097,5
57357,127062,4
57348,127051,5
57129,127033,5
57322,127008,5
57312,126993,5
57312,126970,4
57270,126979,5
57293,126959,5
57290,126934,5
57278,126925,5
57422,126914,5
57271,126909,4
57275,126916,5
57267,126926,5
57501,126931,6
57272,126929,3
57284,126947,5
57293,126961,5
57414,126962,5
57298,126967,4
57299,126959,4
57296,126958,5
57314,126938,5
57287,126946,5
57282,126927,4
57270,126927,5
57271,126784,5
57266,126897,5
57247,126873,5
57246,126868,4
57227,126630,5
57202,126777,5
57171,126718,5
57139,126661,5
57107,126453,4
57073,126535,6
57039,126474,4
57008,126429,5
56969,126462,5
56960,126341,6
56935,126303,3
56914,126279,5
56907,126484,5
56908,126245,5
56900,126251,4
56896,126245,5
56897,126402,5
56887,126217,5
56895,126212,4
56887,126221,4
56875,126262,5
56876,126199,5
56866,126190,5
56868,126186,4
56857,126174,5
56847,126148,5
56835,126103,5
56779,126011,5
56736,125923,4
56709,125892,5
56698,125853,6
56668,125789,4
56648,125753,5
56628,125703,4
56604,125650,5
56585,125596,5
56560,125567,5
56538,125530,5
56538,125518,4
56532,125513,5
56521,125498,5
56518,125486,5
56523,125487,4
56523,125492,4
56528,125496,5
56522,125508,5
56531,125511,5
56526,125517,4
56542,125519,5
56540,125521,5
56518,125498,5
56518,125498,5
56508,125478,4
56501,125459,5
56500,125443,5
56492,125442,6
56477,125432,4
56481,125430,4
56473,125433,5
56468,125412,5
56452,125401,5
56433,125341,5
56409,125295,4
56392,125274,5
56380,125247,5
56375,125219,5
56351,125198,5
56322,125164,4
56320,125153,5
56314,125126,5
56279,125069,5
56266,125028,4
56244,125012,4
56236,124976,5
56222,124951,5
56221,124929,5
56206,124904,5
56201,124899,4
56191,124872,5
56188,124864,5
56167,124844,6
56168,124833,3
56159,124826,5
56162,124822,5
56171,124837,5
56162,124836,5
56174,124848,4
56182,124854,5
56188,124871,5
56195,124878,5
56210,124895,5
56215,124929,4
56233,124943,5
56236,124966,5
56257,124978,5
56261,124994,4
56263,125013,4
56267,125027,5
56289,125047,5
56290,125066,5
56303,125066,4
56234,125072,6
56298,125075,4
56301,125078,5
56299,125063,5
56121,125055,4
56288,125022,5
56280,124993,5
56264,124985,5
56065,124975,5
56253,124960,4
56245,124955,5
56251,124960,5
56256,124972,5
56252,124978,5
56264,124984,4
56258,124996,5
56443,125004,5
56294,125026,5
56297,125053,5
56315,125063,4
56529,125087,5
56337,125115,5
56352,125134,5
56366,125177,4
56457,125201,4
56385,125205,6
56373,125192,4
56361,125152,5
56358,125077,4
56330,125088,5
56317,125079,5
56311,125052,5
56297,124897,5
56311,125044,4
56316,125041,5
56304,125047,5
56314,124857,5
56322,125067,5
56326,125077,4
56337,125109,5
56354,125050,5
56368,125152,5
56371,125184,5
56392,125202,4
56408,125367,5
56418,125268,5
56445,125306,5
56460,125353,5
56479,125601,4
56503,125411,5
56510,125428,6
56535,125470,4
56551,125635,4
56567,125520,4
56586,125568,5
56600,125579,5
56613,125645,5
56637,125655,4
56661,125691,5
56666,125720,5
56692,125751,5
56689,125737,5
56676,125730,4
56687,125736,5
56686,125737,5
56686,125744,5
56693,125753,5
56697,125760,4
56709,125766,5
56705,125753,5
56705,125758,5
56703,125761,5
56702,125752,4
56700,125761,5
56708,125768,5
56713,125775,6
56715,125793,3
56731,125805,4
56744,125847,5
56749,125861,5
56771,125890,5
56787,125919,4
56810,125953,5
56824,125989,5
56851,126029,5
56860,126055,5
56886,126091,4
56898,126142,5
56935,126192,5
56960,126249,5
56983,126277,5
57003,126317,4
57003,126334,5
57021,126353,5
57037,126378,5
57044,126390,5
57050,126406,5
57056,126426,4
57060,126440,5
57078,126459,5
57078,126475,5
57087,126479,4
57089,126487,5
57099,126497,5
57104,126508,5
57110,126510,4
57102,126509,4
57117,126501,5
57099,126496,5
57095,126483,5
57083,126468,4
57079,126448,5
57069,126429,5
57055,126409,5
57047,126403,5
57040,126395,4
57049,126397,5
57053,126403,5
57052,126408,5
57064,126410,5
57068,126435,4
57071,126445,6
57071,126447,4
57078,126456,5
57084,126449,5
57090,126476,4
57099,126480,5
57096,126491,5
57112,126509,5
57113,126512,4
57112,126490,4
57093,126436,5
57043,126376,5
57038,126362,5
57023,126320,4
57003,126287,5
56987,126280,5
56882,126271,5
56981,126259,5
56989,126259,4
56990,126281,5
56814,126304,5
57013,126331,5
57036,126367,5
57055,126420,4
56882,126465,5
57117,126526,6
57165,126600,4
57200,126669,5
57293,126754,4
57281,126820,5
57315,126880,5
57341,126924,5
57560,126954,5
57376,126993,4
57383,127017,5
57405,127049,5
57602,127082,5
57434,127092,4
57450,127126,4
57460,127146,5
57534,127171,5
57497,127204,5
57495,127225,4
57525,127252,5
57515,127195,5
57507,127247,5
57523,127262,5
57530,127280,4
57527,127131,5
57552,127302,5
57551,127333,5
57567,127340,5
57571,127140,4
57568,127341,5
57550,127325,5
57556,127323,5
57551,127274,5
57553,127312,4
57548,127325,5
57561,127339,5
57565,127516,5
57575,127375,4
57585,127395,4
57600,127410,5
57609,127669,5
57625,127468,5
57647,127500,4
57671,127546,5
57690,127697,5
57723,127651,5
57750,127706,5
57782,127759,6
57808,127833,3
57827,127852,5
57841,127880,5
57866,127905,5
57877,127924,4
57885,127944,5
57893,127953,5
57900,127960,5
57897,127959,5
57886,127956,4
57878,127952,5
57880,127936,5
57872,127935,5
57868,127927,5
57874,127925,4
57881,127931,5
57886,127956,5
57907,127986,5
57928,128020,4
57947,128064,5
57967,128104,6
57985,128133,4
58006,128156,5
58018,128196,4
58034,128219,7
58053,128257,3
58076,128293,5
58088,128314,5
58093,128307,4
58080,128288,5
58045,128231,5
58013,128167,5
58001,128144,5
57980,128103,4
57953,128062,5
57937,128047,5
57944,128045,5
57943,128032,5
57938,128046,4
57946,128061,5
57966,128079,5
57986,128119,5
58008,128153,4
58028,128196,4
58048,128240,5
58093,128308,6
58120,128366,4
58148,128422,4
58184,128474,5
58201,128524,5
58235,128579,5
58266,128623,5
58280,128660,4
58297,128703,5
58317,128732,5
58333,128756,5
58339,128766,5
58356,128796,4
58380,128825,5
58383,128854,5
58402,128881,5
58417,128926,5
58444,128967,4
58452,128956,5
58442,128963,5
58445,128975,5
58454,128984,5
58460,128992,4
58458,128986,5
58463,129008,5
58468,129015,11
58467,129007,3
58459,128991,5
58446,128983,5
58436,128947,5
58411,128906,4
58402,128882,5
58385,128852,5
58374,128837,5
58377,128823,5
58365,128816,4
58223,128816,5
58350,128798,5
58354,128812,5
58354,128799,5
58148,128811,4
58355,128813,5
58361,128823,5
58374,128844,5
58208,128847,5
58387,128880,5
58395,128892,4
58402,128908,5
58490,128915,5
58420,128916,6
58412,128921,3
58408,128904,5
58613,128881,5
58389,128855,5
58363,128808,4
58340,128783,5
58504,128754,5
58304,128704,5
58276,128686,5
58269,128657,4
58321,128636,5
58258,128645,5
58249,128635,5
58251,128634,5
58254,128550,4
58243,128600,5
58245,128604,5
58238,128600,5
58234,128427,5
58239,128600,4
58231,128592,6
58226,128582,4
58201,128319,5
58153,128432,5
58116,128375,5
58100,128329,4
58061,128256,5
58016,128185,5
57989,128140,4
57971,128084,4
57949,128241,5
57935,128040,5
57925,128026,5
57920,128009,4
57923,128248,5
57922,128018,5
57922,128021,5
57936,128033,5
57932,128141,4
57934,128045,5
57936,128069,5
57956,128085,5
57969,128111,5
57981,128126,4
57997,128150,5
58023,128192,6
58035,128209,4
58042,128230,5
58048,128237,4
58049,128232,5
58052,128255,5
58048,128248,5
58049,128251,4
58056,128254,4
58058,128267,5
58069,128283,5
58059,128247,5
58049,128246,4
58048,128246,5
58047,128237,5
58032,128225,5
58039,128219,5
58038,128221,4
58032,128205,5
58022,128203,5
58027,128184,5
58001,128142,5
57971,128115,4
57957,128080,5
57943,128046,5
57927,128011,6
57908,127984,4
57898,127964,4
57889,127955,5
57886,127948,5
57885,127946,5
57888,127925,5
57870,127912,4
57863,127912,5
57870,127912,5
57868,127905,5
57872,127931,4
57873,127937,4
57885,127940,5
57885,127952,5
57882,127959,5
57895,127965,4
57897,127967,5
57907,127973,5
57892,127971,5
57899,127972,5
57890,127975,5
57894,127961,4
57885,127947,5
57882,127928,5
57870,127905,5
57839,127856,4
57802,127792,5
57775,127742,5
57753,127701,5
57740,127677,5
57727,127665,4
57737,127647,5
57726,127645,5
57719,127635,5
57721,127636,5
57720,127640,4
57711,127637,5
57716,127627,5
57718,127622,5
57706,127634,4
57716,127641,4
57726,127658,5
57729,127663,5
57742,127677,5
57742,127676,4
57745,127665,6
57719,127623,4
57669,127522,5
57632,127473,5
57614,127435,4
57583,127367,5
57552,127297,5
57412,127289,5
57517,127241,5
57500,127218,4
57489,127203,5
57294,127199,5
57489,127190,5
57483,127173,5
57473,127167,4
57316,127170,5
57471,127171,5
57482,127180,5
57480,127182,4
57570,127201,4
57505,127198,5
57494,127211,5
57508,127235,5
57720,127246,4
57513,127249,5
57516,127272,6
57521,127277,4
57699,127294,5
57536,127294,4
57543,127306,5
57551,127323,5
57606,127334,5
57574,127343,5
57576,127348,4
57574,127368,5
57581,127304,5
57568,127370,5
57561,127360,5
57569,127354,4
57570,127184,5
57563,127355,5
57569,127348,5
57564,127340,5
57561,127126,4
57551,127323,5
57544,127312,5
57537,127298,5
57529,127284,4
57518,127251,4
57506,127229,5
57494,127206,6
57475,127379,4
57469,127177,4
57459,127162,5
57443,127140,5
57430,127341,5
57422,127086,5
57415,127087,4
57411,127080,5
57412,127168,5
57417,127096,5
57431,127102,5
57412,127118,4
57420,127135,5
57427,127109,5
57426,127122,5
57431,127125,5
57434,127120,4
57433,127118,5
57427,127117,5
57428,127125,5
57434,127125,5
57433,127130,4
57426,127110,5
57426,127105,5
57411,127085,5
57400,127050,4
57379,127023,4
57356,126971,5
57326,126906,5
57290,126852,5
57259,126803,4
57242,126766,5
57221,126727,5
57217,126701,5
57194,126678,5
57194,126658,4
57183,126648,5
57170,126645,5
57181,126651,5
57177,126652,5
57182,126647,4
57176,126648,5
57179,126654,5
57184,126647,5
57181,126650,5
57192,126664,5
57195,126687,4
57205,126692,5
57192,126692,5
57184,126644,4
57152,126570,4
57120,126532,5
57107,126503,5
57088,126452,5
57055,126395,4
57034,126365,5
57029,126353,5
57009,126315,5
57001,126293,5
56984,126276,4
56979,126267,5
56978,126272,5
56981,126277,5
56984,126269,5
56979,126272,4
56991,126266,5
56990,126279,5
56982,126288,5
56994,126296,5
57000,126311,4
57006,126325,6
57010,126338,4
57019,126351,5
57034,126377,5
57032,126382,4
57043,126392,5
57056,126402,5
57062,126417,5
57062,126425,4
57061,126427,4
57059,126425,5
57067,126435,5
57076,126455,5
57085,126474,4
57078,126456,5
57066,126444,5
57055,126431,5
57049,126410,5
57047,126393,4
57029,126377,5
57020,126356,5
57014,126349,6
57007,126327,4
56866,126296,4
56983,126276,5
56973,126257,5
56951,126228,5
56742,126185,5
56928,126163,4
56906,126143,5
56900,126119,5
56734,126112,5
56879,126102,5
56889,126108,4
56874,126098,5
56968,126094,5
56878,126103,5
56885,126109,4
56880,126103,4
57100,126119,5
56883,126100,5
56896,126106,5
56887,126110,5
57035,126106,4
56877,126101,5
56886,126094,5
56870,126081,6
56910,126075,3
56855,126060,5
56835,126037,5
56833,126005,5
56796,125884,5
56760,125891,4
56732,125830,5
56696,125767,5
56647,125508,5
56605,125588,5
56559,125512,4
56519,125425,5
56462,125147,5
56453,125324,5
56435,125298,5
56436,125293,4
56437,125295,5
56434,125295,5
56464,125331,5
56506,125419,4
56558,125704,6
56638,125656,4
56715,125743,5
56738,125786,5
56759,126045,6
56786,125874,3
56863,126036,5
57051,126378,5
57275,126813,5
57386,126884,4
57458,126988,5
57515,127061,5
57520,127065,5
57565,127132,5
57638,127247,4
57620,127177,5
57552,127050,5
57535,127032,5
57530,127029,5
57553,127066,4
57597,127139,5
57631,127203,5
57664,127245,5
57715,127333,4
57748,127366,4
57750,127370,6
57766,127413,4
57853,127598,5
57985,127812,4
58077,127965,5
58141,128062,5
58204,128174,5
58236,128245,5
58295,128344,4
58354,128446,5
58416,128530,5
58429,128539,5
58432,128592,5
58469,128665,4
58516,128709,5
58483,128628,5
58461,128637,5
58544,128840,5
58753,129216,4
58970,129549,5
59093,129720,5
59067,129684,5
59045,129656,4
59103,129830,4
59374,130364,5
59720,130957,6
60059,131543,4
60216,131767,4
60201,131716,5
60152,131684,5
60151,131684,5
60196,131765,5
60259,131865,4
60312,131950,5
60318,131956,5
60379,132061,5
60444,132160,5
60533,132356,4
60736,132673,5
60864,132889,5
60875,132880,5
60921,133004,5
61117,133345,4
61316,133737,5
61519,134044,5
61606,134207,5
61788,134581,5
62141,135251,4
62525,135783,5
62657,136004,5
62901,136469,6
63215,136972,3
63440,137342,4
63539,137494,5
63509,137467,5
63544,137545,5
63577,137606,4
63574,137644,5
63664,137822,5
63834,138108,5
63949,138277,5
64092,138547,4
64393,139078,5
64809,139650,9
64750,139550,1
64631,139393,5
64641,139492,4
64686,139481,5
64430,139361,5
64476,139144,5
64322,138947,5
64274,138931,5
64102,139060,4
64384,139089,5
64305,138937,5
64161,138760,5
63976,138701,4
64065,138569,5
64016,138489,5
63944,138388,5
63991,138218,4
63792,138185,4
63837,138283,5
63938,138430,5
64128,138258,5
63724,138098,4
63683,138034,5
63675,138013,10
63769,137858,8
63478,137689,5
63477,137733,5
63581,137911,8
64213,138912,5
64213,138912,5
64364,139154,5
64440,139250,8
64475,139296,5
64391,139176,5
64332,139147,8
64414,139327,5
64590,139572,5
64663,139627,8
64676,139674,5
64707,139724,5
64746,139847,3
64731,139845,2
64694,139744,0
64614,139635,5
64597,139639,5
64675,139734,5
64645,139660,5
64561,139555,4
64549,139560,5
64593,139635,5
64670,139777,5
64805,139998,5
64962,140238,4
65091,140430,5
65117,140449,6
65096,140406,4
64981,140178,5
64727,139826,4
64617,139735,5
64653,139807,5
64740,139915,5
64793,139973,5
64781,139950,4
64774,139960,5
64808,140039,5
64883,140160,5
64971,140291,4
65069,140455,4
65130,140529,5
65161,140597,5
65206,140672,5
65251,140752,4
65303,140847,5
65335,140873,5
65339,140875,5
65329,140874,5
65323,140864,4
65302,140816,5
65246,140747,5
65202,140697,6
65169,140644,4
65123,140592,4
65101,140566,5
65095,140580,5
65119,140597,5
65136,140620,5
65159,140666,4
65187,140717,5
65203,140728,5
65216,140764,5
65272,140866,4
65331,140962,4
65390,141047,5
65419,141101,5
65447,141137,5
65417,141046,4
65284,140851,5
65184,140713,5
65139,140658,5
65088,140531,5
64979,140381,5
64905,140260,4
64836,140170,5
64809,140115,5
64785,140085,5
64770,140061,4
64783,140067,5
64787,140107,5
64825,140153,5
64852,140199,5
