RED,IR,EKG,TIME
32739,68797,8
32749,68823,7
32775,68904,10
32837,68992,7
32871,69078,5
32912,69157,5
33045,69392,8
33045,69392,7
33062,69438,8
33069,69453,7
33086,69470,9
33022,69353,10
33022,69353,9
33037,69371,8
33051,69411,7
33250,69773,10
33250,69773,7
33275,69827,5
33310,69897,8
33330,69958,7
33336,70029,5
33403,70088,5
33564,70391,10
33564,70391,5
33600,70463,5
33645,70516,10
33590,70558,5
33665,70598,5
33682,70616,10
33678,70613,5
33614,70420,5
33614,70420,10
33568,70370,5
33544,70335,5
33523,70293,10
33574,70279,5
33505,70210,7
33284,69818,8
33284,69818,5
33240,69744,7
33235,69629,8
33165,69600,9
33046,69353,10
33046,69353,9
33031,69324,10
33012,69241,5
32897,69061,7
32897,69061,8
32866,68999,5
32837,68943,7
32807,68852,8
32783,68817,5
32755,68768,7
32616,68520,8
32616,68520,5
32589,68532,7
32571,68434,8
32568,68408,5
32546,68370,7
32502,68397,8
32498,68317,5
32505,68310,7
32410,68109,8
32410,68109,9
32380,68030,8
32342,67964,5
32301,67856,7
32191,67674,8
32191,67674,5
32166,67646,7
32166,67638,7
32166,67625,5
32154,67622,7
32110,67619,8
32143,67600,5
32164,67612,7
32168,67637,8
32168,67637,9
32180,67639,5
32179,67653,8
32181,67618,7
32181,67660,5
32214,67713,8
32214,67713,7
32219,67759,7
32222,67747,10
32223,67734,3
32210,67732,3
32214,67724,4
32223,67773,5
32226,67722,5
32224,67720,5
32207,67705,5
32205,67709,4
32195,67692,5
32195,67667,5
32174,67652,5
32174,67626,5
32153,67608,4
32142,67574,5
32116,67540,5
32099,67515,5
32088,67477,5
32080,67450,4
32069,67423,7
32059,67395,3
32042,67373,5
32031,67355,4
32011,67343,5
32015,67332,5
32007,67319,5
32007,67310,5
31999,67295,4
32004,67304,5
32004,67296,5
31987,67283,5
31996,67274,5
31992,67265,4
31974,67253,5
31964,67222,5
31945,67190,5
31928,67152,5
31900,67102,4
31878,67063,5
31860,66998,5
31822,66945,5
31800,66907,5
31776,66868,4
31762,66832,5
31751,66808,6
31734,66789,4
31740,66772,4
31728,66756,5
31722,66755,5
31721,66754,5
31725,66759,5
31707,66767,4
31745,66785,5
31739,66812,5
31747,66817,5
31692,66793,5
31729,66753,4
31706,66703,5
31684,66673,5
31610,66645,5
31648,66607,5
31637,66585,4
31622,66557,5
31601,66537,5
31600,66518,5
31596,66507,5
31586,66501,4
31641,66509,5
31604,66522,5
31605,66533,5
31617,66542,4
31679,66561,4
31627,66590,5
31639,66595,5
31646,66608,5
31684,66622,4
31664,66630,5
31662,66654,5
31670,66663,5
31693,66678,5
31690,66693,4
31689,66693,5
31709,66710,5
31702,66694,5
31713,66735,5
31723,66744,4
31724,66763,5
31734,66717,5
31749,66785,5
31746,66790,5
31746,66788,5
31744,66717,4
31746,66790,5
31735,66780,5
31739,66776,4
31733,66774,4
31728,66763,5
31722,66749,5
31726,66737,5
31711,66786,4
31706,66713,5
31699,66688,5
31691,66673,5
31675,66715,5
31661,66623,5
31654,66609,4
31641,66592,5
31633,66597,5
31626,66558,5
31625,66538,4
31607,66522,5
31602,66519,5
31595,66506,5
31599,66506,5
31593,66506,4
31586,66504,6
31606,66504,4
31599,66510,5
31596,66504,4
31593,66499,4
31605,66495,5
31599,66508,5
31591,66509,5
31598,66503,4
31597,66511,5
31599,66505,5
31606,66506,5
31597,66503,5
31594,66502,4
31595,66483,5
31581,66466,5
31572,66450,5
31563,66407,5
31535,66365,4
31509,66314,5
31472,66246,5
31436,66192,6
31410,66123,4
31373,66060,4
31354,66004,5
31340,65981,5
31323,65951,5
31309,65944,4
31321,65940,4
31323,65961,5
31327,65973,5
31336,65980,5
31354,66005,4
31357,66024,5
31364,66045,5
31387,66070,5
31387,66098,5
31408,66122,4
31416,66144,5
31419,66142,5
31400,66112,5
31385,66066,5
31366,66030,5
31346,65988,4
31328,65947,5
31306,65916,5
31290,65887,6
31288,65863,3
31262,65845,5
31273,65833,5
31250,65814,5
31256,65823,4
31260,65819,4
31261,65829,5
31266,65842,5
31273,65863,5
31285,65868,4
31289,65891,5
31302,65906,5
31314,65928,5
31320,65949,5
31333,65965,4
31329,65974,5
31336,65989,5
31345,66017,5
31362,66038,5
31374,66038,4
31386,66063,6
31386,66080,4
31407,66103,5
31418,66118,5
31419,66137,6
31433,66155,3
31439,66175,5
31440,66190,5
31449,66177,4
31445,66188,4
31431,66195,5
31450,66193,5
31452,66196,5
31444,66190,4
31406,66186,5
31436,66188,5
31435,66169,5
31434,66177,5
31371,66154,4
31419,66141,5
31423,66129,5
31410,66106,5
31381,66092,5
31396,66075,4
31381,66047,5
31365,66043,6
31394,66033,4
31356,66006,5
31342,66003,4
31341,65995,5
31416,65988,5
31335,65991,5
31336,65983,4
31338,65984,4
31384,65983,5
31336,65979,5
31333,65982,5
31336,65987,4
31353,65979,5
31340,65978,5
31333,65994,5
31351,65987,5
31345,65973,4
31347,66004,5
31343,65989,5
31355,65996,5
31348,65953,5
31341,66002,4
31347,66002,5
31344,65999,5
31340,65937,6
31340,65982,4
31338,65979,4
31328,65953,5
31312,65924,5
31294,65893,5
31263,65836,4
31247,65797,4
31215,65804,5
31200,65704,5
31174,65681,5
31160,65646,4
31159,65698,5
31144,65621,5
31145,65629,5
31155,65638,5
31159,65676,4
31160,65658,5
31170,65669,5
31176,65679,5
31177,65709,5
31193,65704,5
31199,65731,4
31217,65745,5
31214,65760,5
31218,65740,6
31197,65690,3
31164,65647,5
31147,65617,5
31130,65586,5
31120,65555,4
31106,65530,4
31094,65511,5
31082,65489,5
31071,65474,5
31079,65477,4
31079,65479,5
31075,65484,5
31080,65489,5
31082,65506,5
31091,65511,4
31110,65549,5
31113,65564,5
31124,65570,5
31140,65604,5
31141,65618,4
31150,65632,6
31163,65653,4
31163,65662,5
31178,65678,5
31185,65688,4
31195,65706,5
31202,65731,5
31214,65738,5
31212,65755,4
31229,65770,5
31224,65776,5
31247,65788,5
31241,65795,5
31244,65807,4
31237,65803,5
31248,65793,5
31242,65787,5
31241,65794,5
31229,65778,4
31229,65775,5
31224,65771,5
31230,65761,5
31222,65761,5
31212,65744,4
31206,65724,5
31202,65713,6
31190,65700,4
31183,65685,5
31183,65665,4
31168,65662,5
31172,65654,5
31155,65640,5
31157,65635,4
31159,65619,4
31149,65615,5
31147,65615,5
31142,65618,5
31151,65617,4
31148,65621,5
31148,65628,5
31146,65628,5
31153,65633,5
31152,65630,4
31149,65634,5
31167,65642,5
31162,65639,5
31161,65641,5
31157,65650,4
31163,65656,5
31163,65652,5
31165,65658,6
31157,65652,4
31169,65655,4
31167,65654,5
31164,65645,5
31157,65644,5
31156,65654,4
31162,65650,5
31153,65641,5
31122,65647,5
31161,65636,5
31155,65644,4
31154,65627,5
31094,65626,5
31143,65616,5
31143,65621,5
31138,65607,4
31095,65598,5
31134,65596,5
31130,65579,5
31127,65582,5
31148,65556,5
31119,65545,4
31104,65513,5
31078,65486,5
31115,65436,5
31035,65391,4
31005,65347,5
30979,65293,5
30998,65238,5
30927,65187,4
30915,65165,5
30894,65133,5
30904,65097,5
30879,65103,5
30875,65097,4
30871,65106,5
30885,65086,5
30881,65117,5
30882,65135,5
30893,65140,4
30898,65096,5
30907,65160,6
30912,65175,4
30918,65174,5
30912,65121,4
30899,65135,7
30881,65089,3
30835,65024,5
30817,64948,4
30795,64910,4
30768,64871,5
30746,64834,5
30735,64848,5
30719,64799,4
30715,64793,5
30712,64783,5
30717,64861,5
30724,64802,5
30735,64813,4
30740,64843,5
30764,64910,5
30766,64894,5
30774,64911,5
30794,64939,4
30799,64973,5
30815,64983,5
30832,65005,5
30837,65021,5
30842,65034,4
30858,65059,5
30865,65080,6
30876,65090,4
30889,65112,4
30889,65132,4
30898,65148,5
30908,65154,5
30922,65159,5
30916,65185,4
30924,65194,5
30939,65204,5
30937,65201,5
30933,65199,5
30934,65190,4
30936,65196,5
30928,65185,5
30930,65188,5
30927,65190,5
30917,65180,4
30927,65173,5
30913,65173,5
30914,65165,5
30913,65156,5
30913,65152,4
30912,65153,5
30912,65146,5
30906,65139,5
30904,65141,4
30896,65142,4
30903,65143,5
30912,65152,5
30910,65159,5
30922,65169,4
30921,65179,5
30933,65201,5
30937,65218,5
30952,65237,5
30962,65255,4
30968,65285,5
30988,65298,5
30995,65326,5
31011,65335,5
31018,65361,4
31025,65377,5
31031,65393,5
31043,65408,5
31042,65417,5
31057,65433,5
31056,65440,4
31056,65443,5
31066,65465,5
31072,65455,4
31070,65462,4
31064,65454,5
31064,65454,5
31059,65443,5
31052,65427,4
31044,65420,5
31037,65390,5
31029,65357,5
31009,65353,5
31004,65327,4
30993,65316,5
30983,65306,5
30986,65299,5
30986,65301,5
30993,65300,4
30984,65300,5
30992,65314,6
31005,65336,4
31011,65354,5
31022,65364,4
31029,65390,7
31032,65396,3
31049,65411,5
31048,65431,4
31055,65431,4
31057,65431,5
31047,65392,5
31022,65353,5
30959,65301,4
30970,65272,5
30954,65232,5
30949,65221,5
30881,65202,5
30934,65177,4
30924,65177,5
30928,65189,5
30881,65202,5
30943,65211,5
30947,65231,4
30965,65257,5
30998,65290,5
31004,65332,6
31015,65372,4
31039,65400,4
31111,65450,5
31067,65486,5
31097,65518,5
31102,65543,4
31183,65561,4
31139,65598,5
31154,65632,5
31163,65646,5
31208,65671,4
31198,65693,5
31196,65710,5
31205,65724,5
31223,65734,5
31226,65763,4
31233,65770,5
31239,65777,5
31239,65743,5
31238,65782,5
31233,65777,5
31233,65783,4
31233,65729,5
31229,65784,5
31227,65772,6
31236,65777,3
31232,65723,5
31222,65747,5
31221,65740,5
31211,65721,8
31210,65740,1
31200,65706,5
31197,65698,5
31191,65717,5
31199,65758,4
31191,65700,5
31198,65701,5
31203,65709,5
31201,65765,5
31201,65724,4
31213,65735,5
31220,65758,5
31222,65785,5
31231,65784,5
31250,65802,4
31258,65833,6
31271,65859,4
31287,65885,5
31300,65910,5
31313,65935,4
31330,65971,5
31340,65993,5
31359,66012,5
31365,66016,4
31368,66029,4
31368,66021,5
31369,66027,5
31364,66017,5
31358,66000,4
31350,65994,5
31343,65984,5
31340,65955,5
31324,65945,5
31316,65934,4
31317,65927,5
31308,65933,5
31314,65928,5
31317,65933,5
31315,65945,4
31332,65969,5
31328,65976,6
31350,66000,4
31354,66009,5
31356,66029,4
31367,66034,5
31380,66058,5
31382,66070,5
31379,66063,4
31362,66023,4
31343,65975,5
31314,65927,5
31298,65873,5
31273,65846,4
31259,65811,5
31246,65788,5
31232,65781,5
31244,65793,5
31237,65779,4
31247,65796,5
31252,65814,5
31265,65842,5
31285,65880,5
31297,65917,4
31319,65953,5
31351,66012,5
31367,66055,6
31403,66104,4
31424,66141,4
31439,66185,5
31459,66214,5
31472,66249,5
31494,66275,4
31509,66319,4
31519,66345,5
31538,66376,5
31556,66404,5
31571,66426,4
31583,66459,5
31601,66491,5
31623,66529,5
31633,66543,5
31638,66551,4
31633,66547,5
31640,66558,5
31639,66563,5
31643,66561,5
31652,66567,5
31650,66562,4
31648,66571,5
31635,66560,5
31636,66547,5
31635,66531,4
31616,66524,5
31613,66495,5
31596,66477,5
31589,66465,4
31591,66458,4
31572,66459,5
31587,66465,5
31586,66460,5
31593,66468,4
31552,66476,5
31606,66488,5
31602,66501,5
31623,66530,5
31579,66550,4
31652,66582,5
31662,66599,5
31685,66637,5
31676,66674,5
31702,66689,4
31711,66708,6
31722,66715,4
31758,66723,5
31716,66717,5
31721,66715,4
31712,66715,5
31778,66699,5
31709,66700,5
31707,66695,4
31706,66681,4
31742,66684,5
31714,66688,5
31706,66685,5
31710,66700,4
31727,66713,5
31727,66724,5
31730,66739,5
31738,66750,5
31742,66748,4
31760,66800,5
31769,66824,5
31780,66842,5
31789,66795,5
31784,66815,4
31758,66760,5
31732,66731,6
31711,66635,4
31690,66655,5
31679,66623,4
31666,66601,5
31648,66589,5
31651,66574,5
31651,66571,4
31649,66574,4
31643,66641,5
31669,66606,5
31672,66627,5
31687,66650,4
31691,66736,5
31707,66686,5
31709,66708,5
31731,66728,5
31739,66778,4
31740,66765,5
31761,66785,5
31760,66798,5
31778,66823,5
31774,66827,4
31776,66831,5
31786,66841,5
31790,66850,5
31804,66863,5
31798,66857,4
31805,66885,5
31816,66892,5
31804,66886,5
31809,66871,4
31811,66870,4
31794,66863,5
31800,66844,5
31791,66834,5
31783,66830,4
31775,66806,5
31762,66792,5
31755,66765,5
31737,66745,5
31728,66710,4
31717,66677,5
31704,66659,5
31672,66619,5
31665,66598,5
31646,66576,5
31641,66550,4
31631,66537,5
31616,66506,5
31612,66501,5
31602,66486,4
31608,66483,5
31592,66479,5
31591,66472,5
31599,66468,4
31593,66460,5
31591,66458,5
31583,66458,5
31581,66437,5
31576,66419,4
31564,66403,5
31546,66365,5
31531,66326,5
31506,66311,5
31490,66270,4
31484,66245,5
31470,66222,5
31458,66205,5
31447,66196,5
31450,66175,4
31443,66180,6
31445,66184,4
31445,66188,5
31450,66184,5
31455,66192,4
31461,66208,5
31460,66223,5
31468,66232,5
31470,66238,4
31473,66220,5
31450,66179,5
31429,66141,5
31418,66109,5
31408,66074,4
31377,66053,5
31367,66032,5
31369,66009,5
31348,65995,5
31351,65982,4
31335,65975,5
31345,65982,5
31349,65988,5
31352,65995,5
31358,66009,4
31374,66023,5
31379,66040,5
31385,66060,5
31405,66080,4
31401,66095,4
31414,66122,5
31425,66134,5
31431,66155,5
31427,66165,4
31439,66168,5
31451,66193,5
31418,66207,5
31470,66217,5
31470,66229,4
31481,66246,5
31433,66251,5
31499,66284,5
31512,66296,5
31508,66293,4
31471,66292,5
31504,66300,5
31507,66297,5
31515,66294,5
31529,66296,4
31510,66285,5
31503,66281,5
31492,66264,5
31554,66250,4
31483,66247,4
31472,66221,5
31471,66209,5
31507,66183,5
31440,66153,4
31422,66133,5
31412,66105,5
31430,66087,5
31391,66075,5
31392,66069,4
31384,66052,5
31377,66035,5
31376,66042,5
31380,66039,5
31375,66038,4
31378,65989,5
31369,66043,4
31376,66038,5
31382,66044,5
31379,65980,5
31372,66048,3
31370,66029,5
31375,66029,5
31359,65969,4
31341,65963,4
31328,65930,5
31299,65883,5
31284,65896,5
31262,65809,4
31242,65769,5
31230,65749,5
31213,65785,5
31201,65702,5
31197,65692,4
31196,65686,5
31187,65735,5
31191,65689,5
31202,65693,5
31200,65703,4
31199,65732,5
31211,65740,6
31226,65760,4
31240,65787,5
31244,65790,4
31246,65775,5
31229,65742,5
31216,65716,5
31204,65684,4
31187,65665,4
31174,65652,5
31175,65636,5
31167,65627,5
31148,65608,4
31157,65606,5
31153,65604,5
31158,65606,5
31151,65619,5
31155,65627,4
31171,65641,5
31171,65664,5
31180,65666,5
31191,65682,5
31203,65697,4
31206,65723,5
31211,65731,5
31227,65744,6
31234,65760,4
31237,65773,4
31256,65780,5
31248,65805,5
31257,65810,5
31262,65823,4
31273,65844,4
31276,65849,5
31285,65851,5
31289,65870,5
31300,65889,4
31310,65899,5
31306,65908,5
31303,65907,5
31312,65913,5
31310,65906,4
31313,65914,5
31318,65920,5
31318,65916,5
31308,65911,5
31306,65911,5
31301,65906,4
31301,65888,5
31300,65884,5
31283,65867,6
31276,65851,3
31277,65834,5
31259,65819,5
31257,65805,5
31250,65787,4
31237,65767,4
31227,65748,5
31224,65740,5
31215,65719,5
31206,65707,4
31203,65703,5
31197,65694,5
31203,65705,5
31200,65692,5
31201,65689,4
31206,65691,5
31197,65697,5
31207,65702,5
31191,65692,5
31199,65694,4
31199,65697,6
31199,65695,4
31204,65705,5
31201,65694,5
31202,65709,4
31198,65713,5
31209,65710,5
31205,65713,5
31205,65706,4
31201,65707,4
31199,65703,5
31191,65685,5
31183,65651,5
31138,65606,4
31133,65549,5
31091,65485,5
31065,65430,5
30987,65363,5
31007,65304,4
30980,65262,5
30967,65229,5
30893,65223,5
30944,65217,5
30953,65223,4
30958,65228,5
30963,65253,6
30980,65274,4
30986,65301,5
31000,65333,4
31059,65361,5
31020,65381,5
31049,65415,5
31070,65453,4
31149,65472,4
31089,65482,5
31071,65453,5
31060,65420,5
31080,65394,4
31034,65366,5
31021,65341,5
31016,65329,5
31009,65316,5
30996,65303,4
30997,65300,5
30997,65294,5
30991,65260,5
30991,65298,5
30991,65299,6
31002,65328,3
31012,65288,5
31027,65368,6
31038,65389,4
31050,65411,4
31065,65379,5
31076,65464,5
31095,65489,5
31095,65513,4
31109,65545,4
31129,65554,5
31132,65578,5
31142,65596,5
31156,65672,4
31164,65625,5
31173,65654,5
31178,65667,5
31188,65752,5
31198,65688,4
31197,65713,5
31211,65733,5
31221,65769,5
31222,65738,5
31216,65725,5
31209,65729,4
31219,65731,5
31210,65728,5
31208,65721,5
31217,65708,4
31209,65709,5
31203,65703,5
31201,65700,5
31196,65683,4
31194,65682,5
31183,65657,5
31184,65659,5
31177,65644,5
31163,65633,4
31164,65625,5
31154,65608,5
31153,65611,5
31142,65598,5
31143,65589,4
31149,65590,5
31155,65584,5
31138,65583,5
31148,65588,5
31159,65602,4
31142,65605,6
31156,65603,4
31156,65611,5
31157,65612,5
31156,65621,4
31159,65627,5
31163,65622,5
31166,65627,5
31179,65635,4
31176,65645,5
31174,65640,5
31177,65650,5
31180,65654,5
31180,65650,4
31181,65655,5
31173,65652,5
31167,65647,5
31168,65619,5
31156,65608,4
31140,65583,5
31127,65545,5
31111,65507,5
31088,65476,5
31064,65438,4
31050,65401,5
31040,65385,6
31024,65365,4
31029,65373,5
31026,65364,4
31032,65374,5
31031,65382,5
31043,65396,5
31044,65415,4
31061,65425,5
31069,65446,5
31075,65461,5
31087,65486,5
31097,65507,4
31127,65542,5
31119,65537,5
31109,65518,5
31094,65479,5
31082,65446,4
31052,65425,5
31051,65408,5
31038,65390,5
31036,65368,5
31034,65358,4
31024,65350,5
31028,65352,5
31029,65361,5
31038,65370,5
31046,65398,4
31059,65424,5
31079,65473,5
31092,65507,5
31114,65543,4
31124,65567,5
31146,65604,5
31157,65625,5
31174,65649,5
31180,65667,4
31153,65679,5
31198,65697,5
31202,65714,5
31209,65739,5
31164,65748,4
31235,65783,6
31252,65815,4
31262,65849,5
31240,65885,5
31311,65915,5
31327,65966,4
31356,65994,5
31385,66014,5
31356,66016,5
31369,66006,4
31360,65996,5
31409,65972,5
31339,65957,5
31325,65927,4
31316,65910,5
31369,65901,5
31309,65886,5
31299,65871,5
31286,65819,4
31267,65741,5
31172,65580,5
31085,65411,5
31021,65312,5
30977,65229,4
30963,65203,5
30945,65165,5
30875,65029,5
30778,64777,5
30681,64653,4
30635,64570,6
30612,64547,4
30632,64544,5
30675,64681,5
30723,64790,4
30794,64902,5
30800,64874,5
30804,64908,5
30809,64929,4
30841,64979,5
30873,65103,5
30937,65207,5
31013,65371,5
31102,65523,4
31204,65794,5
31309,65939,5
31432,66161,5
31525,66332,5
31587,66497,4
31629,66537,5
31663,66600,5
31680,66645,5
31684,66651,5
31678,66614,4
31655,66576,5
31636,66561,5
31644,66572,5
31657,66592,4
31667,66619,4
31678,66642,5
31694,66668,5
31698,66667,5
31692,66661,4
31694,66669,5
31694,66669,5
31695,66653,5
31650,66563,5
31608,66465,4
31578,66423,5
31578,66436,5
31576,66431,5
31570,66414,5
31540,66335,4
31462,66157,5
31342,65919,5
31226,65679,5
31129,65514,5
31070,65405,4
31024,65313,5
30971,65222,5
30938,65160,5
30898,65091,4
30880,65046,4
30880,65065,5
30912,65135,5
30966,65221,5
31023,65326,4
31068,65395,5
31087,65456,5
31128,65517,5
31184,65627,5
31231,65708,4
31224,65672,5
31222,65689,5
31282,65813,5
31360,65982,5
31450,66137,4
31550,66329,6
31638,66487,4
31677,66552,5
31725,66638,5
31769,66726,6
31813,66821,3
31864,66916,5
31890,66974,5
31908,67001,4
31927,67031,4
31932,67038,5
31889,66957,5
31860,66919,5
31864,66946,4
31909,67037,5
31970,67170,5
32059,67321,5
32110,67385,5
32095,67362,4
32078,67339,5
32072,67321,5
32057,67296,5
32056,67309,5
32075,67336,4
32085,67377,5
32121,67422,6
32137,67450,4
32141,67477,5
32164,67524,4
32195,67596,5
32241,67690,5
32284,67769,5
32325,67854,4
32352,67920,4
32345,67875,5
32319,67810,5
32279,67759,5
32271,67744,4
32271,67740,5
32278,67754,5
32260,67760,5
32275,67752,5
32247,67686,4
32236,67680,5
32197,67696,5
32273,67758,5
32298,67811,5
32290,67793,4
32216,67743,5
32230,67665,5
32183,67567,6
32163,67556,4
32164,67562,4
32189,67565,5
32181,67556,5
32186,67607,5
32252,67613,4
32167,67498,4
32071,67330,5
32027,67268,5
32084,67249,5
32024,67285,4
32056,67358,5
32088,67383,5
32132,67377,5
32091,67387,5
32088,67372,4
32080,67374,5
32116,67419,5
32146,67499,5
32186,67571,5
32219,67604,5
32183,67484,4
32106,67348,5
31982,67130,5
31879,66940,6
31831,66803,3
31833,66881,5
31852,66912,5
31879,66965,5
31909,66977,4
31956,67120,5
31983,67175,4
32029,67275,5
32077,67369,5
32101,67392,4
32103,67378,5
32100,67416,5
32144,67543,5
32194,67585,5
32253,67712,4
32302,67785,5
32305,67842,5
32288,67754,5
32295,67787,5
32320,67833,4
32343,67920,6
32387,67981,4
32444,68127,5
32542,68303,5
32640,68506,4
32730,68669,5
32798,68793,5
32859,68915,5
32906,69012,4
32963,69107,4
33006,69182,5
33049,69254,5
33061,69291,5
33059,69279,4
33034,69227,5
32978,69113,5
32936,69059,5
32939,69073,5
32962,69135,4
32995,69177,5
33016,69195,5
33017,69199,5
33004,69172,5
32990,69134,4
32969,69115,5
32960,69121,6
32974,69122,4
32963,69089,5
32948,69060,4
32930,69028,5
32916,69005,5
32902,68990,5
32902,68975,4
32911,68965,4
32886,68917,5
32870,68870,5
32837,68815,5
32793,68717,4
32731,68593,5
32672,68480,5
32624,68372,5
32567,68272,5
32525,68201,4
32506,68156,5
32460,68078,5
32427,67987,5
32393,67949,5
32400,67954,4
32397,67951,5
32400,67969,5
32400,67956,6
32403,67965,4
32425,68004,4
32432,68046,5
32463,68094,5
32485,68131,5
32504,68183,4
32529,68206,4
32527,68214,5
32534,68242,5
32564,68302,5
32605,68378,4
32659,68474,5
32700,68561,5
32755,68679,5
32795,68757,5
32825,68810,4
32859,68864,5
32894,68958,5
32948,69064,5
33006,69184,5
33070,69288,5
33099,69353,4
33137,69415,5
33168,69478,5
33196,69535,5
33231,69604,4
33262,69674,5
33289,69703,5
33272,69683,5
33261,69698,4
33289,69745,4
33320,69811,5
33362,69899,5
33422,70004,5
33479,70115,4
33521,70181,5
33535,70179,5
33521,70161,5
33483,70120,5
33487,70080,4
33462,70010,5
33420,69935,5
33320,69852,5
33337,69752,5
33271,69623,4
33187,69470,6
33062,69350,4
33061,69224,5
33000,69110,5
32951,69001,4
32893,68894,5
32846,68805,5
32798,68709,5
32754,68631,5
32766,68553,4
32676,68484,5
32641,68409,5
32611,68354,5
32531,68119,9
32531,68119,5
32472,68090,5
32450,68055,5
32436,68018,4
32424,67971,5
32384,67930,5
32366,67886,5
32346,67838,5
32323,67767,4
32298,67764,5
32292,67739,6
32280,67713,4
32271,67649,5
32268,67703,4
32273,67707,5
32278,67720,5
32279,67674,5
32285,67752,5
32297,67767,4
32299,67785,5
32312,67816,5
32336,67833,5
32341,67861,4
32340,67869,5
32339,67896,5
32324,67800,5
32309,67769,5
32286,67742,4
32269,67784,5
32259,67687,5
32252,67680,5
32244,67654,6
32225,67677,3
32228,67641,5
32231,67634,5
32226,67633,5
32222,67636,5
32225,67635,4
32225,67647,5
32228,67653,5
32236,67655,5
32242,67665,5
32239,67679,4
32245,67679,5
32251,67683,5
32249,67690,5
32262,67687,4
32255,67700,5
32256,67694,5
32267,67695,5
32269,67706,5
32275,67708,4
32267,67714,5
32275,67719,5
32281,67733,5
32275,67727,5
32282,67728,5
32273,67729,4
32270,67724,5
32270,67723,5
32267,67719,5
32268,67704,4
32267,67700,5
32264,67694,5
32253,67678,5
32250,67665,5
32238,67650,4
32232,67625,5
32223,67602,5
32211,67580,5
32196,67553,4
32179,67521,5
32171,67488,5
32145,67464,5
32139,67434,5
32119,67408,4
32114,67385,5
32090,67362,5
32094,67337,5
32073,67314,5
32063,67300,4
32059,67293,6
32063,67285,4
32060,67278,5
32053,67275,5
32053,67272,4
32051,67277,5
32050,67274,5
32051,67275,5
32057,67272,5
32051,67282,4
32059,67269,5
32055,67270,5
32054,67259,5
32044,67243,4
32024,67208,5
32003,67160,5
31964,67088,5
31931,67019,5
31898,66957,4
31858,66885,5
31824,66815,5
31794,66767,5
31779,66716,5
31761,66698,4
31756,66693,5
31752,66692,5
31763,66704,5
31767,66718,5
31771,66731,4
31781,66754,5
31801,66784,5
31813,66805,5
31822,66842,5
31848,66879,4
31868,66899,5
31871,66909,5
31850,66882,5
31837,66829,4
31814,66795,5
31796,66768,5
31747,66730,5
31756,66705,5
31750,66666,5
31737,66648,4
31677,66635,5
31713,66611,5
31717,66607,6
31704,66591,3
31646,66598,5
31707,66608,5
31711,66602,5
31717,66622,5
31741,66636,4
31743,66649,5
31744,66669,5
31756,66698,5
31824,66700,5
31768,66714,4
31774,66719,5
31784,66735,5
31854,66749,5
31785,66757,4
31792,66766,5
31797,66773,5
31834,66791,5
31816,66804,5
31821,66808,4
31824,66824,6
31831,66827,4
31838,66843,5
31841,66845,5
31841,66827,6
31831,66785,3
31838,66833,5
31827,66820,5
31825,66824,5
31825,66761,4
31821,66815,5
31816,66815,5
31817,66803,5
31813,66748,5
31807,66778,4
31809,66778,5
31793,66762,5
31791,66772,5
31788,66730,4
31775,66711,5
31761,66707,5
31761,66748,5
31757,66677,5
31747,66675,4
31739,66669,5
31752,66727,6
31748,66660,4
31753,66674,5
31747,66671,4
31748,66709,5
31763,66693,5
31760,66706,5
31771,66707,5
31769,66709,4
31774,66716,5
31775,66718,5
31769,66727,5
31775,66727,5
31780,66732,4
31769,66739,5
31777,66732,5
31782,66738,5
31787,66736,4
31782,66740,5
31789,66733,5
31779,66737,5
31790,66737,5
31787,66733,4
31775,66718,5
31776,66724,5
31763,66698,6
31749,66665,4
31723,66618,4
31707,66562,5
31674,66501,5
31641,66440,5
31610,66393,5
31586,66343,4
31550,66280,5
31539,66234,5
31517,66220,5
31514,66207,4
31510,66207,4
31515,66216,5
31522,66233,5
31535,66238,5
31538,66272,4
31545,66291,5
31555,66310,5
31573,66325,5
31580,66356,5
31587,66377,5
31617,66406,4
31624,66414,5
31622,66427,5
31599,66381,6
31583,66323,3
31554,66274,5
31536,66244,5
31514,66212,5
31502,66182,5
31492,66161,4
31480,66136,5
31473,66118,5
31468,66112,5
31461,66121,4
31473,66119,4
31476,66125,5
31483,66150,5
31487,66171,5
31510,66191,4
31513,66217,5
31522,66248,5
31535,66271,5
31562,66300,5
31571,66325,4
31583,66340,6
31595,66365,4
31605,66393,5
31614,66416,5
31640,66453,4
31657,66484,5
31666,66502,5
31677,66531,5
31687,66547,5
31696,66569,4
31704,66577,5
31713,66592,5
31724,66613,5
31720,66619,4
31732,66622,4
31724,66623,5
31724,66620,5
31720,66614,5
31709,66618,4
31718,66610,5
31724,66609,5
31725,66597,5
31661,66590,5
31703,66589,4
31712,66570,5
31701,66554,6
31632,66543,4
31688,66532,5
31671,66522,4
31670,66507,5
31638,66491,5
31651,66480,5
31647,66473,5
31640,66456,4
31674,66449,5
31623,66428,5
31627,66431,5
31628,66432,4
31684,66420,4
31625,66425,5
31631,66434,5
31626,66432,5
31674,66423,4
31631,66427,5
31635,66435,5
31635,66439,5
31649,66435,5
31633,66436,4
31630,66429,5
31630,66437,5
31636,66406,6
31633,66436,4
31627,66433,4
31629,66439,5
31626,66384,5
31629,66425,5
31630,66430,5
31625,66422,4
31628,66367,5
31621,66424,5
31620,66415,5
31613,66421,5
31618,66407,4
31609,66408,5
31613,66405,5
31609,66390,5
31604,66432,4
31603,66373,5
31592,66346,5
31579,66322,5
31559,66353,5
31531,66233,5
31499,66180,4
31474,66121,5
31452,66117,5
31431,66027,5
31402,65983,4
31384,65953,5
31366,65937,5
31366,65907,5
31357,65901,5
31356,65899,4
31366,65920,5
31364,65930,5
31372,65931,5
31377,65957,4
31379,65973,4
31387,65977,5
31397,65991,5
31407,66016,5
31418,66026,4
31414,66029,5
31421,66017,5
31407,65976,5
31360,65909,5
31349,65867,4
31325,65828,6
31300,65799,4
31290,65771,5
31296,65754,5
31280,65742,4
31284,65719,5
31264,65725,5
31264,65716,5
31267,65718,5
31271,65738,4
31287,65761,5
31296,65775,5
31299,65797,5
31307,65825,4
31322,65837,4
31339,65860,5
31345,65877,5
31356,65895,5
31367,65922,4
31381,65929,5
31381,65954,5
31396,65961,5
31415,65980,5
31410,66006,4
31417,66019,5
31431,66027,6
31434,66040,4
31431,66050,5
31440,66052,4
31442,66071,5
31444,66083,5
31457,66085,5
31444,66073,5
31437,66065,4
31435,66061,5
31437,66044,5
31430,66043,5
31429,66032,5
31424,66025,4
31421,66023,5
31426,66011,5
31411,65998,5
31404,65984,4
31396,65972,5
31386,65950,5
31381,65932,5
31369,65911,5
31357,65899,4
31343,65877,5
31346,65864,5
31333,65841,5
31318,65822,5
31313,65809,4
31302,65796,5
31300,65795,5
31309,65793,5
31298,65798,5
31294,65784,4
31300,65788,5
31306,65788,5
31311,65786,5
31305,65787,5
31300,65790,4
31300,65795,5
31308,65792,5
31309,65795,5
31315,65790,4
31274,65795,5
31308,65797,5
31303,65803,5
31307,65799,5
31261,65808,5
31309,65797,4
31303,65808,5
31312,65797,5
31253,65797,5
31304,65808,7
31305,65806,2
31324,65801,5
31308,65804,5
31305,65801,5
31313,65810,4
31312,65808,5
31369,65818,5
31315,65812,5
31315,65814,5
31315,65812,4
31379,65794,5
31306,65792,5
31302,65779,5
31288,65754,4
31311,65726,5
31260,65710,5
31258,65690,5
31246,65656,5
31246,65650,4
31228,65629,6
31221,65625,4
31229,65640,5
31235,65619,5
31241,65665,4
31260,65696,5
31271,65717,5
31287,65688,5
31291,65771,5
31306,65796,4
31310,65812,5
31321,65764,5
31325,65835,5
31334,65836,5
31323,65802,5
31293,65764,4
31263,65713,5
31255,65685,5
31244,65649,4
31238,65703,5
31225,65629,5
31231,65621,5
31224,65624,4
31225,65701,4
31238,65652,5
31248,65665,5
31257,65693,5
31271,65758,5
31290,65765,4
31312,65795,5
31330,65842,5
31360,65899,5
31383,65930,5
31391,65966,4
31415,65995,5
31422,66022,5
31436,66054,5
31451,66065,5
31469,66090,4
31478,66120,5
31494,66144,5
31507,66170,5
31524,66180,5
31527,66207,4
31536,66228,5
31540,66245,5
31557,66265,6
31571,66285,3
31570,66303,5
31580,66296,5
31579,66303,5
31579,66315,5
31585,66323,4
31581,66317,5
31585,66318,5
31578,66314,5
31583,66311,5
31574,66313,4
31574,66306,5
31565,66295,5
31572,66283,5
31559,66268,5
31557,66271,4
31559,66263,5
31563,66273,5
31558,66278,5
31567,66282,4
31566,66288,6
31568,66289,4
31574,66304,5
31570,66319,5
31587,66325,6
31590,66337,3
31607,66365,5
31618,66389,5
31632,66410,5
31644,66438,4
31657,66455,5
31663,66478,5
31663,66492,5
31677,66509,5
31672,66518,4
31683,66522,5
31698,66537,5
31695,66536,5
31693,66533,5
31683,66511,4
31687,66511,5
31674,66498,5
31669,66483,5
31658,66458,4
31655,66450,5
31644,66430,6
31641,66420,4
31626,66401,5
31623,66401,4
31625,66392,5
31628,66391,5
31626,66396,5
31625,66406,5
31625,66423,4
31642,66415,5
31643,66420,5
31647,66437,5
31650,66446,5
31655,66460,4
31657,66464,5
31660,66458,5
31648,66438,5
31628,66392,5
31590,66334,4
31567,66290,5
31551,66250,5
31547,66229,5
31528,66216,4
31523,66203,5
31483,66206,5
31527,66205,6
31534,66223,4
31544,66236,4
31495,66268,5
31579,66301,5
31598,66357,5
31625,66413,5
31613,66472,4
31686,66529,5
31712,66586,5
31743,66636,5
31790,66694,5
31794,66733,4
31821,66785,5
31836,66833,5
31922,66875,5
31875,66915,5
31900,66942,4
31910,66970,5
31982,66996,5
31942,67015,5
31953,67043,5
31964,67066,4
31995,67082,5
31964,67072,5
31966,67065,6
31960,67050,3
31960,67039,5
31949,67035,5
31940,67025,5
31931,67009,5
31930,66962,4
31925,66988,5
31911,66962,5
31903,66931,5
31877,66837,5
31871,66863,4
31845,66831,5
31834,66800,5
31826,66760,5
31826,66774,5
31814,66774,4
31823,66778,5
31827,66814,5
31816,66780,5
31828,66807,4
31840,66812,6
31852,66897,4
31860,66854,5
31871,66882,5
31887,66907,4
31893,66984,5
31917,66967,5
31926,67007,5
31949,67033,5
31963,67078,4
31972,67098,5
31991,67113,5
32006,67146,5
32014,67160,5
32023,67184,4
32023,67180,5
32027,67186,5
32020,67180,5
32013,67167,5
32014,67154,4
32006,67147,5
32001,67127,5
31995,67126,5
31991,67116,4
31991,67115,5
31984,67124,6
31992,67120,4
31994,67131,5
32001,67144,4
32014,67154,5
32015,67166,5
32022,67178,5
32026,67199,5
32039,67212,4
32046,67222,5
32054,67232,5
32044,67225,5
32027,67169,5
32002,67101,4
31976,67060,5
31949,67016,5
31930,66974,5
31908,66945,5
31895,66924,4
31890,66905,5
31886,66899,5
31881,66912,5
31890,66914,4
31897,66933,5
31927,66966,5
31936,67007,6
31961,67069,4
31990,67121,4
32009,67171,5
32052,67226,5
32071,67278,5
32102,67336,5
32133,67393,4
32162,67445,5
32189,67501,5
32210,67554,5
32237,67605,5
32267,67656,4
32281,67704,5
32307,67751,5
32339,67796,5
32356,67830,5
32384,67886,4
32405,67927,5
32417,67946,5
32425,67970,5
32434,67979,5
32425,67983,4
32439,67990,5
32444,67986,5
32441,67984,5
32443,67983,4
32437,67985,5
32424,67964,5
32423,67962,5
32408,67933,5
32393,67902,4
32389,67866,5
32360,67846,5
32354,67822,5
32347,67799,5
32331,67778,4
32331,67759,5
32315,67740,5
32306,67730,5
32302,67719,5
32295,67703,4
32300,67700,5
32290,67695,5
32261,67698,5
32290,67699,4
32294,67699,6
32296,67706,4
32241,67702,5
32289,67706,5
32295,67692,4
32291,67685,5
32215,67647,5
32260,67634,5
32241,67594,5
32234,67572,4
32212,67540,5
32202,67516,5
32191,67488,5
32174,67478,5
32224,67468,4
32173,67469,5
32168,67465,5
32177,67467,5
32243,67468,5
32168,67453,4
32174,67457,5
32167,67472,6
32201,67477,4
32173,67477,4
32178,67470,5
32158,67425,6
32137,67357,4
32090,67295,5
32068,67238,4
32037,67198,5
32016,67117,5
32002,67122,5
31995,67089,5
31964,67062,4
31965,66995,5
31963,67044,5
31961,67056,5
31963,67063,5
31975,67017,4
31977,67085,5
31987,67105,5
31996,67117,5
32005,67159,5
32008,67145,4
32033,67172,5
32024,67192,5
32036,67274,5
32061,67228,4
32059,67242,5
32075,67267,5
32085,67349,5
32088,67302,5
32095,67317,4
32100,67331,5
32109,67373,5
32121,67375,5
32129,67407,5
32147,67396,4
32137,67412,5
32147,67407,5
32139,67415,5
32139,67409,5
32155,67421,4
32158,67436,5
32169,67434,5
32163,67435,5
32174,67439,4
32165,67433,4
32153,67433,5
32148,67409,5
32135,67397,5
32130,67361,5
32123,67344,4
32104,67317,5
32094,67296,5
32087,67288,5
32087,67264,4
32076,67276,5
32076,67273,5
32078,67270,5
32078,67266,5
32077,67265,4
32067,67270,5
32072,67275,5
32067,67274,5
32078,67281,5
32080,67284,4
32090,67289,5
32089,67293,5
32097,67295,5
32089,67302,4
32090,67285,4
32072,67277,5
32067,67256,4
32057,67230,5
32047,67204,4
32029,67172,6
32014,67138,3
32004,67122,5
31992,67104,5
31989,67090,4
31979,67093,5
31983,67094,5
31991,67093,5
31995,67101,5
31996,67122,4
32012,67143,5
32031,67184,5
32046,67228,5
32075,67270,5
32086,67290,4
32089,67275,5
32066,67252,5
32053,67219,5
32034,67187,4
32025,67146,4
32010,67133,5
32006,67122,6
32011,67144,4
32020,67166,4
32028,67193,5
32057,67245,5
32072,67261,5
32053,67221,5
31988,67053,4
31900,66891,5
31823,66778,5
31784,66729,5
31782,66725,5
31819,66804,4
31857,66872,5
31860,66858,5
31847,66833,5
31842,66847,5
31883,66931,4
31937,67074,5
32021,67203,5
32072,67299,5
32103,67328,5
32093,67350,5
32107,67349,4
32107,67337,5
32143,67431,6
32144,67532,3
32237,67628,5
32272,67643,5
32244,67585,5
32150,67521,5
32204,67544,4
32280,67706,5
32307,67720,5
32290,67685,5
32277,67617,5
32215,67496,4
32157,67406,5
32188,67394,5
32158,67424,5
32177,67473,5
32181,67448,4
32193,67319,5
32059,67202,5
32022,67144,5
32029,67194,4
32128,67310,6
32129,67386,4
32166,67431,5
32167,67432,5
32150,67347,6
32098,67304,3
32107,67342,5
32153,67428,5
32216,67518,5
32258,67609,4
32282,67674,5
32318,67709,5
32278,67598,5
32272,67649,5
32279,67665,4
32308,67738,5
32388,67841,5
32416,67914,5
32378,67798,4
32244,67552,5
32158,67395,4
32102,67329,5
32126,67374,5
32151,67430,4
32191,67570,5
32212,67518,6
32213,67544,4
32246,67607,5
32240,67647,4
32223,67588,5
32282,67691,5
32360,67830,5
32377,67847,5
32320,67702,4
32278,67644,5
32275,67648,5
32251,67586,5
32233,67586,5
32286,67681,4
32325,67751,5
32359,67812,5
32371,67813,5
32327,67702,4
32178,67387,4
32020,67126,5
32012,67166,5
32073,67294,5
32149,67456,4
32244,67643,5
32329,67779,5
32362,67815,6
32364,67830,4
32374,67855,4
32376,67867,5
32400,67920,5
32395,67903,5
32384,67881,5
32369,67894,4
32435,68009,5
32475,68099,5
32502,68091,5
32411,67896,5
32363,67836,4
32397,67921,5
32435,67978,5
32479,68081,5
32605,68344,4
32729,68549,5
32718,68450,5
32568,68168,5
32485,68020,5
32503,68095,5
32573,68254,4
32669,68394,5
32685,68386,5
32680,68385,6
32704,68399,3
32626,68242,5
32505,68025,5
32437,67903,5
32394,67842,5
32398,67847,4
32417,67906,5
32435,67910,5
32434,67921,5
32461,68002,5
32496,68044,4
32532,68134,5
32578,68210,5
32639,68308,5
32592,68141,4
32451,67889,5
32390,67817,5
32376,67795,5
32368,67802,5
32377,67814,4
32397,67862,6
32447,67969,4
32511,68062,5
32494,67994,5
32431,67900,4
32428,67911,5
32400,67795,5
32271,67512,5
32085,67186,5
32033,67105,4
32061,67204,5
32171,67420,5
32312,67684,5
32411,67866,4
32495,68002,4
32481,67960,5
32450,67911,5
32444,67884,5
32450,67932,4
32484,67986,5
32467,67893,5
32370,67773,5
32352,67711,5
32334,67678,4
32324,67644,5
32266,67623,6
32327,67657,4
32367,67746,5
32412,67823,4
32356,67843,5
32416,67821,5
32349,67659,5
32188,67370,5
32130,67300,4
32163,67388,5
32230,67483,5
32273,67590,5
32357,67619,4
32289,67592,4
32270,67546,5
32259,67532,5
32316,67519,5
32237,67506,4
32205,67405,5
32086,67181,5
32078,67144,5
32104,67281,5
32195,67447,4
32296,67656,5
32428,67877,5
32524,68046,6
32535,68027,4
32460,67891,4
32435,67803,5
32440,67885,5
32489,67983,5
32584,68162,5
32662,68243,4
32668,68253,5
32595,68109,5
32526,67999,5
32506,67928,4
32522,68026,4
32561,68108,5
32597,68169,5
32622,68258,5
32675,68310,4
32704,68342,5
32699,68366,5
32716,68431,5
32702,68343,5
32690,68320,5
32659,68254,4
32630,68264,5
32616,68163,5
32595,68129,5
32586,68104,4
32580,68123,5
32582,68100,5
32589,68079,5
32570,68062,4
32568,68061,4
32566,68046,5
32551,68033,5
32545,68011,5
32536,68011,4
32539,68000,5
32521,67993,5
32515,67977,5
32519,67977,5
32518,67967,4
32509,67961,5
32507,67960,5
32499,67934,5
32499,67919,5
32484,67893,4
32467,67843,7
32433,67797,3
32411,67745,5
32380,67687,5
32351,67638,4
32321,67557,5
32292,67502,5
32262,67457,5
32243,67415,4
32224,67387,4
32213,67368,5
32208,67368,5
32209,67366,5
32212,67354,4
32206,67355,5
32207,67358,5
32202,67363,5
32212,67356,5
32209,67375,4
32227,67399,5
32237,67415,5
32227,67416,5
32228,67369,5
32205,67326,4
32161,67265,5
32144,67223,6
32126,67186,4
32110,67155,5
32092,67131,4
32082,67113,5
32075,67104,5
32074,67086,5
32061,67073,4
32065,67064,4
32060,67070,5
32061,67078,5
32074,67081,5
32073,67100,4
32075,67109,5
32097,67130,5
32094,67143,5
32109,67163,5
32121,67178,4
32122,67192,5
32129,67203,5
32136,67207,5
32142,67231,5
32151,67242,4
32150,67258,5
32158,67256,5
32167,67282,5
32170,67293,4
32174,67297,4
32181,67301,5
32192,67323,5
32193,67329,5
32202,67334,4
32201,67336,5
32200,67348,5
32208,67351,5
32209,67348,5
32218,67347,4
32203,67349,5
32200,67347,5
32198,67345,5
32207,67347,5
32172,67349,4
32200,67342,5
32206,67340,5
32204,67338,5
32140,67336,5
32193,67330,5
32185,67325,4
32187,67331,5
32133,67332,5
32198,67330,4
32198,67335,4
32195,67342,5
32212,67342,5
32215,67355,5
32214,67363,4
32216,67380,5
32283,67397,5
32245,67414,5
32239,67429,5
32253,67435,4
32328,67456,5
32273,67471,5
32284,67492,5
32285,67513,5
32321,67527,4
32300,67537,5
32318,67561,6
32309,67575,4
32336,67598,5
32330,67610,4
32345,67618,5
32355,67644,5
32358,67621,5
32374,67677,4
32384,67683,4
32380,67693,5
32391,67652,5
32394,67706,5
32382,67698,4
32380,67681,5
32365,67624,5
32356,67637,5
32343,67606,5
32328,67581,5
32310,67574,4
32299,67522,5
32280,67492,5
32272,67481,5
32275,67533,4
32267,67479,5
32277,67478,5
32281,67497,6
32294,67561,3
32301,67537,4
32309,67564,5
32320,67597,5
32342,67635,5
32354,67652,4
32369,67694,5
32394,67731,5
32408,67764,5
32421,67769,5
32410,67739,4
32393,67697,5
32375,67657,5
32370,67636,5
32342,67613,5
32334,67596,4
32326,67575,5
32315,67578,5
32317,67563,5
32308,67566,5
32317,67564,5
32319,67579,4
32329,67593,5
32347,67618,5
32349,67648,6
32367,67673,3
32379,67709,5
32395,67745,5
32414,67762,5
32429,67795,4
32447,67823,5
32467,67846,5
32470,67879,5
32483,67917,5
32507,67955,4
32521,67976,5
32542,68023,5
32559,68053,5
32582,68072,5
32585,68106,4
32601,68119,5
32617,68149,5
32630,68174,5
32640,68197,5
32660,68216,4
32653,68219,6
32658,68214,4
32663,68233,5
32666,68226,4
32663,68223,4
32656,68214,5
32656,68227,5
32658,68218,5
32653,68217,4
32654,68209,5
32650,68208,5
32642,68193,5
32645,68184,5
32640,68181,4
32637,68180,5
32629,68183,5
32635,68184,5
32629,68177,5
32638,68186,4
32635,68184,5
32634,68191,5
32646,68188,5
32646,68209,5
32657,68220,4
32665,68242,5
32678,68258,6
32686,68279,4
32701,68307,4
32710,68324,5
32715,68343,5
32728,68376,5
32743,68396,5
32759,68418,4
32758,68424,5
32763,68447,5
32764,68460,5
32786,68455,5
32789,68474,4
32784,68469,9
32796,68474,1
32775,68450,5
32765,68438,5
32762,68412,4
32746,68387,5
32694,68371,5
32729,68348,5
32716,68325,5
32696,68308,4
32643,68306,5
32698,68304,5
32693,68306,6
32698,68306,3
32655,68316,5
32703,68323,5
32713,68343,5
32729,68364,5
32759,68373,4
32749,68409,5
32753,68436,5
32774,68468,5
32847,68499,5
32794,68504,4
32785,68472,5
32768,68424,5
32800,68385,5
32721,68339,5
32707,68301,4
32685,68283,5
32703,68260,5
32668,68244,5
32671,68235,4
32662,68225,5
32664,68218,4
32662,68238,5
32663,68260,5
32682,68278,4
32690,68255,5
32721,68331,5
32725,68352,5
32736,68393,5
32757,68364,4
32772,68455,5
32787,68483,5
32800,68506,5
32813,68514,5
32836,68574,4
32850,68602,5
32865,68629,5
32885,68713,5
32896,68698,5
32922,68732,4
32940,68764,5
32960,68874,5
32978,68853,5
32989,68884,4
33007,68896,5
33014,68952,6
33013,68921,4
33029,68927,5
33033,68937,4
33037,68962,5
33029,68946,5
33034,68951,5
33036,68937,5
33026,68932,4
33019,68928,5
33021,68910,5
33012,68901,5
33004,68885,5
32997,68867,4
32989,68852,5
32989,68855,5
32986,68845,5
32984,68853,4
32978,68851,4
32985,68855,5
32984,68867,5
32995,68866,5
32996,68887,4
33009,68903,5
33020,68910,5
33024,68942,6
33042,68958,4
33054,68983,4
33057,69010,5
33063,69026,5
33089,69054,5
33100,69066,5
33102,69092,4
33113,69100,5
33120,69116,5
33119,69121,5
33128,69129,5
33137,69144,4
33137,69162,5
33154,69162,5
33146,69177,5
33156,69177,4
33165,69188,5
33161,69194,5
33164,69195,5
33165,69196,5
33155,69184,5
33152,69169,4
33138,69139,5
33124,69103,5
33109,69068,5
33081,69021,4
33052,68976,5
33029,68937,5
33012,68893,5
32991,68852,5
32980,68826,4
32968,68808,5
32957,68793,5
32957,68798,5
32957,68798,4
32964,68800,4
32968,68815,5
32976,68822,5
32973,68824,5
32981,68839,4
32990,68855,5
32990,68853,5
32990,68858,5
32979,68825,5
32946,68764,4
32906,68690,6
32875,68608,4
32834,68555,5
32814,68495,5
32782,68441,4
32766,68409,5
32746,68374,5
32729,68350,5
32726,68340,5
32721,68327,4
32721,68331,5
32723,68346,5
32725,68359,5
32735,68364,4
32743,68390,4
32754,68423,5
32772,68429,5
32780,68461,5
32757,68479,4
32798,68497,5
32812,68518,5
32818,68526,5
32769,68549,5
32835,68568,4
32852,68584,5
32860,68607,6
32811,68607,4
32866,68622,5
32868,68628,4
32888,68654,5
32904,68669,5
32900,68666,5
32890,68668,5
32891,68652,4
32941,68646,5
32880,68653,5
32887,68630,5
32869,68629,4
32923,68617,4
32866,68604,5
32854,68573,5
32835,68540,5
32845,68517,4
32791,68475,5
32780,68427,5
32748,68388,5
32739,68334,5
32727,68306,4
32700,68284,5
32694,68262,5
32672,68198,5
32666,68226,5
32654,68211,4
32657,68199,5
32653,68135,5
32649,68187,5
32646,68186,5
32651,68188,4
32647,68164,4
32660,68193,5
32646,68206,5
32657,68206,5
32657,68246,4
32658,68216,5
32659,68222,5
32670,68222,5
32665,68300,4
32674,68227,5
32661,68228,5
32664,68223,5
32657,68265,5
32659,68217,5
32658,68209,4
32661,68210,5
32656,68215,5
32646,68204,5
32649,68190,4
32641,68189,5
32639,68182,5
32645,68170,5
32634,68150,5
32625,68125,4
32598,68086,5
32579,68043,5
32548,67987,5
32522,67932,4
32496,67859,4
32462,67814,5
32432,67756,5
32414,67716,5
32388,67677,4
32376,67667,5
32372,67647,6
32357,67644,4
32363,67638,5
32372,67643,4
32366,67651,7
32375,67650,3
32368,67661,5
32375,67663,5
32389,67661,4
32384,67670,5
32381,67677,5
32377,67648,5
32345,67575,5
32297,67487,4
32253,67406,5
32220,67325,5
32184,67266,5
32163,67215,4
32141,67172,5
32111,67132,5
32104,67110,5
32092,67089,5
32080,67076,4
32082,67085,5
32091,67085,5
32087,67096,6
32101,67115,4
32106,67122,4
32118,67143,5
32134,67171,5
32144,67189,5
32155,67208,5
32157,67237,4
32179,67254,5
32189,67268,5
32195,67296,5
32207,67312,5
32213,67327,4
32218,67346,5
32224,67354,5
32236,67358,5
32239,67372,4
32240,67384,5
32245,67399,5
32251,67405,5
32260,67396,5
32240,67392,5
32244,67387,4
32236,67388,5
32235,67373,5
32228,67357,6
32232,67361,3
32228,67344,5
32215,67340,5
32212,67322,5
32201,67309,5
32193,67276,4
32182,67262,5
32168,67226,5
32151,67210,5
32153,67198,4
32132,67178,4
32133,67170,5
32126,67161,5
32126,67157,5
32133,67161,4
32130,67159,5
32104,67158,5
32131,67184,5
32130,67186,5
32143,67186,4
32092,67202,6
32151,67213,4
32153,67218,5
32158,67229,5
32103,67239,6
32169,67255,3
32179,67260,5
32175,67274,5
32195,67282,5
32192,67283,4
32191,67294,5
32195,67286,5
32247,67306,5
32195,67304,4
32205,67307,4
32195,67311,5
32269,67308,5
32201,67315,5
32201,67297,4
32198,67293,5
32215,67282,5
32193,67275,5
32184,67249,5
32169,67230,4
32155,67194,5
32120,67153,6
32096,67108,4
32076,67055,5
32065,66962,4
32028,66961,5
32004,66913,5
31991,66886,5
31981,66801,5
31975,66848,4
31966,66841,5
31969,66843,5
31972,66813,5
31973,66864,4
31978,66871,4
31989,66880,5
31989,66906,5
31981,66897,5
31997,66891,4
31992,66891,5
31987,66943,5
31964,66833,5
31929,66753,5
31898,66694,4
31870,66699,5
31856,66598,5
31845,66588,6
31827,66557,4
31821,66565,4
31813,66530,5
31803,66537,5
31812,66544,5
31817,66550,5
31832,66566,4
31842,66598,5
31854,66624,5
31862,66661,5
31875,66689,4
31902,66714,4
31911,66757,5
31930,66792,5
31948,66819,5
31966,66840,4
31977,66880,5
31992,66891,5
32005,66915,5
32017,66939,5
32027,66965,5
32034,66971,4
32041,66993,5
32049,67010,5
32065,67030,6
32059,67049,3
32069,67045,5
32076,67057,5
32073,67048,5
32070,67041,5
32069,67033,4
32066,67024,5
32060,67022,5
32057,67013,5
32055,67006,4
32047,66986,4
32039,66986,5
32033,66968,5
32021,66933,5
32014,66919,4
31988,66895,5
31982,66875,5
31982,66854,5
31970,66835,5
31966,66819,4
31949,66808,6
31941,66798,4
31945,66788,5
31940,66786,5
31936,66787,4
31943,66794,5
31936,66788,5
31934,66808,5
31948,66801,5
31950,66805,4
31949,66816,5
31947,66817,5
31948,66813,5
31955,66824,4
31971,66826,4
31957,66836,5
31965,66847,5
31972,66845,5
31974,66851,4
31973,66859,5
31973,66859,5
31981,66865,5
31978,66864,5
31973,66855,4
31972,66863,5
31974,66856,6
31976,66857,4
31967,66849,5
31969,66842,4
31961,66830,5
31960,66830,7
31954,66825,3
31961,66807,5
31960,66823,4
31942,66794,5
31939,66774,5
31926,66758,5
31910,66709,4
31879,66666,5
31857,66618,5
31829,66572,5
31788,66519,5
31786,66469,4
31759,66430,5
31739,66383,5
31672,66343,5
31700,66322,5
31701,66317,4
31702,66325,5
31650,66330,5
31713,66325,6
31710,66334,4
31711,66340,4
31697,66350,5
31717,66362,5
31713,66367,5
31727,66364,5
31761,66355,4
31693,66300,5
31669,66238,5
31636,66192,5
31679,66160,4
31613,66131,5
31602,66118,5
31590,66108,5
31631,66084,5
31586,66080,4
31577,66091,5
31598,66099,5
31612,66109,5
31611,66137,5
31624,66171,5
31641,66205,4
31663,66211,5
31669,66265,5
31690,66307,5
31715,66326,4
31722,66301,5
31737,66388,5
31739,66414,5
31758,66425,5
31770,66388,4
31768,66463,5
31780,66482,5
31791,66497,5
31791,66512,4
31795,66512,5
31807,66526,5
31805,66527,5
31812,66587,5
31823,66548,4
31815,66542,5
31810,66525,6
31808,66585,4
31800,66517,5
31788,66489,4
31781,66468,7
31775,66495,3
31769,66452,5
31759,66430,5
31752,66427,4
31755,66419,5
31740,66381,5
31726,66360,5
31723,66341,5
31703,66320,4
31695,66296,5
31688,66288,5
31687,66257,5
31668,66261,4
31669,66246,5
31656,66231,5
31662,66221,5
31661,66219,5
31660,66223,4
31658,66217,5
31653,66226,5
31660,66233,5
31657,66230,5
31668,66251,4
31675,66246,5
31675,66257,6
31675,66269,4
31680,66279,5
31692,66298,4
31699,66315,5
31702,66337,5
31717,66347,5
31728,66359,4
31739,66387,4
31742,66404,5
31750,66418,5
31756,66422,5
31758,66429,4
31758,66428,5
31765,66426,5
31760,66423,5
31752,66409,5
31748,66386,4
31731,66368,5
31727,66357,5
31728,66352,5
31723,66351,5
31718,66338,4
31719,66340,5
31717,66349,5
31721,66366,5
31740,66385,5
31758,66411,4
31769,66440,5
31783,66491,5
31808,66518,5
31829,66558,4
31845,66603,4
31858,66628,5
31877,66654,5
31886,66678,5
31897,66663,4
31871,66638,5
31852,66599,5
31831,66574,5
31830,66555,5
31824,66533,4
31816,66525,5
31811,66526,4
31811,66522,5
31811,66527,5
31822,66538,6
31821,66564,3
31832,66587,5
31853,66627,5
31881,66668,5
31912,66733,4
31949,66799,5
31980,66863,5
32020,66946,5
32055,67016,4
32085,67085,4
32121,67153,5
32159,67223,5
32190,67282,5
32219,67329,4
32232,67383,5
32269,67445,5
32305,67513,5
32336,67571,5
32324,67632,4
32401,67693,5
32425,67744,6
32462,67809,4
32436,67858,5
32513,67908,4
32522,67914,5
32531,67943,5
32512,67969,5
32561,67996,5
32570,68017,4
32581,68027,5
32629,68048,5
32594,68069,5
32593,68079,4
32615,68095,4
32697,68122,5
32643,68159,5
32654,68189,5
32670,68217,4
32729,68221,5
32686,68235,5
32690,68248,5
32688,68258,5
32714,68288,4
32721,68312,5
32739,68352,5
32761,68402,6
32784,68421,4
32800,68484,4
32839,68540,5
32863,68589,5
32885,68577,5
32889,68645,5
32907,68672,4
32925,68720,5
32944,68688,5
32962,68795,5
32982,68815,4
32981,68815,4
32989,68808,4
32994,68825,5
32993,68838,5
33000,68841,4
33003,68891,5
33003,68864,5
33019,68888,5
33032,68921,5
33061,69048,5
33097,69034,4
33125,69093,5
33153,69152,5
33179,69231,6
33195,69234,3
33222,69261,5
33226,69291,5
33247,69328,5
33253,69311,5
33230,69269,4
33201,69219,5
33174,69173,5
33176,69159,5
33161,69154,4
33164,69139,4
33147,69130,5
33147,69117,5
33155,69137,5
33161,69142,4
33169,69173,5
33184,69200,5
33202,69243,5
33224,69299,5
33245,69350,4
33284,69409,6
33317,69474,4
33344,69517,5
33363,69559,5
33396,69595,4
33407,69636,5
33426,69672,5
33442,69702,5
33461,69730,5
33470,69753,4
33486,69779,5
33487,69791,5
33498,69798,5
33493,69805,4
33505,69812,5
33504,69815,5
33517,69827,5
33507,69810,5
33499,69803,4
33491,69791,5
33480,69763,5
33472,69748,5
33465,69726,5
33448,69697,4
33445,69685,5
33433,69660,6
33415,69633,4
33405,69596,5
33380,69577,4
33376,69533,5
33356,69494,5
33337,69465,5
33329,69450,5
33315,69442,4
33313,69419,5
33308,69417,5
33305,69416,5
33300,69417,4
33306,69427,5
33313,69437,5
33320,69443,5
33321,69464,5
33323,69460,4
33331,69471,5
33333,69468,5
33329,69466,5
33332,69468,5
33321,69459,4
33317,69447,5
33323,69447,5
33316,69440,6
33315,69426,4
33314,69430,4
33312,69431,5
33312,69429,5
33319,69444,5
33311,69450,4
33323,69464,4
33335,69475,5
33344,69496,5
33342,69515,5
33362,69536,4
33380,69568,5
33404,69618,5
33409,69637,5
33403,69621,5
33400,69586,4
33380,69561,5
33335,69562,5
33374,69546,5
33372,69540,5
33363,69547,5
33308,69534,4
33375,69548,5
33383,69562,5
33380,69569,5
33349,69584,4
33407,69601,5
33415,69646,5
33440,69676,5
33487,69722,4
33472,69761,4
33498,69812,5
33526,69853,5
33618,69897,5
33580,69953,4
33611,70007,5
33625,70055,5
33701,70102,5
33676,70150,5
33702,70203,4
33730,70245,5
33779,70296,5
33781,70337,5
33816,70393,5
33848,70455,4
33877,70505,6
33909,70594,4
33938,70634,5
33958,70674,5
33964,70647,4
33989,70734,5
34016,70770,5
34029,70810,5
34045,70778,4
34062,70863,4
34075,70886,5
34092,70905,5
34087,70916,5
34103,70938,4
34116,70948,5
34115,70957,5
34127,71024,5
34128,70984,5
34146,71002,4
34150,71001,5
34151,71078,5
34151,71008,5
34157,71009,5
34154,71017,4
34152,71057,5
34146,71015,6
34155,71012,4
34143,71004,5
34139,70996,4
34128,70955,5
34110,70946,5
34107,70917,5
34092,70890,4
34083,70875,4
34067,70851,5
34063,70832,5
34053,70823,5
34059,70841,4
34059,70831,5
34060,70838,5
34068,70843,5
34069,70851,5
34070,70859,4
34083,70878,5
34095,70899,5
34094,70905,5
34078,70877,5
34059,70844,4
34063,70824,5
34048,70804,5
34037,70781,5
34019,70733,5
33992,70679,4
33983,70648,5
33964,70626,5
33957,70631,5
33980,70662,4
33977,70669,4
33988,70689,5
33995,70703,5
34010,70714,5
34014,70733,4
34020,70745,5
34018,70721,5
34005,70713,5
33997,70721,5
34008,70754,4
34038,70803,5
34064,70861,5
34081,70901,5
34111,70931,5
34107,70937,5
34121,70967,4
34151,71009,5
34168,71055,5
34187,71089,5
34195,71104,4
34205,71137,5
34210,71152,5
34211,71132,5
34204,71125,4
34205,71135,4
34211,71158,5
34233,71198,5
34248,71234,5
34269,71244,4
34259,71230,5
34237,71175,5
34213,71148,5
34198,71118,5
34179,71094,4
34164,71066,5
34154,71038,10
34141,71033,5
34150,71036,4
34142,71039,6
34136,71014,4
34129,70986,5
34091,70914,5
34037,70784,4
33945,70657,5
33898,70555,5
33850,70455,5
33820,70400,4
33808,70384,4
33788,70369,5
33778,70336,5
33762,70301,5
33752,70296,4
33744,70312,5
33775,70352,5
33786,70398,5
33818,70447,5
33798,70449,4
33798,70400,5
33768,70362,5
33749,70295,5
33647,70218,5
33673,70161,4
33644,70137,5
33644,70162,5
33628,70245,5
33715,70273,5
33702,70267,4
33679,70219,5
33653,70154,5
33623,70138,5
33625,70137,4
33608,70116,5
33652,70092,5
33581,70054,5
33531,69979,5
33499,69921,4
33532,69836,5
33419,69759,5
33369,69686,5
33341,69636,5
33350,69607,4
33304,69608,4
33298,69613,5
33302,69624,5
33317,69646,5
33315,69669,3
33305,69654,5
33286,69608,5
33272,69532,5
33260,69574,5
33271,69593,4
33283,69627,5
33296,69594,5
33287,69613,5
33247,69534,5
33194,69459,4
33168,69351,5
33155,69394,5
33157,69394,5
33157,69406,4
33168,69453,5
33173,69452,5
33191,69484,5
33214,69541,5
33227,69623,4
33222,69561,6
33226,69552,4
33225,69546,5
33218,69603,5
33216,69521,6
33212,69502,3
33180,69447,5
33152,69418,5
33126,69363,5
33116,69346,4
33107,69318,5
33078,69278,5
33069,69236,5
33059,69213,4
33042,69187,5
33037,69176,5
33039,69177,5
33019,69152,5
33013,69126,4
33005,69121,5
32997,69091,5
32970,69014,5
32924,68932,5
32888,68858,4
32850,68795,5
32832,68745,6
32790,68668,4
32757,68601,5
32725,68543,4
32721,68517,5
32699,68483,5
32696,68459,5
32670,68427,5
32642,68345,4
32606,68281,5
32600,68284,5
32616,68305,5
32631,68348,4
32657,68390,5
32674,68432,5
32692,68454,5
32691,68454,5
32679,68429,4
32676,68406,5
32677,68409,5
32657,68372,5
32636,68307,5
32596,68232,4
32561,68162,5
32523,68102,5
32499,68062,6
32495,68048,4
32498,68064,4
32503,68047,5
32487,68028,5
32481,68022,5
32480,68012,5
32465,67999,4
32477,68018,5
32493,68043,5
32498,68065,5
32504,68083,4
32535,68132,5
32545,68146,5
32554,68159,5
32568,68189,5
32584,68231,4
32588,68233,5
32604,68254,5
32599,68249,5
32600,68232,5
32589,68217,5
32590,68208,4
32588,68229,5
32589,68247,5
32608,68279,6
32622,68297,3
32628,68313,5
32654,68356,5
32671,68406,5
32685,68409,5
32682,68400,4
32663,68379,5
32658,68345,5
32643,68330,5
32647,68327,4
32644,68332,5
32652,68333,5
32646,68339,5
32650,68334,5
32645,68332,4
32647,68322,5
32620,68311,5
32628,68277,5
32612,68254,5
32593,68231,4
32553,68223,6
32594,68215,4
32591,68197,5
32584,68173,5
32513,68164,4
32566,68141,5
32564,68134,5
32549,68115,5
32517,68097,4
32526,68048,4
32485,67990,5
32467,67941,5
32480,67904,5
32430,67859,4
32401,67812,5
32374,67772,5
32423,67711,5
32341,67686,5
32332,67678,4
32321,67640,5
32353,67635,5
32304,67623,5
32309,67619,5
32311,67622,4
32324,67620,5
32307,67614,6
32309,67617,4
32304,67617,5
32313,67601,4
32313,67636,5
32325,67652,5
32325,67669,5
32332,67607,4
32308,67604,4
32287,67555,5
32276,67511,5
32253,67414,5
32243,67446,4
32221,67413,5
32212,67388,5
32208,67367,5
32180,67364,5
32187,67349,4
32183,67342,5
32181,67376,5
32182,67339,5
32182,67333,5
32188,67341,4
32181,67422,5
32192,67348,5
32185,67363,6
32194,67369,4
32206,67414,4
32208,67388,5
32214,67387,5
32218,67405,5
32214,67424,4
32221,67426,4
32231,67434,5
32235,67437,5
32245,67452,5
32246,67466,4
32250,67480,5
32261,67492,5
32263,67507,5
32272,67508,5
32281,67519,4
32284,67525,5
32279,67542,5
32290,67536,5
32293,67548,5
32293,67538,5
32292,67550,4
32290,67550,5
32293,67551,5
32298,67554,5
32284,67554,4
32294,67544,5
32292,67546,5
32276,67524,5
32274,67514,4
32274,67501,4
32258,67482,5
32257,67469,5
32246,67443,5
32239,67427,4
32227,67402,5
32223,67396,5
32210,67371,5
32208,67368,5
32194,67363,4
32194,67338,5
32191,67340,5
32184,67326,5
32181,67326,5
32181,67324,4
32171,67318,6
32185,67312,4
32179,67309,5
32175,67311,5
32178,67310,4
32181,67302,5
32179,67306,5
32170,67299,5
32170,67294,4
32168,67271,4
32163,67264,5
32148,67238,5
32139,67222,5
32120,67182,4
32106,67141,5
32078,67098,5
32056,67043,5
32040,66993,5
32006,66949,4
31994,66915,5
31978,66892,5
31969,66865,5
31962,66852,5
31956,66848,4
31956,66855,5
31960,66859,6
31953,66859,4
31952,66866,5
31958,66873,4
31979,66899,5
31977,66917,5
31989,66915,5
31984,66887,4
31963,66853,5
31943,66824,5
31936,66786,5
31922,66766,5
31919,66735,4
31906,66726,5
31896,66712,5
31894,66707,5
31884,66694,5
31884,66691,4
31882,66686,5
31889,66692,5
31853,66704,5
31894,66712,5
31897,66724,4
31913,66732,5
31859,66757,5
31922,66762,5
31927,66778,5
31933,66782,4
31880,66792,5
31945,66800,5
31947,66803,5
31951,66823,4
31984,66833,5
31969,66852,5
31963,66859,5
31979,66867,5
32041,66882,4
31986,66892,5
31993,66908,5
32010,66927,5
32059,66933,5
32012,66938,4
32016,66927,6
32010,66938,4
32025,66930,5
32009,66938,5
32010,66929,6
32005,66927,3
32009,66906,5
32003,66918,5
32002,66910,4
31996,66900,4
31990,66850,5
31984,66883,5
31984,66864,5
31973,66852,4
31959,66770,5
31955,66810,5
31941,66797,5
31941,66762,5
31914,66740,4
31920,66735,5
31916,66716,5
31905,66716,5
31902,66737,5
31902,66698,4
31894,66699,5
31894,66685,5
31895,66747,5
31887,66679,5
31887,66686,4
31890,66682,6
31886,66718,4
31878,66660,5
31883,66668,4
31889,66662,4
31885,66674,5
31870,66658,5
31886,66663,5
31874,66646,4
31879,66643,5
31875,66639,5
31869,66638,5
31869,66627,5
31860,66627,4
31861,66624,5
31861,66618,5
31863,66613,5
31858,66604,5
31851,66595,4
31853,66597,5
31846,66605,5
31849,66594,5
31843,66589,4
31840,66566,4
31833,66555,5
31825,66545,5
31814,66513,5
31791,66475,4
31774,66430,4
31758,66406,5
31745,66370,5
31724,66334,5
31713,66320,4
31705,66306,5
31709,66289,5
31710,66287,5
31707,66302,5
31711,66309,4
31726,66324,5
31730,66349,5
31745,66375,5
31747,66398,5
31769,66421,5
31782,66451,4
31798,66486,5
31823,66530,5
31837,66570,6
31853,66582,3
31851,66567,5
31829,66536,5
31823,66508,5
31811,66497,4
31820,66491,4
31811,66485,5
31811,66481,5
31807,66480,5
31815,66495,4
31819,66501,5
31818,66513,5
31829,66539,8
31847,66552,2
31866,66585,4
31862,66612,5
31895,66655,5
31905,66683,5
31927,66723,5
31949,66755,4
31957,66790,6
31980,66810,4
31991,66837,5
32007,66866,5
32022,66899,6
32038,66924,3
32054,66957,5
32061,66986,5
32077,67015,4
32099,67041,4
32114,67065,5
32123,67099,5
32134,67124,5
32147,67155,4
32167,67166,5
32169,67186,5
32170,67191,5
32173,67200,5
32177,67202,4
32182,67200,5
32182,67205,5
32184,67196,5
32186,67200,5
32151,67198,4
32182,67187,5
32177,67193,6
32167,67187,4
32117,67189,5
32167,67166,4
32166,67168,5
32156,67158,5
32094,67152,5
32158,67147,4
32160,67153,4
32153,67144,5
32154,67157,5
32155,67157,5
32164,67155,4
32161,67170,5
32215,67180,5
32168,67190,5
32170,67199,5
32186,67213,4
32250,67226,5
32194,67226,5
32203,67241,5
32200,67257,5
32240,67276,4
32207,67286,5
32226,67292,5
32237,67299,6
32241,67311,4
32238,67324,4
32255,67334,5
32242,67337,5
32252,67309,5
32255,67351,4
32255,67342,4
32257,67345,5
32245,67279,5
32245,67311,5
32228,67285,5
32221,67265,4
32208,67200,5
32200,67232,5
32191,67218,5
32184,67199,4
32180,67213,5
32180,67190,5
32178,67196,5
32172,67197,5
32179,67266,5
32178,67213,4
32192,67213,5
32187,67235,5
32202,67300,6
32208,67264,3
32219,67279,5
32225,67291,5
32238,67330,5
32237,67307,4
32224,67278,4
32202,67246,5
32184,67221,5
32173,67192,5
32164,67173,4
32170,67165,5
32156,67146,5
32158,67146,5
32154,67140,5
32153,67150,4
32156,67150,5
32168,67170,5
32172,67185,5
32182,67215,5
32197,67234,4
32205,67270,6
32229,67297,4
32240,67336,5
32254,67369,5
32269,67387,4
32283,67413,5
32302,67434,5
32306,67464,5
32322,67484,4
32331,67497,5
32334,67519,5
32348,67542,5
32360,67557,5
32378,67571,4
32385,67595,5
32397,67624,5
32408,67647,5
32412,67644,5
32417,67649,4
32410,67639,5
32405,67637,5
32410,67647,5
32411,67650,5
32404,67641,4
32413,67647,5
32409,67639,6
32398,67637,4
32387,67625,5
32394,67599,4
32377,67589,5
32381,67578,5
32376,67570,5
32366,67578,4
32370,67574,5
32371,67574,5
32374,67578,5
32374,67595,5
32370,67591,4
32381,67590,5
32382,67607,5
32390,67613,5
32397,67625,5
32411,67641,4
32422,67667,5
32428,67692,5
32438,67713,5
32459,67743,5
32466,67766,4
32485,67789,5
32491,67818,5
32500,67838,6
32521,67861,3
32519,67878,4
32533,67891,5
32546,67906,5
32558,67920,5
32558,67933,4
32562,67949,5
32569,67959,5
32566,67963,5
32568,67960,5
32572,67960,4
32569,67957,5
32569,67952,5
32556,67929,5
32556,67920,5
32544,67909,4
32535,67894,5
32512,67870,5
32518,67865,5
32508,67857,5
32514,67860,5
32469,67855,4
32527,67868,5
32524,67877,5
32527,67884,4
32472,67896,4
32550,67909,5
32556,67937,5
32571,67960,5
32563,67976,4
32584,68008,5
32604,68008,5
32579,67978,5
32616,67944,5
32550,67905,4
32537,67891,5
32526,67865,5
32575,67847,5
32511,67838,5
32508,67823,4
32503,67823,5
32546,67827,5
32510,67841,5
32515,67852,5
32531,67877,4
32542,67898,6
32554,67928,4
32574,67966,5
32587,68007,4
32616,68029,4
32632,68089,5
32647,68123,5
32671,68164,5
32697,68141,4
32711,68242,5
32728,68269,5
32742,68307,5
32757,68283,5
32780,68378,4
32795,68400,5
32816,68420,5
32828,68456,5
32839,68500,5
32861,68517,4
32867,68522,5
32866,68592,5
32869,68546,5
32867,68546,5
32873,68546,4
32869,68608,5
32869,68538,6
32857,68524,4
32856,68507,4
32841,68513,4
32831,68456,5
32822,68438,5
32801,68408,5
32799,68373,4
32769,68342,5
32765,68313,5
32755,68292,5
32746,68278,5
32734,68263,4
32725,68257,5
32720,68256,5
32726,68245,5
32711,68248,5
32722,68238,4
32722,68249,5
32725,68241,5
32725,68249,5
32728,68252,5
32728,68255,4
32725,68258,5
32737,68263,5
32731,68271,5
32734,68266,4
32734,68262,4
32736,68270,5
32737,68255,5
32730,68263,5
32725,68253,4
32723,68236,5
32711,68216,5
32695,68177,5
32679,68154,5
32669,68117,4
32644,68088,5
32631,68064,5
32615,68024,5
32607,67993,5
32587,67988,4
32586,67967,5
32576,67950,5
32572,67941,5
32574,67937,5
32564,67930,5
32564,67933,4
32561,67934,5
32562,67935,5
32569,67945,4
32554,67909,4
32521,67841,5
32490,67773,5
32459,67710,5
32442,67674,4
32405,67626,5
32392,67575,5
32374,67538,5
32347,67515,5
32348,67500,4
32336,67483,5
32339,67485,5
32337,67490,5
32340,67500,5
32349,67516,4
32359,67514,5
32358,67536,5
32371,67550,5
32377,67576,5
32388,67585,4
32396,67609,6
32405,67627,4
32413,67626,5
32420,67647,4
32429,67659,5
32430,67673,5
32441,67694,5
32451,67701,5
32460,67717,4
32459,67738,5
32475,67757,5
32479,67754,5
32477,67744,5
32474,67750,4
32469,67743,5
32470,67737,5
32459,67722,5
32454,67714,5
32449,67710,4
32447,67699,5
32443,67675,5
32392,67650,6
32416,67627,4
32402,67597,4
32388,67567,5
32319,67543,5
32356,67502,5
32343,67486,4
32343,67464,5
32300,67457,5
32323,67443,5
32323,67436,5
32312,67432,4
32352,67428,5
32310,67423,5
32302,67434,5
32319,67424,5
32381,67436,4
32317,67445,5
32320,67438,5
32328,67466,5
32377,67470,5
32328,67472,5
32344,67488,4
32343,67484,5
32360,67499,5
32347,67507,6
32354,67504,3
32354,67509,5
32352,67486,5
32364,67511,5
32355,67502,4
32355,67507,5
32359,67450,5
32348,67490,5
32330,67464,5
32319,67423,4
32303,67317,5
32272,67325,5
32257,67280,5
32220,67233,5
32189,67169,4
32174,67134,5
32151,67095,5
32144,67073,5
32128,67108,5
32127,67052,4
32122,67052,6
32131,67050,4
32131,67122,5
32127,67058,4
32134,67087,6
32152,67092,3
32153,67143,5
32143,67093,5
32125,67035,4
32108,67005,5
32088,66963,5
32071,66927,5
32045,66890,5
32048,66865,4
32025,66855,5
32015,66837,5
32016,66825,5
32024,66822,5
32014,66819,4
32019,66825,5
32022,66846,5
32024,66854,5
32037,66881,5
32051,66900,4
32064,66921,5
32077,66944,6
32090,66968,4
32099,66994,4
32110,67015,4
32127,67039,5
32133,67052,5
32139,67072,5
32144,67083,4
32161,67106,5
32165,67124,5
32183,67134,5
32180,67154,5
32191,67167,4
32202,67195,5
32210,67200,5
32210,67213,5
32205,67200,5
32217,67207,4
32205,67195,5
32205,67195,5
32200,67180,5
32196,67176,5
32200,67172,4
32190,67164,5
32186,67152,5
32179,67129,6
32174,67119,3
32156,67094,5
32157,67066,5
32124,67042,5
32113,67012,7
32106,66996,2
32098,66970,5
32091,66947,5
32078,66931,5
32071,66919,5
32059,66910,4
32052,66905,5
32057,66899,5
32057,66893,5
32055,66887,5
32047,66890,4
32061,66902,5
32056,66898,5
32056,66901,5
32060,66900,5
32060,66896,5
32053,66908,4
32062,66915,5
32057,66913,5
32062,66911,6
32064,66906,3
32056,66903,5
32056,66873,5
32037,66857,5
32021,66818,4
31998,66793,5
31981,66758,5
31974,66714,5
31956,66682,5
31940,66663,4
31931,66637,5
31924,66618,5
31921,66618,5
31913,66618,5
31918,66626,4
31922,66634,5
31930,66639,5
31927,66652,5
31934,66664,5
31917,66690,4
31966,66709,6
31976,66732,4
31976,66729,5
31906,66691,4
31947,66667,5
31936,66646,5
31933,66636,5
31867,66627,5
31925,66615,4
31922,66607,5
31918,66605,5
31938,66616,5
31918,66614,5
31915,66621,4
31935,66640,5
31990,66645,5
31938,66667,5
31954,66683,5
31968,66709,4
32042,66739,5
31995,66764,5
32005,66786,5
32018,66810,4
32038,66831,4
32036,66855,5
32051,66878,6
32067,66894,4
32072,66905,4
32082,66935,5
32093,66959,5
32098,66969,5
32109,66951,5
32109,67006,4
32121,67026,5
32129,67045,5
32134,66988,5
32141,67051,5
32141,67049,5
32141,67040,4
32134,67015,5
32135,67040,5
32133,67045,5
32132,67043,4
32120,67066,5
32126,67027,5
32117,67008,5
32110,66993,5
32111,67046,4
32103,66964,5
32095,66945,5
32078,66931,5
32078,66958,4
32071,66904,5
32062,66887,5
32062,66887,5
32054,66901,5
32058,66887,4
32057,66873,5
32056,66887,5
32045,66883,5
32051,66884,5
32055,66883,4
32061,66899,5
32061,66893,5
32060,66896,5
32064,66899,5
32069,66906,4
32069,66914,5
32079,66925,5
32084,66933,5
32075,66938,4
32079,66927,5
32077,66938,4
32077,66935,5
32081,66933,5
32077,66922,4
32070,66913,5
32063,66895,5
32057,66868,5
32036,66844,5
32016,66801,4
31994,66768,5
31979,66729,5
31955,66698,5
31945,66660,5
31934,66631,4
31927,66604,5
31902,66595,5
31912,66596,5
31905,66589,5
31908,66610,4
31916,66612,5
31926,66618,5
31933,66651,5
31943,66668,4
31954,66698,4
31962,66719,6
31979,66731,4
31975,66695,5
31952,66665,4
31929,66642,5
31930,66636,5
31924,66619,5
31909,66617,5
31928,66617,4
31927,66618,5
31919,66616,5
31924,66625,5
31925,66625,5
31924,66630,4
31937,66635,5
31936,66651,5
31949,66672,5
31961,66696,5
31968,66725,4
31977,66734,5
31994,66758,5
32001,66767,5
32000,66776,4
32014,66796,4
32018,66820,5
32027,66826,5
32024,66830,5
32034,66858,4
32050,66865,5
32052,66882,5
32050,66882,5
32062,66899,5
32077,66909,4
32073,66930,5
32083,66939,5
32086,66935,5
32085,66931,5
32084,66926,4
32077,66927,5
32070,66924,5
32074,66924,5
32075,66907,5
32064,66910,5
32072,66904,4
32034,66887,5
32052,66883,5
32044,66861,5
32036,66847,4
31986,66822,5
32018,66809,5
32013,66793,5
32003,66772,4
31934,66749,5
31984,66740,5
31970,66723,5
31975,66710,5
31954,66697,4
31951,66679,5
31949,66676,5
31955,66663,5
31987,66660,5
31939,66657,4
31944,66655,5
31942,66656,5
32005,66659,5
31940,66666,5
31935,66650,4
31934,66657,5
31971,66660,5
31938,66654,5
31946,66665,4
31946,66665,5
31952,66663,4
31941,66665,5
31935,66643,5
31933,66628,4
31919,66573,5
31902,66573,5
31884,66533,5
31864,66500,5
31844,66416,4
31829,66436,5
31823,66408,5
31811,66396,5
31796,66329,5
31803,66385,4
31799,66378,5
31795,66387,5
31804,66401,5
31814,66402,5
31812,66421,4
31824,66434,5
31836,66513,5
31845,66484,4
31869,66510,4
31869,66521,4
31867,66564,8
31853,66468,2
31848,66452,5
31832,66447,4
31829,66467,5
31826,66437,5
31832,66436,5
31844,66448,5
31836,66443,4
31840,66452,5
31838,66459,5
31848,66463,5
31856,66486,5
31868,66512,4
31880,66547,5
31892,66576,5
31914,66613,5
31944,66655,5
31960,66686,4
31972,66721,5
31989,66760,5
32015,66794,6
32023,66827,3
32048,66854,4
32064,66883,5
32068,66920,5
32090,66939,5
32099,66968,4
32113,66990,5
32127,67004,5
32139,67030,5
32153,67067,5
32169,67076,4
32173,67098,5
32177,67103,5
32188,67124,5
32188,67132,5
32191,67134,4
32191,67143,5
32191,67148,5
32195,67158,5
32207,67152,5
32208,67160,5
32203,67169,4
32205,67161,5
32212,67156,5
32205,67153,6
32195,67134,3
32188,67141,5
32190,67132,5
32185,67127,5
32186,67132,4
32189,67128,5
32188,67136,5
32192,67137,5
32189,67139,5
32199,67150,4
32195,67158,5
32205,67157,5
32215,67168,5
32218,67186,5
32215,67188,4
32228,67212,5
32241,67223,5
32243,67236,5
32259,67257,5
32264,67278,4
32267,67295,6
32277,67312,4
32277,67321,5
32286,67326,4
32287,67316,4
32278,67313,5
32282,67308,5
32275,67285,5
32265,67260,4
32245,67244,5
32235,67226,5
32234,67210,5
32224,67195,5
32207,67180,4
32215,67179,5
32214,67182,5
32219,67186,5
32220,67193,5
32231,67204,4
32237,67220,5
32233,67221,5
32247,67246,5
32244,67263,5
32277,67294,4
32275,67316,5
32290,67339,6
32253,67329,4
32285,67298,4
32265,67264,4
32256,67246,5
32190,67238,5
32238,67211,5
32228,67198,4
32216,67192,5
32198,67181,5
32225,67189,5
32223,67206,5
32242,67256,4
32316,67322,5
32322,67410,5
32376,67515,5
32426,67617,5
32544,67725,4
32537,67826,5
32586,67908,5
32621,67989,5
32701,68077,5
32693,68158,4
32739,68245,5
32788,68337,5
32839,68412,6
32868,68497,3
32902,68580,4
32943,68654,5
32980,68689,5
33007,68797,5
33041,68857,4
33074,68931,5
33103,68943,5
33131,69034,5
33145,69056,5
33148,69063,4
33140,69005,5
33150,69061,5
33143,69046,5
33139,69030,5
33126,69009,4
33117,68987,5
33113,68977,5
33108,68972,5
33099,69010,5
33092,68943,5
33080,68903,4
33054,68854,5
33019,68880,5
33009,68778,4
33016,68796,4
33015,68802,5
33028,68862,5
33041,68870,5
33058,68875,4
33061,68893,5
33082,68929,5
33085,68971,5
33102,68984,5
33112,69011,4
33149,69083,5
33162,69102,5
33155,69089,5
33112,69014,5
33058,68902,4
32987,68805,5
32971,68780,5
32981,68815,5
33030,68906,5
33088,69015,4
33152,69146,6
33172,69129,4
33094,68980,5
33009,68848,4
32966,68765,4
32916,68692,5
32907,68690,5
32915,68714,5
32949,68782,4
32995,68854,5
33035,68919,5
33042,68913,5
33023,68873,5
33010,68875,4
33012,68872,5
33023,68896,5
33035,68943,5
33078,69046,5
33139,69134,4
33159,69207,5
33194,69243,5
33201,69235,10
33177,69203,4
33164,69178,5
33171,69166,6
33157,69159,4
33172,69182,4
33184,69213,4
33207,69258,5
33224,69306,5
33256,69363,5
33272,69394,4
33272,69384,5
33270,69394,5
33289,69415,5
33315,69468,5
33338,69528,4
33386,69634,5
33454,69760,5
33523,69908,5
33604,70074,5
33683,70221,4
33752,70377,5
33826,70520,5
33889,70640,5
33953,70776,5
34023,70927,4
34123,71114,5
34203,71274,5
34288,71432,5
34359,71573,4
34408,71686,4
34441,71746,5
34473,71823,5
34515,71880,5
34545,71947,4
34570,72013,5
34606,72076,5
34643,72144,5
34674,72199,5
34697,72257,4
34724,72307,5
34743,72345,5
34765,72389,5
34790,72424,5
34795,72423,4
34765,72377,5
34735,72336,5
34725,72293,5
34702,72263,5
34694,72234,5
34648,72233,4
34694,72219,5
34684,72198,5
34654,72164,4
34584,72142,5
34641,72149,5
34636,72141,5
34643,72147,5
34610,72142,4
34643,72151,5
34642,72133,5
34645,72132,5
34669,72132,5
34636,72129,4
34626,72101,5
34586,72012,5
34630,71933,5
34510,71847,5
34466,71773,4
34430,71688,5
34450,71645,5
34378,71595,5
34356,71564,5
34338,71541,4
34356,71526,6
34326,71495,4
34278,71378,5
34203,71247,4
34148,71112,5
34113,71076,5
34102,71067,5
34115,71088,5
34108,71027,4
34107,71066,5
34094,71041,5
34085,71011,5
34038,70846,5
33972,70762,5
33905,70617,4
33845,70499,5
33797,70437,5
33784,70415,5
33773,70381,4
33752,70331,5
33728,70365,5
33724,70291,6
33715,70291,4
33717,70306,4
33743,70421,5
33767,70399,5
33793,70431,5
33807,70440,4
33797,70468,5
33779,70394,5
33740,70318,5
33713,70280,5
33728,70312,4
33757,70361,5
33790,70428,5
33829,70499,5
33843,70506,5
33848,70515,4
33846,70507,5
33831,70500,5
33819,70447,5
33765,70329,5
33696,70207,4
33646,70115,5
33628,70088,5
33624,70072,5
33627,70093,5
33622,70076,4
33609,70051,5
33598,70030,5
33581,70007,5
33572,69965,4
33557,69925,5
33535,69873,5
33511,69827,5
33479,69766,5
33452,69722,4
33433,69666,5
33393,69618,5
33379,69560,5
33350,69511,5
33323,69463,4
33297,69412,5
33276,69368,5
33265,69322,5
33225,69284,5
33221,69251,4
33213,69233,5
33194,69203,5
33167,69166,5
33156,69123,5
33134,69072,5
33104,69019,3
33078,68960,5
33034,68905,5
33007,68849,4
32985,68790,5
32951,68728,5
32930,68671,5
32907,68618,5
32885,68579,4
32867,68546,5
32856,68530,5
32844,68504,5
32839,68476,5
32823,68456,4
32811,68452,5
32819,68450,5
32823,68462,5
32828,68486,5
32837,68489,4
32821,68452,5
32801,68419,6
32779,68366,4
32769,68326,5
32747,68311,4
32743,68292,5
32735,68281,5
32732,68272,5
32734,68272,4
32734,68282,5
32740,68299,5
32745,68301,5
32748,68319,5
32767,68334,4
32768,68357,5
32780,68383,5
32794,68402,5
32811,68436,5
32826,68451,4
32837,68475,5
32841,68496,5
32858,68515,5
32858,68527,5
32869,68538,4
32883,68548,5
32876,68555,5
32851,68573,6
32889,68586,4
32907,68607,4
32907,68618,5
32866,68642,5
32932,68661,5
32944,68674,4
32945,68692,5
32900,68705,5
32961,68717,5
32968,68725,5
32976,68728,4
32988,68737,5
32970,68724,5
32968,68724,5
32960,68709,5
33020,68707,4
32946,68699,5
32945,68663,5
32929,68640,5
32983,68637,5
32909,68610,5
32908,68589,4
32893,68576,5
32907,68556,5
32873,68529,6
32864,68513,3
32854,68497,5
32842,68467,5
32827,68452,5
32810,68435,4
32809,68417,5
32808,68348,5
32792,68397,5
32790,68364,5
32776,68360,4
32779,68298,5
32768,68351,5
32763,68357,5
32768,68346,5
32757,68291,4
32754,68307,5
32737,68278,4
32728,68244,5
32700,68263,5
32681,68163,4
32658,68096,6
32604,68014,4
32571,67983,5
32508,67825,5
32463,67730,4
32423,67633,5
32378,67609,5
32347,67487,5
32307,67421,4
32287,67360,5
32249,67329,5
32238,67276,5
32219,67249,5
32207,67226,4
32192,67200,5
32191,67193,5
32188,67180,5
32178,67188,5
32182,67200,4
32201,67224,5
32213,67233,5
32202,67231,5
32178,67154,5
32140,67083,4
32094,67025,5
32065,66958,6
32036,66903,4
32014,66856,5
31981,66808,4
31962,66771,5
31938,66723,5
31931,66702,5
31924,66679,4
31916,66662,5
31909,66652,5
31906,66659,5
31906,66665,5
31920,66675,4
31931,66677,5
31928,66697,5
31940,66711,5
31942,66720,5
31948,66730,4
31948,66729,5
31950,66727,5
31957,66745,5
31963,66756,5
31963,66750,4
31967,66759,5
31967,66772,5
31978,66782,6
31984,66797,4
31989,66811,4
32001,66838,5
32018,66857,5
32025,66861,5
32023,66871,4
32026,66878,5
32038,66892,5
32037,66889,5
32036,66891,5
32035,66885,4
32026,66876,5
32017,66869,5
32020,66864,5
32020,66860,5
32013,66846,4
32002,66830,5
31992,66819,5
31992,66797,5
31982,66779,5
31985,66758,5
31975,66756,4
31974,66739,5
31955,66745,5
31950,66724,5
31944,66712,4
31949,66693,5
31948,66693,5
31933,66677,5
31926,66684,4
31929,66673,5
31926,66666,5
31916,66662,5
31932,66669,5
31929,66654,4
31926,66659,5
31919,66653,5
31909,66649,5
31904,66620,5
31885,66588,4
31871,66548,5
31853,66511,5
31831,66466,5
31810,66425,5
31759,66385,4
31770,66353,6
31755,66323,4
31755,66301,5
31698,66292,4
31738,66293,4
31744,66296,5
31749,66312,5
31692,66318,5
31751,66329,4
31758,66340,5
31762,66344,5
31770,66355,5
31772,66369,5
31785,66389,4
31801,66414,5
31848,66420,5
31795,66393,5
31780,66355,5
31746,66296,4
31796,66265,5
31709,66239,5
31696,66212,5
31694,66189,5
31721,66171,4
31669,66162,5
31675,66150,6
31673,66146,4
31678,66131,5
31668,66155,4
31675,66167,5
31679,66177,5
31697,66170,5
31697,66227,4
31716,66241,5
31724,66257,5
31741,66218,5
31745,66292,5
31748,66287,4
31757,66304,5
31762,66263,5
31767,66344,5
31781,66359,5
31783,66375,4
31802,66410,5
31810,66422,5
31816,66432,5
31820,66437,5
31827,66521,4
31837,66469,5
31848,66478,5
31844,66476,5
31846,66548,5
31845,66481,4
31839,66490,5
31849,66480,5
31847,66493,5
31836,66471,4
31835,66457,5
31827,66454,5
31833,66462,5
31822,66452,5
31826,66434,4
31823,66434,5
31809,66419,5
31808,66420,5
31808,66401,5
31801,66395,4
31801,66384,5
31792,66375,5
31779,66377,5
31792,66360,5
31782,66361,5
31785,66352,4
31783,66349,5
31775,66349,5
31775,66347,5
31772,66340,4
31777,66350,5
31778,66343,5
31779,66347,5
31783,66341,4
31774,66338,5
31772,66337,5
31781,66341,5
31782,66348,8
31769,66336,1
31770,66337,5
31763,66325,5
31750,66327,5
31762,66315,5
31757,66304,4
31751,66291,5
31740,66274,5
31737,66242,5
31725,66231,5
31706,66198,4
31687,66148,6
31662,66104,4
31641,66050,5
31607,65989,4
31582,65941,4
31569,65902,5
31539,65872,5
31531,65837,5
31513,65804,4
31512,65793,5
31507,65788,5
31510,65796,5
31508,65793,5
31513,65793,4
31521,65829,5
31520,65832,5
31539,65855,5
31538,65871,5
31546,65879,4
31552,65893,5
31571,65918,5
31581,65946,5
31589,65954,5
31584,65921,4
31567,65885,5
31539,65857,5
31539,65837,5
31515,65823,4
31522,65808,4
31507,65802,5
31510,65806,5
31505,65795,5
31516,65803,4
31528,65804,5
31528,65824,5
31535,65841,5
31551,65878,5
31563,65898,4
31585,65934,5
31600,65977,5
31621,66009,5
31638,66046,5
31669,66091,4
31675,66123,5
31686,66159,5
31723,66200,5
31732,66244,5
31759,66269,4
31737,66313,5
31790,66353,5
31828,66386,5
31836,66435,5
31799,66473,4
31876,66502,5
31893,66538,5
31911,66566,5
31878,66574,4
31924,66587,5
31915,66578,5
31928,66590,5
31963,66600,5
31929,66600,4
31924,66595,5
31926,66590,5
31996,66598,5
31930,66596,5
31926,66613,4
31930,66593,6
31977,66602,4
31931,66598,5
31929,66590,5
31917,66593,6
31943,66583,3
31929,66602,5
31933,66603,5
31931,66601,4
31940,66597,4
31946,66614,5
31944,66629,5
31949,66646,5
31964,66616,4
31967,66675,5
31979,66696,5
31988,66707,5
32000,66681,5
32006,66757,5
32018,66781,4
32022,66794,5
32042,66806,5
32050,66837,5
32064,66852,4
32062,66864,5
32076,66934,6
32087,66904,4
32092,66930,5
32112,66948,4
32111,67035,5
32125,66984,5
32130,66984,5
32131,66994,5
32124,67029,4
32123,66983,5
32113,66967,5
32111,66940,5
32099,66925,4
32092,66900,5
32082,66871,5
32074,66865,5
32058,66852,5
32057,66841,4
32057,66844,5
32068,66851,5
32072,66873,5
32078,66893,5
32095,66919,4
32105,66930,5
32112,66945,5
32131,66982,6
32143,67008,4
32159,67039,4
32160,67057,5
32177,67083,5
32174,67061,5
32146,67014,5
32124,66970,4
32110,66917,5
32083,66892,5
32071,66866,5
32074,66855,4
32068,66852,5
32052,66844,5
32063,66844,5
32077,66853,5
32067,66863,4
32074,66874,5
32075,66893,5
32094,66916,5
32100,66942,5
32123,66968,5
32132,67008,4
32161,67047,5
32179,67088,5
32198,67125,6
32212,67167,3
32243,67209,5
32264,67244,5
32293,67293,5
32309,67336,5
32338,67378,4
32349,67421,5
32375,67462,5
32387,67508,5
32424,67546,4
32440,67598,4
32458,67636,5
32481,67665,5
32492,67672,5
32490,67698,4
32496,67709,5
32512,67707,5
32512,67717,5
32504,67719,5
32511,67719,4
32515,67721,6
32507,67707,4
32505,67705,5
32497,67697,5
32504,67690,4
32494,67684,5
32499,67679,5
32493,67683,5
32493,67698,5
32507,67708,4
32506,67723,5
32528,67738,5
32527,67747,5
32540,67758,4
32543,67783,4
32550,67804,5
32565,67829,5
32582,67856,5
32600,67898,4
32618,67937,5
32631,67967,5
32647,68007,5
32675,68033,5
32693,68071,4
32712,68094,5
32713,68122,6
32701,68131,4
32726,68155,5
32739,68157,4
32737,68162,5
32683,68168,5
32734,68163,5
32734,68153,5
32721,68163,4
32669,68169,5
32736,68157,5
32743,68180,5
32747,68203,4
32759,68227,4
32778,68251,5
32787,68294,5
32816,68338,5
32883,68393,4
32870,68440,5
32886,68477,5
32900,68513,5
32989,68564,5
32942,68602,4
32970,68630,5
32973,68634,5
32998,68601,6
32943,68569,4
32935,68541,4
32911,68517,5
32913,68506,5
32908,68500,5
32900,68509,5
32906,68510,4
32914,68486,5
32914,68533,5
32926,68550,5
32941,68587,4
32958,68562,4
32988,68671,5
33007,68712,5
33032,68754,5
33050,68738,4
33069,68841,5
33102,68884,4
33121,68922,5
33126,68971,5
33146,68997,5
33160,69028,4
33180,69059,5
33193,69136,5
33201,69104,5
33211,69124,4
33221,69145,5
33237,69230,5
33241,69185,5
33245,69207,5
33252,69194,4
33247,69202,5
33244,69166,5
33228,69155,5
33219,69145,4
33214,69140,4
33208,69123,5
33214,69096,5
33191,69086,5
33171,69045,4
33158,69004,5
33135,68958,5
33116,68910,5
33077,68863,5
33062,68822,4
33036,68777,6
33011,68727,4
32998,68705,5
32985,68670,5
32975,68644,4
32955,68625,5
32946,68615,5
32949,68601,5
32939,68588,5
32941,68573,4
32933,68577,5
32934,68564,5
32927,68553,5
32918,68548,4
32911,68555,5
32910,68538,5
32916,68529,5
32903,68510,5
32889,68484,4
32874,68454,5
32849,68425,5
32826,68382,5
32812,68342,5
32792,68304,4
32777,68282,5
32773,68246,6
32753,68215,4
32733,68203,5
32733,68173,4
32728,68166,5
32713,68162,5
32706,68135,5
32701,68117,4
32701,68119,4
32692,68120,5
32687,68108,5
32686,68096,5
32684,68067,4
32653,68003,5
32603,67917,5
32557,67827,5
32531,67764,5
32497,67711,4
32473,67671,5
32454,67632,5
32436,67603,5
32423,67570,5
32412,67557,4
32406,67539,5
32398,67537,5
32405,67536,5
32404,67549,5
32400,67551,4
32417,67555,5
32421,67566,5
32429,67586,5
32423,67595,4
32434,67602,4
32433,67608,5
32440,67626,5
32448,67626,5
32450,67638,4
32459,67646,5
32458,67660,5
32460,67666,5
32459,67680,5
32465,67694,4
32490,67721,5
32494,67737,5
32507,67732,5
32503,67732,5
32475,67723,5
32488,67714,4
32488,67725,5
32492,67714,5
32436,67704,5
32488,67704,4
32485,67688,5
32476,67670,5
32409,67650,5
32446,67622,4
32430,67586,4
32413,67557,5
32374,67515,5
32372,67481,5
32357,67455,4
32346,67425,5
32373,67415,5
32327,67392,5
32324,67373,5
32316,67360,4
32378,67352,5
32307,67353,6
32305,67347,4
32309,67348,5
32359,67357,4
32317,67368,6
32306,67369,4
32308,67364,5
32332,67366,5
32308,67378,4
32317,67369,5
32316,67366,5
32312,67351,5
32317,67359,4
32317,67367,5
32312,67365,5
32322,67312,5
32308,67367,5
32308,67362,4
32303,67363,5
32299,67282,5
32290,67314,5
32289,67293,5
32261,67240,4
32225,67183,5
32204,67128,5
32163,67063,5
32130,67001,5
32098,66986,4
32076,66880,5
32055,66842,5
32033,66805,5
32028,66860,5
32010,66770,4
32019,66768,5
32014,66780,5
32009,66808,5
32014,66778,4
32018,66781,5
32017,66785,5
32027,66799,5
32030,66795,5
32024,66787,4
32019,66770,5
31978,66693,5
31944,66623,5
31911,66565,5
31881,66515,5
31856,66468,4
31850,66434,5
31830,66400,5
31815,66370,6
31800,66339,3
31792,66339,5
31792,66326,5
31778,66313,5
31783,66324,6
31793,66327,3
31800,66351,5
31808,66373,5
31820,66392,5
31828,66405,4
31840,66430,5
31844,66456,5
31863,66473,5
31873,66495,5
31876,66518,4
31891,66535,5
31902,66548,5
31911,66572,5
31926,66603,5
31935,66622,4
31953,66644,6
31960,66673,4
31972,66694,5
31986,66722,5
32003,66746,6
32005,66764,3
32009,66750,5
32007,66762,5
32008,66754,4
32011,66759,4
32012,66764,5
32015,66760,5
32015,66760,5
32012,66755,4
32008,66758,5
32009,66744,5
31999,66732,5
31996,66727,5
31988,66713,4
31985,66705,5
31979,66699,5
31984,66696,5
31971,66691,5
31974,66680,4
31973,66682,5
31974,66677,6
31971,66671,4
31967,66682,5
31969,66677,4
31967,66691,5
31978,66704,5
31989,66714,5
31992,66721,4
32005,66739,4
32007,66761,5
32026,66782,5
32031,66795,5
32040,66821,4
32055,66847,5
32061,66860,5
32053,66842,5
32033,66811,5
32019,66767,4
31992,66718,5
31967,66688,5
31962,66657,5
31957,66638,5
31948,66628,4
31943,66619,5
31933,66628,5
31936,66619,6
31935,66598,4
31929,66598,4
31891,66588,5
31926,66591,5
31929,66593,5
31924,66600,4
31878,66613,5
31931,66619,5
31951,66661,5
31967,66701,5
31947,66737,4
31994,66739,5
31988,66706,5
31966,66648,5
31959,66619,5
31924,66585,4
31909,66541,5
31885,66494,5
31934,66469,5
31847,66450,5
31851,66445,5
31854,66452,4
31904,66445,5
31855,66443,5
31860,66456,6
31857,66454,3
31878,66458,5
31863,66478,5
31870,66493,5
31887,66516,4
31898,66538,5
31933,66605,5
31951,66664,5
31977,66696,5
31978,66642,4
31969,66669,5
31961,66661,5
31963,66674,5
31969,66621,5
31979,66695,5
31990,66722,4
31999,66740,5
32013,66753,5
32029,66811,5
32048,66850,4
32071,66877,6
32088,66950,4
32100,66957,5
32113,66980,4
32135,66991,4
32124,67051,5
32121,66980,5
32111,66964,5
32106,66953,4
32104,66979,5
32092,66910,5
32074,66887,5
32067,66870,5
32054,66859,4
32044,66833,5
32031,66815,5
32024,66790,5
32021,66770,5
32002,66750,4
31996,66731,5
31981,66712,5
31971,66687,5
31966,66663,5
31952,66652,4
31955,66644,5
31956,66641,6
31942,66627,4
31938,66619,4
31938,66612,4
31936,66611,5
31921,66596,5
31920,66581,5
31912,66562,4
31902,66541,5
31875,66500,5
31855,66456,5
31841,66415,5
31818,66365,4
31797,66344,5
31783,66300,5
31761,66265,5
31758,66241,5
31743,66223,4
31736,66220,5
31734,66213,5
31728,66206,5
31730,66210,5
31729,66213,4
31734,66206,5
31733,66212,5
31734,66222,6
31747,66235,3
31743,66243,4
31751,66252,5
31753,66263,5
31747,66218,5
31710,66159,4
31686,66107,5
31668,66073,5
31652,66042,5
31640,66013,5
31633,66006,4
31625,65993,5
31619,65973,5
31609,65964,5
31608,65954,5
31606,65952,4
31608,65956,5
31612,65974,5
31626,65996,5
31623,65996,5
31635,66013,5
31639,66031,4
31644,66037,5
31654,66049,5
31662,66076,4
31669,66076,5
31679,66091,5
31681,66102,5
31684,66105,5
31692,66123,4
31691,66126,5
31690,66134,5
31702,66142,5
31714,66156,5
31712,66163,4
31722,66184,5
31729,66203,5
31734,66198,5
31733,66194,5
31740,66199,4
31736,66204,5
31734,66202,5
31736,66206,5
31731,66203,4
31732,66204,4
31729,66199,6
31737,66194,4
31693,66192,5
31736,66195,4
31729,66197,5
31731,66184,5
31667,66176,5
31722,66178,5
31724,66176,4
31710,66160,5
31660,66154,5
31708,66166,5
31717,66163,5
31720,66169,4
31745,66177,5
31724,66187,5
31728,66196,5
31735,66210,5
31805,66218,4
31749,66237,5
31757,66252,5
31765,66256,5
31823,66289,4
31776,66303,4
31787,66325,5
31804,66351,6
31832,66370,4
31831,66393,4
31840,66416,5
31849,66439,5
31860,66442,5
31864,66477,5
31882,66485,4
31882,66516,5
31898,66480,5
31890,66527,5
31898,66521,5
31886,66505,4
31879,66406,5
31861,66444,5
31848,66417,5
31828,66388,5
31815,66338,8
31805,66337,5
31805,66312,7
31795,66334,10
31795,66334,7
31805,66407,5
31808,66362,8
31821,66421,7
31833,66419,5
31887,66508,8
31887,66508,7
31850,66468,5
31854,66418,8
31836,66395,7
31822,66366,7
31809,66347,8
31809,66347,7
31799,66351,5
31809,66328,10
31822,66360,5
31828,66383,5
31832,66396,10
31844,66436,5
31863,66473,5
31957,66651,10
31973,66691,5
32000,66740,5
32022,66776,10
32033,66809,5
32051,66837,5
32101,66869,10
32109,66893,5
32093,66929,5
32161,67047,10
32161,67047,5
31836,66395,5
32164,67047,10
32176,67049,5
32172,67060,5
32171,67062,10
32172,67065,5
32171,67044,7
32171,67044,8
32167,67059,5
32153,67036,7
32149,67025,8
32136,67005,5
31914,66558,7
32142,67022,8
32142,67022,5
32146,67046,7
32158,67053,8
32153,67029,5
32161,67049,7
32166,67071,8
32188,67087,5
32228,67178,7
32228,67178,8
32227,67200,5
32235,67207,7
32252,67226,8
32252,67224,7
32255,67244,5
32209,67131,8
32209,67131,7
32158,67118,5
32187,67098,8
32191,67086,7
32206,67152,10
32206,67152,5
32180,67178,7
32224,67187,8
32240,67184,7
32255,67233,5
32222,67273,8
32287,67303,7
32296,67334,5
32233,67193,8
32233,67193,7
32248,67111,7
32215,67135,8
32209,67124,7
32194,67145,5
32252,67143,8
32252,67143,7
32176,67143,10
32221,67175,7
32239,67215,5
32286,67247,5
32360,67437,10
32360,67437,5
32379,67457,5
32397,67482,10
32180,67178,0
32431,67579,5
32460,67623,8
32466,67657,5
32491,67631,5
32509,67717,5
32522,67780,10
32558,67845,5
32565,67827,5
32597,67905,10
32597,67905,5
32598,67909,5
32589,67910,10
32607,67979,5
32595,67898,5
32562,67829,10
32562,67829,5
32555,67819,5
32557,67818,10
32552,67810,0
32549,67810,2
32516,67810,4
32546,67811,5
32550,67815,5
32558,67820,5
32565,67829,4
32566,67848,4
32567,67858,5
32578,67869,5
32585,67885,5
32601,67902,9
32603,67917,5
32608,67930,5
32614,67941,6
32621,67959,3
32635,67970,5
32631,67987,5
32639,67982,5
32642,68003,5
32642,67996,4
32650,68000,5
32637,67988,5
