RED,IR,EKG,TIME
64887,140254,183667
64944,140353,1
24851,53134,3
24866,53142,4
24899,53199,6
24917,53212,4
24917,53228,5
24927,53233,4
24933,53264,5
24951,53301,5
24976,53329,5
24989,53372,5
25006,53397,4
25019,53410,5
25018,53423,5
25031,53450,5
25043,53478,5
25066,53527,4
25078,53566,5
25099,53592,5
25105,53603,5
25108,53601,5
25088,53514,4
25016,53387,5
24983,53322,5
24970,53317,5
24996,53365,4
25033,53450,4
25072,53535,5
25091,53552,6
25091,53558,4
25096,53563,4
25108,53578,5
25107,53582,5
25103,53573,5
25105,53573,5
25112,53581,4
25117,53588,5
25119,53597,5
25116,53618,5
25136,53626,5
25137,53617,4
25127,53627,5
25133,53641,5
25142,53659,5
25155,53684,5
25165,53703,4
25160,53684,5
25154,53639,5
25121,53572,5
25088,53500,5
25070,53506,4
25091,53535,5
25109,53570,5
25137,53647,5
25177,53714,4
25165,53614,5
25064,53431,5
25016,53391,5
25037,53433,5
25074,53521,4
25126,53624,5
25162,53683,5
25187,53743,5
25204,53766,5
25212,53778,4
25219,53788,5
25235,53816,5
25239,53832,5
25244,53849,5
25273,53906,4
25300,53964,5
25306,53946,5
25285,53908,5
25294,53930,4
25312,53999,5
25368,54088,4
25414,54179,5
25455,54264,5
25501,54334,4
25496,54314,5
25482,54270,5
25448,54217,5
25439,54199,5
25441,54178,4
25415,54147,5
25408,54142,5
25417,54167,5
25407,54101,5
25348,53974,4
25300,53894,5
25256,53864,5
25276,53862,5
25292,53884,5
25315,53943,4
25278,53958,5
25331,53955,5
25307,53918,5
25292,53882,4
25255,53889,5
25304,53937,6
25344,53994,4
25368,54061,5
25417,54083,4
25398,54109,5
25408,54124,5
25409,54133,5
25474,54159,5
25449,54205,4
25470,54231,5
25428,54117,5
25374,53882,5
25202,53638,5
25133,53537,4
25115,53525,5
25117,53485,5
25066,53419,5
25011,53315,5
24989,53276,4
24995,53264,5
24991,53287,5
25003,53315,5
25030,53375,4
25064,53398,5
25088,53483,5
25111,53523,5
25123,53535,5
25129,53512,4
25122,53555,5
25101,53480,5
25023,53298,5
24935,53132,5
24914,53108,4
24941,53174,5
24982,53278,5
25021,53390,5
25053,53420,5
25088,53506,4
25116,53537,5
25097,53529,5
25062,53409,5
25053,53405,4
25050,53386,4
25038,53385,5
25030,53322,5
25014,53342,5
25036,53375,6
25049,53413,3
25049,53400,5
25030,53338,5
24996,53265,5
24964,53219,4
24970,53224,5
24979,53258,5
24995,53272,5
24988,53279,5
25005,53311,4
25052,53418,5
25109,53572,5
25177,53663,5
25186,53655,5
25135,53533,4
25071,53411,5
25002,53279,5
24958,53201,5
24964,53238,4
25005,53334,4
25067,53446,5
25120,53574,4
25138,53564,5
25073,53396,4
25017,53307,7
25008,53308,3
24995,53273,5
24982,53238,5
24976,53227,4
24984,53261,5
25008,53310,5
25035,53363,5
25056,53419,5
25078,53434,4
25052,53399,5
25052,53402,5
25053,53403,5
25055,53436,5
25071,53460,4
25081,53493,5
25081,53448,5
25036,53355,5
25028,53357,4
25046,53397,4
25077,53449,5
25091,53491,6
25119,53552,4
25140,53602,4
25148,53609,5
25152,53596,5
25140,53571,5
25137,53573,5
25148,53617,4
25179,53681,5
25200,53747,5
25230,53790,5
25244,53803,5
25246,53814,4
25251,53827,5
25262,53854,5
25261,53841,5
25246,53831,5
25254,53829,4
25255,53822,5
25249,53818,5
25245,53813,5
25243,53804,5
25247,53805,4
25240,53803,5
25245,53807,5
25249,53815,6
25247,53812,3
25243,53803,5
25251,53804,5
25248,53817,5
25251,53815,5
25256,53826,4
25264,53848,5
25269,53861,5
25283,53897,5
25294,53919,5
25298,53939,4
25317,53962,5
25322,53971,5
25334,53973,5
25295,53985,5
25338,54002,4
25346,54025,5
25346,54038,5
25303,54030,5
25354,54039,4
25356,54039,5
25348,54020,4
25326,54017,5
25347,54001,5
25343,53985,6
25322,53971,3
25344,53946,5
25308,53937,5
25307,53920,5
25297,53907,4
25338,53897,5
25276,53890,5
25287,53895,5
25283,53888,5
25322,53891,4
25279,53903,5
25296,53900,5
25300,53914,5
25316,53922,5
25300,53934,4
25305,53951,5
25315,53966,5
25321,53963,5
25329,53991,4
25329,53977,4
25314,53969,6
25320,53910,4
25312,53949,5
25312,53944,4
25307,53934,5
25301,53892,5
25311,53939,5
25313,53939,5
25303,53941,5
25313,53938,4
25309,53924,5
25303,53923,5
25305,53923,5
25309,53974,4
25303,53938,5
25316,53950,5
25310,53955,5
25325,54018,5
25321,53971,4
25330,53979,5
25332,53992,5
25343,54019,5
25341,54007,4
25341,54004,4
25349,54015,5
25348,54025,6
25354,54022,4
25354,54027,4
25352,54036,5
25364,54052,5
25367,54068,5
25379,54086,5
25390,54082,4
25382,54096,5
25384,54091,5
25385,54110,5
25395,54112,5
25394,54104,4
25385,54110,5
25395,54113,5
25390,54109,5
25388,54109,5
25383,54102,4
25377,54095,5
25381,54090,5
25381,54079,5
25378,54075,5
25372,54079,4
25375,54062,5
25372,54069,5
25375,54064,6
25373,54070,3
25380,54076,5
25374,54066,5
25381,54085,5
25380,54078,5
25382,54081,4
25377,54072,5
25384,54096,5
25385,54104,5
25391,54113,5
25399,54126,4
25417,54149,5
25411,54162,5
25426,54189,5
25436,54215,5
25451,54235,4
25469,54264,5
25483,54287,5
25494,54330,5
25534,54370,5
25542,54401,5
25563,54440,4
25583,54467,5
25597,54507,5
25619,54540,4
25645,54590,5
25665,54622,5
25680,54643,5
25689,54673,5
25691,54686,4
25699,54692,5
25712,54706,5
25717,54726,5
25724,54732,5
25736,54763,4
25746,54774,5
25767,54809,5
25770,54838,5
25789,54861,5
25799,54890,4
25815,54936,5
25848,54966,5
25865,55003,5
25883,55045,5
25899,55095,4
25928,55145,6
25962,55193,4
25981,55223,5
25988,55264,4
26008,55290,5
26013,55281,5
25994,55266,5
25987,55228,5
25976,55207,4
25961,55186,5
25950,55171,5
25944,55149,5
25943,55139,5
25935,55137,4
25909,55132,5
25931,55133,5
25936,55138,5
25942,55148,5
25900,55156,4
25956,55177,5
25953,55190,5
25967,55210,5
25964,55235,5
25997,55265,4
25996,55254,5
25992,55249,6
26018,55246,4
25994,55251,4
26005,55271,5
26017,55305,5
26088,55350,5
26071,55412,5
26117,55491,4
26164,55594,5
26237,55640,5
26218,55657,5
26233,55688,5
26273,55782,8
26312,55821,3
26343,55909,3
26380,55964,5
26416,56008,5
26440,56046,4
26467,56101,5
26471,56079,5
26457,56048,5
26456,56022,5
26491,56101,4
26511,56137,5
26520,56111,5
26499,56024,5
26494,56067,4
26527,56119,5
26582,56234,5
26649,56360,5
26754,56535,5
26848,56708,4
26943,56867,5
27036,57078,5
27124,57183,5
27208,57329,5
27280,57455,4
27366,57683,5
27482,57835,5
27580,57998,5
27638,58100,5
27698,58206,4
27744,58258,5
27781,58298,5
27805,58346,5
27867,58444,5
27887,58462,5
27899,58501,4
27949,58599,5
27977,58670,5
28034,58733,4
28045,58740,5
28048,58751,5
28072,58764,5
28074,58763,5
28078,58754,4
28075,58722,5
28097,58758,5
28076,58708,5
28078,58699,5
28096,58754,4
28141,58811,5
28137,58807,5
28163,58858,5
28202,58917,5
28247,58954,4
28249,58971,5
28270,58996,5
28280,59041,5
28282,59040,5
28267,59012,4
28238,58933,6
28174,58817,4
28119,58737,5
28063,58652,4
28024,58607,5
28001,58563,5
27985,58532,5
27974,58514,5
27961,58500,4
27951,58482,5
27949,58483,5
27946,58472,5
27953,58506,5
27975,58527,4
27987,58541,5
27982,58554,5
27998,58572,5
28010,58590,5
27993,58569,4
27989,58556,5
27979,58544,5
27981,58526,5
27966,58524,5
27962,58519,4
27954,58506,5
27939,58452,5
27913,58394,5
27875,58343,4
27839,58273,4
27818,58208,5
27775,58156,5
27756,58113,5
27745,58096,4
27740,58082,5
27737,58083,5
27735,58082,5
27718,58069,5
27705,58030,4
27680,57996,5
27658,57944,5
27638,57907,5
27620,57875,5
27612,57853,4
27603,57841,4
27594,57807,5
27569,57760,5
27535,57701,5
27513,57664,3
27498,57636,5
27491,57614,5
27480,57594,5
27470,57576,4
27459,57570,4
27456,57560,5
27458,57551,5
27450,57563,5
27446,57550,4
27442,57530,5
27433,57501,5
27391,57492,5
27407,57458,5
27396,57453,4
27388,57427,5
27329,57411,5
27364,57377,5
27353,57364,5
27345,57351,4
27314,57339,6
27339,57342,4
27335,57341,5
27343,57356,5
27383,57383,6
27361,57383,3
27361,57404,5
27378,57409,5
27438,57447,4
27413,57475,4
27431,57505,5
27433,57522,5
27477,57542,5
27449,57534,4
27448,57538,5
27450,57523,5
27452,57513,5
27431,57493,5
27412,57480,4
27421,57465,5
27411,57444,5
27400,57460,5
27399,57469,5
27413,57476,4
27422,57457,5
27430,57498,6
27432,57517,4
27444,57531,5
27450,57512,4
27458,57581,5
27480,57604,5
27486,57627,5
27499,57637,4
27509,57650,4
27518,57666,5
27518,57669,5
27518,57708,5
27524,57676,4
27527,57674,5
27516,57679,5
27530,57734,5
27518,57679,5
27530,57695,4
27536,57697,5
27533,57736,5
27550,57717,5
27549,57727,5
27556,57733,4
27554,57747,5
27566,57741,5
27552,57736,6
27558,57732,4
27545,57716,4
27533,57696,5
27518,57669,5
27513,57661,5
27506,57641,4
27512,57627,4
27485,57617,5
27485,57599,5
27485,57599,5
27482,57584,4
27467,57577,5
27465,57560,5
27466,57569,5
27460,57558,5
27468,57565,4
27459,57563,5
27458,57565,5
27460,57556,5
27456,57565,5
27455,57549,5
27452,57546,4
27449,57526,5
27440,57520,5
27434,57509,6
27422,57500,3
27424,57489,5
27416,57463,5
27408,57456,5
27399,57428,4
27395,57420,4
27373,57406,5
27370,57399,5
27376,57396,5
27368,57372,4
27363,57369,5
27367,57376,5
27360,57373,5
27362,57380,5
27355,57363,4
27346,57346,5
27344,57329,5
27328,57301,5
27310,57286,5
27292,57243,4
27270,57212,6
27261,57183,4
27242,57156,5
27226,57130,5
27211,57093,4
27194,57071,5
27189,57036,5
27178,57022,5
27166,57006,4
27157,57001,4
27156,56990,5
27150,56979,5
27139,56970,5
27145,56978,4
27149,56975,5
27139,56980,5
27140,56967,5
27149,56972,5
27145,56963,4
27144,56968,5
27141,56953,5
27127,56945,5
27120,56934,5
27116,56921,4
27116,56908,5
27111,56906,6
27105,56888,4
27092,56865,5
27078,56857,4
27081,56839,5
27067,56827,5
27065,56817,5
27059,56807,4
27041,56800,4
27051,56792,5
27040,56781,5
27036,56761,5
26989,56720,4
27000,56691,5
26987,56676,5
26978,56641,5
26915,56625,5
26944,56600,4
26938,56585,5
26928,56572,5
26897,56552,5
26919,56551,5
26917,56543,4
26911,56535,5
26932,56537,5
26906,56537,6
26914,56528,4
26908,56526,4
26947,56517,5
26897,56509,5
26903,56513,5
26892,56511,4
26934,56502,4
26886,56493,5
26889,56490,5
26877,56495,5
26896,56487,4
26887,56491,5
26885,56490,5
26885,56494,5
26885,56473,5
26877,56479,4
26875,56475,5
26872,56468,5
26872,56437,5
26865,56478,5
26876,56465,5
26877,56473,4
26875,56426,5
26879,56490,5
26880,56489,5
26878,56487,5
26874,56477,4
26876,56459,5
26857,56446,5
26852,56413,4
26836,56428,4
26843,56381,5
26819,56371,5
26820,56352,5
26808,56400,4
26808,56334,5
26806,56341,5
26799,56328,5
26798,56354,5
26794,56308,4
26793,56303,5
26788,56303,5
26790,56306,5
26789,56298,5
26789,56296,4
26784,56289,6
26784,56293,4
26785,56287,5
26776,56284,5
26781,56285,4
26767,56275,5
26769,56274,5
26775,56265,5
26770,56270,4
26775,56276,4
26773,56273,5
26776,56279,5
26778,56283,5
26771,56267,4
26764,56260,5
26758,56257,5
26754,56253,5
26758,56240,5
26742,56231,4
26750,56219,5
26747,56202,5
26738,56200,5
26740,56189,5
26729,56187,4
26721,56166,5
26714,56152,6
26709,56139,4
26704,56130,5
26696,56132,4
26699,56126,5
26699,56127,5
26699,56125,5
26708,56131,4
26699,56123,4
26701,56126,5
26695,56131,5
26706,56132,5
26701,56131,4
26708,56135,5
26703,56134,5
26697,56123,5
26698,56119,5
26693,56118,4
26694,56111,5
26691,56101,5
26683,56093,5
26686,56099,5
26686,56092,4
26679,56085,5
26671,56077,5
26677,56070,5
26671,56075,5
26669,56061,4
26665,56055,5
26664,56053,5
26656,56062,5
26663,56060,4
26658,56051,4
26662,56061,5
26672,56063,5
26663,56052,5
26656,56048,4
26656,56035,5
26634,55999,5
26617,55968,5
26601,55933,5
26593,55900,4
26577,55878,5
26562,55863,5
26550,55843,5
26543,55825,5
26539,55813,5
26532,55803,4
26533,55797,5
26534,55802,5
26531,55803,5
26534,55818,4
26533,55813,5
26539,55820,5
26543,55832,5
26550,55837,4
26555,55832,4
26513,55831,5
26558,55824,5
26543,55822,5
26546,55828,4
26501,55828,5
26536,55831,5
26545,55826,5
26540,55827,5
26514,55844,4
26561,55849,5
26558,55853,5
26555,55851,5
26568,55862,5
26558,55863,4
26556,55862,6
26569,55878,4
26609,55868,5
26563,55871,5
26574,55868,6
26564,55862,3
26598,55858,5
26560,55855,5
26555,55839,4
26551,55827,4
26553,55820,5
26535,55803,5
26537,55799,5
26537,55793,4
26533,55780,5
26523,55788,5
26528,55785,5
26519,55787,5
26527,55759,4
26526,55789,5
26527,55784,5
26515,55788,6
26524,55741,4
26519,55780,4
26512,55783,5
26527,55783,5
26521,55756,5
26521,55787,5
26525,55787,4
26527,55781,5
26525,55806,5
26521,55787,5
26526,55786,4
26528,55782,4
26521,55823,5
26516,55780,5
26517,55770,5
26513,55760,4
26514,55787,5
26498,55740,5
26501,55724,5
26482,55716,5
26483,55708,5
26480,55681,4
26473,55672,5
26460,55662,5
26457,55651,6
26458,55632,3
26448,55630,5
26447,55628,5
26444,55630,5
26443,55637,5
26434,55619,4
26437,55612,5
26436,55612,5
26438,55597,5
26420,55585,4
26423,55577,4
26414,55573,5
26415,55561,5
26394,55539,5
26383,55506,4
26382,55488,5
26365,55466,5
26353,55459,5
26343,55431,5
26340,55420,4
26330,55407,6
26333,55402,4
26320,55403,5
26321,55382,5
26313,55366,6
26307,55357,3
26306,55353,5
26302,55347,5
26303,55342,5
26298,55340,4
26299,55343,5
26298,55342,5
26294,55333,5
26289,55336,5
26300,55331,4
26296,55335,5
26294,55332,5
26307,55339,5
26302,55338,4
26303,55340,5
26303,55330,5
26300,55326,5
26297,55310,5
26295,55324,4
26289,55325,5
26288,55314,6
26291,55310,4
26286,55299,5
26285,55299,4
26283,55308,5
26280,55287,5
26277,55281,5
26269,55279,5
26270,55267,4
26257,55256,5
26252,55254,5
26255,55245,5
26251,55237,5
26253,55231,4
26247,55231,5
26246,55226,5
26242,55212,5
26237,55203,4
26234,55201,5
26223,55185,5
26226,55185,5
26220,55162,5
26220,55156,4
26208,55152,5
26202,55144,5
26204,55142,6
26209,55140,4
26196,55136,4
26203,55134,5
26200,55128,5
26194,55139,5
26195,55123,5
26196,55128,4
26198,55118,5
26191,55119,5
26163,55112,5
26177,55097,5
26176,55095,4
26177,55088,5
26130,55085,5
26170,55086,5
26164,55079,4
26160,55072,5
26123,55072,5
26162,55059,5
26154,55039,5
26144,55041,5
26142,55016,4
26132,55010,5
26126,54983,5
26121,54969,6
26135,54948,3
26095,54932,5
26086,54910,5
26079,54897,5
26123,54887,5
26061,54877,4
26067,54871,5
26064,54869,5
26076,54867,5
26053,54849,5
26054,54848,4
26055,54840,5
26061,54833,5
26045,54823,5
26022,54789,4
26012,54758,4
25999,54710,5
25977,54702,5
25972,54667,5
25956,54648,4
25946,54593,6
25939,54611,4
25943,54596,5
25934,54596,5
25933,54555,4
25927,54595,5
25929,54604,5
25946,54614,5
25939,54627,5
25951,54618,4
25935,54619,5
25945,54626,5
25949,54673,5
25945,54642,5
25957,54658,4
25958,54667,5
25976,54716,5
25977,54685,5
25977,54696,4
25987,54717,4
26005,54752,5
25999,54738,5
26009,54762,5
26020,54774,4
26032,54784,5
26037,54801,6
26036,54804,4
26036,54805,5
26044,54818,4
26050,54830,5
26054,54834,5
26061,54847,5
26064,54852,5
26071,54863,4
26073,54877,5
26073,54890,5
26084,54893,5
26076,54892,5
26089,54901,4
26088,54909,5
26082,54912,5
26095,54911,5
26095,54928,4
26098,54928,4
26098,54931,5
26108,54942,5
26114,54948,5
26120,54949,4
26120,54966,5
26119,54980,5
26131,54987,6
26135,55004,4
26137,55012,4
26142,55021,5
26153,55023,5
26154,55036,5
26160,55048,5
26163,55055,4
26160,55054,5
26161,55052,5
26170,55060,5
26167,55068,5
26172,55065,4
26174,55069,5
26181,55078,5
26183,55093,5
26189,55109,4
26192,55121,4
26201,55126,5
26203,55127,5
26206,55136,5
26210,55145,5
26211,55138,4
26215,55147,5
26212,55151,5
26219,55156,5
26222,55166,4
26221,55161,5
26222,55167,5
26222,55168,5
26227,55171,5
26230,55166,4
26222,55177,5
26225,55180,5
26231,55188,5
26235,55198,5
26243,55199,4
26242,55204,5
26241,55209,5
26234,55199,5
26239,55191,4
26231,55181,4
26232,55172,5
26231,55173,5
26219,55158,5
26219,55162,4
26222,55166,6
26215,55158,4
26225,55157,5
26219,55157,5
26218,55156,4
26224,55161,5
26218,55162,5
26217,55168,5
26227,55170,5
26211,55177,4
26224,55173,5
26233,55184,5
26231,55194,5
26203,55190,5
26248,55201,4
26250,55205,5
26251,55224,5
26224,55236,5
26255,55243,4
26266,55254,4
26275,55258,5
26266,55264,5
26284,55279,5
26285,55293,4
26282,55302,5
26320,55310,6
26303,55309,4
26293,55322,5
26300,55327,4
26349,55338,5
26317,55358,5
26324,55375,5
26330,55391,5
26367,55405,4
26336,55406,5
26348,55423,5
26353,55431,5
26363,55446,5
26367,55452,4
26368,55468,5
26380,55481,5
26385,55467,5
26394,55515,4
26407,55530,4
26405,55541,5
26422,55515,5
26420,55568,5
26430,55578,4
26440,55602,5
26460,55595,5
26474,55682,5
26503,55714,5
26507,55743,5
26528,55773,4
26539,55785,5
26546,55802,5
26561,55816,5
26569,55897,4
26591,55910,5
26613,55940,5
26626,55965,5
26637,56027,5
26643,56000,4
26664,56036,5
26691,56110,5
26730,56186,5
26762,56217,4
26780,56257,4
26791,56280,5
26802,56286,5
26804,56302,5
26802,56318,5
26819,56345,4
26839,56353,5
26865,56397,5
26869,56421,5
26869,56429,4
26876,56407,5
26858,56386,5
26860,56397,5
26874,56416,5
26893,56451,4
26906,56499,5
26923,56523,5
26948,56541,5
26942,56568,5
26943,56567,4
26945,56556,5
26924,56514,5
26909,56492,5
26914,56512,4
26920,56529,4
26945,56574,5
26961,56614,5
26978,56647,5
26982,56664,4
27000,56691,6
27002,56686,4
26984,56665,5
26977,56650,5
26985,56676,4
26991,56706,5
27019,56775,5
27046,56826,5
27075,56880,5
27110,56937,4
27134,56999,5
27146,57036,5
27168,57078,5
27189,57111,5
27219,57163,4
27228,57202,5
27247,57242,5
27256,57245,5
27226,57165,4
27190,57120,4
27176,57115,5
27177,57123,6
27184,57162,4
27200,57204,4
27227,57255,5
27248,57303,5
27252,57326,5
27267,57341,5
27266,57345,4
27263,57339,5
27234,57302,5
27208,57266,5
27198,57258,5
27202,57270,4
27198,57251,5
27172,57206,5
27161,57190,5
27171,57207,5
27169,57210,4
27132,57140,5
27088,57024,5
27010,56881,5
26936,56785,5
26929,56768,4
26955,56850,5
27012,56949,5
27066,57056,6
27100,57124,3
27130,57185,5
27154,57217,5
27154,57184,5
27119,57149,5
27101,57103,4
27095,57107,5
27053,57021,5
27010,56909,5
26964,56823,5
26916,56768,4
26884,56773,5
26946,56832,5
26969,56876,5
26939,56783,5
26853,56719,4
26880,56691,5
26874,56713,5
26894,56752,5
26894,56772,9
26923,56774,5
26924,56775,5
26901,56746,5
26908,56701,6
26870,56658,3
26841,56614,5
26841,56612,5
26901,56647,5
26876,56693,4
26901,56737,5
26923,56782,5
26954,56758,5
26903,56722,5
26882,56677,4
26820,56560,5
26790,56464,5
26737,56419,5
26735,56411,5
26749,56439,4
26753,56444,5
26762,56460,5
26755,56469,5
26760,56446,5
26741,56364,4
26719,56373,6
26706,56361,4
26705,56334,5
26682,56245,4
26668,56263,5
26658,56252,5
26661,56259,5
26661,56247,5
26654,56262,4
26661,56272,5
26681,56296,5
26688,56341,5
26677,56266,5
26634,56175,4
26587,56107,5
26579,56144,5
26575,56094,5
26582,56110,5
26584,56107,4
26578,56119,5
26570,56051,5
26553,56034,5
26544,56013,5
26536,55992,4
26508,55926,5
26486,55883,6
26462,55852,4
26456,55851,4
26456,55840,5
26461,55830,5
26457,55835,5
26466,55823,5
26458,55812,4
26454,55801,5
26446,55789,5
26439,55779,5
26425,55753,5
26413,55721,4
26410,55706,5
26389,55685,5
26385,55667,5
26372,55639,5
26356,55601,4
26339,55576,5
26334,55547,5
26319,55526,5
26303,55507,5
26297,55481,4
26283,55456,5
26280,55430,5
26264,55426,6
26256,55401,3
26259,55397,5
26243,55369,5
26230,55335,5
26203,55281,5
26185,55259,4
26172,55228,5
26157,55190,5
26141,55147,5
26132,55134,5
26122,55109,4
26108,55078,5
26089,55057,5
26091,55045,5
26081,55020,5
26070,55004,4
26064,54994,5
26062,54965,5
26044,54953,5
26044,54942,5
26035,54934,5
26034,54927,4
26033,54914,5
26017,54913,5
26021,54900,4
26014,54888,4
26011,54880,5
26019,54879,5
26018,54878,5
26008,54886,4
26017,54892,5
26016,54888,5
26010,54882,5
26013,54888,5
26014,54886,4
26017,54887,5
26020,54882,5
26014,54867,5
26008,54869,5
26001,54860,4
25997,54852,5
25989,54836,5
25987,54828,5
25977,54811,5
25976,54791,4
25967,54784,6
25962,54761,4
25957,54750,5
25941,54733,4
25947,54734,4
25936,54721,5
25933,54710,5
25927,54715,5
25921,54719,4
25928,54708,5
25927,54695,5
25926,54687,5
25896,54686,5
25925,54670,4
25913,54660,5
25909,54654,5
25872,54653,5
25900,54636,5
25892,54628,4
25887,54606,5
25839,54598,5
25883,54594,5
25878,54583,5
25868,54564,4
25873,54563,5
25852,54546,6
25845,54538,4
25845,54530,4
25878,54516,4
25826,54498,5
25824,54483,5
25814,54457,5
25848,54449,4
25798,54445,5
25795,54420,5
25778,54389,5
25783,54360,5
25751,54336,4
25747,54309,5
25733,54295,5
25728,54267,5
25719,54255,5
25710,54259,4
25707,54244,5
25709,54218,5
25706,54243,5
25703,54227,5
25694,54218,4
25694,54171,5
25687,54200,5
25686,54206,5
25689,54207,4
25688,54181,4
25683,54203,5
25680,54203,5
25690,54209,5
25691,54232,4
25690,54204,5
25694,54210,5
25702,54220,5
25702,54271,5
25700,54224,4
25698,54225,5
25705,54233,5
25697,54267,5
25702,54234,5
25697,54234,4
25699,54228,5
25700,54226,5
25695,54214,5
25693,54211,5
25689,54204,5
25690,54195,4
25686,54185,5
25684,54182,5
25683,54183,4
25676,54178,4
25683,54178,5
25684,54183,5
25678,54176,5
25676,54164,4
25667,54169,5
25666,54162,5
25657,54147,5
25664,54144,5
25659,54128,4
25652,54124,5
25650,54119,5
25647,54106,5
25639,54109,5
25639,54099,4
25643,54105,5
25649,54112,5
25651,54111,5
25649,54113,5
25641,54112,4
25648,54107,6
25652,54106,4
25634,54097,5
25632,54100,5
25640,54085,4
25635,54091,5
25632,54094,5
25628,54083,5
25630,54075,4
25624,54069,5
25618,54053,5
25616,54054,5
25612,54048,5
25620,54049,4
25611,54044,5
25613,54032,5
25610,54032,5
25607,54035,5
25604,54034,4
25600,54035,5
25601,54018,5
25595,54014,5
25590,53990,5
25573,53975,4
25570,53952,5
25559,53932,5
25559,53917,5
25551,53904,5
25541,53892,4
25539,53878,5
25527,53860,5
25522,53840,5
25515,53834,4
25507,53820,5
25499,53811,5
25499,53815,5
25496,53812,5
25496,53794,4
25495,53797,5
25493,53798,5
25497,53788,5
25497,53785,5
25494,53794,4
25493,53794,5
25499,53796,5
25502,53794,5
25500,53806,5
25505,53804,4
25500,53815,5
25498,53807,5
25499,53818,5
25502,53810,5
25504,53820,4
25511,53825,5
25513,53839,5
25503,53828,5
25505,53837,4
25491,53821,4
25509,53831,5
25506,53829,5
25510,53840,5
25470,53831,4
25512,53832,5
25508,53835,5
25506,53828,5
25465,53829,5
25499,53809,4
25498,53807,6
25494,53802,4
25497,53790,5
25491,53787,5
25495,53789,6
25491,53793,3
25528,53787,5
25485,53785,5
25485,53785,5
25488,53784,4
25535,53787,5
25492,53787,5
25497,53797,5
25499,53799,4
25514,53813,4
25494,53800,5
25502,53798,5
25488,53800,5
25500,53794,4
25496,53797,5
25490,53798,5
25492,53798,5
25495,53769,5
25484,53789,4
25481,53774,5
25473,53777,6
25478,53722,4
25474,53756,5
25474,53759,5
25471,53746,4
25466,53690,5
25457,53721,5
25453,53702,5
25447,53695,4
25444,53695,5
25429,53682,5
25431,53658,5
25438,53663,4
25429,53702,4
25428,53659,5
25419,53647,5
25419,53653,5
25422,53690,4
25427,53648,5
25415,53629,5
25398,53607,5
25393,53602,5
25384,53562,4
25370,53530,5
25364,53513,5
25355,53490,6
25345,53487,4
25338,53476,4
25335,53452,5
25331,53449,5
25325,53444,5
25327,53439,5
25323,53439,4
25326,53437,5
25322,53433,5
25327,53421,5
25322,53433,5
25324,53424,4
25317,53427,5
25322,53428,5
25320,53428,5
25322,53426,4
25323,53438,5
25327,53440,5
25335,53444,5
25335,53451,5
25334,53459,5
25346,53467,4
25349,53482,5
25357,53503,5
25358,53508,6
25367,53515,3
25366,53527,5
25372,53529,5
25380,53545,5
25386,53566,5
25400,53587,4
25404,53599,5
25407,53606,5
25422,53629,5
25423,53635,5
25436,53652,4
25440,53665,5
25447,53673,5
25447,53686,5
25455,53693,4
25457,53702,5
25465,53707,5
25460,53711,5
25464,53709,5
25471,53727,4
25467,53729,6
25478,53747,4
25475,53754,5
25487,53766,5
25492,53764,6
25492,53778,3
25499,53792,5
25506,53797,5
25509,53816,5
25518,53812,4
25531,53834,5
25532,53833,5
25527,53853,5
25533,53860,5
25551,53885,4
25562,53897,5
25562,53911,5
25561,53918,5
25572,53943,4
25580,53954,5
25586,53958,5
25599,53979,5
25607,53991,5
25612,53992,4
25598,53989,5
25609,53997,6
25613,53995,4
25602,53998,5
25610,54008,4
25608,54007,5
25612,54015,5
25611,54017,5
25619,54010,5
25612,54027,4
25621,54017,5
25611,54020,5
25628,54024,5
25624,54039,7
25634,54041,3
25601,54048,4
25662,54055,5
25644,54072,5
25634,54069,4
25592,54053,4
25631,54040,5
25620,54030,5
25617,54027,5
25607,54017,4
25607,54005,5
25611,54001,5
25605,54001,6
25640,54002,4
25605,54001,4
25613,54008,5
25608,54007,5
25660,54011,5
25626,54009,5
25620,54020,4
25623,54024,5
25660,54040,5
25631,54051,5
25647,54062,5
25643,54078,4
25661,54081,5
25655,54090,5
25654,54109,5
25660,54122,4
25670,54117,4
25687,54152,5
25699,54180,5
25699,54186,5
25708,54152,5
25704,54204,4
25718,54210,5
25712,54218,5
25717,54187,6
25722,54238,3
25729,54248,5
25742,54253,5
25743,54276,5
25745,54287,5
25760,54302,4
25758,54309,5
25772,54362,5
25776,54320,5
25773,54331,5
25770,54339,4
25786,54383,5
25779,54343,5
25783,54342,5
25778,54342,4
25786,54371,4
25786,54359,5
25795,54360,5
25795,54374,5
25802,54386,4
25808,54393,6
25813,54409,4
25824,54437,5
25836,54458,5
25843,54488,4
25865,54518,5
25880,54564,5
25909,54593,5
25917,54617,5
25923,54641,4
25939,54661,5
25946,54679,5
25955,54699,5
25967,54733,5
25980,54744,4
25981,54762,5
25992,54771,5
25994,54781,5
25997,54787,4
26001,54798,4
26015,54813,5
26021,54829,5
26031,54846,5
26039,54881,4
26050,54892,5
26065,54911,6
26072,54929,4
26079,54953,5
26089,54970,4
26092,54986,5
26108,55011,5
26119,55019,5
26130,55045,5
26140,55052,4
26135,55066,5
26136,55068,5
26141,55068,5
26139,55064,5
26146,55071,4
26151,55072,5
26147,55097,5
26157,55094,5
26157,55099,4
26164,55112,4
26172,55118,5
26172,55134,5
26185,55147,5
26198,55172,4
26203,55190,5
26215,55221,5
26237,55248,6
26261,55289,4
26262,55306,4
26275,55325,5
26288,55356,5
26309,55385,5
26320,55431,5
26339,55463,4
26356,55494,5
26374,55534,5
26387,55572,5
26407,55588,5
26408,55615,4
26427,55616,5
26440,55639,5
26448,55670,5
26459,55682,5
26469,55696,4
26481,55723,5
26471,55739,5
26488,55739,5
26485,55761,5
26494,55768,4
26496,55766,5
26497,55771,5
26500,55761,5
26495,55762,4
26482,55748,5
26477,55732,5
26480,55735,5
26472,55738,5
26486,55738,4
26480,55740,5
26477,55749,5
26454,55751,5
26485,55751,5
26487,55751,4
26493,55760,5
26461,55762,5
26498,55779,5
26500,55774,5
26502,55791,4
26494,55800,5
26527,55816,5
26529,55815,5
26532,55824,4
26552,55839,6
26534,55855,4
26544,55843,5
26546,55849,5
26597,55869,4
26547,55872,5
26555,55876,5
26556,55879,5
26582,55887,5
26562,55898,4
26562,55898,5
26571,55912,5
26573,55899,5
26574,55898,5
26564,55912,4
26568,55909,5
26579,55891,5
26572,55923,5
26570,55918,5
26577,55908,4
26568,55863,5
26549,55877,5
26557,55873,5
26554,55858,4
26546,55802,4
26537,55841,6
26536,55827,4
26537,55829,5
26524,55817,4
26529,55814,5
26515,55820,5
26523,55825,5
26524,55858,5
26525,55818,4
26515,55818,5
26532,55818,5
26532,55867,5
26526,55833,5
26533,55836,4
26525,55833,5
26536,55862,5
26534,55833,5
26537,55832,5
26537,55836,4
26528,55843,5
26526,55834,5
26526,55835,6
26523,55835,3
26538,55843,4
26523,55832,5
26529,55825,5
26526,55816,5
26516,55806,4
26509,55794,5
26516,55792,5
26504,55780,5
26504,55782,5
26495,55756,4
26490,55757,5
26488,55739,5
26486,55722,5
26467,55694,5
26460,55693,4
26446,55673,5
26439,55657,5
26435,55640,5
26431,55630,5
26419,55615,5
26403,55589,4
26398,55579,5
26396,55569,5
26389,55556,6
26384,55542,3
26378,55531,5
26374,55522,5
26363,55513,5
26365,55505,4
26363,55491,5
26352,55493,5
26345,55482,5
26346,55469,5
26345,55467,4
26338,55470,5
26334,55454,5
26323,55434,5
26321,55422,5
26313,55404,4
26295,55390,5
26301,55386,5
26291,55372,5
26279,55357,5
26285,55339,4
26264,55320,6
26258,55302,4
26255,55282,5
26239,55268,4
26232,55260,6
26238,55262,3
26233,55254,5
26220,55250,5
26221,55240,4
26217,55235,5
26212,55226,5
26203,55204,5
26189,55172,5
26169,55132,4
26158,55110,5
26143,55078,5
26129,55042,5
26118,55015,5
26102,55008,4
26103,54987,5
26081,54956,5
26075,54942,5
26067,54937,5
26065,54921,4
26068,54921,5
26069,54920,6
26067,54928,4
26067,54925,4
26064,54915,4
26058,54919,5
26069,54922,5
26059,54908,5
26065,54920,4
26048,54909,5
26060,54897,5
26052,54906,5
26050,54902,5
26031,54892,4
26052,54905,5
26058,54914,5
26064,54909,5
26033,54924,5
26070,54925,4
26068,54921,5
26070,54924,5
26036,54917,5
26066,54915,5
26058,54921,4
26067,54923,5
26082,54917,5
26057,54921,6
26065,54925,3
26062,54913,4
26100,54913,5
26059,54911,5
26058,54912,5
26061,54918,4
26101,54923,5
26068,54928,5
26070,54928,5
26072,54936,5
26084,54943,4
26084,54951,5
26085,54963,5
26089,54979,5
26088,54983,5
26102,55010,4
26108,55013,5
26111,55020,5
26107,54985,5
26118,55030,5
26119,55045,5
26130,55058,4
26139,55039,5
26154,55117,5
26168,55143,5
26176,55161,4
26193,55166,5
26193,55169,5
26197,55176,5
26187,55163,4
26184,55186,5
26185,55157,5
26193,55170,5
26202,55184,5
26189,55227,4
26176,55134,5
26151,55076,5
26135,55065,5
26142,55093,5
26158,55096,4
26164,55117,5
26171,55110,5
26127,55015,5
26022,54798,5
25939,54655,4
25924,54638,6
25931,54654,4
25951,54712,5
25998,54795,4
26027,54809,4
25959,54656,5
25874,54510,5
25832,54427,5
25823,54428,4
25823,54434,5
25776,54283,5
25669,54052,5
25533,53767,5
25455,53667,4
25445,53674,5
25476,53719,5
25494,53763,5
25531,53817,5
25530,53821,4
25521,53826,5
25511,53792,5
25486,53717,5
25427,53608,5
25397,53574,4
25439,53681,5
25547,53936,6
25644,54064,4
25614,53978,4
25589,53965,4
25607,53992,5
25619,54011,5
25596,53967,5
25592,53922,4
25559,53862,5
25526,53797,5
25496,53763,5
25512,53817,5
25571,53946,4
25612,54003,5
25592,53934,5
25562,53850,5
25532,53818,5
25550,53877,4
25588,53955,5
25623,54051,5
25681,54164,5
25680,54112,5
25622,53974,4
25594,53955,5
25587,53918,5
25552,53868,6
25547,53887,3
25569,53908,4
25564,53875,5
25535,53835,5
25490,53712,5
25465,53687,4
25471,53717,5
25515,53809,5
25535,53827,5
25519,53794,5
25504,53755,4
25492,53727,5
25475,53729,5
25496,53784,5
25538,53875,5
25562,53895,4
25545,53824,5
25432,53607,5
25388,53566,5
25396,53583,5
25416,53609,5
25451,53679,4
25458,53694,5
25458,53698,5
25468,53716,5
25464,53693,4
25478,53718,5
25470,53712,5
25444,53653,5
25407,53581,4
25398,53559,5
25377,53596,5
25467,53747,5
25534,53883,5
25570,53893,4
25469,53760,5
25453,53662,5
25444,53666,5
25465,53727,5
25480,53841,4
25590,53982,5
25630,54051,6
25658,54104,4
25678,54089,5
25651,54088,4
25662,54110,6
25678,54147,4
25740,54188,5
25726,54248,5
25753,54276,4
25767,54316,5
25815,54343,5
25794,54367,5
25804,54374,4
25810,54390,5
25813,54397,5
25821,54399,5
25813,54417,5
25821,54431,4
25830,54414,5
25832,54421,5
25823,54433,5
25836,54440,5
25833,54405,4
25848,54442,5
25833,54450,5
25841,54445,5
25840,54407,5
25837,54446,4
25838,54456,5
25842,54464,6
25850,54448,4
25840,54461,5
25845,54473,5
25838,54458,4
25836,54476,5
25834,54453,5
25827,54440,4
25827,54434,5
25829,54471,5
25821,54419,5
25826,54425,5
25826,54429,4
25828,54454,5
25821,54415,5
25820,54401,5
25828,54415,5
25807,54420,4
25816,54399,5
25815,54395,5
25805,54381,5
25803,54383,5
25799,54369,4
25801,54372,5
25798,54369,5
25788,54368,5
25790,54360,5
25798,54366,4
25802,54368,5
25796,54372,5
25795,54368,5
25793,54369,4
25799,54369,4
25805,54375,5
25796,54363,5
25790,54355,5
25788,54349,4
25783,54326,5
25776,54316,5
25764,54309,5
25767,54286,5
25753,54278,4
25746,54274,5
25748,54261,5
25746,54260,5
25736,54251,5
25736,54252,5
25740,54246,4
25741,54235,5
25738,54232,5
25730,54228,5
25726,54213,4
25727,54228,5
25730,54230,5
25737,54216,5
25720,54198,4
25705,54178,4
25704,54147,5
25683,54142,5
25671,54123,5
25673,54107,4
25664,54093,5
25669,54096,5
25672,54097,5
25663,54085,5
25666,54095,4
25658,54086,5
25663,54089,5
25656,54083,4
25661,54090,5
25655,54090,4
25660,54099,6
25664,54090,3
25667,54101,5
25670,54099,5
25670,54103,4
25667,54102,5
25676,54102,5
25670,54107,5
25671,54112,4
25674,54112,4
25673,54119,5
25677,54125,5
25676,54126,5
25689,54125,4
25685,54132,5
25683,54120,5
25675,54131,5
25687,54127,5
25686,54120,4
25679,54124,5
25681,54131,5
25678,54127,6
25677,54122,4
25673,54127,4
25683,54123,5
25678,54120,5
25675,54113,5
25668,54108,5
25674,54095,4
25661,54082,5
25652,54070,5
25641,54066,5
25649,54047,4
25637,54038,4
25631,54032,5
25595,54027,5
25629,54023,5
25620,54020,4
25622,54017,5
25578,54002,5
25624,54019,5
25623,54021,5
25623,54025,5
25613,54025,4
25625,54022,5
25625,54026,5
25626,54021,6
25660,54021,3
25625,54015,5
25624,54019,5
25623,54012,5
25672,54004,5
25616,54004,4
25625,54014,5
25619,54014,5
25649,54012,5
25617,54011,5
25622,54019,4
25623,54007,5
25622,54004,5
25614,54008,5
25615,54007,4
25615,54001,5
25607,53966,5
25609,53980,5
25592,53971,5
25587,53971,4
25582,53916,6
25590,53951,4
25577,53937,5
25582,53931,5
25580,53887,6
25584,53921,3
25574,53925,5
25566,53920,5
25564,53912,5
25565,53906,4
25557,53888,5
25556,53886,5
25555,53916,5
25551,53874,5
25552,53870,4
25549,53849,5
25533,53875,5
25519,53801,5
25509,53785,4
25505,53767,5
25488,53768,5
25483,53730,5
25479,53721,5
25481,53710,4
25460,53694,5
25452,53681,6
25453,53673,4
25449,53672,5
25454,53680,4
25455,53671,5
25448,53665,5
25445,53669,5
25445,53673,5
25460,53687,4
25469,53694,5
25467,53705,5
25466,53714,5
25471,53715,5
25473,53719,4
25487,53729,5
25482,53747,5
25485,53754,5
25501,53758,4
25504,53773,4
25517,53805,5
25519,53816,5
25534,53847,5
25541,53865,4
25563,53871,5
25560,53905,5
25571,53914,6
25575,53931,4
25587,53952,4
25592,53952,5
25586,53960,5
25601,53969,5
25606,53985,5
25608,53984,4
25613,53985,5
25613,53992,5
25621,54000,5
25611,53987,5
25612,53987,4
25615,54001,5
25621,54007,5
25627,54013,5
25626,54021,4
25627,54024,4
25636,54045,5
25643,54052,5
25650,54059,5
25651,54066,5
25652,54076,4
25656,54079,5
25665,54098,5
25660,54105,6
25662,54111,3
25675,54112,5
25667,54121,5
25685,54130,5
25677,54141,5
25694,54154,4
25694,54171,5
25702,54176,5
25700,54177,5
25719,54192,5
25712,54198,4
25710,54201,5
25720,54212,5
25718,54213,5
25716,54224,4
25726,54222,4
25735,54217,5
25723,54229,5
25726,54234,5
25730,54213,4
25723,54222,6
25734,54226,4
25725,54228,5
25731,54231,5
25728,54218,4
25728,54229,5
25730,54231,5
25727,54228,5
25729,54232,5
25733,54237,4
25734,54238,5
25738,54238,5
25738,54244,5
25712,54245,5
25736,54241,4
25732,54244,5
25745,54252,5
25706,54257,5
25737,54258,4
25736,54248,4
25736,54246,5
25707,54240,5
25729,54226,5
25718,54221,4
25723,54199,5
25739,54199,6
25719,54190,4
25711,54187,5
25706,54198,4
25761,54196,5
25719,54202,5
25722,54209,5
25728,54226,5
25761,54234,4
25737,54241,5
25737,54251,5
25744,54253,5
25773,54268,5
25753,54272,4
25762,54283,5
25763,54288,5
25767,54281,5
25777,54308,4
25777,54327,4
25783,54332,5
25787,54311,5
25797,54364,5
25808,54385,5
25806,54397,4
25829,54374,5
25826,54429,6
25839,54431,4
25830,54436,4
25821,54430,5
25837,54437,5
25838,54445,5
25831,54443,5
25825,54470,4
25840,54446,5
25839,54446,5
25842,54441,5
25832,54493,5
25831,54445,4
25839,54442,5
25841,54449,5
25839,54488,5
25846,54463,4
25851,54473,4
25855,54473,5
25850,54489,5
25859,54493,5
25861,54498,6
25864,54506,3
25869,54502,5
25875,54519,5
25891,54538,5
25891,54533,4
25895,54549,5
25892,54558,5
25898,54584,5
25903,54591,5
25918,54610,4
25927,54626,5
25932,54634,5
25944,54637,5
25945,54637,5
25942,54646,4
25941,54649,5
25940,54649,5
25934,54650,5
25943,54649,4
25946,54661,4
25938,54645,5
25933,54654,5
25944,54648,5
25942,54664,4
25948,54651,6
25946,54664,4
25955,54672,5
25954,54683,5
25963,54692,4
25964,54700,5
25966,54710,5
25983,54728,5
25988,54740,5
25985,54754,4
25995,54768,5
26004,54771,5
25998,54772,5
25989,54754,5
26002,54760,4
25995,54755,5
25985,54750,5
25989,54750,5
25986,54754,5
25988,54751,4
25997,54748,5
25994,54757,5
25998,54756,5
26006,54767,4
25996,54768,5
26003,54778,6
26007,54794,4
26023,54811,5
26019,54829,4
26037,54840,5
26043,54851,5
26044,54860,5
26058,54870,5
26063,54893,4
26066,54903,5
26072,54921,5
26075,54938,5
26097,54961,5
26109,54978,4
26104,55000,5
26125,55010,5
26121,55034,8
26143,55045,2
26144,55051,4
26147,55068,5
26151,55078,5
26166,55097,5
26181,55126,4
26194,55148,4
26197,55169,5
26209,55178,5
26218,55207,5
26221,55205,4
26220,55211,5
26224,55204,5
26223,55215,5
26230,55214,5
26218,55220,4
26208,55227,5
26232,55227,5
26244,55244,5
26248,55255,5
26213,55272,4
26267,55301,5
26267,55313,5
26278,55332,5
26255,55358,5
26304,55376,5
26319,55396,4
26326,55434,5
26348,55464,5
26363,55480,5
26379,55512,3
26386,55528,5
26428,55545,5
26403,55556,5
26409,55576,4
26411,55590,5
26473,55599,5
26425,55613,5
26436,55617,5
26441,55632,4
26473,55642,5
26448,55656,5
26446,55669,5
26454,55672,5
26467,55686,4
26471,55690,5
26465,55708,5
26477,55713,5
26480,55692,5
26475,55713,4
26483,55720,6
26486,55721,4
26484,55696,5
26481,55734,4
26489,55723,4
26470,55701,5
26456,55638,5
26451,55672,5
26439,55641,5
26439,55627,4
26432,55622,5
26425,55596,5
26422,55583,5
26414,55586,4
26410,55612,5
26390,55552,5
26395,55543,5
26393,55541,5
26380,55588,4
26387,55530,5
26387,55528,5
26375,55527,5
26377,55539,5
26384,55517,4
26378,55515,5
26383,55520,6
26380,55527,4
26379,55519,5
26376,55535,4
26386,55533,5
26387,55527,5
26385,55524,5
26388,55533,4
26389,55545,5
26392,55539,5
26396,55536,5
26387,55534,5
26387,55535,4
26375,55522,5
26372,55522,5
26374,55517,5
26368,55508,5
26368,55505,4
26365,55499,5
26363,55476,5
26351,55465,5
26348,55465,5
26333,55435,4
26322,55422,5
26316,55401,5
26307,55396,6
26314,55379,4
26300,55377,4
26299,55355,5
26284,55344,5
26288,55325,5
26279,55319,4
26272,55311,4
26264,55299,5
26262,55291,5
26259,55297,5
26256,55295,4
26265,55294,5
26261,55298,5
26263,55299,5
26262,55299,5
26254,55300,4
26262,55297,5
26267,55290,5
26249,55282,5
26251,55280,5
26251,55260,5
26248,55260,4
26237,55253,5
26234,55248,5
26241,55245,6
26231,55229,3
26228,55223,5
26223,55228,5
26222,55222,5
26224,55220,4
26224,55220,4
26227,55225,5
26226,55234,5
26223,55221,5
26223,55212,4
26217,55201,5
26204,55168,5
26187,55150,5
26185,55132,5
26179,55113,4
26173,55113,5
26164,55102,5
26162,55097,5
26163,55080,5
26156,55086,4
26159,55085,6
26155,55092,4
26159,55081,5
26164,55092,5
26156,55100,4
26167,55108,5
26161,55108,5
26166,55105,5
26164,55109,4
26169,55110,4
26175,55115,5
26175,55108,5
26166,55119,5
26169,55125,4
26180,55128,5
26161,55149,5
26190,55163,5
26200,55181,5
26204,55189,4
26180,55208,5
26222,55224,5
26223,55234,5
26232,55254,5
26210,55267,4
26254,55296,5
26271,55319,6
26281,55339,4
26315,55363,5
26311,55390,4
26308,55372,5
26308,55367,5
26344,55353,5
26295,55344,5
26292,55342,4
26291,55330,5
26305,55265,5
26201,55130,5
26153,55069,4
26165,55083,5
26197,55125,5
26168,55078,5
26143,55047,5
26139,55038,4
26143,55036,5
26141,55049,5
26141,55045,5
26132,55021,5
26127,54973,4
26126,54988,5
26105,54914,5
26009,54706,6
25913,54500,4
25846,54422,4
25819,54391,5
25840,54483,5
25893,54520,5
25836,54337,5
25585,53774,5
25309,53272,4
25175,53106,5
25158,53062,5
25175,53143,4
25262,53338,4
25373,53578,5
25426,53623,5
25394,53525,5
25281,53267,4
25228,53268,5
25280,53338,5
25330,53462,5
25356,53478,5
25342,53469,5
25276,53256,4
25160,53042,5
25135,53040,5
25169,53127,5
25214,53224,4
25220,53210,5
25204,53172,5
25163,53053,5
25108,52957,5
25057,52871,4
25021,52778,5
24999,52766,5
25048,52924,5
25141,53110,4
25259,53360,4
25401,53691,5
25523,53852,5
25517,53801,5
25440,53601,4
25314,53382,5
25272,53350,5
25300,53422,5
25367,53578,5
25410,53622,4
25366,53496,6
25321,53432,4
25338,53504,5
25435,53772,5
25627,54138,4
25706,54221,5
25639,54042,5
25553,53903,5
25499,53790,5
25464,53710,4
25441,53696,5
25466,53765,5
25531,53932,5
25619,54087,5
25641,54115,4
25625,54030,5
25508,53784,5
25419,53591,5
25376,53539,4
25378,53564,5
25381,53595,5
25423,53670,5
25437,53703,5
25460,53758,4
25516,53892,5
25610,54087,6
25694,54252,4
25724,54214,5
25540,53758,4
25308,53366,5
25242,53296,5
25250,53335,5
25309,53464,5
25389,53653,4
25484,53832,5
25527,53883,5
25527,53856,5
25526,53865,5
25499,53787,4
25447,53709,5
25442,53714,5
25486,53802,5
25549,53948,4
25588,53982,4
25590,54003,5
25606,54051,5
25643,54111,5
25646,54081,4
25547,53871,5
25484,53772,5
25491,53814,5
25517,53863,5
25539,53912,4
25568,53978,5
25603,54032,5
25591,54008,5
25577,53990,5
25585,53992,4
25581,53993,5
25593,54011,5
25588,54019,5
25584,53982,5
25532,53848,4
25442,53683,5
25361,53584,5
25365,53512,5
25338,53477,4
25340,53482,4
25309,53531,5
25378,53570,5
25385,53588,5
25386,53595,5
25373,53607,4
25404,53628,5
25407,53634,5
25406,53650,5
25445,53664,4
25408,53653,5
25417,53640,5
25398,53608,5
25425,53577,5
25365,53542,4
25350,53497,5
25329,53459,5
25343,53421,5
25283,53385,5
25285,53386,4
25278,53366,5
25287,53381,5
25282,53392,5
25280,53384,5
25282,53394,4
25283,53366,5
25273,53370,5
25273,53369,5
25277,53360,4
25267,53293,6
25244,53301,4
25235,53286,5
25225,53261,5
25210,53180,4
25197,53215,5
25191,53188,5
25174,53162,5
25168,53121,5
25148,53118,4
25137,53101,5
25150,53097,5
25138,53123,5
25130,53085,5
25129,53082,4
25138,53095,5
25144,53148,5
25142,53104,5
25148,53106,5
25155,53121,4
25165,53168,5
25155,53133,5
25146,53108,5
25130,53076,4
25115,53042,5
25095,52998,6
25080,52958,3
25060,52920,5
25050,52886,4
25026,52873,5
25015,52840,5
25004,52826,5
24999,52805,5
24990,52794,4
24987,52791,5
24984,52784,5
24984,52774,5
24978,52781,5
24976,52760,4
24973,52765,5
24973,52767,5
24981,52770,5
24979,52769,5
24979,52765,4
24980,52754,5
24965,52738,5
24952,52712,6
24941,52697,3
24936,52666,5
24917,52648,5
24893,52593,5
24882,52561,5
24861,52539,4
24847,52514,5
24844,52500,5
24834,52472,5
24818,52442,5
24813,52414,4
24800,52405,5
24781,52384,5
24788,52371,5
24785,52367,5
24769,52345,4
24773,52344,5
24768,52344,5
24759,52331,5
24753,52299,5
24738,52269,5
24727,52249,4
24720,52229,5
24707,52225,5
24705,52203,6
24705,52202,3
24697,52187,5
24688,52167,5
24677,52147,5
24666,52114,4
24660,52089,5
24646,52075,5
24641,52059,6
24636,52058,4
24637,52055,4
24635,52054,5
24628,52052,5
24626,52047,5
24623,52038,5
24624,52031,4
24633,52041,5
24617,52041,5
24627,52034,5
24625,52029,5
24604,51988,4
24586,51954,6
24573,51924,4
24562,51904,5
24557,51888,4
24551,51866,6
24536,51851,3
24528,51836,5
24522,51819,5
24518,51813,4
24520,51814,5
24521,51822,5
24518,51819,5
24519,51798,5
24509,51789,4
24495,51773,5
24495,51775,5
24496,51771,5
24477,51783,5
24508,51787,4
24507,51791,5
24510,51789,5
24473,51788,5
24513,51779,5
24498,51766,4
24491,51752,5
24442,51732,6
24469,51699,4
24456,51692,4
24458,51681,4
24472,51675,5
24460,51687,5
24467,51703,5
24471,51709,4
24517,51716,5
24475,51707,5
24478,51717,5
24474,51723,5
24523,51724,4
24488,51726,5
24473,51723,5
24475,51709,5
24483,51709,5
24466,51678,4
24459,51671,5
24453,51644,5
24447,51614,5
24424,51604,5
24411,51596,4
24413,51570,5
24399,51531,5
24405,51547,6
24402,51552,4
24395,51550,4
24390,51504,5
24392,51536,5
24392,51518,5
24386,51512,4
24381,51487,5
24373,51492,5
24372,51478,5
24366,51466,5
24364,51494,4
24362,51473,5
24360,51463,5
24360,51462,5
24366,51512,5
24361,51467,4
24354,51467,5
24361,51463,5
24360,51508,5
24360,51461,5
24358,51463,5
24352,51471,4
24364,51481,5
24363,51471,5
24363,51472,6
24368,51482,3
24375,51480,5
24370,51479,5
24365,51478,5
24373,51475,4
24360,51480,4
24368,51476,5
24356,51473,5
24368,51486,5
24360,51490,4
24371,51473,5
24347,51446,5
24346,51422,5
24327,51395,5
24316,51374,4
24304,51364,5
24315,51376,5
24321,51384,5
24325,51396,5
24321,51403,4
24334,51427,6
24348,51450,4
24344,51420,5
24320,51355,5
24281,51282,4
24247,51230,5
24243,51250,5
24249,51248,5
24242,51217,4
24224,51185,4
24208,51138,5
24163,51057,5
24139,51031,5
24158,51063,4
24166,51081,5
24167,51061,5
24158,51054,5
24178,51096,5
24210,51193,4
24264,51308,5
24311,51402,5
24328,51410,5
24318,51357,5
24268,51282,4
24233,51175,5
24186,51102,6
24188,51143,4
24215,51225,5
24243,51272,4
24279,51304,5
24273,51288,5
24258,51249,5
24241,51244,4
24248,51236,4
24227,51184,5
24208,51162,5
24200,51171,5
24210,51190,4
24238,51263,5
24271,51314,5
24252,51258,5
24226,51199,5
24209,51151,4
24188,51123,5
24159,51047,5
24105,50923,5
24052,50831,5
24048,50854,4
24093,50976,5
24181,51147,5
24228,51208,6
24212,51184,4
24190,51137,4
24164,51085,5
24170,51088,5
24179,51115,5
24197,51169,5
24230,51266,4
24279,51331,5
24256,51261,5
24237,51209,5
24238,51242,4
24246,51306,4
24294,51379,5
24333,51424,5
24319,51412,5
24294,51401,4
24307,51368,5
24305,51356,5
24292,51339,5
24233,51295,5
24273,51320,5
24283,51332,4
24259,51249,5
24206,51196,5
24242,51242,5
24257,51291,4
24283,51351,5
24337,51372,5
24299,51356,5
24297,51365,5
24309,51402,4
24369,51435,5
24337,51452,5
24348,51476,5
24352,51498,4
24386,51510,4
24369,51514,5
24372,51532,5
24386,51556,5
24405,51576,4
24422,51610,5
24427,51640,6
24437,51674,4
24455,51685,5
24455,51715,4
24456,51708,7
24461,51724,3
24485,51685,5
24470,51728,5
24483,51735,4
24483,51748,5
24477,51714,5
24488,51754,5
24478,51759,5
24489,51764,4
24487,51763,5
24488,51767,5
24501,51781,5
24495,51779,4
24497,51817,4
24503,51795,5
24503,51786,5
24506,51804,5
24508,51850,4
24506,51787,5
24499,51785,5
24492,51775,5
24488,51792,5
24491,51758,4
24485,51758,5
24480,51755,6
24483,51744,4
24472,51730,5
24466,51718,4
24463,51711,5
24461,51702,5
24467,51706,5
24469,51707,5
24457,51706,4
24456,51691,5
24445,51676,5
24437,51661,5
24444,51656,5
24441,51649,4
24435,51650,5
24436,51653,5
24441,51661,5
24439,51660,4
24437,51669,5
24447,51673,5
24456,51677,5
24450,51692,5
24462,51698,4
24458,51708,5
24463,51712,5
24474,51726,5
24481,51739,5
24490,51755,4
24490,51766,5
24492,51770,5
24499,51773,5
24494,51776,5
24491,51777,4
24484,51777,5
24499,51775,5
24498,51784,5
24507,51783,5
24503,51794,4
24510,51802,5
24514,51798,5
24514,51826,5
24520,51838,4
24530,51848,4
24532,51852,5
24539,51860,5
24533,51842,5
24521,51844,5
24530,51845,4
24523,51841,5
24530,51842,5
24534,51853,5
24534,51854,4
24538,51867,5
24553,51878,5
24548,51893,5
24559,51908,5
24571,51928,4
24580,51936,5
24582,51945,5
24588,51966,5
24607,51999,5
24617,52024,4
24623,52025,5
24620,52031,5
24617,52036,5
24618,52045,4
24625,52048,4
24624,52052,6
24623,52049,4
24629,52041,5
24617,52044,4
24619,52024,7
24615,52024,3
24611,52017,5
24608,52013,5
24599,52007,4
24607,51998,5
24601,52002,5
24607,51990,5
24600,51990,5
24591,51964,4
24578,51957,5
24584,51963,5
24576,51958,5
24581,51952,5
24585,51950,4
24561,51952,5
24581,51937,5
24581,51933,5
24565,51922,5
24524,51909,4
24551,51894,5
24548,51877,6
24537,51869,4
24497,51857,4
24533,51839,5
24524,51821,5
24517,51817,5
24525,51811,5
24516,51816,4
24516,51811,5
24518,51817,5
24561,51813,5
24521,51822,5
24519,51818,4
24513,51819,5
24562,51814,5
24516,51809,5
24513,51804,5
24514,51811,4
24522,51810,5
24503,51800,5
24519,51788,5
24504,51782,5
24510,51774,4
24494,51775,5
24498,51772,5
24491,51776,6
24494,51747,3
24493,51777,4
24492,51766,5
24492,51768,5
24496,51715,5
24485,51750,4
24480,51750,5
24484,51746,5
24485,51707,5
24473,51726,5
24464,51713,5
24462,51702,4
24456,51704,5
24449,51681,5
24445,51673,5
24444,51670,4
24442,51714,5
24447,51661,5
24441,51652,5
24435,51659,5
24439,51697,5
24435,51652,4
24434,51650,5
24435,51653,5
24444,51662,6
24440,51650,3
24436,51650,5
24427,51641,5
24435,51646,5
24428,51644,4
24431,51654,5
24437,51647,5
24442,51649,5
24440,51657,5
24432,51656,4
24433,51638,5
24420,51620,5
24415,51615,5
24415,51606,5
24402,51589,4
24398,51581,5
24388,51572,5
24387,51563,5
24387,51557,5
24381,51546,4
24378,51545,6
24381,51532,4
24368,51526,5
24366,51520,5
24374,51520,4
24376,51521,5
24368,51514,5
24371,51514,5
24365,51517,4
24380,51511,5
24364,51512,5
24367,51505,5
24351,51493,5
24353,51477,4
24346,51470,5
24337,51459,5
24340,51435,5
24333,51427,5
24324,51419,4
24318,51401,5
24316,51403,5
24312,51397,5
24312,51392,5
24314,51392,4
24302,51381,9
24310,51380,2
24304,51382,4
24302,51362,5
24315,51386,4
24300,51396,5
24302,51389,5
24314,51387,5
24307,51390,4
24304,51386,5
24307,51381,5
24301,51376,5
24306,51374,5
24297,51370,4
24298,51366,5
24297,51365,5
24298,51363,5
24297,51364,5
24296,51376,4
24303,51376,5
24303,51369,5
24292,51364,5
24293,51362,5
24297,51360,4
24296,51353,5
24289,51349,5
24288,51340,6
24281,51328,4
24287,51336,4
24280,51335,5
24271,51322,5
24273,51309,5
24264,51294,4
24269,51284,5
24250,51285,5
24255,51281,5
24252,51278,5
24252,51267,4
24253,51253,5
24244,51251,5
24224,51236,5
24235,51221,5
24229,51230,4
24227,51230,5
24193,51218,5
24234,51222,5
24229,51223,5
24236,51227,5
24186,51229,4
24230,51233,5
24224,51232,5
24227,51232,5
24220,51232,4
24227,51235,5
24222,51227,5
24230,51225,5
24253,51217,4
24234,51208,4
24228,51211,5
24225,51212,5
24267,51220,5
24219,51210,4
24213,51199,5
24215,51194,5
24243,51187,5
24214,51186,5
24202,51169,4
24201,51171,5
24216,51161,5
24199,51170,5
24198,51162,5
24202,51167,4
24203,51140,6
24193,51150,4
24191,51141,5
24185,51127,5
24177,51082,4
24178,51116,5
24166,51102,5
24179,51101,5
24169,51054,4
24167,51099,4
24169,51095,5
24169,51092,5
24154,51088,5
24158,51072,4
24152,51063,5
24151,51040,5
24143,51064,5
24125,51018,5
24122,51006,4
24129,50988,5
24117,51031,5
24118,50980,5
24112,50974,5
24112,50968,4
24106,50998,5
24118,50989,6
24110,50990,4
24118,50999,5
24122,51007,4
24126,51011,5
24137,51016,5
24132,51024,5
24137,51023,5
24131,51015,4
24140,51020,5
24127,51020,5
24135,51014,5
24121,51008,4
24119,51010,5
24128,51015,5
24129,51012,5
24133,51025,5
24135,51030,4
24138,51036,5
24143,51042,5
24143,51034,5
24139,51034,5
24140,51035,4
24135,51039,5
24141,51043,5
24138,51035,5
24141,51029,5
24145,51032,4
24138,51022,5
24131,51028,5
24128,51020,5
24134,51013,5
24119,51010,4
24126,51009,5
24123,50994,5
24117,51003,5
24125,50993,4
24117,50997,4
24122,50990,5
24113,50994,5
24119,50988,5
24121,50995,4
24119,50982,5
24113,50989,5
24121,50987,5
24120,50987,5
24118,50992,5
24119,50990,4
24118,50994,5
24107,50981,5
24118,50987,5
24115,50985,4
24119,50991,5
24120,50991,5
24132,50994,5
24122,51007,5
24124,51009,4
24121,51020,5
24131,51026,5
24125,51026,5
24131,51029,4
24133,51016,4
24123,51009,5
24128,50992,5
24121,50998,5
24118,50980,4
24121,50977,5
24113,50982,5
24110,50976,5
24111,50977,5
24109,50969,4
24098,50965,6
24103,50964,4
24115,50968,5
24104,50970,5
24102,50974,4
24108,50961,5
24102,50949,5
24095,50945,5
24100,50945,5
24099,50941,4
24094,50941,5
24095,50931,5
24090,50931,5
24078,50914,4
24079,50906,4
24074,50896,5
24073,50892,5
24039,50899,5
24070,50877,4
24060,50885,5
24065,50877,5
24019,50885,5
24063,50879,5
24054,50864,4
24062,50870,5
24028,50876,5
24063,50873,5
24064,50875,5
24073,50889,4
24098,50899,5
24070,50903,5
24069,50902,5
24077,50910,5
24125,50918,4
24074,50901,5
24077,50910,5
24080,50900,5
24114,50906,5
24081,50910,4
24083,50924,5
24080,50929,5
24102,50934,5
24091,50941,4
24093,50936,4
24096,50945,5
24092,50937,5
24097,50951,6
24090,50938,3
24097,50943,5
24094,50916,5
24096,50938,5
24097,50933,5
24095,50942,4
24092,50895,5
24092,50924,5
24093,50936,5
24090,50930,5
24093,50921,4
24084,50928,5
24086,50933,5
24090,50920,5
24089,50948,5
24083,50908,4
24077,50908,5
24074,50902,5
24077,50947,5
24065,50891,4
24068,50888,5
24060,50883,4
24063,50925,5
24070,50890,5
24070,50886,6
24069,50884,3
24073,50896,5
24072,50884,5
24070,50885,5
24067,50879,4
24065,50890,5
24068,50886,5
24068,50891,5
24072,50886,5
24061,50881,4
24064,50886,5
24061,50873,5
24055,50865,5
24051,50859,5
24052,50858,4
24044,50841,5
24038,50836,5
24049,50835,5
24037,50834,4
24042,50831,4
24035,50825,6
24040,50824,4
24036,50816,5
24032,50801,4
24021,50787,7
24021,50785,3
24014,50775,5
24015,50766,5
24009,50757,4
24015,50765,5
24009,50748,5
23998,50741,5
23994,50735,5
23991,50733,4
23991,50722,5
23988,50710,5
23983,50711,5
23976,50688,5
23970,50690,4
23970,50676,5
23963,50662,5
23965,50650,5
23962,50647,4
23965,50651,4
23961,50655,5
23957,50651,6
23965,50661,4
23965,50662,4
23963,50651,5
23960,50654,5
23966,50648,5
23953,50649,5
23962,50656,4
23962,50644,5
23959,50636,5
23951,50641,5
23949,50640,5
23955,50643,4
23951,50640,5
23954,50628,5
23957,50635,5
23953,50630,5
23949,50627,4
23948,50629,5
23946,50620,5
23939,50630,5
23950,50624,5
23950,50616,4
23943,50621,5
23943,50619,5
23937,50613,6
23933,50599,3
23935,50590,5
23923,50579,5
23920,50579,5
23926,50580,5
23923,50574,4
23910,50582,5
23908,50571,5
23914,50559,5
23923,50558,5
23924,50565,4
23914,50554,5
23914,50563,5
23917,50559,5
23917,50562,5
23899,50561,4
23920,50566,5
23928,50584,5
23924,50580,5
23892,50591,5
23924,50599,5
23931,50598,4
23935,50600,5
23907,50612,5
23947,50619,6
23945,50628,3
23953,50634,5
23967,50644,5
23953,50644,5
23954,50649,4
23960,50659,5
23999,50656,5
23969,50664,5
23966,50674,5
23970,50694,4
24017,50673,5
23971,50678,5
23971,50677,5
23966,50684,5
23986,50681,4
23974,50685,5
23974,50695,5
23972,50702,5
23980,50695,5
23984,50702,4
23978,50711,6
23984,50705,4
23982,50679,5
23982,50710,4
23981,50709,4
23981,50705,5
23983,50660,5
23975,50698,5
23978,50696,5
23971,50687,4
23969,50653,5
23965,50683,5
23972,50682,5
23967,50684,4
23968,50698,5
23960,50672,5
23957,50674,5
23959,50665,5
23961,50711,4
23961,50667,5
23967,50666,5
23964,50678,5
23967,50722,5
23973,50685,4
23971,50705,5
23983,50711,6
23982,50732,4
23987,50724,5
23992,50735,4
23996,50738,5
23993,50744,5
23993,50744,5
23998,50745,4
23989,50742,5
23999,50744,5
24008,50757,5
24002,50769,5
24002,50773,4
24015,50777,5
24006,50772,5
24014,50781,5
24020,50787,5
24016,50783,4
24022,50792,5
24024,50791,5
24018,50800,5
24026,50808,5
24022,50797,4
24021,50806,5
24022,50795,5
24024,50792,6
24015,50787,4
24019,50790,4
24013,50777,5
24017,50783,5
24019,50780,5
24010,50783,4
24022,50790,4
24019,50793,5
24018,50802,5
24034,50807,5
24023,50810,4
24031,50809,7
24028,50801,3
24023,50803,5
24034,50807,5
24025,50805,4
24031,50812,5
24026,50817,5
24033,50821,5
24032,50832,5
24038,50833,5
24045,50839,4
24048,50845,5
24050,50853,5
24049,50844,5
24040,50846,4
24039,50850,5
24046,50842,5
24039,50842,5
24042,50848,4
24040,50842,4
24047,50845,5
24050,50852,5
24044,50859,5
24048,50857,4
24049,50864,5
24051,50865,5
24053,50867,5
24050,50865,5
24061,50872,4
24053,50873,5
24062,50878,5
24052,50873,5
24044,50866,5
24046,50847,4
24045,50847,6
24057,50838,4
24050,50842,5
24043,50842,5
24043,50854,4
24043,50839,5
24048,50851,5
24046,50843,5
24038,50834,4
24045,50845,4
24049,50850,5
24052,50863,5
24051,50866,5
24058,50879,4
24069,50891,5
24055,50893,5
24074,50899,5
24072,50905,5
24066,50912,4
24042,50920,5
24075,50913,5
24078,50914,5
24078,50925,5
24039,50926,4
24086,50933,5
24088,50933,6
24080,50942,4
24093,50956,5
24104,50969,4
24112,50972,5
24112,50976,5
24138,50972,5
24106,50986,5
24113,50985,4
24104,50985,5
24157,50990,5
24106,50986,5
24106,50986,4
24111,50983,5
24135,50980,5
24110,50975,5
24105,50978,5
24096,50978,4
24113,50975,5
24107,50981,5
24103,50976,5
24105,50984,5
24114,50967,4
24108,50989,5
24113,50986,5
24112,50998,5
24122,50951,5
24123,50995,4
24122,51007,5
24119,51005,5
24124,50970,5
24126,51012,5
24125,51023,5
24132,51032,4
24132,51039,5
24135,51041,5
24150,51059,4
24141,51050,4
24140,51098,5
24143,51054,5
24135,51045,5
24142,51040,4
24142,51092,5
24142,51044,5
24140,51047,5
24141,51045,5
24149,51076,5
24139,51061,4
24150,51057,5
24153,51066,5
24153,51075,5
24158,51088,4
24163,51096,5
24159,51087,5
24162,51088,5
24163,51077,5
24150,51072,4
24157,51076,5
24149,51075,5
24152,51071,5
24154,51064,4
24155,51075,4
24156,51067,5
24161,51070,5
24165,51074,5
24148,51077,4
24160,51071,5
24161,51082,5
24162,51098,4
24163,51098,5
24163,51103,4
24174,51118,6
24169,51112,3
24189,51116,5
24184,51138,5
24189,51145,4
24200,51160,5
24197,51165,5
24197,51168,5
24203,51159,5
24195,51167,4
24201,51167,5
24203,51175,5
24193,51166,5
24198,51172,4
24210,51176,4
24203,51179,5
24201,51181,5
24206,51185,5
24210,51184,4
24213,51190,5
24213,51197,5
24209,51193,6
24206,51193,4
24205,51188,4
24208,51180,5
24209,51179,5
24209,51187,5
24204,51177,5
24203,51174,4
24202,51173,5
24208,51176,5
24214,51179,5
24213,51178,5
24209,51180,4
24208,51179,5
24200,51181,5
24211,51186,5
24214,51184,4
24210,51182,4
24212,51187,5
24200,51181,5
24204,51188,5
24207,51176,5
24206,51184,4
24210,51174,5
24205,51180,5
24208,51176,6
24204,51170,3
24207,51165,5
24205,51164,5
24203,51165,5
24195,51170,5
24204,51166,4
24196,51151,5
24199,51162,5
24192,51163,5
24196,51149,5
24187,51137,4
24185,51139,5
24193,51141,5
24187,51134,5
24191,51142,5
24187,51131,4
24182,51122,5
24139,51103,5
24173,51105,5
24174,51096,4
24168,51086,6
24127,51091,4
24160,51076,5
24162,51084,5
24161,51070,6
24124,51058,3
24149,51058,5
24145,51052,5
24157,51051,5
24164,51050,4
24151,51053,5
24156,51058,5
24151,51058,5
24186,51060,5
24150,51055,4
24150,51064,5
24147,51065,5
24195,51068,5
24154,51070,5
24152,51073,4
24160,51062,5
24167,51063,5
24150,51052,5
24145,51045,4
24152,51048,4
24150,51045,6
24151,51059,4
24157,51059,5
24153,51060,4
24150,51027,5
24154,51054,5
24157,51065,5
24147,51054,5
24144,51000,4
24138,51041,5
24141,51041,5
24148,51047,5
24141,51020,5
24132,51033,4
24130,51026,5
24132,51026,5
24127,51050,5
24128,51024,5
24135,51025,4
24137,51013,5
24136,51071,5
24125,51022,5
24134,51024,4
24129,51020,4
24134,51060,5
24135,51022,6
24130,51018,4
24127,51025,4
24133,51035,5
24129,51015,5
24124,51015,5
24135,51012,5
24130,51002,4
24126,51009,5
24126,51000,5
24123,50999,5
24135,50996,5
24117,50990,4
24117,50991,5
24114,50990,5
24117,50996,5
24114,50995,5
24112,50985,4
24119,50974,5
24102,50967,5
24107,50968,5
24104,50955,5
24103,50961,4
24104,50957,5
24098,50962,5
24104,50961,6
24111,50962,3
24106,50960,5
24093,50960,5
24106,50963,5
24093,50935,5
24090,50930,4
24081,50914,5
24082,50892,5
24072,50883,5
24071,50879,5
24069,50883,4
24063,50879,5
24067,50874,5
24068,50868,5
24063,50881,5
24065,50894,4
24062,50880,5
24063,50874,5
24068,50886,5
24060,50889,5
24067,50876,5
24060,50877,4
24064,50880,5
24065,50873,5
24065,50873,4
24069,50885,5
24061,50881,5
24065,50876,5
24071,50894,5
24062,50881,4
24068,50891,5
24068,50894,5
24067,50904,5
24068,50896,5
24079,50896,4
24068,50892,5
24068,50905,5
24074,50894,5
24070,50887,5
24068,50894,4
24070,50891,5
24071,50896,5
24065,50889,5
24073,50902,5
24080,50902,4
24071,50899,6
24067,50904,4
24076,50903,5
24067,50888,4
24072,50886,5
24065,50889,5
24066,50878,5
24070,50890,5
24073,50888,4
24069,50882,5
24068,50878,5
24071,50890,5
24072,50888,5
24067,50885,4
24061,50888,5
24070,50883,5
24066,50888,5
24048,50894,5
24069,50889,4
24074,50884,5
24076,50903,5
24044,50896,5
24079,50900,5
24075,50901,4
24078,50910,5
24038,50908,6
24076,50905,4
24077,50896,4
24066,50902,4
24067,50884,5
24072,50888,5
24067,50881,5
24068,50885,4
24100,50890,5
24065,50876,5
24067,50865,5
24052,50862,5
24098,50862,4
24057,50855,5
24054,50851,5
24053,50848,5
24073,50843,5
24051,50838,4
24050,50832,5
24046,50843,5
24044,50847,5
24041,50842,5
24045,50834,4
24046,50846,5
24040,50824,5
24046,50840,5
24046,50845,4
24036,50827,4
24028,50784,5
24035,50812,5
24029,50806,5
24024,50795,4
24015,50739,5
24022,50779,5
24023,50775,5
24014,50781,5
24013,50788,4
24019,50774,5
24010,50771,5
24017,50774,5
24015,50813,5
24012,50779,4
24014,50783,5
24019,50775,5
24016,50830,5
24018,50773,5
24030,50775,6
24023,50780,3
24012,50795,5
24022,50779,5
24018,50775,4
24013,50767,4
24012,50783,5
24015,50780,5
24013,50774,5
24011,50773,4
24018,50781,5
24021,50784,5
24014,50780,5
24019,50784,5
24014,50787,4
24015,50774,5
24020,50790,5
24018,50786,5
24020,50784,5
24023,50782,4
24021,50785,5
24014,50779,5
24020,50777,5
24021,50789,5
24013,50783,4
24018,50781,6
24023,50778,4
24020,50777,5
24013,50783,9
24013,50780,5
24007,50788,5
24012,50776,5
24015,50770,4
24004,50766,5
24010,50760,5
24012,50773,5
24016,50772,5
24011,50768,4
24009,50771,5
24014,50771,5
24008,50774,5
24008,50769,5
24009,50769,4
24009,50767,5
24004,50764,5
24013,50767,5
24007,50765,5
24013,50764,4
24013,50764,5
24014,50773,5
24016,50775,5
24017,50777,5
24016,50773,4
24018,50773,5
24014,50771,5
24016,50769,5
24007,50766,4
24001,50768,5
24006,50762,5
24003,50750,5
24005,50757,5
24005,50756,4
24005,50751,5
24001,50747,5
24000,50736,5
24002,50742,5
23992,50734,5
23994,50736,4
23995,50724,5
23990,50717,5
23990,50716,6
23984,50708,3
23988,50716,5
23987,50708,5
23977,50708,5
23986,50720,5
23988,50716,4
23982,50718,5
23986,50705,5
23981,50696,5
23977,50687,4
23974,50682,4
23959,50660,5
23961,50648,5
23952,50643,5
23946,50641,4
23948,50631,5
23952,50624,5
23948,50630,5
23944,50636,5
23952,50645,4
23926,50640,6
23957,50659,4
23962,50652,5
23955,50662,5
23914,50657,6
23957,50660,3
23958,50653,5
23962,50659,5
23929,50652,5
23955,50662,4
23956,50655,5
23963,50659,5
23981,50657,5
23965,50670,4
23962,50659,4
23963,50671,5
24015,50669,5
23967,50691,5
23970,50688,4
23979,50698,5
24016,50690,5
23977,50694,5
23979,50693,5
23970,50699,4
23983,50698,5
23975,50688,6
23978,50692,4
23974,50692,5
23975,50682,4
23975,50690,5
23975,50686,5
23971,50686,5
23970,50657,5
23963,50689,4
23967,50692,5
23972,50684,5
23962,50639,5
23975,50677,5
23974,50676,4
23967,50675,5
23961,50658,5
23962,50673,5
23961,50666,4
23954,50673,5
23954,50698,5
23964,50667,5
23966,50662,5
23967,50670,4
23959,50717,5
23966,50678,5
23968,50681,6
23974,50688,4
23972,50727,4
23979,50682,5
23967,50685,5
23970,50687,5
23976,50702,5
23975,50691,4
23976,50689,5
23981,50687,5
23975,50684,5
23977,50689,5
23969,50680,4
23967,50690,5
23971,50693,5
23973,50694,5
23974,50684,4
23977,50693,4
23977,50689,5
23976,50685,5
23972,50686,5
23964,50675,5
23962,50657,4
23960,50658,5
23958,50655,5
23948,50645,6
23953,50645,3
23953,50640,5
23949,50644,5
23951,50645,5
23958,50651,5
23946,50645,4
23961,50646,5
23955,50643,5
23949,50648,5
23952,50645,5
23954,50636,4
23941,50624,5
23943,50612,5
23927,50605,5
23923,50601,4
23926,50584,4
23925,50581,5
23916,50578,5
23915,50583,5
23926,50578,4
23920,50593,6
23926,50587,4
23926,50589,5
23924,50581,5
23914,50588,4
23927,50582,5
23926,50571,5
23929,50588,5
23928,50587,5
23919,50576,4
23928,50589,5
23918,50584,5
23919,50590,5
23927,50587,5
23924,50592,4
23931,50597,5
23930,50599,5
23933,50593,5
23927,50601,5
23933,50597,4
23925,50597,5
23925,50601,5
23926,50590,5
23927,50594,4
23937,50602,5
23928,50604,6
23935,50602,4
23929,50601,5
23926,50604,4
23928,50600,5
23932,50605,5
23929,50605,5
23940,50613,5
23932,50616,4
23939,50626,5
23943,50613,5
23937,50615,5
23935,50622,5
23929,50616,4
23939,50612,5
23934,50619,5
23936,50606,5
23941,50630,5
23939,50628,4
23943,50636,5
23926,50636,5
23950,50643,5
23954,50650,4
23946,50658,5
23919,50658,5
23950,50667,6
23956,50662,4
23960,50668,4
23915,50669,5
23963,50670,5
23956,50674,5
23960,50668,5
23962,50681,4
23973,50687,5
23970,50699,5
23977,50710,5
24024,50722,5
23989,50726,4
23994,50739,5
23988,50744,5
24048,50744,5
23996,50747,5
24002,50745,4
23996,50741,5
24018,50752,5
23993,50741,5
24004,50749,5
24000,50751,4
24007,50760,5
24007,50757,5
24003,50763,6
24001,50768,3
24010,50755,5
24004,50779,5
24014,50792,5
24019,50796,5
24024,50766,4
24026,50820,5
24036,50834,5
24046,50849,5
24047,50828,5
24059,50877,5
24051,50867,4
24051,50860,5
24048,50887,5
24055,50872,5
24057,50873,4
24052,50872,5
24065,50926,5
24056,50883,5
24061,50879,4
24059,50882,5
24065,50940,4
24067,50915,5
24083,50937,5
24089,50940,4
24083,50944,5
24083,50934,5
24099,50959,5
24101,50975,5
24117,51015,4
24126,51037,5
24138,51034,5
24124,51017,5
24116,50999,5
24129,51034,4
24142,51054,5
24140,51044,5
24136,51024,5
24144,51055,5
24192,51165,4
24236,51283,5
24301,51398,5
24336,51445,5
24337,51454,4
24330,51423,4
24311,51366,6
24282,51332,4
24284,51329,5
24275,51334,4
24282,51335,5
24293,51344,5
24286,51346,5
24283,51317,5
24266,51306,4
24285,51331,5
24314,51430,5
24360,51510,5
24378,51517,5
24376,51531,4
24392,51549,5
24384,51517,5
24370,51522,5
24378,51541,5
24395,51599,4
24409,51614,5
24429,51631,5
24443,51667,5
24451,51665,5
24454,51687,4
24469,51703,5
24473,51723,6
24489,51772,4
24533,51877,4
24585,51966,5
24592,51965,5
24578,51934,5
24580,51943,5
24605,51999,4
24649,52082,5
24675,52124,5
24674,52115,5
24642,52082,5
24646,52057,4
24641,52049,5
24624,52026,5
24608,51996,5
24595,51969,5
24584,51956,4
24583,51949,5
24580,51928,5
24558,51883,5
24548,51870,5
24542,51864,4
24552,51865,5
24545,51856,5
24541,51853,5
24544,51846,4
24536,51833,4
24521,51821,5
24505,51802,5
24500,51773,5
24495,51773,4
24483,51747,5
24480,51733,5
24467,51708,5
24454,51704,5
24455,51689,4
24458,51692,5
24452,51681,5
24445,51686,5
24434,51679,5
24436,51666,4
24443,51667,5
24433,51668,5
24406,51663,5
24434,51663,5
24440,51666,5
24431,51657,4
24389,51653,5
24422,51645,5
24433,51635,4
24428,51632,4
24393,51639,5
24427,51627,5
24426,51624,5
24410,51617,4
24446,51615,5
24419,51617,5
24409,51614,5
24403,51605,5
24449,51602,4
24410,51595,5
24396,51591,5
24405,51581,5
24434,51574,5
24385,51553,4
24386,51550,5
24382,51530,5
24379,51526,4
24362,51512,5
24365,51501,4
24361,51503,6
24362,51491,3
24360,51503,5
24368,51503,5
24363,51511,4
24362,51473,5
24362,51510,5
24363,51502,5
24363,51505,4
24364,51460,5
24353,51501,5
24369,51504,5
24357,51504,5
24376,51493,4
24366,51497,5
24368,51504,5
24370,51515,5
24367,51543,5
24368,51506,4
24366,51497,5
24363,51492,5
24353,51532,6
24347,51482,4
24350,51474,4
24349,51461,5
24341,51492,5
24345,51453,5
24341,51462,5
24354,51464,4
24354,51477,5
24346,51467,5
24353,51457,5
24344,51449,4
24325,51426,5
24320,51420,5
24320,51400,5
24315,51382,5
24317,51371,4
24298,51365,5
24302,51352,5
24296,51358,5
24290,51355,7
24288,51348,3
24284,51338,4
24284,51349,5
24315,51343,5
24288,51330,6
24288,51341,3
24279,51331,5
24283,51337,5
24274,51333,5
24288,51333,5
24287,51330,4
24276,51336,5
24278,51344,5
24291,51333,5
24283,51345,4
24290,51340,4
24284,51327,5
24292,51333,5
24286,51340,5
24283,51321,4
24290,51336,5
24284,51334,5
24284,51336,5
24279,51335,5
24291,51324,4
24278,51326,6
24276,51320,4
24266,51309,5
24273,51310,5
24267,51291,6
24262,51286,3
24247,51262,5
24246,51254,5
24246,51241,5
24235,51227,4
24235,51233,5
24236,51231,5
24228,51213,5
24227,51218,4
24214,51202,4
24216,51203,5
24210,51200,5
24216,51194,5
24210,51192,4
24212,51189,5
24220,51194,5
24210,51190,5
24215,51191,5
24205,51184,4
24209,51180,5
24203,51178,6
24196,51173,4
24197,51168,5
24195,51160,4
24193,51162,5
24195,51162,5
24199,51158,5
24192,51158,5
24186,51145,4
24193,51137,5
24181,51132,5
24191,51118,5
24176,51125,4
24169,51109,4
24165,51095,5
24163,51085,5
24155,51089,5
24158,51074,4
24153,51078,5
24156,51069,5
24156,51069,5
24157,51062,5
24140,51067,4
24149,51074,5
24151,51071,5
24150,51064,6
24109,51052,4
24149,51043,4
24138,51039,5
24133,51020,5
24091,51007,5
24126,51008,5
24122,50998,4
24122,50992,5
24128,50984,5
24106,50978,5
24102,50967,4
24103,50970,4
24156,50974,5
24109,50973,5
24110,50973,5
24113,50980,4
24155,50995,5
24122,51003,5
24123,50996,5
24126,51005,5
24144,51010,5
24126,51004,4
24124,51012,5
24128,51011,5
24128,50995,6
24126,51002,3
24123,51005,5
24114,51000,5
24117,50971,5
24120,50998,5
24120,50996,4
24127,50996,5
24121,50958,5
24116,50998,5
24123,50990,5
24116,50991,4
24115,50959,5
24115,50972,5
24112,50971,5
24112,50972,4
24108,50996,5
24101,50969,5
24110,50964,5
24112,50967,5
24112,51016,4
24105,50954,6
24098,50950,4
24099,50946,5
24091,50966,5
24083,50922,4
24092,50924,5
24081,50924,5
24086,50927,5
24092,50910,5
24076,50921,4
24085,50914,5
24083,50928,5
24088,50921,5
24082,50918,5
24081,50913,4
24088,50914,5
24077,50910,5
24076,50905,5
24085,50917,4
24076,50914,4
24078,50909,5
24073,50910,5
24080,50915,5
24080,50903,4
24081,50905,5
24079,50898,6
24075,50887,4
24070,50886,5
24062,50872,4
24054,50867,5
24055,50868,5
24062,50863,5
24053,50855,5
24052,50852,4
24059,50851,5
24049,50848,5
24040,50843,5
24046,50843,5
24050,50835,4
24046,50846,5
24037,50831,5
24052,50840,5
24044,50831,4
24044,50838,4
24041,50834,5
24045,50841,5
24049,50845,5
24042,50829,4
24042,50811,5
24030,50814,5
24034,50806,6
24026,50794,4
24021,50771,4
24014,50774,5
24012,50760,5
24014,50759,5
24004,50750,5
24006,50735,4
24004,50740,5
24011,50743,5
24006,50746,5
24004,50753,5
23998,50750,4
24009,50770,5
24003,50760,5
24006,50763,5
24008,50748,5
24012,50763,4
24000,50755,5
24009,50757,5
24002,50764,5
24003,50775,5
24013,50769,4
24007,50765,5
24016,50774,5
24021,50782,5
24021,50784,4
24025,50791,5
24016,50792,5
24017,50775,5
24024,50792,5
24022,50792,4
24024,50790,5
24028,50791,5
24025,50791,5
24021,50789,5
24016,50792,4
24021,50794,5
24018,50797,5
24025,50789,5
24021,50794,5
24017,50794,4
24008,50782,5
24018,50771,5
24018,50775,5
24014,50777,4
23987,50778,6
24011,50774,4
24014,50771,5
24011,50770,5
23975,50768,4
24010,50763,5
24011,50765,5
24013,50763,5
24006,50761,5
24007,50768,4
24020,50770,5
24006,50758,5
24043,50753,5
24002,50762,5
24007,50758,4
24011,50764,5
24061,50765,5
24012,50774,5
24017,50768,5
24007,50762,4
24040,50764,5
24015,50772,6
24009,50774,4
24014,50762,4
24016,50767,4
24009,50756,6
24017,50751,4
24006,50746,5
24003,50732,4
24006,50744,5
23992,50741,5
23996,50730,5
23987,50691,5
23988,50725,5
23988,50721,4
23992,50727,5
23983,50680,5
23986,50716,5
23990,50712,4
23980,50704,5
23991,50713,5
23987,50700,5
23980,50706,5
23975,50701,4
23971,50735,5
23983,50713,5
23988,50708,5
23983,50699,4
23978,50754,4
23970,50690,5
23974,50673,5
23961,50664,5
23965,50681,4
23958,50652,5
23954,50648,5
23954,50644,5
23945,50641,5
23952,50639,4
23955,50636,5
23956,50644,5
23955,50638,5
23955,50646,5
23967,50641,4
23959,50641,5
23959,50660,5
23957,50662,5
23961,50654,5
23963,50655,4
23963,50661,5
23963,50655,5
23958,50660,5
23961,50651,5
23961,50656,3
23959,50655,5
23963,50664,5
23965,50661,5
23963,50660,4
23963,50671,5
23974,50673,5
23972,50680,5
23968,50674,5
23970,50676,4
23968,50680,5
23970,50670,5
23967,50664,5
23961,50669,5
23963,50674,4
23962,50668,5
23970,50670,5
23968,50669,5
23960,50657,5
23960,50661,4
23964,50664,6
23960,50667,4
23959,50662,5
23957,50661,5
23962,50658,6
23961,50656,3
23956,50654,5
23946,50650,5
23959,50657,4
23959,50657,5
23952,50652,5
23949,50644,5
23952,50646,5
23957,50643,4
23960,50651,5
23952,50648,5
23963,50640,5
23952,50652,5
23955,50642,4
23951,50643,5
23948,50647,5
23948,50639,5
23951,50648,5
23950,50643,4
23955,50641,5
23951,50638,6
23952,50641,4
23942,50638,5
23954,50632,4
23946,50633,5
23942,50623,5
23941,50629,5
23941,50617,4
23946,50623,4
23940,50617,5
23938,50606,5
23933,50599,5
23928,50597,4
23937,50590,5
23928,50586,5
23922,50584,5
23919,50580,5
23927,50571,4
23920,50563,5
23912,50575,5
23929,50566,5
23915,50565,5
23920,50558,4
23912,50555,5
23884,50559,5
23913,50559,6
23919,50556,4
23908,50554,4
23872,50552,5
23904,50543,5
23911,50545,5
23901,50530,4
23870,50525,4
23891,50506,5
23886,50492,5
23874,50481,5
23891,50470,4
23864,50452,5
23859,50447,5
23853,50426,5
23900,50430,5
23853,50417,4
23843,50402,5
23841,50413,5
23881,50417,5
23843,50425,5
23846,50417,5
23847,50420,4
23857,50421,5
23850,50428,5
23852,50417,6
23841,50418,3
23843,50406,5
23843,50413,5
23837,50418,5
23846,50416,4
23839,50388,4
23844,50422,5
23846,50411,5
23838,50425,5
23851,50381,4
23847,50419,5
23846,50425,5
23844,50412,5
23850,50413,5
23849,50422,4
23847,50416,5
23841,50409,5
23841,50439,5
23837,50411,5
23833,50408,4
23838,50405,6
23840,50452,4
23829,50394,5
23833,50394,5
23828,50389,4
23820,50418,5
23821,50384,5
23820,50383,5
23818,50373,5
23823,50384,4
23824,50370,5
23817,50380,5
23828,50375,5
23830,50380,4
23828,50379,5
23830,50382,5
23820,50391,5
23830,50383,5
23829,50388,4
23829,50399,5
23837,50406,5
23837,50409,5
23839,50412,5
23845,50421,4
23852,50434,5
23861,50433,6
23857,50458,4
23860,50449,5
23858,50461,4
23864,50463,5
23868,50468,5
23872,50472,5
23866,50480,5
23876,50486,4
23873,50494,5
23882,50497,5
23882,50492,5
23882,50511,4
23888,50505,4
23879,50502,5
23887,50517,5
23885,50506,5
23884,50515,4
23887,50519,5
23887,50513,5
23889,50513,5
23888,50521,5
23890,50513,4
23888,50524,5
23900,50526,5
23893,50530,6
23899,50535,4
23899,50541,4
23908,50544,5
23908,50545,5
23904,50556,5
23910,50553,5
23908,50555,4
23913,50546,5
23903,50554,5
23904,50555,5
23907,50539,4
23902,50537,4
23900,50540,5
23896,50538,5
23904,50540,5
23906,50535,4
23898,50539,5
23893,50529,5
23901,50531,5
23903,50518,5
23895,50532,5
23902,50530,4
23898,50526,5
23895,50536,5
23901,50547,5
23911,50554,4
23920,50568,5
23915,50582,5
23919,50583,5
23932,50598,5
23930,50602,4
23935,50610,5
23928,50606,5
23931,50612,5
23933,50612,5
23941,50620,4
23943,50633,5
23947,50623,5
23951,50633,5
23956,50648,4
23951,50652,5
23960,50671,5
23961,50674,5
23950,50672,5
23974,50685,4
23970,50688,6
23972,50687,4
23939,50680,5
23965,50682,5
23976,50679,4
23967,50678,5
23928,50670,5
23966,50670,5
23966,50668,5
23966,50677,4
23976,50685,5
23964,50677,5
23969,50677,5
23970,50682,5
24005,50675,4
23957,50673,5
23963,50677,5
23967,50676,5
24012,50684,4
23968,50686,5
23970,50690,5
23972,50700,5
24006,50703,5
23981,50714,4
23984,50713,5
23989,50722,6
23990,50715,4
23988,50736,5
23994,50735,4
23997,50731,5
23998,50705,5
23996,50735,5
23993,50734,5
23990,50743,4
24003,50702,5
23999,50738,5
24003,50751,5
24004,50740,5
24002,50706,4
24002,50738,5
24001,50743,5
23993,50743,5
23994,50763,4
23997,50741,4
23999,50743,5
23998,50742,5
24003,50787,5
24006,50750,4
24004,50756,5
24011,50760,5
23999,50799,5
24007,50750,5
24001,50735,4
23995,50737,5
23989,50741,5
23993,50724,5
23987,50723,5
23996,50734,4
23994,50728,5
23986,50725,5
23987,50717,5
23995,50727,5
23991,50736,4
23997,50734,5
23998,50747,5
24002,50753,5
24005,50755,4
24011,50760,4
24004,50760,5
24016,50781,5
24019,50787,5
24019,50807,5
24027,50809,4
24034,50814,5
24040,50817,5
24035,50820,5
24038,50817,4
24041,50829,5
24038,50829,5
24034,50833,5
24040,50832,5
24051,50846,4
24049,50854,5
24053,50861,5
24058,50871,5
24070,50874,5
24063,50893,4
24079,50899,5
24076,50890,5
24075,50886,5
24067,50886,5
24074,50890,4
24072,50894,5
24063,50887,5
24064,50882,5
24070,50883,4
24073,50891,6
24072,50891,4
24073,50905,5
24072,50898,5
24077,50909,4
24076,50913,5
24087,50926,5
24085,50929,5
24089,50927,5
24090,50935,4
24098,50943,5
24106,50954,5
24109,50966,5
24116,50978,5
24120,50988,4
24126,51005,5
24128,51001,5
24132,51013,5
24137,51020,5
24142,51028,4
24142,51039,5
24143,51043,5
24146,51048,5
24144,51052,4
24146,51046,5
24149,51056,6
24154,51059,3
24153,51060,5
24151,51062,4
24156,51065,5
24164,51072,5
24164,51088,5
24164,51095,5
24174,51097,4
24182,51110,5
24191,51129,5
24191,51149,5
24199,51162,5
24205,51159,4
24206,51165,5
24214,51160,5
24211,51170,5
24211,51172,5
24203,51168,4
24211,51163,5
24208,51170,5
24207,51163,6
24175,51172,3
24207,51173,4
24212,51175,5
24207,51179,5
24176,51192,5
24220,51190,4
24230,51210,5
24241,51226,5
24229,51237,5
24254,51254,5
24257,51268,4
24255,51276,5
24288,51273,5
24266,51289,5
24266,51299,5
24277,51314,4
24329,51325,5
24293,51331,5
24298,51350,5
24306,51369,5
24334,51389,5
24313,51398,4
24321,51410,5
24325,51416,5
24342,51418,6
24334,51424,3
24339,51431,5
24328,51427,5
24335,51407,5
24331,51426,4
24333,51421,5
24332,51426,5
24336,51390,5
24330,51432,5
24328,51412,4
24322,51411,5
24320,51357,5
24320,51390,5
24313,51382,5
24311,51383,4
24308,51372,5
24317,51372,5
24316,51376,5
24308,51366,5
24308,51406,4
24302,51370,6
24305,51356,4
24296,51351,5
24301,51404,5
24300,51345,6
24292,51340,3
24292,51330,5
24283,51349,5
24276,51307,4
24267,51310,4
24283,51305,5
24275,51313,5
24268,51298,5
24270,51291,4
24260,51279,5
24266,51276,5
24261,51268,5
24262,51263,5
24246,51258,4
24247,51253,5
24248,51238,5
24236,51237,5
24238,51224,5
24234,51226,4
24235,51229,5
24235,51209,6
24231,51210,4
24228,51206,5
24217,51192,4
24216,51182,5
24212,51183,5
24212,51164,5
24201,51154,4
24192,51138,4
24190,51131,5
24180,51123,5
24181,51115,5
24182,51113,4
24179,51115,5
24177,51121,5
24189,51126,5
24187,51127,5
24188,51119,4
24199,51126,5
24197,51141,5
24199,51137,5
24189,51130,5
24192,51125,4
24189,51131,5
24195,51123,5
24181,51118,6
24184,51124,4
24182,51124,4
24188,51120,5
24190,51129,5
24190,51130,5
24191,51131,4
24184,51129,4
24194,51122,5
24192,51127,5
24185,51104,5
24168,51106,4
24173,51098,5
24169,51091,5
24160,51093,5
24174,51088,5
24171,51083,4
24164,51081,5
24160,51073,5
24166,51071,5
24169,51065,5
24162,51062,5
24157,51056,4
24153,51050,5
24145,51043,5
24144,51027,6
24138,51029,3
24136,51026,5
24132,51015,5
24133,51015,5
24126,51009,5
24134,51006,4
24129,51002,5
24136,51016,5
24137,51019,5
24133,51011,4
24132,51020,4
24136,51022,5
24130,51021,5
24127,51013,5
24144,51004,4
24129,51012,5
24130,51007,5
24126,50995,5
24123,50984,5
24113,50989,4
24097,50973,6
24117,50973,4
24118,50981,5
24123,50983,5
24078,50979,4
24114,50978,5
24115,50975,5
24117,50981,5
24086,50978,5
24117,50980,4
24117,50982,5
24118,50977,5
24131,50969,5
24104,50959,4
24102,50948,4
24099,50940,5
24147,50938,5
24087,50929,5
24089,50920,4
24086,50907,5
24122,50899,5
24085,50901,5
24075,50895,5
24084,50899,4
24099,50902,5
24085,50905,6
24085,50896,4
24075,50894,5
24082,50891,4
24078,50902,5
24071,50901,5
24081,50887,5
24081,50867,5
24071,50883,4
24071,50893,5
24082,50895,5
24074,50863,5
24073,50901,5
24077,50900,4
24073,50891,5
24084,50884,5
24081,50901,5
24082,50908,4
24090,50909,5
24083,50933,5
24077,50913,5
24088,50912,5
24086,50908,4
24081,50958,5
24083,50906,8
24084,50917,3
24085,50909,4
24080,50943,4
24076,50905,5
24082,50909,5
24085,50911,5
24088,50921,5
24085,50909,4
24077,50911,5
24079,50904,5
24078,50902,5
24081,50893,5
24073,50892,4
24077,50885,5
24073,50885,5
24077,50900,5
24083,50899,4
24076,50895,5
24067,50891,5
24075,50893,5
24077,50889,5
24073,50889,5
24077,50893,4
24079,50886,5
24079,50894,5
24073,50898,5
24074,50893,4
24074,50894,5
24073,50892,5
24084,50896,5
24071,50892,5
24076,50898,4
24071,50890,5
24064,50880,5
24067,50878,5
24068,50870,5
24066,50866,4
24059,50863,5
24052,50861,5
24051,50853,5
24054,50853,4
24049,50849,4
24057,50856,5
24055,50847,5
24054,50844,5
24057,50850,4
24057,50843,6
24047,50855,4
24052,50846,5
24045,50848,5
24052,50851,4
24048,50844,5
24044,50839,5
24050,50834,5
24040,50826,5
24038,50818,4
24035,50804,5
24024,50793,5
24026,50785,5
24026,50780,5
24021,50769,4
24018,50765,5
24011,50752,5
24000,50746,5
24012,50754,4
24006,50750,4
24019,50760,5
24010,50767,5
24011,50764,5
24016,50767,4
24017,50772,5
24015,50770,6
24017,50772,4
24019,50774,5
24010,50773,4
24016,50765,5
24015,50767,5
24012,50771,5
24017,50764,5
24017,50778,4
24013,50774,5
24021,50772,5
24020,50777,5
24017,50783,5
24026,50787,4
24032,50805,5
24028,50812,5
24027,50795,5
24029,50793,5
24027,50787,4
24023,50785,5
24005,50784,5
24019,50780,5
24018,50790,4
24024,50783,5
23986,50783,5
24023,50780,5
24021,50770,5
24022,50779,4
23981,50774,5
24027,50784,5
24015,50776,5
24018,50766,5
24014,50765,4
24020,50762,5
24011,50757,5
24012,50752,5
24051,50760,5
24016,50746,4
24010,50756,5
24009,50758,5
24056,50763,5
24019,50770,5
24007,50772,4
24017,50771,5
24046,50777,5
24019,50777,5
24018,50774,5
24014,50766,4
24020,50768,5
24017,50765,5
24011,50769,5
24008,50765,4
24016,50745,5
24011,50768,5
24021,50782,5
24020,50786,5
24022,50740,4
24031,50775,5
24020,50776,5
24032,50782,5
24024,50737,5
24017,50763,5
24021,50761,4
23999,50752,5
24004,50747,5
24007,50726,5
23997,50724,4
23993,50716,6
23990,50755,4
23981,50700,5
23987,50710,4
23977,50703,6
23984,50751,3
23983,50703,5
23984,50703,5
23977,50700,4
23988,50717,5
23986,50703,5
23976,50707,5
23990,50700,5
23978,50701,4
23982,50706,5
23980,50705,5
23984,50701,5
23986,50710,5
23979,50711,4
23985,50698,5
23974,50698,5
23977,50685,5
23968,50682,5
23972,50673,4
23959,50661,5
23969,50658,6
23958,50651,4
23957,50652,4
23954,50647,4
23956,50639,5
23947,50638,5
23948,50634,5
23953,50638,4
23947,50643,5
23958,50645,5
23953,50643,5
23958,50638,5
23956,50642,4
23945,50641,5
23959,50646,5
23958,50651,5
23960,50649,5
23958,50654,4
23958,50647,5
23960,50646,5
23961,50651,5
23955,50652,5
23953,50659,4
23954,50655,5
23958,50664,5
23959,50661,6
23965,50669,4
23961,50668,4
23961,50664,5
23963,50656,5
23960,50661,5
23960,50652,4
23959,50657,4
23958,50662,5
23958,50666,5
23966,50659,5
23961,50660,4
23960,50654,5
23959,50662,5
23962,50659,5
23960,50654,5
23959,50652,4
23951,50650,5
23960,50639,5
23954,50643,5
23944,50636,5
23955,50644,5
23951,50638,4
23947,50627,5
23947,50640,5
23945,50644,6
23951,50642,3
23954,50649,5
23944,50642,5
23950,50643,5
23948,50642,4
23954,50635,4
23955,50643,5
23952,50632,5
23950,50634,5
23947,50634,4
23946,50632,5
23950,50624,5
23948,50634,5
23949,50631,5
23948,50628,4
23944,50628,5
23952,50635,5
23963,50644,5
23943,50634,5
23948,50631,4
23949,50638,6
23945,50625,4
23912,50622,5
23946,50614,5
23938,50606,4
23937,50594,5
23891,50595,5
23930,50584,5
23928,50579,4
23930,50584,4
23911,50593,5
23931,50594,5
23933,50590,5
23928,50577,4
23945,50582,5
23917,50574,5
23917,50576,5
23917,50562,5
23965,50569,4
23919,50567,5
23917,50564,5
23925,50571,5
23954,50571,5
23921,50581,4
23918,50582,5
23919,50567,6
23931,50569,4
23914,50546,5
23906,50541,4
23908,50544,5
23897,50506,5
23898,50510,5
23890,50510,5
23884,50497,4
23889,50465,5
23885,50496,5
23880,50500,5
23885,50497,4
23890,50460,5
23887,50502,5
23891,50511,5
23894,50502,5
23890,50511,4
23888,50515,5
23889,50520,5
23894,50522,5
23889,50543,5
23892,50517,4
23886,50516,5
23883,50513,5
23890,50554,6
23893,50519,4
23885,50513,4
23893,50518,5
23892,50546,5
23888,50519,5
23889,50523,5
23888,50518,4
23899,50513,5
23886,50502,5
23882,50496,5
23889,50497,4
23882,50485,4
23882,50495,5
23884,50490,5
23879,50491,5
23882,50491,4
23882,50492,5
23879,50485,5
23880,50480,5
23876,50465,5
23861,50466,5
23875,50466,4
23856,50458,5
23862,50452,5
23862,50448,5
23864,50452,4
23855,50451,5
23867,50449,5
23855,50440,5
23858,50443,9
23848,50445,5
23846,50432,9
23846,50432,10
23847,50411,5
23851,50429,5
23850,50416,10
23844,50420,5
23843,50418,7
23843,50418,8
23868,50422,5
23850,50428,7
23844,50411,8
23847,50424,5
23852,50445,7
23834,50385,8
23834,50385,5
23823,50378,7
23792,50382,8
23818,50373,5
23827,50375,7
23825,50412,8
23829,50380,9
23829,50380,8
23828,50373,5
23828,50394,7
23830,50398,8
23831,50400,5
23836,50406,7
23844,50404,8
23844,50404,5
23831,50370,7
23834,50380,8
23832,50393,9
23832,50398,5
23834,50382,8
23834,50382,7
23814,50395,5
23827,50397,8
23835,50399,7
23839,50403,8
23845,50455,5
23868,50470,7
23868,50470,5
23862,50467,8
23866,50478,7
23834,50478,5
23865,50479,8
23891,50486,7
23856,50487,5
23902,50507,8
23902,50507,7
23891,50517,5
23894,50526,8
23903,50531,7
23934,50539,8
23853,50529,7
23904,50545,7
23904,50545,8
23895,50538,7
23918,50539,5
23905,50545,8
23900,50547,7
23899,50516,5
23907,50519,8
23907,50519,7
23902,50550,7
23914,50548,10
23903,50549,5
23866,50510,5
23916,50558,10
23916,50558,5
23922,50558,10
23917,50579,10
23940,50656,12
23933,50612,5
23897,50604,5
23917,50614,8
23936,50645,7
23936,50620,5
23933,50608,10
23935,50619,5
23940,50597,5
23940,50625,10
23940,50625,5
23934,50624,5
23943,50634,10
23948,50631,5
23934,50636,5
23940,50635,10
23940,50635,1
23940,50635,1
23957,50635,5
23950,50645,5
23952,50646,5
23947,50641,4
23953,50644,5
23947,50641,6
23946,50638,4
23946,50620,5
23940,50636,4
23953,50617,5
23941,50620,5
23935,50618,5
23941,50628,5
23957,50622,4
23944,50629,5
23945,50642,5
23948,50642,5
23960,50647,5
23951,50663,4
23961,50669,5
23967,50660,5
23961,50675,5
23973,50680,5
23965,50676,4
23976,50680,5
23976,50689,5
23973,50691,6
23978,50695,3
23975,50716,4
23979,50717,5
23986,50734,5
23997,50749,5
24011,50767,4
24005,50764,5
24023,50785,5
24015,50786,5
24020,50784,5
24012,50779,4
24021,50787,5
24025,50787,5
24017,50788,5
24022,50782,5
24023,50795,4
24026,50798,5
24028,50804,5
24034,50799,5
24038,50811,5
24042,50826,5
24048,50835,4
24045,50840,5
24050,50849,5
24057,50862,6
24063,50868,3
24069,50889,5
24073,50910,5
24090,50926,5
24099,50942,4
24111,50961,5
24113,50990,5
24146,51036,5
24171,51085,5
24188,51128,4
24196,51144,5
24192,51132,5
24193,51125,5
24188,51145,5
24195,51164,4
24228,51188,5
24227,51205,5
24230,51223,5
24206,51205,5
24232,51191,4
24220,51186,6
24210,51172,4
24194,51213,5
24245,51260,5
24274,51308,6
24285,51330,3
24248,51339,5
24291,51333,5
24289,51319,4
24280,51316,5
24284,51307,5
24278,51293,5
24265,51293,5
24271,51284,4
24301,51278,5
24260,51277,5
24258,51266,5
24247,51257,5
24300,51242,4
24248,51239,5
24245,51228,5
24238,51227,5
24260,51215,5
24232,51196,4
24228,51196,5
24222,51190,6
24222,51187,4
24215,51189,5
24219,51192,4
24215,51192,5
24230,51172,5
24223,51198,5
24219,51200,4
24220,51202,4
24221,51165,5
24215,51189,5
24223,51192,5
24227,51188,5
24221,51153,4
24220,51187,5
24218,51192,5
24215,51198,5
24213,51202,4
24220,51198,5
24218,51194,5
24223,51183,5
24221,51224,5
24209,51177,4
24210,51174,5
24206,51169,5
24204,51206,6
24209,51167,4
24205,51163,4
24199,51159,5
24212,51183,5
24203,51164,5
24201,51162,5
24201,51156,4
24202,51144,5
24191,51141,5
24186,51131,5
24186,51134,4
24189,51130,5
24189,51121,5
24194,51130,5
24185,51123,5
24193,51137,4
24188,51128,5
24190,51124,5
24187,51139,5
24189,51137,5
24195,51137,5
24185,51127,4
24190,51131,5
24189,51123,5
24179,51112,6
24182,51117,3
24181,51108,5
24174,51101,5
24169,51099,5
24175,51099,5
24165,51087,4
24172,51087,5
24160,51092,5
24168,51077,5
24163,51075,4
24156,51058,4
24149,51046,5
24148,51037,5
24147,51040,5
24147,51041,4
24138,51035,5
24143,51039,5
24146,51022,5
24141,51029,5
24140,51003,4
24129,51004,6
24122,50996,4
24118,50980,5
24113,50969,5
24109,50956,4
24106,50945,5
24099,50941,5
24091,50926,5
24093,50933,5
24097,50926,4
24087,50929,5
24096,50929,5
24096,50930,5
24087,50927,4
24089,50931,4
24100,50937,5
24100,50944,5
24096,50933,5
24096,50933,8
24096,50936,5
