RED,IR,EKG,TIME
50851,98900,7
50801,98929,8
50877,98931,5
50880,98949,7
50908,98949,8
50798,98947,5
50877,98956,7
50892,98974,8
50892,98974,5
50888,98960,7
50958,98958,8
50886,98950,5
50882,98937,7
50867,98929,8
50966,98929,5
50883,98961,7
50883,98961,8
50897,98988,5
50902,98986,7
50911,98986,8
50921,99023,5
50926,99049,7
51004,99166,8
51004,99166,7
51011,99125,8
51010,99181,5
51013,99167,7
51006,99165,5
51001,99069,8
50961,99074,7
50961,99074,5
50950,99078,8
50921,99079,7
50960,99149,5
50963,99083,8
50966,99126,7
50969,99099,5
51004,99202,8
51004,99202,7
50983,99194,5
51023,99194,8
51008,99165,7
50985,99129,8
50887,98961,9
50887,98961,5
50881,98885,8
50880,98884,7
50878,98910,5
50908,98909,8
50875,98914,7
50870,98920,5
50898,98951,8
50898,98951,7
50904,98966,5
50908,98978,8
50912,99000,7
50907,98997,5
50916,98996,8
50938,99024,7
50938,99024,5
50930,99028,8
50931,99040,7
50931,99023,5
50930,99027,8
50934,99012,7
50929,99014,9
50929,99014,10
50932,99023,9
50902,98965,10
50902,98965,5
50894,98946,5
50891,98931,10
50871,98914,5
50868,98889,7
50857,98862,8
50814,98802,5
50814,98802,7
50813,98803,8
50809,98769,5
50803,98771,7
50821,98777,8
50820,98783,5
50804,98783,7
50809,98788,8
50809,98788,5
50807,98736,7
50812,98783,8
50805,98789,9
50804,98797,8
50804,98797,5
50819,98784,7
50789,98777,8
50794,98762,5
50791,98755,7
50782,98765,8
50765,98723,5
50590,98375,7
50590,98375,8
50542,98294,5
50496,98209,7
50390,98141,8
50426,98075,5
50380,98040,7
50390,98056,8
50390,98056,5
50364,98045,7
50409,98086,8
50427,98110,7
50444,98145,5
50488,98192,8
50476,98219,7
50454,98141,10
50438,98124,5
50487,98095,7
50410,98060,5
50382,98002,8
50376,97994,7
50393,97996,5
50396,97990,8
50378,97994,7
50386,98043,8
50386,98043,7
50391,97928,7
50395,98058,8
50409,98072,7
50416,98110,5
50460,98130,8
50460,98130,7
50416,98156,5
50460,98166,8
50462,98170,7
50469,98241,7
50482,98219,8
50482,98219,7
50489,98220,5
50497,98193,10
50491,98278,5
50504,98225,5
50503,98229,10
50499,98233,5
50498,98246,5
50497,98223,10
50497,98223,5
50487,98208,5
50492,98205,10
50487,98197,0
50473,98189,2
50468,98168,5
50469,98152,4
50453,98148,5
50447,98128,5
50444,98124,5
50444,98114,5
50441,98117,4
50436,98110,5
50439,98110,5
50433,98108,5
50430,98115,5
50441,98109,4
50432,98119,5
50433,98114,5
50445,98127,5
50440,98122,5
50442,98132,4
50442,98127,5
50447,98132,5
50451,98140,5
50446,98139,4
50458,98140,5
50455,98151,3
50453,98146,5
50451,98157,5
50466,98153,4
50459,98164,5
50463,98157,5
50462,98154,5
50454,98161,5
50460,98161,4
50464,98158,5
50465,98147,5
50452,98142,5
50457,98147,5
50454,98146,4
50442,98136,5
50450,98122,5
50452,98136,5
50438,98115,5
50438,98111,4
50431,98106,5
50427,98099,6
50423,98096,8
50428,98090,0
50416,98072,4
50409,98042,5
50403,98057,5
50403,98050,5
50396,98029,4
50385,98017,5
50378,98000,5
50364,97971,5
50341,97935,5
50315,97882,4
50278,97806,5
50237,97735,5
50195,97657,5
50148,97575,5
50104,97492,4
50065,97431,5
50027,97371,5
50010,97330,5
49984,97307,5
49999,97301,4
49992,97327,5
50011,97349,5
50021,97356,6
50027,97388,4
50050,97423,4
50074,97465,5
50092,97505,5
50112,97549,5
50151,97592,4
50164,97647,5
50164,97685,5
50215,97719,5
50213,97696,5
50196,97660,4
50101,97634,5
50154,97602,5
50145,97571,5
50139,97547,5
50039,97535,4
50118,97530,5
50110,97518,5
50106,97511,5
50098,97522,5
50115,97526,5
50115,97537,4
50135,97560,5
50201,97579,5
50156,97603,6
50162,97628,3
50176,97643,5
50278,97671,5
50196,97682,5
50202,97705,4
50213,97716,5
50279,97737,5
50238,97751,5
50245,97765,5
50263,97793,4
50277,97792,5
50268,97818,5
50274,97822,5
50272,97830,5
50283,97786,4
50288,97828,5
50284,97838,5
50289,97839,5
50298,97764,5
50297,97861,4
50305,97859,6
50306,97865,4
50304,97781,5
50306,97861,5
50311,97879,5
50315,97877,4
50321,97883,5
50318,97888,5
50316,97885,4
50309,97890,5
50309,97963,5
50313,97883,5
50308,97877,5
50303,97874,4
50312,97962,5
50309,97858,5
50296,97851,5
50299,97836,5
50299,97877,4
50286,97826,5
50284,97825,5
50280,97823,5
50283,97846,5
50276,97824,4
50284,97825,5
50277,97834,6
50291,97842,4
50286,97847,5
50297,97848,4
50298,97849,5
50306,97868,5
50307,97858,5
50305,97875,4
50308,97876,5
50310,97884,5
50318,97883,5
50321,97895,5
50322,97900,4
50332,97897,5
50322,97918,5
50331,97917,5
50330,97928,5
50340,97933,4
50345,97943,5
50348,97943,5
50347,97951,5
50351,97963,5
50352,97965,4
50357,97966,5
50362,97969,5
50355,97976,6
50370,97987,4
50366,97963,4
50363,97971,5
50361,97975,5
50367,97963,5
50351,97946,4
50362,97942,4
50341,97926,5
50336,97910,5
50327,97880,5
50305,97845,4
50281,97811,5
50253,97773,5
50228,97718,5
50206,97675,5
50178,97621,4
50162,97583,5
50139,97556,5
50124,97526,5
50117,97518,5
50107,97510,5
50119,97513,4
50113,97529,5
50121,97534,5
50133,97545,5
50137,97572,4
50149,97587,5
50164,97611,5
50169,97635,5
50185,97654,4
50209,97695,4
50214,97699,5
50216,97677,5
50191,97659,5
50174,97621,4
50158,97597,5
50146,97578,5
50141,97570,5
50134,97552,5
50131,97541,4
50129,97543,5
50131,97546,5
50131,97545,5
50133,97560,5
50138,97572,4
50148,97586,6
50154,97596,4
50160,97629,5
50183,97650,5
50207,97684,4
50216,97703,5
50234,97732,5
50242,97755,5
50256,97774,4
50267,97800,4
50282,97840,5
50255,97860,5
50317,97886,5
50329,97901,4
50334,97916,5
50265,97937,5
50353,97948,5
50352,97948,5
50361,97955,4
50268,97964,5
50361,97965,5
50364,97973,5
50369,97986,5
50373,97986,4
50364,97977,5
50361,97978,6
50357,97970,4
50445,97968,5
50359,97960,4
50364,97959,5
50362,97956,5
50455,97939,5
50343,97938,4
50345,97926,4
50339,97916,5
50372,97899,5
50322,97895,5
50318,97882,4
50312,97868,5
50313,97852,5
50295,97842,5
50286,97829,5
50288,97832,4
50286,97762,5
50282,97813,5
50281,97817,5
50289,97821,5
50292,97749,4
50284,97830,5
50292,97840,5
50298,97848,5
50299,97785,5
50309,97864,4
50311,97875,5
50312,97892,5
50325,97907,5
50330,97892,4
50329,97894,4
50326,97898,5
50339,97985,5
50326,97894,5
50332,97904,4
50334,97894,5
50334,97980,5
50325,97903,5
50332,97902,5
50323,97886,4
50328,97925,5
50314,97881,5
50316,97871,5
50316,97866,5
50306,97866,5
50307,97844,4
50305,97833,5
50292,97833,5
50291,97832,5
50285,97829,4
50280,97808,5
50280,97791,5
50268,97784,5
50260,97771,4
50262,97760,4
50251,97743,5
50231,97719,5
50221,97686,5
50197,97645,4
50178,97600,5
50149,97552,5
50116,97498,5
50097,97445,5
50055,97382,4
50026,97329,5
50005,97284,5
49975,97258,5
49959,97227,5
49960,97221,4
49956,97213,6
49952,97229,4
49963,97226,5
49968,97253,5
49983,97263,4
49991,97293,5
49996,97313,5
50014,97330,5
50032,97350,4
50039,97373,4
50046,97385,5
50066,97405,5
50060,97399,5
50039,97360,4
50024,97332,5
50015,97315,5
50007,97294,5
49998,97292,5
49998,97281,4
50003,97300,5
49998,97287,5
49992,97293,5
50002,97301,5
50003,97321,4
50020,97341,5
50036,97369,6
50054,97392,4
50070,97422,5
50087,97455,4
50108,97501,5
50120,97535,5
50141,97558,5
50159,97590,4
50174,97624,4
50195,97652,5
50204,97678,5
50214,97711,5
50231,97736,4
50246,97751,5
50255,97775,5
50271,97795,5
50274,97798,5
50286,97812,4
50279,97826,5
50284,97814,5
50296,97834,5
50292,97845,5
50307,97854,4
50298,97858,5
50309,97851,5
50298,97849,5
50309,97851,5
50306,97847,4
50297,97847,5
50297,97842,5
50304,97836,5
50291,97833,5
50290,97824,4
50290,97821,5
50288,97813,5
50220,97786,5
50273,97782,4
50267,97771,5
50253,97762,5
50174,97749,5
50248,97746,5
50248,97742,4
50248,97733,5
50177,97740,4
50255,97738,5
50257,97759,5
50259,97749,5
50289,97768,3
50272,97793,5
50279,97803,5
50281,97832,5
50380,97836,4
50305,97856,5
50315,97872,5
50313,97887,5
50411,97907,5
50339,97906,4
50349,97922,5
50356,97932,5
50380,97948,5
50361,97948,4
50361,97955,4
50368,97957,5
50364,97950,5
50371,97964,5
50370,97979,4
50368,97982,5
50366,97914,6
50367,97980,4
50378,97975,5
50373,97975,4
50369,97882,7
50369,97971,3
50365,97945,5
50356,97927,5
50340,97875,4
50331,97896,5
50311,97861,5
50303,97837,5
50277,97854,5
50269,97777,4
50255,97766,5
50241,97738,5
50229,97810,5
50224,97709,4
50225,97697,4
50224,97708,5
50227,97787,5
50235,97729,5
50238,97740,4
50243,97737,5
50248,97770,5
50252,97754,6
50253,97768,4
50266,97788,4
50275,97800,5
50271,97783,5
50268,97769,5
50248,97725,5
50222,97698,4
50200,97679,5
50197,97649,5
50191,97653,5
50193,97641,5
50190,97640,4
50191,97648,5
50193,97648,5
50202,97671,5
50203,97694,4
50229,97710,5
50237,97740,5
50249,97760,5
50273,97800,5
50290,97828,5
50309,97864,4
50325,97889,5
50334,97910,5
50355,97946,6
50367,97975,3
50387,97996,5
50399,98023,5
50408,98040,5
50420,98064,5
50433,98074,4
50433,98088,5
50451,98102,5
50449,98113,5
50457,98105,5
50455,98125,4
50461,98137,5
50466,98138,5
50471,98141,7
50465,98144,2
50470,98148,5
50462,98137,5
50463,98133,5
50462,98132,5
50464,98136,4
50454,98134,6
50458,98117,4
50452,98106,5
50448,98092,5
50440,98083,6
50438,98072,3
50416,98041,5
50412,98028,5
50400,98014,5
50396,98015,4
50392,98009,5
50400,98021,5
50396,98024,5
50408,98025,4
50414,98042,4
50415,98052,5
50429,98070,5
50429,98090,5
50442,98110,4
50459,98133,5
50466,98156,5
50483,98179,5
50492,98207,5
50511,98229,4
50534,98247,5
50535,98257,6
50535,98276,4
50552,98298,5
50552,98298,4
50558,98309,5
50557,98316,5
50562,98332,5
50571,98332,5
50577,98334,4
50573,98338,5
50575,98315,5
50560,98303,5
50562,98288,4
50509,98274,4
50544,98266,5
50526,98242,5
50524,98218,5
50427,98204,4
50494,98184,5
50498,98169,5
50482,98167,5
50393,98150,5
50484,98163,4
50480,98158,5
50479,98172,5
50494,98177,6
50500,98196,4
50501,98204,4
50506,98212,5
50590,98228,5
50527,98246,5
50538,98264,5
50533,98270,4
50630,98262,5
50530,98226,5
50495,98178,5
50483,98141,4
50494,98105,4
50443,98072,5
50437,98052,5
50421,98043,5
50424,98035,4
50421,98040,5
50420,98041,5
50433,98059,5
50431,98032,5
50451,98106,5
50469,98143,4
50478,98168,5
50509,98128,5
50532,98248,5
50542,98280,4
50566,98309,4
50578,98261,5
50591,98369,5
50608,98397,5
50623,98420,4
50639,98470,5
50641,98471,5
50652,98471,5
50661,98488,4
50671,98586,5
50682,98521,5
50687,98532,5
50692,98541,5
50716,98650,4
50732,98595,5
50738,98606,5
50739,98608,5
50738,98646,5
50732,98615,4
50740,98616,6
50744,98609,4
50727,98626,5
50743,98621,5
50731,98608,4
50733,98605,5
50728,98593,5
50725,98590,5
50720,98580,5
50709,98567,4
50703,98554,5
50701,98541,5
50695,98529,5
50695,98527,4
50691,98518,4
50687,98515,5
50686,98535,5
50691,98537,5
50702,98547,4
50712,98564,5
50718,98583,5
50729,98598,5
50748,98626,5
50750,98645,4
50770,98669,5
50785,98706,6
50809,98734,4
50822,98759,5
50832,98790,4
50851,98813,5
50861,98826,5
50860,98832,5
50875,98855,5
50883,98860,4
50869,98860,5
50876,98850,5
50869,98844,5
50859,98823,4
50848,98815,4
50845,98793,5
50834,98780,5
50829,98768,5
50833,98761,4
50819,98759,5
50808,98754,5
50819,98754,5
50826,98751,5
50818,98763,4
50829,98773,5
50836,98776,5
50835,98782,5
50844,98799,5
50848,98811,4
50850,98823,5
50875,98839,5
50871,98846,5
50875,98839,5
50858,98797,4
50825,98757,5
50819,98730,5
50790,98695,5
50780,98675,4
50769,98655,4
50759,98638,5
50746,98622,5
50743,98617,5
50749,98629,4
50751,98636,5
50765,98657,5
50775,98679,5
50780,98690,5
50797,98715,5
50808,98739,4
50820,98759,5
50837,98786,5
50847,98799,5
50864,98821,4
50869,98834,5
50867,98847,5
50870,98863,5
50885,98878,5
50892,98880,4
50901,98901,5
50898,98925,5
50925,98920,5
50922,98938,4
50920,98938,4
50878,98946,5
50936,98961,5
50946,98971,5
50951,98988,4
50874,98986,5
50961,98989,5
50951,98990,5
50962,99003,5
50899,98998,4
50959,98998,6
50967,98991,4
50957,98993,5
51003,99002,5
50947,98992,4
50955,98988,5
50954,98973,5
51027,98956,5
50941,98950,5
50933,98933,4
50923,98924,5
50995,98911,5
50915,98906,5
50917,98900,4
50913,98901,4
50936,98906,5
50907,98908,5
50912,98904,5
50914,98921,4
50922,98905,5
50919,98921,5
50930,98939,6
50933,98933,4
50933,98886,4
50948,98973,5
50948,98967,5
50942,98977,5
50952,98893,5
50956,98990,4
50956,99002,5
50953,99000,5
50966,98958,5
50968,99007,5
50963,99013,5
50963,99003,4
50958,99037,5
50959,98992,5
50956,98989,4
50951,98981,4
50950,99059,5
50932,98948,5
50925,98912,5
50909,98893,4
50886,98916,5
50853,98806,5
50829,98752,5
50808,98707,5
50779,98676,4
50743,98609,5
50732,98583,5
50713,98543,5
50700,98525,5
50696,98516,4
50681,98506,5
50683,98494,5
50671,98491,5
50684,98493,5
50687,98494,4
50692,98515,5
50696,98521,5
50706,98532,5
50705,98553,5
50711,98552,4
50701,98518,5
50683,98475,5
50655,98440,5
50635,98403,4
50613,98356,6
50592,98317,4
50564,98278,5
50545,98248,5
50539,98230,6
50530,98215,3
50521,98211,5
50534,98219,5
50535,98234,5
50545,98246,4
50555,98256,5
50551,98273,5
50565,98287,5
50571,98303,5
50577,98317,4
50594,98326,5
50592,98341,5
50595,98346,5
50611,98371,5
50610,98372,4
50616,98382,5
50627,98392,5
50629,98404,5
50639,98404,4
50641,98410,5
50640,98414,6
50638,98414,4
50634,98411,5
50645,98422,4
50640,98421,7
50647,98426,3
50645,98428,5
50634,98411,5
50635,98416,4
50645,98402,5
50638,98399,5
50632,98389,5
50623,98378,5
50624,98369,4
50612,98357,5
50612,98357,5
50600,98343,5
50593,98340,5
50586,98326,4
50589,98310,5
50570,98287,5
50573,98278,5
50560,98262,4
50554,98262,5
50553,98254,5
50548,98242,6
50540,98242,4
50548,98251,4
50542,98250,5
50553,98238,5
50554,98245,5
50557,98256,5
50555,98265,4
50556,98269,5
50555,98278,5
50571,98296,5
50561,98285,5
50575,98291,4
50576,98297,5
50582,98303,5
50559,98297,5
50585,98307,5
50583,98318,4
50589,98319,5
50525,98324,5
50588,98331,5
50593,98322,5
50592,98341,4
50518,98328,5
50588,98322,5
50593,98334,6
50583,98331,3
50552,98324,5
50582,98315,5
50585,98319,5
50583,98320,5
50632,98316,4
50579,98295,5
50577,98294,5
50574,98285,5
50658,98296,5
50572,98291,4
50565,98275,5
50562,98274,5
50631,98269,5
50545,98261,5
50547,98248,4
50539,98218,5
50538,98185,5
50496,98138,5
50469,98087,4
50427,98016,5
50388,97910,4
50341,97864,5
50300,97785,5
50261,97712,6
50229,97583,3
50195,97606,5
50182,97590,5
50166,97571,5
50177,97494,4
50181,97592,5
50188,97609,5
50203,97631,5
50219,97643,5
50237,97684,4
50242,97721,5
50263,97762,5
50298,97868,5
50316,97841,5
50343,97876,4
50360,97904,5
50355,97983,5
50325,97847,5
50318,97822,4
50292,97792,4
50279,97819,6
50268,97744,4
50263,97729,5
50246,97699,4
50243,97718,5
50248,97701,5
50251,97706,5
50251,97707,5
50252,97713,4
50257,97728,5
50266,97755,5
50286,97774,5
50293,97798,5
50309,97819,4
50321,97842,5
50327,97864,5
50332,97880,5
50349,97896,5
50358,97915,4
50362,97923,5
50379,97948,5
50383,97959,5
50397,97976,4
50398,97997,4
50404,97992,5
50415,98001,6
50417,98017,4
50424,98022,4
50425,98036,5
50427,98042,5
50439,98053,5
50451,98079,5
50459,98085,4
50464,98096,5
50454,98089,5
50466,98083,5
50464,98093,5
50457,98084,4
50449,98066,5
50451,98074,5
50443,98069,5
50436,98057,5
50440,98052,4
50434,98040,5
50424,98030,5
50422,98020,5
50414,98009,5
50408,97993,4
50408,97990,5
50401,97984,5
50398,97971,6
50390,97964,3
50401,97968,5
50394,97962,5
50394,97960,5
50390,97963,5
50395,97976,4
50400,97981,5
50409,97991,5
50405,97995,5
50415,98001,5
50415,98014,4
50421,98024,5
50425,98023,5
50436,98040,5
50439,98046,5
50438,98054,4
50442,98065,5
50451,98067,5
50459,98091,5
50457,98093,5
50456,98099,5
50467,98109,4
50470,98123,5
50466,98128,5
50479,98121,4
50482,98124,5
50479,98134,5
50479,98124,5
50482,98125,5
50479,98125,4
50482,98119,5
50476,98124,5
50470,98117,5
50474,98111,5
50470,98098,4
50464,98085,5
50457,98086,5
50451,98079,5
50412,98057,5
50438,98038,4
50425,98009,5
50397,97975,5
50309,97929,5
50364,97876,5
50323,97839,4
50306,97798,6
50195,97741,4
50260,97705,5
50228,97675,4
50220,97650,5
50203,97642,5
50217,97637,5
50206,97632,5
50213,97650,4
50283,97652,5
50224,97671,5
50229,97696,5
50237,97703,5
50355,97729,4
50269,97753,5
50285,97774,5
50298,97796,5
50359,97806,5
50279,97771,4
50268,97741,5
50253,97712,5
50264,97691,5
50232,97679,5
50241,97676,4
50231,97658,5
50221,97627,6
50220,97665,4
50236,97670,4
50243,97686,4
50242,97614,5
50248,97711,5
50267,97726,5
50273,97746,4
50283,97683,5
50293,97799,5
50305,97812,5
50313,97847,5
50328,97870,4
50337,97877,5
50356,97888,5
50356,97919,5
50366,98009,5
50371,97943,4
50390,97962,5
50396,97967,5
50401,98072,5
50406,97976,5
50405,97984,4
50398,97984,5
50401,98033,5
50406,97990,5
50402,97995,4
50415,98002,4
50401,98006,5
50406,97990,5
50412,97988,5
50407,97984,4
50407,97980,5
50402,97977,5
50403,97977,5
50394,97970,5
50395,97967,4
50392,97958,5
50395,97956,5
50391,97950,5
50384,97941,5
50368,97928,4
50371,97915,5
50355,97897,5
50355,97884,5
50350,97885,5
50350,97864,5
50330,97846,4
50326,97842,5
50331,97857,5
50331,97856,4
50344,97863,4
50338,97868,5
50340,97873,5
50345,97872,5
50350,97882,4
50350,97892,5
50361,97912,5
50367,97907,5
50371,97929,5
50373,97930,4
50375,97930,5
50378,97940,5
50378,97945,5
50385,97957,5
50387,97951,4
50392,97963,5
50395,97962,5
50398,97960,5
50398,97966,5
50398,97974,4
50407,97969,6
50404,97978,4
50407,97971,5
50402,97976,4
50398,97972,4
50399,97968,5
50401,97963,5
50398,97957,5
50395,97963,4
50398,97947,5
50389,97939,5
50387,97941,5
50379,97924,5
50372,97911,4
50359,97911,5
50357,97901,5
50351,97889,5
50351,97874,5
50337,97866,4
50347,97855,5
50328,97854,5
50326,97843,5
50330,97824,4
50314,97808,4
50294,97783,5
50289,97775,5
50275,97745,5
50258,97707,5
50240,97665,4
50215,97621,5
50184,97553,5
50151,97503,5
50119,97443,4
50082,97405,5
50073,97345,5
50034,97306,5
50024,97273,5
50013,97267,4
50008,97258,5
50010,97259,5
50021,97283,5
50029,97289,5
49989,97320,5
50057,97329,4
50061,97351,5
50066,97370,5
49997,97394,6
50082,97416,3
50095,97428,5
50112,97440,5
50011,97418,5
50073,97372,5
50062,97344,4
50044,97309,5
50037,97293,5
50019,97277,5
50014,97266,4
50011,97259,4
50075,97245,5
50008,97256,5
50013,97268,5
50019,97268,4
50121,97295,5
50047,97319,5
50055,97348,5
50064,97376,5
50128,97410,4
50107,97446,6
50125,97468,4
50138,97487,5
50157,97519,5
50157,97534,6
50175,97558,3
50181,97585,5
50198,97541,5
50211,97609,5
50218,97632,4
50229,97644,5
50223,97576,5
50229,97664,5
50242,97672,5
50240,97674,4
50235,97589,5
50251,97677,5
50253,97683,5
50260,97691,4
50254,97712,5
50256,97686,5
50251,97674,5
50250,97679,5
50246,97766,4
50239,97671,5
50241,97656,6
50231,97647,4
50224,97732,5
50227,97636,4
50218,97623,5
50211,97616,5
50208,97636,5
50207,97589,5
50190,97579,4
50189,97586,5
50189,97581,5
50185,97577,5
50173,97566,4
50187,97562,4
50188,97570,5
50193,97585,5
50189,97588,5
50204,97599,4
50218,97635,5
50222,97648,5
50231,97676,5
50252,97701,5
50265,97720,4
50275,97736,5
50286,97762,5
50300,97787,6
50301,97785,4
50307,97811,4
50322,97822,5
50325,97836,5
50328,97851,5
50335,97851,5
50336,97861,4
50346,97875,5
50343,97876,5
50354,97882,5
50354,97896,4
50366,97900,4
50355,97904,5
50367,97902,5
50367,97908,5
50361,97907,4
50370,97905,5
50370,97913,5
50366,97915,5
50374,97916,5
50370,97921,5
50377,97916,4
50362,97907,5
50355,97904,5
50346,97877,6
50342,97860,3
50319,97833,5
50307,97797,5
50294,97769,5
50276,97744,5
50258,97710,4
50246,97679,5
50238,97676,5
50227,97658,5
50223,97661,5
50224,97652,4
50227,97666,5
50231,97668,5
50246,97684,5
50252,97697,4
50264,97732,5
50263,97743,5
50284,97765,5
50292,97788,5
50304,97818,4
50320,97815,6
50333,97838,4
50318,97811,5
50299,97776,5
50276,97753,4
50271,97724,5
50259,97718,5
50254,97710,5
50250,97701,5
50257,97710,4
50249,97704,5
50258,97717,5
50258,97737,5
50277,97756,5
50294,97782,4
50324,97823,5
50324,97857,5
50359,97903,5
50379,97949,4
50404,97997,5
50430,98044,5
50456,98091,5
50475,98129,5
50494,98166,4
50477,98202,5
50530,98224,6
50551,98247,4
50561,98279,5
50500,98292,4
50591,98313,5
50590,98324,5
50592,98326,5
50528,98332,5
50609,98335,4
50601,98349,5
50607,98349,5
50632,98356,5
50608,98346,5
50605,98334,4
50609,98335,5
50675,98336,5
50602,98318,5
50602,98323,4
50594,98314,4
50685,98302,5
50582,98293,5
50576,98290,5
50576,98279,4
50604,98272,5
50559,98254,5
50561,98243,6
50550,98228,4
50552,98230,4
50550,98217,5
50540,98227,5
50545,98231,5
50546,98183,5
50548,98245,4
50554,98251,5
50571,98281,5
50574,98208,5
50590,98319,5
50606,98344,4
50624,98379,5
50639,98330,5
50650,98425,5
50674,98464,5
50686,98479,4
50702,98543,5
50712,98538,5
50735,98581,5
50746,98584,5
50762,98691,4
50768,98620,5
50769,98620,5
50769,98608,5
50754,98699,4
50757,98602,5
50755,98593,5
50737,98574,5
50740,98605,5
50739,98565,4
50730,98554,5
50721,98536,5
50715,98543,5
50727,98544,5
50720,98541,4
50731,98564,5
50734,98573,5
50740,98583,5
50744,98602,4
50750,98599,4
50757,98615,5
50766,98620,8
50776,98628,2
50790,98649,4
50766,98652,6
50778,98632,4
50751,98587,5
50722,98550,5
50699,98517,4
50696,98474,5
50686,98456,5
50680,98448,5
50660,98448,5
50668,98437,4
50672,98454,5
50669,98461,5
50684,98473,5
50695,98506,5
50711,98536,4
50724,98562,5
50749,98595,5
50758,98633,5
50787,98669,4
50812,98714,4
50829,98741,5
50846,98771,5
50859,98793,5
50884,98833,4
50891,98861,5
50918,98881,6
50913,98894,4
50929,98902,5
50932,98910,4
50931,98920,5
50940,98922,5
50950,98936,5
50955,98953,5
50961,98979,4
50961,98972,5
50964,98981,5
50969,98978,5
50971,98976,5
50972,98974,4
50975,98982,5
50961,98973,5
50962,98977,5
50963,98973,5
50963,98962,4
50964,98946,5
50946,98927,5
50941,98919,5
50935,98898,4
50924,98894,5
50924,98874,5
50924,98874,5
50926,98867,5
50911,98877,4
50920,98881,5
50921,98878,5
50931,98894,5
50935,98899,5
50936,98915,4
50937,98931,5
50955,98948,5
50973,98965,5
50974,99002,5
50988,99023,4
51011,99039,5
51012,99068,5
51028,99077,5
51033,99094,5
51041,99108,4
51045,99109,5
51053,99108,5
51049,99102,5
51059,99107,5
51048,99099,4
50998,99085,5
51036,99084,5
51035,99075,5
51025,99070,4
50954,99074,5
51023,99076,5
51018,99069,5
51030,99064,5
50939,99081,4
51038,99097,5
51053,99105,5
51062,99128,5
51078,99149,5
51090,99168,4
51085,99201,5
51120,99228,5
51208,99248,5
51137,99263,5
51127,99236,4
51102,99187,5
51177,99160,5
51066,99129,5
51051,99103,4
51039,99081,5
51069,99053,3
51019,99043,5
51021,99049,5
51014,99042,4
51025,99033,5
51019,99056,5
51033,99064,5
51037,99088,5
51048,99050,4
51064,99124,5
51063,99136,5
51077,99167,5
51089,99096,5
51097,99192,4
51117,99223,5
51120,99223,5
51118,99157,5
51135,99244,5
51129,99253,5
51135,99265,4
51143,99301,6
51146,99268,4
51153,99286,4
51167,99292,4
51165,99397,5
51180,99339,5
51193,99366,5
51205,99379,4
51209,99476,5
51222,99414,5
51222,99410,5
51226,99424,5
51249,99481,4
51245,99454,5
51261,99456,5
51249,99468,5
51262,99465,5
51249,99461,4
51263,99467,5
51259,99463,5
51257,99451,5
51249,99454,5
51248,99439,4
51250,99433,5
51242,99424,5
51243,99421,6
51231,99421,3
51233,99419,4
51235,99419,5
51236,99420,5
51238,99429,5
51246,99435,4
51254,99441,5
51251,99450,5
51261,99469,5
51269,99472,5
51279,99488,4
51285,99483,5
51275,99489,5
51287,99481,5
51280,99475,5
51271,99468,4
51262,99459,5
51258,99441,5
51246,99430,5
51246,99420,5
51243,99407,5
51232,99385,4
51227,99390,5
51231,99385,5
51228,99383,6
51223,99387,3
51232,99390,5
51227,99384,5
51232,99394,5
51228,99401,4
51235,99409,5
51245,99417,5
51247,99433,5
51257,99434,5
51231,99388,4
51214,99358,5
51198,99322,5
51175,99278,5
51156,99247,5
51135,99222,4
51111,99185,5
51098,99155,5
51089,99128,5
51082,99117,5
51075,99093,4
51063,99096,6
51061,99076,4
51055,99088,5
51065,99091,5
51053,99085,4
51067,99099,5
51065,99102,5
51061,99102,5
51066,99101,4
51077,99109,5
51083,99105,5
51080,99117,5
51076,99114,5
51077,99124,4
51080,99118,5
51074,99122,5
51085,99118,5
51084,99127,5
51083,99126,4
51084,99118,5
51082,99123,5
51086,99135,5
51081,99133,5
51088,99130,4
51084,99124,5
51087,99119,6
51081,99119,4
51076,99119,5
51078,99105,4
51072,99113,5
51028,99102,5
51068,99098,5
51069,99087,4
51061,99080,4
50968,99070,5
51048,99051,5
51038,99033,5
51026,99009,4
50931,98980,5
50998,98956,5
50983,98941,5
50974,98919,5
50985,98893,4
50953,98882,5
50945,98874,5
50933,98858,5
51008,98862,5
50941,98859,4
50942,98852,5
50932,98849,5
51023,98861,6
50943,98856,4
50938,98881,4
50947,98866,5
50984,98870,5
50952,98861,5
50946,98875,4
50941,98876,4
50951,98873,5
50949,98875,5
50956,98884,5
50943,98877,4
50948,98823,5
50944,98868,5
50938,98861,5
50936,98839,5
50923,98726,4
50905,98774,5
50864,98745,5
50845,98681,5
50815,98552,5
50780,98570,5
50743,98508,4
50720,98463,5
50698,98467,5
50683,98401,5
50680,98387,4
50660,98370,5
50663,98449,5
50666,98373,5
50672,98380,4
50677,98390,4
50681,98500,5
50692,98432,5
50716,98467,5
50733,98497,4
50749,98546,5
50735,98495,5
50720,98462,5
50705,98430,5
50693,98414,4
50675,98389,5
50654,98358,5
50650,98336,5
50631,98307,5
50616,98297,4
50618,98280,6
50607,98273,4
50616,98278,5
50617,98276,5
50618,98288,4
50619,98285,5
50626,98302,5
50637,98315,5
50632,98319,5
50633,98324,4
50630,98334,5
50636,98337,5
50643,98331,5
50651,98332,4
50652,98337,5
50646,98344,5
50644,98338,5
50642,98342,5
50652,98341,4
50655,98350,5
50660,98351,5
50653,98352,5
50647,98352,5
50652,98358,4
50663,98371,5
50665,98376,6
50675,98379,4
50673,98386,5
50667,98379,4
50677,98377,5
50665,98373,5
50668,98375,5
50668,98374,5
50671,98380,4
50671,98376,5
50678,98385,5
50668,98380,5
50672,98385,4
50668,98371,5
50660,98373,5
50656,98366,5
50661,98355,5
50649,98350,4
50651,98340,5
50644,98332,5
50638,98324,5
50634,98318,5
50631,98315,4
50635,98318,5
50644,98317,5
50635,98319,6
50639,98324,4
50645,98327,4
50647,98338,5
50650,98337,5
50644,98349,5
50645,98355,5
50649,98347,4
50656,98357,5
50668,98368,5
50659,98364,5
50663,98380,4
50671,98377,4
50668,98388,5
50673,98383,5
50674,98386,5
50676,98387,4
50676,98389,5
50678,98391,5
50677,98394,5
50684,98395,5
50676,98406,5
50685,98399,4
50666,98384,5
50676,98388,5
50672,98380,5
50676,98383,4
50665,98375,5
50667,98379,5
50617,98364,5
50658,98368,5
50659,98350,4
50651,98326,5
50549,98290,5
50612,98260,5
50587,98217,4
50553,98161,4
50445,98101,5
50497,98052,5
50458,97982,5
50421,97917,4
50414,97866,5
50372,97842,5
50360,97832,5
50358,97820,5
50432,97828,4
50361,97834,6
50364,97843,4
50388,97868,5
50487,97898,5
50402,97919,4
50416,97943,5
50441,97978,5
50490,98012,5
50487,98051,5
50509,98094,4
50515,98092,5
50507,98051,5
50487,98031,5
50466,98002,4
50445,97983,4
50438,97907,5
50429,97951,5
50421,97939,5
50431,97926,4
50424,97845,5
50415,97917,5
50422,97930,6
50417,97924,4
50422,97880,4
50437,97942,5
50441,97964,7
50442,97975,3
50445,98019,5
50458,97998,4
50469,98023,5
50470,98032,5
50473,98133,5
50489,98053,5
50496,98065,4
50498,98083,5
50507,98185,6
50515,98118,4
50519,98120,5
50537,98134,4
50531,98180,5
50549,98151,5
50541,98157,5
50542,98159,4
50548,98175,5
50560,98178,5
50567,98201,5
50572,98199,5
50573,98211,4
50573,98200,5
50577,98195,5
50572,98210,5
50572,98209,5
50577,98212,4
50571,98216,5
50575,98210,5
50570,98207,5
50567,98218,5
50572,98206,4
50572,98214,5
50568,98206,5
50571,98198,5
50572,98199,5
50561,98178,4
50555,98187,5
50553,98167,5
50550,98156,5
50541,98155,4
50548,98150,5
50540,98137,4
50541,98148,5
50543,98145,5
50548,98153,6
50551,98160,3
50549,98166,5
50542,98176,5
50562,98178,5
50564,98179,4
50562,98192,5
50571,98200,5
50572,98204,5
50582,98215,5
50587,98226,4
50592,98227,5
50586,98237,5
50589,98241,5
50589,98251,5
50598,98246,4
50604,98250,5
50602,98253,5
50602,98260,5
50604,98274,4
50602,98269,4
50612,98267,6
50608,98266,4
50612,98274,5
50603,98276,4
50605,98274,7
50608,98271,3
50613,98263,5
50599,98259,5
50606,98241,4
50595,98234,5
50587,98237,5
50586,98219,5
50579,98196,5
50569,98192,4
50554,98161,5
50530,98120,5
50514,98080,5
50484,98038,5
50455,97980,4
50438,97943,5
50412,97908,5
50393,97860,5
50370,97832,4
50363,97804,4
50343,97799,5
50344,97796,6
50355,97808,4
50356,97822,4
50368,97831,5
50382,97852,5
50387,97872,5
50405,97901,5
50408,97909,4
50424,97940,5
50445,97961,5
50462,97994,5
50425,98024,5
50475,98033,4
50461,97991,5
50438,97956,5
50357,97928,5
50406,97896,5
50400,97878,4
50386,97872,5
50297,97853,5
50373,97834,5
50372,97826,5
50358,97820,4
50376,97820,5
50368,97827,5
50371,97826,6
50370,97833,3
50457,97854,5
50391,97857,5
50395,97879,5
50393,97895,5
50495,97908,4
50427,97930,5
50426,97930,5
50431,97942,5
50476,97964,5
50458,97972,4
50452,97999,5
50472,98002,5
50483,98027,5
50491,98038,5
50488,98053,4
50495,98057,5
50501,98011,5
50503,98072,5
50504,98075,5
50514,98093,5
50514,98021,4
50522,98097,5
50520,98110,5
50519,98096,6
50518,98014,3
50516,98102,5
50520,98100,5
50510,98096,5
50513,98109,4
50504,98074,5
50506,98063,5
50498,98054,5
50500,98127,5
50488,98045,4
50487,98024,5
50473,98010,5
50471,98104,5
50456,97982,5
50449,97984,4
50450,97963,5
50439,97994,5
50443,97954,5
50444,97947,5
50436,97946,4
50441,97953,6
50441,97962,4
50464,97970,5
50452,97983,4
50467,97996,4
50470,98006,5
50473,98021,5
50492,98030,5
50490,98045,4
50492,98042,5
50496,98056,5
50501,98067,5
50514,98074,5
50504,98080,4
50504,98091,5
50522,98092,5
50517,98094,5
50526,98102,5
50527,98102,4
50524,98102,5
50525,98097,5
50525,98103,5
50524,98091,5
50519,98093,4
50518,98090,5
50523,98096,6
50523,98089,4
50512,98088,5
50507,98081,4
50515,98073,5
50500,98071,5
50504,98068,5
50492,98049,4
50490,98052,5
50491,98033,5
50488,98030,5
50480,98018,5
50473,98010,4
50477,98000,5
50473,97992,5
50466,97985,5
50454,97974,5
50456,97970,4
50451,97964,5
50442,97944,5
50436,97944,5
50432,97938,5
50430,97928,4
50423,97915,5
50423,97912,5
50423,97912,6
50417,97907,4
50409,97880,4
50394,97857,5
50382,97837,5
50359,97798,5
50339,97759,4
50324,97724,5
50293,97673,5
50281,97634,5
50253,97610,5
50240,97592,4
50224,97575,5
50229,97571,5
50228,97573,5
50239,97592,5
50251,97615,4
50265,97636,5
50278,97669,5
50294,97688,5
50308,97725,5
50326,97759,5
50348,97787,4
50353,97820,5
50370,97833,5
50384,97852,5
50388,97848,4
50373,97812,5
50347,97770,5
50327,97748,5
50313,97716,4
50307,97697,4
50303,97691,5
50294,97679,5
50280,97683,5
50247,97682,4
50292,97686,5
50293,97701,5
50311,97723,5
50249,97745,5
50339,97773,4
50340,97802,5
50369,97835,5
50301,97872,5
50406,97899,5
50423,97941,4
50449,97968,6
50459,97999,4
50487,98037,5
50503,98056,5
50516,98090,4
50603,98107,5
50549,98132,5
50546,98151,5
50556,98176,4
50653,98176,4
50566,98181,5
50573,98183,5
50569,98184,5
50618,98196,4
50576,98199,5
50579,98198,5
50582,98202,5
50578,98194,5
50569,98195,4
50566,98185,5
50571,98193,5
50568,98144,5
50564,98178,5
50569,98170,4
50559,98162,5
50552,98078,6
50547,98142,4
50545,98130,5
50525,98116,4
50525,98010,5
50522,98090,5
50516,98082,5
50518,98073,4
50514,98086,4
50507,98067,5
50510,98065,5
50506,98069,5
50520,98151,4
50518,98087,5
50533,98094,5
50522,98105,5
50531,98213,5
50547,98125,4
50540,98136,5
50545,98162,5
50559,98225,5
50568,98187,5
50576,98205,4
50580,98206,5
50590,98231,5
50600,98238,5
50605,98247,5
50614,98255,4
50606,98266,5
50617,98287,5
50621,98281,5
50624,98288,5
50634,98299,4
50634,98306,5
50638,98307,5
50643,98316,5
50641,98315,4
50646,98308,5
50638,98299,5
50623,98279,5
50626,98264,5
50611,98240,4
50603,98227,5
50581,98206,5
50563,98177,5
50550,98153,5
50550,98142,5
50539,98125,4
50531,98120,5
50540,98121,5
50531,98125,5
50546,98139,4
50548,98142,5
50550,98153,5
50547,98148,5
50557,98162,5
50559,98171,4
50572,98171,5
50568,98178,5
50570,98200,5
50578,98184,4
50569,98179,4
50556,98150,5
50524,98104,5
50507,98075,5
50497,98038,4
50484,98024,5
50475,98015,5
50475,97992,5
50470,97991,5
50472,98002,4
50474,98010,6
50479,98033,4
50498,98067,5
50514,98094,5
50535,98121,4
50552,98159,5
50578,98200,5
50599,98244,5
50624,98276,5
50642,98309,4
50656,98344,5
50678,98365,5
50694,98410,5
50703,98423,4
50711,98437,4
50724,98452,5
50721,98476,5
50735,98477,5
50732,98488,4
50747,98496,5
50745,98494,5
50753,98496,5
50761,98527,4
50761,98541,4
50768,98530,5
50761,98540,5
50761,98529,5
50757,98531,5
50764,98518,4
50757,98524,5
50755,98525,5
50748,98507,5
50755,98513,5
50742,98504,4
50747,98492,5
50735,98488,5
50735,98470,5
50721,98459,4
50694,98442,4
50722,98437,5
50714,98431,5
50715,98431,5
50646,98449,5
50721,98459,4
50727,98471,5
50725,98471,5
50667,98495,6
50757,98530,3
50776,98555,5
50792,98577,5
50787,98616,5
50827,98652,5
50855,98689,4
50874,98723,5
50947,98764,5
50909,98792,5
50924,98818,5
50935,98841,4
51040,98855,5
50950,98869,5
50956,98886,5
50962,98895,5
51028,98907,4
50975,98918,5
50977,98917,5
50988,98909,5
50994,98906,4
50976,98897,6
50960,98867,4
50954,98862,5
50937,98806,5
50937,98833,6
50929,98816,7
50931,98808,1
50915,98716,5
50915,98819,5
50907,98788,4
50917,98789,5
50914,98717,5
50910,98804,5
50916,98813,5
50929,98831,4
50936,98836,5
50947,98855,5
50947,98867,5
50959,98874,5
50967,98968,4
50967,98887,5
50952,98859,5
50936,98810,5
50905,98884,4
50898,98754,5
50874,98726,6
50873,98721,4
50868,98775,5
50864,98715,4
50869,98725,5
50867,98726,5
50877,98747,5
50893,98762,5
50905,98792,4
50923,98830,5
50934,98859,5
50954,98885,5
50977,98912,5
50992,98944,4
51011,98981,5
51035,99014,5
51055,99047,5
51063,99077,5
51081,99100,4
51090,99116,5
51097,99136,5
51114,99145,5
51120,99165,4
51126,99167,4
51125,99190,5
51137,99195,6
51147,99202,4
51161,99236,4
51175,99256,5
51171,99254,5
51175,99265,5
51171,99262,5
51181,99267,4
51184,99268,5
51175,99273,5
51175,99272,5
51183,99270,5
51175,99264,4
51179,99259,5
51174,99244,5
51175,99240,5
51162,99226,5
51150,99214,4
51146,99205,5
51143,99178,5
51132,99177,5
51132,99173,5
51128,99192,4
51129,99186,5
51145,99199,5
51157,99218,6
51166,99230,3
51170,99253,5
51178,99253,5
51186,99270,5
51194,99291,5
51201,99294,4
51201,99318,5
51224,99324,5
51229,99351,5
51250,99370,5
51244,99389,4
51252,99403,5
51274,99416,5
51268,99415,5
51262,99410,5
51262,99406,4
51257,99394,5
51254,99386,5
51246,99363,5
51236,99352,4
51231,99340,5
51231,99332,4
51218,99332,5
51225,99332,5
51232,99333,4
51221,99334,5
51225,99347,5
51231,99346,5
51231,99354,5
51239,99361,4
51242,99371,5
51254,99393,5
51262,99406,5
51266,99423,5
51282,99450,4
51288,99448,5
51275,99405,5
51255,99376,5
51232,99338,5
51212,99308,4
51174,99271,5
51176,99241,5
51164,99215,5
51155,99203,5
51080,99192,4
51152,99192,6
51149,99196,4
51158,99199,5
51071,99206,4
51154,99220,5
51166,99224,5
51174,99238,5
51140,99253,5
51184,99258,4
51183,99262,5
51184,99279,5
51245,99290,5
51206,99307,5
51203,99306,4
51216,99304,5
51301,99308,5
51207,99308,5
51211,99309,5
51212,99314,4
51287,99320,5
51221,99321,5
51225,99327,5
51231,99342,5
51251,99348,4
51234,99353,5
51233,99349,6
51236,99347,4
51233,99328,4
51229,99352,4
51227,99350,5
51230,99347,5
51237,99260,5
51226,99327,4
51219,99317,5
51212,99312,5
51206,99222,5
51198,99299,5
51186,99271,5
51178,99246,4
51167,99201,5
51157,99214,5
51148,99191,5
51149,99182,4
51143,99228,5
51137,99173,5
51135,99167,5
51119,99157,5
51134,99249,4
51123,99150,5
51128,99149,5
51129,99160,6
51131,99234,3
51129,99168,4
51132,99177,5
51135,99174,5
51142,99203,5
51151,99191,4
51147,99203,5
51155,99197,5
51150,99198,5
51149,99201,5
51152,99199,4
51145,99189,5
51137,99187,5
51144,99165,5
51126,99154,5
51102,99128,4
51093,99089,5
51062,99045,5
51050,99006,5
51018,98965,5
50997,98923,5
50974,98883,4
50962,98862,5
50945,98841,5
50942,98838,4
50943,98827,4
50935,98831,5
50942,98816,5
50943,98827,5
50946,98830,4
50948,98845,5
50962,98861,5
50972,98886,5
50975,98906,5
50985,98904,4
50962,98852,5
50944,98820,5
50923,98798,5
50915,98755,5
50879,98711,4
50860,98682,5
50847,98634,5
50823,98603,5
50814,98579,5
50801,98565,4
50793,98557,6
50787,98552,4
50787,98559,5
50790,98557,5
50797,98566,4
50806,98574,5
50800,98582,5
50821,98607,5
50817,98602,4
50823,98617,5
50824,98616,5
50835,98635,5
50831,98634,5
50835,98652,4
50843,98651,5
50850,98666,5
50852,98668,5
50863,98682,5
50864,98687,4
50872,98691,5
50866,98692,5
50867,98699,5
50871,98705,5
50882,98724,4
50878,98723,5
50886,98716,6
50879,98716,4
50881,98718,5
50883,98712,4
50874,98703,5
50872,98701,5
50873,98693,5
50869,98689,4
50859,98694,4
50855,98680,5
50861,98670,5
50857,98654,5
50842,98651,4
50837,98630,5
50829,98607,5
50811,98599,5
50816,98592,5
50808,98568,5
50795,98554,4
50782,98554,5
50785,98552,5
50784,98540,5
50782,98537,4
50720,98534,5
50791,98530,5
50781,98542,5
50787,98547,5
50702,98549,4
50782,98545,5
50791,98549,5
50791,98554,5
50743,98568,4
50802,98559,4
50800,98565,5
50810,98574,5
50848,98597,5
50814,98594,4
50815,98599,5
50825,98614,5
50914,98622,5
50834,98617,5
50834,98642,4
50838,98628,5
50909,98631,5
50835,98632,5
50836,98630,5
50840,98625,5
50858,98626,4
50830,98619,5
50819,98609,5
50821,98601,5
50827,98582,4
50818,98590,5
50808,98591,5
50810,98576,5
50804,98496,4
50794,98551,4
50781,98530,5
50786,98522,5
50763,98409,5
50732,98460,4
50705,98398,5
50672,98329,5
50637,98226,5
50597,98191,5
50553,98117,4
50520,98058,5
50490,98055,5
50464,97980,4
50455,97964,5
50459,97969,4
50460,98070,7
50473,97992,3
50489,98013,5
50500,98037,5
50513,98143,4
50525,98101,5
50558,98136,5
50568,98186,5
50590,98249,4
50622,98268,4
50636,98305,5
50645,98307,5
50634,98268,5
50615,98243,4
50600,98215,5
50581,98178,5
50571,98157,5
50559,98137,5
50551,98119,4
50546,98103,5
50536,98107,5
50531,98109,6
50538,98101,4
50544,98107,4
50540,98122,5
50555,98128,5
50556,98147,5
50568,98166,5
50577,98189,4
50587,98202,5
50592,98227,5
50609,98232,5
50625,98252,4
50617,98263,4
50635,98291,5
50641,98293,5
50656,98323,5
50665,98347,4
50668,98341,5
50680,98363,5
50689,98374,5
50694,98390,5
50683,98393,5
50703,98404,4
50701,98410,5
50706,98405,5
50718,98422,6
50721,98426,3
50719,98431,5
50714,98425,5
50719,98414,5
50715,98427,5
50717,98420,4
50708,98418,5
50707,98417,5
50700,98414,5
50707,98403,5
50696,98399,4
50699,98386,5
50693,98377,5
50687,98372,5
50675,98359,4
50674,98342,5
50674,98336,5
50657,98319,5
50655,98311,5
50645,98305,4
50650,98284,6
50644,98286,4
50638,98284,5
50645,98277,5
50646,98299,6
50645,98294,3
50641,98296,5
50647,98312,5
50659,98311,5
50659,98323,4
50656,98325,5
50669,98335,5
50674,98343,5
50675,98348,5
50669,98360,4
50688,98369,5
50688,98371,5
50682,98381,5
50695,98376,4
50686,98387,5
50702,98389,5
50701,98381,5
50690,98391,5
50702,98401,4
50693,98392,5
50708,98395,6
50680,98397,4
50698,98394,5
50694,98381,4
50688,98375,5
50628,98374,5
50685,98379,5
50687,98370,5
50683,98356,4
50598,98357,5
50675,98354,5
50677,98338,5
50666,98330,5
50633,98315,4
50655,98307,5
50647,98297,5
50633,98260,5
50666,98232,4
50600,98184,7
50575,98145,3
50540,98093,5
50588,98050,5
50482,97986,4
50449,97927,5
50424,97886,5
50469,97863,6
50394,97847,4
50383,97830,4
50387,97822,5
50408,97836,5
50395,97850,5
50408,97864,5
50418,97880,4
50421,97882,5
50434,97920,5
50454,97962,5
50462,97995,5
50489,97949,4
50500,98045,5
50514,98049,5
50499,98031,5
50478,97908,4
50462,97966,4
50452,97945,5
50435,97930,5
50433,97884,5
50425,97909,5
50425,97903,4
50422,97892,5
50412,97950,5
50417,97891,6
50421,97907,3
50423,97915,5
50441,98029,5
50453,97947,5
50467,97961,5
50473,97982,4
50492,98066,5
50489,98036,5
50499,98049,5
50518,98077,5
50531,98105,4
50532,98110,5
50546,98123,5
50565,98145,5
50574,98165,4
50576,98171,4
50586,98191,5
50591,98194,5
50587,98202,5
50587,98207,4
50593,98205,6
50603,98218,4
50594,98220,5
50606,98220,5
50601,98224,4
50600,98222,5
50606,98221,5
50609,98212,5
50596,98211,5
50593,98211,4
50606,98205,5
50598,98207,5
50584,98199,5
50590,98202,5
50589,98188,4
50579,98173,5
50570,98162,5
50560,98156,5
50561,98145,4
50558,98140,4
50552,98122,5
50543,98109,5
50544,98105,5
50536,98091,4
50544,98093,5
50527,98094,6
50530,98089,4
50532,98084,5
50541,98096,4
50538,98107,5
50544,98108,5
50542,98123,5
50557,98124,5
50552,98120,4
50560,98134,5
50556,98138,5
50562,98146,5
50558,98139,5
50568,98138,4
50568,98147,5
50568,98146,5
50565,98155,5
50569,98148,4
50564,98153,4
50570,98159,5
50570,98161,5
50575,98160,5
50574,98167,4
50572,98157,5
50579,98169,5
50578,98177,6
50576,98167,4
50579,98172,4
50570,98161,5
50579,98164,5
50578,98163,5
50574,98155,5
50566,98164,4
50568,98146,5
50564,98143,5
50559,98130,5
50551,98128,5
50555,98101,4
50546,98100,5
50539,98089,5
50529,98068,5
50519,98063,5
50521,98035,4
50487,98008,5
50488,97974,5
50445,97923,5
50428,97873,5
50393,97818,4
50368,97750,5
50328,97701,5
50261,97641,5
50265,97579,4
50245,97546,5
50218,97509,5
50141,97489,5
50207,97479,5
50199,97480,4
50209,97486,5
50128,97498,5
50225,97509,5
50228,97542,5
50238,97557,4
50215,97572,5
50250,97592,5
50274,97612,5
50293,97639,5
50350,97663,4
50300,97651,5
50294,97626,5
50269,97585,5
50345,97569,4
50246,97545,6
50226,97536,4
50227,97521,5
50288,97514,5
50218,97496,4
50220,97513,5
50224,97515,5
50243,97523,5
50224,97534,5
50244,97545,4
50246,97562,5
50258,97545,5
50272,97608,5
50286,97629,5
50298,97649,4
50305,97606,5
50319,97699,5
50340,97718,5
50333,97733,5
50351,97671,4
50360,97769,5
50378,97789,6
50376,97808,4
50382,97787,4
50393,97820,4
50403,97831,7
50404,97849,3
50408,97901,5
50415,97846,4
50417,97859,5
50422,97872,5
50418,97980,5
50427,97891,5
50431,97884,4
50426,97878,5
50423,97944,5
50429,97886,5
50435,97899,5
50434,97902,4
50435,97913,5
50430,97900,5
50432,97899,5
50436,97896,5
50427,97889,4
50429,97885,5
50420,97872,5
50421,97875,5
50408,97853,4
50404,97855,4
50405,97847,5
50404,97841,5
50408,97849,5
50404,97841,4
50398,97838,5
50405,97855,5
50408,97869,5
50421,97873,5
50433,97902,4
50439,97923,5
50448,97941,5
50462,97972,5
50472,97984,5
50490,98014,4
50506,98031,5
50507,98049,5
50512,98051,5
50524,98078,5
50534,98091,4
50539,98105,4
50543,98100,5
50556,98112,5
50559,98134,5
50556,98130,3
50570,98152,5
50568,98156,5
50571,98159,5
50577,98175,4
50574,98174,5
50591,98177,5
50587,98177,5
50580,98177,5
50580,98176,4
50580,98178,5
50585,98169,5
50578,98166,5
50576,98159,5
50566,98149,4
50566,98144,5
50556,98142,5
50548,98121,5
50556,98109,5
50534,98095,4
50527,98066,6
50512,98030,4
50485,98000,5
50472,97957,4
50448,97916,6
50426,97876,3
50402,97844,5
50385,97814,5
50363,97789,4
50364,97775,5
50358,97771,5
50355,97781,5
50362,97794,5
50359,97799,4
50374,97814,5
50390,97842,5
50396,97864,5
50414,97890,5
50429,97911,4
50439,97938,5
50460,97978,5
50481,97996,5
50476,97987,5
50461,97953,4
50439,97930,5
50430,97896,6
50425,97889,4
50407,97865,4
50408,97861,4
50410,97859,5
50404,97864,5
50403,97866,5
50379,97881,4
50428,97906,5
50444,97930,5
50457,97951,5
50395,97999,5
50492,98022,4
50509,98075,5
50539,98108,5
50470,98136,5
50577,98178,5
50612,98214,4
50618,98244,5
50627,98277,5
50644,98296,5
50658,98327,5
50672,98336,4
50741,98353,5
50690,98370,5
50689,98389,6
50708,98400,3
50802,98404,4
50707,98401,5
50712,98406,5
50711,98411,5
50770,98421,4
50715,98418,5
50715,98423,5
50706,98409,5
50718,98408,5
50712,98409,4
50706,98398,5
50708,98405,5
50704,98350,5
50701,98382,5
50695,98382,4
50684,98363,5
50685,98274,5
50666,98323,5
50660,98322,5
50651,98300,5
50648,98208,4
50642,98283,5
50637,98270,5
50623,98268,6
50633,98269,3
50643,98259,5
50638,98275,5
50649,98287,5
50646,98389,4
50662,98323,5
50671,98332,5
50682,98359,5
50703,98494,5
50708,98401,4
50727,98442,5
50749,98462,5
50753,98542,5
50760,98515,5
50790,98543,4
50793,98563,5
50803,98591,5
50816,98589,5
50825,98611,5
50831,98638,4
50841,98646,6
50849,98640,4
50846,98652,5
50852,98651,5
50846,98638,4
50841,98623,5
50827,98606,5
50808,98579,5
50795,98544,4
50772,98503,5
50759,98479,5
50740,98438,5
50722,98415,5
50710,98391,4
50694,98386,5
50689,98367,5
50692,98351,5
50683,98358,5
50691,98371,4
50685,98381,5
50705,98391,5
50696,98394,5
50711,98398,5
50715,98412,4
50717,98411,5
50725,98422,6
50727,98446,4
50733,98431,5
50731,98426,4
50697,98366,5
50686,98340,5
50669,98311,5
50648,98297,4
50646,98293,5
50638,98282,5
50647,98274,5
50645,98282,5
50647,98285,4
50650,98298,5
50672,98333,5
50680,98356,5
50694,98390,5
50710,98422,4
50730,98451,5
50759,98489,5
50773,98521,5
50789,98557,5
50821,98585,4
50837,98632,5
50856,98666,5
50872,98700,6
50892,98722,4
50905,98746,4
50917,98763,5
50929,98790,5
50938,98803,5
50947,98826,4
50953,98832,4
50965,98845,5
50975,98871,5
50982,98890,5
50993,98897,4
50996,98898,5
51001,98898,5
50994,98904,5
50997,98906,5
50988,98898,4
50996,98897,5
50999,98899,5
50986,98891,5
50987,98894,5
50989,98890,5
50987,98881,4
50978,98868,5
50965,98852,5
50970,98833,5
50949,98834,4
50956,98824,5
50948,98817,5
50952,98820,5
50960,98825,9
50911,98830,5
50959,98847,5
50963,98843,5
50982,98879,4
50919,98899,5
51010,98938,5
51027,98967,5
51048,98998,5
50985,99045,4
51094,99086,5
51108,99129,5
51142,99165,5
51153,99205,5
51174,99233,4
51192,99271,6
51206,99299,4
51291,99330,5
51245,99351,5
51248,99356,4
51251,99368,5
51350,99362,5
51243,99351,5
51233,99344,4
51236,99340,4
51283,99327,5
51222,99322,5
51220,99314,5
51223,99308,4
51236,99312,5
51226,99321,5
51233,99346,5
51242,99373,5
51281,99372,4
51292,99454,5
51324,99509,5
51358,99567,5
51385,99539,5
51418,99679,4
51463,99754,5
51508,99827,6
51525,99782,4
51539,99871,5
51530,99856,4
51523,99847,5
51522,99852,5
51532,99849,5
51534,99869,4
51551,99881,4
51562,99991,5
51586,99951,5
51610,100016,5
51653,100083,4
51704,100278,5
51757,100285,5
51807,100381,5
51878,100481,5
51920,100614,4
51970,100650,5
52026,100759,5
52083,100843,5
52133,100945,5
52196,101033,4
52245,101122,5
52277,101188,5
52317,101258,5
52342,101319,5
52369,101347,4
52382,101386,5
52401,101422,5
52419,101438,5
52419,101447,4
52430,101462,4
52429,101479,5
52457,101511,5
52476,101557,5
52492,101575,4
52503,101593,5
52512,101621,5
52538,101660,5
52562,101718,5
52583,101743,4
52603,101783,5
52623,101828,5
52641,101865,5
52650,101871,5
52658,101882,5
52666,101891,4
52654,101901,5
52653,101904,5
52664,101904,5
52651,101916,4
52648,101906,5
52642,101896,5
52631,101877,5
52603,101859,4
52593,101827,4
52571,101787,5
52556,101791,5
52541,101764,5
52537,101787,4
52542,101786,5
52548,101808,5
52542,101802,5
52543,101813,5
52542,101813,4
52560,101811,5
52551,101798,5
52542,101804,5
52534,101771,5
52505,101719,4
52472,101668,6
52430,101623,4
52409,101564,5
52381,101533,5
52354,101497,4
52333,101457,5
52323,101431,5
52300,101397,5
52290,101369,4
52270,101349,4
52266,101342,5
52261,101339,5
52259,101311,5
52246,101298,4
52231,101283,5
52221,101265,5
52219,101259,5
52221,101265,5
52226,101258,4
52216,101239,5
52185,101189,5
52142,101110,5
52115,101061,5
52090,101025,4
52059,100982,5
52050,100952,5
52026,100905,5
52004,100880,5
51993,100860,4
51988,100855,5
51990,100865,5
51980,100865,5
51994,100883,4
52005,100908,4
52029,100944,5
51996,100980,5
52060,101017,5
52091,101073,4
52110,101114,5
52060,101147,5
52162,101180,5
52172,101211,5
52178,101227,5
52107,101240,4
52188,101249,5
52192,101278,5
52200,101298,6
52257,101343,3
52242,101388,5
52250,101421,5
52269,101444,5
52370,101481,5
52321,101555,4
52355,101614,5
52374,101653,5
52455,101675,5
52371,101691,4
52385,101745,4
52419,101801,5
52466,101835,5
52446,101830,5
52430,101828,4
52424,101814,5
52415,101777,5
52404,101809,5
52403,101807,5
52385,101768,4
52349,101644,6
52314,101652,4
52285,101644,5
52275,101616,5
52258,101499,6
52249,101566,3
52225,101536,5
52190,101489,5
52181,101410,5
52173,101440,5
52159,101438,4
52165,101467,5
52158,101506,5
52158,101437,5
52150,101457,4
52182,101538,5
52238,101753,5
52315,101782,5
52352,101838,4
52358,101872,5
52360,101932,5
52362,101885,5
52353,101861,5
52350,101847,4
52321,101862,5
52315,101825,6
52301,101770,4
52266,101703,5
52231,101667,4
52252,101713,5
52285,101746,5
52285,101737,5
52271,101730,5
52276,101727,4
52259,101721,5
52270,101746,5
52280,101749,5
52305,101793,5
52301,101778,4
52292,101756,5
52249,101644,5
52186,101539,5
52139,101463,4
52107,101418,5
52093,101370,5
52005,101205,5
51929,101075,5
51850,100910,4
51737,100715,5
51631,100540,5
51569,100469,6
51552,100427,4
51480,100295,4
51426,100236,5
51385,100204,5
51420,100304,5
51465,100406,5
51572,100609,4
51713,100847,5
51852,101087,5
52057,101416,5
52266,101697,5
52457,101874,4
52652,101980,5
52707,102008,5
52728,101936,5
52465,101485,4
52627,101506,5
52428,101102,5
52484,100868,5
52417,100649,5
52199,100228,5
51870,99796,4
51614,99226,5
51459,98835,5
51396,98804,6
50922,98062,3
50645,97703,5
50641,97457,5
50589,97310,5
50476,97342,5
50548,97572,4
50794,98014,5
51035,98421,5
51247,98798,5
51453,99146,5
51663,99492,4
51813,99806,5
52170,100361,5
52418,100705,5
52601,100982,4
52915,101589,4
53331,102169,5
53564,102501,5
53743,102819,5
53927,103076,4
54041,103319,6
54276,103719,4
54463,104030,5
54695,104447,5
54955,104915,4
55237,105356,5
55502,105869,5
55820,106405,5
56039,106765,5
56346,107341,4
56672,107892,5
56901,108201,5
57051,108449,5
57188,108741,5
57417,109109,4
57591,109361,5
57684,109526,5
57748,109777,5
58006,110139,4
58211,110460,4
58339,110680,5
58341,110827,5
58486,110888,5
58503,110947,4
58619,111179,5
58704,111409,6
58875,111661,4
58945,111784,5
58969,111779,4
59050,111875,5
59034,111900,5
58963,111761,5
58958,111780,5
59038,111669,4
58775,111388,5
58663,111247,5
58550,110982,5
58381,110517,5
58063,110134,4
57937,109908,5
57753,109542,5
57693,109432,5
57593,109267,4
57352,108791,4
57244,108637,5
57200,108503,5
57164,108473,5
57178,108467,4
57194,108423,5
57142,108301,5
57271,108633,5
57635,109291,5
58031,109919,4
58368,110391,5
58771,111203,5
59315,112194,5
59715,112595,5
59777,112782,4
59992,113258,5
60093,113276,5
60077,113307,5
60075,113333,5
60104,113331,4
60117,113352,5
60095,113271,5
59996,113160,5
59879,112836,4
59719,112527,4
59467,112038,5
59140,111443,5
58950,111063,5
58769,110637,5
58712,110880,4
59093,111082,5
58833,110933,5
59494,112375,5
59915,112746,4
60465,114501,5
60006,112897,5
59149,111426,5
58725,110651,5
58517,110236,4
58131,109442,5
57718,108701,5
57389,108096,5
57193,107816,5
57024,107453,4
56848,107131,5
56675,106783,5
56527,106462,5
56462,106498,5
56502,106581,4
56489,106512,5
56292,106125,5
56149,105950,5
56122,105858,4
55958,105527,6
55790,105220,4
55754,105220,5
55798,105345,5
61395,120125,4
64790,123474,5
60986,115564,5
59953,114713,5
60426,115380,5
60402,115154,4
60190,114781,5
60148,114692,5
60159,114695,5
60223,114772,5
60289,114941,4
60357,115029,5
60370,115048,5
60380,115053,5
60329,114941,5
60249,114770,4
60157,114601,5
60051,114417,5
60050,114430,5
60063,114438,4
60027,114341,5
59944,114193,6
59948,114196,4
59920,114120,5
59880,114046,4
59866,113989,5
59770,113800,5
59753,113778,5
59769,113837,5
59770,113827,4
59779,113858,5
59805,113881,5
59769,113798,5
59762,113816,5
59801,113914,4
59813,113897,5
59803,113867,5
59818,113909,5
59856,113976,5
59887,114050,4
60019,114272,5
60100,114387,5
60173,114512,5
60202,114535,7
60226,114590,2
60239,114596,5
60228,114582,5
60211,114555,5
60228,114602,4
60266,114696,5
60344,114850,5
60405,114982,5
60506,115132,5
60532,115156,4
60542,115141,5
60530,115092,5
60527,115128,5
60584,115144,5
60507,115007,4
60457,114850,5
60419,114800,5
60401,114731,5
60296,114634,5
60282,114463,5
60268,114413,4
60226,114309,5
60082,114174,5
60110,114035,5
60058,113925,4
60027,113852,5
59935,113753,5
59939,113667,5
59896,113558,4
59765,113273,5
59689,113020,5
59531,112809,5
59418,112576,5
59307,112341,4
59296,112127,5
59106,111975,5
59081,111897,5
59020,111768,5
59009,111604,4
58869,111451,5
58801,111293,5
58734,111156,5
58706,111063,5
58624,110904,4
58538,110698,5
58427,110467,5
58310,110219,5
58199,110019,4
58126,109853,5
58048,109678,4
57979,109420,5
57900,109316,5
57807,109132,4
57740,109049,5
57738,108824,5
57709,108834,5
57674,108716,5
57625,108606,4
57565,108467,5
57527,108377,5
57461,108200,5
57349,107949,5
57243,107784,4
57125,107441,5
57001,107218,5
56908,106992,5
56786,106829,5
56637,106424,4
56476,106099,5
56344,105850,5
56204,105612,4
56078,105316,4
55927,105032,4
55855,104850,6
55780,104676,3
55696,104449,5
55566,104234,4
55491,104064,5
55408,103869,5
55295,103660,5
55202,103497,5
55170,103367,4
55127,103266,5
55116,103183,5
55069,103072,5
54962,102860,5
54938,102778,4
54916,102651,5
54820,102445,5
54717,102253,5
54630,102091,5
54579,101968,4
54547,101870,5
54477,101727,5
54390,101550,6
54301,101394,4
54228,101248,4
54140,101062,5
54065,100943,5
54040,100848,5
53985,100752,4
53933,100627,5
53854,100462,5
53786,100337,5
53717,100167,5
53641,100018,4
53577,99918,5
53536,99808,5
53467,99671,5
53364,99491,5
53265,99297,4
53209,99220,5
53182,99160,5
53102,99037,5
53025,98879,5
52957,98756,5
52919,98678,4
52855,98568,5
52763,98405,5
52720,98351,6
52691,98298,3
52676,98793,5
52640,98695,5
52583,98578,5
52536,98502,4
52478,98395,5
52390,98260,5
52337,98161,5
52279,98099,5
52243,98003,4
52190,97911,5
52137,97839,5
52119,97782,5
52107,97764,5
52062,97684,4
52010,97583,5
51968,97510,5
51948,97476,5
51920,97422,5
51909,97358,4
51883,97299,6
51837,97196,4
51775,97088,5
51737,97011,5
51719,96984,6
51717,96954,3
51680,96864,5
51642,96804,5
51616,96739,4
51559,96659,4
51498,96488,5
51413,96340,5
51335,96220,5
51265,96105,4
51219,96047,5
51252,96076,5
51279,96102,5
51259,96078,5
51253,96072,4
51250,96120,5
51338,96242,5
51377,96304,5
51404,96328,5
51344,96329,4
51401,96322,5
51406,96331,6
51425,96372,4
51402,96493,5
51568,96658,4
51621,96764,5
51679,96837,5
51683,96909,5
51733,96912,4
51714,96879,4
51719,96890,5
51773,96911,5
51753,96952,5
51744,96925,4
51714,96875,5
51772,96844,5
51675,96795,5
51649,96741,5
51646,96750,4
51734,96811,5
51713,96853,5
51696,96814,5
51672,96760,5
51658,96720,4
51609,96650,5
51568,96574,5
51532,96506,6
51484,96410,4
51448,96361,4
51406,96263,5
51347,96187,5
51302,96042,5
51231,95972,5
51160,95846,4
51105,95734,5
51047,95589,5
51026,95615,5
51007,95566,4
50970,95527,5
50960,95490,5
50959,95527,5
50973,95521,5
50951,95479,4
50910,95490,5
50923,95452,5
50917,95441,5
50893,95376,5
50866,95416,5
50843,95294,4
50815,95234,5
50783,95177,5
50755,95171,6
50732,95088,3
50724,95088,5
50728,95073,5
50703,95049,5
50697,95026,5
50705,95041,4
50752,95147,5
50822,95275,5
50867,95330,5
50905,95409,4
50959,95505,5
51027,95633,5
51118,95797,5
51224,95984,5
51332,96170,4
51439,96341,5
51537,96513,5
51617,96646,5
51685,96752,5
51737,96834,4
51790,96932,6
51845,97043,4
51895,97116,5
51923,97168,5
51951,97193,4
51949,97204,5
51957,97215,5
51971,97238,5
51965,97237,5
51972,97246,4
51963,97232,5
51962,97233,5
51960,97221,5
51962,97234,4
51965,97238,4
51960,97224,5
51956,97229,5
51966,97245,5
51986,97291,4
51993,97324,5
52040,97391,5
52063,97431,5
52084,97463,5
52090,97482,4
52104,97500,5
52112,97523,6
52123,97536,4
52146,97583,5
52177,97629,4
52196,97703,5
52244,97775,5
52289,97855,5
52337,97953,5
52386,98046,4
52446,98159,5
52490,98241,5
52526,98287,5
52540,98326,4
52552,98338,4
52565,98364,5
52568,98372,5
52566,98364,5
52559,98367,4
52573,98378,5
52570,98384,5
52565,98388,5
52570,98385,5
52578,98408,4
52593,98421,5
52602,98451,5
52607,98479,6
52626,98503,4
52653,98561,4
52687,98623,5
52730,98730,5
52767,98808,5
52805,98875,5
52857,98951,4
52892,99018,5
52927,99112,5
52974,99183,5
53013,99255,4
53046,99340,4
53096,99409,5
53127,99471,5
53172,99559,5
53215,99644,4
53267,99728,5
53299,99833,5
53369,99937,5
53431,100041,5
53480,100137,5
53475,100230,4
53565,100310,5
53600,100361,5
53613,100387,5
53551,100403,4
53632,100415,5
53626,100433,5
53640,100443,5
53605,100447,5
53649,100459,4
53651,100467,5
53647,100450,5
53682,100457,5
53634,100441,4
53623,100416,4
53620,100402,5
53690,100399,5
53612,100400,5
53614,100390,4
53596,100370,5
53655,100365,5
53589,100375,5
53599,100381,5
53598,100394,4
53642,100418,6
53631,100433,4
53652,100484,5
53671,100521,5
53691,100554,4
53732,100621,5
53759,100696,5
53805,100778,5
53856,100807,5
53881,100923,4
53903,100934,5
53891,100921,5
53879,100832,5
53876,100887,5
53870,100905,4
53889,100931,5
53904,100927,5
53922,100988,5
53934,101030,4
53980,101078,5
54011,101197,5
54035,101221,6
54093,101293,4
54130,101379,4
54170,101531,5
54222,101533,7
54259,101632,3
54302,101688,5
54336,101799,4
54348,101787,5
54359,101800,5
54367,101821,5
54374,101833,5
54375,101833,4
54381,101848,5
54382,101859,5
54398,101879,5
54397,101888,5
54405,101901,4
54412,101908,5
54420,101930,5
54430,101944,5
54447,101967,4
54448,101976,4
54462,101986,5
54456,101989,5
54475,102027,5
54485,102043,4
54491,102050,5
54506,102076,5
54510,102091,5
54527,102117,5
54543,102142,4
54552,102165,5
54568,102184,5
54577,102219,5
54578,102212,5
54586,102224,4
54584,102214,5
54584,102229,5
54584,102238,5
54581,102222,5
54567,102230,4
54581,102231,5
54585,102241,5
54592,102256,5
54600,102276,4
54616,102309,4
54629,102335,5
54643,102376,5
54666,102406,5
54681,102439,5
54705,102476,4
54708,102506,5
54728,102537,5
54741,102563,5
54760,102590,4
54776,102619,5
54785,102633,5
54798,102665,5
54804,102684,5
54808,102703,4
54824,102708,5
54832,102729,5
54831,102733,5
54835,102746,5
54835,102744,4
54825,102716,5
54815,102691,5
54801,102674,5
54789,102654,4
54777,102632,4
54768,102614,6
54754,102594,4
54750,102572,5
54740,102554,4
54741,102555,7
54732,102559,3
54724,102572,5
54741,102562,5
54744,102571,4
54749,102601,5
54767,102613,5
54767,102633,5
54775,102643,5
54794,102672,4
54810,102716,5
54843,102771,5
54865,102809,5
54872,102789,5
54836,102742,4
54820,102706,5
54802,102675,5
54794,102659,5
54794,102647,4
54787,102641,4
54786,102633,5
54750,102640,6
54774,102646,4
54785,102655,4
54784,102654,5
54733,102665,5
54807,102681,5
54803,102698,5
54825,102719,4
54754,102739,5
54834,102759,5
54846,102769,5
54858,102786,5
54853,102804,4
54878,102814,5
54881,102831,5
54893,102846,5
54956,102864,5
54909,102872,4
54910,102889,5
54924,102899,5
55007,102911,5
54933,102929,5
54949,102952,4
54954,102982,5
55006,102983,5
54968,102975,6
54967,102984,3
54964,102996,5
54987,102993,5
54973,103001,5
54969,102998,5
54968,102993,4
54972,102965,5
54968,102976,5
54962,102968,5
54960,102955,5
54942,102879,4
54946,102922,5
54933,102912,5
54926,102903,5
54914,102827,5
54907,102880,5
54917,102872,4
54907,102875,5
54904,102868,5
54899,102871,5
54909,102870,5
54906,102882,4
54913,102959,5
54912,102895,5
54933,102924,6
54938,102937,3
54953,103047,5
54966,102987,5
54969,102996,5
54990,103025,4
54997,103083,5
55006,103058,5
55008,103067,5
55022,103078,5
55020,103113,4
55030,103124,5
55047,103133,5
55059,103157,5
55074,103178,5
55079,103186,4
55074,103175,5
55066,103166,5
55057,103149,5
55050,103117,5
55045,103103,4
55019,103077,6
55011,103042,4
54984,103023,5
54967,102989,4
54966,102969,4
54953,102965,5
54957,102972,5
54957,102979,5
54971,102986,4
54973,102993,5
54975,103025,5
54993,103041,5
55017,103074,5
55028,103111,4
55047,103151,5
55081,103218,5
55112,103270,5
55145,103316,5
55150,103314,4
55128,103263,5
55096,103212,5
55065,103164,5
55044,103133,5
55035,103105,4
55023,103064,5
55001,103041,6
54990,103016,4
54985,102995,4
54977,102993,4
54974,102989,5
54977,102995,5
54978,103008,5
54976,103017,4
54996,103035,5
55001,103049,5
55011,103088,5
55046,103100,5
55046,103125,4
55056,103144,5
55064,103161,5
55072,103177,5
55074,103184,5
55083,103200,4
55091,103197,5
55096,103218,5
55099,103242,5
55116,103250,5
55124,103271,4
55132,103286,5
55154,103319,5
55157,103324,6
55151,103323,4
55156,103324,4
55158,103314,5
55164,103317,5
55153,103322,5
55160,103317,4
55149,103302,5
55150,103302,5
55140,103278,5
55130,103268,5
55126,103247,4
55113,103229,5
55104,103207,5
55078,103181,5
55065,103170,5
55067,103167,4
55069,103159,5
55068,103146,5
55062,103154,5
55069,103168,5
55079,103173,5
55085,103197,4
55100,103206,5
55075,103227,5
55114,103248,5
55130,103272,4
55142,103294,5
55083,103333,5
55169,103364,5
55187,103387,4
55211,103423,5
55154,103460,5
55242,103482,5
55253,103507,5
55278,103527,4
55272,103557,5
55302,103570,5
55312,103591,5
55314,103609,5
55372,103617,4
55318,103614,5
55308,103608,5
55302,103593,5
55381,103567,5
55286,103544,4
55260,103518,6
55253,103482,4
55268,103442,5
55212,103408,5
55191,103375,4
55176,103359,5
55189,103343,5
55165,103345,5
55161,103340,4
55172,103351,4
55171,103316,5
55182,103376,5
55197,103401,5
55208,103432,4
55236,103412,5
55268,103522,5
55295,103585,5
55327,103626,5
55332,103577,4
55319,103603,5
55304,103565,5
55275,103507,5
55247,103461,5
55221,103433,4
55197,103390,5
55187,103362,6
55167,103390,4
55151,103300,5
55145,103298,4
55141,103290,5
55146,103380,5
55149,103306,5
55156,103312,4
55145,103319,4
55166,103383,5
55178,103358,5
55182,103365,5
55183,103375,4
55192,103403,5
55200,103408,5
55214,103427,5
55229,103430,5
55230,103451,4
55233,103460,5
55243,103471,5
55240,103476,5
55248,103495,5
55264,103504,4
55268,103528,5
55274,103553,5
55292,103556,5
55280,103547,5
55278,103529,4
55271,103535,5
55269,103522,5
55266,103524,5
55271,103514,4
55261,103498,4
55243,103484,5
55238,103475,5
55224,103444,5
55202,103410,4
55184,103369,5
55168,103320,5
55146,103291,5
55130,103235,5
55085,103210,4
55088,103178,5
55062,103151,5
55042,103118,5
55046,103116,5
55028,103096,5
55029,103091,4
55024,103080,5
55014,103063,5
55019,103060,5
55017,103061,4
55020,103062,5
55018,103075,5
55022,103069,5
55015,103070,4
55026,103075,4
55018,103086,5
55014,103078,5
55017,103084,5
55009,103077,4
55019,103071,5
55009,103062,5
55011,103052,5
55001,103038,5
54994,103012,4
54977,102997,5
54955,102945,5
54924,102911,5
54910,102878,5
54899,102825,4
54853,102765,6
54830,102706,4
54801,102663,5
54776,102618,5
54754,102581,4
54737,102554,5
54728,102533,5
54718,102524,5
54709,102520,4
54709,102512,4
54699,102506,5
54704,102504,5
54705,102510,5
54714,102521,4
54717,102537,5
54725,102553,5
54720,102544,5
54705,102499,5
54676,102441,4
54651,102386,5
54628,102334,5
54598,102310,5
54579,102271,5
54555,102220,4
54540,102188,5
54527,102173,5
54523,102152,5
54480,102142,5
54500,102130,4
54510,102143,5
54504,102137,5
54444,102141,5
54513,102150,5
54514,102146,4
54514,102159,5
54452,102150,5
54522,102164,5
54532,102186,4
54533,102200,5
54553,102217,5
54559,102238,5
54561,102252,5
54566,102258,4
54642,102266,4
54591,102293,5
54599,102307,5
54598,102329,5
54695,102347,3
54631,102375,5
54632,102386,5
54638,102376,5
54666,102368,5
54625,102384,4
54633,102380,5
54631,102362,5
54637,102369,5
54629,102356,5
54624,102355,4
54609,102346,5
54609,102290,5
54601,102305,5
54587,102293,4
54582,102262,4
54562,102183,5
54556,102232,5
54547,102210,5
54542,102191,4
54527,102118,6
54524,102183,4
54523,102177,5
54523,102167,5
54527,102187,6
54520,102175,3
54519,102185,5
54522,102176,5
54524,102248,5
54524,102185,4
54521,102177,5
54529,102173,5
54516,102263,5
54524,102184,5
54526,102183,4
54519,102185,5
54534,102231,5
54531,102203,5
54540,102207,4
54545,102221,4
54540,102220,5
54551,102237,5
54551,102238,5
54555,102246,4
54564,102264,5
54566,102248,6
54564,102267,4
54562,102267,5
54566,102253,4
54569,102270,5
54572,102263,5
54571,102253,5
54560,102247,5
54552,102230,4
54542,102201,5
54523,102159,5
54496,102117,5
54466,102074,5
54435,102029,4
54413,101979,5
54393,101933,5
54377,101900,5
54343,101865,4
54330,101833,4
54326,101816,5
54316,101812,5
54314,101800,5
54315,101797,4
54307,101805,5
54314,101819,5
54321,101816,6
54323,101828,4
54333,101859,4
54350,101881,5
54353,101895,5
54354,101874,8
54330,101836,2
54299,101791,4
54296,101764,5
54267,101737,5
54278,101724,5
54267,101725,5
54271,101715,4
54269,101719,5
54261,101714,5
54264,101720,5
54276,101730,4
54286,101748,4
54290,101773,5
54312,101803,5
54320,101828,5
54333,101856,5
54356,101885,4
54373,101907,5
54384,101944,5
54398,101970,6
54413,102006,3
54428,102033,5
54448,102048,5
54456,102083,5
54467,102106,5
54478,102126,4
54498,102149,5
54512,102169,5
54520,102191,5
54532,102207,5
54542,102217,4
54560,102247,5
54563,102273,5
54567,102281,5
54576,102267,4
54564,102259,4
54570,102269,5
54571,102272,5
54571,102275,5
54570,102264,4
54564,102259,6
54567,102259,4
54549,102249,5
54552,102243,5
54548,102217,4
54533,102203,5
54525,102181,5
54509,102162,5
54506,102143,5
54452,102135,4
54486,102110,5
54470,102092,5
54467,102095,5
54398,102065,5
54450,102063,4
54451,102055,5
54447,102046,5
54389,102043,5
54456,102049,4
54445,102051,4
54458,102054,5
54487,102073,5
54459,102072,5
54466,102082,4
54476,102086,5
54542,102105,6
54477,102102,4
54489,102120,5
54483,102113,4
54564,102130,5
54495,102143,5
54493,102148,5
54497,102156,5
54535,102159,4
54516,102173,5
54522,102177,5
54513,102180,5
54519,102167,5
54516,102181,4
54507,102156,5
54502,102147,5
54501,102072,5
54470,102078,5
54451,102045,4
54419,102000,5
54409,101899,5
54398,101934,5
54375,101916,4
54360,101885,5
54347,101823,5
54349,101867,6
54341,101854,4
54353,101870,4
54357,101912,5
54351,101882,5
54356,101880,5
54357,101878,5
54362,101966,4
54360,101904,5
54379,101930,5
54394,101970,5
54416,102045,5
54399,101965,4
54373,101916,5
54356,101860,5
54329,101857,5
54315,101818,5
54316,101806,4
54304,101792,5
54312,101785,5
54304,101775,5
54302,101782,5
54302,101784,4
54309,101804,5
54315,101815,5
54325,101830,5
54334,101839,4
54351,101863,5
54356,101888,5
54376,101901,5
54374,101925,5
54393,101943,4
54400,101967,5
54408,101987,5
54423,101998,5
54434,102021,5
54442,102040,4
54454,102052,5
54460,102066,5
54472,102097,5
54477,102093,5
54475,102107,4
54478,102127,5
54497,102147,5
54502,102156,5
54514,102163,4
54501,102170,5
54508,102152,4
54508,102148,5
54502,102145,5
54503,102143,4
54499,102124,5
54486,102128,5
54485,102108,5
54470,102104,5
54474,102095,4
54457,102076,5
54457,102050,5
54441,102032,5
54430,102008,5
54423,101986,4
54408,101964,5
54397,101937,5
54384,101917,5
54382,101903,5
54362,101896,4
54354,101892,5
54352,101878,5
54362,101891,5
54358,101892,4
54357,101894,4
54370,101908,6
54373,101908,4
54373,101919,5
54382,101921,4
54377,101927,5
54381,101925,5
54386,101930,5
54387,101949,5
54396,101955,4
54393,101952,5
54403,101967,5
54406,101985,5
54414,101990,5
54407,101989,4
54419,102002,5
54419,101998,5
54417,102007,5
54425,102005,5
54426,102000,4
54413,101999,5
54412,101988,5
54412,101985,5
54411,101960,4
54397,101966,4
54398,101962,5
54379,101941,6
54376,101906,4
54350,101880,4
54329,101829,5
54299,101765,5
54272,101712,5
54249,101662,5
54215,101618,4
54142,101574,5
54168,101533,5
54156,101501,5
54135,101481,5
54071,101466,4
54126,101465,5
54129,101466,5
54134,101478,5
54091,101470,5
54138,101488,5
54145,101485,4
54148,101495,5
54188,101519,5
54177,101559,5
54186,101564,4
54179,101560,5
54238,101510,5
54132,101466,5
54113,101417,4
54096,101398,5
54151,101384,5
54079,101357,5
54072,101368,5
54066,101353,4
54091,101342,5
54064,101336,5
54067,101343,5
54066,101345,5
54078,101343,4
54092,101374,5
54090,101398,5
54102,101417,5
54117,101381,5
54127,101450,4
54140,101475,5
54142,101479,5
54158,101431,5
54171,101513,5
54170,101533,5
54183,101556,4
54187,101542,5
54197,101582,5
54208,101594,4
54213,101605,5
54222,101682,5
54225,101641,5
54233,101654,5
54249,101662,4
54260,101766,5
54250,101685,5
54246,101673,5
54245,101665,5
54235,101704,4
54240,101645,5
54237,101640,5
54234,101643,5
54224,101642,5
54221,101615,4
54213,101591,5
54205,101584,5
54200,101574,5
54184,101546,5
54175,101528,4
54169,101511,7
54156,101496,3
54143,101485,5
54148,101470,4
54146,101474,5
54145,101482,5
54151,101480,5
54154,101499,5
54145,101498,4
54161,101516,5
54163,101529,5
54175,101552,5
54185,101572,5
54195,101585,4
54215,101604,5
54214,101616,5
54220,101636,5
54239,101662,5
54251,101678,4
54261,101690,5
54260,101716,5
54275,101716,6
54278,101738,4
54276,101739,4
54288,101750,5
54295,101767,5
54296,101768,5
54296,101759,4
54285,101736,4
54281,101727,5
54272,101728,5
54277,101709,5
54269,101712,4
54268,101712,5
54267,101712,5
54262,101697,5
54256,101696,5
54254,101679,4
54250,101666,5
54234,101640,5
54217,101598,5
54196,101579,5
54183,101554,5
54170,101532,4
54169,101513,5
54160,101498,5
54146,101491,6
54158,101489,3
54155,101502,5
54156,101508,5
54162,101520,5
54162,101528,4
54179,101534,4
54173,101549,5
54196,101571,5
54206,101603,5
54223,101634,4
54244,101666,5
54241,101680,5
54245,101651,5
54221,101599,5
54195,101583,4
54190,101548,5
54172,101549,5
54175,101541,5
54169,101548,5
54182,101544,4
54187,101543,6
54189,101576,4
54210,101594,5
54223,101635,5
54238,101666,6
54271,101726,3
54300,101771,5
54318,101825,5
54349,101875,4
54384,101932,4
54417,101972,5
54424,102030,5
54466,102064,5
54481,102109,4
54510,102142,5
54467,102184,5
54545,102210,5
54567,102255,5
54583,102299,4
54539,102317,5
54628,102353,5
54635,102381,5
54656,102405,5
54635,102439,4
54681,102465,5
54688,102465,6
54681,102462,4
54726,102454,5
54681,102452,4
54681,102447,5
54679,102431,5
54747,102429,5
54665,102418,4
54660,102419,4
54664,102410,5
54701,102385,5
54634,102366,5
54630,102338,4
54614,102331,5
54617,102299,5
54587,102291,5
54586,102266,5
54569,102253,4
54571,102223,5
54568,102250,5
54571,102249,5
54572,102258,5
54585,102223,4
54591,102295,5
54591,102310,5
54612,102323,6
54614,102266,4
54622,102360,5
54635,102384,4
54646,102403,5
54666,102400,5
54674,102435,4
54684,102449,4
54685,102458,5
54700,102521,5
54698,102495,5
54694,102487,4
54708,102475,5
54686,102556,5
54683,102449,5
54673,102436,5
54659,102418,4
54661,102449,5
54650,102399,5
54643,102385,5
54655,102386,5
54663,102410,5
54653,102405,4
54659,102407,5
54662,102424,5
54678,102428,6
54674,102434,3
54673,102447,5
54688,102474,5
54699,102492,5
54720,102512,4
54721,102524,4
54714,102502,5
54695,102454,5
54663,102399,5
54634,102357,4
54627,102338,5
54598,102324,5
54594,102302,5
54589,102292,5
54586,102273,4
54584,102267,5
54589,102283,5
54588,102302,6
54604,102304,4
54623,102338,4
54637,102377,6
54653,102411,4
54680,102456,5
54698,102491,5
54720,102525,4
54740,102568,5
54757,102600,5
54775,102628,5
54792,102659,4
54806,102686,4
54826,102717,5
54827,102741,5
54840,102748,5
54848,102774,4
54867,102796,5
54879,102818,5
54895,102832,5
54902,102860,5
54910,102864,4
54907,102860,5
54900,102847,5
54893,102843,5
54898,102842,5
54895,102839,4
54893,102838,5
54888,102825,6
54884,102815,4
54876,102797,5
54857,102784,4
54864,102771,5
54841,102752,5
54826,10272