RED,IR,EKG,TIME
51357,100186,9
51365,100220,5
51375,100239,8
51392,100260,7
51389,100281,5
51394,100267,8
51395,100235,7
51384,100242,13
51387,100224,5
51374,100252,5
51363,100208,8
51348,100132,7
51338,100148,9
51279,100054,10
51279,100054,5
51266,100024,5
51260,100001,10
51246,99973,5
51232,99948,5
51226,99930,10
51180,99868,5
51180,99868,5
51177,99870,10
51180,99871,5
51189,99865,7
51192,99885,8
51173,99899,5
51225,99926,7
51278,100033,13
51283,100048,7
51203,100001,8
51288,100067,5
51296,100074,7
51312,100074,8
51279,100080,5
51277,100007,7
51277,100007,8
51232,99979,5
51241,99956,7
51319,99937,8
51218,99907,5
51196,99846,7
51167,99835,8
51167,99835,7
51181,99837,8
51176,99843,5
51179,99847,7
51184,99842,8
51189,99812,9
51189,99812,7
51192,99822,8
51160,99824,9
51019,99558,8
51019,99558,5
51044,99545,7
51012,99529,8
50987,99523,5
51010,99549,7
51018,99642,8
51113,99740,7
51113,99740,5
51133,99785,8
51157,99812,7
51181,99899,5
51197,99871,8
51237,99906,7
51252,99940,5
51290,100048,8
51290,100048,7
51297,100060,5
51300,100041,8
51313,100087,7
51323,100120,2
51336,100146,3
51349,100172,4
51384,100168,5
51355,100170,4
51357,100166,5
51359,100166,5
51352,100159,5
51349,100158,5
51338,100152,4
51343,100124,5
51328,100112,5
51328,100097,5
51314,100084,5
51300,100053,4
51278,100032,5
51263,100000,5
51253,99970,5
51242,99936,5
51222,99926,4
51219,99921,5
51220,99932,5
51223,99935,5
51227,99931,3
51229,99943,4
51235,99948,5
51246,99968,5
51254,99981,5
51264,100000,4
51282,100032,5
51294,100058,5
51305,100083,5
51323,100103,5
51331,100125,4
51340,100132,5
51339,100159,5
51359,100163,5
51361,100173,5
51359,100173,4
51359,100177,5
51349,100150,5
51342,100147,5
51326,100127,5
51329,100102,5
51324,100078,4
51307,100074,5
51298,100057,5
51280,100030,6
51274,100017,3
51273,100017,5
51269,100013,5
51280,100017,5
51283,100025,4
51286,100030,5
51294,100041,5
51295,100061,5
51298,100070,5
51310,100096,4
51324,100110,5
51325,100110,5
51319,100094,5
51304,100042,5
51282,100006,4
51254,99966,5
51231,99930,5
51218,99907,5
51207,99875,5
51190,99857,4
51186,99861,6
51186,99864,4
51190,99875,5
51208,99887,4
51216,99912,6
51228,99939,3
51249,99971,5
51270,100003,5
51289,100043,4
51269,100071,5
51314,100120,5
51338,100144,5
51356,100174,5
51300,100211,4
51398,100236,5
51407,100265,5
51423,100288,5
51356,100308,5
51454,100334,4
51466,100344,5
51461,100356,5
51487,100380,5
51477,100384,5
51482,100382,4
51490,100404,5
51578,100429,6
51516,100445,4
51507,100434,4
51517,100442,4
51615,100448,5
51514,100444,5
51521,100443,5
51523,100453,4
51573,100444,5
51523,100459,5
51519,100453,5
51518,100441,5
51514,100435,4
51514,100429,5
51504,100419,5
51504,100405,5
51495,100347,5
51497,100386,4
51480,100379,5
51494,100391,5
51488,100306,5
51481,100395,5
51489,100387,4
51500,100401,5
51500,100326,5
51505,100424,6
51511,100437,4
51517,100454,4
51525,100488,5
51543,100488,5
51553,100497,5
51559,100516,4
51575,100628,5
51569,100549,5
51593,100557,5
51603,100580,5
51602,100672,4
51605,100578,5
51596,100581,5
51589,100568,5
51592,100596,5
51579,100548,4
51573,100531,5
51561,100514,5
51556,100496,5
51545,100467,5
51521,100451,5
51522,100445,4
51516,100444,5
51522,100449,5
51529,100453,6
51528,100474,3
51534,100466,5
51542,100483,5
51545,100499,5
51559,100514,4
51567,100536,5
51592,100574,5
51600,100599,5
51610,100626,5
51611,100598,4
51592,100550,5
51555,100520,5
51545,100466,5
51523,100424,5
51492,100396,4
51487,100348,5
51464,100326,5
51453,100312,5
51440,100305,5
51441,100293,4
51447,100303,6
51442,100298,4
51450,100309,5
51451,100326,4
51452,100331,4
51468,100347,5
51480,100369,5
51478,100371,5
51492,100388,4
51491,100394,5
51491,100401,5
51510,100413,5
51514,100427,5
51521,100442,4
51523,100450,5
51528,100465,5
51535,100467,5
51539,100473,5
51535,100483,4
51544,100481,5
51552,100496,5
51542,100490,5
51545,100496,5
51552,100507,4
51553,100512,5
51559,100500,6
51552,100490,4
51555,100491,5
51549,100485,4
51549,100486,5
51544,100482,5
51542,100478,5
51532,100470,4
51541,100467,5
51521,100445,5
51521,100442,5
51510,100422,5
51502,100392,4
51483,100375,5
51480,100356,5
51469,100324,5
51456,100304,5
51432,100292,4
51436,100279,5
51422,100268,5
51430,100262,5
51424,100245,5
51413,100240,4
51408,100246,5
51409,100239,5
51402,100243,6
51401,100251,4
51406,100254,4
51416,100249,5
51416,100251,5
51423,100254,5
51425,100265,4
51425,100272,5
51380,100261,5
51424,100266,5
51422,100266,5
51416,100260,4
51342,100262,5
51421,100264,5
51418,100261,5
51426,100260,5
51336,100256,4
51414,100250,5
51412,100251,5
51410,100237,5
51411,100221,5
51382,100185,5
51361,100145,4
51341,100085,5
51385,100044,5
51267,99977,5
51220,99886,4
51182,99829,5
51245,99740,5
51097,99678,5
51072,99632,4
51047,99582,4
51061,99567,5
51025,99549,5
51010,99533,5
51005,99543,4
51026,99547,5
51021,99562,5
51029,99580,5
51041,99596,5
51048,99557,4
51060,99634,5
51080,99662,5
51103,99698,4
51110,99640,5
51117,99716,4
51100,99686,7
51074,99618,3
51047,99506,5
51020,99536,5
50990,99474,5
50966,99432,4
50935,99411,5
50906,99345,5
50888,99316,4
50877,99295,4
50875,99375,5
50873,99295,5
50872,99294,5
50887,99307,4
50887,99404,5
50901,99333,5
50899,99349,5
50912,99351,5
50921,99414,4
50929,99392,5
50941,99405,5
50948,99428,5
50958,99441,5
50971,99459,4
50973,99465,5
50975,99486,6
50979,99492,4
51002,99517,5
51012,99516,4
51009,99534,5
51017,99527,5
51020,99543,5
51016,99554,4
51033,99580,4
51046,99591,5
51050,99607,5
51053,99607,5
51062,99607,4
51049,99609,5
51062,99612,5
51057,99616,5
51057,99604,5
51050,99615,4
51047,99604,5
51052,99599,5
51031,99590,5
51033,99582,5
51025,99570,4
51025,99559,5
51019,99548,5
51011,99531,5
51011,99523,5
51006,99515,4
50985,99503,5
50980,99490,5
50981,99482,5
50984,99478,5
50975,99470,4
50984,99480,5
50973,99476,5
50979,99477,5
50976,99479,4
50977,99468,5
50977,99483,5
50977,99484,5
50984,99487,5
50984,99480,4
50986,99482,5
50982,99479,5
50980,99483,5
50981,99481,5
50986,99478,5
50986,99488,4
50983,99486,5
50986,99478,5
50987,99479,5
50978,99490,4
50985,99497,5
50995,99506,5
50996,99499,5
50995,99507,5
50997,99510,4
50992,99512,5
51009,99517,5
51008,99515,5
51005,99518,4
50993,99509,4
50999,99518,5
51000,99508,5
50993,99508,5
50981,99504,4
50982,99481,5
50975,99489,5
50976,99474,5
50971,99463,7
50962,99443,2
50960,99441,6
50949,99414,3
50939,99405,5
50932,99384,5
50918,99357,4
50904,99326,5
50880,99281,5
50836,99219,5
50796,99143,5
50752,99057,4
50713,98983,5
50612,98900,5
50618,98818,5
50585,98759,4
50541,98699,4
50443,98659,5
50505,98639,5
50511,98645,5
50525,98650,4
50456,98684,5
50544,98699,5
50550,98720,6
50575,98762,4
50627,98798,4
50619,98847,5
50634,98882,5
50656,98938,5
50775,98975,5
50711,99009,4
50716,99009,5
50694,98975,5
50749,98933,5
50651,98902,5
50636,98862,4
50626,98846,5
50645,98826,5
50602,98811,5
50591,98784,4
50592,98782,4
50595,98771,5
50586,98799,5
50592,98802,5
50597,98816,5
50614,98772,4
50617,98859,5
50645,98874,5
50651,98917,6
50675,98851,3
50683,98967,5
50701,98989,5
50710,99001,5
50731,98996,5
50740,99061,4
50759,99077,5
50761,99105,5
50790,99189,5
50799,99161,5
50807,99188,4
50819,99204,5
50830,99321,5
50838,99244,5
50839,99239,4
50853,99257,4
50850,99328,5
50870,99280,5
50883,99304,5
50886,99312,4
50890,99335,6
50885,99320,4
50885,99326,5
50886,99328,5
50888,99327,6
50889,99325,3
50881,99325,5
50895,99317,5
50886,99318,5
50884,99312,4
50877,99306,5
50875,99292,5
50875,99279,5
50866,99274,5
50856,99267,4
50843,99247,5
50838,99240,5
50832,99231,5
50836,99218,4
50835,99218,5
50829,99212,5
50824,99228,5
50836,99218,5
50825,99230,4
50828,99230,5
50845,99242,6
50848,99259,4
50846,99259,5
50858,99285,4
50869,99291,5
50868,99298,5
50865,99309,5
50877,99323,5
50888,99323,4
50882,99325,5
50897,99339,5
50885,99344,5
50901,99349,5
50895,99341,4
50894,99345,5
50897,99348,5
50896,99360,5
50901,99360,4
50908,99365,5
50900,99363,5
50901,99361,5
50907,99355,5
50899,99355,4
50899,99346,5
50893,99335,5
50893,99327,6
50885,99336,4
50884,99323,4
50882,99324,5
50882,99315,5
50875,99295,5
50861,99282,5
50853,99251,4
50827,99229,5
50818,99171,5
50778,99131,5
50752,99083,4
50725,99032,4
50697,98991,5
50681,98955,5
50655,98906,5
50637,98883,4
50634,98871,5
50625,98874,5
50634,98871,5
50632,98880,5
50643,98893,5
50649,98912,4
50652,98922,5
50670,98951,5
50679,98969,6
50690,98975,3
50702,99003,5
50708,99022,5
50719,99029,5
50715,99037,5
50719,99022,4
50694,98981,5
50661,98914,5
50636,98875,5
50577,98852,4
50603,98806,4
50581,98784,5
50572,98750,5
50477,98744,5
50558,98736,4
50550,98730,5
50558,98753,5
50484,98757,5
50576,98774,5
50591,98801,4
50597,98830,6
50635,98863,4
50637,98899,5
50667,98929,5
50667,98956,4
50767,98995,5
50706,99017,5
50723,99057,5
50744,99076,5
50854,99112,4
50766,99136,5
50790,99157,5
50803,99176,5
50854,99203,4
50825,99218,4
50829,99229,5
50828,99220,5
50842,99225,5
50832,99240,4
50847,99242,5
50835,99253,5
50837,99193,5
50839,99243,5
50841,99237,4
50834,99233,5
50826,99131,6
50820,99215,4
50824,99195,5
50809,99195,4
50795,99101,5
50786,99160,5
50779,99136,5
50762,99108,5
50755,99125,4
50742,99062,5
50730,99044,5
50721,99028,5
50714,99117,4
50701,99008,4
50701,98996,5
50702,98993,5
50694,99068,5
50694,98977,4
50697,98990,5
50700,98989,5
50703,99036,5
50714,99019,5
50723,99045,4
50732,99054,5
50740,99074,5
50745,99071,6
50751,99092,4
50758,99100,4
50763,99109,5
50769,99110,5
50771,99116,5
50774,99127,5
50772,99135,4
50784,99129,5
50777,99142,5
50787,99139,5
50779,99131,4
50782,99131,5
50773,99120,5
50768,99134,5
50769,99117,5
50773,99119,4
50767,99114,5
50761,99103,5
50760,99097,5
50752,99082,5
50753,99076,5
50742,99073,4
50748,99067,5
50731,99049,5
50731,99023,5
50726,99019,4
50708,99000,5
50705,98989,5
50697,98964,5
50690,98961,5
50678,98943,4
50665,98925,5
50661,98910,5
50645,98894,5
50647,98881,4
50625,98869,5
50620,98843,5
50609,98819,5
50592,98796,5
50572,98754,4
50553,98715,5
50525,98673,5
50495,98617,5
50468,98562,5
50438,98521,4
50405,98460,6
50377,98404,4
50360,98364,5
50338,98326,5
50323,98309,4
50310,98302,5
50311,98311,5
50311,98308,5
50328,98321,5
50337,98338,4
50349,98355,5
50354,98368,5
50365,98393,5
50374,98399,4
50387,98419,5
50388,98435,5
50385,98440,5
50398,98438,5
50398,98437,4
50383,98404,5
50360,98354,5
50336,98313,5
50319,98275,5
50291,98245,4
50271,98228,5
50271,98208,6
50270,98189,4
50267,98201,5
50270,98207,4
50280,98218,5
50287,98244,5
50296,98269,5
50309,98303,4
50334,98333,4
50329,98377,5
50370,98405,5
50404,98444,5
50423,98490,4
50373,98523,5
50465,98555,5
50472,98582,5
50486,98614,5
50434,98654,4
50535,98676,5
50546,98711,5
50561,98734,5
50562,98751,5
50580,98771,4
50587,98787,5
50585,98795,5
50661,98789,5
50590,98805,5
50615,98819,4
50614,98820,5
50699,98818,5
50607,98804,5
50601,98800,4
50592,98803,4
50648,98795,5
50598,98787,5
50594,98773,5
50579,98765,4
50592,98758,5
50567,98744,5
50563,98732,5
50551,98717,5
50545,98653,4
50529,98678,5
50524,98664,5
50523,98647,5
50509,98561,5
50504,98621,5
50493,98615,4
50496,98609,5
50497,98527,5
50507,98624,5
50498,98629,5
50512,98643,4
50524,98682,5
50524,98694,5
50540,98702,4
50551,98727,4
50568,98824,5
50578,98768,5
50583,98779,5
50595,98803,4
50609,98916,5
50605,98823,5
50617,98849,5
50632,98872,5
50641,98928,4
50645,98894,5
50656,98908,6
50662,98921,4
50655,98925,5
50668,98929,4
50665,98933,7
50670,98923,3
50672,98923,5
50675,98921,5
50669,98931,4
50663,98922,5
50664,98920,5
50662,98912,5
50659,98913,4
50657,98906,4
50644,98896,5
50646,98885,5
50639,98891,5
50633,98874,4
50632,98861,5
50620,98850,5
50617,98838,5
50594,98817,5
50594,98789,4
50577,98775,5
50564,98743,5
50543,98698,6
50518,98660,4
50510,98610,4
50477,98568,5
50447,98526,5
50425,98485,5
50400,98458,5
50391,98418,4
50378,98407,5
50375,98400,5
50363,98388,5
50367,98395,4
50375,98405,4
50376,98420,5
50394,98428,5
50385,98454,5
50403,98471,4
50411,98480,5
50430,98500,5
50429,98515,5
50440,98522,5
50449,98534,5
50454,98540,4
50437,98504,5
50412,98473,5
50394,98447,6
50391,98425,3
50377,98403,5
50379,98400,5
50382,98412,5
50369,98417,5
50390,98428,4
50394,98451,5
50414,98481,5
50428,98521,5
50453,98569,4
50490,98618,4
50518,98679,5
50546,98739,5
50584,98797,5
50618,98857,5
50648,98901,4
50672,98947,5
50699,98996,5
50720,99040,5
50741,99078,4
50769,99115,6
50779,99148,4
50806,99178,5
50822,99201,5
50832,99226,6
50831,99243,3
50844,99255,5
50859,99266,5
50853,99275,5
50865,99280,4
50863,99288,5
50874,99286,5
50853,99282,5
50854,99268,4
50847,99257,5
50851,99259,5
50781,99248,5
50843,99235,5
50842,99242,4
50839,99216,5
50738,99208,5
50818,99201,5
50818,99179,5
50796,99169,4
50756,99147,5
50782,99141,6
50776,99125,4
50777,99121,5
50821,99120,4
50769,99124,5
50769,99123,5
50777,99136,5
50887,99151,5
50790,99156,4
50801,99170,5
50807,99186,5
50886,99223,5
50836,99235,4
50845,99253,5
50868,99293,5
50891,99320,5
50890,99336,5
50907,99364,4
50916,99379,5
50932,99371,5
50944,99423,5
50945,99426,5
50956,99460,4
50964,99393,5
50967,99482,5
50969,99496,6
50968,99501,4
50980,99422,4
50973,99505,5
50977,99505,5
50977,99497,5
50968,99475,4
50957,99476,4
50951,99449,5
50941,99424,5
50909,99460,5
50895,99357,4
50869,99301,5
50845,99251,5
50822,99332,5
50796,99183,5
50780,99151,4
50761,99117,5
50741,99133,5
50736,99082,5
50734,99086,5
50743,99086,5
50741,99111,4
50759,99123,5
50757,99135,5
50771,99149,6
50774,99161,3
50790,99172,5
50786,99179,5
50802,99196,5
50800,99200,4
50795,99189,4
50783,99149,5
50753,99099,5
50730,99048,5
50702,99016,4
50677,98980,5
50672,98963,5
50664,98951,5
50666,98943,5
50669,98952,4
50674,98973,5
50689,99000,5
50701,99036,5
50719,99082,5
50764,99131,4
50788,99186,6
50820,99253,4
50849,99312,5
50886,99366,5
50919,99416,4
50939,99471,5
50974,99509,5
50989,99561,5
51017,99597,4
51035,99635,4
51062,99679,5
51074,99701,5
51092,99727,5
51107,99750,4
51127,99771,5
51142,99797,5
51151,99804,5
51154,99836,5
51172,99866,4
51188,99879,5
51171,99869,5
51182,99864,5
51179,99871,5
51173,99855,4
51172,99852,5
51169,99843,6
51156,99838,4
51148,99818,5
51143,99811,4
51125,99789,5
51118,99745,5
51098,99715,5
51083,99682,4
51062,99657,4
51045,99630,5
51040,99604,5
51030,99593,5
51013,99589,4
51011,99578,5
51013,99579,5
51026,99586,5
51026,99600,5
51041,99613,4
51035,99632,5
51050,99661,5
51073,99689,5
51088,99722,5
51105,99745,4
51115,99777,5
51145,99807,5
51155,99833,6
51165,99860,4
51184,99883,4
51197,99908,5
51208,99931,5
51216,99941,5
51222,99973,4
51223,99983,4
51246,99980,5
51238,99984,5
51240,99978,5
51174,99961,4
51219,99941,5
51206,99909,5
51185,99883,5
51084,99837,5
51147,99786,4
51115,99748,5
51093,99713,4
51026,99668,5
51047,99640,5
51045,99630,5
51035,99614,4
51082,99613,5
51038,99612,5
51041,99624,5
51043,99633,4
51136,99636,5
51050,99650,5
51059,99655,5
51059,99670,4
51151,99683,5
51073,99685,5
51086,99688,5
51065,99653,5
51050,99591,4
51018,99545,5
50990,99510,5
50964,99479,5
50955,99428,5
50940,99445,4
50944,99447,5
50943,99464,5
50964,99407,5
50969,99510,5
50992,99544,4
51020,99591,6
51054,99567,4
51084,99703,5
51106,99743,5
51141,99812,4
51176,99856,5
51196,99908,5
51222,99944,5
51247,99993,4
51264,100099,5
51285,100065,5
51308,100091,5
51313,100115,5
51331,100238,4
51348,100150,5
51342,100163,5
51350,100170,5
51364,100258,5
51374,100210,4
51380,100228,5
51393,100258,5
51414,100296,5
51422,100299,5
51429,100309,4
51431,100310,5
51435,100322,6
51443,100332,4
51442,100348,4
51456,100342,4
51451,100339,5
51454,100348,5
51443,100334,5
51449,100336,4
51431,100320,5
51421,100299,5
51414,100271,5
51412,100267,5
51393,100250,4
51386,100236,5
51384,100229,5
51383,100237,5
51386,100239,5
51389,100239,4
51390,100240,5
51402,100247,5
51401,100260,5
51407,100287,5
51422,100307,4
51437,100323,5
51441,100352,5
51464,100378,5
51477,100400,4
51492,100422,4
51504,100440,5
51513,100467,5
51521,100469,5
51523,100486,4
51524,100490,5
51531,100478,5
51530,100464,5
51506,100450,5
51497,100428,4
51484,100402,5
51460,100371,5
51447,100344,5
51440,100310,5
51425,100289,4
51412,100276,5
51400,100252,5
51394,100244,5
51396,100249,5
51400,100256,5
51406,100254,3
51409,100270,5
51414,100277,5
51420,100279,4
51425,100306,4
51441,100327,5
51462,100353,5
51462,100369,5
51459,100359,4
51454,100337,5
51423,100281,5
51404,100236,5
51378,100200,5
51352,100164,4
51338,100131,5
51323,100098,5
51311,100086,5
51305,100062,5
51298,100074,4
51304,100088,5
51304,100085,6
51309,100100,4
51327,100121,5
51341,100137,4
51355,100157,5
51358,100183,5
51371,100204,5
51387,100213,4
51395,100234,5
51390,100244,5
51398,100268,5
51414,100285,5
51420,100281,4
51423,100294,5
51368,100306,5
51433,100313,5
51428,100318,5
51436,100304,4
51357,100313,5
51431,100302,5
51428,100301,5
51435,100308,5
51388,100311,4
51445,100324,5
51431,100308,5
51430,100310,6
51477,100294,3
51427,100292,4
51419,100289,5
51425,100285,5
51512,100274,5
51413,100276,4
51405,100270,5
51408,100257,5
51472,100240,5
51381,100218,5
51376,100190,4
51363,100171,5
51370,100148,5
51331,100115,5
51325,100085,5
51300,100059,4
51299,100013,5
51284,100024,5
51260,100010,5
51258,99993,5
51255,99918,5
51254,99982,4
51241,99982,5
51246,99967,5
51243,99883,6
51254,99989,3
51265,99994,5
51257,99991,5
51259,100005,5
51257,100012,4
51279,100016,5
51270,100028,5
51280,100089,5
51280,100026,5
51271,100040,4
51282,100028,5
51286,100131,5
51274,100043,5
51281,100036,5
51282,100029,4
51277,100068,5
51269,100030,5
51269,100015,5
51271,100005,5
51256,100014,4
51246,99981,6
51241,99962,4
51222,99928,5
51197,99879,4
51160,99810,4
51114,99727,5
51077,99642,5
51019,99552,5
50968,99463,4
50914,99367,5
50875,99304,5
50837,99235,5
50812,99198,5
50793,99173,4
50785,99161,5
50794,99167,5
50804,99178,5
50801,99184,5
50817,99212,4
50832,99243,5
50845,99279,5
50862,99300,5
50881,99336,5
50910,99385,4
50932,99422,5
50943,99456,6
50948,99446,4
50928,99397,4
50906,99356,5
50881,99317,5
50856,99281,5
50840,99251,5
50822,99211,4
50811,99194,5
50792,99174,5
50784,99162,5
50790,99156,5
50787,99153,4
50788,99173,5
50793,99182,5
50807,99201,5
50807,99212,5
50828,99225,4
50829,99259,5
50856,99289,5
50869,99319,5
50872,99338,5
50897,99361,4
50910,99387,5
50919,99415,5
50931,99444,6
50957,99460,3
50967,99480,5
50971,99488,5
50971,99512,5
50981,99521,5
50990,99531,8
50999,99545,1
51006,99547,5
50988,99550,5
51002,99557,5
51013,99562,4
51018,99578,5
51024,99584,5
51024,99593,5
51025,99586,5
51022,99596,4
51027,99589,5
51022,99583,5
51018,99584,5
51012,99568,4
51012,99569,5
51008,99562,4
51010,99545,5
51000,99544,5
50991,99520,4
50980,99514,5
50975,99495,5
50969,99481,5
50955,99476,5
50932,99455,4
50954,99452,5
50958,99443,5
50949,99453,5
50878,99455,5
50952,99443,4
50955,99450,5
50956,99461,5
50869,99459,5
50962,99475,5
50967,99482,4
50983,99490,5
50935,99503,5
50982,99514,5
50982,99522,4
50985,99522,5
51051,99526,6
50997,99534,4
50997,99542,5
50999,99550,4
51094,99565,5
51009,99555,5
51004,99565,5
51013,99564,5
51086,99577,4
51019,99575,5
51014,99576,5
51010,99573,5
51038,99572,5
51009,99558,4
51007,99532,5
50978,99510,5
50964,99436,5
50939,99422,4
50915,99382,4
50881,99322,5
50856,99196,5
50823,99232,5
50802,99175,5
50779,99128,4
50760,99032,5
50758,99113,6
50749,99104,4
50754,99110,4
50764,99139,5
50769,99138,5
50781,99168,5
50794,99186,5
50811,99291,4
50816,99237,5
50831,99265,5
50861,99301,5
50870,99430,5
50889,99347,4
50886,99356,5
50877,99331,5
50860,99313,5
50831,99233,4
50820,99193,4
50785,99149,5
50771,99133,5
50758,99094,5
50741,99062,5
50727,99056,4
50717,99053,5
50717,99047,5
50728,99056,5
50728,99060,4
50738,99071,5
50752,99094,5
50758,99114,5
50768,99136,5
50776,99158,4
50799,99188,5
50813,99202,5
50820,99225,5
50829,99245,5
50849,99281,4
50852,99286,5
50868,99313,5
50892,99333,5
50887,99354,4
50891,99368,4
50909,99387,5
50914,99408,5
50930,99418,5
50933,99423,4
50937,99429,6
50937,99427,4
50942,99448,5
50948,99464,5
50959,99466,4
50959,99466,5
50956,99462,5
50957,99465,5
50955,99463,5
50958,99455,4
50952,99466,5
50944,99448,5
50938,99442,5
50941,99444,5
50935,99428,4
50934,99423,5
50930,99416,5
50919,99393,5
50914,99392,4
50904,99380,5
50898,99364,5
50893,99356,5
50883,99341,5
50887,99330,4
50880,99337,5
50887,99334,6
50877,99326,4
50882,99332,5
50887,99338,4
50889,99341,5
50885,99350,5
50896,99351,5
50906,99355,5
50899,99358,4
50904,99377,5
50906,99378,5
50909,99382,5
50913,99377,4
50913,99388,4
50916,99389,5
50918,99406,5
50919,99405,5
50926,99421,4
50937,99416,5
50939,99419,5
50925,99416,5
50935,99429,5
50941,99420,4
50939,99420,5
50936,99425,5
50931,99423,5
50932,99423,5
50926,99417,4
50934,99407,5
50886,99399,5
50923,99394,5
50912,99396,5
50907,99395,4
50840,99368,5
50902,99372,5
50898,99367,5
50903,99351,4
50808,99349,4
50879,99341,5
50878,99334,5
50877,99313,5
50846,99311,4
50861,99284,5
50848,99268,5
50834,99232,5
50881,99196,5
50790,99146,5
50747,99091,4
50712,99028,5
50768,98959,5
50644,98900,5
50614,98844,4
50574,98790,5
50607,98749,5
50533,98720,5
50512,98697,5
50524,98700,4
50539,98691,5
50529,98725,5
50538,98738,5
50558,98761,4
50570,98747,4
50588,98834,5
50611,98857,5
50636,98899,5
50652,98855,4
50665,98970,5
50689,98998,6
50702,99004,4
50675,98881,5
50652,98931,4
50638,98895,7
50617,98849,3
50604,98853,5
50584,98807,5
50569,98788,4
50562,98771,5
50552,98844,5
50551,98755,5
50563,98769,5
50570,98776,4
50565,98881,5
50584,98813,5
50589,98829,5
50602,98849,4
50619,98914,5
50635,98925,5
50654,98952,5
50688,98974,5
50696,99004,4
50713,99038,5
50727,99061,5
50745,99102,6
50756,99134,4
50765,99163,4
50791,99171,5
50805,99193,5
50805,99202,5
50823,99224,5
50822,99228,4
50822,99229,5
50821,99241,5
50832,99244,5
50828,99249,4
50830,99256,4
50835,99253,5
50831,99246,5
50825,99240,5
50818,99228,4
50820,99224,5
50814,99214,5
50807,99214,5
50808,99193,5
50808,99181,5
50794,99173,4
50787,99156,5
50773,99134,5
50756,99117,6
50747,99097,3
50745,99080,5
50736,99054,5
50724,99032,5
50715,99028,5
50703,99012,4
50697,98999,5
50687,98995,5
50695,98991,5
50691,99001,4
50692,99003,4
50711,99007,5
50709,99016,5
50713,99036,5
50725,99039,4
50730,99058,5
50736,99075,5
50747,99091,5
50752,99099,5
50759,99103,4
50751,99121,6
50765,99118,4
50772,99125,5
50770,99141,5
50785,99149,6
50779,99142,3
50780,99140,5
50770,99156,5
50776,99143,5
50771,99156,4
50781,99147,5
50773,99143,5
50769,99130,5
50768,99125,4
50772,99130,4
50768,99118,5
50767,99115,5
50753,99117,5
50764,99109,4
50749,99092,5
50742,99079,5
50739,99062,5
50733,99063,5
50722,99055,4
50721,99045,5
50714,99023,6
50711,99022,4
50710,99014,5
50690,98994,4
50692,98989,5
50678,98975,5
50680,98965,5
50631,98947,5
50665,98944,4
50651,98931,5
50655,98918,5
50575,98903,5
50633,98879,4
50619,98848,5
50602,98820,5
50482,98774,5
50549,98719,5
50516,98657,4
50482,98613,5
50463,98548,5
50424,98508,5
50395,98451,5
50383,98425,4
50439,98408,5
50358,98401,5
50356,98395,6
50357,98409,4
50457,98433,4
50383,98448,5
50402,98473,5
50415,98497,5
50467,98519,4
50449,98556,4
50450,98573,5
50457,98597,5
50473,98608,5
50477,98612,4
50478,98621,5
50470,98584,5
50446,98491,5
50418,98493,5
50404,98473,4
50388,98450,5
50380,98346,5
50370,98423,5
50367,98410,5
50367,98404,5
50381,98354,4
50368,98433,5
50384,98455,5
50407,98478,6
50416,98538,3
50442,98553,5
50460,98593,5
50492,98642,5
50509,98781,4
50535,98729,4
50557,98767,5
50582,98804,5
50602,98916,5
50624,98876,4
50633,98905,5
50657,98929,5
50673,98987,5
50681,98990,5
50693,99011,4
50705,99027,5
50713,99046,5
50731,99052,5
50732,99065,5
50733,99083,4
50733,99096,6
50760,99118,4
50762,99122,5
50769,99136,5
50763,99136,4
50773,99136,5
50760,99126,5
50772,99127,5
50763,99111,4
50763,99113,5
50753,99117,5
50753,99091,5
50750,99074,5
50736,99063,4
50719,99057,5
50709,99039,5
50714,99023,5
50700,99004,5
50689,98985,4
50682,98986,5
50687,98972,5
50685,98980,5
50676,98967,5
50683,98965,4
50682,98971,5
50687,98991,6
50687,98999,4
50703,99012,5
50708,99033,4
50720,99043,5
50736,99059,5
50739,99082,5
50754,99095,4
50759,99114,5
50772,99132,5
50770,99149,5
50778,99156,5
50790,99164,4
50799,99180,5
50803,99189,5
50808,99203,5
50811,99213,5
50819,99214,4
50820,99219,5
50813,99205,5
50815,99217,5
50812,99209,5
50808,99214,4
50810,99207,7
50802,99197,3
50803,99185,5
50798,99181,4
50784,99178,4
50795,99176,5
50787,99163,5
50784,99162,5
50771,99160,4
50771,99136,5
50762,99108,5
50745,99090,5
50728,99050,5
50705,99019,4
50685,98974,5
50656,98933,5
50621,98867,5
50601,98828,5
50566,98780,4
50546,98738,5
50536,98714,5
50517,98693,5
50516,98673,5
50499,98678,5
50516,98681,4
50516,98693,5
50527,98715,5
50531,98725,4
50547,98752,4
50514,98771,5
50583,98791,5
50578,98807,5
50587,98820,4
50518,98837,5
50616,98847,5
50604,98844,5
50598,98815,5
50484,98774,4
50549,98746,5
50541,98722,5
50531,98709,5
50542,98702,5
50524,98695,4
50529,98697,5
50524,98713,5
50620,98728,5
50549,98755,5
50574,98793,4
50592,98825,6
50705,98881,4
50646,98924,5
50680,98986,4
50705,99048,5
50770,99112,5
50771,99159,5
50808,99214,5
50831,99256,4
50848,99277,5
50870,99336,5
50895,99362,5
50915,99408,5
50935,99370,4
50943,99461,5
50965,99485,5
50973,99505,5
50982,99435,5
50993,99544,4
50993,99541,5
50994,99554,5
51012,99532,5
51018,99580,4
51018,99569,4
51011,99570,5
51004,99608,5
51005,99556,5
51001,99549,4
50993,99539,5
50990,99623,5
50986,99522,5
50973,99510,5
50973,99484,4
50960,99540,5
50947,99450,5
50941,99428,5
50927,99408,5
50914,99421,4
50909,99387,5
50904,99387,5
50913,99374,5
50908,99394,5
50909,99393,4
50918,99419,5
50931,99428,5
50937,99443,5
50950,99465,5
50967,99486,4
50978,99515,5
50996,99558,5
51011,99577,5
51029,99624,4
51051,99644,5
51072,99667,5
51090,99701,5
51097,99727,5
51101,99751,4
51127,99774,5
51131,99782,5
51136,99801,5
51142,99801,5
51133,99798,4
51130,99790,5
51130,99767,5
51115,99769,5
51107,99733,5
51093,99713,4
51075,99673,5
51068,99662,5
51050,99625,5
51035,99607,4
51024,99593,5
51014,99570,4
51014,99559,5
51015,99566,5
51023,99572,4
51015,99586,5
51035,99602,5
51036,99614,5
51036,99619,5
51051,99638,4
51053,99645,5
51059,99647,5
51059,99660,5
51057,99669,5
51066,99661,4
51045,99611,5
51021,99572,5
50988,99530,5
50968,99480,5
50950,99451,4
50944,99428,5
50930,99410,6
50922,99417,4
50923,99417,4
50927,99428,4
50942,99449,5
50961,99484,5
50981,99517,5
51009,99569,4
51023,99609,5
51055,99667,5
51087,99718,5
51118,99773,5
51143,99821,4
51178,99874,5
51210,99927,5
51228,99969,5
51259,100012,5
51280,100053,4
51302,100097,5
51321,100118,5
51328,100150,5
51348,100172,5
51355,100194,4
51371,100203,5
51375,100229,5
51380,100255,6
51395,100274,3
51414,100283,5
51408,100265,5
51399,100279,5
51360,100271,5
51404,100261,4
51397,100264,5
51401,100252,5
51310,100252,5
51385,100230,5
51379,100217,4
51361,100206,5
51272,100185,5
51340,100151,5
51325,100131,5
51309,100107,4
51318,100088,5
51299,100063,5
51290,100060,5
51283,100059,5
51365,100046,5
51282,100052,4
51285,100056,5
51293,100070,5
51394,100078,6
51309,100100,3
51312,100112,5
51332,100143,5
51381,100163,5
51358,100185,4
51362,100216,5
51384,100235,5
51396,100256,5
51397,100265,5
51398,100263,4
51393,100266,5
51399,100202,5
51391,100248,5
51384,100234,5
51378,100214,4
51363,100111,5
51357,100181,5
51350,100172,5
51347,100154,5
51346,100084,4
51334,100148,6
51335,100149,4
51336,100166,5
51349,100211,4
51356,100185,5
51362,100184,5
51366,100192,5
51360,100308,5
51375,100223,4
51384,100233,5
51401,100248,5
51397,100334,5
51387,100236,5
51365,100187,4
51339,100138,5
51312,100126,5
51292,100053,5
51270,100017,5
51254,99987,4
51253,99975,5
51231,99961,5
51238,99965,5
51245,99977,5
51251,99995,4
51259,100010,5
51271,100030,6
51290,100055,4
51300,100102,4
51314,100120,5
51330,100165,5
51356,100200,5
51374,100221,5
51395,100258,4
51419,100299,5
51424,100320,5
51455,100351,5
51459,100372,5
51468,100387,4
51469,100395,5
51487,100417,5
51490,100430,5
51501,100446,5
51510,100455,4
51514,100469,5
51534,100495,5
51552,100524,5
51561,100544,5
51559,100544,4
51554,100552,5
51556,100542,5
51563,100560,6
51576,100562,3
51571,100570,4
51567,100552,5
51562,100550,5
51566,100557,5
51557,100538,4
51562,100524,5
51545,100508,5
51537,100492,5
51529,100466,5
51508,100451,4
51500,100433,5
51493,100423,5
51499,100425,5
51493,100419,5
51492,100423,4
51499,100423,5
51504,100431,5
51504,100444,5
51519,100463,5
51526,100480,5
51532,100499,4
51550,100524,5
51554,100543,5
51570,100560,4
51578,100586,4
51581,100597,5
51584,100594,5
51592,100576,5
51581,100587,4
51578,100559,5
51568,100555,5
51564,100538,5
51559,100529,5
51539,100519,4
51539,100503,5
51531,100484,5
51524,100487,5
51528,100481,5
51521,100485,4
51534,100500,5
51536,100506,5
51534,100505,5
51543,100512,5
51543,100521,4
51556,100534,6
51572,100560,4
51591,100586,5
51592,100602,4
51572,100594,4
51581,100559,5
51551,100504,5
51518,100465,5
51437,100417,4
51473,100370,5
51451,100330,5
51424,100295,5
51327,100267,5
51402,100240,4
51387,100228,5
51385,100220,5
51352,100226,5
51397,100227,5
51397,100234,4
51400,100251,5
51455,100255,5
51411,100276,5
51418,100281,5
51425,100293,4
51519,100318,5
51436,100327,6
51446,100327,4
51451,100348,4
51521,100346,4
51461,100361,5
51457,100365,5
51461,100366,5
51478,100368,4
51461,100367,5
51467,100369,5
51464,100371,5
51468,100336,5
51470,100370,4
51470,100383,5
51470,100369,5
51468,100287,5
51459,100365,5
51464,100362,4
51451,100355,5
51454,100263,5
51452,100348,5
51440,100337,5
51442,100324,4
51436,100308,5
51421,100299,5
51430,100282,5
51407,100270,4
51400,100315,4
51380,100200,5
51367,100168,5
51352,100155,5
51324,100215,4
51324,100105,5
51305,100084,5
51292,100064,5
51286,100105,5
51288,100046,4
51279,100037,5
51289,100040,5
51273,100050,5
51284,100037,5
51276,100047,4
51286,100050,5
51289,100060,5
51292,100051,5
51296,100060,5
51289,100060,5
51287,100058,4
51288,100067,5
51295,100060,5
51301,100067,4
51294,100077,4
51287,100062,5
51297,100060,5
51285,100067,5
51295,100065,4
51290,100060,5
51286,100044,5
51288,100056,5
51283,100042,5
51282,100036,4
51280,100044,5
51270,100028,5
51275,100019,5
51274,100026,5
51262,100001,4
51259,99999,5
51254,100000,5
51250,99988,5
51239,99980,5
51245,99963,4
51240,99958,6
51228,99942,4
51212,99922,5
51198,99906,4
51195,99872,4
51172,99828,5
51143,99774,5
51101,99695,5
51045,99611,4
50992,99501,5
50933,99393,5
50864,99278,5
50798,99161,5
50743,99070,4
50697,98984,10
50661,98920,5
50633,98897,5
50633,98879,4
50632,98893,5
50638,98902,5
50648,98911,5
50663,98935,5
50673,98966,4
50694,98999,5
50713,99029,5
50732,99084,5
50761,99123,4
50786,99168,4
50811,99218,5
50838,99248,5
50856,99281,5
50843,99255,4
50814,99198,5
50800,99168,5
50775,99132,5
50755,99097,5
50737,99067,4
50719,99032,5
50702,99000,5
50701,98988,5
50685,98985,5
50693,98984,4
50689,98994,5
50691,99004,5
50710,99009,5
50708,99036,5
50725,99055,4
50738,99085,5
50755,99108,5
50767,99131,5
50787,99157,4
50795,99182,4
50811,99208,5
50773,99223,5
50846,99253,5
50840,99283,4
50867,99310,5
50798,99326,5
50895,99351,5
50899,99359,5
50912,99377,4
50841,99391,5
50920,99403,5
50928,99411,5
50936,99417,5
50975,99432,4
50946,99453,6
50963,99463,4
50967,99466,5
51037,99458,5
50969,99470,6
50964,99478,3
50964,99475,5
51054,99483,5
50972,99484,4
50972,99480,4
50964,99467,5
50995,99470,5
50953,99459,5
50956,99447,4
50951,99433,5
50940,99404,5
50932,99413,5
50928,99396,5
50919,99382,4
50904,99308,5
50905,99352,5
50896,99342,5
50887,99340,5
50891,99253,4
50896,99342,5
50890,99339,6
50897,99348,4
50888,99307,5
50898,99357,5
50906,99363,4
50907,99372,5
50906,99440,5
50918,99397,4
50922,99405,4
50926,99425,5
50940,99533,5
50949,99439,5
50960,99456,4
50952,99463,5
50970,99543,5
50971,99484,5
50978,99499,5
50977,99503,4
50985,99532,5
50980,99507,5
50988,99511,5
50984,99510,5
50991,99513,4
50981,99504,5
50978,99493,5
50968,99495,6
50968,99492,4
50960,99483,4
50966,99480,5
50965,99466,5
50952,99455,5
50959,99443,4
50953,99445,4
50945,99438,5
50949,99431,5
50935,99416,5
50933,99413,4
50928,99408,5
50920,99404,5
50910,99372,5
50896,99356,5
50875,99309,4
50855,99273,5
50829,99209,5
50788,99154,5
50760,99076,5
50720,99019,5
50686,98940,4
50639,98882,5
50604,98834,5
50581,98786,6
50566,98757,3
50560,98759,5
50566,98758,5
50568,98774,5
50577,98789,4
50587,98811,4
50603,98832,5
50615,98870,5
50641,98900,5
50655,98938,4
50681,98978,5
50710,99023,5
50732,99063,5
50745,99088,5
50751,99091,4
50736,99059,5
50718,99006,5
50687,98992,5
50683,98956,5
50660,98934,4
50652,98912,6
50654,98905,4
50635,98887,5
50641,98890,5
50636,98891,4
50636,98904,5
50651,98919,5
50660,98934,5
50665,98958,4
50688,98977,4
50704,99010,5
50719,99045,5
50731,99066,5
50753,99105,4
50773,99129,5
50780,99149,5
50791,99181,5
50825,99207,5
50835,99234,4
50848,99252,5
50850,99276,5
50858,99306,5
50866,99320,5
50885,99333,4
50894,99342,5
50886,99359,6
50903,99346,4
50905,99361,5
50896,99367,4
50908,99379,5
50919,99377,5
50919,99379,5
50886,99385,4
50920,99377,4
50914,99383,5
50912,99381,5
50842,99370,5
50912,99366,4
50904,99363,5
50904,99358,5
50815,99357,5
50890,99332,5
50890,99329,4
50879,99325,5
50849,99301,5
50867,99301,5
50857,99279,5
50849,99260,4
50904,99255,5
50839,99243,5
50832,99239,6
50832,99234,4
50921,99225,4
50837,99239,5
50833,99237,5
50839,99251,5
50896,99250,4
50840,99253,4
50856,99273,5
50856,99287,5
50881,99298,5
50862,99298,4
50871,99306,5
50874,99315,5
50888,99293,5
50878,99335,5
50890,99330,4
50897,99333,5
50887,99276,5
50903,99352,5
50889,99352,5
50899,99359,5
50897,99267,4
50900,99350,5
50901,99347,5
50896,99340,5
50896,99329,4
50893,99342,5
50885,99328,5
50882,99333,5
50874,99391,4
50871,99307,4
50874,99305,5
50869,99293,5
50866,99393,5
50857,99278,4
50845,99264,5
50843,99248,5
50827,99278,5
50816,99199,5
50798,99158,4
50765,99107,5
50741,99057,5
50709,98986,5
50678,98934,5
50637,98883,4
50608,98829,6
50584,98802,4
50564,98755,5
50560,98744,5
50557,98733,4
50555,98739,5
50561,98754,5
50564,98775,5
50585,98793,4
50592,98809,4
50598,98830,5
50606,98850,5
50614,98863,5
50631,98873,4
50636,98901,5
50650,98920,5
50666,98928,5
50663,98932,5
50650,98908,4
50622,98860,5
50607,98823,5
50595,98803,5
50574,98779,5
50573,98769,4
50565,98756,5
50560,98758,6
50573,98759,4
50569,98749,5
50562,98761,4
50568,98786,5
50585,98794,5
50600,98821,5
50615,98848,5
50628,98869,4
50645,98905,5
50663,98930,5
50671,98953,5
50680,98991,4
50698,99005,5
50720,99039,5
50734,99066,5
50747,99087,5
50767,99119,4
50778,99136,5
50796,99168,5
50807,99190,5
50817,99208,5
50825,99220,4
50828,99232,5
50824,99229,5
50835,99242,5
50844,99258,5
50855,99267,4
50848,99262,5
50852,99263,5
50844,99261,5
50842,99251,5
50841,99252,4
50830,99235,5
50836,99232,5
50828,99210,5
50816,99205,4
50813,99185,5
50799,99158,5
50782,99135,5
50767,99122,5
50755,99080,4
50751,99067,5
50732,99045,5
50718,99020,5
50707,99000,5
50699,98993,5
50689,98962,4
50692,98958,5
50693,98967,5
50684,98963,5
50686,98959,4
50686,98962,5
50704,98975,5
50702,98997,5
50701,98999,5
50690,99015,4
50714,99024,5
50725,99037,5
50732,99035,5
50659,99047,4
50730,99048,4
50737,99051,5
50741,99064,5
50660,99072,5
50747,99071,4
50744,99076,5
50744,99082,5
50735,99074,5
50756,99076,5
50748,99084,4
50753,99071,6
50812,99069,4
50742,99066,5
50742,99065,5
50735,99061,4
50833,99047,5
50725,99034,5
50734,99031,5
50721,99010,5
50769,99009,4
50712,98999,5
50704,98989,5
50694,98969,5
50703,98950,4
50677,98946,4
50670,98929,5
50666,98913,5
50661,98861,5
50652,98896,4
50636,98880,5
50634,98865,5
50639,98777,5
50623,98842,5
50623,98845,4
50615,98828,5
50610,98726,6
50598,98814,4
50592,98786,5
50576,98748,4
50551,98722,5
50529,98679,5
50498,98628,5
50467,98564,5
50440,98597,4
50413,98476,5
50391,98441,5
50372,98399,5
50355,98481,4
50350,98375,4
50354,98377,5
50352,98389,5
50371,98454,5
50382,98426,4
50395,98467,5
50427,98502,5
50439,98530,5
50447,98556,6
50473,98578,3
50484,98601,5
50495,98638,5
50517,98654,5
50522,98676,5
50524,98675,4
50506,98638,5
50488,98598,5
50463,98568,5
50464,98551,5
50449,98529,4
50446,98513,5
50441,98522,5
50438,98521,5
50441,98534,4
50457,98547,4
50460,98568,5
50473,98597,5
50503,98637,5
50515,98683,4
50545,98728,6
50579,98772,4
50604,98831,5
50625,98873,5
50652,98925,6
50684,98982,3
50711,99019,5
50733,99060,5
50755,99099,5
50777,99136,4
50785,99166,8
50808,99191,2
50832,99216,5
50841,99235,5
50863,99260,4
50857,99262,5
50847,99270,5
50862,99281,5
50865,99284,4
50869,99297,4
50872,99300,5
50872,99292,5
50862,99292,5
50868,99276,4
50863,99278,5
50856,99257,6
50847,99254,4
50837,99242,5
50833,99238,4
50824,99211,5
50821,99192,5
50809,99177,5
50793,99161,5
50786,99128,4
50770,99099,5
50757,99087,5
50752,99077,5
50750,99064,5
50731,99046,4
50723,99048,5
50722,99030,5
50730,99036,5
50729,99043,4
50729,99051,4
50738,99073,5
50748,99078,5
50758,99092,5
50769,99101,4
50783,99127,5
50786,99157,5
50797,99169,6
50801,99192,4
50809,99205,4
50821,99217,5
50829,99230,5
50841,99243,5
50840,99240,5
50855,99273,4
50846,99269,5
50850,99273,5
50855,99277,5
50851,99283,5
50857,99278,4
50830,99271,5
50849,99276,5
50857,99270,5
50854,99262,4
50765,99252,4
50845,99242,5
50828,99229,5
50837,99218,5
50740,99221,5
50822,99206,4
50818,99191,5
50820,99190,5
50806,99169,6
50805,99167,3
50801,99163,5
50791,99150,5
50856,99139,5
50782,99116,5
50772,99108,4
50761,99083,5
50857,99067,5
50729,99042,5
50712,99010,5
50697,98979,4
50730,98946,5
50657,98891,5
50633,98854,5
50602,98815,4
50595,98776,4
50569,98744,5
50555,98732,5
50555,98714,5
50541,98659,4
50539,98712,6
50554,98724,4
50569,98743,5
50571,98683,5
50579,98787,5
50588,98803,4
50600,98831,5
50613,98766,5
50632,98862,5
50644,98891,4
50644,98907,5
50653,98927,5
50645,98877,5
50620,98823,5
50601,98809,4
50588,98873,5
50577,98770,5
50574,98757,5
50571,98766,4
50578,98860,4
50579,98781,5
50594,98808,5
50616,98845,5
50636,98919,4
50663,98928,5
50687,98995,6
50728,99059,4
50763,99122,5
50788,99165,4
50811,99215,5
50855,99270,5
50881,99311,5
50903,99367,5
50921,99399,4
50941,99426,5
50960,99457,5
50983,99500,5
50998,99514,5
51014,99539,4
51019,99571,5
51029,99588,5
51036,99594,5
51041,99594,5
51046,99610,4
51048,99628,5
51067,99660,5
51075,99655,5
51078,99658,4
51061,99647,5
51068,99620,5
51064,99626,6
51051,99624,4
51051,99603,4
51041,99603,5
51045,99588,5
51034,99571,5
51016,99552,5
51005,99532,4
50995,99501,5
50985,99487,5
50954,99464,5
50952,99446,5
50957,99430,4
50945,99428,5
50948,99424,5
50948,99439,5
50947,99441,5
50959,99453,4
50976,99476,5
50979,99497,5
50997,99524,5
51024,99546,5
51024,99581,4
51037,99607,5
51058,99644,5
51079,99673,6
51099,99708,3
51113,99733,5
51121,99755,5
51133,99772,5
51154,99797,5
51163,99813,4
51164,99830,5
51171,99845,5
51189,99849,5
51182,99851,5
51188,99860,4
51188,99865,5
51178,99853,5
51180,99859,5
51181,99840,5
51176,99819,4
51141,99787,5
51120,99749,5
51104,99713,5
51081,99651,4
51048,99611,5
51021,99554,4
50991,99505,5
50974,99463,5
50942,99436,4
50936,99414,5
50937,99404,5
50924,99410,5
50939,99414,5
50930,99426,4
50944,99443,5
50957,99450,5
50956,99466,5
50979,99475,5
50967,99473,4
50980,99495,5
50935,99497,5
50986,99500,5
50986,99500,5
50961,99459,4
50867,99402,5
50909,99342,5
50887,99305,5
50855,99265,4
50751,99229,4
50830,99217,6
50832,99216,4
50829,99219,5
50852,99236,4
50855,99264,5
50865,99304,5
50898,99339,5
50999,99397,5
50946,99440,4
50982,99502,5
51017,99561,5
51136,99597,5
51068,99657,5
51093,99710,4
51127,99753,5
51175,99792,5
51166,99839,5
51199,99871,5
51205,99914,4
51232,99945,5
51242,99964,5
51250,99989,5
51275,100012,4
51277,99975,4
51277,100035,5
51294,100054,6
51303,100084,4
51322,100008,4
51333,100105,5
51329,100095,5
51325,100099,5
51314,100032,5
51316,100090,5
51321,100080,4
51316,100080,5
51303,100104,5
51297,100059,5
51294,100037,4
51288,100011,5
51264,100099,5
51251,99963,5
51234,99930,5
51219,99912,4
51204,99965,5
51194,99882,5
51186,99864,5
51187,99854,5
51181,99878,4
51184,99851,5
51183,99857,5
51193,99866,5
51205,99893,4
51208,99911,5
51216,99931,5
51234,99958,5
51248,99981,5
51269,99995,4
51276,100037,5
51290,100054,5
51310,100081,5
51319,100109,5
51325,100127,4
51343,100135,5
51343,100143,5
51345,100131,5
51344,100129,5
51335,100125,4
51319,100100,5
51308,100072,5
51291,100030,5
51277,100006,4
51270,99980,5
51244,99949,4
51222,99932,5
51223,99916,5
51206,99902,4
51213,99905,5
51211,99917,5
51217,99910,5
51223,99926,5
51222,99929,4
51226,99936,5
51237,99951,5
51246,99972,5
51250,99973,5
51256,99983,4
51252,99979,5
51243,99959,5
51220,99914,5
51202,99864,5
51169,99819,4
51148,99770,5
51129,99743,5
51107,99724,5
51101,99699,5
51100,99697,4
51104,99705,6
51110,99715,4
51125,99742,5
51133,99770,4
51151,99808,5
51174,99836,5
51198,99882,5
51214,99925,5
51235,99970,4
51263,100004,5
51294,100039,5
51303,100077,5
51330,100118,5
51338,100148,4
51355,100178,5
51370,100201,5
51396,100237,5
51401,100254,5
51410,100268,4
51417,100283,5
51425,100296,5
51436,100305,6
51437,100311,4
51440,100315,4
51451,100337,5
51465,100361,5
51473,100354,5
51461,100357,4
51456,100340,5
51458,100339,5
51459,100342,5
51452,100339,5
51453,100321,4
51450,100315,5
51442,100301,5
51427,100289,5
51409,100273,5
51411,100254,4
51404,100223,5
51395,100198,5
51314,100183,5
51363,100157,5
51348,100140,5
51344,100127,4
51253,100125,5
51329,100116,5
51327,100116,6
51335,100108,3
51275,100107,5
51335,100116,5
51340,100127,5
51337,100139,4
51393,100158,5
51354,100163,5
51369,100181,5
51377,100190,5
51465,100194,4
51369,100199,5
51382,100207,5
51383,100211,5
51460,100208,5
51377,100203,4
51377,100207,5
51367,100197,5
51404,100184,5
51362,100160,5
51337,100121,4
51320,100080,6
51283,99990,4
51256,99948,5
51214,99892,5
51181,99823,6
51133,99686,3
51104,99686,5
51063,99628,5
51039,99592,4
51023,99469,5
51003,99547,5
50999,99530,5
51001,99539,5
51001,99501,4
51004,99537,5
51012,99556,5
51016,99566,5
51027,99636,5
51040,99603,4
51052,99623,5
51063,99636,5
51057,99738,5
51043,99594,5
51007,99529,4
50977,99479,5
50953,99484,6
50918,99367,4
50889,99314,5
50853,99264,4
50833,99239,5
50822,99199,5
50813,99189,5
50814,99197,4
50811,99192,5
50826,99213,5
50836,99227,5
50846,99245,5
50859,99271,4
50872,99307,5
50894,99336,5
50905,99363,5
50920,99385,5
50937,99402,4
50944,99425,5
50953,99443,5
50962,99460,5
50971,99483,5
50978,99488,4
50992,99502,6
50993,99516,4
50985,99518,6
51002,99520,4
51002,99538,4
51004,99536,5
51004,99542,5
51015,99543,5
51010,99564,4
51025,99572,4
51016,99557,5
51016,99562,5
51019,99568,5
51018,99553,4
51014,99555,5
51007,99540,5
51012,99530,5
50999,99528,5
51001,99515,4
50982,99509,5
50987,99490,5
50976,99474,5
50968,99465,5
50954,99432,5
50944,99423,4
50929,99388,5
50911,99368,5
50905,99352,6
50890,99330,3
50891,99310,5
50882,99302,5
50881,99305,5
50872,99301,4
50875,99294,4
50883,99313,5
50884,99309,5
50878,99317,5
50885,99317,4
50894,99330,5
50898,99332,5
50891,99333,5
50895,99348,5
50900,99361,4
50898,99352,5
50897,99361,5
50906,99360,5
50906,99363,5
50906,99367,4
50913,99376,6
50914,99382,4
50918,99387,5
50920,99387,5
50923,99386,4
50923,99379,5
50916,99386,5
50911,99378,5
50919,99372,4
50923,99369,4
50899,99367,5
50910,99359,5
50892,99343,5
50886,99327,4
50887,99336,5
50886,99316,5
50881,99313,5
50870,99298,5
50838,99276,4
50862,99267,5
50849,99254,5
50841,99242,5
50766,99226,5
50812,99215,4
50818,99201,5
50805,99164,6
50709,99154,4
50782,99140,5
50777,99123,4
50763,99097,5
50744,99067,5
50725,99040,5
50707,98988,4
50675,98938,4
50694,98854,5
50584,98766,5
50527,98665,5
50480,98577,4
50524,98502,5
50391,98421,5
50355,98362,5
50336,98329,5
50366,98310,4
50317,98304,5
50317,98327,5
50331,98358,5
50371,98383,5
50361,98395,4
50379,98432,5
50404,98473,5
50429,98492,6
50465,98588,4
50492,98639,4
50525,98694,5
50556,98680,5
50584,98807,5
50597,98821,4
50595,98787,4
50573,98676,5
50551,98735,5
50552,98716,5
50545,98692,4
50526,98688,5
50516,98665,5
50512,98655,5
50507,98644,5
50509,98726,4
50516,98664,5
50527,98676,5
50534,98698,5
50542,98824,5
50561,98752,5
50582,98778,4
50600,98822,5
50611,98905,5
50643,98889,5
50662,98920,4
50671,98960,5
50689,98999,5
50712,99023,5
50732,99048,5
50744,99086,4
50759,99101,5
50779,99135,5
50787,99150,5
50794,99164,4
50797,99167,5
50803,99185,5
50804,99181,5
50811,99185,5
50815,99201,4
50820,99208,5
50832,99226,5
50839,99247,5
50841,99243,5
50848,99248,4
50854,99248,6
50841,99258,4
50847,99265,5
50860,99269,5
50852,99270,4
50859,99274,5
50859,99271,5
50860,99271,5
50846,99265,5
50841,99260,4
50845,99252,5
50839,99238,5
50837,99240,5
50822,99225,4
50820,99216,4
50817,99212,5
50810,99197,5
50813,99188,5
50807,99167,4
50795,99168,5
50790,99163,5
50800,99166,5
50791,99164,5
50797,99171,4
50790,99167,5
50805,99177,6
50810,99172,4
50807,99190,5
50811,99184,4
50800,99193,5
50804,99194,5
50815,99198,5
50811,99197,5
50805,99192,4
50808,99199,5
50802,99195,5
50812,99195,5
50818,99196,4
50809,99192,4
50812,99195,5
50815,99200,5
50815,99202,5
50819,99211,4
50816,99211,5
50824,99213,5
50812,99212,5
50819,99212,5
50810,99193,4
50798,99185,5
50799,99164,5
50774,99137,5
50756,99093,5
50735,99051,4
50692,98987,5
50675,98935,5
50646,98881,5
50600,98823,5
50573,98769,4
50544,98724,5
50537,98708,5
50527,98699,5
50527,98689,4
50534,98698,4
50528,98713,5
50548,98736,5
50555,98750,5
50566,98770,4
50531,98796,5
50591,98810,5
50605,98844,5
50628,98871,5
50560,98898,5
50659,98929,4
50669,98936,5
50659,98919,5
50547,98872,5
50617,98847,4
50606,98823,5
50589,98799,5
50593,98780,5
50566,98762,5
50557,98750,4
50565,98756,5
50640,98754,5
50571,98759,5
50581,98782,4
50572,98787,4
50695,98812,5
50616,98841,5
50617,98871,5
50635,98899,4
50705,98942,5
50673,98971,6
50702,99003,4
50723,99030,5
50744,99047,4
50740,99076,6
50756,99107,3
50777,99136,5
50784,99113,5
50801,99181,4
50809,99194,5
50832,99215,5
50824,99143,5
50831,99228,5
50832,99241,4
50832,99247,5
50834,99175,5
50845,99252,5
50854,99267,4
50852,99256,4
50836,99285,5
50847,99254,5
50834,99256,5
50835,99240,4
50831,99322,5
50822,99226,5
50832,99211,6
50810,99200,4
50796,99275,4
50800,99170,5
50786,99156,5
50779,99138,5
50776,99162,5
50763,99100,4
50743,99093,5
50740,99069,5
50730,99057,5
50721,99043,5
50721,99035,4
50726,99034,5
50715,99037,5
50724,99036,5
50726,99050,4
50721,99049,4
50723,99055,5
50731,99073,5
50746,99079,5
50741,99084,5
50752,99084,4
50754,99085,5
50748,99097,5
50752,99092,6
50748,99097,3
50758,99112,5
50755,99115,5
50762,99108,5
50766,99111,5
50768,99112,4
50768,99109,5
50762,99107,5
50757,99108,5
50767,99106,5
50761,99101,4
50751,99091,5
50748,99084,5
50746,99069,5
50741,99059,5
50737,99066,4
50735,99056,5
50734,99033,5
50734,99035,5
50724,99016,4
50714,99002,6
50707,98991,4
50698,98981,5
50686,98973,5
50676,98951,6
50667,98921,3
50653,98899,5
50635,98866,5
50605,98826,5
50583,98768,4
50552,98718,5
50524,98655,5
50488,98598,5
50448,98538,5
50432,98481,4
50397,98441,5
50373,98404,5
50351,98376,5
50356,98359,5
50346,98365,4
50348,98380,5
50356,98393,5
50369,98404,5
50372,98419,4
50386,98441,5
50404,98469,6
50414,98484,4
50426,98507,5
50445,98527,4
50452,98551,5
50463,98569,5
50479,98591,5
50479,98595,5
50477,98586,4
50453,98544,5
50442,98514,5
50431,98496,5
50413,98480,5
50414,98474,4
50414,98474,5
50415,98480,5
50412,98482,5
50422,98492,5
50427,98518,4
50445,98543,5
50461,98578,5
50495,98635,5
50523,98687,4
50556,98742,5
50527,98804,5
50606,98855,6
50634,98910,4
50672,98950,4
50611,99001,5
50716,99046,5
50734,99075,5
50753,99116,5
50723,99153,4
50793,99188,5
50822,99221,5
50841,99245,5
50884,99277,5
50860,99295,4
50882,99319,5
50876,99332,5
50983,99342,5
50902,99373,5
50923,99400,4
50920,99405,5
51014,99427,5
50943,99426,5
50940,99432,5
50943,99446,4
50972,99445,5
50941,99448,5
50948,99442,6
50949,99445,3
50943,99429,5
50940,99437,5
50949,99446,5
50943,99443,5
50940,99372,4
50933,99428,5
50929,99428,5
50933,99434,5
50938,99346,5
50935,99430,5
50932,99439,4
50939,99438,5
50939,99406,5
50953,99458,5
50957,99468,4
50955,99482,5
50968,99558,5
50983,99527,5
51007,99559,4
51022,99594,5
51038,99719,4
51051,99649,5
51068,99681,5
51086,99708,4
51101,99806,5
51116,99755,5
51131,99772,5
51145,99803,5
51151,99831,4
51151,99825,5
51163,99842,5
51168,99857,5
51171,99866,5
51175,99878,8
51191,99879,1
51188,99880,5
51184,99881,5
51182,99867,5
51166,99852,4
51157,99835,5
51144,99802,5
51122,99769,5
51114,99744,4
51098,99706,4
51079,99683,6
51057,99650,4
51053,99628,5
51036,99619,4
51029,99609,5
51030,99611,5
51046,99630,5
51051,99638,5
51054,99675,4
51069,99679,5
51079,99695,5
51094,99716,5
51096,99719,5
51096,99746,4
51122,99748,5
51119,99761,5
51120,99776,5
51135,99784,5
51117,99768,4
51098,99730,5
51081,99700,5
51068,99676,5
51059,99661,4
51051,99634,4
51038,99627,5
51045,99625,6
51045,99619,4
51046,99629,4
51050,99632,5
51053,99651,5
51076,99678,5
51083,99703,5
51102,99739,4
51114,99776,5
51131,99805,5
51162,99844,5
51184,99872,5
51197,99905,4
51212,99951,5
51233,99977,5
51262,100000,5
51268,100020,5
51277,100042,4
51296,100070,5
51301,100082,5
51312,100095,5
51317,100116,5
51323,100111,4
51326,100122,5
51330,100130,5
51333,100144,5
51342,100155,4
51343,100143,5
51346,100149,5
51345,100132,5
51340,100137,5
51334,100124,4
51330,100117,5
51326,100109,5
51320,100092,5
51309,100088,5
51303,100061,4
51294,100050,5
51286,100029,5
51259,100002,5
51259,99983,5
51239,99968,4
51238,99945,5
51229,99940,5
51207,99926,5
51220,99929,5
51229,99919,5
51226,99934,4
51160,99949,5
51237,99955,5
51254,99963,4
51260,99991,5
51181,100007,5
51275,100023,5
51286,100050,5
51307,100071,4
51262,100091,5
51329,100112,5
51339,100140,5
51344,100156,5
51413,100174,4
51370,100199,5
51381,100206,5
51391,100218,5
51480,100225,5
51387,100212,4
51379,100207,5
51373,100193,5
51429,100162,5
51342,100133,5
51326,100105,4
51302,100068,6
51310,100046,4
51278,100027,5
51268,99996,4
51257,99982,5
51249,99948,5
51251,99979,5
51245,99972,5
51260,99981,4
51263,99927,5
51264,99995,5
51271,100016,5
51270,100016,5
51290,99949,4
51290,100057,5
51304,100074,5
51303,100078,5
51303,100053,5
51303,100072,4
51293,100041,5
51263,99989,5
51246,100018,5
51218,99908,5
51206,99886,4
51184,99862,5
51172,99932,5
51167,99820,5
51161,99819,4
51172,99838,5
51177,99923,5
51191,99869,5
51203,99886,5
51221,99914,4
51233,99964,5
51251,99986,5
51279,100022,5
51288,100065,5
51308,100094,4
51340,100136,5
51345,100171,5
51376,100204,5
51403,100232,5
51415,100270,4
51430,100302,5
51446,100316,5
51451,100337,5
51469,100357,5
51473,100391,4
51490,100401,5
51496,100412,5
51507,100439,5
51525,100472,4
51539,100483,5
51533,100484,5
51537,100482,5
51536,100485,5
51539,100485,4
51532,100479,5
51537,100476,5
51539,100470,5
51533,100465,5
51520,100450,4
51514,100421,5
51494,100407,5
51488,100385,5
51477,100358,5
51455,100331,4
51440,100324,5
51447,100298,4
51440,100291,5
51428,100297,5
51434,100300,6
51433,100299,3
51446,100312,5
51447,100320,5
51455,100331,4
51462,100354,5
51474,100363,5
51482,100393,5
51509,100419,5
51503,100434,4
51522,100465,5
51540,100500,5
51554,100516,5
51568,100539,5
51572,100556,4
51591,100573,5
51594,100588,5
51596,100588,5
51604,100602,5
51601,100583,4
51594,100580,5
51584,100556,6
51570,100532,4
51550,100514,5
51546,100480,4
51531,100454,5
51510,100437,5
51509,100420,5
51499,100408,4
51487,100387,4
51498,100391,5
51485,100401,5
51497,100411,5
51502,100416,4
51495,100424,5
51512,100425,5
51518,100439,5
51524,100456,5
51532,100477,4
51535,100501,5
51557,100500,5
51551,100502,5
51528,100457,5
51502,100405,4
51474,100358,5
51464,100338,5
51454,100297,6
51405,100276,4
51418,100261,4
51422,100252,5
51414,100261,5
51356,100274,5
51433,100286,4
51442,100307,4
51451,100335,5
51388,100353,5
51481,100391,5
51506,100430,4
51523,100455,5
51505,100486,5
51563,100519,5
51577,100554,5
51599,100583,4
51657,100600,5
51627,100627,5
51629,100650,5
51642,100669,5
51753,100674,5
51663,100685,4
51661,100713,5
51676,100714,5
51738,100716,6
51680,100723,3
51683,100736,5
51692,100752,5
51723,100770,5
51714,100778,4
51702,100776,4
51706,100767,5
51709,100750,5
51718,100784,5
51714,100780,4
51718,100785,5
51710,100707,5
51715,100775,5
51710,100775,5
51713,100768,4
51700,100663,5
51697,100748,5
51693,100728,5
51677,100701,5
51664,100688,4
51654,100681,6
51657,100671,4
51652,100672,5
51649,100740,5
51647,100669,4
51652,100666,5
51653,100672,5
51648,100765,5
51655,100675,4
51660,100691,4
51664,100695,5
51676,100768,5
51671,100711,5
51684,100728,4
51685,100733,5
51692,100750,5
51696,100752,5
51703,100762,5
51705,100772,4
51699,100765,5
51713,100771,5
51712,100769,5
51708,100764,5
51715,100769,4
51700,100758,5
51708,100757,6
51702,100755,4
51701,100751,5
51700,100736,4
51685,100725,5
51680,100709,5
51667,100680,5
51651,100658,4
51624,100608,4
51587,100556,5
51559,100484,5
51515,100415,5
51473,100341,4
51430,100255,5
51374,100169,5
51328,100095,5
51291,100026,5
51268,99968,4
51240,99934,5
51229,99908,5
51219,99903,5
51228,99899,5
51230,99916,4
51231,99917,5
51244,99937,5
51252,99951,6
51257,99964,4
51268,99988,4
51275,100002,5
51292,100029,5
51303,100038,5
51307,100052,4
51291,100023,4
51263,99956,5
51233,99904,5
51206,99844,5
51165,99772,4
51126,99713,5
51103,99653,5
51062,99614,5
51043,99584,5
51025,99551,4
51026,99528,5
51019,99530,5
51009,99521,5
51017,99525,5
51023,99540,5
51029,99559,4
51028,99568,5
51053,99593,5
51058,99612,5
51073,99620,4
51073,99650,5
51096,99675,5
51103,99692,5
51111,99701,4
51123,99724,4
51136,99751,5
51142,99776,5
51154,99787,5
51169,99794,4
51168,99806,5
51167,99816,5
51171,99824,5
51187,99837,5
51185,99843,4
51197,99863,5
51205,99866,5
51195,99862,5
51196,99865,5
51189,99864,4
51197,99851,6
51192,99843,4
51188,99838,5
51182,99828,5
51142,99818,4
51171,99798,5
51168,99788,5
51164,99771,5
51073,99755,4
51139,99746,4
51124,99738,5
51126,99719,5
51030,99696,5
51108,99694,4
51111,99679,5
51099,99672,5
51100,99673,5
51087,99674,5
51093,99662,4
51088,99670,5
51168,99668,5
51104,99683,5
51100,99691,5
51108,99695,4
51224,99703,5
51118,99715,6
51124,99728,4
51126,99738,5
51182,99752,4
51138,99741,5
51136,99758,5
51140,99760,5
51161,99757,4
51142,99758,4
51147,99749,5
51144,99757,5
51143,99707,5
51136,99757,4
51137,99751,5
51142,99744,5
51143,99668,5
51128,99740,5
51125,99740,4
51121,99724,5
51113,99629,5
51114,99716,5
51112,99700,5
51108,99697,4
51101,99699,5
51099,99679,5
51093,99666,5
51082,99652,5
51071,99703,6
51048,99580,3
51021,99521,5
50976,99471,5
50931,99475,5
50896,99294,4
50836,99212,5
50801,99131,5
50763,99126,5
50726,99017,4
50709,98983,5
50697,98983,5
50702,98990,5
50712,98998,5
50716,99008,4
50725,99028,5
50741,99061,5
50760,99076,5
50773,99116,5
50793,99156,5
50818,99197,4
50846,99224,5
50858,99278,5
50889,99317,5
50909,99353,4
50916,99372,5
50912,99361,5
50897,99328,5
50881,99288,5
50850,99238,4
50842,99216,5
50828,99191,5
50807,99173,5
50801,99140,4
50796,99134,4
50790,99125,5
50792,99149,5
50792,99143,5
50802,99148,4
50810,99170,5
50815,99193,5
50829,99216,5
50847,99248,5
50867,99280,4
50888,99304,6
50898,99342,4
50913,99366,5
50931,99384,5
50943,99415,4
50963,99442,5
50974,99462,5
50993,99487,5
51002,99508,5
51010,99528,4
51027,99548,5
51026,99559,5
51037,99564,5
51032,99577,4
51035,99575,4
51044,99591,5
51051,99596,5
51057,99624,5
51075,99629,4
51070,99625,5
51074,99630,5
51062,99620,5
51069,99625,5
51079,99634,4
51071,99621,5
51066,99626,5
51070,99618,5
51062,99617,5
51056,99616,4
51063,99610,5
51052,99605,5
51045,99596,5
51053,99590,5
51043,99592,4
51049,99578,5
51031,99572,5
51032,99561,5
51020,99563,4
51026,99550,4
51022,99542,5
51019,99548,5
51023,99548,5
51029,99560,4
51035,99555,5
51035,99567,5
51043,99573,5
51044,99584,6
51052,99597,3
51046,99603,5
51059,99616,5
51061,99626,5
51065,99628,5
51072,99648,4
51039,99646,5
51076,99649,5
51072,99647,5
51081,99663,5
51014,99665,4
51089,99667,5
51087,99670,5
51084,99659,5
50999,99662,4
51091,99645,4
51079,99643,5
51077,99643,5
51081,99645,5
51076,99643,4
51073,99637,6
51061,99624,4
51137,99618,5
51066,99622,5
51054,99620,6
51055,99612,3
51156,99615,5
51049,99609,5
51052,99599,5
51051,99601,4
51098,99589,5
51040,99583,5
51032,99567,5
51026,99557,5
51033,99531,4
51002,99533,5
51011,99511,5
51002,99506,5
50993,99445,4
50973,99469,4
50964,99427,5
50945,99389,5
50911,99254,5
50889,99276,5
50843,99225,4
50814,99166,6
50789,99027,4
50749,99062,5
50732,99028,4
50721,98997,5
50707,98996,5
50709,98974,5
50707,98983,5
50716,99004,4
50731,99115,5
50752,99062,5
50768,99087,5
50775,99112,5
50803,99255,4
50812,99176,5
50827,99204,5
50838,99241,5
50862,99303,4
50872,99287,4
50870,99276,5
50854,99237,5
50833,99204,5
50815,99154,4
50797,99124,5
50778,99108,5
50766,99078,6
50759,99068,4
50757,99059,4
50745,99054,5
50755,99060,5
50753,99074,5
50768,99096,5
50781,99118,4
50804,99142,5
50825,99173,5
50835,99210,5
50856,99246,5
50882,99291,4
50907,99325,5
50915,99363,5
50940,99397,5
50954,99437,4
50979,99464,4
51003,99493,5
51011,99526,5
51018,99554,5
51036,99572,5
51050,99586,4
51055,99611,5
51067,99613,5
51066,99619,6
51068,99623,3
51076,99617,5
51074,99619,5
51084,99619,5
51076,99632,5
51078,99617,4
51068,99605,5
51053,99599,5
51053,99576,5
51045,99570,5
51042,99557,4
51036,99544,5
51030,99533,5
51015,99508,5
51010,99496,5
50994,99474,4
50969,99435,5
50959,99416,5
50947,99393,5
50934,99374,4
50928,99352,6
50912,99322,4
50898,99306,5
50896,99282,5
50885,99278,6
50893,99272,3
50876,99279,5
50886,99273,5
50883,99279,5
50886,99293,4
50892,99310,5
50902,99312,5
50901,99313,5
50906,99320,5
50908,99321,4
50913,99331,5
50916,99337,5
50919,99339,5
50913,99328,5
50911,99344,4
50920,99334,5
50918,99335,5
50906,99333,5
50911,99317,4
50911,99316,5
50907,99300,6
50898,99294,4
50892,99284,5
50885,99271,4
50867,99248,5
50866,99239,5
50847,99215,5
50844,99197,5
50829,99170,4
50823,99150,5
50756,99125,5
50792,99102,5
50779,99078,5
50771,99064,4
50680,99030,5
50748,99009,5
50727,98971,5
50712,98964,5
50618,98930,4
50686,98906,5
50668,98878,5
50648,98847,5
50650,98802,4
50599,98756,4
50565,98692,5
50529,98626,6
50587,98564,4
50471,98501,4
50438,98439,5
50396,98394,5
50471,98353,5
50356,98314,5
50341,98304,4
50341,98291,5
50374,98299,5
50344,98304,5
50349,98304,5
50362,98317,4
50376,98340,5
50380,98375,5
50394,98397,5
50401,98414,5
50420,98382,4
50431,98439,5
50436,98462,5
50450,98495,5
50456,98416,5
50453,98487,4
50442,98455,5
50410,98421,5
50406,98319,6
50391,98376,4
50381,98366,4
50374,98353,5
50377,98378,5
50372,98348,5
50381,98352,4
50383,98376,5
50392,98493,5
50408,98426,5
50438,98477,5
50465,98515,4
50497,98666,5
50525,98627,5
50552,98677,5
50575,98725,5
50605,98806,4
50638,98819,5
50660,98859,5
50683,98896,5
50704,98952,4
50723,98986,5
50743,99009,4
50774,99054,5
50790,99094,5
50803,99125,4
50813,99139,5
50832,99167,5
50841,99183,5
50854,99194,5
50862,99213,4
50870,99231,5
50889,99251,5
50885,99257,5
50884,99265,5
50879,99252,4
50879,99258,5
50880,99247,5
50882,99246,5
50872,99239,5
50864,99226,4
50859,99209,5
50852,99197,5
50831,99171,5
50828,99156,4
50828,99138,4
50801,99117,6
50802,99102,4
50800,99084,5
50787,99086,4
50782,99075,5
50781,99069,5
50786,99077,5
50782,99089,5
50795,99093,4
50807,99116,5
50811,99140,5
50820,99156,5
50844,99187,5
50853,99216,4
50877,99248,5
50885,99267,5
50895,99299,5
50919,99318,5
50934,99328,4
50945,99365,5
50955,99377,5
50961,99407,5
50978,99419,5
50988,99441,4
51001,99460,5
51004,99470,6
51012,99473,4
51015,99479,4
51016,99485,5
51008,99476,5
51011,99472,5
51005,99463,5
50997,99440,4
50967,99412,5
50963,99366,5
50936,99328,5
50907,99276,5
50889,99236,4
50854,99197,5
50831,99141,5
50814,99107,5
50790,99073,5
50782,99052,4
50775,99042,5
50774,99040,5
50778,99046,5
50782,99062,5
50797,99071,4
50795,99109,5
50810,99119,5
50820,99143,5
50829,99145,4
50842,99170,5
50852,99193,5
50865,99206,5
50866,99210,5
50865,99210,4
50851,99175,5
50826,99124,5
50758,99092,5
50788,99064,5
50770,99038,4
50762,99014,5
50672,99003,5
50745,98996,5
50749,98999,5
50757,99016,4
50683,99034,5
50780,99053,5
50797,99111,5
50811,99123,5
50870,99170,5
50860,99214,4
50891,99252,5
50912,99297,5
51017,99332,4
50952,99371,4
50971,99413,5
50988,99440,5
51097,99462,5
51015,99492,4
51035,99517,5
51050,99544,5
51097,99559,5
51065,99576,5
51072,99595,4
51082,99605,5
51088,99609,5
51101,99623,5
51111,99654,9
51108,99666,0
51127,99598,4
51110,99666,6
51113,99639,4
51113,99643,5
51112,99566,4
51109,99645,5
51110,99634,5
51094,99627,5
51095,99549,4
51083,99596,5
51065,99565,4
51055,99550,5
51048,99567,5
51039,99497,4
51020,99487,5
51009,99462,5
51011,99554,5
50994,99458,5
50991,99450,4
50997,99451,5
51005,99539,5
51001,99473,5
51020,99483,5
51028,99504,4
51042,99561,5
51050,99562,5
51078,99582,6
51088,99622,4
51109,99655,4
51123,99678,5
51135,99708,5
51149,99726,5
51165,99754,5
51173,99772,4
51184,99790,5
51183,99804,5
51186,99804,5
51185,99798,4
51183,99775,5
51165,99768,5
51170,99754,5
51148,99732,5
51138,99712,4
51120,99685,5
51113,99647,5
51095,99634,5
51078,99609,5
51073,99589,5
51066,99583,4
51064,99587,5
51063,99590,5
51070,99591,6
51077,99594,3
51081,99605,5
51078,99612,5
51074,99611,5
51087,99614,5
51086,99631,4
51092,99642,5
51095,99646,5
51093,99641,5
51081,99608,4
51061,99558,4
51041,99536,5
51027,99498,5
51013,99477,5
50998,99463,4
50992,99454,5
50992,99464,5
51000,99462,5
51013,99485,5
51028,99513,4
51046,99549,6
51056,99583,4
51094,99634,5
51111,99688,5
51147,99735,6
51177,99806,3
51217,99853,5
51242,99903,5
51269,99946,5
51301,99999,4
51323,100042,5
51342,100082,5
51356,100109,5
51390,100146,4
51398,100174,4
51431,100203,5
51432,100235,5
51452,100248,5
51456,100278,4
51477,100298,5
51489,100318,5
51515,100372,5
51525,100385,5
51542,100403,4
51542,100393,5
51544,100400,6
51547,100411,4
51558,100410,5
51553,100422,4
51551,100419,5
51542,100419,5
51540,100411,5
51554,100403,5
51539,100401,4
51536,100394,5
51538,100382,5
51535,100382,5
51528,100368,4
51521,100368,4
51527,100363,5
51522,100371,5
51478,100368,5
51535,100396,4
51547,100400,5
51561,100421,5
51485,100445,5
51587,100471,5
51598,100506,4
51614,100538,5
51574,100574,5
51655,100609,6
51673,100638,4
51693,100664,4
51733,100689,5
51722,100716,5
51725,100735,5
51731,100746,5
51833,100754,4
51746,100757,5
51741,100760,5
51750,100761,5
51833,100758,4
51747,100750,4
51744,100752,5
51745,100755,5
51780,100761,5
51758,100765,4
51759,100788,5
51763,100809,5
51789,100820,5
51806,100864,5
51814,100881,5
51831,100921,4
51846,100882,5
51873,100989,5
51883,101032,6
51916,101081,3
51941,101035,5
51953,101120,5
51938,101096,5
51923,101065,5
51910,101001,4
51908,101046,5
51889,101022,5
51886,101007,5
51877,101043,5
51874,100991,4
51873,100993,5
51878,100986,5
51884,101103,5
51888,101016,4
51891,101034,5
51899,101042,5
51913,101126,5
51916,101072,5
51913,101062,4
51922,101075,6
51924,101108,4
51922,101074,5
51928,101079,5
51922,101076,4
51919,101076,5
51928,101057,5
51928,101062,5
51912,101048,5
51911,101045,4
51909,101034,5
51906,101019,5
51901,101022,5
51895,101021,5
51895,101017,4
51899,101015,5
51897,101019,5
51888,101002,5
51881,101000,4
51883,100984,5
51878,100978,5
51868,100971,5
51860,100962,5
51866,100949,4
51853,100934,5
51837,100924,6
51844,100909,4
51829,100899,5
51830,100898,4
51819,100872,5
51815,100863,5
51801,100837,5
51789,100818,5
51781,100809,4
51775,100800,5
51767,100777,5
51768,100771,5
51755,100763,5
51752,100763,4
51748,100754,5
51751,100756,5
51755,100755,5
51748,100746,4
51749,100751,5
51745,100743,5
51741,100734,5
51741,100724,5
51729,100712,4
51733,100699,5
51703,100665,5
51690,100638,6
51676,100610,4
51646,100575,4
51629,100516,5
51611,100473,5
51578,100418,5
51541,100366,5
51513,100316,4
51482,100260,5
51466,100233,5
51449,100197,5
51432,100182,5
51431,100175,4
51421,100151,5
51410,100137,5
51410,100130,5
51395,100130,4
51403,100137,5
51413,100152,5
51413,100160,5
51417,100156,5
51406,100130,5
51387,100083,4
51359,100034,5
51330,99988,5
51296,99923,5
51263,99875,4
51236,99813,5
51210,99764,5
51181,99711,5
51161,99678,5
51137,99658,4
51121,99626,5
51123,99603,5
51105,99595,5
51097,99589,5
51086,99580,4
51096,99583,5
51100,99587,5
51106,99595,5
51037,99584,4
51103,99591,4
51104,99599,5
51114,99610,5
51029,99607,5
51113,99612,4
51120,99624,6
51121,99640,4
51095,99644,5
51134,99652,5
51139,99668,4
51137,99657,5
51199,99660,5
51141,99679,5
51158,99699,5
51162,99703,4
51260,99696,5
51156,99688,5
51158,99689,5
51165,99691,5
51221,99691,4
51158,99694,5
51150,99683,5
51149,99677,5
51167,99662,4
51138,99649,4
51133,99644,5
51119,99625,5
51104,99560,5
51092,99576,4
51083,99537,5
51061,99508,6
51037,99402,4
51027,99442,5
51004,99405,4
50992,99376,5
50967,99264,5
50967,99332,5
50952,99319,5
50949,99296,4
50937,99290,5
50928,99282,5
50931,99276,5
50929,99278,5
50929,99337,4
50920,99270,5
50918,99264,5
50923,99261,5
50925,99371,4
50910,99268,4
50922,99254,5
50914,99263,5
50921,99308,5
50909,99263,4
50918,99251,5
50916,99253,5
50910,99261,5
50909,99247,5
50912,99239,4
50896,99234,5
50894,99220,5
50891,99208,5
50881,99187,5
50880,99188,4
50866,99182,5
50864,99149,5
50833,99120,5
50824,99091,5
50800,99035,4
50759,98957,5
50722,98903,5
50679,98822,5
50627,98739,4
50586,98656,5
50543,98565,5
50496,98498,5
50468,98436,5
50450,98411,5
50435,98393,4
50424,98380,5
50428,98372,5
50429,98387,5
50435,98400,4
50432,98406,5
50440,98426,5
50459,98453,5
50474,98489,5
50500,98499,4
50508,98538,5
50521,98579,5
50548,98609,5
50562,98627,5
50557,98598,4
50522,98544,5
50503,98509,5
50479,98466,5
50457,98419,4
50435,98393,4
50413,98356,5
50403,98335,4
50393,98304,5
50386,98289,4
50370,98285,6
50368,98284,3
50379,98295,5
50383,98300,5
50388,98323,4
50404,98333,5
50411,98355,5
50430,98383,5
50443,98401,5
50450,98428,4
50473,98447,5
50482,98463,5
50485,98480,5
50506,98507,5
50507,98523,4
50517,98545,5
50532,98553,5
50533,98579,5
50545,98595,4
50565,98609,4
50563,98611,5
50572,98621,6
50568,98641,4
50580,98640,4
50583,98650,5
50588,98655,5
50591,98662,5
50585,98658,5
50592,98656,4
50595,98656,5
50582,98667,5
50591,98664,5
50590,98659,5
50592,98670,4
50591,98665,5
50585,98652,5
50582,98651,5
50583,98644,5
50572,98634,4
50523,98631,5
50564,98612,5
50546,98603,5
50546,98590,5
50470,98568,4
50535,98558,5
50527,98533,5
50510,98523,6
50436,98522,3
50506,98508,5
50510,98507,5
50503,98498,5
50510,98499,5
50500,98500,4
50506,98509,5
50507,98515,5
50594,98517,5
50502,98521,7
50518,98537,2
50514,98547,5
50627,98549,5
50529,98558,5
50543,98563,5
50541,98574,4
50592,98591,5
50562,98597,5
50558,98607,5
50566,98614,4
50579,98622,5
50579,98638,4
50578,98640,5
50579,98634,5
50580,98579,6
50570,98627,3
50576,98620,5
50579,98623,5
50563,98536,5
50559,98607,5
50557,98590,4
50561,98592,5
50548,98503,5
50541,98566,5
50536,98558,4
50535,98538,5
50529,98556,5
50511,98511,5
50494,98495,5
50495,98465,4
50473,98522,5
50435,98386,5
50402,98317,5
50373,98243,4
50335,98266,4
50280,98091,6
50241,98015,4
50204,97945,5
50165,97915,4
50141,97842,5
50120,97810,5
50112,97802,5
50119,97811,5
50117,97818,4
50124,97830,5
50141,97852,5
50154,97884,5
50165,97913,5
50190,97961,4
50209,97992,5
50228,98020,5
50265,98065,5
50278,98096,5
50291,98129,4
50305,98144,5
50307,98122,5
50281,98078,5
50266,98044,4
50236,98007,4
50223,97966,5
50211,97957,6
50195,97927,4
50186,97911,4
50175,97905,5
50172,97895,5
50163,97898,5
50167,97901,5
50180,97922,4
50192,97936,5
50208,97971,5
50219,97995,5
50235,98008,5
50243,98040,4
50274,98079,5
50286,98102,5
50303,98132,5
50318,98151,5
50329,98182,4
50341,98200,5
50357,98230,5
50368,98249,5
50389,98280,5
50395,98289,4
50405,98313,5
50419,98327,5
50422,98336,6
50427,98345,3
50426,98357,5
50434,98366,5
50448,98377,5
50452,98391,5
50469,98394,4
50454,98392,5
50456,98399,5
50463,98396,5
50459,98392,5
50464,98394,4
50456,98378,5
50449,98384,5
50445,98369,5
50451,98364,5
50436,98358,4
50433,98346,5
50428,98328,5
50427,98307,5
50416,98295,4
50409,98298,5
50400,98275,4
50394,98257,5
50381,98247,5
50375,98245,4
50369,98234,5
50370,98238,5
50367,98224,5
50362,98230,5
50374,98228,4
50381,98234,5
50382,98244,5
50391,98256,5
50398,98260,5
50404,98277,4
50402,98290,5
50406,98299,5
50408,98306,5
50423,98305,5
50421,98319,4
50425,98318,5
50379,98322,5
50433,98327,5
50433,98333,4
50427,98337,4
50353,98332,6
50426,98332,4
50426,98334,5
50436,98333,4
50348,98330,5
50421,98329,5
50428,98319,5
50424,98318,5
50433,98313,4
50414,98309,5
50410,98295,5
50411,98288,5
50481,98279,5
50396,98268,4
50394,98258,5
50384,98267,5
50474,98248,5
50379,98227,5
50371,98216,4
50355,98201,5
50393,98188,5
50346,98186,5
50336,98158,4
50327,98142,4
50322,98113,5
50305,98094,6
50286,98074,4
50260,98024,4
50237,97914,5
50210,97913,5
50182,97856,5
50145,97803,5
50115,97675,4
50091,97708,5
50059,97661,5
50044,97614,5
50031,97535,5
50008,97596,5
50013,97592,4
50020,97596,5
50034,97646,5
50029,97630,5
50043,97658,4
50067,97680,5
50080,97789,5
50099,97739,5
50104,97739,5
50106,97762,4
50123,97862,5
50120,97780,5
50130,97782,5
50120,97752,4
50086,97729,5
50059,97664,5
50041,97636,5
50034,97602,5
50011,97583,4
49999,97559,5
50006,97552,5
49984,97543,5
49990,97539,5
49991,97547,4
50002,97554,5
50018,97579,5
50023,97604,5
50047,97624,5
50057,97661,4
50069,97695,5
50098,97722,5
50112,97764,5
50131,97784,5
50147,97814,5
50156,97846,4
50169,97861,5
50186,97884,5
50196,97908,4
50216,97936,5
50216,97959,5
50238,97977,5
50245,97996,5
50255,98006,4
50263,98018,5
50266,98031,5
50274,98028,5
50271,98042,5
50276,98054,4
50293,98061,5
50287,98055,5
50286,98058,5
50279,98051,5
50276,98040,4
50270,98051,5
50272,98036,5
50267,98033,5
50265,98026,5
50256,98003,4
50257,97998,6
50252,97979,4
50232,97956,5
50222,97937,4
50205,97908,5
50199,97897,5
50191,97878,5
50182,97862,5
50178,97851,4
50172,97842,5
50153,97832,5
50160,97831,5
50159,97830,5
50165,97833,4
50167,97841,5
50163,97845,5
50177,97857,5
50185,97882,5
50186,97892,4
50191,97895,5
50195,97903,5
50196,97919,5
50204,97927,5
50202,97921,4
50214,97934,5
50222,97948,5
50216,97946,5
50225,97964,4
50228,97961,5
50235,97958,5
50227,97970,5
50237,97969,5
50242,97977,4
50242,97970,5
50243,97964,5
50241,97969,5
50223,97959,5
50223,97954,4
50216,97942,5
50211,97941,5
50218,97927,5
50200,97913,5
50200,97903,5
50202,97893,4
50183,97871,5
50124,97860,5
50168,97840,5
50155,97821,4
50145,97804,5
50056,97790,5
50124,97765,5
50118,97744,4
50101,97706,5
50004,97678,5
50044,97635,5
50037,97584,5
50008,97544,4
50000,97498,5
49957,97443,5
49941,97411,5
49912,97378,5
49974,97344,4
49883,97331,5
49884,97330,5
49885,97342,5
49967,97343,5
49907,97366,4
49911,97396,6
49926,97406,4
49970,97434,5
49950,97454,5
49963,97479,6
49971,97496,3
49987,97499,5
49984,97532,5
49984,97538,4
49990,97526,5
49988,97449,5
49956,97456,5
49939,97438,5
49920,97414,4
49917,97312,5
49911,97391,5
49899,97375,5
49907,97378,5
49909,97334,4
49918,97405,5
49927,97426,4
49939,97440,5
49953,97518,5
49976,97522,4
49995,97558,5
50041,97605,6
50061,97752,4
50084,97707,5
50110,97754,4
50135,97784,5
50154,97899,5
50172,97860,5
50191,97896,4
50201,97926,4
50231,97976,5
50239,97976,5
50254,98003,5
50264,98028,4
50271,98029,5
50278,98055,5
50280,98065,5
50288,98077,5
50306,98096,4
50327,98126,5
50337,98130,5
50327,98136,5
50331,98134,5
50319,98120,4
50329,98122,5
50319,98131,5
50325,98114,6
50313,98117,4
50319,98109,4
50305,98086,5
50300,98078,5
50295,98070,5
50284,98052,4
50284,98032,4
50273,98023,5
50258,98014,5
50258,98003,5
50257,97994,4
50253,97985,5
50248,97984,5
50245,97978,5
50244,97990,5
50254,97995,4
50263,98009,5
50260,98021,5
50272,98032,5
50295,98070,5
50305,98088,5
50322,98101,4
50338,98137,5
50345,98164,5
50368,98184,6
50373,98215,3
50391,98223,5
50401,98258,5
50418,98263,5
50423,98290,4
50431,98300,4
50442,98315,5
50440,98318,5
50448,98322,5
50456,98327,4
50458,98333,5
50460,98339,5
50458,98330,5
50454,98324,5
50454,98307,4
50439,98286,5
50415,98270,5
50404,98233,5
50386,98199,5
50358,98159,4
50343,98120,6
50322,98078,4
50311,98056,5
50294,98040,5
50275,98017,4
50283,98018,5
50276,98012,5
50275,98015,5
50283,98034,4
50298,98044,4
50307,98064,5
50312,98070,5
50318,98088,5
50327,98091,4
50331,98102,5
50334,98124,5
50342,98116,5
50336,98109,5
50325,98095,4
50312,98042,5
50274,98000,5
50254,97956,5
50230,97917,5
50209,97891,4
50204,97869,5
50193,97865,6
50202,97869,4
50156,97880,5
50219,97902,4
50230,97923,5
50251,97970,5
50191,98014,5
50305,98048,4
50331,98114,4
50367,98175,5
50322,98214,5
50425,98269,5
50453,98330,4
50480,98381,5
50547,98424,5
50532,98468,5
50557,98514,5
50585,98537,4
50686,98586,5
50617,98609,5
50633,98627,5
50645,98655,5
50734,98668,4
50662,98676,5
50662,98692,5
50681,98717,7
50719,98737,3
50697,98720,4
50683,98712,5
50690,98706,5
50668,98682,5
50676,98689,5
50670,98674,4
50660,98662,5
50650,98582,5
50647,98636,5
50632,98611,4
50613,98582,5
50608,98466,5
50586,98530,5
50570,98501,5
50555,98489,4
50548,98417,5
50531,98446,5
50527,98449,5
50526,98444,5
50545,98491,5
50537,98454,4
50550,98464,5
50553,98486,5
50571,98599,5
50579,98540,4
50597,98559,5
50623,98596,5
50633,98710,5
50663,98668,5
50677,98717,4
50686,98732,5
50714,98789,5
50729,98795,5
50749,98807,4
50753,98838,5
50758,98849,5
50771,98853,5
50776,98870,5
50783,98856,4
50787,98861,5
50773,98854,5
50771,98860,5
50762,98828,5
50741,98803,4
50735,98770,6
50708,98735,4
50684,98706,5
50673,98672,5
50655,98644,4
50652,98622,5
50638,98606,5
50621,98594,5
50613,98590,5
50627,98583,4
50624,98594,5
50617,98591,5
50629,98600,5
50634,98605,4
50631,98612,4
50633,98620,5
50635,98624,5
50648,98631,5
50640,98631,4
50644,98617,5
50617,98570,5
50583,98512,5
50565,98479,5
50548,98452,4
50532,98428,5
50522,98418,6
50525,98407,4
50519,98405,5
50521,98421,4
50530,98434,5
50548,98456,5
50557,98501,5
50584,98541,5
50613,98588,4
50634,98622,5
50660,98673,5
50688,98715,5
50711,98762,4
50733,98807,4
50763,98846,5
50786,98879,5
50805,98913,5
50825,98951,4
50840,98984,5
50854,99004,5
50855,99018,5
50883,99044,5
50876,99047,4
50888,99058,5
50893,99072,5
50892,99073,5
50913,99107,5
50924,99122,4
50921,99112,5
50929,99119,5
50923,99115,5
50921,99111,5
50915,99112,4
50916,99102,5
50909,99096,5
50913,99093,5
50910,99079,4
50902,99078,4
50903,99058,5
50890,99050,5
50878,99027,5
50873,99002,4
50851,98984,5
50845,98986,5
50844,98967,5
50833,98956,5
50842,98953,5
50826,98969,4
50837,98968,5
50834,98971,5
50840,98966,5
50791,98986,4
50855,98989,5
50861,99022,5
50872,99029,5
50801,99051,5
50899,99070,4
50908,99092,5
50925,99116,5
50872,99129,5
50942,99157,4
50946,99171,4
50959,99187,5
51009,99189,5
50967,99200,5
50959,99184,4
50958,99171,5
51033,99143,5
50929,99121,5
50904,99088,5
50894,99044,4
50936,99009,6
50853,98982,4
50827,98953,5
50814,98923,5
50832,98906,4
50801,98884,5
50789,98868,5
50784,98879,5
50780,98847,5
50783,98865,4
50786,98862,5
50782,98867,5
50779,98814,5
50788,98879,5
50798,98888,4
50787,98880,5
50773,98771,5
50746,98789,5
50709,98732,4
50678,98667,5
50651,98579,5
50622,98563,6
50603,98540,4
50590,98507,4
50581,98548,5
50569,98477,5
50559,98480,5
50578,98487,5
50586,98596,4
50584,98510,5
50589,98543,5
50612,98552,5
50620,98642,5
50627,98607,4
50636,98627,5
50652,98649,5
50668,98693,5
50685,98694,5
50691,98715,4
50701,98736,5
50726,98748,5
50722,98757,5
50729,98768,4
50730,98773,5
50735,98781,5
50734,98775,5
50735,98769,5
50733,98767,3
50726,98761,5
50729,98760,5
50730,98770,5
50727,98756,5
50716,98735,4
50710,98727,5
50699,98716,5
50696,98711,5
50694,98700,5
50691,98689,4
50687,98687,5
50685,98677,5
50671,98671,5
50661,98651,5
50656,98635,4
50656,98624,5
50645,98607,5
50628,98587,5
50617,98558,4
50598,98533,6
50594,98520,4
50582,98500,5
50578,98485,5
50574,98479,6
50564,98476,3
50563,98466,5
50558,98463,5
50551,98458,5
50560,98461,4
50556,98464,5
50571,98460,5
50564,98457,5
50564,98473,5
50564,98478,4
50553,98476,5
50561,98472,5
50568,98482,5
50571,98463,5
50559,98472,4
50559,98480,5
50564,98466,5
50569,98475,5
50557,98474,4
50562,98463,5
50560,98465,6
50557,98460,4
50557,98445,5
50555,98451,4
50552,98446,7
50547,98433,3
50538,98417,5
50528,98411,5
50518,98390,4
50504,98356,5
50482,98331,5
50459,98268,5
50435,98201,5
50386,98129,4
50337,98042,5
50297,97960,5
50241,97875,5
50199,97788,5
50154,97723,4
50125,97661,5
50097,97620,5
50080,97600,5
50083,97602,4
50076,97609,4
50084,97617,5
50100,97643,6
50105,97651,4
50115,97668,4
50140,97695,5
50133,97718,5
50158,97765,5
50179,97800,5
50202,97834,4
50164,97875,5
50240,97879,5
50231,97863,5
50218,97817,5
50111,97801,4
50175,97763,5
50155,97734,5
50143,97722,5
50104,97686,5
50130,97684,4
50118,97668,5
50129,97665,5
50170,97669,5
50125,97688,5
50134,97690,4
50143,97708,5
50242,97719,5
50163,97742,6
50178,97769,3
50191,97788,5
50264,97817,5
50222,97846,5
50226,97863,5
50245,97885,4
50279,97920,5
50280,97941,5
50294,97974,5
50302,97982,5
50321,97971,4
50316,98026,5
50334,98043,5
50346,98059,5
50347,98004,5
50354,98071,4
50360,98076,5
50358,98090,5
50367,98002,5
50375,98109,5
50376,98103,5
50370,98110,4
50376,98107,5
50377,98113,5
50379,98111,6
50382,98107,3
50385,98180,5
50384,98112,5
50375,98103,5
50380,98098,4
50366,98199,5
50375,98096,5
50370,98086,5
50364,98073,5
50354,98120,4
50353,98057,5
50348,98046,5
50350,98029,5
50335,98040,5
50332,98008,4
50322,98003,5
50323,98001,5
50314,98002,5
50317,98001,4
50325,97999,4
50325,98014,6
50321,98015,4
50328,98027,5
50333,98021,4
50336,98030,5
50345,98040,5
50348,98039,5
50356,98047,5
50350,98057,4
50360,98070,5
50358,98069,5
50351,98069,5
50366,98074,5
50372,98088,4
50370,98078,5
50374,98085,5
50369,98090,5
50376,98093,5
50377,98085,4
50376,98096,5
50376,98087,5
50364,98082,5
50368,98080,4
50361,98073,4
50365,98069,5
50357,98059,6
50350,98055,4
50344,98043,4
50338,98036,5
50346,98035,5
50333,98010,5
50328,97997,5
50310,97972,4
50291,97931,5
50264,97891,5
50235,97824,5
50192,97767,5
50163,97704,4
50134,97633,5
50093,97576,5
50054,97522,5
50038,97475,5
50027,97448,4
50002,97429,5
50004,97431,5
50004,97434,5
50018,97447,5
50033,97476,4
50044,97506,5
50057,97534,5
50079,97559,6
50097,97603,3
50125,97637,5
50130,97676,5
50159,97708,5
50183,97743,5
50195,97769,4
50184,97748,5
50174,97695,5
50145,97670,5
50136,97637,5
50114,97626,4
50110,97592,5
50093,97582,5
50090,97572,8
50092,97578,2
50085,97569,4
50082,97566,5
50069,97577,5
50091,97591,5
50099,97606,4
50121,97633,5
50137,97659,4
50154,97677,5
50159,97705,5
50185,97735,4
50190,97755,5
50204,97778,5
50187,97810,5
50237,97838,5
50247,97866,4
50260,97889,5
50202,97916,5
50285,97943,5
50300,97956,5
50311,97970,4
50231,97978,5
50315,97977,5
50315,97986,5
50319,97980,5
50321,97977,4
50314,97977,5
50322,97987,5
50331,97984,5
50391,97986,5
50313,97992,4
50322,97987,6
50311,97979,4
50417,97975,5
50319,97988,4
50314,97979,5
50315,97976,5
50348,97961,5
50304,97957,5
50298,97950,4
50298,97952,5
50307,97936,5
50288,97929,5
50281,97916,5
50286,97918,4
50281,97856,5
50285,97913,5
50278,97900,5
50275,97910,5
50275,97819,4
50279,97907,5
50273,97889,5
50276,97901,5
50283,97835,5
50287,97923,5
50283,97934,4
50291,97935,6
50297,97972,4
50297,97944,4
50300,97953,5
50305,97956,5
50306,98044,5
50309,97964,5
50305,97967,4
50313,97970,5
50312,98061,5
50311,97973,5
50322,97972,5
50315,97961,4
50317,98012,5
50315,97967,5
50311,97974,5
50315,97967,5
50312,97970,4
50300,97965,5
50312,97956,5
50308,97949,5
50303,97950,5
50292,97939,4
50294,97942,5
50288,97936,5
50287,97921,5
50278,97914,4
50277,97904,5
50268,97907,5
50273,97906,5
50272,97892,5
50261,97887,4
50261,97859,5
50253,97852,5
50240,97846,5
50239,97832,5
50234,97814,4
50225,97800,5
50211,97782,5
50198,97774,5
50204,97766,5
50181,97746,4
50189,97733,5
50170,97732,5
50173,97707,5
50162,97698,5
50150,97671,5
50136,97645,4
50117,97606,5
50091,97563,5
50069,97506,4
50027,97453,4
49994,97377,5
49959,97334,5
49931,97269,5
49896,97225,4
49885,97186,5
49874,97161,5
49854,97151,5
49856,97152,5
49862,97158,4
49875,97179,5
49889,97208,5
49902,97229,5
49921,97269,5
49943,97301,4
49962,97348,5
49983,97369,5
49995,97398,5
50012,97429,5
50017,97438,4
50024,97444,6
50004,97402,4
49996,97376,5
49967,97337,4
49950,97316,4
49938,97294,5
49943,97283,5
49929,97283,5
49938,97281,4
49939,97294,5
49945,97295,5
49944,97305,5
49951,97326,5
49969,97357,4
49983,97379,5
50001,97411,5
50021,97454,5
50040,97482,5
50067,97524,4
50087,97552,5
50102,97597,5
50131,97621,6
50133,97648,4
50162,97681,4
50176,97703,5
50192,97730,5
50202,97758,5
50200,97781,4
50228,97800,4
50241,97834,5
50240,97833,5
50201,97839,5
50258,97843,4
50252,97848,5
50258,97850,5
50186,97858,5
50266,97869,5
50278,97882,4
50276,97880,5
50215,97881,5
50274,97878,5
50273,97864,5
50273,97858,5
50298,97859,4
50254,97841,5
50240,97826,5
50243,97827,6
50317,97803,3
50225,97792,5
50210,97765,5
50209,97751,5
50271,97735,4
50186,97714,4
50177,97705,5
50177,97689,5
50193,97683,5
50163,97676,4
50154,97667,5
50159,97665,5
50161,97646,5
50158,97677,5
50163,97690,4
50170,97700,5
50174,97637,5
50176,97708,5
50184,97723,5
50200,97727,4
50191,97653,6
50203,97747,4
50202,97753,5
50212,97764,5
50210,97728,6
50219,97781,3
50219,97789,5
50219,97782,5
50212,97831,4
50229,97781,4
50220,97791,5
50218,97784,5
50212,97868,5
50213,97783,4
50217,97775,5
50208,97762,5
50207,97826,5
50213,97754,5
50197,97758,4
50196,97748,5
50190,97755,5
50191,97721,5
50189,97707,5
50177,97699,4
50159,97677,5
50150,97636,6
50124,97598,4
50103,97545,5
50073,97492,4
50035,97447,5
50010,97387,5
49984,97353,5
49960,97320,4
49953,97275,4
49940,97265,5
49933,97255,5
49921,97256,5
49927,97265,4
49940,97281,5
49952,97296,5
49955,97309,5
49962,97316,5
49964,97330,4
49970,97352,5
49974,97357,5
49983,97345,5
49988,97367,5
49988,97367,4
49995,97364,5
49980,97334,5
49950,97288,6
49936,97269,4
49917,97243,4
49905,97207,5
49903,97205,5
49903,97185,5
49897,97197,5
49901,97207,4
49905,97209,5
49917,97220,5
49924,97259,5
49938,97280,4
49955,97323,5
49981,97359,5
50003,97416,5
50024,97443,5
50047,97491,4
50079,97537,5
50101,97568,5
50122,97610,5
50145,97637,5
50164,97671,5
50174,97699,4
50192,97728,5
50204,97745,5
50213,97763,6
50226,97783,3
50232,97796,5
50240,97812,5
50231,97814,5
50245,97828,5
50246,97826,4
50258,97839,5
50271,97856,5
50261,97850,5
50251,97838,4
50258,97824,5
50249,97823,5
50249,97824,5
50237,97807,5
50235,97809,4
50234,97788,5
50219,97785,5
50217,97750,5
50209,97735,5
50201,97717,4
50189,97712,6
50171,97693,4
50169,97675,5
50164,97653,5
50155,97642,4
50146,97640,5
50142,97625,5
50144,97638,5
50143,97635,5
50110,97645,4
50151,97650,5
50152,97659,5
50160,97675,5
50098,97696,4
50181,97718,5
50183,97720,5
50200,97728,5
50118,97738,5
50209,97759,4
50221,97763,5
50219,97781,5
50215,97777,5
50233,97797,5
50242,97800,4
50235,97800,5
50299,97817,6
50246,97816,4
50240,97819,5
50239,97808,4
50338,97809,5
50241,97803,5
50237,97806,5
50239,97801,5
50286,97794,4
50226,97787,5
50221,97779,5
50220,97774,5
50220,97769,4
50212,97760,5
50203,97745,5
50206,97732,5
50187,97674,5
50182,97717,4
50182,97710,5
50179,97690,5
50179,97607,5
50158,97669,5
50161,97655,4
50150,97639,5
50136,97531,5
50109,97580,6
50091,97541,4
50072,97489,4
50038,97453,5
50009,97380,5
49980,97336,5
49955,97288,4
49925,97336,4
49910,97218,5
49897,97202,5
49895,97178,5
49895,97271,4
49888,97189,5
49902,97203,5
49910,97221,5
49923,97270,5
49921,97257,4
49939,97274,5
49944,97295,5
49964,97322,5
49972,97345,5
49987,97362,5
50001,97377,4
49989,97351,5
49966,97313,5
49950,97285,5
49942,97248,4
49925,97237,5
49924,97228,5
49917,97227,5
49914,97236,4
49920,97233,4
49923,97248,5
49938,97270,5
49947,97301,5
49966,97322,4
49991,97357,5
50009,97403,5
50040,97446,5
50054,97493,5
50087,97550,4
50120,97591,5
50140,97638,5
50163,97680,5
50186,97715,5
50208,97749,4
50230,97786,6
50244,97825,4
50267,97854,5
50284,97894,5
50305,97931,4
50311,97943,5
50319,97954,5
50329,97980,5
50336,97983,4
50344,97998,4
50340,98006,5
50349,98013,5
50355,98005,5
50351,98005,4
50350,97988,5
50349,97990,5
50335,97987,5
50330,97967,5
50336,97967,4
50322,97958,5
50317,97938,5
50315,97932,5
50312,97921,5
50297,97905,4
50279,97883,5
50272,97867,6
50270,97850,4
50252,97823,5
50250,97816,4
50248,97809,5
50241,97809,5
50250,97819,6
50249,97818,3
50256,97816,5
50253,97839,5
50262,97844,5
50266,97855,5
50278,97880,4
50282,97892,5
50296,97907,5
50310,97942,5
50324,97962,5
50329,97981,4
50352,98002,5
50355,98019,5
50367,98046,5
50383,98066,5
50388,98072,4
50393,98094,5
50401,98101,5
50399,98091,5
50405,98097,4
50393,98090,4
50393,98070,5
50351,98056,5
50371,98032,5
50351,98007,4
50339,97976,5
50255,97943,5
50306,97930,5
50291,97904,5
50291,97878,4
50192,97868,5
50275,97867,5
50280,97870,5
50279,97868,5
50275,97885,4
50279,97894,6
50288,97895,4
50288,97893,5
50368,97897,5
50298,97897,5
50303,97912,4
50293,97906,5
50388,97902,5
50280,97863,4
50251,97813,4
50230,97774,5
50258,97741,5
50192,97712,5
50172,97701,4
50166,97668,5
50184,97665,5
50168,97666,5
50172,97686,5
50183,97718,4
50190,97682,5
50211,97759,5
50234,97801,5
50247,97841,5
50275,97804,4
50309,97922,5
50329,97970,5
50343,98011,4
50363,97965,5
50394,98080,5
50406,98115,5
50426,98159,3
50453,98201,5
50474,98208,4
50487,98242,4
50499,98260,5
50510,98372,5
50514,98296,5
50518,98298,4
50524,98310,5
50533,98431,5
50550,98360,5
50560,98375,5
50562,98380,4
50552,98403,5
50547,98358,5
50552,98359,5
50544,98342,5
50543,98336,4
50531,98330,5
50525,98321,5
50517,98314,6
50509,98289,4
50497,98271,4
50495,98244,5
50485,98230,5
50470,98211,5
50464,98192,4
50457,98183,5
50449,98184,5
50449,98172,5
50443,98175,5
50453,98194,4
50464,98197,5
50467,98203,5
50469,98218,5
50481,98237,5
50497,98268,4
50508,98290,5
50524,98316,5
50540,98325,9
50544,98374,5
50594,98418,8
50594,98418,7
50594,98427,5
50596,98423,8
50586,98419,7
50579,98393,5
50549,98391,8
50549,98357,7
50509,98274,7
50509,98274,8
50510,98303,7
50500,98271,5
50500,98275,10
50530,98323,9
50530,98323,8
50543,98350,6
50551,98367,5
50573,98374,8
50564,98379,7
50481,98233,9
50481,98233,10
50467,98178,5
50460,98199,8
50462,98198,7
50491,98270,7
50491,98270,10
50498,98293,5
50536,98333,5
50551,98371,10
50571,98410,5
50594,98485,5
50712,98650,10
50712,98650,5
50728,98685,5
50748,98712,10
50767,98747,5
50786,98785,5
50841,98882,10
50841,98882,5
