RED,IR,EKG,TIME
40802,73792,7
40819,73794,8
40819,73794,5
40789,73809,7
40795,73806,8
40841,73825,5
40843,73830,7
40841,73844,8
40866,73907,9
40866,73907,5
40887,73866,8
40903,73926,7
40905,73956,5
40958,73964,8
40924,73978,7
40963,74045,10
40963,74045,5
40971,74048,7
40997,74064,8
40983,74075,5
40987,74110,7
41008,74113,8
41008,74113,7
40961,74106,5
41009,74118,8
41008,74111,7
41011,74121,7
41001,74084,8
41001,74084,7
41014,74110,5
40995,74071,8
40884,73891,7
41005,74107,5
41041,74127,8
41018,74141,7
41056,74197,10
41056,74197,7
41058,74232,5
41062,74205,5
41069,74256,10
41079,74239,5
41078,74216,5
41033,74138,10
41033,74138,5
41018,74129,5
41023,74115,10
41019,74117,5
41011,74115,5
41023,74133,10
41023,74133,5
41020,74125,5
41030,74141,10
41050,74148,5
41035,74154,5
41003,74164,10
41030,74183,5
41062,74177,5
41072,74217,10
41072,74217,5
41089,74231,7
41080,74230,8
41082,74230,5
41090,74249,7
41097,74247,8
41133,74314,5
41133,74314,7
41133,74317,8
41140,74302,5
41129,74308,7
41144,74323,8
41149,74320,5
41136,74322,7
41145,74336,8
41145,74336,5
41137,74261,7
41132,74302,8
41149,74329,9
41162,74372,8
41162,74372,5
41205,74394,7
41181,74411,8
41189,74423,5
41202,74451,7
41211,74495,8
41217,74511,5
41280,74584,7
41280,74584,8
41285,74579,5
41278,74583,7
41296,74589,8
41292,74580,2
41276,74593,1
41290,74576,5
41288,74613,5
41296,74592,5
41296,74596,4
41296,74604,5
41296,74610,5
41309,74617,5
41313,74620,5
41317,74630,4
41330,74653,5
41337,74657,5
41333,74678,5
41343,74690,4
41359,74709,5
41367,74717,4
41364,74720,5
41374,74730,5
41363,74754,6
41388,74758,3
41393,74761,5
41381,74742,5
41354,74732,5
41352,74699,4
41332,74654,5
41319,74627,5
41286,74611,5
41307,74590,5
41298,74582,4
41293,74582,5
41304,74586,5
41305,74599,5
41305,74593,5
41311,74619,4
41341,74630,5
41332,74631,5
41319,74644,5
41328,74672,4
41370,74678,4
41354,74694,6
41364,74713,4
41361,74714,5
41377,74719,4
41376,74722,5
41377,74730,5
41376,74738,5
41379,74738,5
41388,74749,4
41392,74753,5
41390,74765,5
41396,74749,5
41408,74785,5
41414,74797,4
41435,74822,5
41441,74812,5
41433,74834,5
41439,74838,5
41426,74833,4
41430,74829,5
41442,74836,5
41436,74834,5
41441,74844,4
41448,74867,4
41450,74844,5
41440,74860,6
41446,74847,4
41441,74877,4
41439,74835,5
41440,74844,5
41444,74845,5
41444,74873,5
41450,74865,4
41461,74869,5
41467,74882,5
41472,74897,5
41470,74906,5
41493,74931,4
41493,74954,5
41517,74965,5
41526,74992,5
41532,75006,5
41542,75034,4
41568,75051,5
41572,75074,5
41576,75090,5
41583,75089,5
41594,75094,4
41590,75111,5
41600,75110,5
41603,75111,6
41591,75103,3
41584,75097,5
41587,75091,5
41592,75094,5
41603,75113,5
41591,75121,4
41609,75129,5
41615,75148,5
41627,75160,5
41646,75178,5
41655,75204,4
41670,75230,5
41676,75247,5
41685,75259,5
41698,75268,5
41698,75296,4
41717,75315,5
41731,75331,5
41725,75330,5
41722,75317,4
41705,75278,5
41679,75242,4
41666,75218,5
41649,75184,5
41636,75171,4
41640,75163,5
41634,75158,5
41635,75161,5
41644,75166,5
41638,75180,4
41650,75183,5
41649,75203,5
41668,75212,5
41665,75229,5
41679,75244,4
41693,75275,5
41703,75292,5
41708,75309,5
41718,75331,5
41740,75351,4
41743,75363,5
41755,75391,5
41759,75403,5
41773,75411,4
41786,75429,4
41782,75439,6
41801,75460,4
41802,75472,5
41820,75495,4
41827,75516,5
41845,75536,5
41851,75560,5
41857,75568,5
41866,75572,4
41871,75589,5
41872,75581,5
41876,75590,5
41881,75586,5
41875,75585,4
41882,75599,5
41880,75603,5
41878,75605,5
41886,75610,5
41886,75604,4
41879,75601,5
41874,75597,5
41887,75602,5
41886,75593,4
41884,75600,5
41868,75607,5
41891,75611,6
41894,75615,4
41910,75631,4
41878,75651,5
41918,75666,5
41918,75689,5
41934,75700,5
41944,75721,4
41950,75733,5
41964,75743,5
41969,75758,5
41988,75751,5
41965,75754,4
41972,75743,5
41954,75735,5
41980,75729,5
41947,75715,4
41947,75710,5
41944,75703,4
41955,75705,8
41942,75703,2
41933,75695,6
41922,75701,3
41950,75699,5
41941,75704,5
41940,75701,5
41944,75701,4
41947,75695,5
41953,75734,5
41948,75736,5
41955,75721,5
41940,75682,4
41939,75659,5
41886,75608,5
41869,75561,5
41845,75502,5
41821,75472,4
41802,75445,5
41775,75409,5
41780,75394,5
41767,75379,4
41754,75362,4
41748,75347,5
41731,75367,5
41732,75333,5
41725,75331,4
41729,75330,6
41724,75353,4
41724,75323,5
41729,75323,5
41726,75317,4
41725,75330,5
41719,75317,5
41720,75312,5
41718,75298,5
41718,75298,4
41711,75289,5
41706,75287,5
41701,75280,5
41698,75278,5
41683,75262,4
41683,75253,5
41684,75250,5
41684,75251,5
41684,75253,4
41670,75240,4
41665,75224,5
41665,75212,5
41649,75197,5
41646,75186,4
41632,75172,5
41632,75170,6
41619,75159,4
41612,75136,5
41603,75127,4
41591,75095,5
41584,75089,5
41576,75064,5
41551,75048,5
41543,75012,4
41538,75007,5
41527,74991,5
41518,74970,5
41514,74962,5
41504,74956,4
41503,74941,5
41490,74923,5
41491,74919,5
41488,74918,4
41486,74922,4
41477,74920,5
41479,74902,5
41476,74901,5
41474,74900,4
41465,74898,5
41462,74867,5
41449,74857,5
41437,74825,5
41425,74817,4
41411,74795,5
41403,74782,5
41405,74764,5
41396,74761,5
41390,74757,4
41387,74748,5
41388,74752,5
41387,74759,5
41395,74756,5
41386,74763,4
41383,74765,5
41390,74763,5
41393,74770,5
41393,74778,4
41407,74796,4
41420,74810,4
41418,74826,5
41426,74830,5
41433,74827,5
41410,74800,3
41402,74771,5
41373,74733,5
41364,74705,5
41352,74674,4
41333,74647,5
41321,74629,5
41312,74626,5
41301,74611,5
41290,74590,4
41287,74582,5
41280,74580,5
41285,74571,5
41273,74569,5
41276,74562,4
41284,74568,5
41285,74571,5
41277,74574,5
41272,74586,4
41286,74585,4
41294,74579,6
41283,74586,4
41253,74584,5
41286,74582,4
41286,74586,7
41291,74582,3
41264,74591,5
41285,74593,5
41293,74586,4
41290,74592,5
41300,74598,5
41301,74609,5
41299,74625,5
41311,74624,4
41333,74628,5
41309,74629,5
41308,74634,5
41316,74635,5
41347,74629,4
41311,74624,5
41312,74610,5
41305,74615,5
41320,74623,4
41300,74615,4
41301,74608,5
41298,74608,6
41298,74600,4
41286,74597,4
41289,74587,5
41293,74585,5
41290,74564,5
41277,74586,5
41282,74581,4
41284,74583,5
41284,74542,5
41279,74578,5
41278,74572,5
41273,74571,4
41276,74552,5
41280,74575,5
41277,74567,5
41286,74583,5
41281,74586,4
41276,74582,5
41283,74594,5
41280,74592,5
41289,74621,5
41283,74591,4
41285,74598,5
41300,74597,5
41292,74628,6
41289,74601,3
41305,74603,5
41288,74612,5
41298,74622,5
41301,74618,5
41296,74606,4
41295,74607,5
41296,74612,5
41293,74609,5
41294,74613,5
41297,74617,4
41303,74610,5
41302,74607,5
41295,74611,5
41298,74602,5
41295,74601,4
41290,74588,5
41288,74574,5
41275,74562,5
41253,74525,4
41241,74509,5
41226,74481,4
41217,74454,5
41209,74440,5
41198,74436,6
41195,74425,3
41190,74428,5
41189,74422,5
41187,74416,5
41193,74432,4
41200,74437,5
41199,74447,5
41196,74453,5
41209,74464,5
41224,74491,4
41240,74504,5
41247,74519,5
41250,74530,5
41258,74545,5
41270,74578,4
41277,74597,5
41278,74584,5
41266,74563,5
41239,74512,4
41213,74461,4
41201,74420,6
41170,74381,4
41156,74345,5
41134,74325,4
41114,74294,5
41120,74295,5
41108,74273,5
41092,74253,5
41078,74236,4
41080,74233,5
41068,74226,5
41067,74213,5
41060,74213,5
41064,74220,4
41057,74202,5
41056,74203,5
41059,74195,5
41056,74187,5
41051,74188,4
41048,74183,5
41043,74162,5
41040,74158,5
41032,74163,4
41038,74162,4
41032,74158,5
41041,74163,6
41038,74157,4
41034,74154,4
41040,74150,5
41029,74162,5
41041,74163,5
41038,74168,5
41047,74184,4
41050,74184,5
41050,74187,5
41050,74181,5
41050,74177,5
41038,74181,4
41048,74181,5
41035,74172,5
41040,74183,5
41037,74175,5
41036,74178,4
41025,74170,5
41039,74163,5
41043,74158,5
41032,74155,5
41018,74160,4
41036,74147,5
41024,74155,5
41024,74151,6
40999,74155,3
41035,74147,5
41030,74158,5
41035,74158,5
41026,74152,5
41037,74167,4
41042,74180,5
41053,74180,5
41075,74186,5
41051,74191,5
41059,74200,4
41063,74203,5
41092,74217,5
41063,74221,5
41066,74224,5
41073,74238,4
41088,74230,5
41082,74237,5
41073,74236,5
41071,74240,4
41080,74244,5
41084,74240,4
41077,74251,5
41083,74246,5
41075,74226,4
41073,74248,5
41072,74236,5
41076,74238,5
41079,74213,5
41063,74238,4
41067,74231,5
41071,74228,5
41068,74206,5
41067,74224,5
41066,74232,5
41064,74226,4
41064,74235,5
41061,74217,5
41055,74212,5
41046,74192,4
41042,74201,5
41031,74151,5
41013,74131,5
41013,74112,4
40995,74126,5
40997,74094,6
40993,74090,4
40983,74081,5
40977,74086,4
40974,74089,5
40983,74085,5
40985,74095,5
40984,74083,5
40997,74094,4
40988,74105,5
40999,74117,5
41013,74119,5
41012,74119,5
41011,74129,4
41005,74129,5
41016,74134,5
41019,74152,5
41024,74142,5
41016,74131,4
40991,74090,5
40964,74044,5
40938,74013,5
40928,73980,4
40904,73951,5
40902,73925,5
40888,73907,6
40881,73906,3
40869,73896,4
40867,73890,5
40863,73882,5
40869,73871,5
40863,73871,5
40860,73861,4
40865,73870,5
40872,73878,5
40869,73877,5
40861,73884,5
40862,73871,4
40862,73874,5
40869,73875,5
40869,73884,5
40869,73874,5
40863,73880,4
40870,73878,5
40867,73887,5
40866,73888,5
40879,73888,5
40875,73897,4
40866,73891,5
40872,73892,5
40873,73893,5
40870,73906,4
40877,73915,5
40885,73913,5
40882,73911,5
40878,73901,5
40879,73904,4
40874,73903,5
40881,73897,5
40877,73900,5
40870,73896,5
40873,73892,4
40870,73891,5
40867,73897,5
40865,73892,5
40872,73883,5
40871,73892,4
40861,73881,5
40861,73886,5
40869,73881,5
40867,73883,4
40859,73875,6
40863,73870,4
40864,73881,5
40865,73877,5
40871,73892,4
40867,73885,5
40865,73894,5
40876,73890,5
40872,73899,5
40879,73900,4
40874,73904,5
40876,73908,5
40880,73916,5
40890,73916,5
40886,73925,4
40891,73923,5
40878,73912,5
40877,73910,5
40883,73914,5
40886,73916,4
40886,73919,5
40863,73914,5
40886,73909,5
40883,73921,4
40888,73916,5
40860,73916,6
40886,73912,4
40882,73908,5
40879,73907,4
40881,73908,5
40879,73907,5
40872,73916,5
40875,73909,5
40898,73909,4
40878,73908,5
40878,73904,5
40877,73903,6
40898,73895,4
40864,73881,4
40866,73879,5
40859,73875,5
40875,73864,5
40854,73868,5
40849,73848,4
40853,73854,5
40834,73836,5
40831,73827,5
40822,73799,4
40806,73784,5
40794,73742,5
40780,73739,5
40771,73722,5
40759,73704,4
40753,73663,5
40752,73695,5
40749,73686,5
40745,73689,5
40746,73677,4
40756,73700,5
40754,73710,5
40771,73713,5
40765,73726,5
40770,73722,4
40771,73712,5
40770,73717,5
40755,73738,5
40752,73702,5
40753,73714,5
40758,73705,4
40751,73731,5
40742,73689,5
40733,73659,6
40710,73620,3
40678,73591,5
40660,73534,5
40637,73499,5
40626,73470,4
40598,73453,5
40599,73438,5
40597,73427,5
40595,73434,5
40576,73422,4
40588,73417,5
40584,73423,5
40579,73427,5
40593,73425,5
40593,73438,4
40592,73449,5
40602,73460,5
40612,73471,5
40616,73478,5
40618,73484,4
40620,73490,6
40619,73496,4
40640,73504,5
40643,73516,4
40649,73528,6
40661,73543,3
40666,73552,5
40673,73574,5
40679,73579,4
40692,73601,5
40709,73631,5
40716,73660,5
40734,73677,5
40739,73694,4
40753,73695,5
40745,73698,5
40755,73712,5
40757,73718,5
40763,73727,4
40765,73734,5
40776,73752,5
40780,73742,5
40783,73751,5
40795,73769,4
40796,73770,5
40802,73775,6
40801,73785,4
40808,73787,4
40810,73802,4
40809,73807,5
40839,73818,5
40825,73821,5
40825,73834,4
40840,73852,5
40844,73863,5
40856,73870,5
40865,73887,5
40862,73903,4
40874,73920,5
40888,73939,5
40906,73949,5
40911,73959,5
40914,73983,4
40928,73999,5
40930,74015,5
40933,74029,5
40954,74042,5
40963,74056,4
40977,74069,5
40981,74083,5
40984,74097,6
40990,74103,3
41002,74099,4
41005,74118,5
40997,74119,5
41006,74115,5
40997,74119,4
41001,74120,5
40994,74107,5
40995,74103,5
40989,74099,5
40998,74099,4
40985,74094,5
40991,74108,5
40995,74108,5
40990,74106,5
40993,74117,4
41010,74125,5
41014,74144,5
41013,74146,5
41012,74165,5
41033,74187,5
41051,74193,4
41048,74215,5
41039,74220,5
41060,74226,6
41066,74227,3
41066,74238,5
41061,74246,5
41076,74242,5
41074,74260,4
41063,74239,5
41085,74212,5
41043,74182,5
41034,74158,5
41029,74148,4
41045,74132,5
41001,74113,5
40999,74106,5
41002,74125,5
41027,74126,4
41006,74128,5
41007,74136,5
41013,74141,5
41029,74149,5
41027,74158,4
41028,74173,6
41038,74178,4
41045,74178,5
41057,74196,4
41056,74204,4
41055,74209,5
41057,74179,5
41061,74208,5
41061,74216,5
41057,74207,4
41070,74188,5
41061,74222,5
41061,74227,5
41064,74239,4
41072,74244,5
41076,74243,5
41089,74257,5
41097,74271,5
41099,74307,4
41092,74281,5
41093,74277,5
41094,74282,5
41097,74318,5
41107,74276,4
41099,74277,5
41100,74275,6
41103,74302,4
41095,74283,4
41102,74276,4
41103,74282,5
41096,74275,5
41099,74268,5
41095,74277,4
41096,74271,5
41097,74281,5
41094,74282,5
41099,74286,5
41104,74291,4
41110,74311,5
41117,74316,5
41131,74336,5
41131,74352,5
41152,74361,4
41151,74367,5
41157,74404,5
41173,74420,5
41179,74433,5
41181,74453,4
41204,74472,5
41219,74485,5
41227,74500,6
41236,74517,3
41228,74508,4
41237,74519,5
41239,74526,5
41234,74513,5
41240,74523,4
41236,74534,5
41247,74536,5
41245,74543,5
41252,74540,5
41252,74544,4
41253,74550,5
41256,74558,5
41270,74568,5
41281,74590,5
41293,74610,4
41312,74655,5
41326,74688,5
41332,74703,5
41346,74703,5
41347,74718,5
41360,74731,4
41372,74749,5
41374,74749,5
41374,74759,4
41371,74750,4
41364,74746,5
41356,74710,5
41334,74676,5
41329,74666,4
41323,74649,5
41315,74641,5
41303,74641,5
41304,74645,5
41309,74641,4
41320,74643,5
41320,74663,5
41331,74673,5
41335,74685,5
41344,74704,4
41352,74710,5
41362,74729,5
41371,74757,5
41381,74779,5
41400,74804,4
41409,74811,6
41414,74817,4
41421,74838,5
41421,74832,4
41430,74838,4
41430,74840,5
41439,74863,5
41447,74875,5
41443,74889,4
41464,74917,5
41478,74944,5
41492,74955,5
41487,74962,5
41497,74973,4
41504,74977,5
41495,74978,5
41506,74977,5
41505,74972,5
41496,74950,4
41483,74953,5
41491,74966,5
41509,74967,5
41505,74976,5
41482,74981,4
41509,74969,5
41502,74979,6
41499,74960,4
41473,74956,4
41496,74973,4
41507,74984,5
41524,75000,5
41544,75020,5
41539,75038,4
41549,75065,5
41568,75087,5
41623,75121,5
41600,75159,5
41617,75174,4
41630,75197,5
41659,75190,5
41631,75199,5
41639,75219,5
41654,75234,4
41659,75232,5
41647,75237,5
41653,75240,5
41658,75226,5
41652,75224,4
41665,75235,5
41666,75247,5
41661,75256,5
41680,75249,4
41688,75282,4
41700,75307,5
41703,75335,5
41724,75336,5
41751,75391,4
41765,75418,5
41776,75424,5
41780,75432,5
41785,75453,5
41803,75469,4
41803,75475,5
41808,75507,5
41796,75465,5
41783,75437,5
41766,75395,4
41746,75392,5
41731,75340,5
41710,75313,5
41697,75297,5
41696,75310,5
41688,75288,4
41699,75296,5
41705,75302,5
41707,75316,4
41721,75324,4
41717,75334,5
41724,75346,5
41723,75352,5
41731,75354,4
41742,75366,5
41745,75377,5
41748,75379,5
41763,75407,5
41752,75401,4
41762,75399,5
41761,75404,5
41753,75394,5
41766,75415,5
41757,75394,4
41761,75389,5
41752,75388,5
41749,75387,5
41758,75404,5
41760,75395,4
41760,75400,6
41762,75401,4
41750,75397,5
41754,75387,4
41745,75376,4
41741,75365,5
41729,75359,5
41732,75342,5
41726,75336,4
41717,75330,5
41710,75308,5
41701,75283,5
41688,75269,5
41667,75246,4
41668,75220,5
41655,75201,5
41647,75193,5
41636,75179,5
41631,75168,4
41621,75163,5
41623,75149,5
41621,75147,5
41610,75143,4
41611,75138,4
41608,75133,5
41595,75120,5
41601,75118,5
41597,75109,4
41588,75089,4
41582,75072,5
41569,75051,5
41549,75026,5
41539,75020,4
41532,74997,5
41516,74970,5
41506,74970,5
41510,74962,5
41493,74951,4
41501,74954,5
41498,74961,5
41509,74964,5
41503,74954,5
41498,74950,5
41500,74951,4
41514,74966,5
41521,74970,5
41524,74983,6
41516,74969,3
41507,74967,5
41490,74929,5
41461,74878,5
41436,74837,5
41420,74804,4
41400,74763,5
41369,74727,5
41360,74708,5
41345,74681,4
41338,74668,5
41334,74661,5
41325,74654,5
41323,74644,5
41322,74643,4
41316,74638,5
41318,74637,5
41306,74642,5
41328,74641,5
41314,74633,4
41319,74640,6
41290,74648,4
41328,74641,5
41323,74648,5
41316,74643,6
41295,74650,3
41323,74655,9
41321,74656,1
41324,74656,4
41322,74633,4
41329,74659,5
41332,74658,5
41334,74666,5
41363,74674,4
41340,74687,5
41343,74681,5
41341,74676,5
41369,74674,5
41330,74674,4
41328,74663,5
41331,74651,5
41339,74666,5
41333,74665,5
41323,74659,4
41323,74652,5
41325,74638,6
41317,74639,4
41313,74629,5
41309,74618,4
41295,74594,5
41300,74606,5
41296,74607,5
41304,74612,4
41299,74576,4
41294,74608,5
41300,74606,5
41287,74593,5
41298,74587,4
41301,74610,5
41301,74609,5
41296,74614,5
41306,74634,5
41303,74611,4
41295,74623,5
41304,74626,5
41307,74654,5
41301,74616,5
41305,74619,4
41303,74613,5
41299,74646,5
41298,74606,6
41292,74600,4
41277,74580,4
41270,74566,5
41260,74531,5
41237,74506,5
41230,74488,5
41214,74460,4
41216,74446,5
41200,74431,5
41193,74423,5
41189,74420,4
41180,74412,5
41183,74414,5
41182,74421,5
41184,74420,5
41190,74423,4
41200,74435,5
41201,74446,5
41204,74473,5
41213,74476,5
41220,74483,5
41230,74506,4
41245,74529,5
41255,74534,5
41236,74514,6
41211,74468,3
41184,74420,5
41163,74383,5
41144,74331,5
41120,74286,5
41106,74264,4
41086,74243,5
41075,74237,5
41077,74220,5
41073,74215,4
41063,74199,5
41057,74196,5
41057,74178,5
41046,74187,5
41055,74181,4
41046,74192,5
41053,74193,5
41059,74191,5
41051,74191,5
41044,74185,4
41055,74191,6
41044,74191,4
41051,74185,5
41049,74195,5
41059,74202,4
41058,74201,5
41063,74206,5
41058,74214,5
41063,74209,5
41061,74210,4
41056,74224,5
41068,74226,5
41072,74222,5
41066,74226,4
41078,74243,5
41082,74245,5
41082,74253,5
41076,74253,5
41078,74247,4
41088,74258,5
41074,74250,5
41081,74243,5
41085,74238,5
41079,74242,4
41082,74240,5
41075,74244,6
41080,74232,4
41078,74238,5
41077,74234,4
41070,74223,5
41073,74222,5
41063,74217,5
41067,74221,5
41063,74212,4
41063,74213,5
41065,74215,5
41066,74224,5
41066,74217,4
41061,74222,5
41064,74223,5
41063,74231,5
41065,74242,5
41060,74241,4
41075,74240,5
41072,74255,5
41090,74257,5
41058,74264,5
41089,74255,4
41087,74246,5
41080,74237,5
41041,74231,6
41062,74211,4
41049,74201,4
41051,74182,5
41050,74183,5
41037,74175,5
41036,74174,4
41035,74166,4
41065,74169,5
41040,74178,5
41037,74178,5
41052,74195,4
41090,74205,5
41056,74198,5
41060,74208,5
41077,74227,5
41091,74240,4
41092,74257,5
41089,74255,5
41088,74267,5
41101,74287,5
41120,74301,5
41131,74319,4
41125,74335,5
41117,74297,5
41090,74262,5
41064,74219,4
41057,74197,5
41034,74126,5
41022,74118,5
41004,74102,5
40990,74081,4
40976,74043,5
40983,74059,5
40960,74046,5
40955,74038,4
40961,74041,5
40956,74016,5
40947,74023,5
40947,74010,5
40946,74043,4
40941,74003,5
40948,74006,5
40951,74007,5
40949,74041,5
40947,74005,4
40943,74004,6
40943,74003,3
40943,74018,5
40938,73993,5
40935,73987,4
40934,73996,5
40941,74002,5
40932,74004,5
40937,73997,4
40944,73996,4
40948,74011,5
40956,74026,5
40948,74021,5
40960,74032,4
40963,74039,5
40953,74032,5
40947,74033,5
40956,74033,5
40957,74033,4
40958,74035,5
40961,74031,5
40963,74038,5
40965,74038,5
40966,74038,4
40959,74042,5
40960,74035,6
40961,74044,4
40960,74038,5
40967,74040,4
40961,74032,5
40956,74037,5
40957,74038,5
40947,74023,4
40957,74022,4
40956,74025,5
40952,74030,5
40959,74041,5
40952,74039,4
40965,74045,5
40956,74035,5
40961,74053,5
40965,74056,5
40970,74056,4
40971,74058,5
40973,74067,5
40972,74066,5
40974,74060,5
40972,74060,4
40983,74056,5
40976,74059,5
40974,74065,5
40974,74072,5
40978,74073,4
40977,74070,5
40971,74073,5
40979,74076,5
40980,74079,4
40985,74079,4
40977,74079,5
40984,74076,5
40977,74085,5
40978,74077,4
40982,74078,5
40980,74066,5
40979,74069,5
40978,74066,5
40976,74062,4
40968,74064,5
40968,74055,5
40966,74050,5
40969,74049,5
40961,74044,5
40958,74038,4
40958,74036,5
40960,74041,5
40959,74044,5
40964,74043,4
40964,74042,5
40967,74049,5
40961,74046,5
40965,74049,4
40961,74037,4
40953,74039,5
40956,74036,5
40952,74035,5
40952,74034,4
40954,74034,5
40947,74028,5
40952,74028,5
40948,74028,5
40950,74028,4
40932,74034,5
40953,74036,5
40957,74038,5
40955,74040,5
40921,74012,4
40932,74001,6
40927,73974,4
40901,73960,5
40893,73936,5
40892,73914,4
40885,73905,5
40880,73905,5
40897,73899,5
40872,73909,4
40885,73917,4
40895,73923,5
40920,73934,5
40907,73960,5
40924,73969,4
40924,73979,5
40950,73991,5
40930,74022,5
40962,74043,5
40965,74059,4
40983,74063,5
40968,74065,5
40969,74055,6
40955,74029,4
40925,73958,4
40905,73956,5
40894,73931,5
40873,73900,5
40870,73863,5
40864,73877,4
40850,73869,5
40851,73861,5
40847,73819,5
40839,73845,4
40840,73845,5
40831,73834,4
40844,73842,5
40846,73841,5
40841,73830,4
40835,73838,5
40844,73874,5
40853,73854,5
40847,73850,5
40852,73847,5
40840,73879,4
40848,73857,5
40853,73857,5
40854,73856,6
40859,73874,3
40851,73867,5
40859,73868,5
40853,73868,5
40856,73866,5
40859,73864,4
40858,73868,5
40860,73866,5
40851,73873,5
40864,73882,4
40868,73882,4
40862,73890,5
40859,73881,5
40866,73882,5
40864,73882,4
40866,73881,5
40862,73873,5
40869,73884,5
40864,73876,5
40857,73877,4
40863,73872,6
40853,73877,4
40862,73881,5
40857,73869,5
40858,73867,6
40853,73868,3
40850,73860,5
40855,73858,5
40847,73860,5
40843,73858,4
40850,73852,5
40847,73860,5
40851,73862,5
40848,73863,4
40854,73870,5
40840,73865,5
40849,73867,5
40859,73877,5
40862,73878,4
40858,73874,5
40862,73882,5
40860,73889,5
40873,73894,5
40866,73886,4
40870,73888,5
40875,73889,6
40868,73898,4
40867,73895,5
40876,73898,4
40873,73896,5
40869,73901,5
40867,73903,5
40871,73900,4
40877,73896,4
40869,73901,5
40871,73900,5
40872,73900,5
40864,73887,4
40871,73892,5
40870,73897,5
40874,73893,5
40866,73878,5
40857,73894,4
40860,73874,5
40861,73883,5
40861,73873,5
40856,73878,5
40857,73859,4
40857,73859,5
40851,73856,5
40841,73847,6
40841,73836,4
40827,73824,4
40821,73799,5
40814,73795,5
40800,73762,5
40784,73743,4
40772,73730,4
40771,73717,5
40764,73708,5
40753,73697,5
40754,73695,4
40757,73689,5
40754,73702,5
40758,73698,5
40739,73716,5
40759,73712,4
40762,73721,5
40775,73729,5
40750,73729,7
40770,73732,3
40780,73730,5
40776,73731,4
40753,73745,5
40781,73742,5
40792,73758,6
40774,73737,3
40758,73725,5
40745,73694,5
40729,73649,5
40724,73637,4
40730,73619,4
40689,73601,5
40687,73580,5
40683,73581,5
40709,73576,4
40671,73574,5
40689,73574,5
40691,73586,5
40709,73604,5
40691,73607,4
40696,73616,5
40710,73627,5
40725,73649,5
40725,73664,5
40737,73670,4
40740,73685,6
40758,73688,4
40754,73700,5
40767,73723,5
40771,73727,4
40777,73718,5
40774,73743,5
40788,73750,5
40800,73759,4
40797,73747,4
40802,73783,5
40813,73786,5
40815,73809,5
40824,73828,4
40841,73852,5
40840,73853,5
40848,73868,5
40851,73891,5
40853,73861,4
40846,73870,5
40857,73868,5
40862,73910,5
40863,73886,5
40869,73888,4
40869,73889,5
40862,73900,6
40871,73900,4
40875,73907,5
40883,73902,4
40883,73914,5
40889,73915,5
40894,73931,5
40891,73934,4
40889,73936,4
40895,73938,5
40900,73958,5
40907,73963,5
40920,73970,4
40927,73992,5
40935,74004,5
40932,74009,5
40946,74017,5
40947,74025,4
40953,74034,5
40963,74052,5
40968,74056,5
40975,74069,5
40989,74081,4
40990,74093,5
40983,74087,5
40994,74101,6
40996,74106,4
41008,74113,4
41001,74119,5
41004,74132,5
41016,74125,5
41003,74133,4
41012,74132,4
41018,74134,5
41008,74123,5
41010,74122,5
41005,74114,4
40996,74112,5
41005,74111,5
41004,74112,5
41013,74118,5
41009,74122,4
41015,74128,5
41010,74134,5
41021,74143,5
41032,74167,5
41042,74174,5
41047,74191,4
41054,74199,5
41046,74198,5
41053,74193,5
41055,74208,4
41052,74189,5
41061,74191,5
41052,74200,5
41061,74199,4
41060,74194,4
41045,74165,5
41014,74136,5
41009,74126,5
40995,74104,4
40996,74094,5
40980,74087,5
40981,74078,5
40986,74087,5
40982,74082,4
40991,74090,5
40990,74104,5
40998,74113,5
41014,74114,5
40994,74124,4
41008,74141,6
41015,74146,4
41017,74154,5
41025,74166,5
41030,74174,4
41029,74182,5
41032,74185,5
41041,74181,5
41041,74183,4
41041,74195,4
41038,74187,5
41052,74194,5
41054,74198,5
41051,74208,4
41049,74207,5
41067,74222,5
41069,74239,5
41070,74254,5
41060,74267,4
41083,74267,5
41096,74264,5
41091,74267,5
41057,74271,5
41093,74276,4
41091,74267,5
41096,74274,6
41093,74284,4
41086,74282,5
41102,74284,4
41095,74275,5
41114,74262,5
41089,74269,5
41091,74271,4
41090,74266,4
41107,74257,5
41093,74261,5
41093,74272,5
41090,74281,4
41123,74278,5
41101,74281,5
41111,74296,5
41113,74305,5
41120,74330,4
41129,74347,5
41132,74353,5
41149,74369,5
41149,74370,5
41169,74401,4
41180,74414,5
41182,74422,5
41190,74412,5
41187,74442,5
41189,74444,4
41197,74460,5
41202,74432,5
41217,74477,5
41210,74480,5
41221,74477,4
41213,74484,5
41218,74475,5
41211,74475,5
41208,74477,4
41208,74495,5
41205,74457,5
41212,74453,5
41207,74463,5
41201,74494,4
41215,74462,5
41219,74466,5
41213,74470,5
41215,74495,5
41228,74488,5
41230,74502,4
41234,74510,5
41245,74539,5
41257,74552,5
41263,74565,4
41267,74566,5
41275,74589,5
41286,74589,5
41291,74598,4
41294,74614,5
41291,74618,5
41284,74603,5
41277,74570,5
41251,74524,4
41234,74510,5
41233,74488,5
41212,74469,5
41208,74469,5
41214,74461,4
41218,74469,5
41220,74478,5
41216,74474,5
41234,74490,5
41229,74495,4
41224,74504,7
41242,74516,3
41245,74526,5
41247,74543,5
41262,74550,4
41263,74564,5
41265,74566,5
41277,74589,5
41283,74587,4
41279,74595,5
41291,74598,5
41293,74613,5
41295,74612,5
41297,74617,4
41301,74630,5
41303,74631,5
41304,74633,5
41317,74636,5
41323,74660,4
41334,74670,5
41340,74692,5
41340,74703,6
41352,74705,4
41347,74709,4
41356,74712,5
41342,74703,5
41360,74717,5
41356,74711,5
41350,74723,4
41353,74713,5
41355,74712,5
41351,74713,5
41351,74703,4
41352,74694,5
41344,74698,5
41340,74695,5
41339,74693,5
41342,74694,4
41346,74699,5
41353,74706,5
41348,74712,5
41355,74720,5
41370,74745,5
41372,74754,4
41391,74766,5
41398,74785,5
41405,74809,6
41415,74825,3
41433,74848,5
41433,74864,5
41450,74883,5
41453,74902,4
41475,74914,4
41467,74924,5
41481,74936,5
41485,74939,5
41479,74946,4
41487,74943,5
41479,74940,5
41473,74938,5
41480,74922,5
41472,74913,4
41472,74914,5
41441,74893,5
41464,74902,5
41465,74901,5
41459,74906,4
41447,74903,6
41476,74902,4
41473,74923,5
41484,74915,5
41475,74934,6
41483,74946,3
41498,74957,5
41495,74958,5
41518,74962,4
41503,74979,4
41509,74982,5
41528,74989,5
41540,74995,5
41513,74967,4
41494,74956,5
41480,74908,5
41463,74863,5
41432,74833,5
41417,74807,4
41400,74787,5
41403,74772,5
41387,74770,5
41396,74764,5
41389,74767,4
41391,74742,5
41377,74765,6
41383,74764,4
41386,74765,5
41395,74750,4
41393,74782,5
41390,74784,5
41398,74796,5
41397,74777,4
41405,74787,4
41404,74797,5
41408,74787,5
41403,74805,5
41410,74790,4
41396,74793,5
41399,74787,5
41402,74814,5
41396,74777,5
41392,74775,4
41382,74760,5
41387,74790,5
41385,74760,5
41387,74760,5
41391,74771,4
41388,74762,5
41371,74759,5
41386,74748,6
41380,74742,4
41374,74728,4
41363,74717,5
41353,74710,5
41349,74700,5
41340,74680,4
41329,74673,4
41321,74652,5
41318,74630,5
41302,74611,5
41281,74588,4
41274,74574,5
41266,74555,5
41256,74540,5
41247,74526,5
41248,74522,4
41237,74508,5
41248,74507,5
41237,74506,5
41232,74493,5
41238,74504,5
41234,74507,4
41232,74515,5
41247,74523,5
41244,74522,6
41249,74535,3
41248,74538,5
41256,74553,5
41257,74544,5
41263,74557,4
41258,74553,4
41256,74549,5
41251,74542,5
41252,74527,5
41241,74520,4
41230,74504,5
41226,74480,5
41218,74469,5
41211,74463,5
41191,74452,4
41191,74428,5
41189,74425,5
41180,74424,5
41180,74419,5
41185,74426,4
41182,74425,6
41186,74438,4
41200,74444,5
41198,74453,5
41207,74459,4
41209,74466,5
41219,74482,5
41224,74496,5
41225,74520,4
41237,74518,4
41243,74528,5
41231,74515,5
41225,74491,5
41209,74445,4
41171,74403,5
41170,74376,5
41145,74361,5
41136,74329,5
41120,74300,4
41121,74308,5
41119,74300,5
41112,74296,5
41103,74292,5
41110,74291,4
41113,74306,5
41117,74303,6
41123,74323,4
41125,74318,5
41126,74336,4
41123,74345,5
41141,74340,5
41143,74342,5
41140,74347,4
41147,74353,5
41145,74359,5
41143,74354,5
41151,74353,5
41127,74365,4
41149,74366,5
41145,74367,5
41150,74373,5
41122,74371,5
41153,74360,4
41155,74388,5
41155,74377,5
41137,74382,5
41168,74398,5
41171,74395,4
41168,74409,5
41169,74403,5
41167,74413,6
41172,74403,4
41167,74395,4
41190,74400,5
41163,74410,5
41170,74401,5
41168,74396,4
41200,74401,4
41161,74394,5
41166,74386,5
41161,74381,5
41161,74376,4
41148,74377,5
41150,74372,5
41155,74370,5
41149,74375,5
41150,74374,4
41155,74369,5
41147,74375,5
41150,74353,5
41161,74388,5
41156,74381,5
41153,74386,3
41173,74359,5
41162,74401,5
41170,74395,5
41174,74407,4
41171,74388,5
41174,74408,5
41170,74414,5
41177,74417,4
41172,74420,5
41165,74414,5
41167,74408,5
41172,74417,5
41177,74454,4
41177,74429,5
41167,74412,5
41166,74404,5
41169,74420,5
41157,74375,4
41146,74357,5
41126,74336,5
41119,74324,5
41115,74296,5
41107,74283,4
41089,74270,6
41094,74268,4
41091,74265,5
41087,74262,4
41092,74267,4
41095,74264,5
41102,74286,5
41101,74289,5
41100,74292,4
41107,74304,5
41113,74315,5
41120,74324,5
41120,74328,5
41129,74343,4
41124,74339,5
41140,74341,5
41131,74343,5
41134,74347,5
41133,74323,4
41101,74280,5
41080,74247,5
41052,74201,5
41036,74165,5
41024,74123,4
41000,74113,5
40989,74091,6
40983,74092,4
40986,74078,4
40979,74067,4
40972,74066,5
40971,74065,5
40966,74057,5
40959,74047,4
40970,74048,5
40962,74049,5
40962,74054,5
40966,74064,5
40968,74060,4
40965,74053,5
40957,74053,5
40962,74057,5
40958,74043,5
40960,74037,4
40956,74048,5
40950,74033,5
40949,74035,5
40949,74038,5
40946,74031,4
40942,74026,5
40945,74031,5
40955,74028,5
40942,74035,4
40945,74030,4
40952,74044,5
40947,74045,5
40948,74047,5
40950,74036,4
40959,74048,5
40947,74042,5
40949,74044,5
40957,74050,5
40951,74051,4
40948,74049,5
40957,74038,5
40957,74044,5
40952,74041,5
40945,74036,4
40956,74039,5
40945,74035,5
40949,74022,5
40948,74024,5
40943,74017,5
40940,74024,4
40936,74026,5
40935,74015,5
40939,74026,4
40952,74025,4
40952,74030,5
40944,74044,5
40950,74047,5
40950,74040,4
40952,74056,5
40939,74056,5
40960,74057,5
40962,74062,5
40974,74058,4
40933,74055,5
40966,74067,5
40966,74060,5
40969,74064,5
40949,74070,4
40960,74064,5
40962,74060,6
40968,74063,4
40976,74059,5
40962,74066,4
40959,74076,7
40969,74056,3
40994,74069,5
40970,74070,4
40969,74058,4
40961,74061,5
40984,74054,5
40955,74040,5
40944,74027,4
40944,74012,5
40939,73992,5
40910,73976,5
40911,73961,5
40911,73951,4
40910,73938,5
40896,73945,5
40892,73938,5
40894,73947,5
40902,73925,4
40905,73953,5
40907,73971,5
40918,73981,6
40923,73950,4
40920,73999,4
40938,74014,5
40941,74022,5
40941,74030,5
40945,74030,4
40950,74044,4
40960,74056,5
40956,74079,5
40955,74056,5
40953,74041,4
40929,74012,5
40916,73994,5
40895,73920,5
40870,73899,5
40858,73868,4
40847,73868,5
40831,73829,5
40820,73825,5
40826,73803,5
40823,73810,5
40813,73795,4
40798,73801,5
40798,73798,5
40805,73788,6
40811,73793,3
40808,73807,5
40806,73801,5
40812,73809,5
40818,73811,4
40821,73812,4
40816,73812,5
40818,73811,5
40809,73809,5
40821,73817,4
40825,73805,5
40820,73812,5
40823,73814,5
40832,73807,5
40828,73821,4
40829,73813,5
40823,73818,5
40819,73831,5
40822,73821,5
40827,73829,4
40825,73832,6
40830,73834,4
40834,73830,5
40831,73839,5
40830,73837,6
40825,73837,3
40828,73827,5
40832,73836,5
40827,73832,4
40822,73824,4
40830,73827,5
40826,73826,5
40826,73835,5
40830,73837,4
40828,73838,5
40832,73836,5
40828,73829,5
40824,73828,5
40819,73832,4
40832,73826,5
40828,73833,5
40839,73826,5
40827,73824,5
40829,73833,4
40827,73841,5
40835,73840,6
40832,73843,4
40838,73851,5
40844,73865,4
40839,73859,5
40849,73871,5
40850,73864,5
40852,73870,4
40847,73874,4
40854,73872,5
40855,73884,5
40857,73878,5
40850,73892,4
40861,73879,5
40860,73897,5
40857,73893,5
40852,73894,5
40859,73893,4
40864,73892,5
40859,73896,5
40860,73888,5
40870,73889,5
40863,73891,4
40861,73898,5
40864,73893,5
40862,73891,6
40861,73895,4
40863,73891,4
40858,73888,5
40856,73894,5
40857,73893,5
40864,73891,4
40866,73900,4
40861,73898,5
40857,73893,5
40838,73891,5
40852,73887,4
40862,73878,5
40853,73870,5
40825,73863,5
40835,73847,5
40826,73821,4
40814,73799,5
40793,73790,5
40804,73784,5
40790,73770,5
40790,73767,5
40800,73764,4
40792,73770,5
40800,73779,5
40791,73780,6
40819,73794,3
40807,73798,5
40808,73815,5
40822,73812,5
40848,73821,4
40833,73830,4
40828,73833,5
40822,73834,5
40841,73838,5
40832,73830,4
40831,73832,5
40827,73828,5
40831,73826,5
40819,73821,5
40803,73779,4
40779,73747,5
40754,73695,5
40753,73695,5
40735,73675,5
40719,73647,4
40711,73601,6
40699,73630,4
40701,73626,5
40703,73612,5
40689,73592,4
40683,73581,5
40676,73584,5
40675,73569,5
40675,73590,4
40671,73581,4
40677,73589,5
40677,73584,5
40675,73619,5
40678,73571,4
40672,73575,5
40667,73570,5
40675,73588,5
40659,73567,5
40667,73560,4
40661,73558,5
40659,73552,5
40659,73553,5
40653,73548,5
40651,73539,4
40652,73536,5
40640,73533,6
40647,73530,4
40646,73533,5
40643,73540,4
40643,73542,5
40646,73540,5
40642,73539,5
40638,73537,4
40646,73535,4
40641,73527,5
40636,73520,5
40634,73530,5
40641,73526,4
40641,73529,5
40643,73531,5
40638,73530,5
40638,73534,5
40641,73533,4
40648,73530,5
40646,73536,5
40648,73537,5
40644,73534,5
40650,73544,4
40655,73549,5
40655,73547,5
40656,73562,6
40661,73580,4
40668,73587,4
40682,73596,5
40688,73615,5
40695,73624,5
40703,73648,4
40707,73655,4
40726,73670,5
40744,73682,5
40738,73690,5
40735,73692,4
40740,73713,5
40753,73727,5
40770,73723,5
40762,73732,5
40770,73738,4
40767,73760,5
40775,73766,5
40787,73775,5
40790,73786,5
40796,73795,5
40804,73797,4
40802,73817,5
40804,73812,5
40819,73827,5
40817,73829,4
40822,73838,5
40829,73845,5
40825,73837,5
40827,73849,4
40826,73834,4
40825,73839,5
40826,73828,5
40817,73827,5
40822,73825,4
40824,73833,5
40814,73828,5
40829,73830,5
40832,73825,5
40828,73843,4
40832,73837,5
40836,73851,5
40834,73861,5
40853,73881,5
40853,73889,4
40864,73897,6
40865,73906,4
40867,73906,8
40871,73907,2
40863,73918,4
40863,73923,5
40883,73932,5
40880,73919,5
40880,73915,4
40852,73909,4
40855,73884,5
40848,73861,5
40829,73838,5
40797,73828,4
40816,73810,5
40820,73805,5
40812,73799,5
40793,73807,5
40814,73813,4
40810,73816,5
40814,73813,5
40830,73817,5
40823,73825,5
40825,73828,4
40833,73835,5
40871,73853,6
40843,73849,4
40847,73858,5
40846,73871,4
40877,73875,5
40857,73875,5
40848,73882,5
40857,73889,4
40869,73904,4
40863,73898,5
40875,73908,5
40868,73915,5
40880,73910,4
40881,73924,5
40877,73930,5
40894,73943,5
40898,73938,5
40906,73976,4
40908,73967,5
40918,73969,5
40914,73950,5
40920,73976,5
40909,73982,5
40916,73983,4
40914,73974,5
40916,73984,5
40916,73978,5
40916,73979,4
40919,73996,5
40915,73979,5
40918,73972,5
40911,73972,4
40924,74015,4
40920,73988,5
40921,73990,5
40928,73993,5
40924,74028,4
40932,74009,5
40938,74024,5
40945,74042,5
40956,74059,5
40969,74067,4
40977,74082,5
40992,74099,5
40983,74112,5
41001,74127,5
41014,74139,6
41016,74159,3
41026,74171,5
41036,74177,5
41039,74187,5
41048,74204,4
41048,74214,5
41051,74219,5
41047,74223,5
41059,74234,4
41059,74244,4
41059,74246,5
41072,74244,5
41069,74247,5
41074,74252,4
41069,74251,5
41078,74247,5
41066,74246,5
41067,74236,5
41055,74228,4
41053,74215,5
41057,74215,6
41059,74208,4
41049,74210,5
41054,74211,4
41046,74206,7
41058,74211,3
41058,74219,5
41063,74233,5
41058,74238,4
41065,74248,5
41080,74252,5
41085,74270,5
41087,74272,4
41089,74279,4
41092,74284,5
41090,74287,5
41096,74290,5
41095,74288,4
41104,74294,5
41093,74293,5
41100,74273,5
41068,74260,5
41071,74233,4
41054,74202,5
41042,74195,5
41040,74188,6
41036,74190,4
41036,74188,4
41051,74191,5
41045,74197,5
41058,74207,5
41056,74224,5
41068,74228,4
41066,74237,5
41077,74242,5
41080,74256,5
41091,74263,4
41095,74290,4
41094,74289,5
41107,74299,5
41108,74312,5
41112,74308,4
41114,74317,5
41105,74309,5
41113,74322,5
41125,74324,5
41127,74338,5
41128,74347,4
41130,74349,5
41137,74362,5
41141,74376,6
41151,74390,3
41161,74411,5
41174,74433,5
41178,74436,5
41189,74443,5
41187,74445,4
41191,74465,5
41175,74452,5
41193,74461,5
41208,74452,4
41191,74470,4
41174,74471,5
41197,74470,5
41206,74465,5
41197,74462,4
41181,74458,5
41196,74445,5
41203,74456,5
41204,74454,5
41209,74462,4
41205,74471,6
41215,74479,4
41213,74493,5
41253,74513,5
41239,74527,6
41250,74547,3
41257,74577,5
41292,74590,5
41282,74612,5
41290,74637,4
41308,74649,5
41329,74670,5
41321,74679,5
41337,74702,4
41349,74710,4
41357,74710,5
41349,74723,5
41358,74735,5
41371,74737,4
41366,74724,5
41363,74742,5
41359,74748,5
41370,74742,5
41363,74709,4
41361,74731,5
41360,74720,6
41353,74717,4
41358,74701,5
41356,74718,4
41359,74725,5
41351,74726,5
41350,74757,5
41363,74748,5
41376,74762,4
41374,74770,5
41384,74821,5
41399,74798,5
41400,74801,4
41401,74805,4
41412,74834,5
41418,74835,5
41414,74837,5
41417,74830,4
41425,74825,5
41409,74806,5
41385,74771,5
41370,74752,5
41364,74726,4
41357,74705,5
41351,74695,5
41341,74702,6
41341,74703,4
41349,74708,4
41354,74716,5
41361,74723,5
41364,74735,5
41367,74747,5
41378,74760,4
41383,74767,5
41392,74783,5
41399,74799,5
41409,74810,4
41412,74827,4
41417,74824,5
41424,74839,5
41418,74851,5
41430,74854,4
41438,74866,5
41445,74871,5
41441,74882,5
41453,74898,5
41457,74886,5
41458,74896,4
41464,74907,5
41476,74921,5
41495,74942,6
41495,74969,3
41512,74975,5
41517,74992,5
41512,74986,5
41505,74978,5
41503,74979,4
41510,74982,5
41500,74976,5
41504,74965,5
41500,74966,4
41508,74965,4
41503,74955,5
41496,74951,5
41494,74933,5
41481,74921,4
41478,74912,5
41470,74915,5
41473,74904,5
41473,74900,5
41474,74911,4
41463,74905,6
41478,74916,4
41477,74916,5
41478,74926,5
41477,74921,4
41487,74931,5
41493,74945,5
41504,74932,5
41490,74939,5
41501,74950,4
41492,74941,5
41489,74958,5
41498,74950,5
41478,74933,4
41481,74915,4
41458,74892,5
41456,74880,5
41443,74857,5
41432,74832,4
41421,74824,5
41407,74807,5
41412,74792,5
41405,74783,5
41397,74772,4
41384,74767,5
41383,74767,6
41385,74766,4
41388,74759,5
41378,74757,4
41374,74757,5
41382,74748,5
41364,74741,5
41362,74749,5
41382,74743,4
41376,74741,5
41374,74738,5
41333,74712,5
41338,74668,4
41310,74611,4
41270,74568,5
41236,74512,5
41233,74494,5
41210,74453,4
41203,74442,5
41202,74433,5
41190,74425,5
41182,74411,5
41188,74407,4
41204,74408,5
41173,74407,5
41182,74416,6
41174,74415,4
41208,74418,4
41181,74427,5
41187,74426,5
41184,74435,5
41204,74435,5
41190,74427,4
41187,74428,5
41185,74429,5
41197,74423,5
41187,74424,5
41183,74421,4
41184,74414,5
41173,74394,5
41180,74404,5
41173,74395,4
41172,74390,4
41168,74373,5
41171,74405,5
41174,74410,5
41170,74404,5
41163,74383,4
41175,74405,5
41159,74397,5
41160,74376,5
41158,74388,4
41153,74370,5
41151,74366,5
41150,74364,5
41146,74384,5
41131,74341,4
41128,74327,5
41116,74310,5
41097,74318,5
41105,74282,5
41097,74262,4
41084,74270,5
41102,74275,5
41091,74274,5
41087,74262,4
41079,74271,4
41089,74271,5
41092,74258,5
41089,74275,5
41089,74269,4
41090,74272,6
41095,74277,4
41099,74279,5
41093,74282,5
41093,74278,4
41108,74286,5
41104,74296,5
41107,74301,5
41101,74302,5
41110,74300,4
41110,74305,5
41103,74306,5
41107,74303,5
41111,74311,5
41106,74300,4
41103,74282,5
41088,74267,5
41079,74236,5
41057,74217,4
41054,74190,4
41035,74174,5
41021,74156,5
41024,74150,5
41010,74139,4
41011,74137,5
41010,74128,6
41014,74138,4
41016,74145,5
41014,74148,4
41020,74158,5
41029,74173,5
41028,74178,5
41040,74178,5
41042,74181,4
41038,74200,5
41049,74203,5
41058,74231,5
41061,74223,5
41058,74225,4
41045,74196,5
41027,74160,5
40998,74108,5
40986,74086,4
40970,74051,4
40959,74037,5
40933,74011,5
40932,74000,5
40918,73990,4
40926,73988,5
40925,73983,5
40913,73976,5
40917,73968,5
40916,73969,4
40918,73974,5
40920,73982,5
40923,73987,5
40923,73994,5
40926,73999,4
40926,74000,5
40933,74001,5
40933,74000,5
40932,74012,5
40929,74007,4
40934,74006,5
40940,74004,5
40942,74010,6
40940,74014,3
40944,74013,4
40944,74023,4
40948,74026,5
40944,74025,5
40950,74032,5
40950,74039,3
40953,74050,5
40956,74054,5
40967,74059,5
40958,74059,4
40950,74052,5
40965,74059,5
40953,74046,5
40958,74058,5
40940,74043,4
40949,74040,5
40952,74050,5
40953,74040,5
40912,74027,5
40948,74025,4
40944,74018,5
40934,74007,5
40943,74008,5
40925,73992,4
40928,73992,4
40921,73988,6
40949,73983,4
40911,73988,5
40908,73974,4
40909,73969,7
40937,73961,3
40906,73964,5
40902,73966,5
40901,73953,4
40925,73965,5
40918,73966,5
40915,73973,5
40912,73976,5
40918,73983,4
40915,73983,5
40921,73981,5
40919,73978,5
40922,73978,5
40918,73992,4
40932,73990,5
40926,73996,5
40928,73974,5
40915,73988,4
40915,73981,4
40898,73964,5
40895,73927,6
40892,73923,4
40883,73901,5
40864,73885,4
40850,73884,5
40845,73862,5
40841,73855,5
40848,73851,4
40840,73882,5
40848,73856,5
40849,73874,5
40855,73871,5
40864,73918,4
40859,73888,5
40859,73891,5
40868,73905,5
40874,73925,5
40883,73925,4
40881,73936,5
40893,73935,5
40889,73940,5
40899,73948,5
40892,73957,4
40893,73955,5
40893,73940,5
40879,73916,6
40856,73867,3
40835,73831,5
40813,73800,5
40805,73778,5
40783,73761,5
40773,73731,4
40776,73732,5
40761,73719,5
40765,73714,5
40762,73702,5
40760,73706,4
40757,73704,5
40755,73702,5
40745,73702,5
40751,73714,5
40757,73718,4
40759,73723,5
40758,73726,5
40770,73724,5
40762,73723,4
40766,73724,5
40759,73723,4
40771,73738,5
40768,73735,5
40774,73729,6
40767,73735,3
40775,73740,5
40776,73744,5
40774,73741,5
40774,73747,4
40775,73732,5
40770,73741,5
40782,73740,5
40792,73759,5
40797,73779,4
40782,73767,5
40787,73765,5
40792,73758,5
40790,73773,5
40791,73764,4
40790,73769,5
40790,73771,5
40794,73770,5
40793,73772,4
40793,73770,4
40798,73779,6
40802,73774,4
40791,73780,5
40807,73788,4
40799,73783,5
40799,73781,5
40798,73786,5
40797,73786,5
40804,73788,4
40799,73783,5
40794,73783,5
40798,73786,5
40802,73791,5
40803,73792,4
40808,73803,5
40806,73805,5
40813,73808,5
40812,73810,5
40815,73820,4
40828,73825,5
40828,73813,5
40819,73821,5
40822,73824,4
40817,73834,4
40828,73825,5
40830,73830,6
40830,73836,4
40822,73830,4
40823,73842,5
40819,73836,5
40823,73838,5
40836,73833,5
40828,73839,4
40833,73840,5
40800,73835,5
40831,73832,5
40831,73846,5
40836,73844,4
40806,73847,5
40824,73841,5
40831,73838,5
40829,73839,5
40819,73842,4
40830,73845,5
40832,73838,5
40836,73838,5
40848,73837,5
40832,73840,4
40833,73842,5
40828,73837,5
40860,73829,6
40826,73819,3
40823,73829,5
40818,73827,5
40846,73830,5
40824,73832,5
40818,73832,4
40827,73830,5
40830,73826,5
40819,73830,5
40822,73827,5
40819,73830,4
40822,73796,5
40825,73824,5
40823,73820,5
40818,73820,5
40820,73795,4
40819,73815,5
40824,73815,5
40828,73822,5
40813,73796,4
40822,73824,5
40823,73817,4
40819,73815,5
40816,73812,5
40809,73793,4
40795,73777,5
40790,73757,5
40783,73766,5
40767,73711,5
40753,73682,4
40745,73680,5
40731,73692,5
40729,73660,5
40723,73658,5
40726,73656,4
40740,73684,5
40733,73669,5
40738,73680,5
40749,73696,5
40744,73701,4
40754,73713,5
40758,73723,5
40764,73740,5
40773,73739,5
40774,73743,4
40780,73759,6
40773,73748,4
40775,73743,5
40775,73746,4
40754,73713,4
40735,73678,5
40716,73638,5
40700,73618,5
40697,73603,4
40686,73571,5
40662,73559,5
40664,73558,5
40671,73549,5
40667,73546,4
40659,73546,5
40656,73526,5
40653,73534,5
40652,73522,5
40657,73523,4
40653,73539,5
40655,73534,5
40651,73538,5
40657,73534,5
40650,73531,4
40647,73536,5
40654,73529,6
40655,73528,4
40651,73527,4
40647,73531,4
40652,73528,5
40651,73530,5
40641,73518,5
40644,73527,4
40639,73514,5
40643,73514,5
40640,73513,5
40636,73507,5
40631,73509,4
40643,73512,5
40640,73517,5
40632,73522,5
40634,73522,5
40637,73503,4
40625,73503,5
40626,73503,5
40619,73496,5
40621,73495,5
40617,73488,4
40619,73487,5
40619,73474,5
40611,73472,5
40608,73467,4
40605,73462,4
40612,73468,5
40606,73461,5
40597,73461,5
40604,73454,4
40598,73444,5
40598,73438,5
40596,73441,5
40593,73436,5
40593,73446,4
40592,73436,5
40596,73434,5
40598,73440,5
40595,73438,5
40599,73462,4
40597,73456,5
40596,73462,5
40598,73458,5
40603,73468,5
40605,73475,5
40610,73487,4
40613,73489,5
40617,73487,5
40616,73500,4
40629,73515,4
40628,73517,5
40642,73521,5
40618,73531,5
40648,73548,4
40648,73551,5
40664,73559,5
40641,73560,5
40663,73565,5
40674,73580,4
40669,73590,5
40664,73596,5
40687,73594,5
40682,73594,5
40675,73599,4
40695,73598,5
40692,73611,5
40679,73600,5
40686,73596,5
40715,73589,4
40676,73583,6
40678,73588,4
40674,73588,5
40702,73581,4
40680,73583,4
40684,73600,5
40671,73591,5
40693,73596,5
40687,73602,4
40693,73616,5
40703,73643,5
40724,73656,5
40724,73676,5
40739,73695,4
40750,73713,5
40757,73692,5
40757,73717,5
40759,73735,5
40761,73731,4
40766,73714,5
40771,73755,5
40772,73750,6
40777,73754,4
40776,73734,4
40760,73718,5
40744,73688,5
40728,73668,5
40724,73680,4
40720,73638,4
40708,73626,5
40707,73634,5
40715,73666,5
40711,73641,4
40705,73644,5
40721,73647,5
40724,73663,5
40732,73654,5
40725,73666,4
40735,73685,5
40738,73698,5
40747,73703,5
40747,73716,5
40761,73725,4
40753,73727,4
40765,73734,5
40769,73738,5
40772,73746,6
40776,73747,3
40775,73745,5
40784,73760,5
40778,73763,5
40787,73767,4
40789,73771,4
40787,73771,5
40801,73786,5
40800,73799,5
40815,73801,4
40819,73821,5
40822,73817,5
40822,73824,5
40816,73823,5
40812,73822,4
40816,73815,5
40815,73827,5
40829,73833,5
40819,73826,5
40822,73818,4
40813,73823,6
40827,73818,4
40823,73827,5
40824,73828,5
40820,73827,6
40824,73826,3
40824,73826,5
40834,73838,5
40830,73844,4
40831,73851,4
40842,73857,5
40843,73874,5
40853,73875,5
40857,73901,4
40866,73918,5
40876,73929,5
40895,73962,5
40900,73973,5
40922,73989,4
40920,73993,5
40931,74010,5
40934,74027,5
40954,74041,5
40956,74058,4
40955,74056,5
40964,74057,6
40956,74065,4
40960,74074,5
40974,74072,4
40963,74081,5
40975,74076,5
40968,74067,5
40967,74066,4
40966,74061,4
40952,74057,5
40951,74059,9
40952,74050,1
40958,74055,4
40956,74027,5
40952,74058,5
40966,74059,5
40962,74069,5
40973,74079,4
40972,74084,5
40974,74108,5
40986,74111,5
40992,74129,5
41003,74128,4
41008,74131,5
41012,74135,5
41002,74148,6
41007,74138,4
41007,74145,4
41002,74147,5
41015,74136,5
41002,74117,5
40991,74103,4
40959,74059,4
40959,74044,5
40949,74032,5
40943,74013,5
40911,74010,4
40937,74011,5
40937,74009,5
40939,74013,5
40924,74026,5
40943,74025,4
40945,74028,5
40950,74035,5
40970,74051,5
40965,74057,5
40964,74066,5
40968,74078,4
41000,74088,5
40979,74093,5
40979,74098,6
40993,74101,3
41020,74103,5
40991,74108,5
40998,74121,5
41001,74117,4
41006,74126,4
41013,74133,5
41007,74149,5
41015,74145,5
41020,74155,4
41022,74168,5
41035,74184,5
41049,74200,5
41046,74188,5
41038,74207,4
41042,74206,5
41045,74193,5
41055,74174,5
41052,74199,5
41043,74189,5
41047,74200,5
41040,74189,4
41046,74191,5
41042,74189,5
41042,74189,4
41037,74194,5
41035,74179,5
41034,74182,5
41028,74175,4
41029,74218,4
41050,74197,5
41041,74196,5
41051,74201,5
41057,74223,4
41058,74225,5
41067,74234,5
41077,74252,5
41087,74279,5
41093,74282,4
41113,74299,5
41115,74333,5
41131,74341,5
41143,74358,5
41157,74373,4
41156,74381,5
41162,74401,6
41167,74408,4
41182,74418,5
41171,74433,4
41190,74444,5
41198,74446,5
41200,74461,5
41208,74470,4
41206,74478,4
41213,74481,5
41221,74485,5
41216,74489,5
41220,74489,4
41219,74469,5
41211,74471,5
41210,74454,5
41201,74448,5
41198,74444,4
41196,74444,5
41197,74442,5
41203,74444,5
41201,74443,5
41201,74451,4
41205,74447,5
41202,74460,5
41211,74470,6
41221,74473,4
41223,74491,4
41234,74504,5
41235,74515,5
41234,74520,5
41242,74544,4
41252,74549,4
41251,74552,5
41254,74563,5
41264,74549,5
41262,74536,4
41243,74505,5
41226,74478,5
41214,74474,5
41204,74452,5
41199,74443,4
41203,74451,5
41194,74458,5
41205,74463,5
41215,74465,5
41219,74485,5
41234,74496,4
41235,74507,5
41243,74521,5
41249,74538,5
41254,74552,4
41265,74564,5
41267,74580,5
41278,74602,5
41294,74612,4
41292,74627,4
41304,74628,5
41310,74647,5
41311,74644,5
41325,74660,4
41329,74675,5
41336,74683,5
41338,74693,5
41350,74711,5
41360,74723,4
41363,74724,5
41368,74742,5
41390,74760,5
41395,74791,5
41403,74823,4
41412,74834,6
41426,74829,4
41415,74827,5
41427,74833,5
41423,74828,4
41417,74817,5
41398,74824,5
41420,74821,5
41413,74822,4
41412,74805,4
41379,74803,5
41403,74786,5
41391,74787,5
41396,74779,4
41379,74780,5
41385,74769,5
41388,74777,5
41390,74768,5
41407,74767,4
41396,74783,5
41399,74778,5
41400,74783,5
41425,74786,5
41406,74802,4
41404,74804,5
41414,74808,6
41437,74819,4
41415,74823,5
41428,74820,4
41419,74828,5
41422,74815,5
41418,74826,5
41422,74822,4
41411,74801,4
41405,74776,5
41388,74762,5
41380,74752,5
41362,74732,4
41360,74686,5
41352,74690,5
41350,74689,5
41337,74671,5
41336,74647,4
41334,74663,5
41331,74667,5
41321,74657,5
41319,74648,5
41332,74654,4
41327,74646,5
41318,74649,5
41316,74665,5
41321,74640,5
41315,74634,4
41314,74641,5
41304,74656,5
41305,74616,5
41282,74585,4
41259,74535,4
41231,74498,5
41207,74431,5
41182,74404,5
41165,74362,4
41151,74343,5
41136,74327,5
41135,74331,5
41123,74323,5
41142,74315,4
41128,74329,5
41128,74326,5
41132,74326,5
41135,74323,5
41130,74327,5
41136,74331,4
41134,74343,5
41144,74338,5
41138,74338,5
41137,74343,4
41142,74340,5
41140,74329,5
41125,74343,5
41136,74336,4
41137,74325,4
41131,74331,5
41131,74318,5
41124,74320,5
41131,74321,4
41135,74316,5
41128,74317,5
41124,74322,5
41132,74329,5
41135,74331,4
41130,74315,5
41131,74319,5
41126,74319,5
41127,74314,5
41116,74308,4
41115,74301,6
41118,74309,4
41114,74303,5
41117,74301,5
41115,74292,4
41104,74284,5
41108,74277,5
41088,74264,5
41083,74255,4
41080,74245,4
41068,74232,5
41080,74231,5
41073,74230,5
41070,74223,4
41076,74210,5
41069,74219,5
41072,74219,5
41067,74221,5
41063,74226,4
41070,74223,5
41070,74229,5
41070,74226,5
41075,74229,4
41076,74239,4
41069,74239,5
41079,74239,5
41078,74244,5
41077,74246,5
41076,74250,4
41084,74247,5
41085,74256,5
41094,74261,5
41088,74276,4
41083,74263,4
41102,74264,5
41094,74275,5
41098,74282,5
41090,74282,4
41092,74282,5
41082,74277,5
41086,74249,5
41078,74242,5
41073,74222,5
41059,74205,4
41058,74189,5
41044,74181,5
41033,74165,6
41031,74145,3
41025,74152,5
41020,74145,5
41022,74141,5
41013,74154,5
41026,74161,4
41046,74169,5
41048,74186,5
41030,74189,5
41062,74211,5
41065,74217,4
41065,74230,5
41047,74241,5
41080,74254,5
41096,74261,4
41095,74281,5
41098,74276,5
41093,74261,5
41082,74245,5
41064,74206,4
41061,74159,6
41020,74128,4
41003,74112,5
40983,74087,5
41013,74062,6
40968,74057,3
40966,74050,5
40969,74049,5
40967,74040,5
40968,74049,4
40972,74048,5
40968,74056,5
40968,74053,5
40968,74060,5
40976,74072,4
40982,74075,5
40982,74053,5
40981,74080,5
40987,74074,4
40983,74080,4
40987,74050,5
40984,74081,5
40976,74070,5
40985,74065,4
40978,74055,5
40977,74062,6
40977,74062,4
40979,74056,5
40970,74073,4
40975,74044,5
40966,74056,5
40968,74056,5
40974,74083,5
40975,74070,4
40971,74075,5
40975,74078,5
40982,74098,5
40976,74077,5
40973,74077,4
40979,74076,5
40972,74073,5
40966,74060,5
40971,74064,4
40966,74062,5
40959,74052,5
40960,74043,5
40955,74041,5
40956,74035,4
40951,74017,5
40939,74015,5
40940,73999,6
40938,74001,4
40932,73991,4
40931,73993,5
40927,73981,5
40925,73981,5
40926,73984,5
40925,73978,4
40925,73981,5
40928,73981,5
40933,73984,5
40917,73997,5
40929,73992,4
40939,73992,5
40934,74000,5
40930,74003,5
40940,74003,4
40942,74010,5
40933,74009,5
40936,74004,5
40937,73993,5
40944,74008,5
40938,73999,4
40933,73998,5
40938,73994,5
40934,73992,6
40927,73989,3
40930,73995,5
40928,73997,5
40926,73992,5
40919,73993,5
40915,73975,4
40922,73966,5
40912,73945,5
40890,73931,5
40888,73913,5
40875,73882,4
40855,73860,5
40849,73856,5
40839,73838,5
40843,73827,4
40834,73831,4
40841,73822,5
40837,73832,5
40839,73832,5
40849,73837,4
40853,73857,6
40857,73861,4
40852,73865,7
40856,73872,3
40862,73878,4
40866,73879,5
40864,73892,5
40865,73897,5
40881,73900,5
40882,73912,4
40880,73909,5
40877,73895,5
40855,73875,5
40846,73846,5
40831,73809,4
40812,73781,5
40792,73759,5
40786,73728,5
40768,73707,4
40755,73698,5
40764,73697,5
40759,73694,5
40756,73686,5
40745,73681,4
40743,73679,5
40745,73665,6
40743,73657,4
40741,73670,5
40737,73671,4
40727,73676,5
40740,73664,5
40745,73672,5
40738,73675,5
40720,73665,4
40738,73676,5
40739,73678,5
40744,73679,5
40720,73676,5
40742,73682,4
40749,73678,5
40751,73690,5
40744,73690,5
40744,73691,4
40750,73684,4
40748,73693,5
40772,73688,5
40754,73701,5
40757,73702,4
40761,73714,5
40792,73714,5
40755,73710,6
40756,73704,4
40760,73710,4
40775,73710,5
40763,73710,5
40764,73710,5
40758,73718,5
40768,73714,4
40757,73719,5
40772,73723,5
40773,73716,5
40763,73705,5
40767,73719,4
40773,73716,5
40771,73717,5
40770,73700,5
40767,73729,4
40771,73725,5
40764,73735,5
40781,73711,5
40784,73748,5
40779,73741,5
40783,73747,4
40792,73757,5
40786,73777,5
40800,73778,5
40806,73788,4
40811,73805,5
40815,73785,5
40806,73805,5
40816,73800,5
40819,73843,4
40821,73813,5
40819,73813,5
40828,73802,5
40818,73814,5
40816,73807,4
40818,73796,5
40810,73778,5
40795,73777,5
40796,73762,4
40795,73764,4
40782,73747,5
40791,73742,5
40786,73751,5
40787,73754,4
40787,73757,6
40780,73758,4
40796,73754,5
40802,73768,5
40796,73792,4
40806,73805,5
40819,73818,5
40819,73817,5
40821,73818,5
40822,73814,4
40832,73817,5
40834,73827,5
40832,73825,5
40832,73825,5
40828,73828,4
40833,73815,5
40825,73812,5
40817,73789,5
40785,73754,4
40780,73726,4
40765,73702,5
40754,73690,5
40735,73660,5
40728,73655,4
40729,73641,5
40719,73634,6
40719,73625,4
40720,73634,5
40721,73628,4
40718,73621,5
40718,73622,5
40724,73645,5
40726,73641,5
40717,73641,4
40717,73641,5
40731,73656,5
40725,73655,5
40726,73650,5
40728,73647,4
40729,73647,5
40735,73648,5
40726,73640,5
40727,73645,4
40726,73638,4
40726,73654,5
40733,73652,5
40724,73641,5
40724,73655,4
40727,73650,5
40729,73671,5
40736,73662,5
40736,73677,5
40739,73649,4
40733,73655,5
40726,73646,5
40732,73650,5
40730,73643,5
40726,73648,4
40728,73639,5
40727,73648,5
40721,73641,5
40730,73643,5
40726,73650,4
40721,73644,5
40722,73649,5
40732,73649,5
40729,73637,4
40737,73637,4
40731,73644,5
40719,73640,5
40725,73648,5
40726,73649,5
40733,73654,4
40737,73665,5
40738,73669,5
40741,73666,5
40744,73674,4
40738,73679,5
40724,73680,5
40753,73676,5
40747,73681,5
40747,73683,4
40716,73703,5
40741,73685,5
40744,73694,5
40758,73698,5
40734,73700,4
40756,73697,5
40759,73703,5
40749,73699,5
40770,73696,4
40753,73695,4
40749,73708,6
40747,73694,4
40772,73694,5
40748,73689,4
40745,73692,6
40747,73695,4
40776,73689,5
40751,73692,5
40748,73694,4
40750,73693,5
40753,73682,5
40741,73689,5
40744,73685,5
40747,73687,4
40747,73679,5
40749,73691,5
40751,73687,5
40747,73695,5
40746,73677,4
40756,73696,5
40754,73697,5
40758,73700,5
40759,73671,4
40762,73704,4
40752,73707,5
40757,73705,6
40758,73700,4
40761,73709,4
40751,73709,5
40748,73704,5
40761,73718,5
40750,73693,5
40743,73686,4
40745,73674,5
40742,73703,5
40733,73651,5
40732,73652,5
40725,73657,4
40742,73678,5
40741,73670,5
40739,73685,5
40758,73689,5
40759,73707,4
40778,73728,5
40788,73751,5
40795,73766,5
40796,73772,5
40814,73785,4
40806,73802,5
40821,73813,5
40831,73821,6
40823,73832,3
40833,73826,5
40832,73842,5
40842,73837,5
40836,73821,5
40812,73796,4
40799,73772,5
40789,73746,5
40777,73738,5
40778,73731,5
40773,73735,4
40778,73721,5
40774,73740,5
40784,73749,5
40777,73747,5
40783,73750,4
40788,73754,5
40796,73767,5
40798,73767,5
40804,73789,4
40804,73791,5
40817,73806,4
40816,73815,5
40822,73821,5
40827,73836,6
40837,73837,3
40842,73844,5
40834,73840,5
40840,73854,5
40841,73856,4
40853,73871,5
40861,73879,5
40861,73882,5
40860,73879,5
40871,73890,4
40870,73891,5
40873,73898,5
40877,73902,5
40885,73921,5
40886,73921,4
40893,73944,5
40901,73949,5
40907,73947,5
40908,73956,4
40904,73957,4
40902,73941,6
40902,73950,4
40904,73953,5
40913,73957,4
40911,73962,5
40915,73963,5
40904,73966,5
40912,73971,5
40923,73970,4
40914,73961,5
40917,73969,5
40926,73979,5
40921,73987,5
40924,73989,4
40928,73987,5
40932,73991,5
40935,74010,5
40948,74013,5
40946,74030,4
40954,74037,5
40962,74051,5
40966,74063,5
40968,74083,4
40985,74098,4
40997,74107,5
41005,74130,6
41022,74145,4
41022,74170,4
41029,74171,5
41041,74183,5
41046,74196,5
41032,74201,5
41060,74204,4
41061,74210,5
41051,74217,5
41029,74210,5
41048,74209,5
41051,74215,4
41046,74198,5
41027,74193,5
41049,74185,5
41039,74189,5
41044,74178,4
41056,74191,5
41045,74194,5
41051,74191,5
41045,74205,5
41082,74204,4
41060,74212,5
41065,74234,5
41077,74246,6
41107,74253,3
41084,74248,5
41088,74267,5
41086,74262,5
41095,74260,5
41085,74273,4
41090,74263,5
41090,74263,5
41086,74264,5
41073,74234,5
41059,74214,4
41055,74181,5
41041,74139,5
41028,74152,5
41021,74135,5
41019,74130,4
41010,74110,5
41025,74138,5
41024,74148,5
41029,74156,4
41029,74147,5
41035,74158,4
41032,74184,5
41045,74194,5
41048,74218,4
41055,74215,5
41060,74230,5
41076,74239,5
41072,74282,5
41090,74255,4
41087,74266,5
41091,74276,5
41104,74304,5
41110,74298,5
41104,74300,4
41117,74311,5
41117,74308,5
41122,74329,5
41125,74315,5
41134,74345,4
41143,74357,5
41149,74378,5
41158,74388,5
41160,74390,4
41157,74394,4
41162,74391,6
41165,74381,4
41162,74385,5
41165,74388,4
41160,74387,5
41166,74385,5
41178,74380,5
41162,74391,5
41166,74387,4
41159,74381,5
41167,74382,5
41157,74388,5
41159,74380,5
41171,74384,4
41167,74397,5
41179,74402,5
41179,74414,5
41188,74432,5
41198,74445,4
41194,74460,5
41215,74477,5
41226,74502,5
41233,74531,4
41251,74545,4
41270,74569,5
41279,74595,6
41283,74606,4
41299,74625,4
41322,74649,5
41322,74651,5
41331,74659,5
41325,74662,5
41323,74662,4
41328,74668,5
41328,74662,5
41328,74667,5
41324,74648,5
41323,74659,4
41324,74662,5
41321,74650,5
41334,74651,5
41324,74653,5
41329,74657,4
41321,74662,5
41330,74676,5
41333,74686,5
41347,74700,5
41354,74704,4
41366,74725,5
41368,74750,5
41382,74753,5
41388,74755,4
41390,74773,5
41395,74773,5
41399,74774,5
41392,74794,5
41401,74785,4
41385,74772,5
41384,74753,5
41369,74712,5
41352,74693,5
41336,74675,4
41331,74655,5
41325,74651,5
41321,74650,5
41328,74654,5
41330,74661,4
41338,74666,5
41339,74679,5
41341,74693,5
41349,74713,4
41362,74720,6
41367,74741,4
41373,74745,5
41390,74765,5
41395,74779,4
41377,74791,5
41408,74797,5
41412,74797,5
41421,74810,5
41395,74825,4
41433,74836,5
41431,74832,5
41434,74856,5
41427,74862,5
41451,74871,4
41459,74884,5
41466,74893,5
41478,74905,5
41485,74932,4
41503,74947,4
41504,74955,5
41538,74966,5
41506,74974,5
41512,74964,4
41511,74969,5
41529,74972,6
41507,74961,4
41509,74980,5
41508,74971,4
41512,74971,5
41502,74957,5
41506,74953,5
41498,74949,5
41494,74932,4
41491,74935,5
41497,74930,5
41492,74933,5
41499,74914,5
41495,74947,4
41502,74953,5
41508,74952,5
41503,74940,5
41506,74975,4
41525,74981,5
41529,74996,4
41532,75015,5
41544,75028,5
41544,75038,4
41552,75047,5
41546,75076,5
41560,75061,5
41557,75048,5
41549,75043,4
41539,75070,5
41530,75021,5
41534,74998,5
41519,74993,5
41523,74996,4
41503,74974,5
41513,74965,5
41502,74963,5
41500,74966,5
41495,74954,4
41496,74954,5
41508,74939,5
41495,74959,5
41502,74947,4
41501,74942,4
41494,74943,5
41486,74937,5
41488,74934,5
41495,74941,6
41488,74933,3
41478,74916,5
41472,74897,5
41451,74853,5
41416,74792,4
41383,74735,5
41362,74700,5
41340,74663,5
41321,74635,5
41303,74608,4
41303,74603,5
41294,74596,5
41291,74592,5
41292,74575,5
41285,74581,4
41279,74581,5
41277,74579,5
41293,74581,5
41278,74589,4
41299,74588,4
41295,74590,5
41294,74592,5
41293,74592,5
41289,74586,4
41289,74592,6
41295,74592,4
41283,74586,5
41285,74581,5
41285,74588,4
41286,74583,5
41282,74574,5
41277,74580,5
41280,74577,5
41276,74570,4
41273,74567,5
41273,74562,5
41272,74574,5
41273,74557,5
41264,74562,4
41264,74535,5
41259,74534,5
41250,74528,5
41254,74526,4
41238,74517,4
41255,74524,5
41243,74515,6
41233,74501,4
41230,74491,4
41224,74488,5
41218,74475,5
41212,74467,5
41208,74444,5
41205,74450,4
41206,74446,5
41198,74448,5
41205,74451,5
41196,74442,5
41205,74443,4
41201,74443,5
41197,74447,5
41205,74448,5
41215,74463,5
41214,74457,4
41218,74466,5
41213,74477,5
41211,74473,5
41220,74479,5
41224,74478,4
41218,74480,5
41227,74486,5
41225,74488,6
41219,74494,3
41225,74497,5
41229,74490,5
41209,74494,5
41222,74495,5
41228,74494,4
41226,74498,5
41189,74499,5
41227,74486,5
41217,74487,5
41211,74470,4
41195,74451,5
41191,74420,5
41176,74397,5
41161,74367,5
41170,74349,4
41147,74334,5
41125,74319,5
41128,74317,5
41153,74311,4
41117,74303,6
41121,74308,4
41124,74316,5
41143,74329,5
41127,74336,6
41131,74344,3
41145,74355,5
41168,74364,5
41160,74382,5
41169,74387,4
41177,74406,5
41178,74419,5
41190,74426,5
41190,74424,5
41175,74415,4
41166,74354,5
41137,74320,5
41114,74285,5
41094,74256,4
41073,74195,4
41063,74191,5
41044,74181,5
41040,74170,5
41039,74158,4
41032,74159,5
41027,74151,6
41027,74152,4
41024,74172,5
41030,74144,4
41029,74144,5
41031,74158,5
41033,74194,5
41028,74164,5
41042,74169,4
41032,74168,5
41039,74182,5
41037,74159,5
41036,74172,5
41036,74161,4
41034,74169,5
41037,74160,5
41031,74161,5
41032,74165,4
41034,74161,4
41026,74157,5
41026,74150,5
41027,74155,5
41024,74156,4
41021,74162,5
41029,74169,5
41041,74177,6
41046,74171,4
41041,74188,4
41041,74180,5
41041,74186,5
41039,74177,5
41044,74177,5
41038,74181,4
41039,74174,5
41033,74176,5
41028,74177,5
41032,74167,5
41026,74159,4
41028,74153,5
41024,74151,5
41019,74135,5
41022,74144,4
41017,74144,5
41015,74147,5
41021,74140,5
41021,74140,5
41024,74147,5
41030,74156,4
41024,74153,5
41017,74168,5
41036,74170,6
41030,74172,3
41036,74186,5
41042,74183,5
41049,74197,5
41046,74192,5
41055,74205,4
41060,74208,5
41067,74219,5
41068,74218,5
41061,74231,4
41067,74238,4
41073,74238,5
41080,74249,5
41076,74255,5
41088,74256,4
41088,74259,5
41094,74266,5
41093,74265,5
41090,74271,5
41091,74263,4
41090,74260,6
41086,74245,4
41075,74244,5
41075,74229,5
41065,74206,4
41049,74193,5
41040,74170,5
41027,74168,5
41024,74148,5
41026,74140,4
41017,74137,5
41009,74134,5
41020,74135,5
41024,74144,4
41024,74149,4
41029,74155,5
41031,74162,5
41032,74164,5
41033,74177,4
41044,74185,5
41044,74201,5
41049,74190,5
41053,74207,5
41057,74216,4
41045,74219,5
41060,74214,6
41043,74197,4
41035,74157,5
40984,74112,4
40977,74066,5
40958,74039,5
40949,74006,5
40903,73975,5
40907,73942,4
40895,73922,5
40880,73914,5
40880,73899,5
40869,73884,4
40858,73874,4
40854,73867,5
40881,73857,5
40848,73861,5
40847,73855,4
40856,73856,5
40874,73861,5
40844,73859,5
40848,73862,5
40847,73853,4
40860,73854,5
40838,73845,5
40848,73847,6
40848,73853,4
40846,73843,4
40838,73838,5
40847,73844,5
40837,73836,5
40836,73818,5
40842,73833,4
40842,73841,5
40840,73834,5
40845,73811,5
40840,73846,4
40849,73851,5
40842,73851,5
40834,73830,5
40847,73855,5
40844,73852,5
40836,73848,4
40854,73857,5
40841,73850,5
40849,73859,5
40852,73851,5
40846,73895,4
40847,73854,5
40842,73852,5
40847,73847,5
40847,73880,4
40848,73844,5
40840,73844,5
40842,73842,5
40837,73860,4
40836,73843,4
40844,73841,5
40840,73835,5
40840,73844,5
40844,73840,4
40841,73838,5
40844,73852,5
40841,73856,5
40852,73874,5
40858,73868,4
40857,73877,5
40856,73878,5
40861,73879,5
40861,73882,5
40863,73878,4
40863,73888,6
40863,73890,4
40855,73883,5
40866,73885,5
40865,73881,4
40866,73886,5
40867,73891,5
40866,73888,5
40852,73894,4
40859,73890,4
40860,73888,5
40862,73881,5
40861,73888,5
40864,73895,4
40859,73888,5
40857,73889,5
40868,73886,5
40862,73889,5
40869,73891,4
40867,73884,5
40862,73889,5
40855,73885,5
40862,73884,5
40856,73876,4
40849,73859,5
40834,73832,6
40831,73828,4
40817,73807,5
40824,73802,4
40809,73785,5
40808,73790,5
40814,73788,8
40811,73796,1
40810,73796,4
40810,73803,5
40816,73823,5
40825,73825,5
40833,73827,4
40835,73830,5
40840,73848,5
40839,73849,5
40848,73865,5
40852,73868,4
40855,73877,5
40856,73869,5
40850,73873,5
40856,73876,5
40855,73881,4
40858,73862,5
40846,73844,5
40823,73803,5
40796,73770,5
40783,73735,4
40777,73708,5
40747,73689,5
40731,73661,5
40729,73645,4
40729,73642,4
40709,73628,5
40715,73618,5
40706,73614,5
40698,73604,4
40700,73604,5
40692,73587,5
40698,73593,5
40699,73606,5
40704,73598,4
40696,73605,5
40697,73607,5
40686,73601,5
40707,73604,5
40692,73603,5
40702,73601,4
40667,73595,5
40687,73593,5
40687,73593,4
40690,73588,4
40663,73583,5
40687,73586,5
40683,73582,5
40682,73573,4
40691,73584,5
40682,73578,5
40689,73585,5
40692,73588,5
40726,73592,4
40684,73590,5
40695,73588,5
40681,73577,5
40704,73574,5
40678,73558,4
40680,73567,5
40677,73565,5
40672,73562,4
40664,73555,5
40670,73548,4
40660,73550,6
40671,73540,3
40661,73537,5
40660,73540,4
40652,73545,4
40648,73513,5
40659,73543,5
40651,73534,5
40651,73530,4
40647,73494,5
40648,73530,5
40646,73534,5
40643,73531,5
40648,73518,4
40649,73524,5
40639,73520,5
40642,73529,5
40641,73552,5
40646,73532,4
40649,73533,5
40646,73544,5
40644,73577,6
40647,73546,4
40659,73545,4
40659,73555,5
40664,73579,5
40664,73576,5
40662,73569,4
40660,73567,4
40666,73569,5
40676,73578,5
40672,73587,5
40680,73589,4
40683,73590,5
40684,73606,5
40696,73616,5
40698,73629,5
40710,73626,4
40701,73637,5
40711,73637,5
40706,73635,5
40707,73634,5
40706,73642,5
40718,73648,4
40722,73642,5
40718,73650,5
40713,73653,6
40718,73660,3
40737,73676,5
40737,73679,5
40746,73689,5
40763,73719,4
40770,73739,4
40790,73764,5
40800,73782,5
40809,73804,5
40815,73801,4
40821,73825,5
40830,73846,5
40847,73857,5
40842,73865,5
40856,73873,4
40862,73895,5
40868,73897,5
40865,73877,5
40850,73860,5
40831,73828,4
40828,73814,6
40816,73801,4
40809,73787,5
40803,73784,5
40797,73781,6
40805,73775,3
40808,73798,5
40811,73797,5
40817,73794,4
40814,73809,5
40823,73810,5
40823,73829,5
40833,73849,5
40848,73878,4
40861,73897,5
40876,73912,5
40873,73920,5
40879,73921,5
40888,73935,4
40897,73953,5
40896,73959,5
40898,73968,5
40907,73972,5
40921,73981,4
40932,73993,5
40931,73992,6
40930,74010,4
40936,74014,4
40941,74019,4
40953,74036,5
40957,74064,5
40967,74078,5
40985,74084,4
40983,74087,5
40987,74080,5
40982,74091,5
40987,74098,5
40997,74104,4
41006,74117,5
41006,74127,5
41008,74129,5
41012,74142,5
41020,74149,4
41018,74146,5
41026,74160,5
41031,74171,5
41029,74175,5
41017,74180,4
41043,74194,5
41051,74195,5
41068,74217,6
41040,74241,3
41073,74246,4
41084,74270,5
41101,74296,5
41095,74310,5
41136,74340,4
41136,74359,5
41156,74382,5
41174,74400,5
41166,74416,5
41174,74426,4
41195,74449,5
41238,74462,5
41212,74471,5
41216,74476,5
41217,74484,4
41242,74475,5
41213,74486,5
41215,74478,5
41210,74480,4
41217,74476,5
41209,74466,4
41204,74454,5
41202,74446,5
41203,74432,4
41205,74456,5
41198,74457,5
41204,74468,5
41208,74445,5
41207,74470,4
41217,74480,5
41218,74493,5
41220,74474,5
41237,74520,5
41236,74520,5
41243,74524,4
41246,74536,5
41251,74533,5
41250,74529,5
41246,74542,4
41250,74558,5
41246,74532,5
41236,74515,5
41223,74480,4
41198,74481,4
41184,74420,6
41174,74415,4
41166,74389,5
41167,74393,4
41154,74377,5
41150,74380,5
41156,74380,5
41161,74385,5
41171,74394,4
41161,74390,5
41166,74396,5
41178,74411,5
41180,74420,5
41189,74441,4
41199,74433,5
41194,74455,5
41200,74462,5
41209,74458,5
41210,74481,4
41218,74483,5
41219,74481,5
41215,74497,5
41218,74502,4
41240,74509,4
41237,74516,5
41236,74530,6
41242,74543,4
41266,74551,4
41274,74575,5
41276,74591,5
41294,74623,5
41301,74620,5
41306,74626,4
41301,74639,5
41309,74639,5
41318,74645,5
41325,74652,5
41307,74667,4
41320,74664,5
41321,74661,5
41318,74667,5
41323,74653,5
41324,74652,4
41323,74653,5
41326,74657,5
41327,74653,5
41333,74658,5
41327,74661,4
41326,74676,5
41333,74681,5
41329,74684,5
41347,74703,4
41347,74708,5
41360,74733,5
41374,74754,5
41384,74769,5
41403,74784,4
41402,74812,5
41419,74829,5
41427,74853,5
41446,74862,5
41450,74883,4
41442,74881,5
41450,74882,5
41452,74884,5
41454,74876,4
41442,74870,4
41449,74868,5
41447,74865,5
41440,74858,5
41447,74859,4
41445,74858,6
41449,74856,4
41452,74867,5
41455,74863,5
41451,74871,4
41457,74882,5
41469,74902,5
41464,74911,5
41474,74924,5
41480,74930,4
41481,74943,5
41500,74948,5
41495,74959,5
41496,74963,5
41495,74951,4
41490,74947,5
41490,74935,5
41448,74878,5
41450,74846,4
41417,74827,4
41411,74796,5
41365,74771,5
41388,74751,5
41381,74752,4
41385,74748,5
41366,74755,6
41395,74765,4
41398,74774,5
41404,74793,4
41416,74801,5
41413,74816,5
41431,74836,5
41438,74844,5
41464,74846,4
41444,74861,5
41445,74881,5
41459,74894,5
41493,74901,5
41463,74903,4
41473,74913,5
41473,74917,5
41489,74922,5
41473,74924,4
41472,74925,5
41478,74928,5
41481,74934,5
41481,74936,5
41483,74958,4
41501,74965,5
41510,74958,5
41514,74975,5
41514,74972,5
41514,74979,4
41507,74964,5
41511,74978,5
41508,74972,5
41496,74969,5
41510,74966,4
41513,74978,5
41509,74973,5
41499,74963,5
41502,74974,4
41497,74961,4
41486,74950,5
41501,74946,5
41494,74972,5
41491,74948,4
41497,74945,5
41500,74958,5
41494,74979,5
41497,74960,5
41508,74975,6
41509,74971,3
41513,74988,5
41515,74999,5
41526,75018,5
41526,75006,4
41541,75025,5
41541,75037,5
41548,75040,5
41542,75042,5
41546,75052,4
41553,75041,5
41546,75057,5
41550,75052,5
41546,75037,4
41548,75037,4
41555,75035,5
41533,75032,5
41531,75023,5
41523,75008,4
41519,74985,5
41501,74954,5
41488,74920,5
41461,74889,5
41451,74867,4
41431,74834,6
41424,74814,4
41409,74782,5
41393,74776,5
41392,74755,4
41382,74749,5
41371,74731,5
41378,74736,5
41387,74734,5
41372,74732,4
41378,74741,5
41377,74738,5
41368,74733,5
41376,74744,4
41376,74748,5
41387,74762,5
41391,74779,5
41382,74750,5
41365,74733,4
41349,74688,5
41322,74621,5
41292,74580,6
41260,74537,4
41244,74501,6
41223,74472,3
41201,74453,5
41211,74446,5
41194,74439,5
41195,74432,4
41177,74428,5
41191,74422,5
41192,74422,5
41185,74421,4
41183,74435,4
41198,74435,5
41196,74436,5
41195,74430,5
41196,74431,4
41193,74433,5
41182,74435,5
41195,74434,5
41189,74433,5
41192,74438,5
41182,74427,4
41181,74419,5
41169,74412,5
41187,74416,6
41174,74406,3
41177,74406,5
41171,74405,5
41184,74409,5
41169,74415,5
41178,74415,4
41174,74417,5
41181,74417,5
41177,74406,5
41182,74418,4
41175,74412,4
41171,74406,5
41174,74409,5
41176,74404,5
41169,74401,4
41150,74396,5
41162,74396,5
41162,74385,5
41157,74387,5
41135,74374,4
41151,74365,6
41145,74356,4
41137,74350,5
41126,74338,5
41141,74336,6
41136,74343,3
41139,74350,5
41151,74351,5
41141,74345,5
41143,74353,4
41146,74353,5
41177,74367,5
41151,74374,5
41149,74379,4
41165,74384,5
41183,74393,5
41155,74392,5
41167,74405,5
41172,74404,4
41179,74409,5
41170,74402,5
41166,74399,5
41179,74407,5
41162,74390,4
41174,74405,5
41169,74407,6
41171,74400,4
41166,74371,5
41162,74387,4
41150,74383,5
41144,74351,5
41137,74296,5
41115,74307,4
41111,74284,5
41099,74266,4
41087,74257,5
41078,74246,5
41087,74243,4
41080,74254,5
41082,74277,5
41095,74268,5
41099,74260,5
41098,74288,4
41093,74316,5
41107,74307,5
41122,74310,5
41121,74338,5
41131,74355,4
41138,74354,5
41148,74364,5
41158,74378,6
41157,74392,4
41163,74392,4
41166,74390,5
41152,74369,5
41132,74336,5
41112,74286,4
41081,74257,4
41058,74223,5
41053,74197,5
41039,74156,5
41025,74137,4
41009,74139,5
41014,74129,5
41010,74118,5
40999,74114,5
41001,74119,4
41001,74116,5
41011,74116,5
41003,74124,5
41006,74125,5
41016,74134,5
41012,74136,4
41017,74145,5
41012,74147,5
41016,74135,6
41017,74139,3
41015,74139,5
41008,74141,5
41008,74135,5
41013,74142,4
41017,74148,4
41019,74149,5
41023,74152,5
41023,74144,5
41023,74147,4
41015,74149,5
41023,74160,5
41029,74168,5
41042,74185,5
41039,74184,4
41037,74185,5
41039,74187,5
41039,74199,5
41039,74187,5
41051,74187,4
41039,74186,6
41035,74176,4
41041,74179,5
41031,74169,4
41025,74151,4
41021,74160,5
41020,74154,5
41015,74145,5
41010,74145,4
41007,74127,5
41005,74123,5
41007,74118,5
41001,74121,5
41005,74110,4
40999,74108,5
40997,74120,5
40993,74119,5
40989,74125,5
40998,74122,4
40999,74122,5
41005,74132,5
41005,74125,5
41010,74129,5
41007,74139,4
41015,74141,5
41013,74137,6
41014,74149,4
41020,74146,4
41015,74146,4
41011,74149,5
41017,74146,5
41007,74156,5
41015,74156,4
41019,74155,5
41022,74149,5
41020,74151,5
41011,74159,5
41018,74164,4
41018,74147,5
41021,74162,5
40991,74153,5
41019,74152,5
41025,74148,4
41020,74154,5
40992,74152,5
41013,74135,5
41000,74129,5
40999,74115,4
40993,74086,5
40977,74076,5
40966,74051,6
40958,74036,3
40974,74010,4
40934,73995,5
40924,73990,5
40928,73993,5
40953,73981,4
40926,73985,5
40924,73998,5
40926,73997,5
40944,74008,5
40942,74019,4
40944,74019,5
40942,74032,5
40956,74042,5
40964,74068,5
40964,74071,4
40971,74073,5
40974,74054,5
40976,74076,5
40974,74097,5
40976,74088,5
40979,74057,4
40959,74047,5
40937,74010,5
40919,73963,4
40899,73923,4
40878,73902,5
40853,73872,5
40841,73837,5
40829,73838,4
40824,73806,5
40809,73809,5
40812,73798,5
40803,73827,5
40809,73778,4
40804,73789,5
40803,73783,5
40799,73805,5
40802,73785,5
40801,73781,4
40804,73790,5
40804,73795,5
40794,73788,5
40804,73796,5
40807,73785,4
40797,73782,6
40804,73779,4
40806,73783,5
40804,73781,4
40799,73782,5
40788,73779,5
40805,73776,5
40802,73780,5
40798,73787,4
40804,73774,5
40794,73787,5
40808,73786,5
40817,73801,5
40810,73806,4
40812,73810,5
40815,73798,5
40807,73800,5
40819,73808,5
40816,73805,4
40807,73808,5
40820,73795,5
40808,73789,5
40810,73795,5
40806,73794,4
40812,73813,5
40802,73801,6
40800,73801,4
40807,73791,4
40815,73800,5
40804,73793,5
40800,73793,5
40804,73798,5
40810,73792,4
40805,73789,5
40806,73791,5
40810,73804,5
40813,73819,5
40813,73797,4
40811,73816,5
40816,73810,5
40820,73826,5
40816,73823,5
40826,73825,4
40819,73823,5
40832,73827,5
40832,73830,5
40829,73829,5
40829,73826,4
40819,73834,5
40824,73833,5
40817,73838,5
40828,73841,4
40825,73832,5
40829,73836,5
40824,73833,5
40825,73838,5
40828,73842,4
40822,73838,5
40836,73833,5
40831,73826,5
40830,73837,5
40830,73833,4
40824,73833,5
40825,73826,5
40824,73821,5
40819,73819,5
40830,73819,4
40820,73823,5
40814,73810,5
40809,73819,5
40807,73816,4
40814,73807,5
40803,73810,4
40811,73795,5
40804,73790,5
40802,73785,4
40792,73770,5
40777,73762,5
40768,73740,5
40769,73710,5
40749,73694,4
40733,73682,5
40740,73682,5
40730,73672,5
40736,73674,5
40705,73671,4
40747,73673,5
40733,73687,5
40743,73695,5
40734,73700,5
40756,73716,4
40757,73714,5
40766,73733,5
40782,73741,4
40774,73745,4
40779,73755,4
40781,73764,6
40810,73752,3
40776,73758,5
40784,73758,4
40780,73753,5
40791,73729,5
40745,73695,5
40722,73653,5
40704,73633,4
40709,73596,5
40679,73578,5
40659,73561,5
40662,73546,5
40654,73539,4
40650,73546,5
40653,73546,5
40647,73525,5
40646,73512,5
40646,73528,4
40654,73534,5
40663,73544,5
40653,73524,6
40655,73546,3
40660,73549,4
40653,73551,5
40652,73539,5
40663,73545,5
40655,73552,4
40658,73550,5
40659,73571,5
40658,73554,5
40660,73558,5
40650,73559,4
40652,73574,5
40656,73547,5
40658,73531,5
40660,73552,5
40651,73560,4
40661,73545,5
40656,73551,5
40657,73555,5
40651,73552,5
40655,73537,5
40646,73523,4
40640,73523,5
40642,73515,5
40640,73512,6
40635,73509,3
40629,73506,5
40630,73504,5
40640,73510,5
40631,73514,4
40631,73513,5
40628,73512,5
40636,73519,5
40636,73517,5
40640,73516,4
40639,73518,5
40639,73526,5
40641,73524,5
40639,73530,5
40645,73534,4
40652,73544,5
40654,73549,5
40656,73551,5
40664,73564,5
40661,73575,4
40666,73577,6
40672,73586,4
40681,73600,5
40693,73604,4
40693,73632,5
40705,73632,5
40715,73639,5
40718,73652,5
40726,73679,4
40735,73682,5
40738,73695,5
40750,73711,5
40758,73719,5
40760,73726,4
40757,73736,5
40759,73742,5
40763,73747,5
40777,73754,5
40765,73756,9
40785,73765,5
40779,73761,5
40774,73764,4
40780,73764,4
40780,73766,5
40789,73767,6
40786,73765,4
40786,73765,4
40788,73767,5
40783,73770,5
40786,73769,5
40791,73766,5
40783,73779,4
40788,73772,5
40791,73784,5
40796,73776,5
40806,73794,5
40806,73812,4
40809,73823,5
40829,73831,5
40825,73852,5
40837,73863,5
40843,73868,4
40845,73881,5
40848,73879,5
40859,73896,5
40855,73894,5
40854,73885,4
40860,73898,5
40866,73900,5
40863,73899,6
40860,73880,3
40844,73867,5
40825,73828,5
40819,73807,5
40807,73791,5
40792,73788,4
40796,73796,5
40792,73777,5
40788,73784,5
40778,73797,5
40798,73798,4
40811,73812,5
40806,73816,5
40793,73815,5
40824,73833,5
40819,73839,4
40828,73848,5
40825,73859,5
40838,73853,5
40839,73864,4
40841,73865,5
40857,73866,4
40844,73879,5
40854,73886,5
40853,73894,4
40884,73899,5
40866,73896,5
40857,73907,5
40867,73920,5
40903,73921,4
40881,73931,5
40876,73941,5
40892,73957,5
40912,73963,5
40908,73983,4
40910,73984,5
40916,73995,5
40918,73975,5
40913,73992,5
40920,73993,4
40916,73994,5
40922,73974,5
40934,74014,5
40939,74007,4
40930,74007,4
40929,73985,6
40934,74015,4
40941,74020,5
40940,74020,4
40941,74022,5
40944,74027,5
40940,74030,5
40949,74043,5
40953,74069,4
40961,74068,5
40972,74089,5
40979,74101,5
41003,74159,5
41004,74145,4
41023,74167,5
41035,74185,5
41051,74230,5
41050,74228,5
41059,74238,4
41066,74256,5
41077,74270,5
41089,74276,5
41090,74280,4
41085,74285,5
41103,74287,5
41097,74289,6
41095,74286,4
41092,74301,4
41094,74291,5
41087,74291,5
41099,74290,5
41092,74292,5
41097,74302,4
41104,74292,5
41095,74302,5
41102,74308,5
41105,74318,5
41120,74325,4
41125,74338,5
41132,74353,5
41143,74370,5
41152,74396,4
41164,74407,4
41162,74406,5
41158,74420,5
41171,74426,5
41186,74426,5
41182,74432,4
41182,74444,5
41174,74436,5
41173,74428,5
41165,74395,4
41148,74373,5
41134,74342,5
41117,74328,5
41115,74309,5
41108,74297,4
41111,74305,5
41107,74299,5
41104,74316,5
41117,74323,5
41128,74324,4
41123,74339,5
41132,74355,5
41139,74363,5
41142,74372,4
41157,74391,4
41162,74409,5
41161,74417,5
41169,74428,5
41181,74447,4
41184,74448,6
41199,74456,4
41207,74480,5
41205,74479,5
41215,74495,4
41221,74501,5
41232,74513,5
41232,74524,5
41238,74533,5
41244,74542,4
41252,74561,5
41260,74580,5
41266,74597,5
41274,74602,5
41283,74606,4
41282,74623,5
41283,74608,5
41286,74621,5
41291,74619,4
41287,74623,4
41280,74623,5
41294,74625,5
41296,74622,5
41286,74625,4
41295,74616,5
41292,74623,6
41291,74603,4
41281,74615,5
41283,74607,4
41290,74621,5
41284,74624,5
41303,74638,5
41298,74652,5
41310,74661,4
41292,74679,5
41325,74689,5
41343,74709,5
41354,74733,5
41338,74749,4
41378,74775,5
41393,74792,5
41392,74815,5
41419,74830,4
41413,74837,5
41419,74857,5
41433,74866,5
41452,74856,5
41437,74870,4
41436,74859,5
41436,74865,5
41464,74864,5
41431,74860,5
41444,74865,4
41433,74872,5
41460,74890,5
41451,74891,5
41465,74893,5
41460,74913,4
41471,74925,5
41485,74950,5
41495,74975,5
41508,74999,5
41517,74986,4
41523,75015,5
41535,75044,5
41546,75055,5
41555,75047,4
41558,75069,6
41556,75066,4
41545,75048,5
41528,74999,5
41509,74984,6
41502,74957,3
41484,74941,5
41482,74942,5
41474,74923,5
41481,74933,4
41477,74941,5
41498,74989,5
41499,74968,5
41501,74982,5
41517,75000,4
41530,75042,5
41535,75038,5
41549,75067,5
41569,75089,4
41579,75121,4
41590,75137,5
41599,75164,5
41618,75175,5
41617,75185,4
41624,75190,5
41630,75198,5
41633,75211,5
41632,75212,5
41651,75225,4
41660,75231,6
41667,75241,4
41662,75251,5
41674,75279,5
41685,75288,4
41704,75306,5
41709,75334,5
41704,75323,5
41715,75349,5
41720,75351,4
41721,75350,5
41715,75345,5
41722,75347,5
41718,75357,4
41721,75357,4
41727,75355,5
41730,75348,5
41711,75340,5
41711,75332,4
41704,75334,5
41706,75311,5
41699,75321,5
41696,75308,4
41696,75316,4
41701,75313,5
41705,75314,5
41706,75322,5
41699,75326,5
41715,75332,4
41718,75351,5
41723,75348,5
41729,75366,5
41734,75364,5
41731,75364,4
41718,75367,5
41718,75360,5
41719,75347,5
41715,75321,4
41699,75313,4
41689,75297,5
41676,75271,5
41672,75252,5
41668,75247,5
41655,75229,4
41643,75212,5
41634,75191,5
41641,75205,6
41632,75199,3
41635,75199,5
41641,75204,5
41636,75198,5
41639,75192,5
41632,75188,4
41626,75193,5
41635,75193,5
41634,75189,5
41626,75193,5
41630,75175,4
41610,75154,5
41576,75094,5
41547,75034,5
41525,74991,4
41495,74951,5
41466,74897,5
41444,74866,5
41432,74842,5
41417,74827,4
41415,74804,6
41405,74796,4
41402,74793,5
41400,74789,5
41391,74788,6
41396,74783,3
41389,74786,5
41406,74795,5
41382,74798,5
41404,74801,4
41404,74803,5
41399,74800,5
41371,74804,5
41404,74802,4
41395,74794,4
41399,74797,5
41385,74793,5
41394,74789,5
41394,74783,4
41393,74788,5
41406,74769,5
41385,74770,5
41388,74759,5
41383,74773,4
41409,74768,5
41381,74773,6
41383,74756,4
41379,74754,5
41398,74749,4
41370,74748,5
41356,74739,5
41356,74729,5
41360,74719,5
41357,74720,4
41342,74715,5
41344,74695,5
41342,74679,5
41336,74672,4
41325,74666,4
41312,74642,5
41306,74617,5
41305,74623,5
41295,74620,4
41295,74612,5
41281,74576,5
41291,74598,5
41280,74596,5
41274,74603,4
41278,74597,5
41281,74595,5
41284,74600,6
41285,74611,4
41280,74641,4
41296,74620,5
41301,74624,5
41293,74634,5
41302,74673,5
41303,74645,4
41312,74643,5
41308,74650,5
41301,74665,5
41316,74652,4
41312,74646,4
41311,74644,5
41295,74639,5
41282,74612,5
41282,74596,4
41266,74568,5
41259,74552,5
41237,74527,5
41241,74520,5
41236,74505,5
41233,74498,4
41223,74495,5
41235,74502,5
41225,74502,6
41236,74509,3
41243,74524,5
41245,74530,5
41245,74544,5
41259,74556,5
41264,74577,4
41269,74589,5
41281,74602,5
41284,74622,5
41300,74636,4
41306,74645,4
41304,74639,5
41299,74618,5
41268,74573,5
41257,74519,4
41222,74498,5
41207,74461,5
41181,74425,5
41166,74395,5
41154,74376,4
41150,74372,6
41133,74348,4
41127,74344,5
41130,74339,5
41131,74338,4
41127,74337,5
41126,74348,5
41136,74343,5
41139,74350,5
41140,74358,4
41151,74368,8
41149,74363,2
41151,74369,5
41143,74371,4
41129,74388,4
41146,74396,5
41147,74383,5
41152,74385,5
41152,74385,4
41157,74383,5
41148,74386,5
41159,74387,5
41154,74390,5
41154,74388,4
41158,74380,5
41155,74386,6
41160,74386,4
41157,74400,5
41168,74397,4
41166,74397,5
41163,74393,5
41156,74390,5
41159,74378,5
41156,74378,4
41154,74383,5
41155,74373,5
41156,74383,5
41150,74371,4
41154,74369,4
41146,74370,5
41144,74362,5
41139,74356,5
41136,74353,4
41138,74343,5
41125,74340,5
41129,74336,5
41130,74339,5
41130,74338,4
41123,74338,5
41119,74338,5
41128,74324,6
41131,74341,4
41126,74340,4
41112,74338,5
41133,74346,5
41133,74344,5
41141,74354,5
41112,74359,4
41137,74346,5
41140,74354,5
41135,74357,5
41134,74360,4
41139,74364,4
41140,74353,5
41143,74358,5
41154,74359,5
41127,74353,4
41133,74361,5
41137,74354,5
41165,74357,5
41135,74358,5
41136,74363,5
41128,74349,4
41153,74362,5
41129,74363,5
41129,74351,5
41133,74348,9
41127,74343,5
41077,74250,9
41077,74250,8
41072,74205,5
41060,74213,7
41046,74187,8
41059,74199,5
41046,74205,7
41050,74203,8
41050,74203,7
41043,74149,8
41036,74201,9
41051,74212,7
41066,74242,8
41066,74242,9
41085,74277,8
41072,74257,5
41061,74180,7
40970,74046,8
40970,74046,5
40938,74014,7
40924,73988,8
40918,73978,7
40894,73953,7
40877,73913,8
40877,73913,7
40879,73924,5
40871,73919,8
40892,73930,7
40881,73936,5
40847,73940,8
40886,73937,7
40889,73951,7
40889,73951,8
40876,73954,7
40888,73949,5
40879,73939,8
40882,73911,7
40889,73938,9
40889,73938,7
40885,73938,5
40896,73955,8
40888,73943,7
40894,73934,5
40890,73936,8
40893,73944,7
40893,73944,5
40890,73965,8
40894,73966,7
40886,73944,5
40903,73938,10
40903,73967,9
40903,73967,5
40905,73959,10
40909,73968,5
40898,73963,5
40889,73963,10
40902,73973,5
40918,73988,7
40918,73988,8
40925,74008,5
40922,74006,7
40923,74007,8
40922,74007,5
40930,73997,7
40941,74022,8
40941,74022,5
40937,74050,7
40942,74046,8
40938,74036,5
40944,74033,7
40946,74034,8
40948,74040,5
40942,74043,7
40942,74043,8
40939,74039,5
40931,74021,7
40919,74036,8
40941,74039,7
40905,73971,8
40905,73971,5
40922,73952,7
40856,73950,8
40881,73949,5
40885,73937,7
40892,73959,8
40893,73956,5
40906,73991,7
40906,73991,8
40923,73997,5
40912,74001,7
40958,74018,6
40934,74031,1
40930,74033,4
40932,74019,5
40948,74031,6
40940,74037,4
40938,74047,4
40950,74052,5
40951,74049,5
40947,74043,5
40934,74005,5
40913,73979,4
40895,73928,5
40878,73930,5
40872,73894,5
40846,73873,4
40844,73827,4
40836,73842,5
40830,73838,5
40827,73836,5
40833,73828,4
40829,73828,5
40820,73825,5
40816,73818,5
40827,73848,5
40827,73842,5
40834,73847,4
40836,73852,5
40836,73880,5
40827,73854,6
40828,73844,3
40832,73847,5
40826,73860,5
40826,73840,5
40830,73842,4
40826,73835,4
40834,73838,5
40824,73836,5
40828,73832,5
40822,73840,4
40827,73834,5
40822,73833,5
40835,73837,5
40838,73843,5
40835,73857,4
40832,73853,5
40830,73843,5
40830,73836,5
40829,73841,5
40818,73836,4
40832,73826,6
40827,73834,4
40831,73841,5
40826,73827,5
40827,73840,6
40823,73827,3
40817,73834,5
40817,73841,5
40822,73832,4
40822,73826,4
40827,73830,5
40814,73824,5
40813,73823,5
40810,73829,4
40821,73833,5
40813,73833,5
40812,73824,5
40815,73822,5
40817,73834,4
40816,73832,5
40814,73841,5
40824,73850,5
40823,73853,5
40837,73854,4
40831,73864,5
40842,73870,6
40841,73868,4
40847,73874,5
40838,73876,4
40854,73884,5
40846,73889,5
40860,73884,5
40855,73892,4
40856,73897,4
40862,73905,5
40863,73899,5
40869,73912,5
40865,73908,4
40863,73920,5
40872,73913,5
40877,73923,5
40871,73913,5
40870,73919,4
40865,73909,5
40871,73914,5
40869,73921,5
40875,73922,5
40875,73911,4
40873,73918,5
40861,73912,5
40864,73902,6
40863,73893,4
40852,73887,4
40846,73878,9
40850,73864,5
40847,73862,8
40835,73865,7
40835,73874,5
40855,73895,8
40855,73895,7
40820,73895,5
40863,73914,8
40866,73921,7
40869,73923,8
40850,73921,9
40850,73921,5
40878,73901,8
40876,73883,7
40857,73897,5
40840,73855,8
40827,73816,7
40807,73786,5
40795,73768,3
40778,73745,1
40780,73731,4
40768,73724,5
40763,73715,5
40783,73728,5
40759,73717,4
40754,73721,5
40752,73724,5
40789,73724,5
40756,73730,5
40772,73737,4
40763,73740,5
40785,73738,5
40773,73741,5
40761,73742,5
40770,73744,4
40773,73736,6
40772,73726,4
40761,73734,5
40764,73731,5
40759,73710,4
