RED,IR,EKG,TIME
32159,66818,183818
32159,66818,1
50620,101190,4
50600,101168,5
50582,101133,5
50572,101105,5
50554,101074,4
50534,101036,5
50510,101000,5
50495,100965,5
50483,100946,5
50469,100935,4
50473,100921,5
50468,100919,5
50476,100930,5
50466,100939,5
50467,100930,4
50475,100941,5
50483,100958,5
50486,100972,5
50498,100978,4
50503,100990,4
50496,100967,5
50465,100904,5
50417,100829,5
50393,100771,4
50356,100706,5
50324,100662,5
50305,100629,5
50297,100603,5
50268,100585,4
50274,100577,5
50275,100598,5
50287,100607,5
50301,100641,5
50321,100673,6
50348,100716,4
50367,100775,4
50401,100828,5
50435,100894,5
50464,100946,6
50498,101001,3
50526,101056,5
50556,101106,5
50594,101174,4
50621,101236,4
50644,101278,5
50685,101328,5
50713,101390,5
50738,101435,4
50768,101485,5
50790,101517,5
50805,101540,5
50813,101583,5
50838,101611,4
50850,101648,5
50861,101663,5
50867,101666,5
50860,101661,5
50865,101649,4
50861,101645,5
50861,101643,6
50849,101634,4
50847,101632,5
50826,101602,4
50834,101583,5
50820,101573,5
50808,101561,5
50804,101544,4
50781,101508,5
50762,101481,5
50751,101455,5
50743,101448,5
50738,101422,4
50739,101417,5
50732,101418,5
50722,101419,5
50733,101418,5
50730,101422,4
50748,101432,5
50743,101456,5
50760,101470,5
50738,101503,5
50785,101525,4
50795,101554,5
50800,101579,5
50739,101584,6
50821,101590,3
50811,101580,4
50815,101579,5
50723,101564,5
50794,101540,5
50785,101524,4
50777,101515,5
50766,101510,5
50750,101476,5
50754,101463,5
50741,101452,4
50817,101449,5
50745,101449,5
50745,101449,5
50736,101447,5
50845,101460,4
50746,101458,5
50749,101476,5
50754,101475,5
50820,101513,5
50779,101534,5
50791,101548,4
50791,101532,5
50776,101483,5
50731,101409,6
50698,101350,3
50650,101296,5
50622,101187,5
50599,101187,5
50578,101153,4
50565,101112,5
50558,101020,5
50552,101096,5
50554,101102,5
50554,101122,5
50569,101035,4
50571,101147,5
50584,101179,5
50594,101194,5
50606,101222,4
50615,101227,5
50624,101247,5
50629,101265,5
50648,101370,4
50653,101299,4
50669,101312,6
50677,101336,4
50681,101463,5
50689,101369,4
50705,101381,5
50708,101395,5
50724,101448,5
50710,101415,5
50717,101420,4
50729,101419,5
50731,101447,5
50741,101448,5
50730,101446,5
50733,101439,4
50731,101423,5
50720,101414,5
50716,101409,5
50711,101399,5
50707,101397,4
50707,101372,5
50690,101357,5
50679,101333,5
50663,101309,4
50642,101282,4
50628,101252,5
50603,101205,6
50580,101176,4
50570,101135,4
50549,101100,5
50534,101065,5
50508,101038,5
50497,101010,5
50482,100988,4
50472,100959,5
50462,100957,5
50455,100944,5
50451,100933,5
50450,100927,4
50451,100924,5
50440,100922,5
50444,100922,5
50443,100920,5
50440,100923,4
50439,100914,5
50443,100929,5
50436,100916,5
50442,100922,5
50434,100919,4
50443,100914,5
50439,100914,5
50439,100910,6
50442,100905,3
50436,100899,5
50434,100908,5
50440,100902,5
50432,100891,5
50422,100892,4
50423,100889,5
50407,100875,5
50420,100873,5
50402,100856,5
50399,100839,4
50386,100811,5
50365,100799,5
50349,100758,5
50321,100692,4
50296,100642,4
50250,100553,5
50190,100445,5
50121,100324,5
50055,100187,4
49985,100070,6
49913,99939,4
49844,99830,5
49799,99733,5
49751,99662,4
49722,99616,5
49699,99603,5
49709,99603,5
49722,99609,5
49715,99630,4
49725,99650,5
49751,99681,5
49763,99720,5
49777,99751,5
49804,99795,4
49825,99849,5
49858,99895,5
49878,99934,5
49889,99943,4
49868,99910,4
49850,99837,5
49802,99779,5
49787,99726,5
49750,99684,4
49683,99634,5
49703,99602,6
49686,99557,4
49668,99533,5
49584,99531,4
49666,99523,5
49662,99539,5
49674,99542,5
49605,99575,5
49697,99603,4
49710,99634,5
49737,99676,5
49783,99708,5
49778,99745,5
49803,99778,4
49825,99820,5
49930,99854,5
49865,99897,5
49881,99933,4
49902,99963,5
50020,100007,5
49942,100044,5
49955,100073,5
49976,100106,4
50018,100111,5
49999,100135,5
50002,100152,6
50018,100168,4
50023,100170,4
50027,100201,5
50047,100222,5
50045,100227,5
50051,100163,5
50045,100222,4
50044,100224,5
50051,100221,5
50040,100122,5
50033,100197,4
50031,100194,4
50017,100172,5
50020,100092,5
50011,100143,5
49998,100129,4
49992,100104,6
49963,100127,4
49968,100067,5
49953,100051,5
49941,100030,6
49936,100111,3
49925,99996,5
49913,99970,5
49904,99965,5
49899,100033,4
49893,99929,5
49894,99933,5
49886,99932,5
49880,99964,5
49888,99937,4
49893,99934,5
49883,99936,5
49893,99935,5
49887,99944,4
49888,99940,4
49892,99932,5
49881,99936,5
49879,99936,5
49890,99931,4
49888,99935,5
49890,99928,5
49890,99925,5
49884,99931,5
49877,99928,4
49876,99930,6
49876,99925,4
49881,99925,5
49880,99925,5
49873,99921,4
49874,99917,5
49866,99901,5
49859,99893,5
49854,99873,5
49830,99839,4
49804,99788,5
49772,99719,5
49741,99641,5
49688,99566,4
49639,99486,4
49604,99391,5
49549,99329,5
49507,99243,5
49486,99192,4
49457,99148,5
49437,99133,5
49430,99125,5
49434,99131,5
49435,99150,4
49447,99159,5
49454,99176,6
49468,99185,4
49474,99209,5
49484,99231,4
49503,99268,5
49527,99297,5
49529,99327,5
49544,99326,5
49524,99288,4
49501,99236,5
49465,99188,5
49450,99158,5
49437,99129,4
49424,99100,4
49413,99101,5
49409,99083,5
49404,99070,5
49390,99072,4
49398,99087,5
49417,99103,5
49418,99118,5
49439,99147,5
49452,99180,4
49472,99213,5
49502,99257,5
49511,99284,5
49538,99330,5
49557,99357,4
49568,99402,5
49588,99438,5
49607,99473,5
49640,99511,5
49649,99538,4
49680,99585,5
49691,99610,5
49719,99653,5
49732,99670,4
49746,99706,5
49753,99726,5
49770,99742,5
49780,99758,5
49793,99788,4
49807,99812,5
49820,99832,4
49810,99832,5
49814,99832,5
49815,99837,6
49813,99828,3
49756,99830,5
49817,99814,5
49808,99808,5
49804,99807,4
49712,99785,5
49804,99789,5
49793,99772,5
49779,99753,4
49717,99737,4
49769,99728,5
49756,99710,5
49747,99687,5
49784,99663,4
49727,99647,5
49719,99640,5
49708,99617,5
49790,99610,5
49692,99602,4
49695,99600,5
49688,99600,6
49770,99610,4
49694,99604,5
49698,99605,4
49707,99617,7
49728,99618,3
49701,99627,5
49697,99629,5
49707,99633,4
49704,99608,5
49708,99639,5
49717,99644,5
49717,99649,4
49723,99587,4
49718,99654,5
49733,99676,5
49727,99666,5
49729,99583,4
49733,99677,5
49742,99670,5
49729,99685,5
49738,99655,5
49737,99683,4
49730,99677,5
49721,99655,5
49727,99722,6
49726,99655,4
49727,99656,4
49725,99643,5
49723,99744,5
49716,99648,5
49713,99637,5
49709,99626,4
49697,99672,5
49693,99591,5
49672,99558,5
49652,99522,4
49626,99486,4
49596,99414,5
49558,99352,5
49538,99306,5
49501,99247,4
49471,99203,5
49444,99152,5
49430,99130,5
49411,99087,5
49412,99089,5
49413,99097,4
49414,99093,5
49422,99116,5
49430,99136,6
49438,99148,3
49450,99176,5
49458,99197,5
49466,99217,5
49479,99249,5
49502,99278,4
49520,99293,5
49510,99288,5
49499,99237,5
49465,99199,4
49454,99165,4
49441,99162,5
49428,99132,5
49421,99111,5
49420,99121,4
49416,99110,5
49423,99120,5
49428,99122,5
49430,99131,5
49442,99157,4
49452,99186,6
49473,99228,4
49506,99282,5
49538,99333,5
49561,99381,4
49601,99452,5
49625,99504,5
49657,99565,5
49693,99625,5
49723,99685,4
49755,99731,5
49780,99782,5
49818,99835,5
49844,99884,4
49868,99924,5
49880,99967,5
49910,99989,5
49925,100024,5
49935,100054,4
49948,100067,5
49960,100087,5
49968,100116,5
49993,100135,5
49989,100137,4
49984,100144,5
49986,100137,6
49980,100126,4
49978,100108,5
49975,100114,4
49967,100095,5
49957,100073,5
49947,100049,5
49930,100030,4
49916,100011,4
49911,99990,5
49893,99965,5
49882,99942,5
49871,99908,4
49858,99895,5
49844,99882,5
49830,99847,5
49813,99828,5
49797,99796,4
49797,99780,5
49786,99772,5
49778,99770,5
49785,99759,5
49786,99769,4
49790,99784,5
49797,99789,5
49794,99790,6
49766,99804,4
49806,99805,4
49810,99815,5
49803,99818,5
49743,99819,5
49815,99828,4
49818,99833,4
49820,99835,5
49730,99830,5
49823,99833,5
49813,99826,4
49823,99818,5
49820,99810,5
49806,99807,5
49796,99787,5
49787,99777,4
49866,99770,5
49785,99755,5
49766,99739,5
49768,99727,5
49853,99706,5
49748,99695,4
49742,99680,5
49730,99682,5
49765,99645,5
49701,99612,4
49696,99575,5
49652,99539,5
49641,99467,5
49607,99395,4
49558,99329,5
49519,99274,5
49476,99146,5
49456,99156,5
49433,99112,4
49412,99083,5
49386,98975,5
49385,99051,5
49394,99060,5
49398,99061,5
49408,99008,4
49415,99089,5
49413,99121,5
49429,99126,5
49441,99170,4
49436,99148,6
49442,99146,4
49455,99161,5
49456,99271,4
49456,99164,4
49442,99134,5
49402,99062,5
49388,99111,5
49354,98982,4
49348,98953,5
49332,98929,5
49317,98947,5
49315,98918,5
49310,98925,4
49327,98924,5
49331,98945,5
49335,98962,5
49350,98965,5
49367,99003,4
49387,99029,5
49402,99087,5
49430,99126,5
49465,99181,5
49495,99233,4
49506,99276,5
49535,99315,6
49561,99356,4
49584,99397,4
49597,99426,5
49624,99459,5
49639,99491,5
49660,99532,5
49685,99579,4
49701,99611,5
49730,99644,5
49749,99674,5
49756,99697,5
49769,99717,4
49789,99757,5
49793,99772,5
49796,99781,5
49808,99785,5
49803,99793,4
49806,99788,5
49814,99791,5
49802,99786,5
49793,99776,5
49794,99762,4
49780,99750,5
49765,99729,5
49766,99715,5
49750,99692,4
49740,99659,5
49726,99641,5
49710,99608,5
49700,99595,5
49685,99574,4
49681,99556,5
49668,99552,5
49668,99539,5
49668,99541,5
49665,99547,4
49673,99543,5
49671,99558,5
49676,99579,5
49683,99582,5
49697,99593,4
49705,99617,5
49724,99613,5
49713,99637,5
49730,99650,4
49726,99661,6
49726,99657,4
49730,99667,5
49732,99673,5
49746,99666,4
49745,99694,5
49746,99700,5
49749,99701,5
49752,99700,5
49759,99700,4
49752,99713,5
49753,99700,5
49751,99709,5
49761,99706,5
49757,99698,4
49755,99701,5
49758,99704,5
49751,99696,5
49741,99686,4
49736,99672,4
49717,99648,5
49706,99617,5
49690,99586,5
49662,99549,4
49651,99498,5
49592,99450,6
49590,99408,4
49566,99356,5
49537,99320,4
49453,99280,5
49505,99261,5
49502,99234,5
49495,99231,5
49407,99221,4
49497,99235,5
49497,99257,5
49504,99269,5
49508,99280,5
49524,99297,4
49534,99318,5
49548,99330,5
49631,99356,5
49569,99376,4
49567,99360,4
49550,99327,5
49611,99271,5
49495,99247,5
49481,99219,4
49480,99202,5
49521,99191,5
49467,99187,5
49464,99175,5
49474,99192,4
49486,99198,5
49480,99212,5
49494,99252,5
49510,99267,5
49527,99262,4
49559,99372,5
49586,99412,5
49610,99451,5
49635,99423,4
49661,99547,4
49693,99602,5
49711,99644,5
49741,99601,5
49770,99726,4
49795,99787,5
49821,99832,5
49839,99899,5
49856,99912,5
49881,99936,5
49888,99968,3
49904,100069,5
49914,99996,5
49928,100017,5
49930,100029,4
49948,100147,5
49947,100053,5
49951,100050,5
49939,100035,5
49938,100085,4
49941,100039,5
49931,100027,5
49919,100019,5
49921,100004,4
49920,99984,4
49907,99968,5
49885,99949,5
49881,99924,5
49868,99916,4
49866,99883,5
49841,99867,6
49832,99866,4
49830,99846,5
49830,99834,4
49819,99825,7
49823,99823,3
49814,99826,5
49819,99829,5
49822,99827,4
49822,99839,5
49832,99856,5
49834,99861,5
49857,99870,5
49864,99900,4
49866,99921,5
49890,99953,5
49904,99978,5
49913,99986,4
49921,100014,5
49934,100033,5
49942,100045,5
49952,100059,5
49950,100064,4
49956,100080,5
49969,100083,5
49957,100084,6
49968,100090,4
49959,100080,4
49959,100067,5
49939,100040,5
49930,100007,5
49911,99974,5
49897,99949,4
49881,99916,5
49867,99897,5
49858,99889,5
49844,99858,4
49843,99861,4
49846,99862,5
49844,99870,5
49851,99878,5
49862,99898,4
49872,99917,5
49865,99920,5
49881,99935,5
49884,99940,5
49890,99942,5
49888,99953,4
49900,99968,5
49904,99964,5
49895,99934,6
49852,99876,3
49831,99828,5
49801,99781,5
49774,99747,5
49773,99727,5
49750,99699,4
49741,99694,5
49748,99695,5
49764,99714,5
49771,99730,4
49796,99763,4
49813,99812,5
49842,99860,5
49882,99935,5
49915,100002,4
49951,100066,5
49991,100134,5
50026,100204,5
50064,100272,5
50094,100339,4
50135,100394,6
50160,100457,4
50189,100503,5
50209,100548,5
50245,100592,6
50266,100619,3
50282,100656,5
50239,100689,5
50307,100717,5
50330,100753,4
50339,100770,5
50279,100805,5
50385,100842,5
50389,100855,4
50398,100846,5
50341,100851,5
50385,100843,5
50383,100834,5
50388,100831,4
50436,100826,5
50375,100814,5
50365,100801,5
50354,100780,5
50445,100750,4
50324,100722,5
50304,100686,6
50285,100657,4
50359,100625,5
50270,100614,4
50264,100605,5
50260,100609,5
50291,100609,5
50264,100613,4
50273,100622,4
50277,100634,5
50287,100620,5
50290,100664,5
50304,100691,4
50322,100724,5
50336,100684,5
50349,100792,5
50372,100832,5
50394,100856,4
50413,100797,5
50425,100919,5
50443,100952,5
50467,100986,5
50470,100980,4
50484,101015,5
50487,101020,5
50474,101011,6
50479,101069,4
50464,100968,4
50463,100957,5
50437,100929,5
50426,101014,5
50418,100890,4
50411,100882,5
50405,100861,5
50408,100930,5
50406,100874,5
50410,100879,4
50412,100875,5
50423,100908,5
50417,100896,5
50424,100909,5
50435,100925,4
50436,100944,5
50443,100949,5
50450,100968,5
50455,100957,5
50434,100904,5
50395,100836,4
50367,100782,5
50336,100725,5
50306,100685,4
50288,100654,4
50271,100626,5
50270,100619,8
50270,100611,2
50263,100628,4
50282,100650,5
50297,100670,5
50314,100702,5
50339,100730,5
50359,100780,4
50385,100831,5
50407,100887,5
50438,100934,5
50463,100986,5
50499,101041,4
50527,101100,5
50562,101152,5
50585,101216,5
50631,101276,5
50658,101320,4
50685,101381,6
50715,101423,4
50731,101457,5
50751,101494,4
50770,101518,4
50786,101552,5
50806,101583,5
50834,101633,5
50848,101653,4
50850,101677,5
50856,101686,5
50863,101684,5
50863,101697,5
50869,101714,4
50880,101724,5
50878,101739,5
50896,101735,5
50893,101749,5
50891,101740,4
50894,101742,5
50883,101739,5
50879,101705,5
50862,101688,5
50851,101664,4
50843,101650,5
50834,101647,7
50826,101633,3
50829,101629,4
50819,101630,5
50820,101623,5
50833,101630,5
50833,101639,5
50839,101635,4
50838,101650,5
50839,101673,5
50855,101682,5
50870,101703,5
50878,101728,4
50895,101734,5
50896,101754,5
50893,101756,5
50901,101758,5
50899,101750,4
50891,101748,5
50888,101732,5
50878,101717,5
50865,101703,5
50862,101676,4
50839,101650,5
50816,101600,5
50785,101550,5
50758,101483,4
50668,101426,5
50682,101360,5
50640,101293,5
50613,101233,5
50502,101178,4
50562,101140,5
50533,101101,5
50527,101072,5
50416,101042,5
50490,101019,4
50483,100995,5
50461,100983,5
50483,100970,5
50468,100984,5
50474,100984,4
50466,100981,6
50533,100923,4
50391,100831,5
50344,100728,4
50302,100648,5
50353,100589,4
50215,100514,5
50186,100453,5
50153,100407,4
50175,100370,5
50119,100329,5
50105,100306,5
50088,100297,5
50096,100293,4
50093,100289,5
50095,100292,5
50098,100308,5
50111,100262,5
50112,100341,4
50123,100371,5
50130,100381,5
50144,100311,5
50155,100414,5
50179,100442,4
50180,100461,5
50191,100411,5
50196,100497,5
50221,100529,4
50220,100541,6
50235,100613,5
50251,100571,4
50242,100574,5
50251,100589,4
50255,100707,5
50275,100621,5
50273,100616,5
50269,100614,5
50270,100689,4
50264,100607,5
50261,100607,5
50261,100599,5
50259,100608,5
50245,100571,4
50241,100570,5
50238,100550,5
50219,100536,5
50219,100516,4
50209,100505,4
50196,100483,5
50179,100445,5
50165,100423,5
50146,100400,4
50141,100380,5
50126,100363,5
50119,100343,5
50117,100323,5
50103,100315,4
50098,100297,5
50095,100291,5
50087,100287,5
50095,100286,5
50090,100289,4
50087,100289,5
50090,100303,5
50091,100292,5
50091,100309,5
50105,100300,4
50101,100310,5
50098,100315,5
50102,100304,5
50098,100312,4
50097,100326,5
50100,100308,5
50101,100308,5
50103,100312,5
50105,100310,5
50099,100316,4
50104,100318,5
50102,100310,5
50095,100307,5
50100,100302,4
50106,100295,5
50092,100306,5
50085,100296,5
50074,100286,5
50083,100284,4
50079,100277,5
50078,100262,5
50062,100254,5
50058,100240,4
50052,100222,4
50039,100204,5
50028,100161,5
49995,100117,5
49958,100037,4
49901,99947,5
49848,99849,5
49790,99728,4
49719,99634,5
49664,99520,4
49611,99413,7
49559,99342,3
49522,99271,5
49503,99228,5
49490,99219,4
49484,99222,5
49493,99235,5
49502,99247,5
49500,99258,5
49521,99280,4
49528,99301,5
49541,99336,5
49560,99369,5
49577,99401,4
49617,99447,5
49633,99488,5
49645,99503,5
49643,99491,5
49607,99435,4
49574,99376,5
49550,99326,5
49526,99287,6
49510,99244,4
49495,99209,4
49476,99186,5
49455,99165,5
49419,99154,5
49459,99155,5
49449,99157,4
49459,99171,5
49393,99188,5
49486,99215,5
49501,99237,4
49511,99272,4
49446,99299,5
49557,99334,5
49573,99381,5
49588,99405,4
49603,99441,5
49634,99474,5
49656,99512,5
49670,99558,5
49769,99589,5
49702,99623,4
49723,99654,5
49743,99671,5
49847,99708,6
49767,99720,3
49778,99746,5
49784,99745,5
49839,99762,5
49794,99786,5
49817,99810,4
49820,99820,5
49831,99831,5
49830,99823,5
49822,99839,4
49827,99830,5
49831,99777,5
49823,99814,5
49812,99812,5
49812,99809,4
49820,99712,5
49810,99792,5
49808,99776,5
49790,99758,5
49777,99656,4
49777,99720,6
49763,99699,4
49740,99676,5
49737,99692,5
49735,99630,6
49714,99619,3
49699,99599,5
49694,99673,5
49680,99576,4
49685,99569,4
49678,99557,5
49666,99635,5
49678,99543,5
49680,99554,4
49675,99551,5
49684,99591,5
49676,99565,5
49680,99565,5
49681,99580,4
49689,99584,5
49688,99584,5
49698,99598,5
49700,99604,5
49696,99603,4
49702,99597,5
49706,99605,6
49708,99605,4
49715,99610,5
49708,99609,4
49701,99611,5
49708,99608,5
49705,99612,5
49703,99608,4
49704,99597,5
49697,99599,5
49697,99591,5
49700,99592,5
49692,99581,4
49692,99567,5
49684,99574,5
49686,99560,5
49681,99543,5
49669,99534,4
49659,99534,5
49649,99515,5
49651,99487,5
49645,99489,5
49628,99465,4
49624,99448,5
49625,99435,5
49599,99414,6
49593,99404,3
49583,99384,4
49571,99366,5
49565,99360,5
49557,99344,5
49546,99312,4
49532,99292,5
49517,99254,5
49488,99226,5
49466,99174,5
49425,99086,4
49378,98997,5
49327,98918,5
49280,98834,5
49236,98748,5
49198,98666,4
49156,98595,5
49121,98556,5
49103,98511,5
49092,98505,5
49099,98510,5
49110,98528,4
49118,98549,5
49122,98577,5
49136,98601,4
49164,98632,5
49173,98664,5
49195,98713,5
49223,98735,5
49248,98780,4
49262,98816,5
49269,98816,5
49251,98781,5
49223,98723,5
49202,98682,4
49176,98647,5
49167,98616,5
49156,98610,5
49144,98582,5
49139,98571,4
49139,98582,5
49129,98584,5
49143,98596,5
49146,98615,4
49170,98633,4
49188,98677,6
49201,98715,4
49230,98746,5
49252,98790,4
49252,98838,5
49297,98874,5
49321,98916,5
49336,98947,5
49290,98990,4
49386,99024,5
49404,99075,5
49430,99119,5
49360,99159,5
49472,99193,4
49493,99229,5
49509,99255,5
49500,99278,5
49540,99304,5
49540,99330,4
49553,99343,5
49627,99356,5
49581,99374,5
49588,99408,4
49603,99412,4
49699,99417,5
49598,99426,6
49599,99434,4
49606,99422,4
49663,99423,5
49601,99425,5
49596,99413,5
49596,99409,5
49607,99387,4
49585,99381,5
49569,99373,5
49569,99340,5
49552,99276,5
49536,99306,4
49521,99270,5
49514,99253,5
49497,99157,5
49495,99207,5
49475,99189,4
49465,99180,5
49458,99075,5
49458,99163,5
49461,99170,5
49454,99175,4
49474,99186,4
49470,99174,5
49474,99180,5
49481,99182,4
49477,99275,5
49486,99204,5
49486,99214,5
49481,99213,5
49488,99316,4
49491,99226,5
49490,99231,5
49495,99230,5
49506,99281,5
49502,99235,4
49497,99243,5
49506,99235,5
49512,99261,5
49505,99255,4
49514,99251,4
49507,99256,5
49511,99256,5
49505,99265,5
49504,99248,6
49508,99244,5
49505,99243,3
49509,99230,5
49511,99233,5
49504,99222,4
49494,99214,5
49485,99220,5
49478,99203,5
49484,99194,5
49476,99197,4
49464,99168,5
49457,99146,5
49440,99111,5
49407,99057,5
49381,99011,4
49347,98943,5
49306,98866,5
49270,98805,5
49239,98738,4
49203,98683,5
49179,98631,5
49162,98611,5
49146,98585,5
49148,98574,4
49141,98586,5
49150,98607,6
49158,98621,4
49177,98644,5
49188,98661,4
49194,98691,5
49209,98712,5
49222,98729,5
49238,98747,5
49235,98763,4
49248,98797,5
49258,98798,5
49243,98777,5
49227,98729,4
49213,98697,4
49202,98675,5
49189,98668,5
49187,98649,5
49175,98632,4
49173,98630,5
49172,98643,5
49188,98646,5
49190,98658,5
49199,98689,4
49220,98717,5
49245,98762,5
49266,98804,5
49285,98854,5
49316,98907,4
49344,98957,5
49374,99016,5
49405,99066,5
49438,99115,5
49456,99156,4
49478,99207,5
49505,99243,5
49532,99298,5
49548,99327,4
49575,99368,4
49591,99402,5
49605,99424,5
49617,99449,5
49629,99455,4
49633,99477,5
49652,99501,5
49648,99510,5
49659,99529,5
49670,99517,5
49661,99508,4
49650,99507,5
49640,99501,5
49641,99480,5
49636,99461,4
49626,99445,5
49558,99432,5
49604,99399,5
49588,99375,5
49574,99358,4
49469,99322,5
49532,99290,5
49521,99258,5
49501,99231,4
49423,99203,5
49484,99177,5
49467,99154,5
49454,99134,5
49471,99104,4
49427,99091,5
49426,99078,5
49417,99074,5
49512,99081,5
49414,99089,4
49422,99084,6
49420,99098,3
49506,99104,5
49439,99112,5
49437,99120,4
49435,99121,5
49477,99131,5
49444,99139,5
49455,99144,4
49459,99139,4
49460,99130,5
49465,99156,5
49455,99161,5
49452,99160,4
49466,99087,5
49465,99146,5
49455,99153,5
49461,99145,5
49454,99050,4
49448,99132,5
49451,99134,5
49445,99125,6
49443,99069,4
49437,99115,4
49433,99103,5
49434,99098,5
49426,99139,5
49424,99087,5
49412,99083,4
49413,99056,5
49402,99134,5
49389,99021,5
49384,98995,4
49350,98957,4
49332,98971,5
49292,98849,5
49265,98789,5
49233,98721,4
49195,98679,5
49164,98606,5
49135,98555,5
49117,98517,5
49097,98502,5
49092,98487,4
49093,98497,5
49097,98499,5
49112,98519,6
49113,98529,3
49120,98557,5
49137,98579,5
49142,98598,5
49151,98607,5
49157,98612,4
49168,98635,5
49172,98651,5
49189,98666,5
49191,98657,4
49165,98625,5
49137,98575,5
49116,98529,5
49106,98509,5
49091,98495,4
49085,98476,5
49078,98456,5
49078,98458,5
49077,98461,5
49089,98477,4
49097,98505,6
49124,98545,4
49137,98590,5
49156,98643,5
49194,98699,6
49229,98755,3
49268,98828,5
49297,98870,5
49330,98942,4
49373,99003,4
49393,99061,5
49418,99095,5
49453,99152,5
49472,99196,4
49495,99231,5
49513,99260,5
49537,99297,5
49546,99317,5
49553,99346,4
49567,99363,5
49579,99373,5
49577,99389,5
49594,99401,5
49594,99412,4
49601,99410,5
49585,99400,6
49592,99391,4
49593,99392,5
49595,99395,4
49586,99384,5
49585,99365,5
49580,99375,5
49569,99359,4
49564,99347,4
49563,99340,5
49550,99315,5
49549,99304,5
49529,99282,4
49514,99263,5
49506,99248,5
49498,99232,5
49489,99211,5
49489,99193,4
49472,99190,5
49477,99191,5
49472,99183,5
49475,99194,5
49483,99199,4
49482,99196,5
49487,99226,5
49499,99244,6
49512,99251,4
49520,99273,4
49532,99289,5
49543,99311,5
49553,99336,5
49539,99353,4
49573,99368,5
49584,99389,5
49583,99400,5
49528,99415,5
49608,99420,4
49608,99438,5
49615,99451,5
49537,99455,5
49630,99461,5
49630,99475,4
49639,99482,5
49605,99480,5
49635,99472,5
49635,99467,5
49621,99459,5
49688,99447,4
49601,99415,5
49592,99382,5
49574,99367,6
49654,99331,3
49537,99279,5
49516,99258,5
49496,99211,5
49543,99184,4
49459,99169,5
49457,99140,5
49455,99143,5
49470,99145,5
49463,99147,4
49466,99168,5
49468,99172,5
49468,99147,5
49478,99199,5
49494,99218,4
49501,99234,5
49503,99165,5
49508,99247,5
49513,99232,5
49477,99190,4
49456,99042,6
49427,99099,4
49412,99062,5
49398,99041,5
49398,99035,4
49398,99031,5
49395,99038,5
49408,99063,5
49419,99182,4
49450,99142,5
49471,99202,5
49518,99276,5
49564,99459,5
49607,99447,4
49660,99528,5
49704,99633,5
49764,99776,5
49829,99837,5
49890,99949,4
49942,100048,5
49998,100155,5
50050,100239,5
50104,100328,5
50148,100402,4
50188,100483,5
50224,100550,6
50259,100606,4
50280,100662,4
50321,100704,5
50341,100747,5
50368,100796,5
50386,100845,5
50405,100869,4
50423,100881,5
50422,100876,5
50410,100875,5
50414,100879,5
50410,100869,4
50402,100863,5
50399,100849,5
50406,100848,5
50398,100832,5
50383,100807,4
50368,100783,5
50346,100755,5
50327,100728,5
50311,100695,5
50290,100665,4
50287,100635,5
50269,100620,5
50271,100606,5
50262,100617,4
50261,100606,5
50269,100619,5
50265,100627,5
50276,100641,5
50282,100653,4
50293,100679,5
50311,100701,5
50338,100729,5
50347,100765,5
50368,100807,4
50380,100836,5
50392,100869,5
50416,100894,5
50428,100911,5
50433,100924,4
50449,100950,5
50457,100943,5
50452,100956,5
50449,100939,4
50447,100935,5
50441,100921,4
50433,100899,5
50424,100886,5
50412,100864,4
50407,100857,5
50399,100853,5
50403,100846,5
50393,100847,5
50400,100851,4
50397,100853,5
50406,100852,5
50402,100854,5
50409,100858,5
50404,100859,4
50411,100870,5
50416,100868,5
50411,100871,5
50400,100847,5
50370,100784,4
50322,100707,5
50288,100622,5
50249,100560,5
50214,100500,4
50188,100462,5
50169,100411,6
50152,100395,4
50143,100380,5
50147,100388,4
50149,100403,5
50158,100427,5
50182,100458,5
50210,100503,5
50233,100552,4
50206,100596,5
50293,100651,5
50331,100720,5
50363,100794,5
50316,100859,4
50435,100927,5
50468,100992,5
50515,101049,5
50455,101110,4
50581,101169,4
50603,101208,5
50617,101250,5
50662,101292,5
50665,101316,4
50678,101347,5
50697,101396,5
50811,101440,5
50749,101492,5
50774,101518,4
50773,101531,5
50879,101540,5
50790,101542,5
50788,101554,5
50791,101558,4
50832,101543,5
50788,101544,5
50785,101538,5
50781,101536,5
50783,101528,4
50770,101514,5
50764,101503,5
50754,101494,5
50754,101423,4
50751,101485,4
50758,101488,5
50753,101501,5
50769,101436,5
50777,101546,5
50804,101591,4
50828,101653,5
50867,101638,5
50925,101833,5
50986,101951,4
51054,102076,5
51135,102245,5
51208,102351,5
51267,102453,5
51327,102550,4
51367,102735,5
51403,102702,5
51437,102758,5
51466,102806,5
51509,102987,4
51545,102953,5
51562,102986,5
51578,103027,5
51599,103109,4
51628,103107,5
51661,103172,5
51696,103251,5
51768,103363,5
51812,103451,4
51861,103538,6
51895,103607,4
51927,103670,5
51970,103757,5
52032,103886,4
52114,104015,5
52175,104126,5
52221,104207,5
52241,104238,5
52235,104224,4
52222,104189,5
52209,104177,5
52204,104174,5
52206,104179,4
52207,104167,4
52199,104185,5
52218,104187,5
52213,104201,5
52226,104207,4
52234,104241,5
52264,104294,5
52305,104381,6
52346,104445,4
52379,104507,4
52413,104594,5
52456,104667,5
52501,104747,5
52517,104782,5
52538,104820,4
52583,104881,5
52602,104926,5
52635,104969,5
52654,104992,5
52668,105034,4
52681,105074,5
52713,105109,5
52753,105207,5
52787,105268,4
52820,105300,4
52821,105297,5
52817,105320,5
52819,105315,5
52821,105302,5
52811,105293,4
52826,105320,5
52849,105362,5
52891,105430,6
52922,105486,3
52933,105527,5
52965,105565,5
52968,105566,5
52959,105569,5
52963,105569,4
52967,105566,5
52955,105534,5
52937,105501,5
52918,105471,5
52895,105431,4
52861,105370,5
52831,105305,5
52802,105256,5
52781,105220,4
52780,105222,4
52755,105176,5
52726,105128,5
52702,105052,5
52661,104988,4
52620,104921,6
52596,104857,4
52582,104828,5
52581,104816,5
52565,104801,6
52553,104788,3
52544,104766,5
52518,104703,5
52468,104588,5
52402,104480,4
52341,104375,5
52295,104290,5
52260,104221,5
52210,104158,5
52202,104109,4
52181,104069,5
52090,104033,5
52139,103997,5
52109,103957,4
52095,103915,5
51989,103906,5
52067,103893,5
52061,103864,5
52056,103846,4
51946,103819,5
52007,103750,6
51941,103643,4
51902,103563,5
51881,103476,4
51822,103415,5
51793,103364,5
51774,103319,5
51834,103268,5
51716,103219,4
51687,103175,5
51663,103122,5
51730,103085,5
51610,103051,4
51591,103014,4
51584,102976,5
51606,102960,5
51556,102940,5
51557,102931,4
51555,102932,5
51562,102912,5
51561,102929,5
51551,102939,5
51554,102933,4
51552,102871,5
51545,102942,5
51559,102929,6
51564,102943,4
51547,102841,4
51546,102936,5
51544,102923,5
51561,102924,5
51551,102887,5
51564,102953,4
51560,102962,5
51566,102942,5
51555,102972,5
51538,102915,4
51539,102905,4
51535,102889,5
51520,102963,5
51501,102836,5
51494,102811,4
51471,102785,5
51455,102838,5
51439,102710,5
51419,102676,5
51394,102633,5
51374,102607,4
51335,102532,5
51315,102480,5
51277,102426,6
51267,102388,3
51235,102337,5
51214,102277,5
51171,102238,5
51157,102196,5
51136,102164,4
51109,102116,5
51102,102082,5
51079,102056,5
51057,102031,4
51044,101994,5
51038,101974,5
51022,101959,5
51012,101923,5
50997,101913,4
50978,101876,5
50977,101866,5
50962,101836,5
50939,101818,5
50935,101796,4
50929,101794,6
50914,101767,4
50907,101760,5
50902,101735,5
50899,101722,4
50877,101688,5
50865,101667,5
50850,101635,5
50832,101586,4
50801,101540,4
50761,101467,5
50719,101370,5
50662,101279,5
50610,101165,4
50547,101052,5
50477,100933,5
50415,100807,5
50354,100709,5
50295,100617,4
50269,100559,5
50248,100529,5
50238,100526,5
50234,100518,5
50235,100527,4
50251,100539,5
50260,100566,6
50272,100592,4
50288,100625,5
50307,100656,4
50332,100701,5
50355,100740,5
50370,100783,5
50389,100788,4
50365,100740,4
50339,100687,5
50309,100638,5
50287,100592,5
50265,100552,4
50232,100498,5
50218,100458,5
50202,100419,5
50177,100397,5
50162,100374,4
50161,100362,5
50147,100352,5
50153,100363,5
50159,100375,5
50165,100383,4
50172,100392,5
50182,100424,5
50191,100432,6
50208,100468,4
50228,100488,4
50234,100512,5
50253,100547,5
50264,100569,5
50287,100601,4
50306,100635,4
50324,100669,5
50344,100707,5
50353,100724,5
50356,100754,4
50386,100774,5
50388,100788,5
50399,100806,5
50346,100826,5
50426,100842,4
50427,100861,5
50434,100870,5
50347,100870,5
50430,100876,5
50442,100880,5
50444,100884,4
50389,100878,5
50435,100875,5
50441,100873,5
50427,100866,4
50476,100857,5
50423,100852,5
50412,100830,5
50410,100834,4
50499,100804,5
50389,100779,5
50384,100756,5
50362,100741,5
50417,100707,4
50335,100678,5
50325,100657,5
50292,100601,5
50297,100595,5
50264,100568,4
50268,100566,5
50256,100541,6
50246,100510,4
50243,100514,5
50245,100516,4
50233,100518,6
50230,100441,3
50236,100523,5
50228,100504,4
50234,100515,4
50231,100414,5
50238,100505,5
50239,100515,5
50231,100522,5
50241,100495,4
50242,100530,5
50241,100526,5
50242,100529,5
50239,100589,4
50234,100520,5
50240,100516,5
50237,100526,5
50236,100628,5
50241,100519,4
50241,100516,5
50236,100522,5
50236,100568,5
50218,100497,5
50213,100465,4
50186,100422,5
50155,100368,6
50117,100288,4
50087,100208,4
50026,100122,4
49977,100042,5
49941,99954,5
49890,99871,5
49857,99811,4
49828,99766,5
49813,99742,5
49805,99721,5
49807,99731,5
49802,99743,4
49817,99759,5
49820,99765,5
49841,99803,5
49847,99823,5
49867,99844,4
49884,99878,5
49901,99917,5
49935,99960,5
49946,100004,5
49954,100000,4
49928,99961,5
49909,99897,5
49879,99858,5
49852,99822,4
49839,99777,4
49819,99749,5
49797,99722,5
49798,99712,5
49781,99702,4
49787,99697,5
49794,99703,5
49790,99702,5
49792,99716,5
49803,99731,4
49816,99748,5
49830,99779,5
49838,99804,5
49851,99836,5
49867,99858,4
49883,99878,5
49897,99913,5
49904,99929,5
49931,99954,5
49926,99987,5
49950,100013,4
49968,100039,5
49993,100078,5
49998,100093,4
50012,100122,5
50025,100140,5
50041,100163,5
50047,100177,5
50053,100196,4
50071,100219,5
50087,100236,5
50086,100247,5
50083,100243,5
50094,100257,4
50085,100257,5
50082,100258,5
50085,100241,5
50078,100252,5
50081,100241,4
50089,100247,5
50078,100238,5
50074,100221,4
50062,100211,5
50066,100203,4
50052,100184,6
50041,100169,3
50030,100149,5
50017,100126,4
50014,100118,4
49989,100085,5
49984,100075,5
49985,100074,5
49980,100054,4
49980,100046,5
49964,100044,5
49971,100041,5
49974,100057,5
49983,100056,4
49963,100060,5
49981,100063,5
49990,100076,5
49989,100083,5
49928,100088,4
49996,100091,5
50002,100094,5
49997,100112,6
49917,100101,4
50005,100105,4
50002,100119,5
50009,100115,5
49975,100132,5
50015,100139,4
50027,100142,4
50021,100146,5
50074,100161,5
50031,100158,5
50039,100158,4
50039,100162,5
50137,100165,5
50042,100167,5
50042,100171,5
50041,100166,4
50119,100164,5
50041,100166,5
50044,100164,5
50042,100169,5
50069,100166,5
50039,100161,4
50040,100164,5
50041,100171,5
50038,100143,6
50042,100168,3
50040,100169,5
50035,100168,5
50032,100082,5
50025,100146,4
50028,100138,4
50013,100123,8
50017,100032,2
49996,100117,5
50009,100119,4
50008,100108,5
50007,100061,5
49983,100075,5
49967,100030,5
49954,99990,5
49918,99995,4
49884,99892,5
49853,99823,5
49833,99764,5
49792,99805,4
49764,99668,6
49751,99630,4
49726,99590,5
49718,99647,5
49708,99568,6
49707,99573,3
49715,99582,5
49709,99617,5
49712,99590,4
49730,99606,4
49734,99632,5
49744,99655,5
49762,99672,5
49772,99703,4
49795,99719,5
49786,99704,5
49766,99644,5
49736,99609,5
49719,99571,4
49704,99543,5
49694,99529,5
49687,99519,5
49677,99513,5
49681,99512,4
49667,99507,5
49672,99516,6
49690,99530,4
49686,99549,5
49698,99564,4
49719,99595,5
49743,99625,5
49755,99674,5
49785,99705,4
49791,99736,4
49817,99765,5
49835,99792,5
49850,99824,5
49859,99860,4
49881,99884,5
49899,99905,5
49907,99939,5
49930,99974,5
49936,99995,4
49958,100013,5
49969,100046,5
49982,100062,5
49998,100076,5
50000,100086,4
50009,100103,5
50023,100128,5
50039,100143,6
50027,100145,4
50030,100150,4
50029,100137,5
50035,100127,5
50024,100137,5
50034,100141,4
50034,100136,4
50035,100128,5
50024,100126,5
50022,100120,5
50018,100118,4
50020,100103,5
50002,100095,5
50005,100070,5
49989,100052,5
49979,100029,4
49958,99999,5
49948,99975,5
49935,99945,5
49904,99913,5
49890,99882,5
49889,99871,4
49871,99856,5
49865,99837,5
49869,99834,6
49868,99838,3
49859,99839,5
49865,99846,5
49871,99837,5
49875,99842,4
49868,99845,4
49875,99843,5
49873,99846,5
49880,99837,5
49877,99843,4
49871,99841,5
49863,99833,5
49873,99827,5
49866,99839,5
49868,99824,4
49855,99820,5
49857,99822,5
49856,99811,5
49857,99814,5
49855,99801,4
49785,99799,6
49842,99790,4
49853,99786,5
49850,99789,5
49755,99789,4
49839,99785,5
49847,99781,5
49834,99775,5
49765,99781,4
49829,99775,4
49833,99771,5
49829,99759,5
49856,99757,5
49822,99739,4
49808,99735,5
49793,99705,5
49871,99676,5
49755,99634,5
49724,99568,4
49705,99511,5
49752,99462,5
49635,99404,5
49608,99340,5
49572,99293,4
49577,99249,5
49525,99207,6
49511,99190,4
49503,99176,5
49512,99168,4
49515,99193,5
49507,99203,5
49513,99210,5
49529,99173,4
49535,99250,4
49551,99272,5
49557,99281,5
49573,99224,5
49575,99316,4
49582,99327,5
49567,99291,5
49546,99186,5
49517,99210,5
49495,99168,4
49487,99150,6
49491,99185,4
49481,99144,5
49480,99144,5
49488,99152,4
49489,99262,5
49503,99191,5
49521,99226,6
49542,99269,4
49565,99394,4
49590,99363,5
49629,99424,5
49660,99478,5
49691,99571,4
49719,99594,4
49749,99644,5
49782,99689,5
49815,99750,5
49832,99800,4
49854,99831,5
49881,99870,5
49905,99920,5
49926,99944,5
49934,99984,4
49957,100003,5
49968,100030,5
49988,100047,5
49983,100067,5
50002,100079,5
50018,100108,4
50002,100107,5
50009,100092,5
49999,100091,5
50008,100080,4
49996,100075,5
49987,100054,5
49991,100045,5
49974,100033,4
49966,100011,4
49960,99994,5
49944,99978,5
49935,99949,5
49928,99938,4
49916,99919,5
49906,99901,5
49906,99892,5
49885,99863,5
49880,99862,4
49889,99864,5
49874,99863,5
49874,99867,5
49874,99862,5
49892,99872,4
49894,99887,6
49901,99904,4
49914,99912,5
49917,99940,5
49932,99958,4
49944,99978,5
49960,100006,5
49957,100020,5
49972,100039,4
49984,100059,4
49994,100078,5
49997,100097,5
50012,100124,5
50023,100133,4
50041,100155,5
50050,100179,5
50065,100204,5
50067,100222,5
50086,100225,4
50092,100243,5
50093,100252,5
50103,100267,5
50100,100255,5
50097,100243,4
50078,100223,5
50072,100204,6
50060,100166,4
50037,100137,5
50023,100109,4
50001,100055,5
49977,100027,5
49963,100004,5
49938,99980,5
49939,99957,4
49923,99950,5
49926,99958,5
49932,99959,5
49939,99969,4
49940,99981,5
49945,99983,5
49942,99981,5
49946,99987,5
49957,99988,4
49955,100001,5
49955,99986,5
49956,99987,5
49945,99973,5
49929,99928,4
49881,99848,5
49797,99787,5
49817,99728,5
49786,99688,5
49774,99667,4
49671,99640,5
49759,99640,5
49760,99644,5
49768,99659,5
49694,99690,4
49803,99720,5
49822,99778,5
49863,99836,5
49912,99892,4
49933,99964,5
49974,100036,5
50012,100104,5
50128,100185,5
50084,100231,4
50120,100295,5
50139,100359,5
50288,100414,5
50202,100451,5
50227,100500,5
50251,100540,4
50314,100566,5
50284,100603,5
50305,100637,5
50328,100680,4
50354,100705,5
50363,100756,5
50383,100784,5
50402,100802,5
50404,100755,4
50406,100810,5
50406,100811,5
50406,100817,5
50413,100712,4
50404,100792,5
50400,100787,5
50396,100777,5
50387,100674,5
50369,100742,4
50349,100715,5
50335,100679,6
50325,100678,4
50306,100619,5
50292,100595,4
50286,100574,7
50267,100658,3
50272,100560,5
50282,100562,5
50274,100571,4
50283,100683,5
50292,100603,5
50303,100629,5
50315,100643,5
50333,100721,4
50343,100711,5
50370,100760,5
50393,100804,5
50427,100849,4
50440,100895,5
50463,100931,5
50492,100981,5
50511,101019,5
50528,101065,4
50546,101089,5
50574,101127,5
50586,101151,6
50601,101177,4
50619,101188,4
50609,101187,5
50611,101190,5
50602,101186,5
50598,101150,5
50583,101124,4
50568,101107,5
50564,101090,5
50550,101067,5
50533,101046,5
50530,101030,4
50520,101009,5
50514,101006,5
50518,101017,5
50520,101013,4
50521,101030,4
50531,101045,5
50542,101041,5
50538,101053,5
50557,101081,5
50563,101092,4
50567,101116,5
50570,101117,5
50566,101095,6
50534,101038,3
50508,100985,5
50481,100930,5
50461,100882,5
50431,100848,5
50415,100810,4
50402,100807,5
50407,100796,5
50405,100791,5
50415,100810,5
50418,100834,4
50437,100869,5
50464,100910,5
50484,100957,5
50516,101010,4
50544,101087,4
50588,101140,5
50616,101214,5
50654,101290,5
50698,101355,4
50730,101416,6
50766,101484,4
50809,101553,5
50841,101598,5
50874,101649,6
50881,101689,3
50906,101720,5
50927,101754,5
50937,101792,5
50952,101803,4
50976,101841,5
50988,101879,5
51011,101918,5
51024,101917,5
51022,101923,4
51018,101925,5
51025,101926,5
51036,101930,5
51028,101920,4
51023,101918,4
51015,101911,5
51015,101904,5
51009,101884,5
50988,101876,4
50980,101844,5
50970,101826,6
50950,101782,4
50934,101757,5
50934,101742,4
50925,101731,5
50923,101732,5
50883,101724,5
50919,101726,5
50921,101726,4
50917,101741,5
50846,101760,5
50933,101772,5
50954,101801,5
50956,101824,4
50890,101853,5
50996,101889,5
51022,101919,5
51038,101958,4
51032,101984,4
51065,102001,5
51071,102030,5
51085,102027,5
51149,102032,4
51078,102021,5
51077,102001,6
51057,101996,5
51151,101973,4
51043,101952,4
51045,101944,5
51031,101926,5
51082,101916,5
51017,101913,5
51021,101915,4
51016,101920,5
51047,101926,5
51030,101926,5
51025,101930,5
51034,101936,4
51038,101921,5
51048,101976,5
51062,101993,5
51073,101995,4
51061,101886,4
51024,101909,5
50995,101864,5
50972,101799,5
50942,101654,5
50910,101699,4
50886,101651,5
50870,101616,5
50853,101576,6
50844,101563,3
50833,101564,5
50835,101569,5
50837,101639,5
50847,101581,5
50845,101592,4
50854,101602,5
50867,101734,5
50867,101645,5
50881,101647,5
50892,101667,4
50900,101746,5
50910,101697,5
50913,101714,5
50923,101732,4
50929,101759,4
50937,101759,5
50937,101762,5
50938,101779,5
50941,101775,4
50936,101785,6
50943,101778,4
50951,101787,5
50958,101792,5
50956,101792,4
50955,101796,5
50935,101771,5
50941,101756,5
50931,101758,5
50932,101737,4
50932,101734,5
50907,101698,5
50905,101692,5
50884,101667,5
50866,101634,4
50850,101594,5
50832,101562,5
50808,101506,5
50778,101462,4
50750,101412,4
50721,101366,5
50698,101317,5
50679,101282,5
50647,101244,4
50636,101212,5
50622,101186,6
50618,101170,4
50605,101156,5
50596,101152,4
50599,101153,5
50592,101149,5
50596,101145,5
50598,101158,5
50611,101157,4
50609,101163,5
50606,101171,5
50613,101173,5
50613,101166,5
50611,101174,4
50607,101171,5
50602,101162,5
50603,101157,5
50597,101155,5
50599,101149,4
50599,101143,5
50595,101140,5
50578,101102,5
50566,101061,4
50530,100997,5
50487,100909,5
50428,100817,6
50364,100700,4
50303,100589,4
50242,100468,5
50166,100360,5
50125,100274,5
50082,100194,5
50050,100151,4
50028,100119,5
50023,100111,5
50024,100111,5
50023,100108,5
50021,100119,4
50028,100128,5
50042,100154,5
50059,100186,5
50073,100238,5
50091,100266,4
50125,100293,5
50116,100287,5
50097,100221,5
50060,100176,5
50038,100119,4
50014,100074,5
49973,100024,5
49954,99983,5
49919,99930,4
49916,99908,5
49900,99894,5
49892,99876,5
49886,99879,5
49887,99881,4
49903,99900,5
49908,99905,5
49861,99932,5
49922,99956,5
49939,99971,4
49957,100002,5
49885,100017,5
49976,100049,5
49992,100066,5
50012,100090,4
49944,100107,5
50027,100135,5
50042,100166,5
50053,100174,4
50091,100189,5
50068,100219,4
50078,100231,5
50092,100247,5
50190,100269,4
50119,100281,5
50119,100306,5
50135,100342,5
50249,100351,5
50151,100357,4
50155,100359,5
50159,100372,5
50196,100364,5
50156,100365,5
50148,100360,4
50151,100357,5
50146,100314,5
50134,100337,5
50123,100310,5
50118,100297,4
50113,100210,5
50101,100252,5
50081,100232,5
50074,100190,5
50049,100076,4
50034,100139,6
50025,100113,4
50018,100103,5
49999,100023,4
50000,100065,5
49988,100048,5
49983,100041,5
49973,100076,5
49980,100037,4
49977,100033,5
49982,100043,5
49978,100141,5
49987,100052,5
49988,100054,4
49990,100061,5
49998,100153,5
49997,100072,5
50002,100084,5
50013,100081,4
50002,100124,5
50009,100086,5
50013,100102,5
50010,100097,4
50018,100115,4
50017,100105,5
50023,100116,5
50020,100114,5
50023,100119,4
50028,100113,5
50025,100109,5
50026,100116,5
50021,100110,5
50014,100108,4
50022,100098,5
50013,100088,5
50000,100081,5
50002,100069,5
49989,100040,4
49967,100013,5
49940,99968,5
49912,99905,5
49869,99831,5
49824,99738,4
49773,99641,4
49724,99556,5
49658,99442,5
49612,99360,6
49568,99287,3
49533,99224,5
49506,99192,5
49497,99173,5
49498,99180,4
49500,99180,5
49504,99202,5
49519,99222,5
49530,99253,5
49545,99272,4
49558,99300,5
49574,99340,5
49600,99379,5
49637,99437,5
49658,99491,4
49681,99516,5
49668,99470,5
49644,99427,5
49626,99396,5
49598,99373,4
49596,99352,6
49581,99330,4
49577,99310,5
49560,99308,4
49570,99305,6
49575,99314,3
49578,99328,5
49585,99336,5
49598,99379,4
49623,99418,5
49644,99478,5
49682,99533,5
49718,99607,5
49767,99687,4
49810,99763,5
49854,99846,5
49887,99907,5
49937,99998,5
49976,100056,4
50002,100107,5
50040,100174,5
50064,100222,5
50090,100276,5
50117,100334,4
50155,100409,5
50207,100490,6
50232,100550,4
50259,100587,4
50290,100640,4
50310,100676,5
50345,100740,5
50378,100799,5
50396,100823,4
50407,100850,5
50421,100855,5
50422,100868,5
50425,100892,5
50439,100925,4
50461,100932,5
50460,100938,5
50465,100956,5
50408,100951,5
50465,100963,4
50483,100995,5
50499,101016,5
50427,101016,5
50509,101003,5
50484,100983,4
50475,100961,5
50384,100936,5
50443,100916,6
50441,100894,3
50438,100871,4
50448,100875,5
50424,100870,5
50417,100860,5
50418,100852,4
50489,100847,5
50401,100837,5
50400,100831,5
50390,100820,5
50496,100825,4
50400,100840,5
50403,100832,5
50393,100812,5
50427,100783,5
50375,100772,4
50356,100756,5
50348,100741,5
50353,100724,5
50343,100714,5
50330,100693,5
50321,100674,4
50313,100614,5
50308,100643,5
50291,100620,6
50287,100614,3
50282,100516,5
50270,100582,5
50251,100566,5
50240,100529,5
50220,100405,4
50197,100436,5
50163,100377,5
50130,100306,5
50085,100272,4
50051,100168,5
50012,100101,5
49981,100050,5
49954,100084,5
49920,99940,4
49902,99916,5
49889,99889,5
49877,99975,5
49873,99877,5
49881,99872,4
49873,99875,6
49882,99920,4
49889,99894,5
49889,99901,4
49892,99910,4
49910,99930,5
49914,99951,5
49920,99953,5
49935,99939,4
49892,99884,5
49855,99816,5
49825,99761,5
49794,99706,5
49772,99664,4
49749,99633,5
49740,99600,5
49719,99574,5
49716,99558,5
49706,99559,4
49712,99554,5
49714,99565,5
49716,99566,5
49721,99605,5
49738,99622,4
49757,99655,5
49781,99692,6
49789,99720,4
49815,99750,4
49826,99790,4
49847,99826,5
49872,99863,5
49887,99890,5
49901,99921,4
49928,99963,5
49947,99992,5
49966,100017,5
49978,100059,5
49988,100084,4
50003,100100,5
50014,100122,5
50028,100147,5
50039,100171,5
50062,100196,4
50061,100217,5
50077,100212,5
50073,100210,5
50066,100221,5
50072,100210,4
50057,100202,5
50054,100196,5
50047,100172,6
50049,100167,3
50038,100157,4
50039,100148,5
50024,100134,5
50013,100119,5
50009,100091,4
49991,100062,5
49984,100052,5
49971,100027,5
49957,100015,5
49950,99991,4
49929,99968,5
49924,99950,5
49918,99940,5
49915,99922,5
49908,99936,4
49912,99936,5
49914,99935,5
49915,99937,5
49917,99941,5
49915,99956,5
49928,99950,4
49931,99959,5
49931,99976,5
49933,99967,4
49943,99985,4
49942,99985,5
49943,99985,5
49945,99984,5
49948,99989,4
49948,100000,5
49948,99995,5
49951,99997,5
49952,99996,5
49955,99993,4
49933,99991,9
49950,99991,1
49952,99973,5
49944,99990,5
49897,99978,4
49940,99973,5
49927,99974,5
49932,99962,5
49848,99956,5
49925,99944,4
49920,99938,6
49914,99933,4
49821,99922,5
49893,99909,4
49894,99892,4
49887,99874,5
49873,99841,5
49845,99819,5
49830,99775,4
49807,99721,5
49861,99667,5
49737,99606,5
49706,99528,5
49661,99457,4
49717,99379,5
49586,99310,5
49552,99253,5
49522,99206,5
49548,99168,4
49481,99139,5
49471,99139,5
49472,99136,5
49489,99153,4
49484,99151,4
49488,99160,5
49505,99174,6
49495,99138,4
49501,99191,4
49505,99200,5
49512,99216,5
49525,99152,5
49530,99230,5
49513,99192,4
49480,99122,5
49439,98973,5
49410,99012,5
49392,98971,5
49371,98944,5
49370,98945,4
49360,98918,5
49363,98919,5
49358,98933,5
49367,99033,4
49375,98963,5
49400,98992,5
49415,99018,5
49424,99169,5
49463,99129,4
49499,99184,5
49524,99234,5
49559,99327,5
49585,99340,4
49615,99396,4
49639,99428,5
49658,99479,5
49677,99515,5
49701,99558,4
49724,99598,5
49746,99629,5
49764,99667,5
49784,99683,5
49786,99709,4
49801,99724,5
49810,99733,5
49810,99748,5
49819,99745,5
49819,99745,4
49809,99748,5
49810,99745,5
49802,99737,5
49796,99717,5
49799,99711,5
49787,99694,4
49784,99672,5
49769,99660,5
49762,99628,4
49742,99616,5
49726,99571,5
49705,99545,5
49684,99500,5
49669,99474,4
49657,99433,5
49642,99405,5
49616,99384,5
49611,99363,5
49593,99339,4
49586,99333,5
49585,99323,5
49581,99315,5
49585,99315,5
49582,99320,4
49583,99327,5
49591,99342,5
49592,99350,5
49614,99365,5
49624,99384,4
49630,99402,6
49637,99422,4
49650,99426,5
49652,99452,4
49658,99469,4
49664,99480,5
49678,99506,5
49685,99517,5
49692,99537,4
49705,99543,5
49713,99559,5
49723,99567,5
49725,99578,5
49727,99581,4
49726,99592,5
49732,99602,5
49737,99597,5
49737,99607,5
49735,99602,4
49742,99601,5
49733,99605,5
49732,99598,5
49733,99589,5
49718,99562,4
49711,99551,5
49704,99512,5
49669,99473,5
49655,99439,4
49629,99408,5
49614,99357,5
49592,99322,5
49576,99296,5
49560,99282,4
49552,99269,5
49551,99257,5
49545,99260,5
49554,99272,5
49559,99290,4
49560,99300,5
49562,99316,5
49578,99331,5
49589,99345,5
49601,99365,5
49568,99390,4
49620,99413,5
49634,99418,5
49615,99383,6
49512,99339,3
49570,99298,5
49549,99264,5
49540,99247,5
49443,99221,4
49515,99222,4
49510,99216,5
49523,99218,5
49531,99233,5
49541,99246,4
49547,99263,5
49562,99292,5
49667,99335,5
49613,99386,5
49637,99453,4
49662,99493,5
49799,99545,5
49727,99611,5
49761,99662,5
49792,99717,4
49863,99769,6
49854,99824,4
49886,99891,5
49916,99926,5
49950,99975,6
49965,100026,3
49974,100060,5
49998,100094,5
50020,100057,4
50026,100124,4
50036,100150,5
50046,100160,5
50054,100104,5
50057,100189,4
50056,100168,5
50045,100163,5
50040,100073,5
50042,100148,5
50033,100132,4
50021,100116,5
50029,100124,5
50006,100100,5
49997,100078,5
49984,100057,4
49971,100113,5
49954,100000,6
49942,99958,4
49927,99946,5
49909,100020,4
49903,99906,5
49895,99879,5
49888,99881,5
49887,99918,4
49889,99870,5
49878,99867,5
49889,99871,5
49897,99900,5
49901,99893,4
49902,99910,5
49905,99923,5
49914,99951,5
49929,99962,5
49948,99981,4
49955,100005,5
49965,100026,5
49978,100044,5
49987,100074,5
49996,100090,4
50010,100112,5
50020,100139,5
50029,100145,6
50034,100157,4
50046,100168,4
50047,100168,5
50041,100165,5
50029,100136,5
50022,100116,4
50006,100091,4
49986,100054,5
49965,100025,5
49962,99999,5
49951,99979,4
49930,99967,5
49929,99947,5
49928,99933,5
49918,99940,5
49924,99957,4
49932,99952,5
49946,99982,5
49943,99998,5
49961,100001,5
49960,100021,5
49970,100027,4
49979,100048,5
49985,100056,5
49995,100068,6
49992,100059,3
49970,100002,5
49923,99935,5
49896,99880,5
49864,99837,4
49844,99787,4
49822,99757,5
49813,99730,5
49803,99737,5
49803,99738,4
49814,99745,5
49822,99764,5
49830,99784,5
49870,99832,5
49872,99867,4
49896,99921,5
49935,99969,5
49963,100026,5
49990,100086,5
50027,100144,4
50059,100204,6
50085,100251,4
50116,100306,5
50145,100349,5
50166,100397,4
50194,100432,5
50212,100464,5
50233,100503,5
50253,100535,4
50257,100561,5
50275,100589,5
50287,100620,5
50316,100660,5
50337,100690,4
50336,100703,5
50344,100701,5
50344,100710,5
50345,100709,5
50352,100715,4
50353,100714,5
50349,100712,5
50348,100705,5
50344,100705,5
50334,100671,4
50317,100655,5
50271,100624,6
50291,100592,4
50265,100558,5
50251,100522,4
50150,100492,5
50222,100475,5
50203,100455,5
50210,100437,4
50124,100460,5
50208,100442,5
50213,100468,5
50221,100477,5
50231,100503,4
50238,100528,5
50261,100560,5
50281,100608,5
50379,100637,5
50334,100686,4
50361,100727,5
50379,100778,5
50504,100811,5
50415,100850,5
50426,100886,4
50447,100892,5
50515,100908,5
50452,100901,6
50445,100893,4
50445,100871,4
50444,100864,5
50425,100848,5
50420,100829,5
50415,100813,4
50400,100765,4
50395,100795,5
50405,100801,5
50403,100806,5
50410,100734,4
50418,100832,5
50417,100836,5
50418,100841,5
50431,100755,5
50427,100860,4
50431,100874,5
50450,100885,5
50453,100879,5
50439,100863,5
50403,100789,5
50364,100731,4
50343,100754,5
50307,100614,5
50289,100570,5
50267,100535,4
50246,100603,5
50238,100493,5
50237,100486,5
50242,100506,4
50252,100571,4
50263,100547,5
50275,100581,5
50300,100616,5
50332,100682,4
50350,100730,5
50395,100771,5
50416,100838,5
50457,100899,5
50482,100953,4
50513,101009,5
50534,101063,5
50568,101107,5
50591,101153,5
50617,101196,4
50641,101233,6
50660,101268,3
50693,101310,5
50716,101359,5
50733,101400,4
50758,101471,5
50811,101540,5
50843,101587,5
50857,101628,4
50875,101650,4
50880,101667,5
50894,101703,5
50917,101719,5
50926,101747,4
50939,101779,5
50958,101781,5
50954,101807,5
50966,101835,5
50978,101844,4
50980,101852,5
50988,101860,5
50994,101875,5
50993,101872,5
51003,101888,4
51015,101907,5
51023,101935,6
51043,101981,4
51080,102038,5
51110,102103,4
51149,102161,5
51186,102252,5
51227,102333,5
51272,102403,4
51316,102487,4
51351,102571,5
51411,102649,5
51461,102735,5
51503,102813,4
51547,102886,5
51580,102965,5
51615,103028,5
51647,103074,5
51659,103081,4
51650,103082,5
51654,103080,5
51653,103077,5
51648,103072,5
51652,103073,4
51655,103074,5
51656,103090,5
51658,103108,5
51691,103176,5
51726,103218,4
51755,103288,7
51781,103330,3
51813,103385,5
51837,103429,4
51855,103476,4
51878,103532,5
51903,103575,5
51938,103612,5
51929,103594,4
51897,103539,5
51871,103490,5
51846,103453,5
51826,103402,5
51809,103369,4
51786,103327,5
51764,103302,5
51760,103281,5
51754,103268,5
51749,103274,5
51748,103283,4
51768,103327,5
51772,103356,5
51808,103373,5
51813,103391,4
51818,103421,5
51770,103449,5
51848,103486,5
51866,103512,4
51899,103543,4
51826,103585,5
51924,103621,5
51948,103673,5
51984,103705,4
51955,103755,5
52033,103806,5
52044,103838,5
52067,103863,5
52122,103910,4
52110,103964,5
52129,103971,5
52138,103991,5
52231,103988,5
52122,103967,4
52125,103964,6
52131,103965,4
52210,103949,5
52107,103950,5
52102,103919,4
52094,103904,5
52116,103887,5
52082,103879,5
52066,103863,5
52059,103844,4
52069,103841,5
52062,103834,5
52042,103796,5
52024,103760,4
52002,103677,5
51999,103730,5
51996,103738,5
51987,103722,5
51976,103602,4
51977,103705,5
51967,103690,5
51974,103691,6
51977,103644,4
51986,103725,4
51990,103733,5
52006,103755,5
52012,103826,5
52020,103784,5
52018,103769,4
52015,103773,5
52015,103882,5
52013,103755,5
51990,103715,5
51963,103658,4
51952,103710,5
51912,103588,5
51896,103556,5
51868,103484,4
51816,103418,5
51753,103267,5
51700,103168,5
51659,103086,5
51643,103065,5
51632,103035,4
51617,103014,5
51604,102980,5
51563,102926,6
51555,102883,3
51530,102857,5
51513,102848,5
51519,102839,5
51523,102882,5
51551,102918,4
51559,102921,5
51524,102847,5
51484,102762,5
51438,102692,5
51401,102615,4
51348,102529,5
51321,102459,5
51269,102371,5
51226,102290,4
51184,102217,4
51141,102149,5
51119,102095,5
51089,102053,5
51080,102028,4
51069,102000,6
51055,101975,4
51042,101947,5
51032,101923,5
51014,101902,6
50998,101874,3
50976,101848,5
50970,101829,5
50959,101806,5
50947,101789,4
50946,101784,5
50943,101769,5
50939,101760,5
50928,101741,5
50921,101748,4
50924,101743,5
50919,101743,5
50916,101739,5
50927,101740,4
50930,101745,4
50929,101757,5
50926,101753,5
50931,101751,5
50924,101752,4
50935,101761,5
50929,101746,6
50929,101756,4
50932,101740,5
50929,101737,4
50922,101729,5
50914,101724,5
50909,101713,5
50910,101702,5
50899,101686,4
50880,101647,5
50871,101629,5
50844,101588,5
50822,101543,5
50808,101508,4
50784,101460,5
50773,101437,5
50741,101385,5
50725,101362,4
50711,101340,4
50694,101309,5
50686,101303,5
50690,101290,5
50673,101288,4
50676,101278,5
50679,101271,5
50677,101278,6
50676,101279,4
50677,101271,4
50674,101256,5
50663,101262,5
50661,101254,5
50658,101242,5
50652,101236,4
50656,101236,5
50657,101234,5
50600,101215,5
50644,101219,5
50644,101212,4
50634,101194,5
50546,101189,5
50622,101171,5
50618,101154,4
50605,101141,4
50513,101127,5
50588,101111,5
50577,101099,5
50578,101085,5
50567,101058,4
50552,101033,5
50544,101025,5
50524,100998,6
50595,100975,3
50503,100951,5
50489,100921,5
50478,100898,5
50560,100877,5
50439,100845,4
50428,100818,5
50401,100769,5
50417,100717,5
50336,100638,5
50285,100551,4
50226,100440,5
50181,100310,5
50102,100192,5
50033,100066,4
49957,99938,4
49890,99771,5
49831,99727,5
49800,99669,5
49770,99622,4
49759,99531,6
49762,99617,4
49775,99633,5
49772,99646,5
49784,99575,4
49803,99690,5
49818,99726,5
49834,99756,5
49850,99809,5
49886,99839,4
49901,99884,5
49925,99920,5
49944,100010,5
49911,99881,5
49884,99828,4
49866,99790,5
49843,99863,5
49830,99735,5
49823,99716,5
49815,99695,4
49799,99737,5
49801,99680,5
49798,99684,5
49803,99701,4
49811,99717,5
49826,99728,6
49844,99754,4
49842,99786,5
49874,99815,4
49897,99857,5
49907,99892,5
49931,99919,5
49948,99951,5
49966,99999,4
49988,100020,5
50006,100056,5
50037,100091,5
50051,100130,5
50059,100161,4
50085,100202,5
50099,100231,5
50116,100245,5
50114,100270,5
50139,100291,4
50135,100307,5
50144,100323,5
50160,100338,5
50171,100364,4
50184,100389,4
50194,100389,5
50198,100400,6
50205,100406,4
50197,100416,4
50192,100412,5
50202,100407,5
50192,100412,5
50192,100402,5
50199,100387,4
50191,100387,5
50190,100388,5
50186,100361,5
50167,100360,5
50165,100331,4
50149,100314,5
50145,100282,5
50124,100271,5
50113,100239,5
50101,100218,4
50090,100199,5
50071,100172,5
50072,100160,5
50055,100145,5
50051,100146,4
50059,100137,5
50056,100144,5
50061,100152,5
50062,100138,4
50052,100152,5
50066,100156,5
50055,100145,5
50061,100142,5
50056,100145,4
50059,100149,5
50061,100153,5
50057,100149,5
50055,100146,5
50061,100146,4
50065,100154,5
50063,100160,5
50068,100159,5
50070,100155,5
50065,100169,4
50064,100158,5
50075,100162,5
50065,100153,5
50063,100159,4
50071,100156,5
50061,100155,4
50052,100134,5
50053,100136,5
50049,100125,4
50038,100108,5
50021,100075,5
49992,100033,5
49974,99975,5
49942,99907,4
49897,99846,5
49863,99780,5
49832,99719,5
49766,99650,5
49762,99588,4
49731,99545,5
49712,99515,5
49625,99490,5
49699,99472,5
49691,99483,4
49702,99497,5
49614,99506,5
49720,99528,5
49720,99543,4
49737,99555,4
49710,99573,6
49754,99598,4
49770,99635,5
49785,99661,4
49860,99674,5
49782,99637,5
49760,99594,5
49730,99536,5
49812,99493,4
49689,99472,5
49682,99439,5
49661,99409,5
49712,99398,5
49644,99373,4
49635,99365,5
49633,99369,5
49647,99364,5
49639,99376,5
49642,99399,4
49652,99414,5
49661,99395,5
49684,99456,5
49697,99485,4
49706,99507,4
49714,99459,5
49736,99562,5
49743,99592,5
49758,99612,5
49772,99545,4
49792,99659,5
49820,99693,5
49827,99731,5
49845,99749,4
49854,99782,5
49864,99805,5
49880,99815,5
49890,99909,5
49896,99853,4
49910,99881,5
49930,99900,5
49931,100028,5
49938,99918,5
49934,99919,4
49939,99917,5
49937,99971,5
49931,99906,5
49918,99904,5
49918,99894,4
49923,99889,5
49908,99864,5
49895,99849,5
49888,99823,4
49867,99805,5
49858,99773,5
49845,99750,5
49832,99726,5
49820,99700,4
49814,99676,5
49801,99663,5
49788,99636,5
49772,99616,5
49771,99604,4
49761,99590,5
49765,99577,5
49754,99571,5
49751,99586,5
49758,99587,4
49759,99596,5
49754,99601,4
49766,99591,5
49770,99608,5
49771,99611,5
49769,99616,3
49778,99612,5
49771,99617,5
49780,99627,4
49785,99637,5
49785,99633,5
49786,99637,5
49784,99649,5
49799,99649,4
49786,99643,5
49791,99645,5
49788,99638,5
49784,99634,5
49775,99621,4
49770,99627,5
49769,99606,5
49768,99603,5
49756,99589,5
49754,99578,4
49747,99559,5
49735,99543,6
49743,99536,4
49727,99522,5
49720,99519,4
49707,99504,5
49697,99478,5
49689,99457,5
49685,99442,4
49673,99423,5
49651,99392,5
49647,99360,5
49621,99339,5
49611,99313,4
49600,99285,5
49577,99252,5
49570,99220,5
49551,99209,5
49542,99173,4
49519,99138,5
49506,99096,5
49475,99051,5
49447,98991,5
49403,98916,4
49359,98832,5
49315,98741,5
49250,98640,6
49215,98560,4
49175,98481,4
49134,98416,5
49101,98365,5
49081,98320,5
49057,98287,4
49052,98277,4
49049,98273,5
49042,98278,5
49069,98299,5
49064,98322,4
49079,98337,5
49083,98344,5
49096,98357,5
49109,98383,5
49087,98396,4
49131,98409,5
49136,98421,5
49122,98387,5
49022,98330,5
49060,98278,5
49032,98230,4
49013,98197,5
48913,98175,5
48981,98153,6
48982,98146,3
48986,98140,5
48950,98147,5
48984,98164,5
49000,98178,4
49021,98207,4
49096,98257,5
49060,98304,5
49083,98350,5
49118,98407,4
49246,98474,5
49187,98538,5
49216,98591,5
49259,98666,5
49351,98714,4
49322,98776,5
49344,98827,5
49379,98883,5
49434,98923,5
49439,98984,4
49466,99031,6
49486,99076,4
49517,99087,5
49530,99146,5
49545,99163,4
49565,99197,5
49568,99145,5
49581,99250,5
49603,99266,4
49603,99287,4
49612,99191,5
49615,99303,5
49617,99307,5
49610,99317,5
49624,99277,4
49618,99301,5
49608,99295,5
49611,99285,5
49596,99326,4
49591,99252,5
49585,99242,5
49580,99228,5
49576,99321,5
49563,99192,4
49555,99175,5
49539,99166,6
49537,99220,4
49532,99149,5
49528,99139,4
49518,99138,5
49527,99170,5
49539,99160,5
49538,99164,4
49541,99175,4
49549,99185,5
49554,99198,5
49568,99220,5
49576,99229,4
49574,99248,5
49587,99264,5
49606,99277,5
49618,99291,5
49606,99314,4
49622,99325,5
49638,99342,5
49646,99368,5
49655,99379,5
49664,99389,4
49668,99403,5
49668,99414,5
49679,99430,6
49686,99426,4
49674,99435,4
49677,99429,5
49689,99429,5
49679,99414,5
49669,99399,4
49655,99377,4
49641,99348,5
49626,99311,5
49606,99275,5
49587,99242,4
49563,99199,5
49545,99165,5
49535,99139,5
49511,99122,5
49505,99108,4
49507,99107,5
49505,99106,5
49510,99129,5
49512,99139,5
49522,99152,5
49541,99171,4
49545,99186,5
49555,99210,5
49570,99224,5
49577,99258,4
49585,99261,5
49598,99273,5
49588,99255,5
49561,99201,4
49545,99159,4
49521,99124,5
49509,99106,5
49495,99083,5
49485,99061,4
49487,99069,5
49481,99066,5
49491,99077,5
49494,99091,5
49509,99118,4
49529,99153,5
49545,99200,5
49568,99241,5
49597,99279,5
49624,99341,4
49654,99394,6
49684,99449,4
49710,99491,5
49734,99557,5
49761,99600,4
49790,99639,5
49824,99687,5
49853,99741,5
49876,99795,5
49904,99832,4
49925,99868,5
49949,99910,5
49957,99944,5
49979,99975,4
50006,100014,5
50019,100067,5
50046,100093,5
50053,100110,5
50066,100112,4
50052,100120,5
50065,100119,5
50069,100122,5
50067,100115,5
49995,100121,4
50065,100111,5
50058,100107,6
50051,100094,4
49956,100064,5
50038,100056,4
50024,100030,5
50011,100014,5
49943,99997,5
49994,99986,5
49992,99986,4
49989,99978,5
50041,99980,5
50001,99990,5
49992,99993,4
50003,100006,5
50104,100029,5
50008,100045,5
50024,100061,5
50045,100081,4
50132,100111,4
50077,100148,5
50087,100173,5
50110,100207,5
50155,100236,3
50141,100270,5
50159,100309,5
50178,100334,5
50197,100332,5
50207,100375,4
50209,100394,5
50221,100386,5
50214,100311,5
50211,100366,5
50191,100355,4
50180,100337,5
50183,100232,5
50179,100309,5
50168,100300,4
50160,100286,5
50155,100244,5
50148,100268,5
50157,100279,5
50155,100278,4
50174,100357,5
50172,100305,5
50179,100309,5
50174,100325,5
50185,100428,5
50184,100341,4
50191,100330,5
50199,100345,5
50188,100397,5
50167,100267,4
50116,100195,5
50090,100136,5
50053,100094,5
50027,100035,5
50006,99999,4
49998,99967,5
49981,99953,5
49981,99951,5
49982,99970,4
49988,99974,4
49996,99998,5
50016,100018,5
50037,100058,5
50061,100094,4
50083,100156,5
50108,100203,5
50149,100252,5
50175,100309,5
50199,100358,4
50224,100399,6
50254,100447,4
50277,100498,5
50303,100538,5
50319,100578,4
50348,100616,5
50366,100654,5
50387,100687,5
50404,100712,5
50420,100732,4
50424,100762,5
50442,100791,5
50466,100816,5
50463,100819,4
50469,100807,4
50465,100805,5
50465,100800,5
50462,100808,5
50452,100796,4
50454,100792,5
50451,100785,5
50443,100773,5
50430,100751,5
50425,100742,4
50409,100713,5
50398,100675,5
50379,100651,5
50361,100618,5
50347,100610,4
50338,100590,5
50338,100586,5
50332,100577,5
50324,100567,5
50336,100586,4
50335,100579,5
50346,100597,5
50348,100611,5
50354,100628,4
50373,100640,4
50375,100665,5
50391,100689,5
50404,100710,5
50419,100747,4
50434,100766,5
50447,100788,5
50460,100805,5
50461,100806,5
50462,100805,3
50457,100801,5
50450,100787,5
50445,100771,5
50431,100771,5
50437,100754,4
50425,100743,5
50421,100734,5
50410,100716,5
50414,100711,5
50400,100716,4
50418,100723,5
50424,100731,5
50428,100742,5
50433,100759,4
50442,100769,4
50442,100792,5
50462,100815,5
50486,100852,5
50494,100891,4
50519,100912,6
50493,100896,4
50482,100845,5
50458,100806,5
50439,100771,6
50360,100724,3
50406,100717,5
50400,100699,5
50384,100689,5
50299,100680,4
50385,100688,5
50402,100697,5
50409,100720,5
50384,100750,5
50440,100785,4
50472,100825,5
50486,100868,5
50569,100917,5
50550,100981,4
50584,101040,4
50621,101118,5
50754,101194,5
50707,101274,5
50740,101340,4
50789,101415,5
50913,101492,6
50875,101563,4
50900,101640,5
50953,101713,4
51005,101780,7
51013,101833,3
51041,101887,5
51068,101940,5
51111,101976,4
51138,102057,5
51150,102072,5
51158,102091,5
51160,102018,5
51170,102096,4
51168,102115,5
51178,102126,5
51184,102030,5
51184,102134,4
51181,102126,4
51178,102127,5
51178,102080,5
51181,102113,5
51165,102093,4
51165,102080,5
51141,102122,5
51143,102054,6
51141,102036,4
51120,102023,4
51121,102111,5
51121,102004,5
51105,101992,5
51104,101976,5
51101,102057,4
51110,101979,5
51101,101990,5
51110,101982,5
51111,102013,5
51106,101994,4
51115,102004,5
51121,102014,5
51122,102023,5
51127,102026,4
51131,102031,4
51133,102020,5
51125,102008,5
51119,102009,5
51109,101983,5
51099,101969,4
51089,101945,5
51080,101930,5
51068,101910,6
51055,101892,3
51040,101881,5
51047,101862,5
51035,101861,5
51034,101849,5
51021,101842,4
51015,101825,5
50997,101809,5
51000,101799,5
50994,101792,5
50992,101797,7
51010,101818,2
50995,101816,5
50997,101791,5
50954,101716,4
50918,101641,4
50892,101590,5
50857,101534,5
50835,101478,5
50809,101438,4
50783,101392,6
50767,101356,4
50745,101328,5
50732,101303,5
50726,101299,4
50727,101300,5
50727,101301,5
50724,101303,5
50730,101305,5
50729,101309,4
50734,101315,5
50735,101327,5
50749,101336,5
50747,101349,5
50749,101354,4
50762,101356,5
50759,101360,5
50762,101377,5
50763,101381,4
50761,101376,4
50766,101376,5
50769,101381,5
50764,101374,5
50758,101366,4
50767,101383,5
50774,101389,6
50766,101389,4
50772,101384,5
50764,101383,4
50764,101371,5
50757,101363,5
50762,101354,5
50745,101353,5
50749,101334,4
50744,101321,5
50728,101296,5
50714,101270,5
50704,101241,5
50681,101211,4
50668,101181,5
50643,101126,5
50613,101078,5
50583,101034,4
50557,100985,4
50541,100945,5
50518,100906,5
50499,100877,5
50482,100845,4
50477,100825,5
50453,100802,5
50443,100784,10
50435,100768,4
50435,100767,5
50431,100765,5
50370,100762,5
50432,100765,5
50434,100770,4
50438,100768,5
50349,100763,5
50432,100771,5
50445,100777,5
50442,100775,4
50388,100773,5
50439,100769,5
50441,100772,5
50433,100773,4
50471,100770,4
50426,100760,5
50425,100745,5
50411,100717,5
50479,100671,5
50353,100602,4
50306,100514,5
50251,100407,5
50283,100305,5
50132,100210,4
50084,100101,5
50032,100003,5
50022,99945,5
49954,99884,5
49935,99841,4
49932,99830,5
49926,99811,5
49921,99844,5
49934,99854,5
49947,99872,4
49961,99830,5
49974,99936,5
49977,99973,5
50012,100009,4
50029,99972,4
50062,100100,5
50061,100092,5
50047,100044,5
50013,99957,4
49999,99952,6
49963,99896,4
49929,99853,5
49910,99862,5
49883,99769,4
49857,99737,5
49850,99698,5
49832,99772,5
49818,99656,5
49821,99653,4
49817,99657,5
49826,99749,5
49831,99662,5
49837,99686,5
49846,99688,4
49849,99727,5
49863,99720,5
49869,99743,5
49870,99760,4
49886,99775,4
49895,99795,5
49911,99814,5
49921,99846,5
49932,99870,4
49936,99879,5
49955,99903,6
49965,99908,3
49959,99925,5
49975,99940,4
49979,99941,5
49987,99950,5
49990,99986,5
50011,100010,5
50017,100005,4
50016,100012,5
50022,100026,5
50030,100037,5
50035,100049,5
50036,100050,4
50043,100056,5
50045,100060,5
50043,100054,5
50030,100048,4
50039,100039,4
50029,100038,5
50025,100017,5
50019,100003,5
50004,100000,4
50004,99986,5
49993,99966,5
49989,99957,6
49975,99941,4
49963,99922,4
49965,99913,5
49951,99894,5
49953,99895,5
49952,99883,5
49951,99882,4
49938,99878,5
49950,99870,5
49949,99884,5
49942,99881,5
49939,99873,4
49941,99880,5
49941,99879,5
49947,99883,5
49941,99894,4
49938,99884,4
49951,99880,5
49950,99881,5
49947,99889,5
49947,99891,5
49950,99894,4
49944,99887,5
49942,99893,5
49954,99902,5
49948,99897,4
49961,99904,5
49955,99900,5
49960,99909,5
49958,99898,5
49961,99902,4
49952,99899,5
49950,99895,5
49954,99900,5
49946,99891,5
49945,99900,4
49945,99885,5
49943,99876,5
49944,99871,5
49925,99855,4
49917,99827,4
49894,99796,5
49856,99745,5
49833,99667,5
49785,99590,4
49750,99506,6
49698,99411,4
49651,99324,5
49597,99240,5
49556,99167,4
49516,99103,5
49503,99059,5
49492,99044,5
49425,99036,5
49493,99054,4
49499,99067,5
49507,99080,5
49425,99105,5
49518,99113,5
49539,99150,4
49560,99182,5
49504,99235,5
49604,99262,5
49628,99309,4
49634,99320,4
49658,99290,5
49596,99235,5
49583,99203,5
49561,99177,4
49626,99147,5
49523,99120,5
49526,99117,5
49520,99096,5
49599,99106,4
49515,99100,5
49516,99104,5
49527,99113,5
49558,99127,5
49542,99151,4
49549,99177,5
49574,99196,5
49584,99229,5
49597,99278,5
49628,99306,4
49640,99328,5
49652,99300,5
49672,99400,5
49691,99440,5
49710,99477,4
49727,99427,5
49758,99532,5
49773,99576,6
49780,99601,3
49794,99573,5
49804,99642,5
49815,99655,5
49828,99663,5
49832,99729,4
49838,99700,5
49849,99714,5
49853,99733,5
49853,99827,5
49853,99733,4
49855,99734,5
49865,99745,5
49864,99812,5
49855,99728,5
49855,99728,4
49860,99730,5
49854,99751,5
49855,99712,5
49847,99714,4
49847,99696,6
49841,99676,4
49824,99655,5
49819,99644,5
49807,99623,6
49798,99606,3
49781,99578,5
49771,99555,5
49765,99543,5
49746,99527,4
49754,99514,5
49747,99514,5
49749,99514,5
49740,99516,5
49744,99520,4
49757,99521,5
49753,99531,5
49751,99545,5
49762,99536,5
49766,99543,4
49766,99547,5
49763,99561,5
49768,99566,5
49769,99558,4
49781,99570,4
49772,99572,6
49775,99564,4
49772,99580,5
49781,99576,4
49782,99581,5
49778,99584,5
49776,99587,5
49780,99586,5
49779,99585,4
49784,99579,5
49783,99586,5
49783,99588,5
49782,99591,5
49784,99591,4
49774,99575,5
49768,99572,5
49776,99569,5
49770,99563,5
49768,99561,4
49766,99560,5
49768,99550,5
49749,99544,5
49753,99524,4
49742,99498,5
49729,99482,5
49716,99452,6
49692,99406,4
49655,99344,4
49618,99279,5
49582,99204,5
49550,99136,5
49516,99071,5
49488,99029,4
49457,98985,5
49434,98959,5
49438,98930,5
49427,98925,5
49419,98929,4
49434,98938,5
49438,98956,5
49449,98973,5
49455,98992,5
49474,99015,4
49483,99036,5
49493,99070,5
49508,99097,5
49526,99112,5
49529,99124,4
49529,99120,5
49503,99056,5
49461,98996,6
49456,98966,3
49427,98942,5
49416,98911,5
49409,98901,5
49406,98896,5
49405,98881,4
49393,98882,5
49392,98885,5
49403,98904,5
49414,98917,5
49362,98936,4
49433,98958,5
49463,98986,5
49469,99014,5
49405,99058,5
49506,99093,4
49531,99132,5
49553,99168,5
49509,99194,5
49599,99245,4
49619,99282,6
49641,99308,4
49687,99346,5
49677,99374,5
49685,99406,4
49698,99422,5
49803,99435,5
49718,99461,5
49726,99476,5
49733,99480,4
49825,99498,5
49754,99516,5
49757,99541,5
49756,99527,5
49789,99533,4
49755,99527,5
49751,99520,5
49747,99501,5
49753,99478,5
49745,99484,4
49736,99470,5
49725,99450,5
49708,99361,5
49702,99413,4
49685,99382,5
49667,99344,6
49653,99221,4
49626,99277,5
49620,99254,5
49607,99215,4
49591,99131,5
49574,99172,5
49562,99155,5
49548,99139,4
49551,99177,5
49543,99126,5
49540,99120,5
49549,99131,5
49545,99232,4
49554,99145,5
49554,99149,5
49569,99158,5
49572,99249,5
49579,99179,4
49583,99192,5
49576,99191,5
49583,99231,5
49590,99200,4
49586,99206,5
49600,99201,5
49587,99204,6
49595,99212,4
49595,99214,4
49587,99210,6
49589,99203,4
49595,99205,5
49588,99200,5
49587,99193,4
49587,99185,5
49569,99181,5
49574,99167,5
49569,99163,5
49571,99158,4
49560,99140,5
49559,99140,5
49554,99137,5
49549,99116,5
49533,99107,4
49536,99103,5
49536,99099,5
49528,99084,5
49509,99072,5
49504,99050,4
49479,99007,5
49449,98952,5
49430,98901,5
49394,98834,4
49363,98789,5
49342,98741,5
49323,98691,5
49292,98660,5
49271,98624,4
49265,98608,5
49263,98605,5
49265,98616,5
49265,98620,5
49272,98641,4
49286,98666,5
49298,98683,5
49314,98712,5
49321,98728,5
49332,98745,4
49346,98765,5
49360,98796,5
49363,98809,5
49364,98785,4
49348,98749,6
49312,98705,4
49290,98680,5
49279,98648,5
49279,98643,4
49270,98621,5
49264,98618,5
49268,98614,5
49270,98622,5
49272,98643,4
49278,98666,5
49306,98703,5
49320,98726,5
49339,98772,5
49365,98814,4
49388,98862,5
49416,98917,5
49449,98970,5
49479,99031,5
49512,99078,4
49534,99132,5
49559,99174,5
49591,99219,5
49617,99271,4
49632,99313,5
49664,99354,6
49690,99384,4
49702,99417,5
49708,99447,4
49717,99475,5
49729,99484,5
49739,99508,5
49746,99532,5
49769,99534,4
49762,99547,5
49760,99533,5
49759,99522,5
49761,99522,5
49745,99513,4
49680,99495,5
49733,99490,5
49738,99473,5
49723,99465,5
49628,99439,4
49696,99428,5
49692,99402,5
49685,99376,5
49604,99348,4
49649,99332,5
49641,99310,5
49633,99291,5
49658,99273,5
49619,99272,4
49618,99258,5
49610,99264,5
49713,99265,5
49614,99261,5
49620,99290,4
49624,99290,5
49724,99311,5
49652,99319,5
49652,99332,5
49655,99361,4
49707,99378,5
49681,99394,5
49688,99424,5
49701,99439,4
49723,99441,4
49730,99476,5
49735,99488,5
49743,99508,5
49742,99445,5
49745,99524,4
49763,99539,5
49771,99538,5
49770,99456,5
49772,99551,4
49768,99554,5
49768,99545,5
49769,99510,5
49774,99558,5
49774,99544,5
49767,99539,4
49767,99583,5
49753,99525,5
49745,99505,5
49737,99476,4
49712,99535,5
49690,99397,5
49667,99345,5
49650,99311,5
49617,99339,4
49595,99220,5
49572,99191,5
49557,99155,5
49548,99170,4
49544,99128,6
49539,99131,4
49540,99138,5
49547,99152,5
49558,99169,4
49559,99176,5
49576,99199,5
49586,99219,5
49593,99245,5
49602,99249,4
49612,99277,5
49621,99282,5
49612,99261,5
49597,99211,5
49558,99159,4
49538,99120,5
49526,99094,5
49514,99068,5
49497,99046,5
49492,99038,4
49492,99035,5
49484,99039,5
49498,99059,4
49507,99079,4
49529,99112,5
49548,99162,5
49577,99210,5
49605,99246,5
49637,99311,4
49669,99380,5
49694,99446,5
49733,99496,5
49759,99557,5
49796,99621,4
49830,99675,5
49865,99711,5
49883,99771,5
49912,99824,5
49927,99853,4
49952,99886,5
49968,99906,5
49966,99908,5
49973,99929,5
49977,99938,4
49982,99957,5
49996,99966,5
49998,99952,6
49993,99946,3
49994,99944,5
49985,99947,5
49987,99942,5
49986,99936,5
49979,99939,4
49977,99932,5
49977,99918,5
49975,99907,5
49959,99895,5
49958,99869,4
49944,99856,5
49925,99828,5
49909,99815,5
49913,99801,5
49898,99778,4
49901,99774,5
49893,99773,5
49899,99774,5
49899,99775,5
49897,99777,5
49897,99789,4
49902,99804,5
49922,99823,5
49920,99840,6
49941,99866,3
49954,99886,5
49983,99918,5
49987,99943,5
49997,99976,4
50016,100010,5
50034,100033,5
50056,100063,5
50061,100091,5
50086,100111,4
50083,100135,5
50097,100149,5
50104,100161,5
50112,100175,5
50111,100185,4
50120,100181,5
50059,100180,5
50108,100165,5
50103,100149,4
50087,100111,4
49984,100072,6
50037,100025,4
50027,99996,5
50005,99947,4
49901,99927,5
49962,99899,5
49954,99875,5
49950,99865,5
49978,99863,4
49948,99864,5
49954,99886,5
49967,99895,5
50060,99915,5
49979,99919,4
49991,99936,5
49984,99946,5
50088,99961,5
50006,99970,5
50007,99961,4
49988,99938,5
49997,99864,5
49923,99802,5
49890,99735,4
49851,99683,4
49844,99634,5
49818,99617,6
49810,99599,4
49801,99598,4
49805,99542,5
49820,99625,5
49834,99650,5
49850,99687,5
49873,99636,4
49892,99783,5
49925,99841,5
49957,99890,5
49989,99894,5
50027,100009,4
50053,100068,5
50088,100117,5
50105,100201,5
50144,100222,5
50170,100270,4
50194,100318,5
50228,100466,5
50248,100403,5
50264,100448,5
50276,100462,4
50305,100594,5
50319,100536,5
50333,100560,6
50351,100598,3
50366,100657,5
50375,100627,5
50371,100641,5
50374,100625,5
50371,100630,4
50373,100621,5
50368,100622,5
50367,100609,5
50363,100598,5
50354,100591,4
50355,100571,5
50338,100550,5
50328,100525,5
50302,100486,5
50286,100461,4
50279,100438,5
50251,100410,5
50251,100398,5
50242,100396,5
50239,100386,5
50236,100386,4
50245,100385,5
50252,100395,5
50253,100405,4
50267,100431,5
50278,100455,5
50294,100473,5
50305,100513,5
50312,100546,4
50346,100578,5
50357,100609,5
50382,100651,5
50389,100682,5
50407,100718,4
50435,100738,5
50441,100768,5
50457,100792,5
50471,100807,5
50478,100812,4
50478,100810,5
50467,100801,5
50451,100789,5
50446,100760,5
50438,100744,4
50417,100721,6
50423,100701,4
50406,100687,5
50389,100666,4
50388,100651,5
50390,100647,5
50376,100651,5
50384,100657,5
50392,100668,4
50390,100662,5
50386,100672,5
50392,100675,5
50399,100695,5
50416,100707,4
50414,100720,5
50425,100716,5
50409,100683,5
50372,100614,5
50335,100556,4
50309,100502,5
50287,100465,5
50256,100419,5
50254,100395,4
50248,100394,4
50237,100388,5
50243,100394,6
50263,100421,4
50271,100441,4
50281,100468,5
50312,100516,5
50334,100548,5
50354,100603,5
50379,100653,4
50412,100696,5
50429,100753,5
50465,100801,5
50482,100846,5
50507,100885,4
50530,100922,5
50554,100967,5
50579,101005,5
50593,101035,5
50614,101067,4
50628,101087,5
50630,101107,5
50588,101130,5
50645,101136,5
50658,101151,4
50661,101184,5
50601,101196,5
50686,101193,5
50684,101190,4
50676,101190,5
50609,101188,5
50675,101184,5
50666,101182,5
50674,101175,4
50696,101159,5
50664,101147,5
50654,101131,5
50640,101104,5
50721,101080,4
50611,101039,5
50585,101007,5
50571,100975,5
50644,100946,5
50530,100916,4
50523,100896,5
50512,100879,5
50531,100845,5
50492,100832,5
50476,100827,5
50480,100821,4
50483,100802,5
50476,100832,5
50475,100821,4
50467,100816,5
50478,100757,5
50480,100828,5
50475,100826,5
50472,100812,4
50464,100704,5
50458,100782,5
50440,100752,5
50419,100714,5
50397,100588,4
50370,100598,5
50340,100539,5
50302,100485,5
50282,100482,5
50243,100381,8
50211,100338,1
50193,100290,5
50172,100332,5
50160,100250,5
50147,100228,4
50140,100229,6
50142,100290,4
50149,100216,5
50141,100210,4
50142,100210,5
50153,100249,5
50147,100232,5
50160,100242,5
50166,100240,4
50140,100199,5
50103,100140,5
50077,100074,5
50040,100014,5
49998,99940,4
49974,99890,5
49941,99834,5
49918,99779,5
49880,99740,5
49876,99713,4
49860,99699,5
49862,99694,5
49855,99702,5
49857,99710,5
49858,99713,4
49880,99726,5
49876,99737,5
49883,99759,5
49894,99772,4
49909,99784,5
49909,99790,5
49923,99815,5
49926,99842,5
49939,99850,4
49948,99869,5
49956,99877,5
49970,99899,5
49971,99918,5
49985,99927,4
49982,99938,5
49998,99952,5
50003,99963,5
50007,99981,5
50018,100005,4
50026,100013,5
50032,100014,5
50027,100020,5
50037,100011,5
50033,100024,4
50038,100017,5
50030,100020,5
50030,100016,5
50029,100008,4
50027,99990,5
50016,99982,5
50004,99967,5
49998,99958,5
49978,99922,4
49973,99905,5
49951,99873,5
49942,99841,5
49930,99827,5
49916,99806,4
49904,99778,5
49897,99752,5
49873,99739,5
49877,99723,5
49858,99705,4
49859,99701,5
49863,99706,5
49855,99706,5
49859,99702,5
49857,99702,5
49867,99710,4
49865,99702,5
49864,99713,5
49869,99713,4
49868,99703,5
49860,99709,5
49871,99720,5
49870,99717,5
49872,99718,4
49868,99729,5
49865,99730,5
49876,99739,5
49873,99732,5
49883,99733,4
49881,99747,5
49884,99742,5
49892,99754,5
49890,99751,5
49880,99749,4
49895,99760,5
49895,99768,6
49891,99764,4
49827,99760,5
49895,99759,4
49897,99761,5
49895,99758,5
49806,99749,5
49885,99752,4
49877,99739,5
49881,99729,5
49796,99726,5
49865,99700,5
49845,99676,4
49825,99629,5
49825,99562,5
49749,99476,5
49698,99386,5
49640,99282,4
49679,99188,5
49528,99082,5
49477,98977,5
49429,98902,5
49475,98840,4
49370,98808,5
49358,98801,5
49353,98806,6
49404,98827,4
49378,98848,4
49396,98859,5
49400,98880,5
49433,98898,5
49440,98950,4
49458,98985,5
49481,99034,5
49507,99008,5
49522,99099,5
49518,99076,4
49484,99015,5
49459,98885,5
49450,98950,5
49437,98922,5
49420,98892,4
49415,98819,5
49398,98856,5
49392,98857,5
49381,98848,5
49396,98909,5
49394,98862,4
49403,98877,5
49415,98893,5
49419,99022,6
49446,98952,3
49457,98990,5
49482,99028,5
49496,99146,5
49520,99091,4
49536,99123,5
49551,99155,5
49579,99226,5
49601,99226,5
49607,99260,4
49631,99292,5
49644,99335,5
49663,99357,5
49671,99386,5
49684,99410,4
49696,99416,5
49705,99425,5
49717,99442,5
49710,99447,5
49726,99456,4
49725,99473,6
49737,99483,4
49733,99481,5
49737,99484,4
49736,99478,4
49729,99492,5
49744,99488,5
49737,99471,5
49730,99461,4
49722,99479,5
49712,99465,5
49723,99450,5
49723,99446,5
49708,99436,4
49705,99430,5
49696,99397,5
49683,99383,5
49672,99371,5
49665,99361,4
49660,99342,5
49649,99322,5
49643,99293,5
49636,99302,5
49627,99292,4
49631,99293,5
49631,99291,6
49626,99276,4
49626,99291,5
49630,99303,4
49643,99293,5
49639,99320,5
49643,99321,5
49648,99321,4
49651,99319,5
49655,99328,5
49652,99323,5
49657,99339,5
49660,99352,4
49666,99353,5
49664,99358,5
49669,99373,5
49670,99377,5
49679,99371,4
49677,99386,5
49683,99398,5
49684,99399,5
49686,99398,5
49687,99390,4
49683,99381,5
49678,99376,5
49674,99367,6
49665,99366,4
49658,99348,4
49660,99340,5
49648,99325,5
49644,99310,5
49634,99293,4
49609,99254,5
49588,99201,5
49543,99125,5
49506,99063,5
49472,98987,4
49429,98907,5
49390,98840,5
49349,98771,5
49320,98722,5
49304,98682,4
49282,98651,5
49265,98632,5
49275,98644,5
49276,98660,5
49285,98675,5
49295,98693,4
49304,98714,5
49330,98746,5
49343,98776,5
49309,98804,4
49371,98847,5
49400,98888,5
49417,98916,5
49343,98943,4
49442,98931,5
49420,98885,5
49381,98824,5
49286,98788,5
49331,98743,4
49314,98721,5
49300,98688,5
49332,98674,5
49291,98668,5
49277,98656,4
49282,98660,5
49361,98666,5
49291,98674,5
49300,98685,5
49310,98706,4
49413,98742,6
49338,98759,4
49363,98801,5
49378,98842,5
49436,98875,4
49414,98914,5
49431,98949,5
49457,98976,5
49479,99006,4
49495,99047,5
49513,99082,5
49535,99124,5
49558,99099,5
49575,99188,4
49586,99210,5
49596,99235,5
49606,99165,5
49618,99265,5
49626,99289,5
49633,99307,4
49653,99277,5
49660,99346,5
49662,99351,5
49663,99359,4
49677,99408,5
49668,99367,6
49674,99383,4
49680,99376,5
49675,99473,4
49678,99387,5
49674,99373,5
49672,99362,5
49656,99436,4
49657,99335,5
49648,99324,5
49638,99299,5
49632,99313,5
49618,99272,4
49621,99254,5
49603,99255,5
49595,99234,5
49602,99242,5
49601,99236,4
49609,99249,5
49607,99247,5
49612,99271,5
49622,99276,5
49627,99295,4
49634,99312,5
49640,99319,5
49641,99343,5
49659,99359,5
49666,99361,4
49669,99370,5
49677,99392,5
49682,99400,5
49693,99421,4
49699,99431,5
49710,99435,5
49704,99446,5
49714,99458,5
49723,99459,4
49730,99468,5
49726,99471,5
49729,99468,5
49718,99464,5
49723,99460,4
49717,99457,5
49713,99453,5
49706,99448,5
49716,99453,5
49711,99451,5
49702,99434,4
49710,99431,5
49692,99425,5
49694,99403,5
49688,99398,4
49675,99386,5
49669,99376,5
49661,99363,5
49650,99349,4
49652,99332,5
49637,99320,5
49637,99305,5
49630,99278,5
49611,99257,4
49590,99223,5
49572,99181,5
49543,99138,5
49510,99072,5
49483,99018,4
49443,98937,5
49404,98874,5
49379,98804,5
49351,98767,5
49320,98717,4
49305,98688,6
49297,98685,4
49295,98669,5
49282,98671,5
49298,98685,4
49309,98700,5
49315,98716,5
49323,98729,5
49330,98732,4
49339,98757,4
49338,98771,5
49357,98791,5
49369,98806,5
49365,98807,4
49362,98800,5
49344,98736,5
49316,98699,5
49286,98658,5
49278,98619,4
49252,98590,5
49240,98580,5
49231,98558,5
49237,98559,5
49228,98552,4
49233,98553,5
49236,98569,5
49247,98589,5
49260,98615,5
49273,98639,4
49238,98681,5
49315,98717,5
49336,98763,5
49361,98789,4
49293,98822,4
49408,98874,5
49432,98911,5
49440,98943,5
49389,98992,4
49493,99026,5
49509,99061,5
49532,99095,5
49578,99122,5
49556,99156,4
49570,99156,5
49576,99173,5
49669,99176,5
49580,99190,5
49583,99192,4
49590,99200,5
49691,99203,5
49593,99198,5
49594,99196,5
49595,99184,4
49613,99179,5
49576,99167,5
49566,99149,5
49554,99129,4
49549,99108,6
49539,99099,3
49533,99077,5
49510,99040,5
49502,98951,4
49487,98991,5
49463,98957,5
49447,98929,5
49430,98816,5
49413,98865,4
49393,98841,6
49389,98809,4
49377,98737,5
49374,98777,5
49368,98776,6
49360,98762,3
49358,98811,5
49361,98776,5
49363,98778,5
49369,98775,4
49377,98878,5
49369,98794,5
49380,98803,5
49383,98808,4
49379,98884,4
49386,98818,5
49381,98813,5
49378,98824,5
49393,98850,4
49395,98824,5
49391,98826,5
49405,98827,5
49397,98831,5
49401,98839,4
49407,98841,5
49408,98843,6
49401,98848,4
49393,98833,5
49403,98852,4
49411,98860,5
49411,98855,5
49409,98872,5
49410,98862,5
49422,98870,4
49412,98880,5
49425,98881,5
49425,98887,5
49432,98892,4
49412,98881,4
49427,98879,5
49417,98889,5
49416,98882,5
49416,98873,4
49411,98878,5
49416,98871,5
49415,98869,5
49408,98866,5
49394,98848,4
49401,98841,5
49395,98827,5
49386,98812,6
49370,98797,4
49365,98770,4
49348,98741,5
49319,98691,5
49296,98651,5
49269,98601,5
49245,98560,4
49215,98520,5
49202,98480,5
49186,98454,5
49172,98443,4
49169,98431,4
49168,98433,5
49184,98452,5
49190,98472,5
49202,98496,4
49215,98517,5
49234,98553,5
49251,98592,5
49269,98618,5
49284,98653,5
49297,98685,4
49320,98720,5
49332,98719,5
49313,98706,6
49295,98665,3
49275,98630,5
49263,98602,5
49246,98587,5
49237,98562,5
49236,98573,4
49237,98559,5
49237,98574,5
49248,98584,5
49267,98606,4
49269,98636,4
49295,98671,5
49330,98719,5
49355,98782,5
49385,98832,4
49416,98904,5
49461,98970,5
49491,99032,5
49515,99086,5
49541,99137,4
49576,99190,6
49601,99225,4
49626,99289,5
49653,99327,5
49671,99381,6
49705,99418,3
49716,99446,5
49724,99469,5
49746,99487,5
49754,99512,4
49763,99531,5
49721,99548,5
49786,99566,5
49794,99592,4
49802,99590,4
49724,99588,5
49796,99589,5
49796,99589,5
49791,99571,4
49721,99571,5
49780,99551,5
49775,99541,5
49768,99527,5
49795,99505,4
49747,99492,5
49735,99463,6
49714,99433,4
49790,99404,5
49690,99394,4
49682,99363,5
49672,99351,5
49755,99333,5
49651,99327,5
49657,99322,4
49648,99324,5
49681,99324,5
49655,99333,5
49663,99341,4
49672,99360,4
49677,99347,5
49681,99388,5
49691,99403,5
49705,99423,4
49712,99372,5
49735,99472,5
49748,99489,5
49754,99516,5
49765,99444,4
49779,99554,5
49782,99576,5
49793,99589,6
49801,99537,4
49805,99605,4
49809,99615,5
49811,99610,5
49808,99654,5
49812,99596,5
49795,99569,4
49777,99553,5
49770,99615,5
49740,99475,5
49719,99437,4
49711,99403,4
49678,99428,5
49652,99316,5
49638,99286,5
49628,99269,4
49617,99287,5
49623,99262,5
49616,99280,5
49636,99301,5
49648,99315,5
49661,99331,4
49653,99331,5
49665,99337,5
49666,99360,5
49678,99368,4
49676,99365,5
49685,99359,5
49667,99355,5
49656,99300,10
49612,99232,7
49582,99182,5
49550,99125,8
49504,99062,7
49504,99062,5
49553,99083,8
49542,99095,7
49533,99120,5
49563,99182,8
49590,99241,7
49625,99298,5
49793,99580,8
49793,99580,7
49794,99642,9
49848,99698,10
50002,99961,9
50002,99961,8
50028,99993,7
50046,100043,8
50067,100066,7
50122,100167,7
50122,100167,10
50077,100160,5
50112,100165,5
50114,100168,8
50114,100175,7
50060,100063,9
50060,100063,10
50059,100011,5
50041,100003,8
50015,99981,7
49991,99935,9
49991,99935,10
50003,99936,9
50048,100038,10
50048,100038,5
50065,100077,5
50072,100104,10
50102,100142,5
50126,100192,5
50221,100357,10
50221,100357,5
50237,100387,7
50228,100370,8
50229,100333,5
50230,100364,7
50248,100360,8
50233,100343,5
50202,100319,7
50186,100274,8
50186,100274,5
50185,100272,7
50111,100305,8
50202,100313,5
50215,100330,7
50198,100339,8
50146,100357,5
50264,100428,7
50264,100428,8
50257,100437,5
50230,100365,7
50287,100333,8
50190,100298,7
50167,100264,8
50167,100264,5
50179,100278,7
50229,100321,8
50223,100372,5
50238,100420,7
50291,100476,8
50343,100576,5
50623,101103,7
50623,101103,8
50695,101182,5
50715,101282,7
50751,101282,8
50811,101485,5
50874,101583,7
51107,101978,8
51107,101978,5
51144,102061,7
51147,102089,8
51200,102169,7
51232,102228,7
51323,102462,8
51323,102462,7
51342,102421,5
51365,102458,8
51374,102447,7
51389,102528,5
51415,102503,2
51397,102504,1
51389,102492,4
51387,102500,5
51382,102484,5
51382,102476,5
51374,102468,5
51376,102467,4
51370,102482,5
51383,102497,5
51398,102515,5
51407,102540,5
51417,102562,4
51428,102583,5
51446,102609,5
51451,102621,5
51459,102638,4
51457,102636,4
51466,102652,5
51484,102670,5
51481,102666,5
51489,102660,4
51483,102660,5
51469,102658,5
51471,102629,5
51448,102613,5
51433,102587,3
51431,102563,5
51407,102532,5
51395,102509,5
51386,102481,5
51373,102449,4
51361,102439,5
51355,102415,5
51343,102410,5
51339,102387,5
51329,102374,4
51322,102348,5
51303,102351,5
51319,102351,5
51316,102355,4
51317,102346,4
51318,102346,5
51297,102309,5
51254,102209,5
51203,102093,4
51138,102009,6
51091,101916,4
51037,101825,5
51000,101745,5
50962,101686,6
50929,101629,3
50911,101588,5
50884,101573,5
50891,101554,5
50885,101552,4
50887,101556,5
50887,101561,5
50887,101555,5
50894,101572,5
50903,101584,4
50898,101591,5
50900,101595,5
50914,101612,5
50911,101615,4
50923,101615,4
50920,101621,5
50921,101618,5
50920,101613,5
50924,101624,4
50913,101618,5
50916,101616,6
50912,101601,4
50914,101614,5
50909,101612,4
50912,101612,7
50917,101617,3
50914,101611,5
50909,101605,5
50908,101586,4
50901,101582,5
50898,101570,5
50881,101563,5
50876,101540,5
50869,101524,4
50860,101506,5
50853,101485,5
50821,101458,5
50753,101423,4
50794,101387,4
50771,101341,5
50736,101274,5
50626,101220,5
50675,101174,4
50645,101117,5
50614,101072,5
50515,101028,6
50576,100983,4
50544,100946,4
50517,100907,5
50537,100861,5
50481,100824,5
50480,100811,5
50458,100785,4
50535,100763,5
50444,100738,5
50421,100738,5
50427,100732,5
50519,100735,4
50426,100720,5
50419,100716,5
50410,100717,5
50454,100712,4
50412,100708,4
50413,100713,5
50410,100696,5
50406,100668,5
50392,100672,5
50388,100650,4
50373,100616,5
50348,100515,5
50306,100503,6
50265,100416,3
50203,100296,5
50145,100098,5
50070,100069,5
50010,99936,5
49940,99835,4
49893,99687,5
49848,99663,5
49821,99624,5
49813,99604,5
49803,99646,4
49807,99592,5
49809,99602,5
49820,99613,5
49822,99738,4
49829,99652,4
49839,99673,5
49857,99690,5
49875,99804,5
49887,99767,4
49910,99791,6
49919,99804,4
49897,99785,5
49872,99715,5
49853,99679,6
49828,99634,3
49803,99600,5
49784,99558,5
49765,99532,5
49745,99495,4
49738,99479,5
49737,99465,5
49729,99471,5
49739,99463,5
49732,99470,4
49752,99485,5
49747,99504,5
49759,99518,5
49776,99549,4
49787,99568,4
49814,99586,5
49823,99625,5
49840,99657,5
49849,99685,4
49870,99710,5
49887,99744,6
49909,99782,4
49924,99808,5
49929,99835,4
49943,99866,5
49961,99887,5
49970,99908,5
49978,99931,5
49997,99941,4
50006,99975,5
50024,99991,5
50037,100018,5
50048,100034,5
50049,100036,4
50049,100047,5
50048,100043,5
50061,100051,5
50060,100055,4
50051,100054,4
50059,100065,5
50052,100057,5
50052,100057,5
50061,100058,4
50057,100059,5
50051,100049,5
50047,100041,6
50051,100035,4
50030,100018,4
50038,100012,5
50029,100007,5
50020,99990,5
50021,99981,5
50021,99969,4
50009,99953,5
50005,99949,5
49993,99954,5
49995,99938,5
49996,99948,4
49988,99941,5
50001,99943,5
50004,99952,5
50010,99960,4
50004,99962,4
50000,99964,5
50007,99964,5
50007,99957,5
50004,99968,5
50003,99968,4
50010,99956,5
50001,99973,5
50002,99960,5
50016,99971,4
50008,99962,5
50010,99949,5
50003,99948,5
49996,99949,5
50006,99951,4
49992,99953,5
49998,99957,5
49999,99956,5
49998,99941,5
49991,99936,4
49976,99930,5
49982,99918,5
49979,99919,5
49977,99896,4
49905,99882,4
49933,99833,5
49912,99790,5
49876,99706,5
49751,99629,4
49788,99558,6
49742,99468,4
49706,99391,5
49608,99317,5
49623,99251,4
49596,99205,5
49575,99175,5
49620,99162,5
49574,99172,5
49576,99168,4
49580,99194,5
49689,99220,5
49605,99249,5
49630,99274,5
49651,99310,4
49744,99333,5
49679,99371,5
49705,99420,5
49727,99465,4
49770,99502,4
49750,99504,5
49734,99450,10
