RED,IR,EKG,TIME
32632,61325,10
32625,61315,5
32629,61307,5
32643,61316,10
32659,61305,5
32636,61295,5
32609,61269,10
32609,61269,5
32611,61226,7
32641,61283,8
32605,61259,9
32606,61264,10
32606,61264,5
32612,61275,7
32597,61263,8
32603,61251,5
32615,61267,7
32591,61242,8
32591,61242,5
32585,61230,7
32577,61216,8
32575,61176,5
32577,61191,7
32583,61170,8
32576,61169,5
32556,61168,7
32524,61125,8
32524,61125,5
32520,61076,7
32510,61102,8
32514,61108,5
32518,61101,7
32501,61102,8
32490,61066,7
32490,61066,5
32475,61046,8
32481,61033,7
32475,61030,5
32472,61025,7
32459,60985,7
32458,60994,5
32435,60969,8
32435,60969,7
32457,60963,5
32433,60953,8
32417,60944,7
32414,60938,5
32415,60929,8
32385,60897,7
32385,60897,7
32390,60899,8
32389,60901,7
32382,60883,8
32394,60901,7
32398,60902,9
32398,60902,10
32406,60914,8
32402,60951,8
32402,60951,7
32433,60966,5
32433,60983,8
32434,60968,7
32410,61006,9
32478,61056,10
32478,61056,5
32483,61073,8
32488,61067,7
32509,61082,7
32505,61114,10
32505,61114,5
32503,61117,5
32519,61121,10
32549,61149,5
32517,61128,5
32523,61089,10
32526,61146,9
32526,61146,10
32529,61135,5
32527,61145,5
32527,61147,10
32520,61141,5
32524,61110,5
32524,61144,10
32525,61147,5
32526,61163,5
32523,61138,10
32530,61161,5
32537,61158,5
32547,61152,10
32558,61180,5
32534,61159,5
32544,61166,10
32544,61166,5
32532,61127,7
32526,61182,8
32536,61149,5
32525,61155,7
32513,61145,8
32522,61143,5
32519,61138,7
32519,61138,8
32525,61134,5
32526,61152,7
32523,61141,8
32529,61136,5
32532,61128,7
32527,61152,8
32527,61152,5
32534,61169,7
32531,61172,8
32535,61158,5
32534,61155,7
32524,61158,8
32539,61158,7
32539,61158,5
32564,61161,8
32552,61157,7
32532,61160,5
32537,61162,8
32527,61157,7
32538,61173,5
32528,61153,8
32528,61153,7
32511,61161,10
32522,61138,7
32531,61147,5
32526,61143,8
32524,61148,7
32524,61148,5
32529,61181,8
32532,61156,3
32533,61155,0
32532,61162,4
32527,61158,5
32535,61167,4
32535,61169,5
32541,61172,5
32534,61169,5
32538,61175,5
32542,61178,4
32534,61174,5
32540,61170,5
32538,61174,5
32540,61171,5
32540,61183,4
32539,61170,5
32530,61170,5
32529,61174,5
32535,61174,5
32534,61167,4
32532,61154,6
32530,61159,4
32524,61165,5
32522,61158,4
32531,61156,4
32524,61152,5
32522,61152,5
32531,61156,5
32525,61162,4
32525,61150,5
32532,61163,5
32534,61162,5
32525,61181,5
32528,61166,4
32533,61168,5
32532,61172,5
32533,61169,5
32535,61168,5
32507,61167,4
32528,61170,5
32526,61159,5
32522,61150,5
32496,61155,5
32520,61139,4
32511,61135,5
32512,61126,6
32470,61128,4
32504,61112,4
32494,61114,4
32499,61099,5
32489,61106,5
32511,61112,5
32503,61103,4
32493,61100,5
32522,61094,5
32496,61093,5
32497,61105,5
32497,61105,4
32540,61106,5
32505,61112,5
32497,61111,5
32501,61108,5
32523,61109,4
32506,61112,5
32498,61108,5
32497,61112,5
32509,61116,5
32495,61110,4
32508,61113,5
32496,61106,5
32503,61075,5
32494,61108,4
32496,61102,4
32498,61089,5
32495,61074,5
32492,61098,5
32489,61093,4
32496,61091,5
32503,61055,5
32485,61082,5
32490,61085,5
32487,61094,5
32495,61102,4
32481,61087,5
32487,61082,9
32485,61077,1
32522,61094,4
32486,61067,5
32486,61068,5
32494,61080,5
32488,61129,5
32486,61074,5
32496,61080,4
32488,61078,5
32489,61105,5
32484,61091,5
32495,61081,4
32486,61092,5
32485,61102,5
32503,61101,5
32494,61104,4
32497,61102,4
32497,61106,5
32496,61108,5
32503,61098,5
32493,61103,4
32497,61100,5
32493,61101,5
32501,61100,5
32493,61108,5
32492,61097,4
32498,61096,5
32497,61088,5
32490,61092,5
32491,61090,5
32492,61083,4
32486,61089,6
32481,61093,4
32485,61095,5
32494,61091,5
32502,61097,4
32504,61107,5
32498,61119,5
32509,61116,5
32505,61126,4
32505,61114,4
32510,61121,5
32507,61124,5
32511,61121,5
32510,61106,4
32507,61094,5
32495,61097,5
32501,61103,5
32490,61090,5
32495,61085,4
32482,61078,5
32493,61075,5
32485,61074,5
32487,61065,5
32479,61067,4
32482,61067,5
32483,61060,5
32480,61058,5
32475,61059,5
32481,61062,4
32476,61055,5
32479,61056,5
32485,61067,5
32477,61059,4
32482,61062,4
32481,61060,5
32475,61055,5
32472,61053,5
32480,61052,4
32477,61043,5
32472,61052,5
32477,61044,5
32472,61046,5
32475,61048,4
32470,61050,4
32469,61051,5
32473,61046,5
32479,61049,6
32476,61061,3
32476,61060,5
32471,61050,5
32480,61055,5
32478,61056,5
32475,61051,4
32469,61047,5
32467,61048,5
32467,61038,5
32459,61042,4
32464,61037,4
32465,61035,5
32464,61031,5
32464,61034,5
32465,61028,4
32468,61029,5
32457,61029,5
32463,61029,5
32459,61025,5
32463,61025,4
32438,61029,6
32463,61030,4
32454,61028,5
32456,61029,5
32421,61039,6
32454,61035,3
32461,61034,5
32464,61029,5
32433,61030,5
32459,61026,4
32457,61029,5
32457,61029,5
32464,61029,5
32448,61023,4
32450,61028,4
32446,61035,5
32481,61024,5
32459,61024,5
32443,61024,4
32449,61017,5
32475,61019,5
32447,61017,5
32446,61007,5
32439,61019,4
32451,61005,5
32440,61020,6
32442,61015,4
32440,61015,5
32447,61002,4
32439,61017,5
32440,61010,5
32435,61000,5
32430,60976,5
32425,60993,4
32429,60996,5
32425,60971,5
32420,60933,5
32423,60982,4
32411,60979,4
32416,60965,5
32420,60947,5
32417,60961,5
32403,60954,4
32421,60965,5
32413,60981,5
32416,60959,5
32410,60958,5
32409,60964,4
32409,61008,5
32413,60968,5
32422,60962,6
32419,60964,4
32419,60997,4
32416,60970,5
32414,60958,5
32416,60964,5
32421,60973,5
32412,60974,4
32410,60967,5
32416,60984,5
32426,60979,5
32420,60976,5
32417,60968,4
32417,60978,5
32418,60980,5
32418,60987,5
32430,60972,4
32419,60980,5
32413,60964,5
32415,60968,5
32419,60969,5
32412,60980,5
32421,60971,4
32420,60964,5
32411,60961,5
32411,60958,6
32408,60962,3
32417,60974,5
32416,60968,5
32415,60967,5
32421,60967,5
32422,60973,4
32419,60975,5
32422,60977,5
32427,60983,5
32419,60983,5
32428,60986,4
32432,60989,5
32425,60996,5
32435,60993,5
32426,60994,4
32427,61004,4
32429,61005,5
32431,60996,5
32425,60995,5
32433,60994,4
32432,60994,6
32426,60988,4
32433,61000,5
32434,60985,5
32426,60992,4
32427,60988,5
32429,60985,5
32422,60989,5
32428,60993,5
32433,61000,4
32437,60993,5
32430,60987,5
32425,61001,5
32435,61004,5
32436,61012,4
32441,61012,5
32444,61015,5
32439,61012,5
32438,61019,4
32436,61003,4
32428,61006,5
32440,61009,5
32432,61000,5
32434,60994,4
32431,60984,5
32418,60990,6
32429,60985,4
32428,60990,5
32429,60982,4
32429,60985,5
32427,60984,5
32431,60982,5
32418,60987,5
32430,60985,4
32424,60982,5
32426,60979,5
32435,60991,5
32424,60981,5
32430,60980,4
32424,60988,5
32425,60980,5
32426,60978,5
32429,60974,4
32421,60986,4
32429,60976,5
32398,60983,5
32426,60990,5
32435,60972,4
32423,60981,5
32400,60983,5
32430,60985,6
32435,60996,4
32436,60994,4
32410,60995,5
32438,60996,5
32442,60989,5
32427,61008,5
32444,61008,4
32426,60990,5
32430,60998,5
32438,60990,5
32466,60999,5
32437,60994,4
32435,60998,5
32439,60997,5
32476,60993,5
32431,60986,4
32434,61000,4
32441,60997,5
32444,61002,5
32444,60991,5
32434,60999,5
32434,60993,4
32431,60993,5
32439,60999,5
32432,60998,5
32432,61004,4
32437,60973,5
32439,61006,5
32440,61010,5
32432,61010,5
32443,60963,4
32447,61012,5
32449,61009,5
32444,61015,5
32442,61006,5
32439,61024,4
32444,61027,5
32443,61017,5
32455,61056,5
32449,61024,4
32449,61024,4
32448,61029,5
32451,61069,5
32451,61022,5
32451,61026,4
32449,61037,6
32457,61067,4
32449,61026,5
32448,61026,5
32444,61024,4
32446,61032,5
32442,61025,5
32435,61019,5
32440,61008,5
32438,61013,4
32437,61009,5
32445,61004,5
32439,61000,5
32443,61002,5
32442,61010,4
32432,61000,5
32436,61010,5
32445,61013,5
32441,61014,4
32449,61018,4
32450,61010,5
32448,61021,5
32443,61022,5
32457,61029,4
32455,61031,5
32450,61044,6
32459,61044,4
32456,61046,5
32462,61048,4
32454,61046,5
32461,61039,5
32448,61039,5
32452,61027,5
32450,61026,4
32448,61014,5
32446,61018,5
32448,61002,5
32444,61012,5
32450,61008,4
32439,61004,5
32451,61006,5
32447,61004,5
32438,61003,4
32440,61008,4
32439,61010,5
32444,61004,5
32440,61002,5
32447,61014,4
32440,61014,5
32445,61021,5
32445,61017,5
32450,61018,5
32447,61010,4
32444,61016,5
32451,61021,5
32445,61016,5
32449,61011,5
32451,61019,4
32442,61012,5
32452,61020,5
32451,61020,5
32453,61017,5
32452,61023,4
32448,61026,5
32458,61020,5
32450,61024,5
32458,61027,4
32463,61037,4
32458,61031,5
32460,61031,5
32459,61029,5
32448,61036,5
32460,61034,4
32445,61034,5
32459,61033,5
32450,61024,5
32452,61037,4
32456,61026,5
32455,61023,5
32448,61027,5
32452,61029,5
32445,61028,4
32455,61032,5
32455,61024,5
32455,61032,5
32461,61028,5
32466,61037,4
32450,61043,5
32453,61042,5
32466,61051,5
32439,61051,4
32467,61056,4
32472,61049,5
32478,61056,5
32443,61057,5
32468,61059,4
32478,61065,6
32479,61069,4
32447,61073,5
32475,61072,5
32480,61071,4
32478,61078,5
32495,61077,5
32479,61072,5
32484,61088,5
32482,61080,4
32508,61082,5
32483,61085,5
32475,61074,5
32477,61076,5
32511,61073,4
32481,61084,5
32482,61086,5
32479,61071,5
32486,61070,4
32475,61071,4
32475,61059,5
32473,61067,6
32464,61045,4
32475,61056,4
32472,61056,5
32474,61062,5
32473,61031,5
32465,61067,5
32466,61063,4
32468,61064,5
32479,61029,5
32476,61068,7
32478,61067,3
32487,61080,5
32480,61066,4
32483,61093,5
32477,61095,5
32484,61100,5
32485,61127,4
32487,61104,5
32492,61088,5
32485,61093,5
32484,61130,5
32483,61083,4
32480,61072,5
32477,61072,5
32475,61094,6
32472,61059,3
32479,61057,5
32470,61053,5
32468,61061,5
32462,61051,5
32471,61050,4
32473,61055,5
32472,61064,5
32466,61056,5
32465,61051,5
32470,61057,4
32468,61061,5
32469,61059,5
32473,61056,5
32479,61057,5
32473,61054,4
32471,61066,5
32477,61058,5
32476,61068,5
32475,61065,5
32465,61059,5
32472,61061,4
32469,61064,5
32479,61062,5
32478,61074,6
32478,61074,3
32472,61068,5
32474,61070,5
32480,61060,5
32475,61062,4
32474,61064,5
32473,61069,5
32469,61068,5
32471,61067,5
32476,61054,4
32471,61065,5
32465,61054,5
32475,61064,5
32474,61060,5
32472,61066,4
32471,61064,5
32472,61052,5
32467,61068,5
32469,61063,5
32473,61061,4
32468,61060,6
32468,61060,4
32479,61055,5
32468,61064,4
32473,61063,6
32475,61063,3
32472,61073,5
32477,61067,5
32477,61070,4
32481,61065,5
32476,61067,5
32474,61068,5
32469,61077,5
32472,61075,4
32472,61069,5
32480,61076,5
32467,61075,5
32477,61069,5
32471,61060,4
32466,61058,5
32462,61058,5
32471,61060,5
32467,61062,5
32463,61053,4
32454,61051,5
32461,61054,6
32457,61051,4
32463,61055,4
32461,61054,4
32454,61048,5
32461,61055,5
32455,61051,5
32451,61048,4
32464,61043,5
32459,61039,5
32452,61048,5
32462,61049,5
32455,61048,4
32456,61038,5
32447,61036,5
32448,61042,5
32451,61036,5
32454,61034,4
32416,61031,5
32435,61027,5
32441,61015,5
32439,61017,5
32399,61015,4
32435,61009,5
32427,60990,5
32420,60993,6
32391,60983,3
32419,60964,4
32406,60960,5
32407,60959,5
32419,60953,5
32409,60957,4
32406,60950,5
32397,60941,5
32434,60933,5
32394,60923,5
32384,60924,4
32385,60919,5
32413,60912,5
32372,60898,5
32368,60882,5
32352,60877,4
32369,60869,5
32349,60854,5
32338,60837,5
32331,60822,5
32322,60794,5
32319,60802,4
32311,60782,5
32306,60760,5
32286,60724,6
32293,60729,3
32285,60717,5
32269,60690,5
32258,60645,5
32243,60659,4
32242,60645,5
32230,60623,5
32212,60600,5
32218,60610,5
32215,60597,4
32205,60584,5
32206,60606,5
32202,60573,5
32190,60575,5
32187,60560,4
32187,60603,5
32189,60547,5
32188,60547,5
32174,60536,5
32162,60548,4
32158,60520,6
32156,60504,4
32157,60502,5
32145,60493,4
32148,60490,4
32142,60486,5
32140,60484,5
32145,60471,5
32135,60464,4
32132,60463,5
32134,60455,5
32124,60449,5
32126,60457,5
32119,60438,4
32118,60443,5
32117,60429,5
32113,60428,5
32118,60424,5
32115,60431,4
32115,60429,5
32111,60435,5
32109,60433,5
32116,60437,5
32116,60443,4
32122,60458,5
32129,60475,6
32143,60491,4
32148,60500,4
32156,60516,4
32169,60539,5
32181,60552,5
32179,60569,5
32197,60602,4
32215,60629,5
32232,60648,5
32237,60679,5
32247,60683,5
32260,60712,4
32269,60735,5
32277,60745,5
32292,60765,5
32294,60780,5
32299,60795,4
32308,60808,5
32318,60817,5
32322,60831,5
32322,60836,5
32332,60851,4
32328,60846,5
32338,60856,5
32342,60861,6
32333,60855,3
32341,60861,4
32344,60865,5
32336,60865,5
32340,60864,5
32343,60868,4
32347,60876,5
32346,60873,5
32346,60878,5
32354,60880,5
32350,60886,4
32358,60891,5
32357,60896,5
32363,60899,5
32363,60901,5
32370,60910,4
32369,60914,5
32367,60923,5
32367,60910,5
32369,60926,5
32366,60925,5
32367,60927,4
32368,60922,5
32364,60922,5
32370,60914,4
32371,60913,4
32369,60910,5
32371,60901,5
32361,60893,5
32361,60894,4
32354,60895,5
32364,60897,5
32363,60886,5
32355,60885,5
32353,60881,4
32351,60881,5
32357,60894,5
32340,60898,5
32357,60889,5
32362,60886,4
32360,60893,5
32335,60899,5
32358,60893,5
32369,60899,5
32367,60891,4
32327,60906,6
32368,60899,4
32371,60903,5
32373,60904,4
32369,60901,4
32363,60904,5
32369,60900,5
32370,60908,5
32411,60912,4
32369,60905,5
32379,60911,5
32366,60912,5
32401,60917,5
32374,60915,4
32373,60915,5
32370,60903,5
32385,60907,5
32375,60911,5
32367,60903,4
32359,60908,5
32369,60893,5
32359,60901,5
32366,60895,5
32361,60893,4
32368,60864,5
32358,60893,6
32361,60898,4
32361,60899,5
32365,60861,4
32371,60904,5
32367,60901,5
32360,60903,5
32362,60884,4
32366,60900,5
32369,60913,5
32372,60910,5
32366,60943,5
32371,60915,4
32364,60912,5
32378,60916,5
32377,60966,5
32373,60929,5
32382,60931,4
32370,60931,5
32375,60947,5
32372,60926,5
32374,60917,5
32366,60923,4
32363,60929,5
32372,60916,5
32369,60927,5
32364,60910,4
32368,60908,4
32360,60911,5
32359,60908,5
32366,60912,5
32354,60902,4
32367,60908,5
32367,60910,5
32365,60904,5
32363,60908,5
32364,60912,4
32363,60906,5
32360,60903,5
32352,60910,5
32360,60906,5
32360,60911,4
32360,60902,5
32353,60901,5
32362,60905,5
32354,60893,5
32350,60887,5
32343,60889,4
32346,60882,5
32348,60873,5
32340,60869,4
32340,60860,4
32334,60861,5
32339,60858,5
32338,60859,5
32335,60859,4
32332,60857,5
32332,60851,5
32332,60861,5
32333,60852,5
32332,60850,4
32328,60854,5
32336,60861,5
32337,60856,5
32334,60859,5
32330,60861,4
32339,60858,5
32329,60859,5
32329,60847,4
32332,60847,5
32323,60849,4
32324,60844,7
32328,60856,3
32330,60857,5
32330,60855,4
32335,60859,4
32331,60852,5
32328,60852,5
32323,60855,5
32331,60851,4
32326,60852,5
32321,60843,5
32321,60838,5
32319,60834,5
32320,60845,4
32326,60841,5
32321,60840,5
32314,60838,5
32312,60835,5
32316,60836,4
32307,60820,5
32309,60829,5
32310,60821,6
32314,60829,4
32306,60828,4
32321,60832,5
32316,60839,5
32317,60836,5
32313,60828,5
32322,60833,4
32313,60838,5
32314,60835,5
32318,60828,5
32312,60836,4
32325,60845,5
32316,60837,5
32316,60837,5
32324,60842,5
32299,60847,4
32318,60841,5
32315,60847,5
32315,60839,5
32272,60831,5
32308,60825,5
32310,60826,4
32305,60821,5
32273,60823,5
32305,60814,6
32304,60806,3
32299,60804,5
32310,60806,5
32304,60807,5
32301,60802,4
32302,60816,4
32329,60808,5
32296,60810,5
32302,60806,5
32296,60814,4
32341,60810,5
32303,60818,5
32296,60810,5
32303,60818,5
32309,60812,4
32298,60811,5
32298,60808,5
32295,60804,5
32297,60794,5
32292,60787,4
32290,60775,6
32279,60772,4
32281,60743,5
32277,60762,5
32274,60762,6
32271,60758,3
32269,60721,5
32268,60754,5
32265,60749,5
32265,60751,4
32280,60726,5
32272,60743,5
32267,60752,5
32269,60746,5
32263,60758,4
32267,60744,5
32265,60751,5
32266,60739,5
32259,60779,4
32260,60738,5
32260,60736,5
32259,60737,5
32266,60766,5
32261,60740,4
32263,60729,5
32253,60744,6
32260,60760,4
32254,60747,5
32259,60741,4
32267,60746,5
32258,60748,5
32259,60747,5
32255,60747,5
32263,60739,4
32270,60741,5
32264,60740,5
32252,60741,5
32259,60740,4
32261,60734,5
32247,60732,5
32260,60725,5
32251,60723,5
32254,60716,4
32251,60720,5
32246,60729,5
32251,60725,5
32254,60714,5
32247,60728,4
32254,60724,5
32256,60728,5
32252,60721,6
32254,60737,4
32253,60731,4
32254,60727,5
32254,60727,5
32250,60727,5
32244,60730,5
32248,60726,4
32251,60728,5
32253,60718,5
32256,60726,5
32251,60728,4
32248,60723,5
32244,60718,5
32244,60714,5
32248,60706,5
32243,60713,4
32237,60708,5
32240,60706,5
32240,60702,5
32239,60693,5
32233,60684,5
32239,60689,4
32233,60683,5
32224,60677,5
32225,60681,6
32227,60674,3
32229,60682,5
32226,60682,5
32227,60679,5
32219,60670,5
32221,60674,4
32215,60664,5
32211,60655,5
32211,60652,5
32207,60641,4
32204,60638,5
32206,60629,5
32201,60622,5
32198,60625,5
32202,60625,4
32199,60619,5
32198,60624,5
32193,60621,5
32201,60624,5
32199,60622,4
32205,60628,6
32193,60622,4
32199,60634,5
32201,60635,5
32205,60626,4
32205,60631,5
32204,60631,5
32197,60632,5
32205,60633,5
32204,60641,4
32204,60629,5
32196,60630,5
32198,60627,5
32201,60628,4
32199,60628,4
32175,60633,5
32197,60627,5
32201,60625,5
32200,60632,4
32172,60626,5
32196,60618,5
32205,60630,5
32194,60631,5
32167,60629,4
32197,60633,5
32202,60630,6
32208,60621,4
32215,60633,5
32199,60627,4
32200,60624,5
32198,60637,5
32240,60621,5
32210,60627,5
32204,60633,4
32205,60642,5
32242,60636,5
32213,60642,5
32204,60643,4
32206,60641,4
32215,60647,5
32206,60651,5
32212,60650,5
32213,60643,4
32212,60646,5
32212,60662,5
32216,60652,5
32215,60664,5
32224,60638,4
32227,60661,5
32222,60668,5
32215,60677,5
32214,60635,5
32219,60670,4
32219,60667,5
32217,60672,5
32223,60653,5
32220,60673,5
32216,60663,4
32217,60662,5
32212,60699,5
32232,60673,5
32223,60678,4
32221,60677,4
32227,60730,5
32233,60688,5
32229,60687,5
32240,60701,4
32241,60733,5
32244,60705,5
32243,60713,5
32243,60709,5
32247,60718,5
32243,60704,4
32249,60701,5
32233,60703,5
32242,60694,5
32244,60688,4
32243,60703,5
32234,60691,5
32238,60693,5
32241,60688,5
32231,60703,4
32239,60697,5
32238,60685,5
32245,60686,5
32238,60683,4
32249,60692,4
32245,60694,5
32240,60695,5
32247,60699,5
32248,60702,4
32244,60701,5
32245,60709,5
32249,60703,5
32256,60705,5
32251,60715,4
32254,60718,6
32247,60700,4
32262,60707,5
32255,60721,5
32255,60720,4
32254,60716,5
32255,60721,5
32260,60724,5
32256,60730,5
32266,60725,4
32252,60722,5
32263,60733,5
32261,60723,5
32256,60719,4
32252,60724,4
32257,60719,5
32260,60728,5
32256,60722,5
32253,60713,4
32251,60708,5
32251,60718,5
32251,60713,5
32256,60706,5
32242,60710,4
32257,60714,5
32258,60713,6
32257,60715,4
32255,60717,5
32257,60722,4
32253,60729,5
32250,60726,5
32259,60731,5
32252,60722,5
32253,60732,4
32261,60740,5
32262,60725,5
32266,60738,5
32263,60740,4
32260,60737,4
32273,60738,5
32274,60748,5
32276,60738,5
32266,60750,4
32270,60747,5
32272,60753,5
32260,60748,5
32271,60744,5
32267,60753,4
32274,60760,5
32277,60758,5
32277,60750,5
32278,60769,5
32279,60746,4
32267,60757,5
32277,60753,5
32277,60752,5
32275,60751,5
32273,60753,4
32270,60747,5
32268,60752,5
32235,60740,5
32274,60736,4
32261,60739,4
32260,60737,5
32235,60738,5
32267,60741,5
32267,60743,4
32264,60745,6
32247,60737,4
32276,60753,5
32274,60752,5
32276,60751,5
32295,60756,4
32282,60771,5
32284,60773,5
32281,60784,5
32322,60776,4
32281,60786,5
32279,60789,5
32289,60797,5
32320,60788,5
32280,60782,4
32282,60778,5
32282,60778,5
32287,60769,5
32277,60759,4
32281,60746,4
32274,60740,5
32269,60739,5
32279,60746,5
32270,60740,4
32273,60737,5
32263,60703,6
32263,60739,4
32268,60741,5
32270,60745,4
32266,60710,7
32267,60747,3
32279,60753,5
32277,60745,5
32277,60742,4
32276,60760,5
32279,60754,5
32279,60758,5
32278,60786,5
32279,60764,4
32278,60767,5
32277,60768,5
32274,60812,5
32285,60768,4
32284,60762,4
32281,60774,5
32289,60797,5
32282,60771,5
32286,60775,4
32293,60776,5
32290,60782,5
32289,60777,6
32283,60778,4
32295,60777,4
32290,60781,5
32289,60782,5
32294,60776,5
32294,60778,5
32295,60788,4
32290,60773,5
32286,60782,5
32290,60768,5
32299,60782,5
32290,60784,4
32301,60790,5
32305,60788,5
32299,60785,5
32302,60795,4
32308,60795,4
32306,60805,5
32311,60808,5
32316,60823,5
32319,60819,5
32320,60827,4
32320,60836,5
32329,60834,5
32327,60844,6
32320,60841,3
32320,60842,5
32323,60843,5
32326,60842,5
32326,60843,5
32327,60844,4
32329,60849,5
32340,60839,5
32333,60836,5
32321,60840,5
32330,60842,4
32319,60840,5
32323,60844,5
32327,60847,5
32328,60843,4
32331,60847,4
32326,60834,5
32318,60838,5
32324,60847,5
32318,60835,4
32324,60840,6
32321,60834,4
32318,60834,5
32313,60827,5
32320,60827,6
32318,60821,3
32312,60829,5
32311,60823,5
32309,60825,5
32321,60827,4
32322,60829,5
32319,60834,5
32317,60838,5
32322,60831,5
32317,60833,4
32324,60843,5
32327,60847,5
32325,60836,5
32325,60858,4
32323,60853,4
32330,60851,5
32329,60848,5
32319,60846,5
32329,60842,4
32320,60843,5
32315,60848,6
32323,60821,4
32318,60827,5
32308,60816,4
32314,60818,5
32313,60819,5
32317,60821,5
32309,60810,5
32309,60809,4
32301,60814,5
32305,60808,5
32317,60804,5
32305,60813,5
32291,60814,4
32314,60815,5
32313,60815,5
32313,60820,5
32274,60828,4
32318,60827,5
32314,60831,5
32320,60830,5
32300,60828,5
32324,60833,4
32314,60832,5
32318,60826,5
32348,60837,6
32323,60835,4
32322,60837,4
32322,60844,5
32368,60836,5
32326,60846,5
32324,60835,5
32329,60840,4
32357,60848,5
32316,60831,5
32330,60836,5
32328,60838,5
32326,60843,4
32322,60830,5
32317,60826,8
32328,60829,2
32310,60827,4
32320,60835,5
32323,60826,5
32318,60825,5
32320,60799,5
32316,60830,5
32320,60833,4
32318,60827,5
32321,60788,5
32316,60835,6
32322,60834,3
32323,60833,5
32328,60838,5
32329,60839,5
32321,60839,5
32326,60850,4
32334,60873,5
32333,60842,5
32336,60852,5
32329,60853,4
32334,60898,4
32333,60856,5
32332,60858,5
32333,60852,5
32329,60885,4
32335,60857,5
32339,60855,5
32327,60860,5
32340,60861,5
32334,60867,4
32337,60865,6
32332,60864,4
32339,60863,5
32339,60864,5
32338,60863,4
32332,60864,5
32329,60865,5
32336,60861,5
32335,60859,5
32330,60857,4
32335,60857,5
32330,60853,5
32326,60866,5
32333,60862,4
32339,60856,4
32333,60862,5
32333,60851,5
32332,60861,5
32328,60864,4
32330,60861,5
32342,60852,5
32323,60860,5
32330,60854,5
32328,60861,4
32329,60853,5
32324,60858,6
32330,60859,4
32332,60855,5
32333,60856,4
32333,60861,5
32326,60853,5
32325,60844,5
32328,60844,5
32311,60839,4
32325,60829,5
32319,60821,5
32310,60815,5
32308,60813,4
32308,60819,4
32314,60811,5
32309,60812,5
32302,60814,5
32297,60816,4
32307,60812,5
32307,60815,5
32307,60815,5
32308,60816,5
32307,60816,4
32305,60816,5
32303,60813,5
32301,60816,6
32309,60814,4
32303,60811,4
32302,60808,5
32294,60802,5
32290,60784,5
32286,60783,5
32293,60772,4
32290,60754,5
32268,60738,5
32255,60721,5
32255,60717,4
32255,60696,4
32245,60699,5
32225,60680,5
32233,60673,5
32225,60661,4
32217,60650,5
32212,60643,5
32208,60643,5
32211,60639,5
32211,60633,5
32207,60636,4
32205,60623,5
32206,60625,5
32194,60613,5
32203,60607,4
32188,60597,5
32190,60594,5
32176,60595,5
32178,60583,5
32177,60580,4
32177,60573,5
32149,60575,5
32170,60570,5
32165,60555,4
32161,60550,4
32119,60548,5
32153,60533,5
32153,60537,5
32146,60523,4
32124,60506,5
32131,60500,5
32127,60485,5
32121,60468,5
32139,60457,4
32103,60454,6
32101,60444,4
32087,60440,5
32126,60423,5
32080,60419,4
32076,60409,5
32067,60396,5
32090,60388,5
32052,60379,5
32050,60365,4
32055,60359,5
32051,60354,5
32046,60340,5
32042,60335,4
32030,60327,4
32025,60311,5
32019,60317,5
32020,60308,5
32016,60302,4
32015,60263,5
32014,60275,5
32002,60289,5
31995,60264,5
31997,60223,4
32003,60257,5
31995,60255,6
31988,60254,4
31985,60255,5
31987,60241,4
31987,60230,5
31974,60222,5
31961,60238,5
31967,60208,5
31961,60189,4
31954,60190,5
31960,60231,5
31956,60167,5
31942,60175,4
31943,60174,4
31947,60198,5
31949,60176,5
31950,60169,5
31951,60180,4
31958,60196,5
31954,60191,5
31953,60204,5
31975,60224,6
31980,60240,3
31977,60254,5
31993,60272,5
32010,60282,5
32013,60294,5
32027,60315,4
32032,60337,5
32043,60351,5
32046,60362,5
32058,60378,5
32072,60392,4
32082,60407,5
32082,60432,5
32090,60436,5
32092,60455,4
32113,60474,4
32110,60488,5
32128,60502,5
32132,60513,5
32139,60527,4
32145,60537,5
32144,60547,5
32151,60558,5
32158,60571,5
32160,60576,5
32168,60581,3
32175,60586,5
32174,60577,5
32169,60588,5
32173,60592,4
32189,60590,5
32186,60587,5
32179,60588,5
32173,60599,5
32178,60589,4
32186,60594,5
32177,60589,5
32181,60605,5
32183,60600,4
32187,60608,4
32184,60612,5
32185,60619,5
32198,60625,5
32196,60623,4
32200,60634,5
32201,60636,6
32207,60635,4
32204,60641,5
32211,60643,4
32206,60650,7
32211,60650,3
32203,60647,5
32204,60646,5
32210,60642,4
32208,60647,5
32198,60644,5
32214,60651,5
32210,60646,5
32208,60645,4
32208,60651,5
32209,60652,5
32208,60651,5
32201,60647,4
32207,60645,4
32197,60647,5
32210,60641,5
32200,60637,5
32206,60642,4
32207,60631,5
32196,60632,5
32198,60637,6
32194,60629,4
32199,60629,4
32201,60637,5
32194,60637,5
32206,60625,5
32196,60638,5
32193,60621,4
32201,60635,5
32204,60648,5
32205,60641,5
32181,60645,5
32212,60649,4
32205,60647,5
32207,60652,5
32166,60657,5
32209,60651,4
32213,60662,5
32218,60661,5
32210,60654,5
32206,60658,5
32207,60656,5
32206,60654,4
32236,60668,5
32206,60656,5
32205,60657,6
32206,60658,3
32244,60647,5
32209,60658,5
32198,60657,5
32195,60650,5
32223,60642,4
32204,60652,5
32198,60645,5
32195,60639,5
32201,60638,5
32193,60637,4
32198,60634,5
32200,60634,5
32195,60608,5
32194,60628,4
32194,60629,5
32198,60636,5
32198,60607,5
32202,60646,5
32200,60637,4
32206,60643,6
32198,60610,4
32202,60645,5
32193,60648,5
32196,60634,6
32199,60666,3
32201,60642,5
32193,60642,5
32207,60639,5
32194,60678,4
32191,60623,5
32193,60621,5
32190,60616,5
32182,60651,4
32183,60609,4
32178,60598,5
32170,60585,5
32178,60601,5
32163,60589,4
32170,60581,5
32163,60578,5
32167,60579,5
32165,60590,5
32166,60588,4
32174,60587,5
32169,60588,6
32179,60596,4
32180,60591,5
32175,60587,4
32175,60595,5
32172,60599,5
32178,60596,5
32165,60599,5
32177,60607,4
32167,60607,5
32169,60596,5
32179,60610,5
32176,60599,4
32182,60606,4
32170,60602,5
32179,60597,5
32172,60596,5
32175,60595,4
32175,60602,5
32164,60587,5
32166,60591,5
32174,60591,5
32170,60592,4
32162,60587,5
32169,60590,5
32164,60587,6
32163,60582,4
32165,60579,4
32159,60580,5
32162,60580,5
32176,60588,5
32158,60587,5
32169,60587,4
32166,60587,5
32173,60584,5
32171,60592,5
32167,60599,4
32172,60593,4
32170,60593,5
32167,60607,5
32168,60600,5
32171,60601,4
32171,60603,5
32176,60611,5
32177,60603,5
32180,60608,5
32176,60607,5
32182,60610,4
32178,60606,5
32178,60610,5
32173,60608,6
32177,60603,3
32173,60610,5
32173,60606,5
32174,60598,5
32166,60598,5
32169,60587,4
32171,60594,5
32162,60588,5
32167,60593,5
32167,60581,4
32160,60593,4
32162,60580,5
32159,60582,5
32161,60585,5
32156,60588,4
32156,60577,5
32160,60580,5
32155,60582,5
32152,60578,5
32158,60590,4
32167,60583,6
32156,60592,4
32146,60578,5
32153,60574,5
32147,60572,4
32151,60559,5
32127,60555,5
32145,60560,5
32139,60543,5
32129,60542,4
32098,60530,5
32132,60521,5
32130,60524,5
32132,60527,4
32094,60515,4
32125,60524,5
32125,60524,5
32141,60527,5
32130,60531,4
32131,60526,5
32130,60539,5
32129,60523,5
32168,60535,5
32133,60534,4
32123,60531,5
32130,60530,6
32163,60535,4
32128,60526,5
32124,60525,4
32124,60529,5
32141,60523,5
32127,60519,6
32127,60523,4
32141,60526,4
32129,60519,5
32117,60526,5
32126,60526,5
32129,60514,4
32123,60492,4
32115,60516,5
32119,60515,5
32118,60512,5
32116,60466,4
32116,60498,5
32106,60505,5
32105,60496,5
32105,60480,5
32101,60491,4
32109,60490,5
32106,60486,5
32096,60511,6
32104,60484,4
32099,60489,4
32102,60486,5
32103,60531,5
32103,60486,5
32102,60492,5
32106,60492,4
32111,60524,5
32112,60488,5
32106,60498,5
32116,60507,4
32101,60516,4
32110,60497,5
32112,60500,5
32107,60498,5
32108,60498,4
32101,60498,5
32103,60495,5
32109,60494,5
32098,60497,5
32093,60489,5
32097,60484,4
32099,60486,5
32095,60481,5
32090,60475,5
32093,60469,4
32096,60475,5
32081,60460,5
32091,60461,5
32089,60470,5
32094,60464,4
32081,60458,5
32083,60447,5
32076,60454,5
32085,60461,4
32085,60457,4
32086,60468,5
32077,60455,5
32085,60457,5
32078,60447,4
32074,60445,5
32076,60435,5
32078,60433,5
32074,60431,5
32070,60413,4
32061,60410,6
32073,60410,4
32063,60401,5
32064,60410,5
32062,60404,4
32058,60402,5
32066,60398,5
32063,60404,5
32056,60404,5
32064,60406,4
32054,60404,5
32054,60398,5
32061,60407,5
32056,60408,4
32066,60403,4
32061,60403,5
32063,60409,5
32065,60409,5
32063,60406,4
32078,60409,5
32064,60416,5
32060,60405,5
32066,60418,5
32068,60422,4
32078,60425,5
32065,60417,6
32064,60420,4
32070,60424,5
32068,60426,4
32076,60426,5
32072,60428,5
32074,60422,5
32077,60430,5
32080,60431,4
32078,60442,5
32079,60443,5
32085,60428,5
32080,60434,4
32085,60431,4
32076,60434,5
32083,60429,5
32082,60430,5
32073,60435,4
32081,60429,5
32083,60444,5
32076,60428,5
32071,60437,5
32075,60418,4
32072,60411,5
32066,60405,5
32062,60398,5
32038,60392,5
32044,60383,4
32047,60390,5
32055,60379,5
32015,60389,5
32048,60389,5
32051,60386,4
32043,60382,5
32010,60387,5
32054,60392,5
32047,60398,4
32063,60401,4
32070,60401,5
32062,60412,5
32066,60420,5
32062,60430,4
32110,60421,5
32077,60443,4
32075,60450,5
32083,60452,5
32136,60457,6
32097,60459,3
32094,60471,5
32098,60490,5
32127,60497,5
32102,60487,4
32110,60493,5
32117,60489,5
32113,60490,5
32121,60501,5
32114,60499,4
32117,60493,5
32112,60463,5
32117,60480,5
32113,60494,4
32113,60493,4
32126,60450,5
32122,60490,5
32125,60505,5
32126,60496,5
32131,60477,4
32111,60502,6
32124,60505,4
32128,60505,5
32123,60525,4
32125,60509,7
32120,60516,3
32131,60521,5
32134,60555,5
32135,60522,4
32143,60521,5
32134,60522,5
32134,60559,5
32141,60533,5
32126,60526,4
32136,60529,5
32141,60540,5
32133,60531,5
32139,60545,4
32131,60527,4
32139,60532,5
32138,60527,5
32139,60533,5
32136,60533,4
32143,60531,5
32138,60538,5
32136,60539,6
32141,60527,4
32140,60525,4
32135,60526,5
32138,60531,5
32137,60521,5
32133,60531,5
32138,60534,4
32129,60529,5
32134,60530,5
32139,60532,5
32141,60540,5
32135,60527,4
32144,60530,5
32144,60535,5
32137,60534,5
32143,60532,4
32139,60539,4
32139,60543,5
32146,60543,5
32139,60549,5
32151,60544,5
32146,60547,4
32144,60554,5
32149,60560,5
32149,60557,6
32156,60560,3
32158,60554,5
32153,60558,5
32149,60554,5
32144,60567,5
32152,60554,4
32156,60559,5
32153,60567,5
32157,60570,5
32152,60560,5
32142,60561,4
32150,60557,5
32150,60554,5
32146,60554,5
32146,60546,4
32151,60541,4
32152,60541,5
32151,60550,5
32151,60545,5
32144,60539,4
32154,60542,6
32151,60547,4
32143,60550,5
32144,60547,5
32150,60551,6
32148,60561,3
32150,60554,5
32151,60558,5
32162,60572,5
32152,60573,4
32166,60577,5
32165,60585,5
32174,60597,5
32166,60598,5
32179,60599,4
32182,60598,5
32163,60593,5
32167,60587,5
32168,60580,4
32170,60573,4
32160,60577,5
32152,60557,5
32158,60562,5
32159,60556,4
32158,60563,5
32148,60556,6
32164,60562,4
32158,60560,5
32170,60557,4
32140,60566,5
32159,60562,5
32156,60566,5
32155,60566,5
32124,60565,4
32166,60563,5
32165,60570,5
32159,60574,5
32123,60564,5
32163,60575,4
32170,60577,5
32170,60577,5
32169,60569,5
32169,60585,4
32169,60579,4
32171,60584,5
32208,60586,5
32177,60585,5
32169,60587,4
32176,60590,5
32210,60595,5
32176,60582,6
32176,60596,4
32174,60593,4
32187,60586,5
32177,60590,5
32183,60603,5
32179,60604,5
32175,60594,4
32179,60594,5
32176,60600,5
32185,60592,5
32181,60577,5
32180,60595,4
32178,60603,5
32181,60607,5
32187,60572,5
32184,60594,4
32182,60596,4
32185,60604,5
32188,60581,5
32183,60615,5
32188,60614,5
32189,60610,5
32186,60634,4
32191,60617,5
32192,60619,6
32194,60616,3
32190,60666,5
32202,60626,5
32195,60640,5
32196,60619,5
32192,60671,4
32199,60645,5
32199,60634,5
32194,60635,5
32191,60655,5
32205,60645,4
32196,60647,5
32206,60643,5
32207,60647,5
32204,60642,4
32204,60649,4
32198,60639,5
32199,60643,5
32202,60645,5
32204,60640,4
32203,60649,6
32201,60645,4
32198,60650,5
32206,60660,5
32208,60660,4
32211,60651,5
32204,60655,5
32208,60658,5
32198,60655,5
32207,60647,4
32203,60651,5
32206,60654,5
32209,60649,5
32201,60654,5
32209,60664,4
32205,60655,5
32209,60654,5
32205,60652,5
32210,60640,4
32196,60642,4
32200,60636,5
32194,60640,5
32190,60635,5
32203,60627,4
32194,60632,5
32200,60632,6
32188,60639,4
32202,60624,5
32195,60635,4
32197,60631,5
32199,60640,5
32202,60644,5
32204,60643,5
32207,60647,4
32216,60650,5
32210,60664,5
32206,60671,5
32217,60665,5
32212,60676,4
32217,60675,5
32226,60675,5
32217,60677,5
32207,60652,4
32210,60654,4
32212,60654,5
32204,60653,5
32199,60645,5
32202,60644,4
32201,60630,5
32197,60640,5
32193,60630,5
32192,60625,5
32193,60629,4
32191,60623,5
32188,60622,5
32196,60626,5
32203,60630,5
32200,60624,4
32205,60631,5
32204,60634,5
32208,60638,5
32206,60630,5
32207,60632,4
32199,60634,5
32203,60639,5
32202,60643,5
32206,60632,4
32206,60638,4
32206,60632,5
32204,60634,5
32199,60636,5
32204,60634,5
32203,60645,4
32202,60637,5
32184,60637,5
32210,60645,5
32203,60650,4
32209,60645,5
32166,60650,5
32199,60644,5
32204,60647,5
32214,60655,4
32166,60638,5
32204,60644,5
32212,60645,5
32205,60643,5
32216,60652,4
32212,60644,5
32198,60639,5
32203,60651,5
32244,60639,4
32207,60639,4
32207,60645,5
32215,60645,9
32247,60644,1
32209,60624,4
32212,60652,6
32206,60653,4
32225,60651,5
32218,60660,5
32210,60660,4
32208,60652,5
32212,60647,5
32211,60654,5
32211,60666,5
32211,60661,4
32218,60641,5
32217,60670,5
32221,60670,5
32216,60672,5
32225,60631,4
32227,60673,5
32216,60677,5
32219,60671,5
32221,60663,4
32211,60682,4
32221,60677,5
32218,60674,6
32214,60697,4
32225,60676,4
32223,60674,5
32230,60671,7
32215,60709,3
32216,60673,5
32212,60675,4
32221,60676,5
32224,60702,5
32218,60678,5
32217,60682,5
32219,60687,4
32218,60686,5
32228,60670,5
32213,60677,5
32220,60671,5
32214,60662,4
32211,60666,5
32216,60653,5
32216,60653,5
32208,60658,4
32209,60647,5
32209,60660,5
32204,60654,5
32212,60653,5
32206,60654,4
32208,60656,5
32211,60655,5
32211,60654,5
32203,60661,5
32209,60656,4
32215,60655,5
32213,60659,5
32213,60666,5
32216,60669,5
32222,60667,4
32219,60674,5
32223,60673,5
32217,60667,5
32219,60665,5
32211,60669,4
32207,60655,5
32212,60659,5
32206,60648,5
32197,60639,4
32206,60638,6
32204,60627,4
32203,60631,5
32203,60621,5
32194,60633,6
32195,60622,3
32187,60624,5
32189,60611,5
32182,60616,5
32186,60619,4
32193,60609,5
32187,60615,5
32195,60615,5
32194,60616,5
32196,60628,4
32190,60614,5
32195,60626,5
32187,60629,5
32205,60628,5
32197,60623,4
32190,60628,5
32191,60620,5
32197,60625,5
32192,60619,4
32192,60615,4
32192,60622,6
32189,60622,4
32201,60628,5
32195,60625,4
32189,60619,7
32195,60615,3
32194,60610,5
32194,60611,5
32191,60617,4
32185,60610,5
32188,60606,5
32190,60607,5
32186,60597,5
32187,60599,4
32181,60592,5
32175,60575,5
32172,60578,5
32166,60582,5
32172,60580,4
32161,60574,5
32166,60566,5
32167,60573,5
32162,60561,4
32157,60566,4
32154,60557,5
32158,60554,6
32161,60552,4
32134,60553,4
32146,60553,5
32151,60538,5
32158,60530,5
32109,60526,5
32130,60520,4
32128,60515,5
32122,60515,5
32098,60502,5
32124,60498,5
32118,60497,4
32117,60498,5
32131,60485,5
32109,60479,5
32104,60484,5
32105,60472,4
32128,60453,5
32095,60448,5
32085,60432,5
32076,60425,5
32113,60417,4
32064,60402,5
32061,60402,5
32059,60390,6
32069,60379,3
32048,60368,5
32045,60365,5
32032,60354,5
32039,60343,5
32036,60346,4
32024,60332,5
32031,60331,5
32013,60280,5
32011,60307,5
32014,60302,4
32002,60297,5
32002,60248,5
31987,60278,5
31987,60270,5
31987,60257,4
31975,60236,4
31974,60242,5
31967,60240,5
31960,60224,4
31968,60243,5
31956,60223,4
31957,60218,5
31966,60221,5
31951,60267,6
31967,60221,3
31960,60234,5
31970,60229,5
31964,60270,5
31979,60245,4
31979,60249,5
31982,60256,5
31975,60275,5
31992,60277,5
31990,60274,4
31994,60292,5
32004,60298,5
32001,60292,5
32003,60305,5
32011,60308,4
32008,60312,5
32008,60333,5
32016,60322,5
32013,60317,4
32020,60328,5
32029,60333,6
32030,60339,4
32030,60350,5
32045,60353,4
32039,60356,5
32040,60360,5
32040,60365,5
32046,60375,5
32053,60377,4
32055,60381,5
32052,60387,5
32061,60396,5
32071,60411,5
32066,60407,4
32056,60404,5
32059,60395,5
32060,60396,5
32055,60397,5
32057,60405,4
32058,60393,5
32064,60399,5
32055,60401,5
32060,60394,4
32063,60392,5
32052,60396,5
32059,60408,6
32055,60389,4
32057,60386,4
32056,60397,5
32059,60388,5
32043,60379,5
32043,60373,5
32046,60368,4
32045,60376,5
32050,60372,5
32034,60359,5
32041,60359,5
32040,60359,4
32030,60358,5
32034,60343,5
32030,60345,5
32032,60333,5
32024,60339,4
32027,60329,5
32032,60333,5
32020,60328,5
32027,60339,5
32023,60335,4
32023,60344,5
32024,60338,5
32027,60340,6
32023,60344,3
32021,60341,5
32020,60326,5
32019,60340,5
32021,60341,5
32021,60340,4
32018,60352,5
32021,60346,5
32018,60342,5
32015,60343,5
32014,60338,4
32010,60327,5
32011,60327,5
32005,60331,5
32006,60321,5
32003,60315,4
32001,60300,5
31988,60294,5
31985,60281,5
31980,60268,4
31975,60257,5
31949,60258,4
31965,60261,5
31966,60256,5
31962,60254,4
31923,60245,5
31961,60240,5
31959,60247,5
31967,60241,5
31916,60237,4
31954,60242,5
31961,60235,5
31952,60240,5
31964,60242,5
31956,60243,4
31953,60236,5
31951,60236,5
31988,60243,5
31960,60242,5
31951,60234,4
31948,60231,5
31977,60235,5
31943,60221,5
31949,60222,4
31941,60213,4
31944,60208,6
31933,60208,4
31931,60197,5
31925,60199,4
31922,60186,5
31925,60183,5
31925,60178,5
31920,60183,5
31918,60154,4
31919,60180,5
31918,60180,5
31923,60185,5
31922,60151,5
31927,60201,4
31928,60202,5
31933,60199,5
31933,60182,5
31923,60199,5
31930,60210,4
31934,60211,5
31933,60238,5
31933,60217,5
31926,60222,4
31937,60216,4
31929,60255,5
31936,60206,6
31934,60217,4
31926,60208,4
31927,60237,5
31923,60211,5
31930,60212,5
31929,60206,5
31930,60208,4
31930,60203,5
31929,60196,5
31920,60195,5
31918,60190,5
31919,60181,4
31913,60187,5
31913,60174,5
31917,60177,5
31906,60173,5
31902,60169,4
31908,60164,5
31911,60173,5
31895,60170,5
31911,60169,5
31904,60183,4
31909,60182,5
31906,60193,5
31921,60189,5
31920,60188,4
31913,60187,5
31920,60198,5
31921,60190,5
31921,60188,5
31918,60184,4
31915,60182,5
31913,60189,5
31913,60179,5
31913,60181,5
31911,60181,4
31910,60179,5
31903,60179,5
31900,60175,5
31897,60173,5
31900,60167,4
31903,60172,5
31898,60171,5
31902,60158,5
31898,60162,4
31889,60145,5
31887,60149,4
31895,60148,5
31883,60141,5
31886,60133,4
31880,60141,5
31883,60147,5
31888,60137,5
31887,60135,5
31886,60141,4
31891,60142,5
31889,60139,5
31888,60135,5
31880,60128,5
31877,60135,4
31881,60135,5
31874,60127,5
31871,60124,5
31868,60126,5
31869,60119,4
31864,60123,5
31866,60111,5
31866,60102,5
31867,60098,4
31854,60095,4
31849,60081,6
31849,60071,4
31843,60070,5
31838,60062,4
31843,60061,5
31845,60062,5
31833,60059,5
31835,60050,5
31835,60052,4
31827,60052,5
31831,60055,5
31829,60053,5
31838,60049,5
31826,60051,4
31830,60054,5
31843,60045,5
31838,60051,5
31831,60043,5
31832,60055,4
31835,60055,5
31833,60042,5
31813,60041,5
31826,60032,3
31824,60027,4
31819,60031,5
31794,60035,5
31829,60039,5
31819,60031,4
31827,60038,5
31791,60035,5
31822,60030,5
31824,60033,5
31826,60036,4
31835,60034,5
31825,60035,5
31816,60039,7
31823,60040,3
31852,60039,4
31821,60039,5
31828,60038,5
31825,60029,5
31866,60040,5
31822,60043,5
31830,60048,4
31826,60054,5
31853,60045,5
31836,60056,6
31838,60058,3
31838,60065,5
31847,60062,5
31842,60073,5
31840,60077,4
31846,60086,5
31840,60055,5
31850,60079,5
31851,60085,5
31852,60093,4
31858,60061,5
31858,60098,5
31865,60105,5
31860,60117,5
31865,60089,4
31861,60109,5
31871,60117,5
31871,60108,5
31865,60132,5
31871,60113,4
31869,60100,6
31866,60100,4
31866,60150,5
31866,60111,5
31874,60116,6
31877,60127,3
31879,60146,5
31883,60142,5
31879,60138,4
31895,60148,5
31899,60184,5
31908,60182,5
31915,60200,5
31916,60212,4
31930,60222,5
31935,60228,5
31940,60234,5
31933,60236,5
31930,60231,4
31932,60235,5
31938,60224,5
31933,60215,5
31923,60219,5
31931,60225,4
31928,60221,5
31930,60220,6
31939,60220,4
31934,60208,5
31930,60212,4
31936,60213,5
31940,60218,5
31946,60222,5
31935,60219,4
31930,60219,5
31939,60226,5
31947,60226,5
31935,60220,5
31930,60227,4
31943,60226,5
31941,60233,5
31943,60237,5
31944,60234,5
31947,60241,4
31950,60245,5
31954,60241,5
31954,60259,5
31956,60261,5
31962,60268,4
31953,60262,5
31955,60260,5
31965,60268,6
31958,60264,4
31969,60264,4
31961,60267,5
31966,60268,5
31962,60269,5
31960,60271,4
31957,60277,4
31961,60268,5
31961,60268,5
31964,60263,5
31957,60251,4
31961,60255,5
31964,60252,5
31958,60255,5
31959,60260,5
31956,60257,4
31970,60259,5
31967,60270,5
31973,60274,5
31965,60271,5
31967,60280,5
31972,60279,4
31971,60283,5
31970,60292,5
31972,60293,6
31973,60293,3
31979,60291,5
31987,60298,5
31982,60303,5
31982,60303,4
31981,60301,4
31975,60312,5
31987,60306,5
31987,60298,5
31980,60304,4
31981,60297,5
31979,60295,5
31982,60302,5
31976,60294,5
31960,60283,4
31976,60283,5
31966,60273,5
31968,60277,5
31961,60271,5
31960,60269,4
31964,60271,6
31972,60275,4
31971,60266,5
31938,60279,5
31965,60270,4
31965,60272,5
31964,60283,5
31942,60283,5
31979,60285,4
31972,60291,4
31982,60301,5
31987,60308,5
31985,60311,5
31989,60301,4
31984,60306,5
32019,60302,5
31979,60297,5
31977,60298,5
31973,60284,4
32013,60284,5
31968,60275,5
31975,60263,5
31974,60261,5
31978,60270,4
31967,60257,5
31963,60267,6
31968,60268,4
31976,60264,5
31971,60264,4
31966,60257,5
31970,60274,5
31964,60251,5
31973,60277,4
31974,60273,4
31977,60281,5
31965,60242,5
31969,60280,5
31974,60288,4
31972,60292,5
31985,60274,5
31984,60292,5
31985,60295,5
31990,60296,4
31992,60320,5
31999,60305,5
31989,60307,5
31997,60314,5
31997,60353,4
32000,60320,5
32004,60316,5
31991,60321,6
32001,60352,4
31994,60316,4
32005,60325,5
32002,60319,5
32001,60330,5
32006,60319,4
32003,60316,4
31999,60310,5
31993,60316,5
32003,60313,5
32000,60312,4
31999,60320,5
31991,60307,5
32000,60314,5
31992,60311,5
32000,60318,4
31996,60319,5
32000,60314,5
31997,60317,5
32000,60314,5
32003,60320,5
32007,60332,4
32004,60333,5
32006,60327,5
32003,60338,5
32009,60328,4
32007,60339,5
32018,60346,5
32016,60347,5
32019,60347,4
32014,60346,4
32016,60346,5
32014,60349,5
32013,60353,5
32020,60352,4
32019,60348,5
32015,60359,5
32010,60359,5
32016,60346,5
32016,60351,4
32011,60350,5
32014,60353,5
32021,60356,5
32022,60358,5
32018,60353,4
32016,60347,6
32020,60355,4
32010,60352,5
32023,60356,5
32016,60345,4
32016,60346,5
32014,60342,5
32006,60343,5
32008,60335,4
32014,60330,4
32008,60336,5
32017,60331,5
32008,60334,5
32016,60333,4
32007,60339,5
32001,60340,5
32007,60339,5
32015,60336,5
32015,60348,4
32014,60344,5
32018,60345,5
32018,60355,5
32017,60358,5
32015,60354,4
32018,60358,5
32030,60363,6
32022,60368,4
32022,60363,5
32021,60369,4
32021,60364,5
32015,60347,5
32018,60350,5
32011,60354,4
32019,60346,5
32012,60335,5
32003,60321,5
32005,60325,5
32008,60326,4
32006,60329,5
32007,60319,5
32005,60326,5
32012,60327,5
32009,60317,4
32008,60326,5
31978,60326,5
32012,60325,5
32012,60338,5
32010,60336,4
31975,60333,5
32008,60343,5
32014,60335,5
32004,60331,4
31991,60336,4
32006,60341,5
32011,60332,5
32018,60337,5
32030,60339,4
32010,60336,5
32012,60342,5
32016,60338,5
32053,60334,5
32016,60338,4
32010,60352,5
32019,60338,5
32043,60343,5
32010,60349,5
32014,60348,4
32011,60345,6
32023,60343,4
32021,60338,5
32017,60347,5
32012,60335,6
32012,60326,3
32020,60345,5
32016,60336,5
32018,60345,4
32015,60309,4
32012,60344,5
32012,60341,5
32020,60341,5
32015,60305,4
32013,60341,5
32006,60343,5
32013,60345,5
32006,60350,5
32021,60337,4
32009,60345,5
32027,60345,5
32025,60381,5
32012,60348,5
32017,60343,4
32020,60346,5
32024,60398,5
32017,60357,5
32010,60355,5
32023,60358,4
32027,60371,6
32027,60365,4
32026,60351,5
32016,60357,4
32019,60361,4
32027,60357,5
32026,60363,5
32020,60360,5
32020,60353,4
32019,60348,5
32029,60363,5
32030,60357,5
32032,60357,5
32019,60356,4
32019,60362,5
32025,60352,5
32028,60358,5
32022,60353,5
32013,60361,4
32019,60363,5
32020,60359,5
32018,60356,6
32023,60356,4
32018,60357,4
32016,60355,5
32017,60342,5
32009,60344,5
32013,60350,4
32016,60348,4
32013,60341,5
32012,60343,5
32010,60340,5
32009,60333,4
32013,60336,5
32003,60336,5
32014,60332,5
32016,60331,5
32011,60327,4
32016,60333,5
32007,60331,5
32016,60343,5
32012,60337,5
32009,60339,5
32008,60336,4
32013,60330,5
32003,60325,5
32002,60307,6
31990,60305,3
31988,60289,5
31986,60275,5
31983,60270,5
31970,60257,4
31960,60243,5
31961,60235,5
31943,60227,5
31943,60211,5
31936,60210,4
31940,60202,5
31933,60201,5
31934,60190,5
31930,60185,5
31928,60180,4
31924,60178,5
31926,60172,5
31916,60153,5
31904,60150,5
31912,60147,4
31899,60136,6
31905,60122,4
31891,60116,5
31888,60104,4
31874,60090,6
31875,60090,3
31874,60078,5
31867,60061,5
31863,60060,4
31853,60053,5
31853,60051,5
31843,60033,5
31837,60024,5
31841,60011,4
31835,60001,5
31827,60005,5
31823,59985,5
31813,59983,5
31787,59970,4
31807,59973,5
31794,59954,5
31797,59950,5
31759,59944,5
31786,59935,4
31790,59923,5
31777,59923,6
31734,59903,4
31763,59898,4
31772,59891,4
31762,59876,5
31759,59875,5
31757,59867,5
31744,59855,4
31747,59850,5
31771,59854,5
31738,59852,5
31739,59851,5
31737,59840,4
31770,59842,5
31732,59851,5
31740,59854,5
31732,59851,5
31752,59855,4
31738,59854,5
31736,59854,5
31740,59859,5
31746,59866,5
31745,59866,4
31742,59868,5
31748,59877,5
31756,59861,6
31759,59890,3
31758,59912,4
31773,59918,5
31774,59894,5
31785,59939,5
31791,59955,4
31796,59971,5
31805,59963,5
31815,60007,5
31825,60015,5
31828,60021,5
31838,60062,4
31841,60058,5
31849,60072,5
31854,60082,5
31860,60135,4
31868,60107,5
31869,60103,5
31882,60110,5
31884,60149,5
31877,60118,5
31888,60123,4
31878,60119,5
31879,60137,5
31891,60133,6
31889,60135,3
31894,60142,5
31891,60151,5
31904,60144,5
31897,60146,4
31913,60160,5
31900,60166,5
31912,60167,5
31915,60172,5
31920,60182,4
31917,60189,5
31918,60199,5
31926,60190,5
31928,60204,5
31921,60201,4
31927,60216,5
31934,60204,5
31936,60210,5
31937,60204,5
31924,60202,4
31926,60204,6
31936,60198,4
31935,60194,5
31930,60197,4
31927,60197,4
31930,60194,5
31927,60198,5
31932,60201,5
31930,60196,4
31939,60190,5
31927,60187,5
31931,60184,5
31930,60188,5
31921,60183,4
31919,60181,5
31931,60190,5
31938,60190,5
31937,60187,5
31934,60187,4
31928,60184,5
31934,60186,5
31931,60186,5
31918,60187,5
31931,60187,4
31926,60177,5
31924,60175,6
31923,60178,4
31922,60177,4
31922,60182,5
31925,60179,5
31926,60179,5
31921,60181,5
31920,60179,4
31923,60178,5
31913,60173,5
31924,60172,5
31929,60175,5
31926,60180,4
31914,60173,5
31911,60159,5
31913,60155,5
31914,60154,5
31905,60156,4
31904,60155,5
31911,60151,5
31907,60153,5
31904,60158,5
31909,60155,4
31906,60149,5
31912,60156,5
31913,60165,6
31916,60154,3
31915,60167,5
31914,60173,5
31917,60172,5
31914,60185,5
31917,60180,4
31919,60190,5
31928,60189,5
31915,60193,5
31928,60205,5
31935,60204,4
31932,60207,5
31897,60199,5
31936,60203,5
31934,60209,5
31925,60196,4
31892,60210,5
31922,60198,5
31925,60203,5
31924,60196,4
31915,60186,5
31914,60193,4
31921,60184,5
31919,60182,5
31938,60176,4
31900,60166,5
31901,60167,5
31918,60166,5
31949,60157,5
31900,60161,4
31905,60156,5
31910,60151,5
31931,60165,5
31900,60151,5
31899,60157,4
31902,60170,5
31905,60161,5
31908,60168,5
31902,60163,5
31903,60169,4
31906,60147,5
31904,60157,5
31912,60157,5
31899,60160,4
31907,60121,4
31903,60161,6
31902,60157,4
31900,60154,5
31898,60111,4
31898,60148,5
31893,60146,5
31887,60137,5
31883,60140,5
31889,60122,4
31886,60114,5
31883,60108,5
31876,60153,5
31882,60109,5
31873,60108,4
31882,60114,5
31882,60152,5
31883,60120,5
31885,60107,5
31889,60118,4
31877,60133,5
31880,60110,5
31881,60122,5
31882,60113,4
31885,60114,4
31878,60115,5
31881,60098,5
31883,60100,5
31871,60104,4
31877,60096,5
31865,60102,5
31868,60094,5
31870,60106,5
31869,60093,4
31867,60096,5
31868,60090,5
31870,60084,5
31870,60075,5
31864,60081,4
31862,60078,5
31859,60067,5
31847,60057,5
31851,60060,5
31841,60046,4
31838,60039,5
31841,60039,5
31838,60030,5
31829,60010,5
31828,60005,4
31824,60008,5
31821,60010,5
31820,60002,5
31810,59992,4
31821,60001,5
31823,60012,5
31820,60013,5
31818,60011,5
31830,60017,4
31829,60009,5
31825,60015,5
31834,60031,5
31825,60031,5
31829,60034,4
31829,60032,5
31835,60030,5
31831,60022,5
31826,60014,4
31812,60014,4
31815,60011,5
31813,60007,5
31818,59997,5
31814,60001,4
31804,59992,6
31810,59992,4
31803,59977,5
31795,59976,5
31788,59955,4
31791,59957,5
31779,59939,5
31770,59931,5
31770,59924,5
31760,59915,4
31761,59916,5
31754,59904,5
31747,59903,5
31746,59895,5
31744,59879,4
31737,59883,5
31732,59870,5
31735,59873,5
31725,59867,4
31719,59854,4
31722,59847,5
31719,59850,5
31712,59832,4
31717,59823,4
31701,59811,5
31704,59812,5
31706,59810,5
31694,59799,5
31694,59798,4
31692,59785,5
31686,59783,5
31679,59776,5
31683,59787,5
31653,59767,4
31676,59761,5
31666,59761,5
31666,59761,5
31638,59749,5
31672,59741,4
31663,59745,5
31663,59734,5
31634,59738,5
31652,59726,5
31654,59724,4
31650,59724,5
31666,59727,5
31652,59718,6
31646,59707,3
31639,59703,5
31674,59688,5
31636,59684,5
31629,59690,5
31625,59681,4
31660,59675,5
31616,59670,5
31619,59669,5
31612,59663,5
31627,59662,4
31610,59656,5
31612,59652,5
31613,59646,5
31615,59635,5
31602,59646,4
31611,59640,5
31608,59640,5
31596,59609,5
31602,59624,4
31596,59635,5
31597,59622,4
31594,59591,5
31599,59627,5
31598,59618,6
31600,59634,3
31596,59620,5
31592,59619,5
31597,59620,5
31595,59612,4
31595,59642,5
31580,59609,5
31584,59602,5
31584,59600,5
31583,59646,4
31583,59594,5
31579,59595,5
31579,59604,5
31581,59622,5
31581,59590,4
31574,59599,5
31571,59585,5
31567,59586,5
31565,59568,4
31571,59576,4
31561,59568,6
31567,59568,4
31572,59573,5
31566,59579,4
31563,59581,5
31564,59570,5
31566,59578,5
31574,59570,5
31573,59583,4
31566,59571,5
31560,59571,5
31563,59568,5
31557,59571,5
31554,59572,4
31561,59560,5
31559,59549,5
31561,59559,5
31560,59548,5
31564,59551,4
31565,59554,5
31561,59556,5
31560,59548,5
31561,59555,4
31558,59550,4
31555,59545,5
31565,59541,6
31556,59558,4
31558,59558,4
31559,59555,5
31572,59571,5
31569,59581,5
31572,59587,5
31578,59583,4
31586,59588,5
31582,59582,5
31581,59604,5
31584,59608,5
31590,59610,4
31594,59613,5
31601,59615,5
31593,59627,5
31607,59626,5
31609,59635,4
31609,59650,5
31612,59650,5
31619,59655,5
31623,59654,5
31622,59657,4
31615,59653,5
31618,59659,5
31615,59657,6
31625,59661,3
31627,59669,5
31623,59670,5
31631,59661,5
31620,59659,5
31626,59659,4
31628,59664,5
31621,59662,5
31626,59674,5
31630,59676,5
31622,59677,4
31633,59683,5
31630,59684,5
31632,59684,5
31640,59687,5
31631,59688,4
31637,59687,5
31634,59698,5
31643,59694,5
31642,59696,4
31644,59697,5
31639,59705,4
31638,59707,5
31646,59698,5
31655,59710,4
31650,59706,5
31648,59716,5
31639,59711,5
31643,59711,5
31651,59715,4
31649,59723,5
31626,59725,5
31650,59739,5
31664,59730,5
31668,59743,4
31629,59751,5
31658,59754,5
31676,59756,5
31671,59760,5
31653,59768,4
31686,59780,5
31683,59788,5
31682,59786,8
31710,59798,1
31683,59783,4
31685,59782,6
31684,59790,4
31733,59790,5
31696,59792,4
31698,59795,5
31706,59794,5
31724,59803,5
31702,59800,5
31707,59809,4
31702,59806,5
31714,59811,5
31715,59812,5
31713,59823,5
31708,59822,4
31724,59821,5
31729,59846,5
31730,59851,5
31735,59845,5
31736,59832,4
31736,59869,5
31745,59873,5
31753,59882,5
31752,59859,4
31756,59901,4
31770,59910,5
31765,59918,6
31769,59899,4
31765,59917,4
31771,59929,5
31779,59924,5
31784,59958,5
31783,59936,5
31783,59947,4
31797,59946,5
31788,59993,5
31797,59955,5
31791,59960,5
31799,59958,4
31803,59988,5
31792,59971,5
31797,59965,5
31797,59967,5
31806,59972,4
31806,59968,5
31804,59967,5
31813,59975,5
31812,59989,5
31810,59983,4
31820,59983,5
31813,59993,5
31820,59991,5
31810,59990,4
31824,59991,5
31823,59991,5
31825,59998,5
31821,60013,5
31822,60009,4
31829,60005,5
31827,60010,5
31825,60021,5
31824,60019,5
31836,60023,4
31831,60024,5
31834,60025,5
31837,60019,5
31833,60021,5
31833,60009,4
31837,60022,5
31832,60015,5
31830,60008,5
31835,60016,4
31834,60019,5
31824,60012,4
31838,60016,5
31826,60009,5
31829,60009,4
31834,60019,5
31830,60017,5
31838,60018,5
31838,60024,5
31846,60035,4
31837,60037,5
31838,60036,5
31843,60044,5
31837,60050,5
31848,60046,4
31847,60040,5
31847,60046,5
31851,60039,5
31844,60040,5
31844,60028,4
31842,60035,5
31842,60037,5
31840,60044,5
31844,60034,4
31847,60038,4
31850,60039,6
31845,60044,4
31850,60037,5
31849,60042,4
31849,60053,5
31849,60046,5
31855,60054,5
31854,60058,5
31851,60056,4
31858,60054,5
31855,60053,5
31858,60058,5
31850,60059,5
31866,60059,4
31861,60061,5
31863,60064,5
31876,60075,5
31870,60063,5
31865,60075,4
31860,60070,5
31868,60072,5
31875,60083,5
31877,60078,5
31871,60086,4
31875,60093,5
31883,60095,5
31873,60094,5
31870,60097,4
31885,60097,4
31883,60108,5
31885,60101,5
31861,60106,5
31888,60104,4
31887,60099,5
31890,60097,5
31855,60093,5
31881,60111,5
31882,60106,4
31890,60106,5
31861,60104,5
31887,60115,5
31896,60115,5
31896,60113,5
31912,60117,4
31903,60119,5
31909,60129,5
31903,60128,5
31942,60138,4
31904,60135,5
31909,60137,5
31911,60144,5
31944,60153,4
31902,60139,5
31913,60161,5
31913,60148,5
31923,60154,5
31911,60151,4
31922,60154,5
31917,60157,5
31920,60158,5
31913,60165,5
31921,60171,4
31926,60175,5
31928,60143,5
31926,60173,5
31913,60175,5
31925,60186,4
31933,60140,5
31929,60179,5
31925,60182,5
31929,60187,5
31934,60174,5
31918,60181,4
31922,60181,5
31921,60179,5
31928,60212,4
31923,60175,4
31927,60166,5
31917,60173,5
31926,60213,5
31924,60171,4
31921,60176,5
31917,60162,5
31917,60187,5
31917,60170,5
31920,60165,4
31917,60168,5
31926,60178,5
31927,60167,5
31923,60170,5
31930,60176,4
31920,60175,5
31926,60174,6
31927,60190,4
31931,60180,5
31938,60191,4
31935,60199,7
31932,60196,3
31934,60202,5
31929,60210,4
31940,60194,4
31941,60189,5
31939,60197,5
31942,60198,5
31935,60184,4
31936,60183,5
31930,60175,5
31927,60176,5
31933,60179,5
31920,60179,4
31927,60177,5
31924,60165,5
31922,60160,5
31924,60173,5
31919,60170,4
31924,60179,5
31930,60175,5
31935,60171,6
31930,60174,4
31923,60177,4
31924,60167,5
31926,60174,5
31932,60175,5
31929,60173,4
31929,60174,4
31927,60175,5
31930,60164,5
31932,60172,5
31929,60176,4
31928,60180,5
31935,60182,5
31938,60178,5
31943,60179,5
31935,60189,4
31929,60186,5
31931,60184,5
31931,60186,5
31934,60181,5
31939,60188,5
31933,60180,4
31937,60188,5
31938,60179,5
31933,60181,6
31937,60190,3
31938,60187,5
31935,60190,5
31935,60192,5
31936,60194,4
31939,60197,4
31931,60192,5
31935,60194,5
31947,60185,5
31940,60184,4
31938,60183,5
31938,60184,5
31944,60197,5
31937,60194,5
31932,60192,4
31941,60191,5
31938,60188,5
31944,60190,5
31945,60197,5
31946,60192,4
31938,60200,6
31937,60202,4
31947,60208,5
31947,60198,5
31950,60206,6
31943,60207,3
31947,60201,5
31942,60195,5
31940,60194,4
31920,60201,4
31941,60196,5
31944,60196,5
31949,60195,5
31901,60200,4
31948,60195,5
31947,60190,5
31933,60191,5
31916,60200,5
31941,60199,4
31941,60188,5
31945,60192,5
31951,60186,5
31945,60183,5
31929,60179,4
31940,60176,5
31966,60172,6
31922,60166,4
31922,60172,5
31923,60154,4
31954,60154,5
31923,60163,5
31917,60158,5
31915,60154,5
31931,60155,4
31921,60153,5
31920,60153,5
31917,60144,5
31917,60139,4
31913,60139,5
31909,60132,5
31914,60143,5
31907,60103,5
31904,60144,4
31908,60140,5
31909,60144,5
31904,60096,5
31899,60125,5
31898,60126,4
31898,60110,5
31886,60098,5
31888,60092,6
31884,60091,4
31882,60090,4
31872,60109,5
31878,60063,5
31863,60064,5
31863,60052,5
31857,60087,4
31856,60043,5
31844,60015,5
31848,60022,5
31839,60035,4
31839,60001,4
31837,59995,5
31831,59984,5
31826,59980,5
31813,59972,4
31818,59957,5
31801,59954,5
31802,59939,5
31790,59941,5
31797,59936,5
31795,59919,4
31788,59902,5
31768,59901,5
31775,59887,6
31762,59883,3
31768,59873,5
31759,59871,5
31756,59861,5
31746,59861,5
31745,59843,4
31740,59832,5
31741,59824,5
31737,59830,5
31731,59823,4
31730,59814,4
31724,59794,5
31717,59780,5
31708,59778,5
31705,59759,4
31696,59761,5
31686,59739,5
31695,59733,5
31685,59730,5
31676,59717,4
31671,59705,6
31660,59702,4
31661,59690,5
31652,59679,5
31644,59670,4
31647,59659,5
31642,59652,5
31643,59658,5
31641,59651,5
31635,59652,4
31636,59649,5
31630,59650,5
31631,59648,5
31633,59642,4
31630,59652,4
31630,59649,5
31625,59640,5
31637,59638,5
31630,59649,4
31631,59649,5
31628,59647,5
31632,59643,5
31628,59655,5
31626,59650,4
31631,59649,5
31630,59652,6
31638,59649,4
31629,59653,5
31628,59659,4
31637,59663,5
31632,59659,5
31637,59668,5
31637,59669,5
31651,59685,4
31650,59684,5
31658,59702,5
31664,59711,5
31659,59727,4
31675,59731,4
31683,59746,5
31688,59764,5
31694,59774,5
31707,59785,4
31712,59808,5
31721,59811,5
31724,59831,5
31721,59839,5
31728,59849,4
31746,59857,5
31750,59873,5
31745,59882,6
31756,59882,4
31755,59885,4
31761,59893,5
31740,59912,5
31770,59909,5
31768,59918,5
31777,59922,4
31751,59934,5
31786,59935,5
31793,59940,6
31788,59944,3
31785,59958,4
31796,59954,5
31799,59971,5
31795,59969,5
31829,59982,4
31803,59978,5
31801,59986,5
31814,60003,5
31855,59998,5
31809,60002,5
31812,59997,4
31825,60001,5
31845,59986,5
31819,59998,5
31820,59997,4
31814,59987,5
31820,59981,5
31813,59986,5
31812,59991,5
31816,59992,4
31805,59976,5
31814,59991,5
31807,59990,5
31820,59986,4
31815,59967,4
31818,60002,5
31817,60004,5
31816,60005,5
31822,59972,4
31829,60005,5
31823,60004,5
31824,60015,5
31816,60001,5
31823,60003,4
31823,60009,6
31814,60002,4
31823,60039,5
31820,60012,5
31819,60008,4
31824,60004,5
31818,60054,5
31816,60000,5
31825,60013,5
31823,60001,4
31830,60029,5
31820,59994,5
31821,60009,5
31819,60005,4
31825,60002,4
31820,60005,5
31823,60009,5
31815,60001,5
31822,59995,4
31812,59999,5
31819,59993,5
31820,59991,5
31820,59988,5
31817,59998,4
31824,60003,5
31825,60000,7
31826,60006,3
31819,59990,5
31818,60003,4
31827,59992,5
31821,60003,5
31822,60008,5
31820,59995,5
31824,59998,4
31818,60007,5
31818,60005,5
31816,60014,5
31825,60012,4
31822,60013,4
31815,60010,5
31820,60010,5
31821,60004,5
31823,60005,4
31828,60007,5
31815,60011,5
31826,60007,5
31825,60007,5
31824,60008,4
31824,60011,5
31819,60014,5
31819,60003,5
31816,60007,5
31812,60009,4
31817,60006,5
31815,59996,5
31815,60010,5
31822,60008,5
31814,60002,4
31812,60004,5
31820,59993,5
31816,60002,5
31808,59992,4
31802,59988,4
31806,59987,5
31806,59988,5
31815,59991,5
31809,59983,4
31811,59994,5
31814,59994,5
31810,59998,5
31808,59989,5
31809,59993,5
31805,59990,3
31810,59994,5
31804,59989,5
31813,59989,5
31809,59990,4
31809,59992,5
31813,59992,5
31805,59986,5
31803,59985,5
31801,59976,4
31801,59980,5
31797,59962,5
31800,59971,5
31792,59962,4
31794,59966,4
31791,59958,5
31795,59960,5
31789,59963,5
31793,59951,4
31796,59962,5
31794,59956,6
31797,59964,4
31795,59964,5
31792,59965,4
31802,59963,7
31797,59965,3
31798,59971,5
31766,59976,5
31799,59966,4
31797,59970,5
31801,59968,5
31765,59972,5
31791,59977,5
31801,59970,4
31799,59966,5
31781,59972,5
31797,59969,5
31804,59970,4
31802,59967,4
31815,59970,5
31795,59978,5
31793,59968,5
31800,59968,4
31835,59976,5
31791,59970,5
31801,59971,6
31801,59970,4
31829,59977,4
31796,59972,5
31801,59963,5
31793,59959,5
31803,59963,5
31792,59959,4
31791,59958,5
31789,59957,5
31784,59940,5
31780,59956,5
31797,59952,4
31793,59957,5
31790,59925,5
31792,59951,5
31788,59967,4
31792,59957,4
31783,59918,5
31786,59964,5
31788,59951,5
31791,59956,5
31790,59964,4
31795,59962,5
31786,59963,5
31781,59958,6
31793,59986,3
31788,59951,5
31792,59948,5
31785,59946,5
31784,59990,5
31781,59944,4
31772,59940,5
31779,59940,5
31781,59963,5
31774,59944,5
31780,59940,4
31775,59928,5
31770,59938,5
31774,59930,5
31774,59932,4
31766,59935,4
31773,59936,5
31772,59928,5
31771,59926,5
31768,59927,4
31771,59921,6
31771,59920,4
31769,59920,5
31762,59929,5
31766,59932,6
31754,59923,3
31765,59926,5
31759,59918,5
31754,59918,5
31760,59912,4
31757,59901,5
31756,59896,5
31753,59902,5
31751,59893,5
31754,59891,4
31748,59880,5
31743,59878,5
31744,59883,5
31750,59883,4
31749,59881,4
31739,59878,5
31742,59886,5
31751,59879,5
31746,59881,4
31745,59888,5
31740,59883,6
31737,59879,4
31748,59883,5
31742,59883,4
31746,59881,5
31745,59877,5
31732,59878,5
31742,59874,5
31743,59867,4
31742,59866,5
31738,59876,5
31742,59867,5
31735,59868,5
31735,59868,4
31746,59868,5
31736,59863,5
31737,59861,5
31732,59864,5
31733,59861,4
31748,59870,5
31737,59871,5
31737,59860,5
31731,59870,4
31731,59866,5
31734,59863,5
31741,59855,6
31728,59862,4
31731,59861,4
31736,59866,5
31730,59861,5
31738,59862,5
31743,59869,5
31736,59866,4
31732,59868,5
31741,59869,5
31733,59871,5
31733,59869,5
31738,59874,4
31740,59870,5
31734,59880,5
31739,59879,5
31748,59874,5
31740,59877,4
31732,59874,5
31742,59872,5
31746,59872,5
31748,59878,5
31736,59873,4
31731,59874,5
31741,59866,5
31735,59858,6
31723,59855,3
31705,59850,5
31731,59850,5
31728,59857,5
31729,59843,5
31691,59852,4
31736,59855,5
31729,59848,5
31719,59851,5
31715,59855,5
31724,59847,4
31724,59850,5
31732,59842,5
31744,59841,5
31722,59836,5
31712,59813,4
31708,59810,5
31739,59798,5
31694,59786,5
31688,59783,4
31682,59754,5
31696,59726,4
31642,59684,5
31622,59638,5
31604,59604,4
31576,59572,5
31555,59539,5
31542,59507,5
31533,59478,5
31515,59453,4
31514,59452,5
31505,59446,5
31488,59415,5
31472,59368,5
31472,59389,4
31459,59365,5
31454,59353,5
31436,59289,5
31437,59311,5
31421,59285,4
31401,59251,5
31383,59205,5
31357,59153,5
31326,59119,4
31301,59082,4
31289,59093,6
31272,59037,4
31270,59032,5
31265,59022,4
31265,59070,5
31276,59036,5
31279,59045,5
31289,59057,5
31299,59101,4
31313,59101,5
31324,59126,5
31330,59132,5
31327,59132,5
31320,59122,4
31315,59086,5
31288,59061,5
31270,59030,5
31248,58992,5
31226,58959,4
31210,58927,5
31192,58898,5
31182,58870,5
31171,58865,4
31162,58851,4
31161,58858,5
31162,58855,6
31161,58865,4
31163,58870,4
31179,58884,5
31172,58888,5
31192,58909,5
31200,58930,5
31202,58942,4
31220,58961,5
31232,58980,5
31247,59000,5
31255,59014,5
31272,59036,4
31282,59063,5
31287,59065,5
31297,59087,5
31308,59105,5
31316,59115,4
31331,59133,5
31340,59158,5
31346,59166,5
31353,59194,5
31360,59202,4
31374,59211,5
31382,59229,5
31383,59250,5
31405,59274,4
31407,59292,5
31424,59306,5
31430,59327,5
31446,59338,5
31456,59357,4
31462,59365,5
31474,59386,5
31475,59392,5
31484,59393,5
31478,59397,4
31488,59398,5
31482,59408,5
31496,59401,5
31491,59408,5
31492,59408,4
31499,59412,5
31499,59409,5
31500,59410,5
31499,59408,4
31495,59418,5
31492,59413,4
31504,59411,5
31493,59412,5
31497,59413,4
31498,59419,5
31498,59417,5
31503,59415,5
31494,59408,5
31491,59411,4
31495,59416,5
31494,59401,5
31496,59411,5
31492,59401,5
31486,59404,4
31483,59399,5
31478,59396,5
31487,59395,5
31482,59385,5
31489,59394,4
31479,59384,5
31484,59377,5
31466,59382,5
31478,59382,4
31470,59378,4
31483,59374,6
31447,59375,8
31473,59370,1
31474,59353,4
31473,59370,5
31437,59374,5
31476,59363,5
31470,59361,5
31473,59368,4
31454,59372,5
31473,59380,5
31477,59368,5
31473,59366,5
31497,59363,4
31467,59365,5
31467,59373,5
31472,59367,5
31518,59366,5
31470,59382,4
31471,59375,5
31465,59368,5
31503,59379,5
31471,59375,4
31486,59380,4
31479,59380,5
31481,59377,5
31472,59380,5
31469,59374,4
31475,59370,5
31471,59361,5
31470,59381,5
31474,59378,5
31477,59373,4
31473,59339,5
31473,59373,5
31472,59373,5
31469,59373,5
31471,59336,4
31478,59368,5
31474,59372,5
31475,59374,5
31482,59376,5
31486,59382,4
31485,59387,4
31486,59388,5
31483,59421,5
31487,59393,6
31487,59406,3
31493,59415,5
31503,59466,5
31512,59421,5
31507,59438,4
31506,59437,5
31510,59464,5
31509,59441,5
31498,59430,5
31509,59432,4
31511,59429,5
31501,59429,5
31514,59429,5
31499,59421,5
31494,59418,4
31499,59414,5
31498,59409,5
31494,59411,5
31496,59414,5
31494,59408,4
31507,59424,6
31499,59419,4
31501,59425,5
31501,59418,4
31505,59420,6
31510,59429,3
31512,59419,5
31503,59428,5
31509,59428,4
31506,59436,5
31513,59433,5
31509,59428,5
31509,59435,5
31520,59439,4
31512,59446,5
31523,59441,5
31519,59447,5
31521,59453,5
31527,59453,4
31525,59448,5
31517,59459,5
31523,59455,5
31522,59454,5
31523,59462,4
31526,59455,5
31527,59454,6
31531,59466,4
31528,59464,4
31528,59456,4
31527,59463,5
31532,59470,5
31532,59464,5
31529,59469,4
31541,59478,5
31545,59483,5
31540,59476,5
31540,59473,5
31546,59478,4
31540,59488,5
31546,59479,5
31549,59488,5
31549,59489,5
31548,59493,4
31548,59498,5
31554,59496,5
31556,59499,5
31557,59499,5
31554,59512,4
31552,59512,5
31560,59512,5
31565,59522,6
31565,59519,3
31571,59528,4
31561,59528,5
31574,59530,5
31575,59525,5
31573,59533,4
31573,59540,5
31580,59542,5
31583,59546,5
31580,59556,5
31583,59552,4
31587,59563,5
31583,59558,5
31583,59560,5
31587,59553,5
31593,59574,4
31581,59559,5
31587,59563,5
31596,59573,5
31591,59565,5
31577,59562,5
31594,59569,4
31590,59568,5
31591,59566,5
31570,59566,6
31588,59570,3
31594,59576,5
31590,59577,5
31559,59575,5
31592,59579,4
31597,59590,5
31605,59587,5
31598,59599,5
31609,59597,5
31613,59603,4
31614,59616,5
31637,59625,5
31617,59630,5
31617,59623,5
31635,59643,4
31668,59646,5
31629,59641,5
31630,59656,5
31627,59650,5
31657,59644,4
31628,59637,6
31628,59649,4
31622,59650,5
31628,59636,4
31628,59636,4
31623,59642,5
31632,59641,5
31632,59626,5
31628,59639,4
31627,59639,5
31633,59643,5
31628,59612,5
31636,59645,5
31640,59659,4
31640,59658,5
31638,59611,5
31637,59661,5
31640,59668,5
31639,59659,5
31639,59674,4
31633,59667,5
31650,59673,5
31651,59666,5
31661,59706,4
31643,59674,5
31654,59675,6
31653,59674,4
31646,59726,4
31653,59680,4
31651,59684,5
31651,59680,5
31652,59703,5
31654,59693,4
31660,59693,5
31648,59689,5
31662,59688,5
31660,59700,5
31663,59690,4
31653,59697,5
31660,59684,5
31663,59693,5
31661,59700,5
31656,59684,4
31654,59702,5
31656,59692,5
31660,59687,5
31658,59698,5
31668,59689,4
31656,59686,5
31655,59691,5
31660,59696,6
31650,59692,3
31660,59694,4
31664,59698,5
31656,59703,5
31665,59701,5
31661,59699,4
31668,59701,5
31656,59696,5
31663,59697,5
31669,59706,5
31667,59714,4
31664,59705,5
31669,59712,5
31662,59714,5
31662,59718,5
31670,59717,4
31660,59711,5
31669,59714,5
31672,59724,5
31674,59720,5
31669,59717,5
31670,59726,4
31665,59715,5
31675,59723,5
31666,59723,4
31686,59726,5
31673,59727,5
31681,59728,5
31676,59731,5
31676,59727,4
31673,59727,5
31675,59732,5
31679,59731,5
31674,59728,5
31674,59717,4
31671,59721,5
31671,59734,5
31676,59729,5
31675,59722,5
31666,59743,4
31673,59726,5
31682,59733,5
31672,59724,5
31680,59735,4
31675,59733,4
31684,59738,6
31681,59731,4
31674,59741,5
31675,59730,4
31682,59748,5
31691,59741,5
31678,59737,5
31675,59732,5
31683,59732,4
31681,59730,5
31669,59730,5
31677,59722,5
31668,59717,5
31676,59714,4
31670,59710,5
31668,59716,5
31669,59703,5
31671,59714,5
31671,59709,4
31663,59713,5
31648,59715,5
31665,59715,5
31667,59711,4
31669,59714,4
31625,59713,5
31674,59708,6
31664,59705,4
31660,59714,4
31638,59722,5
31677,59710,5
31658,59720,5
31664,59717,5
31682,59704,4
31660,59707,5
31663,59702,5
31667,59704,5
31702,59691,5
31662,59675,4
31654,59680,5
31648,59684,5
31684,59671,5
31653,59674,5
31654,59678,4
31651,59679,5
31662,59666,5
31646,59674,5
31655,59675,5
31644,59679,4
31655,59673,5
31650,59673,5
31654,59678,5
31657,59677,4
31649,59651,5
31652,59683,5
31657,59683,5
31652,59678,5
31655,59633,4
31646,59681,5
31650,59675,5
31653,59668,5
31653,59664,5
31648,59671,4
31650,59677,5
31657,59683,5
31655,59715,5
31656,59676,5
31651,59687,4
31657,59672,6
31652,59720,4
31644,59669,5
31646,59668,4
31647,59676,6
31654,59695,3
31642,59660,5
31646,59669,5
31648,59664,4
31640,59666,5
31640,59654,5
31645,59650,5
31634,59651,5
31630,59641,4
31624,59644,5
31631,59640,5
31623,59637,5
31615,59622,5
31617,59620,4
31613,59619,5
31608,59613,5
31612,59604,5
31611,59603,5
31603,59588,4
31609,59591,5
31606,59585,5
31592,59579,5
31598,59580,4
31585,59570,5
31584,59566,6
31584,59558,4
31579,59554,5
31579,59550,4
31571,59546,5
31572,59539,5
31563,59529,5
31564,59532,5
31555,59523,4
31553,59510,5
31545,59507,5
31552,59501,5
31538,59482,5
31535,59481,4
31531,59466,5
31525,59460,5
31522,59451,5
31507,59437,5
31513,59433,4
31511,59427,5
31499,59425,5
31493,59411,5
31494,59404,4
31486,59396,5
31485,59377,5
31477,59366,5
31471,59357,5
31468,59361,4
31462,59358,5
31457,59341,5
31456,59332,5
31448,59329,5
31453,59324,4
31451,59313,5
31447,59303,5
31439,59303,5
31435,59297,5
31434,59291,4
31431,59286,5
31432,59287,5
31428,59283,5
31424,59285,4
31427,59282,5
31420,59285,4
31425,59289,5
31418,59281,5
31427,59275,6
31422,59286,3
31426,59286,5
31417,59272,5
31427,59264,5
31414,59260,4
31416,59267,5
31416,59263,5
31414,59262,5
31409,59261,5
31413,59247,4
31413,59255,5
31410,59248,5
31419,59258,5
31412,59257,5
31405,59271,4
31413,59267,5
31418,59280,5
31433,59288,7
31402,59301,2
31432,59299,4
31434,59323,6
31450,59337,4
31420,59352,5
31467,59361,4
31475,59382,7
31481,59394,3
31478,59406,5
31499,59424,5
31506,59442,4
31508,59453,5
31536,59463,5
31524,59476,5
31526,59481,5
31535,59479,4
31582,59498,5
31539,59500,5
31555,59508,5
31553,59517,5
31588,59509,4
31550,59513,5
31551,59514,5
31561,59521,5
31563,59532,4
31576,59543,4
31571,59536,5
31560,59542,6
31571,59524,4
31567,59547,4
31571,59547,5
31568,59562,5
31574,59522,5
31578,59560,5
31578,59563,4
31583,59568,5
31580,59537,5
31587,59564,5
31587,59575,5
31596,59583,5
31588,59606,4
31593,59592,5
31596,59589,5
31603,59593,5
31593,59635,4
31599,59617,5
31601,59613,5
31598,59616,5
31603,59658,5
31601,59621,4
31605,59624,5
31612,59620,5
31607,59636,6
31611,59622,3
31616,59628,5
31607,59620,5
31603,59628,5
31614,59620,5
31603,59628,4
31615,59627,5
31607,59616,5
31608,59620,5
31601,59621,5
31607,59629,4
31611,59620,5
31610,59620,5
31621,59627,5
31615,59633,5
31603,59624,4
31614,59624,5
31602,59630,5
31607,59634,5
31605,59631,5
31613,59618,5
31603,59627,4
31615,59628,5
31599,59621,5
31603,59618,6
31602,59612,3
31607,59614,5
31602,59607,5
31606,59609,5
31602,59605,4
31598,59612,5
31604,59603,5
31597,59599,5
31602,59603,5
31603,59606,4
31610,59607,5
31599,59598,5
31599,59612,5
31598,59610,5
31597,59608,4
31603,59604,5
31601,59604,5
31595,59599,5
31587,59592,5
31587,59592,4
31584,59585,6
31590,59579,4
31587,59572,5
31580,59574,4
31584,59567,4
31581,59563,5
31575,59570,5
31578,59561,5
31583,59565,4
31581,59570,5
31577,59576,5
31585,59577,5
31578,59579,5
31587,59581,4
31586,59582,5
31597,59588,5
31589,59582,5
31589,59593,5
31599,59586,4
31591,59585,5
31586,59584,5
31590,59581,5
31595,59592,5
31586,59596,4
31585,59583,5
31578,59586,6
31585,59579,4
31594,59585,4
31588,59592,4
31601,59579,5
31596,59592,5
31592,59593,5
31581,59582,4
31587,59581,5
31589,59575,5
31586,59591,5
31580,59577,5
31587,59582,4
31582,59583,5
31580,59590,5
31591,59584,5
31590,59584,5
31589,59578,4
31557,59577,5
31585,59573,5
31585,59571,5
31581,59569,5
31541,59574,4
31583,59576,5
31576,59577,5
31584,59579,6
31569,59587,3
31576,59581,4
31590,59582,5
31580,59586,5
31602,59580,5
31581,59575,4
31585,59575,5
31580,59586,5
31618,59581,5
31581,59580,5
31584,59582,4
31581,59580,5
31608,59569,5
31583,59579,5
31581,59576,5
31578,59572,4
31589,59576,5
31578,59580,5
31578,59573,5
31582,59578,5
31585,59548,5
31573,59569,4
31575,59560,5
31573,59566,5
31577,59531,4
31566,59560,4
31555,59558,5
31569,59554,5
31564,59523,5
31565,59554,4
31568,59557,5
31559,59551,5
31562,59549,5
31559,59544,5
31565,59542,4
31565,59549,5
31563,59579,5
31557,59542,5
31549,59536,5
31549,59538,4
31561,59576,5
31556,59534,5
31544,59525,5
31545,59526,5
31544,59538,4
31542,59524,6
31552,59508,4
31544,59509,5
31535,59512,4
31540,59497,4
31542,59505,5
31543,59504,5
31539,59504,5
31548,59504,4
31543,59506,5
31546,59506,5
31542,59503,5
31543,59511,5
31548,59509,4
31545,59517,5
31543,59515,5
31543,59515,5
31548,59518,5
31547,59507,4
31543,59511,5
31549,59507,5
31545,59512,5
31539,59512,5
31542,59512,4
31546,59499,5
31541,59513,6
31551,59508,4
31544,59517,4
31542,59514,4
31548,59507,5
31545,59514,5
31546,59522,5
31543,59513,4
31548,59517,5
31535,59498,5
31541,59510,5
31546,59510,5
31549,59512,4
31538,59510,5
31545,59514,5
31535,59503,5
31535,59501,5
31540,59505,4
31542,59505,5
31539,59507,5
31544,59504,5
31547,59509,5
31541,59501,4
31537,59511,5
31544,59510,5
31544,59518,5
31542,59511,4
31545,59515,4
31546,59517,5
31540,59516,5
31544,59515,5
31540,59511,4
31546,59512,5
31533,59512,5
31534,59512,5
31537,59511,5
31539,59507,4
31542,59502,5
31529,59507,5
31536,59504,5
31535,59501,5
31533,59499,4
31529,59501,5
31533,59487,5
31523,59489,5
31525,59485,5
31523,59487,5
31525,59491,4
31526,59483,5
31528,59492,5
31532,59489,4
31524,59482,4
31529,59489,5
31524,59485,5
31525,59488,5
31528,59492,4
31526,59484,5
31524,59492,5
31531,59490,5
31517,59490,5
31528,59482,4
31532,59473,5
31525,59477,5
31493,59465,5
31514,59464,5
31508,59451,4
31509,59459,5
31474,59451,5
31512,59461,5
31503,59441,5
31494,59416,4
31450,59377,6
31412,59283,4
31354,59189,5
31292,59083,4
31273,59016,4
31217,58982,5
31194,58944,5
31188,58923,5
31227,58917,4
31189,58914,5
31187,58921,5
31201,58935,5
31230,58950,5
31218,58976,4
31239,58997,5
31242,59026,5
31263,59049,5
31273,59073,5
31300,59090,4
31315,59119,5
31321,59121,5
31339,59162,5
31364,59200,4
31367,59223,4
31387,59196,5
31403,59267,5
31410,59279,5
31427,59298,5
31426,59277,4
31436,59330,5
31442,59345,5
31450,59348,5
31458,59343,4
31458,59338,5
31454,59330,5
31455,59346,5
31444,59376,5
31464,59342,4
31454,59340,5
31461,59350,5
31460,59397,5
31461,59364,5
31467,59369,5
31473,59370,4
31464,59390,5
31468,59375,5
31472,59368,6
31463,59375,3
31473,59380,5
31470,59379,5
31478,59377,5
31468,59371,5
31472,59376,4
31469,59377,5
31461,59369,5
31468,59375,5
31466,59370,4
31468,59371,5
31461,59367,5
31457,59363,5
31465,59363,5
31464,59363,4
31462,59363,5
31457,59363,5
31462,59363,5
31452,59362,5
31465,59368,4
31455,59365,6
31456,59372,4
31460,59369,5
31461,59370,5
31470,59378,6
31464,59379,3
31462,59381,5
31466,59381,5
31468,59379,4
31465,59375,4
31468,59374,5
31467,59370,5
31465,59371,5
31458,59359,4
31454,59363,5
31450,59355,5
31452,59347,5
31453,59353,5
31445,59346,4
31454,59346,5
31451,59343,5
31448,59346,5
31455,59343,5
31459,59342,4
31453,59342,5
31449,59344,6
31451,59348,4
31454,59354,5
31448,59343,4
31450,59337,5
31451,59342,5
31448,59334,5
31448,59327,5
31429,59318,4
31440,59322,5
31432,59319,5
31429,59316,5
31430,59302,4
31427,59304,5
31429,59295,5
31417,59290,5
31417,59296,5
31420,59289,4
31421,59280,5
31401,59270,5
31396,59249,5
31381,59226,5
31375,59207,4
31350,59180,5
31332,59143,5
31321,59117,6
31301,59087,4
31274,59060,4
31262,59021,5
31249,59005,5
31233,58978,5
31232,58975,5
31221,58954,4
31208,58938,5
31200,58914,5
31186,58888,5
31176,58885,4
31155,58859,5
31160,58858,5
31149,58857,5
31149,58840,5
31119,58841,4
31141,58831,5
31140,58820,5
31134,58824,5
31097,58806,5
31134,58814,5
31132,58811,4
31125,58801,5
31110,58806,5
31129,58796,6
31117,58796,3
31119,58799,5
31149,58801,5
31119,58802,5
31119,58794,5
31125,58795,4
31162,58784,5
31114,58795,5
31125,58791,5
31117,58789,4
31138,58790,4
31103,58782,5
31116,58774,5
31104,58779,5
31115,58785,4
31113,58787,5
31109,58792,5
31113,58796,5
31115,58780,5
31115,58806,4
31118,58807,6
31128,58825,4
31128,58790,5
31129,58827,5
31139,58844,4
31137,58844,5
31150,58811,5
31141,58853,5
31146,58859,5
31140,58860,5
31150,58866,4
31152,58854,5
31151,58858,5
31147,58866,4
31155,58893,4
31154,58867,5
31156,58874,5
31161,58873,5
31167,58923,4
31171,58903,5
31162,58892,5
31173,58903,5
31167,58925,5
31182,58908,4
31173,58907,5
31179,58916,6
31180,58920,4
31189,58917,5
31185,58927,4
31188,58925,5
31190,58939,5
31194,58936,5
31204,58948,5
31199,58952,4
31211,58956,5
31211,58960,5
31213,58970,5
31207,58957,4
31212,58974,4
31215,58975,5
31214,58975,5
31217,58986,5
31227,58992,4
31231,59001,5
31236,59011,5
31239,59007,5
31249,59025,5
31244,59019,4
31246,59034,5
31246,59041,5
31252,59029,6
31264,59039,4
31255,59035,4
31261,59050,5
31255,59056,5
31261,59057,5
31273,59064,5
31266,59064,4
31277,59064,5
31273,59075,5
31288,59091,5
31289,59106,4
31289,59097,4
31291,59105,5
31298,59105,5
31306,59130,5
31304,59125,4
31303,59127,5
31314,59139,5
31319,59149,5
31313,59151,5
31318,59150,5
31314,59158,4
31325,59155,5
31325,59157,5
31330,59166,5
31326,59163,4
31326,59166,5
31326,59165,5
31328,59174,5
31331,59178,5
31340,59175,4
31333,59167,5
31340,59182,5
31340,59189,5
31333,59184,4
31334,59175,4
31333,59182,5
31345,59186,5
31342,59185,5
31348,59188,4
31343,59197,5
31343,59189,5
31338,59191,5
31350,59191,5
31334,59198,4
31342,59192,6
31352,59198,4
31347,59192,5
31348,59202,5
31353,59201,4
31361,59202,5
31352,59199,5
31358,59202,5
31356,59207,5
31359,59200,4
31357,59216,5
31355,59213,5
31362,59219,5
31356,59222,4
31358,59215,4
31337,59219,5
31367,59221,5
31373,59224,5
31365,59219,4
31330,59233,5
31375,59235,5
31373,59237,5
31384,59251,5
31365,59258,4
31383,59254,5
31384,59259,6
31383,59261,4
31401,59271,5
31376,59258,4
31375,59260,5
31387,59267,5
31425,59255,5
31383,59248,5
31381,59248,4
31379,59246,5
31408,59249,5
31375,59239,5
31381,59244,4
31381,59237,4
31386,59231,5
31376,59233,5
31384,59234,5
31379,59230,5
31376,59231,4
31373,59243,5
31375,59246,5
31380,59246,6
31375,59210,3
31375,59243,5
31373,59251,5
31377,59243,5
31379,59217,5
31381,59244,4
31384,59248,5
31386,59242,5
31390,59242,5
31386,59245,5
31382,59255,4
31375,59254,5
31393,59295,5
31388,59259,5
31391,59265,4
31388,59267,4
31397,59312,5
31389,59271,5
31393,59274,5
31397,59291,4
31401,59295,5
31410,59285,5
31395,59283,5
31404,59292,5
31405,59298,5
31398,59286,4
31410,59287,5
31407,59293,5
31409,59298,5
31415,59300,4
31411,59303,5
31411,59312,5
31418,59294,5
31413,59301,5
31416,59303,4
31415,59300,5
31413,59312,5
31417,59310,5
31423,59313,4
31414,59315,4
31418,59310,5
31420,59302,5
31411,59309,5
31422,59314,4
31416,59313,5
31418,59321,5
31422,59317,5
31421,59316,5
31420,59318,4
31424,59325,6
31432,59327,4
31425,59325,5
31427,59334,5
31432,59324,4
31431,59340,5
31432,59328,5
31423,59338,5
31423,59329,5
31437,59339,4
31422,59332,5
31436,59339,5
31428,59341,5
31438,59348,5
31441,59340,4
31437,59351,5
31438,59355,5
31436,59353,5
31444,59355,4
31446,59351,5
31443,59351,5
31452,59363,6
31446,59362,4
31444,59361,4
31445,59357,5
31446,59365,5
31450,59370,5
31451,59375,5
31452,59368,4
31451,59369,5
31444,59370,5
31452,59381,5
31464,59373,5
31458,59378,4
31447,59383,5
31452,59381,5
31453,59377,5
31453,59383,5
31457,59373,4
31453,59376,5
31454,59378,5
31463,59375,5
31460,59376,5
31457,59375,4
31454,59376,5
31456,59382,5
31447,59372,6
31459,59375,3
31462,59372,5
31462,59382,5
31458,59382,5
31457,59386,5
31467,59387,4
31466,59398,5
31465,59396,5
31467,59403,5
31464,59407,5
31468,59399,4
31468,59401,5
31468,59397,5
31446,59391,5
31466,59402,5
31469,59403,4
31470,59396,5
31431,59397,5
31467,59398,5
31469,59385,4
31466,59399,6
31457,59398,4
31475,59402,5
31475,59395,5
31476,59400,6
31497,59409,3
31472,59405,5
31479,59410,5
31481,59412,5
31521,59419,4
31470,59413,5
31486,59406,5
31482,59403,5
31498,59410,5
31482,59409,4
31483,59417,5
31486,59417,5
31490,59419,5
31483,59418,5
31480,59419,4
31483,59417,5
31483,59407,5
31488,59418,5
31485,59419,4
31487,59418,5
31479,59387,6
31480,59407,4
31485,59427,5
31492,59413,5
31481,59376,4
31491,59419,5
31485,59414,5
31488,59418,5
31485,59410,4
31478,59419,5
31486,59415,5
31484,59407,5
31474,59446,5
31472,59417,4
31472,59411,5
31483,59406,5
31476,59462,5
31476,59411,5
31479,59400,4
31477,59409,5
31475,59430,5
31475,59398,5
31487,59401,4
31482,59409,4
31481,59414,5
31479,59399,6
31487,59411,4
31485,59411,4
31487,59408,5
31480,59404,5
31473,59398,5
31477,59400,5
31471,59402,4
31473,59401,5
31471,59400,5
31472,59401,5
31474,59405,5
31469,59388,4
31472,59399,5
31469,59395,5
31461,59389,5
31459,59384,5
31456,59375,4
31453,59381,5
31454,59372,5
31451,59363,5
31449,59361,5
31445,59351,4
31447,59345,5
31431,59342,5
31447,59333,6
31427,59329,3
31434,59330,5
31421,59321,5
31419,59309,5
31423,59297,5
31422,59297,4
31414,59297,5
31410,59288,5
31405,59283,5
31407,59274,5
31399,59273,4
31393,59269,5
31395,59255,5
31389,59246,5
31384,59247,5
31383,59236,4
31378,59228,5
31378,59236,5
31379,59237,5
31378,59232,4
31381,59228,5
31377,59226,4
31376,59228,5
31377,59230,5
31378,59237,4
31376,59242,5
31377,59241,5
31385,59238,5
31376,59247,5
31383,59246,4
31384,59246,5
31380,59247,5
31379,59247,5
31381,59250,5
31385,59242,4
31374,59237,5
31369,59227,5
31371,59223,5
31379,59229,5
31366,59223,4
31362,59209,5
31368,59205,5
31358,59208,5
31357,59204,4
31360,59201,4
31367,59200,6
31351,59192,7
31361,59188,2
31339,59197,4
31355,59188,5
31354,59190,5
31355,59194,5
31363,59193,5
31361,59202,4
31347,59203,5
31363,59207,5
31360,59195,5
31355,59199,5
31323,59202,4
31361,59198,5
31363,59198,5
31369,59200,5
31324,59202,5
31359,59213,4
31365,59205,5
31362,59214,5
31351,59222,5
31390,59229,4
31385,59230,4
31381,59245,5
31413,59257,6
31382,59256,4
31396,59264,4
31400,59273,5
31441,59276,5
31411,59287,5
31409,59292,5
31410,59303,4
31447,59316,5
31421,59321,5
31421,59328,5
31426,59329,5
31438,59327,4
31427,59340,5
31447,59346,5
31440,59356,5
31450,59337,5
31453,59365,4
31448,59368,5
31458,59372,5
31466,59345,5
31467,59388,5
31469,59391,4
31466,59407,5
31484,59376,5
31485,59429,5
31482,59434,4
31483,59436,5
31493,59429,5
31485,59446,5
31496,59449,5
31504,59449,4
31500,59487,5
31497,59460,5
31500,59472,5
31505,59473,5
31512,59514,4
31519,59476,5
31509,59481,5
31514,59474,5
31516,59505,5
31514,59487,4
31513,59481,5
31519,59490,5
31513,59501,5
31529,59501,4
31521,59503,5
31528,59502,4
31533,59507,5
31532,59507,5
31526,59505,4
31531,59509,5
31533,59509,5
31527,59495,5
31529,59499,5
31536,59503,4
31530,59493,5
31533,59499,5
31529,59492,5
31521,59493,5
31522,59492,4
31523,59489,5
31522,59487,5
31530,59495,5
31524,59493,5
31530,59500,4
31519,59489,5
31529,59484,5
31524,59488,5
31523,59489,4
31524,59496,4
31519,59481,6
31525,59495,4
31520,59491,5
31521,59497,4
31515,59479,5
31517,59487,5
31517,59485,5
31519,59471,5
31513,59464,4
31511,59462,5
31511,59454,5
31511,59461,5
31515,59462,5
31507,59457,4
31507,59453,5
31510,59462,5
31520,59471,5
31511,59470,5
31510,59472,4
31510,59468,5
31514,59480,5
31522,59480,5
31512,59474,4
31524,59483,4
31514,59480,5
31521,59475,5
31516,59478,5
31518,59478,4
31517,59489,5
31524,59487,5
31522,59477,5
31521,59487,5
31519,59490,4
31525,59487,5
31522,59486,5
31525,59472,5
31521,59492,5
31518,59485,4
31518,59472,5
31513,59478,5
31515,59467,5
31513,59476,5
31508,59472,4
31508,59470,5
31505,59467,5
31510,59464,5
31515,59465,5
31507,59464,4
31511,59470,5
31510,59455,5
31510,59455,5
31511,59454,4
31506,59459,5
31498,59460,5
31499,59464,5
31504,59451,5
31502,59468,4
31502,59468,5
31483,59465,5
31515,59464,5
31511,59463,5
31505,59452,4
31464,59444,5
31505,59444,5
31497,59448,5
31483,59446,5
31472,59450,4
31497,59435,5
31482,59437,5
31493,59443,5
31509,59432,4
31486,59438,5
31478,59431,3
31488,59430,5
31515,59437,5
31478,59436,4
31486,59433,5
31478,59427,5
31516,59427,5
31483,59419,5
31484,59428,4
31482,59422,5
31485,59418,5
31483,59418,5
31483,59413,5
31474,59412,4
31481,59407,5
31476,59408,5
31477,59418,5
31475,59424,5
31474,59386,4
31477,59423,5
31479,59416,6
31483,59420,4
31477,59381,4
31478,59416,4
31479,59417,5
31475,59422,5
31479,59409,5
31470,59413,4
31474,59417,5
31472,59420,5
31478,59442,5
31470,59409,5
31473,59405,4
31470,59409,5
31471,59449,5
31471,59391,5
31468,59392,5
31462,59389,4
31467,59413,5
31455,59382,5
31459,59390,5
31463,59389,5
31462,59392,4
31459,59395,5
31471,59390,5
31456,59395,6
31462,59400,3
31471,59402,4
31467,59393,5
31473,59403,5
31472,59405,5
31468,59405,4
31473,59402,5
31467,59407,5
31467,59403,5
31461,59398,5
31468,59401,4
31464,59401,5
31467,59395,5
31470,59400,5
31470,59401,5
31454,59392,4
31469,59384,5
31463,59397,5
31473,59397,5
31461,59401,5
31462,59389,5
31464,59396,4
31471,59390,5
31468,59394,5
31470,59388,6
31472,59382,3
31463,59398,5
31459,59391,5
31456,59391,5
31472,59391,4
31463,59382,5
31455,59386,5
31465,59381,5
31458,59384,5
31461,59381,4
31457,59381,5
31459,59391,5
31461,59390,5
31457,59392,5
31470,59393,4
31456,59387,5
31471,59396,5
31468,59393,5
31464,59391,5
31469,59403,4
31461,59402,6
31460,59394,4
31456,59389,5
31466,59398,4
31467,59397,5
31470,59400,5
31464,59398,5
31458,59398,5
31461,59402,4
31454,59396,5
31459,59389,5
31460,59384,5
31463,59394,5
31452,59383,4
31451,59382,5
31453,59389,5
31459,59387,5
31461,59385,5
31454,59370,4
31460,59387,10
31450,59371,10
31458,59383,9
31458,59380,5
31455,59395,8
31455,59395,5
31424,59390,5
31451,59383,5
31449,59390,8
31459,59394,5
31459,59378,5
31456,59366,8
31453,59365,5
31456,59374,5
31452,59371,8
31448,59367,5
31440,59339,5
31440,59354,5
31442,59351,8
31442,59351,5
31454,59385,4
31448,59375,2
31430,59360,4
31447,59353,5
31444,59360,5
31450,59372,6
31447,59370,3
31451,59359,4
31449,59362,5
31448,59364,5
31458,59369,5
31454,59365,4
31449,59374,5
31451,59368,5
31454,59377,5
31456,59366,5
31454,59367,4
31452,59370,5
31448,59369,5
31453,59370,5
31452,59374,5
31451,59362,4
31444,59364,5
31456,59366,5
31447,59358,5
31447,59352,5
31440,59359,5
31448,59357,4
31437,59360,5
31439,59347,5
31446,59345,4
31440,59349,4
31438,59354,5
31442,59342,5
31439,59350,5
31431,59335,4
31435,59337,5
31441,59344,5
31430,59340,5
31436,59346,5
31433,59350,4
31436,59349,5
31439,59348,5
31444,59353,5
31438,59348,5
31448,59356,4
31445,59355,5
31445,59356,5
31440,59363,5
31439,59358,5
31447,59354,4
31448,59355,6
31438,59348,4
31438,59350,5
31434,59345,4
31434,59339,4
31431,59331,5
31428,59327,5
31435,59326,5
31425,59319,4
