RED,IR,EKG,TIME
31418,59324,183820
35554,66266,1
35554,66266,3
35566,66274,4
35561,66270,5
35553,66255,5
35546,66255,5
35540,66240,4
35532,66218,5
35517,66203,5
35516,66192,5
35511,66176,5
35510,66172,4
35499,66168,5
35499,66177,5
35506,66175,5
35506,66176,5
35499,66176,4
35506,66172,5
35494,66177,5
35504,66171,5
35507,66179,5
35513,66188,4
35496,66186,5
35501,66181,5
35512,66185,6
35479,66192,3
35506,66187,4
35503,66189,5
35503,66189,5
35469,66178,5
35496,66184,4
35506,66185,5
35493,66176,5
35460,66182,5
35490,66178,5
35495,66183,4
35499,66181,5
35506,66185,5
35497,66187,5
35497,66190,5
35489,66186,4
35532,66183,5
35489,66173,5
35495,66173,5
35489,66177,5
35523,66172,5
35487,66159,4
35479,66160,5
35484,66167,5
35490,66155,6
35482,66149,3
35484,66149,5
35480,66154,5
35477,66145,5
35465,66158,4
35475,66142,5
35469,66158,5
35472,66129,5
35482,66158,5
35479,66160,4
35484,66171,5
35493,66134,5
35481,66173,5
35495,66192,5
35489,66193,5
35490,66195,4
35502,66214,5
35503,66210,5
35509,66224,4
35507,66258,4
35508,66227,6
35511,66232,4
35519,66242,5
35512,66291,4
35518,66249,5
35518,66241,5
35523,66249,5
35520,66258,5
35512,66234,4
35510,66237,5
35517,66234,5
35506,66233,5
35499,66219,5
35491,66210,4
35496,66207,5
35489,66201,5
35484,66193,5
35472,66199,5
35479,66190,4
35483,66196,5
35482,66180,5
35474,66179,5
35479,66177,4
35466,66179,4
35479,66181,5
35473,66171,6
35475,66181,4
35473,66169,4
35470,66183,5
35473,66189,5
35473,66183,5
35476,66185,5
35475,66180,4
35471,66184,5
35466,66178,5
35467,66159,5
35445,66142,5
35447,66131,4
35439,66118,5
35425,66094,5
35422,66093,5
35413,66085,5
35409,66092,4
35403,66081,5
35412,66073,5
35411,66085,5
35408,66080,5
35403,66082,4
35406,66075,5
35413,66075,5
35413,66082,6
35401,66076,3
35408,66083,5
35414,66087,5
35408,66086,5
35412,66080,5
35406,66081,4
35403,66077,5
35399,66067,5
35401,66075,5
35404,66075,5
35404,66064,4
35409,66073,5
35398,66073,5
35406,66074,5
35394,66075,4
35406,66084,4
35409,66076,5
35410,66084,5
35396,66082,5
35406,66072,4
35407,66078,6
35396,66075,4
35403,66070,5
35401,66075,5
35400,66071,4
35399,66076,5
35402,66061,5
35394,66063,5
35389,66061,5
35391,66053,4
35387,66048,5
35389,66053,5
35383,66051,5
35389,66050,5
35385,66049,4
35386,66055,5
35384,66052,5
35395,66054,5
35391,66064,4
35388,66067,4
35399,66070,5
35381,66063,5
35395,66066,5
35396,66076,4
35401,66083,5
35376,66079,6
35400,66077,4
35396,66085,5
35399,66084,4
35368,66087,5
35402,66080,5
35397,66072,5
35393,66071,5
35381,66070,4
35387,66058,5
35377,66055,5
35372,66045,5
35399,66025,5
35359,66015,4
35353,66014,5
35356,66002,5
35392,65992,5
35338,65985,4
35335,65986,4
35339,65984,5
35363,65979,5
35334,65962,5
35325,65972,4
35336,65969,5
35333,65970,5
35333,65970,6
35335,65968,4
35321,65963,4
35334,65947,5
35334,65968,5
35329,65976,5
35340,65981,5
35330,65951,4
35332,65968,5
35329,65966,5
35327,65962,5
35319,65910,5
35319,65935,4
35311,65921,5
35299,65913,5
35298,65917,5
35291,65894,4
35290,65900,5
35288,65907,5
35304,65939,5
35301,65913,5
35300,65914,5
35312,65914,4
35304,65968,5
35312,65931,5
35316,65946,5
35319,65940,4
35321,65965,5
35321,65954,5
35325,65954,5
35328,65965,5
35344,65974,4
35343,65980,5
35348,65975,5
35350,65990,5
35348,65996,5
35349,65994,4
35358,65992,5
35361,66007,5
35361,66003,5
35374,66022,4
35373,66023,5
35381,66031,5
35380,66030,5
35382,66020,5
35371,66017,4
35368,66013,6
35372,66009,4
35366,66008,5
35370,66006,5
35370,66001,4
35363,66003,5
35362,66002,5
35361,65999,5
35366,65989,5
35358,65982,4
35363,65979,5
35355,65977,5
35349,65978,5
35361,65966,5
35351,65975,4
35346,65976,5
35353,65969,5
35356,65970,5
35352,65967,4
35337,65963,5
35349,65958,5
35355,65969,5
35357,65967,5
35352,65976,4
35357,65980,5
35356,65971,6
35361,65986,4
35363,65998,5
35362,65996,4
35366,65997,5
35370,66010,5
35375,66002,5
35365,66003,5
35371,66003,4
35374,66009,5
35370,66003,5
35375,66001,5
35375,66002,4
35377,66010,4
35373,66005,5
35376,66005,5
35377,66003,5
35374,66003,4
35372,66001,5
35378,66001,5
35372,65994,5
35372,65991,5
35370,65988,4
35365,65988,5
35361,65986,5
35359,65997,5
35375,65984,5
35369,65995,4
35368,65990,5
35360,65991,5
35365,65986,5
35359,65973,5
35351,65950,4
35348,65937,5
35337,65932,5
35326,65918,5
35322,65900,4
35306,65883,4
35305,65871,5
35304,65867,5
35291,65853,5
35268,65862,4
35295,65846,5
35283,65847,4
35300,65862,5
35266,65858,5
35300,65870,5
35302,65873,3
35299,65874,5
35266,65863,5
35297,65871,5
35296,65864,4
35301,65875,5
35318,65872,5
35307,65879,5
35300,65863,5
35300,65864,4
35330,65859,5
35289,65859,5
35292,65857,5
35279,65852,4
35311,65849,5
35285,65852,5
35288,65846,5
35288,65845,5
35303,65847,4
35290,65853,5
35283,65848,6
35288,65846,4
35286,65829,5
35285,65844,4
35288,65849,7
35283,65846,3
35281,65810,5
35282,65852,5
35293,65854,4
35274,65851,5
35292,65813,5
35289,65843,5
35288,65848,5
35288,65846,5
35283,65842,4
35276,65838,5
35275,65835,5
35283,65832,4
35273,65862,5
35270,65833,5
35266,65822,5
35272,65819,5
35264,65867,4
35263,65821,5
35264,65805,5
35256,65808,6
35256,65827,4
35250,65794,4
35241,65793,5
35241,65780,5
35237,65784,5
35237,65768,5
35231,65764,4
35232,65752,5
35226,65749,5
35224,65744,5
35222,65742,4
35223,65737,4
35210,65732,5
35217,65737,5
35217,65731,5
35211,65731,4
35208,65731,5
35216,65727,5
35214,65726,5
35214,65722,5
35212,65717,5
35208,65720,4
35199,65712,5
35215,65733,5
35218,65737,6
35212,65740,3
35232,65749,5
35223,65758,5
35223,65750,5
35225,65749,5
35210,65732,4
35216,65729,5
35209,65726,5
35203,65705,5
35203,65694,4
35193,65690,4
35195,65694,5
35193,65695,5
35190,65685,5
35187,65686,4
35198,65688,5
35198,65690,5
35190,65694,5
35199,65687,5
35198,65697,4
35195,65691,6
35193,65685,4
35209,65692,5
35196,65691,5
35201,65702,4
35196,65703,5
35202,65699,5
35196,65698,5
35198,65702,5
35197,65703,4
35203,65704,5
35198,65694,5
35191,65692,5
35196,65689,4
35184,65688,5
35190,65677,5
35191,65674,5
35181,65682,5
35187,65679,4
35177,65680,5
35184,65680,5
35182,65671,5
35173,65666,5
35180,65659,4
35176,65649,5
35177,65651,6
35172,65649,4
35173,65643,5
35167,65648,4
35172,65646,5
35161,65639,5
35161,65625,5
35155,65633,5
35152,65632,4
35155,65620,5
35158,65614,5
35148,65612,5
35153,65609,4
35157,65608,5
35160,65619,5
35131,65610,5
35147,65603,5
35150,65608,4
35148,65610,5
35110,65601,5
35145,65604,5
35135,65600,5
35148,65597,4
35098,65600,5
35134,65593,5
35138,65602,6
35134,65596,4
35119,65586,4
35128,65584,5
35125,65579,5
35122,65568,5
35148,65553,4
35121,65550,4
35105,65551,5
35109,65533,5
35142,65535,5
35093,65520,4
35092,65512,5
35078,65484,5
35100,65482,5
35070,65481,5
35070,65474,4
35061,65453,5
35065,65444,5
35052,65445,5
35051,65435,5
35054,65437,5
35047,65410,4
35056,65437,5
35049,65455,5
35061,65460,5
35064,65437,4
35060,65463,5
35068,65479,5
35065,65464,5
35059,65420,4
35054,65446,4
35046,65435,5
35039,65423,5
35037,65420,5
35027,65398,4
35030,65397,5
35030,65386,5
35024,65438,5
35028,65397,5
35029,65392,4
35025,65386,5
35020,65437,5
35029,65386,5
35030,65391,5
35026,65395,4
35028,65416,6
35027,65401,4
35026,65403,5
35032,65409,5
35041,65416,4
35032,65417,5
35038,65423,5
35047,65424,5
35046,65419,4
35037,65432,4
35044,65432,5
35040,65437,5
35041,65430,5
35037,65426,4
35041,65438,5
35052,65437,5
35053,65442,5
35049,65444,5
35059,65456,4
35058,65443,5
35055,65448,5
35051,65451,5
35052,65450,5
35057,65455,4
35063,65446,5
35062,65461,6
35062,65465,4
35052,65458,5
35058,65460,4
35064,65459,5
35065,65464,5
35060,65467,5
35052,65458,4
35067,65470,4
35061,65474,5
35067,65469,7
35071,65473,3
35094,65486,4
35080,65489,5
35075,65496,5
35080,65507,5
35086,65514,5
35089,65510,4
35097,65521,5
35095,65526,5
35097,65529,5
35093,65535,5
35109,65544,4
35114,65556,5
35111,65563,5
35118,65578,5
35115,65569,5
35131,65581,4
35127,65586,5
35133,65590,5
35145,65597,5
35141,65602,4
35137,65599,4
35143,65603,5
35149,65612,5
35139,65602,5
35134,65608,4
35140,65599,5
35135,65590,5
35134,65590,5
35135,65584,5
35128,65575,4
35118,65575,5
35134,65576,5
35120,65562,5
35113,65562,5
35109,65563,5
35116,65554,4
35122,65562,5
35117,65561,5
35114,65563,5
35115,65568,4
35123,65567,5
35127,65574,5
35116,65574,5
35133,65592,4
35133,65590,4
35133,65588,5
35131,65584,5
35128,65584,5
35097,65564,4
35095,65546,5
35094,65525,5
35083,65498,5
35038,65471,5
35060,65457,4
35048,65450,5
35039,65440,5
35000,65439,5
35041,65423,5
35034,65431,4
35032,65429,6
35030,65415,4
35040,65420,5
35038,65423,5
35025,65414,4
35061,65409,5
35030,65415,5
35033,65414,5
35026,65418,4
35074,65415,5
35029,65411,5
35025,65410,5
35031,65409,5
35048,65410,4
35030,65414,5
35033,65412,5
35029,65409,5
35038,65406,5
35029,65409,4
35036,65418,5
35033,65414,5
35027,65402,5
35039,65435,5
35032,65423,4
35030,65428,5
35036,65391,5
35037,65422,5
35034,65424,5
35036,65418,4
35039,65390,5
35033,65433,5
35037,65430,5
35036,65442,5
35039,65450,4
35034,65428,5
35042,65429,5
35042,65434,5
35029,65466,4
35027,65420,5
35030,65411,5
35027,65406,5
35017,65448,5
35015,65414,4
35009,65398,5
35010,65396,5
35011,65412,5
35014,65393,5
35007,65392,4
35016,65394,5
35008,65386,5
35002,65394,5
35005,65390,5
35009,65380,4
35000,65377,5
35003,65377,5
34999,65373,5
34991,65364,4
34979,65357,5
34972,65337,5
34970,65324,5
34952,65303,5
34946,65287,4
34936,65267,5
34923,65257,5
34924,65248,5
34911,65227,5
34899,65213,4
34911,65214,6
34891,65197,4
34887,65195,5
34888,65186,5
34890,65190,6
34886,65173,3
34880,65179,5
34881,65186,5
34879,65184,4
34880,65184,4
34888,65180,5
34890,65194,5
34892,65197,5
34892,65201,4
34901,65203,5
34891,65213,5
34897,65220,5
34895,65204,5
34893,65201,4
34884,65189,5
34872,65171,5
34870,65155,5
34866,65147,5
34863,65128,4
34855,65124,5
34855,65117,6
34855,65109,4
34845,65109,5
34847,65107,4
34855,65107,5
34845,65098,5
34845,65097,5
34845,65090,4
34844,65102,4
34840,65108,5
34845,65106,5
34846,65104,5
34842,65112,4
34854,65111,5
34849,65116,5
34850,65113,5
34849,65110,5
34854,65127,4
34853,65123,5
34862,65128,5
34860,65136,5
34850,65139,5
34858,65145,4
34871,65149,5
34871,65157,5
34871,65167,6
34876,65166,4
34878,65175,4
34878,65178,5
34881,65177,5
34880,65161,5
34873,65164,4
34867,65157,4
34865,65137,5
34850,65120,5
34842,65126,5
34844,65114,4
34834,65101,5
34812,65101,5
34836,65091,5
34831,65092,5
34827,65079,4
34789,65079,5
34821,65085,5
34817,65073,5
34817,65075,5
34782,65068,5
34807,65076,4
34815,65075,5
34819,65069,5
34827,65065,6
34817,65065,3
34818,65066,5
34804,65065,5
34848,65060,5
34811,65063,4
34808,65064,5
34808,65064,5
34852,65058,5
34807,65053,5
34810,65056,4
34812,65049,5
34817,65059,5
34804,65063,5
34813,65051,5
34810,65040,4
34804,65034,5
34795,65039,5
34790,65032,5
34787,65017,5
34783,64982,4
34781,64999,6
34767,64986,4
34766,64994,5
34768,64956,5
34772,64982,4
34767,64993,5
34768,64990,5
34771,64977,5
34773,64994,4
34776,64996,5
34782,65011,5
34793,65053,5
34793,65021,5
34797,65038,4
34804,65041,5
34796,65090,5
34797,65050,5
34810,65059,5
34814,65055,4
34806,65083,5
34808,65055,5
34813,65048,5
34802,65042,5
34811,65050,4
34810,65051,5
34811,65052,6
34809,65061,4
34823,65060,4
34823,65071,4
34830,65083,5
34844,65089,5
34837,65093,5
34841,65101,4
34842,65105,5
34849,65114,5
34851,65114,5
34852,65108,5
34853,65120,4
34861,65119,5
34857,65132,5
34863,65138,5
34869,65132,5
34871,65143,4
34875,65148,5
34881,65153,5
34873,65159,5
34881,65159,5
34887,65168,4
34889,65177,5
34896,65180,5
34896,65181,6
34906,65191,3
34909,65200,4
34914,65207,5
34905,65217,5
34922,65217,5
34926,65225,4
34923,65225,5
34921,65239,5
34932,65246,5
34929,65258,5
34947,65250,4
34948,65261,5
34951,65277,5
34950,65279,5
34962,65283,5
34962,65295,4
34964,65306,5
34978,65304,5
34976,65323,5
34980,65324,5
34990,65332,5
34997,65343,4
34994,65352,5
35008,65352,5
35010,65358,4
35011,65376,4
35010,65377,5
35023,65386,5
35024,65389,5
35015,65389,4
35023,65404,5
35036,65406,5
35039,65413,5
35035,65423,5
35051,65441,4
35049,65455,5
35067,65466,5
35070,65471,5
35076,65486,5
35085,65499,4
35090,65519,5
35087,65516,5
35096,65522,5
35110,65533,5
35111,65546,4
35115,65550,6
35113,65554,4
35112,65554,5
35126,65564,4
35119,65563,4
35128,65564,5
35123,65558,5
35130,65567,5
35120,65553,4
35131,65563,5
35121,65561,5
35119,65567,5
35093,65554,5
35129,65561,4
35131,65555,5
35131,65562,5
35095,65562,5
35124,65565,5
35130,65566,4
35133,65572,5
35122,65574,5
35139,65572,5
35139,65577,5
35135,65585,4
35175,65599,5
35151,65603,6
35146,65601,4
35148,65605,4
35186,65595,4
35146,65595,5
35142,65583,5
35140,65575,5
35144,65557,4
35117,65542,5
35119,65537,5
35105,65517,5
35113,65516,5
35104,65516,4
35106,65514,5
35097,65502,5
35097,65480,5
35099,65499,5
35096,65502,4
35101,65496,5
35098,65469,5
35097,65498,5
35102,65507,5
35103,65505,4
35106,65469,5
35102,65507,5
35099,65505,5
35106,65505,5
35108,65520,4
35102,65503,5
35104,65521,5
35105,65520,5
35112,65541,4
35102,65503,5
35098,65498,5
35086,65480,5
35078,65505,5
35062,65454,4
35060,65433,5
35051,65420,5
35042,65417,5
35023,65384,5
35018,65373,4
35019,65374,5
35011,65365,5
35012,65356,5
35007,65345,5
35000,65357,6
35000,65350,3
35011,65355,5
35005,65358,5
35019,65363,4
35018,65365,4
35012,65364,5
35018,65367,5
35007,65362,5
35001,65356,4
35016,65368,5
35018,65375,5
35021,65378,5
35020,65385,5
35026,65384,4
35022,65388,5
35031,65383,5
35034,65386,5
35030,65393,5
35020,65393,4
35038,65398,5
35025,65393,5
35037,65406,5
35033,65397,5
35041,65405,4
35034,65418,6
35041,65419,4
35042,65411,5
35043,65414,4
35048,65426,4
35042,65433,5
35050,65436,5
35052,65440,5
35053,65450,4
35059,65463,5
35059,65457,5
35056,65455,5
35061,65454,5
35046,65460,4
35050,65455,5
35049,65449,5
35045,65450,5
35048,65452,5
35050,65446,4
35052,65450,5
35053,65469,5
35059,65468,5
35058,65481,5
35066,65495,4
35072,65495,5
35073,65512,5
35082,65523,5
35085,65542,4
35098,65558,4
35105,65565,5
35107,65575,5
35104,65588,5
35103,65582,4
35113,65577,5
35103,65570,5
35098,65559,5
35101,65552,5
35086,65551,4
35087,65543,5
35088,65528,5
35079,65522,5
35083,65533,5
35088,65533,4
35086,65535,5
35079,65543,5
35080,65545,5
35091,65540,5
35090,65546,4
35093,65546,5
35087,65549,5
35091,65555,5
35082,65543,4
35085,65554,4
35078,65555,5
35087,65553,5
35092,65547,5
35094,65549,4
35064,65553,5
35097,65549,5
35100,65564,5
35101,65555,5
35066,65559,4
35092,65564,5
35098,65570,5
35103,65558,5
35102,65572,5
35113,65594,4
35114,65590,6
35110,65586,4
35137,65570,5
35102,65556,5
35098,65545,6
35088,65543,3
35122,65541,5
35081,65520,5
35079,65518,4
35081,65529,4
35087,65527,5
35077,65521,5
35073,65521,5
35073,65520,4
35077,65534,5
35073,65536,5
35080,65540,5
35082,65546,5
35098,65529,4
35081,65556,5
35090,65557,5
35089,65558,5
35097,65529,5
35091,65555,4
35096,65563,5
35088,65561,6
35092,65520,4
35078,65552,5
35089,65552,4
35089,65556,5
35078,65573,5
35086,65551,5
35079,65565,4
35089,65559,4
35094,65612,5
35093,65568,5
35096,65581,5
35098,65590,4
35098,65624,5
35100,65576,5
35092,65580,5
35101,65574,5
35098,65591,4
35094,65567,5
35095,65567,5
35089,65566,5
35093,65561,5
35082,65561,4
35088,65559,5
35083,65555,5
35091,65554,6
35091,65548,4
35083,65547,4
35089,65549,5
35091,65550,5
35087,65555,5
35086,65555,4
35092,65563,4
35091,65563,5
35094,65566,5
35100,65571,5
35099,65575,4
35106,65585,5
35106,65595,5
35109,65598,5
35108,65608,5
35115,65603,4
35115,65594,5
35108,65595,5
35095,65579,5
35089,65562,5
35087,65538,5
35074,65527,4
35074,65522,5
35057,65511,5
35063,65509,6
35061,65506,3
35058,65501,5
35063,65494,5
35060,65499,5
35058,65488,4
35053,65492,4
35062,65499,5
35052,65496,5
35055,65496,5
35056,65509,4
35070,65503,5
35064,65495,5
35060,65508,5
35063,65499,5
35065,65508,4
35073,65515,5
35066,65522,5
35068,65520,5
35078,65522,5
35081,65526,4
35071,65531,6
35077,65531,4
35072,65539,5
35079,65533,5
35088,65544,4
35087,65549,5
35083,65552,5
35086,65536,5
35083,65537,4
35084,65531,4
35084,65523,5
35077,65535,5
35072,65531,5
35080,65538,4
35085,65531,5
35085,65543,5
35080,65535,5
35085,65542,5
35089,65548,4
35090,65557,5
35093,65562,5
35095,65567,5
35098,65584,5
35102,65579,4
35110,65586,5
35116,65608,6
35109,65605,4
35119,65611,5
35121,65623,4
35131,65633,5
35133,65631,5
35116,65645,5
35148,65661,4
35153,65667,4
35154,65682,5
35129,65689,5
35154,65704,5
35164,65709,4
35166,65721,5
35145,65722,5
35178,65721,5
35185,65735,5
35180,65739,4
35181,65737,5
35199,65753,5
35183,65745,5
35187,65742,5
35223,65748,4
35196,65754,5
35184,65766,5
35197,65767,6
35239,65753,4
35204,65754,4
35200,65768,5
35203,65778,5
35216,65769,5
35197,65770,4
35205,65774,4
35204,65769,5
35201,65779,5
35208,65793,5
35209,65800,4
35220,65809,5
35217,65782,5
35222,65812,5
35222,65816,5
35223,65816,4
35220,65760,5
35208,65794,5
35206,65780,5
35195,65758,5
35181,65728,5
35171,65736,4
35171,65719,5
35169,65718,5
35172,65738,5
35170,65720,4
35175,65717,5
35166,65708,5
35173,65754,5
35170,65705,4
35169,65714,5
35161,65702,5
35175,65745,5
35175,65723,5
35179,65721,4
35172,65720,5
35189,65761,5
35185,65746,5
35189,65743,5
35194,65756,4
35197,65759,5
35204,65771,5
35212,65768,5
35208,65789,5
35227,65790,4
35215,65791,6
35224,65813,4
35227,65818,5
35230,65832,5
35233,65829,4
35239,65831,5
35240,65830,5
35229,65814,5
35226,65819,4
35227,65823,5
35226,65814,5
35226,65813,5
35234,65800,5
35219,65798,4
35219,65803,5
35214,65798,5
35218,65793,5
35205,65784,5
35207,65778,4
35205,65775,5
35212,65778,5
35209,65780,5
35211,65787,5
35208,65783,4
35201,65777,5
35199,65781,6
35205,65790,4
35208,65789,4
35206,65779,4
35215,65787,5
35219,65785,5
35218,65794,5
35221,65796,4
35220,65806,5
35221,65810,5
35223,65811,5
35224,65819,5
35226,65825,4
35227,65820,5
35227,65821,5
35239,65839,5
35241,65840,5
35244,65843,4
35243,65846,5
35248,65851,5
35249,65865,5
35261,65878,5
35272,65888,4
35271,65892,5
35273,65907,5
35282,65918,5
35291,65926,4
35293,65930,4
35294,65943,5
35305,65946,5
35312,65953,5
35308,65972,4
35320,65984,5
35330,65989,5
35331,66006,5
35343,66016,5
35355,66048,4
35366,66054,5
35368,66081,5
35385,66087,5
35389,66105,5
35409,66122,4
35407,66135,5
35415,66145,5
35427,66154,5
35429,66154,5
35431,66155,5
35418,66148,4
35426,66150,5
35419,66125,5
35419,66133,4
35402,66138,5
35428,66143,5
35438,66152,5
35442,66165,5
35408,66170,4
35456,66182,5
35458,66202,5
35470,66212,5
35472,66233,5
35492,66244,4
35504,66266,5
35503,66284,5
35559,66310,5
35549,66332,5
35549,66354,4
35565,66375,5
35620,66397,5
35585,66414,5
35599,66431,4
35610,66446,4
35639,66452,6
35621,66470,4
35631,66479,5
35631,66504,4
35652,66502,5
35662,66528,5
35665,66541,5
35674,66562,5
35694,66557,4
35696,66598,5
35702,66614,5
35717,66633,5
35729,66609,5
35738,66657,4
35750,66678,5
35748,66709,5
35757,66675,5
35767,66727,5
35789,66744,4
35789,66758,5
35801,66787,5
35805,66778,5
35810,66788,4
35819,66787,4
35818,66833,5
35824,66801,5
35816,66806,5
35823,66810,4
35831,66844,5
35825,66802,5
35820,66808,5
35822,66814,5
35825,66829,4
35825,66831,5
35839,66829,5
35836,66834,5
35838,66842,5
35845,66849,4
35853,66858,5
35857,66865,5
35858,66876,5
35859,66876,5
35870,66881,4
35865,66890,4
35872,66887,5
35871,66907,5
35876,66912,6
35879,66906,3
35875,66914,5
35880,66910,5
35887,66910,5
35878,66912,4
35875,66909,5
35880,66910,5
35882,66916,5
35876,66908,5
35879,66896,4
35878,66904,5
35875,66910,5
35874,66898,5
35873,66890,5
35858,66870,4
35851,66865,5
35851,66863,5
35847,66846,8
35847,66838,2
35839,66859,4
35835,66837,6
35833,66832,4
35841,66832,5
35837,66826,4
35828,66820,7
35837,66828,3
35836,66834,5
35837,66840,5
35836,66832,4
35839,66824,5
35830,66822,5
35812,66797,5
35802,66778,5
35799,66755,4
35788,66738,5
35783,66717,5
35762,66696,5
35765,66687,5
35752,66689,4
35758,66677,5
35749,66675,5
35749,66668,5
35738,66667,4
35749,66662,4
35735,66661,5
35728,66645,6
35736,66644,4
35733,66658,4
35730,66644,5
35737,66645,5
35736,66654,5
35731,66649,5
35734,66648,4
35734,66651,5
35740,66644,5
35735,66649,5
35735,66648,5
35735,66650,4
35733,66656,5
35732,66651,5
35733,66648,5
35732,66651,5
35739,66654,4
35738,66654,5
35736,66657,5
35736,66653,5
35740,66656,5
35738,66648,4
35743,66644,5
35725,66636,5
35703,66646,6
35729,66637,3
35721,66638,5
35729,66638,5
35687,66636,5
35717,66635,5
35722,66627,4
35719,66622,5
35701,66628,5
35719,66630,5
35722,66624,5
35713,66621,4
35740,66618,5
35718,66615,5
35716,66622,5
35718,66617,5
35758,66615,4
35718,66620,5
35717,66611,5
35722,66609,5
35753,66613,4
35714,66634,6
35714,66618,4
35720,66626,5
35732,66620,5
35720,66632,6
35715,66621,3
35717,66635,5
35723,66616,5
35721,66633,5
35718,66629,4
35721,66619,5
35715,66591,5
35719,66626,5
35720,66636,5
35720,66627,4
35724,66596,5
35719,66620,5
35709,66607,5
35701,66611,5
35710,66584,4
35694,66573,5
35682,66570,5
35677,66558,5
35684,66590,4
35669,66534,5
35668,66520,6
35656,66517,4
35657,66552,5
35650,66507,4
35649,66506,5
35645,66505,5
35649,66521,5
35649,66501,5
35649,66509,4
35648,66495,5
35645,66500,5
35653,66492,5
35650,66505,5
35647,66507,4
35657,66509,5
35652,66518,5
35652,66523,5
35666,66523,4
35656,66512,5
35651,66503,5
35641,66476,5
35637,66476,5
35634,66471,4
35628,66457,5
35618,66445,5
35622,66443,6
35612,66445,4
35619,66446,4
35626,66440,5
35621,66442,5
35625,66446,5
35626,66457,5
35631,66456,4
35619,66458,5
35620,66462,5
35631,66474,5
35629,66470,5
35626,66462,4
35632,66472,5
35628,66477,5
35636,66474,5
35636,66478,4
35638,66478,5
35630,66477,5
35634,66483,5
35647,66491,5
35651,66491,5
35653,66500,4
35645,66503,5
35651,66513,5
35657,66522,6
35658,66535,3
35676,66548,5
35672,66542,5
35678,66548,5
35679,66559,5
35681,66550,4
35674,66557,5
35684,66563,5
35686,66562,5
35693,66570,4
35685,66571,4
35691,66581,5
35687,66586,5
35693,66579,5
35688,66590,4
35697,66595,5
35701,66600,5
35697,66593,5
35700,66595,5
35704,66600,4
35708,66603,6
35706,66614,4
35718,66623,5
35720,66626,5
35722,66640,4
35729,66652,5
35731,66655,5
35738,66667,5
35742,66681,5
35743,66689,4
35763,66718,5
35759,66723,5
35777,66727,5
35774,66745,4
35772,66750,4
35784,66753,5
35785,66769,5
35785,66764,5
35787,66774,4
35782,66777,5
35761,66770,5
35785,66767,5
35793,66759,5
35784,66741,4
35727,66739,5
35771,66731,6
35765,66724,4
35755,66703,5
35707,66689,4
35744,66682,5
35732,66673,5
35729,66663,5
35737,66643,5
35716,66644,4
35713,66627,5
35705,66621,5
35747,66622,5
35696,66616,4
35695,66598,5
35683,66600,5
35725,66591,5
35684,66585,5
35684,66592,4
35686,66592,5
35707,66592,5
35681,66593,5
35692,66600,5
35694,66598,4
35698,66594,5
35686,66609,5
35680,66600,5
35676,66581,5
35673,66533,4
35651,66520,5
35630,66495,5
35613,66455,5
35597,66390,4
35576,66402,4
35563,66374,5
35553,66349,5
35539,66335,5
35533,66315,4
35515,66303,5
35510,66286,5
35495,66296,5
35500,66257,5
35493,66242,4
35476,66233,5
35482,66282,5
35479,66229,5
35470,66228,5
35481,66225,6
35470,66236,3
35473,66212,5
35471,66210,5
35457,66203,5
35454,66202,4
35465,66187,5
35450,66187,5
35441,66170,5
35440,66170,4
35427,66166,4
35428,66145,5
35427,66137,5
35419,66135,5
35415,66134,4
35420,66125,5
35417,66127,5
35408,66124,5
35411,66112,5
35407,66107,4
35411,66101,5
35406,66108,5
35400,66092,5
35392,66082,5
35374,66069,4
35374,66048,6
35366,66038,4
35361,66019,5
35351,66009,5
35342,65991,4
35328,65993,5
35321,65977,5
35325,65966,5
35320,65964,4
35320,65961,5
35323,65954,5
35313,65966,5
35321,65973,5
35322,65965,4
35322,65965,5
35323,65959,5
35313,65962,5
35312,65953,5
35308,65952,4
35305,65946,5
35313,65946,5
35298,65936,5
35299,65939,5
35295,65940,4
35301,65927,5
35296,65922,5
35281,65920,5
35283,65910,4
35272,65895,4
35261,65883,5
35257,65877,5
35253,65850,5
35247,65846,4
35240,65833,5
35238,65825,5
35226,65802,5
35229,65802,5
35209,65786,4
35203,65776,5
35200,65782,5
35199,65767,5
35196,65766,5
35200,65762,4
35193,65762,5
35194,65760,5
35195,65761,5
35195,65760,5
35188,65762,4
35194,65768,5
35205,65770,5
35197,65779,5
35207,65777,4
35199,65777,4
35204,65776,5
35207,65777,5
35207,65770,5
35194,65753,4
35189,65743,5
35173,65718,5
35156,65701,5
35149,65681,5
35124,65669,4
35130,65658,5
35129,65650,5
35135,65651,5
35106,65647,5
35138,65639,4
35128,65639,6
35133,65643,4
35090,65645,5
35132,65649,5
35131,65648,6
35131,65652,3
35137,65647,5
35136,65642,5
35130,65639,4
35137,65633,4
35170,65647,5
35128,65650,5
35123,65640,5
35122,65642,4
35177,65644,5
35126,65636,5
35119,65630,5
35124,65630,5
35140,65636,4
35122,65637,5
35133,65643,5
35134,65651,5
35137,65644,5
35130,65649,4
35128,65657,5
35129,65651,6
35131,65630,4
35144,65660,5
35141,65656,4
35144,65666,5
35150,65627,5
35148,65673,5
35137,65683,4
35151,65675,5
35150,65664,5
35159,65679,5
35148,65682,5
35161,65687,5
35162,65725,4
35167,65707,5
35172,65727,5
35175,65734,5
35183,65798,4
35193,65756,5
35193,65764,5
35202,65779,5
35217,65827,5
35231,65812,4
35232,65827,5
35233,65843,5
35237,65860,6
35252,65861,3
35257,65875,4
35258,65881,5
35274,65887,5
35277,65903,5
35272,65914,4
35288,65928,5
35291,65930,5
35298,65936,5
35302,65952,5
35311,65948,4
35314,65960,5
35318,65967,5
35315,65975,5
35316,65981,5
35323,65992,4
35327,65984,5
35331,65985,5
35330,65988,5
35330,65987,5
35332,65995,5
35337,65999,4
35343,66006,5
35338,66012,5
35347,66016,6
35348,66023,3
35348,66023,5
35359,66031,5
35373,66044,5
35373,66048,4
35371,66062,5
35379,66059,5
35373,66058,5
35375,66060,5
35378,66076,6
35379,66070,3
35385,66064,5
35383,66063,5
35375,66060,5
35378,66041,4
35366,66023,5
35355,66025,5
35347,66008,5
35351,65995,5
35347,66000,4
35353,65993,6
35337,65987,4
35342,65988,5
35354,65990,4
35343,65988,5
35349,65984,5
35349,65981,5
35340,65977,5
35342,65987,4
35340,65982,5
35345,65993,5
35340,65996,5
35363,65993,5
35350,65996,4
35362,66010,5
35363,66019,5
35367,66021,5
35368,66025,5
35366,66029,4
35357,66028,5
35364,66021,5
35357,66022,5
35363,66015,5
35370,66016,4
35359,66012,5
35362,66016,6
35369,66027,4
35366,66015,4
35363,66022,5
35362,66019,5
35360,66008,5
35354,66018,5
35364,66012,4
35362,66012,5
35364,66015,5
35352,66022,5
35366,66012,5
35362,66010,4
35357,66019,5
35334,66010,5
35359,66011,5
35355,66012,5
35362,66014,4
35319,66022,5
35361,66020,5
35367,66015,5
35373,66035,5
35358,66048,4
35383,66054,5
35387,66043,5
35384,66049,6
35417,66057,3
35386,66063,5
35390,66065,5
35400,66068,5
35442,66079,5
35390,66095,4
35395,66085,5
35406,66096,5
35435,66114,5
35417,66108,5
35420,66109,4
35415,66120,5
35437,66120,5
35429,66139,5
35426,66133,5
35426,66139,4
35434,66111,5
35441,66137,5
35429,66138,5
35434,66128,4
35422,66094,5
35429,66119,4
35419,66128,5
35427,66129,5
35430,66090,4
35419,66124,5
35435,66116,5
35417,66107,5
35422,66120,5
35418,66107,4
35417,66101,5
35409,66097,5
35409,66129,5
35410,66086,5
35410,66092,4
35409,66095,5
35412,66138,5
35412,66106,5
35419,66108,5
35417,66120,4
35430,66139,5
35433,66137,5
35437,66141,5
35433,66137,4
35433,66138,4
35422,66123,6
35423,66113,4
35412,66097,5
35405,66090,4
35395,66065,5
35400,66060,5
35397,66056,5
35396,66054,5
35390,66056,4
35390,66058,5
35397,66059,5
35383,66059,5
35393,66064,5
35391,66053,4
35396,66065,5
35396,66049,5
35393,66058,5
35395,66072,5
35400,66082,4
35399,66079,5
35410,66075,5
35411,66092,5
35419,66094,4
35413,66103,5
35423,66107,5
35420,66105,6
35429,66109,4
35428,66113,4
35422,66117,5
35423,66121,5
35427,66126,5
35431,66127,5
35447,66146,4
35445,66159,5
35451,66163,5
35454,66164,5
35448,66169,5
35463,66165,4
35457,66173,5
35452,66165,5
35453,66162,5
35457,66157,4
35461,66170,4
35448,66158,5
35455,66173,5
35446,66153,5
35450,66168,5
35458,66163,4
35455,66166,5
35448,66160,5
35462,66175,5
35456,66164,4
35453,66165,5
35457,66175,5
35459,66176,5
35464,66178,5
35463,66189,4
35479,66193,5
35470,66202,5
35473,66204,5
35476,66201,5
35484,66217,4
35477,66221,5
35486,66226,5
35495,66232,5
35500,66235,4
35499,66238,4
35500,66249,5
35492,66244,5
35501,66246,5
35497,66254,4
35503,66259,6
35511,66260,4
35514,66265,5
35514,66278,5
35519,66275,4
35524,66285,5
35530,66290,5
35521,66285,5
35525,66284,5
35497,66293,4
35528,66284,5
35529,66291,5
35524,66283,5
35492,66288,5
35527,66289,4
35528,66290,5
35519,66292,5
35483,66286,5
35514,66282,4
35514,66277,4
35513,66281,5
35536,66277,5
35518,66270,5
35518,66259,4
35506,66252,5
35538,66243,6
35494,66239,4
35494,66242,5
35495,66225,4
35538,66225,5
35488,66222,5
35487,66220,5
35481,66223,5
35501,66221,4
35486,66213,5
35484,66229,5
35487,66213,5
35484,66203,5
35490,66211,4
35484,66215,5
35481,66207,5
35476,66187,5
35478,66199,4
35484,66203,4
35483,66209,5
35477,66170,5
35482,66210,5
35478,66202,4
35474,66192,5
35472,66187,5
35474,66200,5
35477,66197,5
35476,66188,4
35472,66213,5
35466,66183,5
35467,66187,5
35462,66187,5
35460,66228,4
35461,66175,5
35458,66169,5
35453,66170,5
35447,66175,5
35448,66135,4
35435,66129,5
35432,66109,5
35432,66113,5
35422,66087,4
35418,66087,4
35412,66082,5
35410,66091,5
35418,66086,5
35415,66088,5
35411,66089,4
35419,66100,5
35416,66100,5
35415,66100,5
35423,66107,4
35418,66107,5
35432,66110,5
35426,66123,5
35431,66128,5
35439,66136,4
35445,66136,5
35435,66144,5
35443,66142,5
35439,66134,5
35439,66138,4
35420,66131,5
35425,66111,5
35423,66100,5
35418,66091,4
35422,66088,4
35416,66097,6
35412,66104,4
35428,66113,5
35429,66112,4
35434,66125,7
35428,66120,3
35437,66128,5
35430,66139,5
35443,66152,4
35447,66163,5
35458,66172,5
35453,66174,5
35459,66178,5
35461,66178,4
35467,66184,5
35469,66190,5
35461,66195,5
35467,66185,5
35470,66193,4
35463,66176,5
35465,66178,5
35454,66171,5
35447,66161,4
35449,66163,4
35448,66160,5
35443,66163,6
35447,66163,4
35442,66152,4
35438,66161,5
35453,66170,5
35450,66169,5
35447,66162,5
35450,66161,4
35439,66160,5
35432,66160,5
35445,66143,5
35440,66142,5
35438,66148,4
35440,66151,5
35441,66143,5
35434,66151,5
35432,66148,5
35437,66139,4
35431,66130,5
35430,66131,5
35430,66132,5
35438,66124,5
35433,66133,4
35441,66124,5
35434,66136,5
35432,66134,6
35437,66138,3
35430,66139,5
35437,66151,5
35435,66156,5
35448,66164,5
35444,66174,4
35453,66181,5
35429,66183,5
35460,66195,5
35465,66200,5
35478,66216,4
35443,66216,5
35485,66226,5
35485,66248,5
35493,66245,5
35475,66262,4
35497,66261,5
35498,66252,5
35501,66262,5
35526,66269,4
35494,66271,5
35508,66280,4
35504,66278,5
35541,66284,5
35504,66282,6
35504,66274,3
35504,66273,5
35531,66265,5
35498,66261,5
35491,66249,4
35489,66247,5
35487,66238,5
35482,66226,5
35469,66225,5
35476,66219,4
35467,66198,5
35469,66213,5
35463,66211,5
35466,66207,5
35467,66171,4
35465,66212,5
35473,66216,5
35458,66209,5
35463,66173,4
35462,66206,4
35467,66217,6
35474,66217,4
35461,66221,5
35477,66228,4
35470,66222,5
35482,66219,5
35474,66245,5
35468,66206,5
35460,66197,4
35450,66178,5
35444,66202,5
35435,66145,5
35427,66140,5
35417,66133,4
35420,66140,5
35407,66117,5
35416,66119,5
35413,66120,5
35422,66131,4
35417,66125,5
35416,66133,5
35423,66124,5
35418,66124,5
35425,66134,4
35411,66141,5
35425,66139,6
35421,66135,4
35413,66142,4
35426,66131,5
35411,66126,5
35413,66125,5
35414,66131,5
35416,66128,4
35408,66129,5
35411,66119,5
35416,66118,5
35408,66128,5
35408,66121,4
35406,66116,5
35413,66126,5
35399,66127,5
35409,66120,5
35406,66117,4
35407,66112,5
35397,66105,5
35402,66119,5
35401,66104,5
35403,66106,4
35394,66096,5
35400,66098,5
35389,66086,6
35387,66080,3
35391,66082,5
35381,66071,5
35382,66073,5
35378,66072,5
35384,66068,4
35385,66072,5
35378,66071,5
35381,66065,5
35375,66070,5
35384,66079,4
35379,66080,5
35381,66084,5
35381,66080,5
35392,66093,5
35388,66095,4
35387,66096,5
35390,66102,5
35396,66101,5
35395,66102,5
35402,66107,5
35391,66111,4
35390,66105,5
35389,66103,5
35391,66105,4
35388,66106,5
35394,66103,5
35381,66094,5
35380,66101,5
35377,66089,4
35374,66077,5
35360,66076,5
35360,66074,5
35367,66056,5
35355,66055,4
35352,66042,5
35354,66041,5
35347,66030,5
35351,66023,5
35338,66015,4
35335,66019,5
35342,66022,5
35338,66014,5
35334,66025,5
35331,66010,4
35337,66002,6
35337,66013,4
35335,66010,5
35328,66009,4
35339,66017,5
35338,66020,5
35339,66024,5
35306,66022,5
35336,66015,4
35333,66008,5
35324,66003,5
35278,65988,5
35310,65981,5
35311,65968,4
35288,65951,5
35283,65925,5
35282,65918,5
35274,65902,5
35273,65899,4
35295,65890,5
35262,65893,5
35261,65883,5
35261,65888,5
35298,65885,4
35263,65885,5
35258,65878,6
35248,65873,4
35265,65878,4
35243,65866,5
35253,65870,5
35242,65865,5
35251,65867,5
35237,65861,4
35241,65860,5
35235,65849,5
35237,65834,5
35233,65855,5
35235,65854,4
35245,65861,5
35232,65817,5
35239,65862,5
35241,65859,5
35243,65865,5
35246,65834,4
35255,65881,5
35251,65870,5
35252,65870,6
35253,65901,3
35264,65885,5
35245,65878,5
35254,65887,5
35256,65925,4
35258,65891,5
35260,65896,5
35259,65892,5
35261,65946,5
35270,65899,4
35270,65906,5
35271,65905,5
35267,65920,5
35275,65919,5
35271,65918,4
35285,65931,5
35295,65928,5
35292,65938,5
35301,65958,5
35295,65970,4
35307,65980,5
35319,65984,5
35322,66006,5
35330,66021,5
35346,66033,5
35346,66051,4
35353,66058,5
35370,66080,5
35372,66094,4
35379,66102,5
35387,66114,5
35396,66127,5
35400,66135,5
35405,66134,4
35411,66151,5
35415,66152,5
35406,66156,5
35414,66152,5
35416,66165,4
35423,66162,5
35418,66166,5
35427,66171,5
35426,66175,5
35434,66176,4
35440,66175,5
35440,66189,5
35444,66191,5
35440,66191,5
35448,66203,4
35449,66205,7
35469,66215,3
35459,66236,5
35475,66234,4
35476,66250,5
35484,66258,5
35481,66253,5
35486,66267,5
35493,66269,4
35489,66257,5
35490,66268,5
35487,66265,5
35482,66251,5
35477,66243,4
35479,66228,5
35480,66226,5
35475,66224,5
35471,66228,5
35484,66218,4
35480,66231,5
35475,66225,5
35479,66238,5
35473,66237,5
35474,66244,4
35490,66252,5
35494,66261,5
35498,66271,5
35504,66278,4
35508,66284,5
35526,66294,5
35526,66304,5
35531,66316,5
35545,66328,4
35544,66347,5
35543,66350,5
35554,66366,5
35560,66373,5
35560,66389,4
35582,66405,5
35590,66417,5
35591,66430,5
35608,66446,5
35612,66465,4
35621,66484,4
35630,66493,5
35637,66509,5
35636,66503,5
35646,66518,3
35626,66526,5
35644,66518,5
35647,66516,5
35644,66521,4
35617,66525,5
35652,66525,5
35644,66531,5
35649,66531,5
35613,66532,4
35645,66518,5
35652,66524,5
35650,66514,5
35662,66530,5
35653,66527,4
35649,66532,5
35654,66531,5
35696,66542,5
35674,66552,5
35665,66551,4
35676,66558,6
35723,66577,4
35680,66588,5
35691,66597,5
35701,66615,6
35727,66624,3
35718,66638,5
35724,66648,5
35728,66657,4
35736,66663,4
35737,66672,5
35745,66691,5
35754,66692,5
35761,66689,4
35765,66719,5
35759,66733,5
35767,66737,5
35772,66703,5
35773,66746,4
35781,66749,5
35781,66738,5
35777,66698,5
35775,66730,5
35774,66736,4
35768,66733,5
35770,66755,6
35777,66723,4
35770,66736,5
35779,66739,4
35778,66786,5
35786,66739,5
35778,66748,5
35785,66744,4
35786,66784,4
35789,66759,5
35799,66768,5
35792,66774,5
35802,66794,4
35813,66803,5
35818,66813,5
35821,66826,5
35833,66842,5
35836,66854,4
35833,66841,5
35827,66839,5
35828,66827,5
35819,66808,5
35817,66801,4
35810,66785,5
35807,66787,5
35801,66779,6
35808,66780,4
35802,66780,4
35799,66789,5
35805,66795,5
35805,66793,5
35815,66798,4
35822,66801,4
35828,66812,5
35827,66813,5
35834,66831,5
35839,66835,4
35838,66843,5
35846,66855,5
35854,66873,5
35851,66875,5
35861,66891,4
35870,66898,5
35873,66907,5
35875,66903,5
35878,66912,5
35875,66910,5
35876,66930,4
35888,66923,5
35885,66930,5
35891,66943,6
35898,66951,3
35896,66954,5
35903,66971,5
35910,66967,5
35919,66979,4
35923,66980,4
35921,66991,5
35918,66988,5
35927,66989,5
35923,66996,4
35923,66996,5
35929,67000,5
35937,67003,5
35933,67003,5
35930,67003,4
35930,66998,5
35929,67008,5
35928,67003,5
35931,67006,5
35920,66991,4
35929,66995,6
35927,66986,4
35926,66989,5
35921,66989,5
35929,66995,4
35920,66991,5
35920,67005,5
35931,67002,5
35931,66998,4
35933,67004,4
35930,67018,5
35940,67021,5
35946,67035,5
35948,67035,4
35950,67038,5
35956,67050,5
35959,67062,5
35962,67067,5
35959,67071,4
35973,67081,5
35976,67083,5
35983,67091,5
35982,67107,5
35989,67098,4
35991,67112,5
35989,67114,6
35964,67120,4
35988,67115,5
35987,67107,4
35987,67105,5
35949,67085,5
35977,67084,5
35959,67068,4
35960,67056,4
35912,67037,5
35940,67028,5
35939,67015,5
35926,67005,4
35939,66995,5
35927,66987,5
35919,66993,5
35924,66998,5
35960,66994,4
35916,67000,5
35925,66994,5
35919,67003,5
35962,67005,5
35927,67023,4
35944,67017,5
35932,67025,5
35952,67026,6
35945,67039,4
35938,67044,4
35952,67059,5
35958,67049,5
35955,67063,5
35958,67058,4
35947,67041,4
35937,67000,5
35926,67009,5
35922,66998,5
35920,66978,5
35904,66935,4
35899,66950,5
35886,66947,5
35892,66945,5
35893,66933,4
35894,66937,5
35895,66938,5
35897,66939,5
35892,66964,5
35881,66947,5
35889,66943,4
35896,66932,5
35891,66992,5
35895,66952,5
35897,66958,4
35904,66960,5
35902,66996,5
35898,66969,5
35904,66971,4
35910,66976,4
35913,66986,5
35913,66982,5
35914,66984,5
35913,66987,4
35912,66990,5
35919,66996,5
35923,66988,5
35926,66996,5
35917,67008,4
35920,67007,5
35924,67011,5
35937,67026,5
35942,67022,5
35928,67012,4
35934,67011,6
35924,67013,4
35922,67012,5
35927,66998,5
35925,67001,4
35920,66987,5
35916,66992,5
35924,66992,5
35912,66982,4
35914,66987,4
35906,66985,5
35917,66983,5
35915,66976,5
35913,66978,4
35904,66976,5
35907,66974,5
35906,66980,5
35902,66977,5
35906,66985,7
35905,66990,2
35896,66989,5
35918,66994,5
35924,67008,5
35923,67022,4
35928,67020,5
35932,67030,6
35930,67034,4
35936,67049,5
35937,67048,4
35954,67051,5
35943,67056,5
35949,67058,5
35948,67061,4
35943,67060,4
35947,67069,5
35949,67063,5
35944,67073,5
35947,67060,4
35954,67062,5
35942,67063,5
35942,67060,5
35940,67054,5
35936,67056,4
35940,67049,5
35934,67040,5
35941,67036,5
35926,67037,5
35926,67027,4
35916,67017,5
35914,67004,5
35906,66980,5
35900,66979,5
35894,66967,4
35889,66954,5
35886,66946,5
35883,66942,5
35877,66932,4
35874,66949,4
35879,66936,5
35883,66936,5
35879,66941,5
35880,66949,4
35872,66951,5
35890,66961,5
35885,66959,5
35889,66967,5
35896,66967,4
35880,66971,5
35887,66981,5
35897,66981,5
35896,66980,5
35870,66981,5
35896,66985,4
35892,66968,5
35883,66955,5
35840,66940,5
35869,66926,4
35859,66909,5
35851,66894,5
35823,66889,5
35850,66884,5
35836,66885,4
35845,66889,5
35871,66894,5
35853,66892,5
35851,66900,4
35841,66892,5
35890,66901,5
35851,66907,5
35859,66917,5
35858,66923,4
35888,66929,5
35861,66927,5
35866,66929,5
35871,66932,5
35873,66943,4
35867,66933,6
35868,66929,4
35855,66923,5
35860,66912,5
35849,66913,4
35852,66917,5
35857,66909,5
35847,66866,5
35847,66887,5
35848,66887,4
35842,66889,5
35840,66861,5
35839,66898,5
35844,66893,4
35842,66896,5
35843,66893,4
35841,66888,5
35842,66885,5
35837,66884,4
35830,66916,5
35841,66884,5
35838,66889,5
35840,66885,4
35832,66920,4
35833,66883,5
35829,66880,5
35835,66879,5
35833,66909,5
35838,66883,4
35844,66887,5
35842,66887,5
35841,66900,5
35835,66895,5
35846,66910,4
35845,66909,5
35849,66912,5
35850,66919,5
35853,66923,4
35855,66929,4
35864,66931,5
35858,66946,5
35867,66940,5
35866,66946,5
35867,66947,4
35875,66957,5
35863,66950,5
35872,66951,6
35862,66951,3
35868,66957,5
35869,66957,5
35872,66964,5
35875,66962,5
35876,66962,4
35873,66958,5
35871,66949,5
35865,66954,5
35875,66948,5
35863,66944,4
35862,66928,5
35852,66929,5
35848,66916,5
35847,66906,4
35844,66904,4
35850,66906,5
35842,66901,5
35842,66903,5
35837,66904,4
35842,66907,6
35851,66906,4
35840,66906,5
35845,66915,5
35849,66915,6
35849,66926,3
35848,66920,5
35856,66935,5
35866,66941,5
35855,66938,4
35852,66933,5
35853,66932,5
35845,66937,5
35852,66930,5
35860,66922,4
35856,66920,5
35838,66904,5
35842,66895,5
35823,66876,4
35816,66871,4
35810,66852,5
35807,66831,5
35804,66838,5
35808,66839,4
35806,66832,5
35812,66842,6
35806,66838,4
35809,66847,5
35806,66841,4
35807,66851,5
35808,66844,5
35809,66850,5
35809,66854,5
35812,66854,4
35808,66850,5
35816,66864,5
35810,66858,5
35814,66854,5
35815,66859,4
35814,66858,5
35809,66855,5
35808,66846,5
35808,66853,4
35806,66847,4
35810,66847,5
35793,66840,5
35805,66849,5
35813,66841,4
35809,66852,5
35783,66861,5
35817,66866,6
35815,66858,4
35808,66851,4
35777,66858,5
35819,66853,5
35818,66853,5
35818,66866,5
35802,66863,4
35816,66870,5
35819,66874,5
35821,66862,5
35849,66869,5
35823,66868,4
35820,66876,5
35820,66870,5
35868,66876,5
35818,66876,4
35831,66884,4
35830,66888,5
35868,66899,5
35843,66904,5
35843,66917,5
35861,66928,4
35860,66941,5
35861,66950,5
35870,66966,6
35878,66981,3
35887,66962,5
35896,67008,5
35894,67009,5
35905,67022,5
35911,66993,4
35909,67037,5
35913,67053,5
35921,67063,5
35927,67028,5
35926,67075,4
35935,67080,5
35943,67086,5
35951,67102,5
35945,67106,4
35954,67110,4
35953,67115,5
35955,67161,5
35951,67129,5
35956,67125,4
35969,67126,6
35960,67164,4
35970,67133,5
35974,67127,5
35969,67126,4
35971,67136,5
35964,67110,5
35959,67107,5
35963,67096,5
35955,67089,4
35953,67083,5
35953,67077,5
35954,67080,5
35950,67082,5
35943,67069,4
35941,67084,5
35951,67071,5
35952,67084,5
35947,67083,4
35953,67091,4
35949,67082,5
35956,67095,5
35956,67105,5
35963,67111,4
35965,67103,5
35967,67115,6
35975,67116,4
35971,67118,5
35974,67115,4
35978,67111,5
35967,67106,5
35969,67092,5
35963,67086,5
35952,67080,4
35942,67056,5
35936,67045,5
35931,67029,5
35933,67027,5
35923,67029,4
35929,67028,5
35925,67043,5
35926,67041,5
35922,67039,4
35928,67034,4
35935,67035,5
35926,67039,5
35931,67038,5
35927,67041,4
35932,67046,5
35943,67049,5
35937,67045,6
35946,67052,4
35942,67064,4
35938,67064,5
35941,67065,5
35947,67068,5
35949,67065,5
35944,67066,4
35949,67070,5
35940,67056,5
35946,67052,5
35949,67058,5
35942,67063,4
35939,67057,5
35944,67062,5
35944,67066,5
35949,67062,5
35941,67056,4
35938,67052,5
35936,67047,5
35938,67046,5
35943,67056,5
35938,67047,4
35937,67048,5
35941,67049,5
35934,67038,5
35937,67046,4
35940,67044,5
35934,67033,5
35930,67037,5
35920,67026,5
35925,67025,4
35926,67027,5
35927,67015,5
35920,67023,5
35928,67023,5
35925,67017,4
35922,67028,5
35926,67036,5
35925,67037,5
35920,67042,5
35940,67056,4
35942,67069,5
35948,67074,5
35922,67076,5
35963,67102,4
35971,67121,6
35981,67129,4
35942,67138,5
35991,67147,5
35999,67160,4
36004,67170,5
35991,67173,5
36005,67181,5
36010,67183,5
36021,67197,4
36047,67208,5
36033,67216,5
36029,67205,5
36022,67224,5
36077,67214,4
36027,67213,5
36032,67223,5
36025,67220,5
36049,67208,5
36030,67207,4
36023,67190,5
36012,67183,5
36022,67177,4
36010,67173,4
36003,67164,4
35999,67148,6
36007,67134,4
35994,67139,5
35997,67140,4
35983,67146,5
36001,67111,5
35984,67149,5
36003,67147,5
36002,67161,5
36004,67120,4
36007,67159,5
35999,67163,5
36006,67174,5
36006,67166,4
36011,67159,5
36015,67181,5
36012,67165,5
36015,67222,5
36018,67184,4
36019,67185,5
36008,67169,5
36009,67206,5
35995,67150,4
35993,67125,4
35983,67120,5
35972,67119,5
35966,67083,5
35960,67059,4
35957,67056,5
35950,67053,5
35949,67057,5
35950,67048,5
35945,67053,4
35949,67062,5
35954,67065,5
35967,67073,5
35961,67077,5
35960,67082,4
35970,67088,5
35974,67096,5
35984,67107,5
35980,67120,5
35998,67132,4
36005,67146,5
36021,67167,5
36021,67188,5
36032,67198,5
36025,67207,4
36036,67200,5
36032,67202,5
36045,67194,5
36040,67201,4
36046,67208,5
36044,67206,5
36037,67218,5
36040,67218,5
36034,67215,5
36041,67200,4
36028,67186,5
36029,67179,5
36020,67176,5
36020,67169,4
36014,67157,5
36011,67151,5
36008,67139,5
35991,67133,5
35989,67118,4
35983,67127,5
35987,67116,5
35988,67117,5
35992,67113,5
35988,67116,5
35985,67101,4
35985,67102,5
35986,67101,5
35983,67109,4
35982,67109,5
35981,67106,5
35978,67114,5
35989,67118,5
35990,67118,4
35995,67127,5
35990,67131,5
35999,67138,5
36002,67151,5
36006,67152,4
36016,67165,5
36017,67173,5
36013,67175,5
36021,67177,5
36023,67193,4
36023,67198,5
36041,67195,5
36038,67202,4
36041,67214,5
36042,67214,4
36043,67216,6
36035,67219,3
36043,67218,5
36050,67222,4
36037,67221,5
36042,67213,5
36043,67220,5
36038,67204,5
36040,67213,4
36039,67205,5
36035,67212,5
36036,67200,5
36030,67188,5
36026,67197,4
36010,67179,5
36026,67179,5
36013,67174,5
36018,67165,5
35988,67163,4
36007,67160,5
35999,67147,5
35991,67137,6
35958,67125,4
35985,67122,4
35972,67114,5
35978,67100,5
35956,67093,5
35960,67079,4
35952,67054,5
35953,67042,5
35965,67029,5
35937,67016,5
35922,67004,4
35921,66997,5
35955,66994,5
35915,66992,5
35909,66995,5
35912,66995,4
35943,66991,5
35913,67000,5
35919,67006,5
35923,67006,5
35937,67012,5
35922,67019,4
35935,67012,5
35932,67032,5
35935,67011,6
35941,67041,3
35935,67033,5
35945,67035,5
35934,67006,5
35939,67035,4
35938,67039,4
35943,67032,5
35935,66972,5
35922,67003,5
35909,66985,4
35910,66976,5
35888,66969,5
35891,66955,5
35895,66946,5
35893,66937,4
35886,66975,5
35893,66958,5
35895,66961,5
35905,66964,5
35905,67016,4
35903,66984,6
35911,66985,4
35907,66983,5
35916,67020,5
35918,67009,6
35915,67006,3
35925,67015,5
35926,67027,5
35932,67031,4
35936,67040,4
35943,67049,5
35952,67066,5
35949,67070,5
35947,67068,4
35955,67068,5
35960,67080,5
35958,67080,5
35956,67076,5
35964,67082,4
35961,67084,5
35962,67077,5
35963,67091,5
35959,67091,5
35960,67091,4
35962,67082,5
35965,67076,6
35949,67074,4
35950,67066,5
35939,67052,4
35941,67051,5
35943,67045,5
35941,67046,5
35935,67032,4
35933,67030,4
35930,67030,5
35926,67013,5
35931,67026,5
35917,67018,4
35923,67014,5
35921,67011,5
35927,67013,5
35917,67009,5
35928,67024,4
35934,67023,5
35931,67030,5
35939,67045,5
35942,67045,5
35946,67066,4
35946,67075,5
35944,67076,5
35965,67093,6
35965,67104,4
35963,67106,4
35972,67118,5
35974,67119,5
35989,67142,5
35985,67140,5
35992,67154,4
35992,67158,5
35992,67165,5
36007,67171,5
36001,67174,4
36005,67173,5
36007,67177,5
36008,67177,5
36002,67190,5
36001,67179,4
36002,67184,5
36009,67178,5
36009,67165,5
36004,67173,5
35998,67156,5
35992,67147,4
35994,67147,5
35982,67139,5
35981,67121,6
35974,67117,3
35968,67100,5
35962,67090,5
35946,67072,5
35947,67066,5
35945,67050,4
35938,67046,5
35932,67046,5
35934,67037,5
35936,67045,4
35928,67043,4
35930,67035,5
35920,67042,5
35936,67043,5
35934,67047,4
35940,67047,5
35903,67041,5
35932,67046,5
35937,67043,5
35938,67045,4
35894,67051,6
35933,67057,4
35940,67053,5
35930,67043,5
35906,67041,4
35922,67012,5
35908,66997,5
35894,66985,5
35916,66972,5
35885,66963,4
35879,66948,5
35872,66941,5
35912,66947,5
35885,66955,4
35888,66970,4
35890,66972,5
35926,66968,5
35895,66980,5
35895,66990,4
35898,67000,5
35916,67003,5
35913,67006,5
35920,67029,5
35924,67022,4
35929,67026,5
35929,67046,6
35936,67054,4
35938,67059,5
35941,67040,4
35940,67069,5
35939,67066,5
35942,67083,5
35941,67032,5
35946,67069,4
35948,67080,5
35945,67080,5
35943,67075,5
35947,67082,4
35944,67084,4
35942,67087,5
35940,67114,5
35954,67085,5
35943,67080,4
35946,67081,5
35941,67114,5
35933,67071,5
35930,67068,5
35931,67066,4
35935,67086,5
35931,67048,5
35929,67056,6
35927,67046,4
35921,67052,4
35922,67035,5
35914,67029,5
35918,67034,5
35917,67026,5
35915,67040,4
35924,67040,5
35925,67042,5
35923,67041,5
35924,67048,4
35924,67060,4
35935,67069,5
35940,67085,5
35937,67095,5
35947,67102,4
35956,67115,5
35956,67116,5
35960,67134,5
35974,67133,5
35967,67145,5
35972,67151,4
35973,67153,5
35975,67164,5
35978,67164,5
35971,67163,4
35988,67167,5
35972,67161,5
35973,67150,5
35972,67143,5
35968,67144,4
35964,67136,5
35956,67114,5
35948,67120,5
35951,67093,4
35936,67089,4
35932,67084,5
35933,67058,5
35925,67058,5
35919,67055,4
35925,67047,5
35920,67052,5
35908,67047,5
35919,67044,5
35915,67041,4
35921,67052,6
35923,67049,4
35912,67053,5
35921,67046,5
35925,67056,4
35929,67058,5
35924,67061,5
35926,67064,5
35929,67061,5
35925,67058,4
35917,67046,5
35913,67034,5
35906,67020,5
35901,67016,4
35900,67005,4
35893,66988,5
35878,66987,5
35888,66988,5
35888,66996,4
35886,67002,5
35893,67010,5
35902,67017,5
35904,67027,5
35901,67031,4
35913,67035,5
35920,67044,6
35924,67045,4
35923,67056,5
35923,67074,4
35935,67073,5
35941,67085,5
35946,67088,5
35944,67089,5
35946,67098,4
35950,67103,5
35957,67109,5
35960,67118,5
35953,67119,4
35961,67117,4
35966,67121,5
35961,67129,5
35934,67129,5
35967,67127,4
35963,67135,5
35966,67132,5
35935,67132,5
35976,67145,5
35978,67136,4
35980,67142,5
35947,67136,5
35973,67128,5
35963,67133,5
35973,67128,4
35994,67128,5
35974,67133,5
35973,67122,5
35971,67128,5
36013,67113,4
35967,67110,5
35962,67118,5
35975,67115,5
35996,67127,4
35977,67123,4
35980,67130,5
35982,67131,5
35983,67143,5
35985,67144,4
35992,67147,5
35990,67155,5
35993,67147,5
36002,67173,5
35996,67187,5
36007,67194,4
36003,67158,5
36015,67207,5
36030,67214,5
36022,67214,4
36032,67186,5
36033,67226,5
36040,67235,5
36045,67236,5
36044,67253,4
36038,67251,5
36053,67257,5
36051,67262,5
36049,67293,4
36044,67261,4
36048,67254,5
36049,67255,5
36052,67301,5
36037,67245,4
36038,67232,5
36035,67231,6
36030,67233,4
36029,67204,5
36018,67199,4
36012,67186,7
36006,67175,3
36001,67164,5
36008,67165,5
36003,67166,4
36001,67155,5
36002,67159,5
36003,67154,5
36007,67167,5
36002,67174,4
36014,67180,5
36026,67173,5
36012,67186,5
36021,67188,5
36024,67187,4
36026,67202,5
36031,67198,5
36031,67205,5
36025,67203,4
36020,67194,5
36013,67169,5
36007,67148,6
35995,67141,7
35987,67130,1
35985,67123,5
35972,67084,5
35958,67090,5
35960,67081,5
35970,67088,4
35967,67096,5
35969,67093,5
35970,67091,5
35976,67105,5
35980,67111,4
35981,67108,5
35980,67125,5
35991,67137,5
35999,67139,5
36005,67160,4
36015,67170,5
36012,67177,5
36024,67185,5
36027,67192,5
36022,67195,4
36029,67200,5
36035,67213,5
36040,67213,6
36043,67223,3
36046,67221,5
36043,67222,5
36046,67231,5
36046,67233,5
36054,67229,4
36046,67239,5
36049,67248,5
36056,67245,5
36065,67258,5
36068,67252,4
36069,67268,5
36059,67256,5
36067,67256,5
36057,67254,5
36060,67264,4
36063,67265,5
36063,67265,5
36070,67265,5
36063,67257,4
36054,67256,6
36060,67261,4
36060,67252,5
36065,67253,5
36062,67247,6
36057,67245,3
36060,67262,5
36060,67248,5
36062,67256,5
36066,67254,4
36068,67257,5
36071,67259,5
36069,67263,5
36072,67276,5
36077,67281,4
36074,67279,5
36077,67284,5
36092,67298,5
36083,67303,4
36066,67316,4
36096,67329,5
36109,67337,5
36115,67348,5
36079,67353,4
36122,67361,5
36124,67366,6
36132,67376,4
36136,67386,5
36131,67398,4
36134,67396,5
36147,67406,5
36181,67410,5
36142,67402,5
36139,67404,4
36141,67396,5
36184,67392,5
36130,67385,5
36128,67371,5
36119,67364,4
36130,67342,5
36102,67332,5
36096,67321,5
36089,67308,4
36093,67302,4
36087,67292,5
36083,67299,5
36086,67304,5
36084,67274,4
36089,67313,5
36092,67315,5
36096,67316,6
36093,67282,4
36098,67324,4
36099,67330,5
36105,67340,5
36107,67324,5
36114,67354,5
36120,67363,4
36118,67364,5
36120,67391,5
36117,67368,5
36114,67351,5
36098,67330,4
36107,67366,5
36097,67298,5
36087,67292,5
36074,67271,4
36072,67298,5
36069,67269,5
36063,67267,5
36078,67288,5
36072,67295,5
36072,67283,4
36070,67288,5
36080,67289,5
36076,67302,6
36087,67300,3
36090,67327,5
36094,67330,5
36094,67326,5
36101,67337,5
36095,67350,4
36106,67340,5
36103,67345,5
36100,67362,5
36100,67352,4
36110,67359,4
36114,67362,5
36111,67357,5
36106,67359,5
36110,67353,4
36113,67358,5
36109,67355,5
36103,67354,5
36106,67352,5
36106,67357,4
36102,67353,6
36102,67359,4
36107,67353,5
36105,67356,5
36112,67349,4
36093,67339,5
36101,67340,5
36100,67332,5
36090,67324,5
36096,67328,4
36082,67323,5
36082,67309,5
36076,67308,5
36071,67302,4
36068,67292,4
36067,67286,5
36064,67280,5
36061,67273,5
36049,67260,4
36060,67260,5
36057,67265,5
36051,67249,5
36055,67265,5
36059,67259,4
36062,67268,5
36064,67279,6
36064,67277,4
36066,67291,5
36077,67301,4
36076,67305,5
36087,67305,5
36086,67315,5
36080,67324,5
36094,67333,4
36097,67333,5
36102,67348,5
36102,67362,5
36111,67374,4
36113,67374,5
36116,67378,5
36115,67380,5
36113,67393,5
36142,67389,4
36125,67399,5
36127,67401,5
36117,67389,5
36124,67383,5
36110,67372,4
36111,67369,5
36104,67350,5
36101,67338,6
36086,67323,4
36085,67304,4
36068,67295,5
36065,67291,5
36066,67283,5
36048,67271,5
36059,67270,4
36061,67282,5
36063,67274,5
36028,67288,5
36059,67282,4
36059,67283,5
36065,67291,5
36026,67296,5
36073,67306,5
36069,67303,4
36079,67316,6
36070,67329,4
36087,67328,5
36089,67333,5
36093,67340,5
36123,67345,4
36084,67317,5
36080,67301,5
36069,67286,5
36102,67275,4
36052,67266,5
36050,67245,5
36034,67238,5
36064,67233,4
36048,67239,4
36043,67241,5
36051,67258,5
36050,67260,5
36055,67265,4
36055,67264,5
36057,67274,5
36056,67260,5
36064,67285,5
36070,67296,4
36065,67301,5
36074,67279,5
36076,67312,5
36082,67317,5
36081,67315,5
36079,67280,5
36078,67326,4
36077,67323,5
36078,67327,5
36080,67342,4
36084,67315,5
36073,67315,5
36069,67316,5
36079,67356,4
36079,67309,4
36062,67309,5
36068,67307,5
36072,67356,5
36072,67317,4
36077,67315,5
36073,67308,5
36072,67321,5
36071,67290,5
36068,67294,4
36065,67288,5
36065,67284,5
36061,67274,5
36054,67262,5
36050,67271,4
36045,67259,5
36044,67259,6
36040,67254,4
36034,67254,5
36032,67245,4
36035,67248,5
36028,67241,5
36035,67240,5
36036,67244,4
36037,67245,5
36043,67255,5
36034,67252,5
36043,67266,5
36046,67273,4
36051,67285,5
36052,67285,5
36063,67288,5
36062,67304,5
36070,67313,4
36074,67317,5
36069,67331,5
36084,67335,5
36079,67333,5
36081,67346,4
36082,67352,5
36080,67341,5
36090,67348,5
36082,67355,5
36091,67343,4
36074,67337,5
36080,67334,5
36065,67316,5
36069,67321,4
36064,67297,5
36057,67283,5
36047,67281,5
36050,67270,5
36036,67263,4
36029,67251,5
36027,67239,5
36028,67239,5
36028,67232,5
36030,67231,4
36017,67233,5
36031,67240,5
36025,67238,5
36024,67238,5
36029,67245,5
36029,67254,4
36032,67256,5
36029,67257,5
36041,67267,4
36044,67270,4
36038,67272,5
36041,67272,5
36034,67258,5
36031,67250,4
36020,67230,5
36012,67216,5
36009,67212,5
35998,67181,5
35992,67182,4
35985,67170,5
35989,67170,5
35984,67162,5
35983,67167,5
35980,67179,4
35991,67168,5
35990,67182,6
35989,67174,4
35989,67172,5
36000,67181,4
35998,67190,5
35998,67194,5
36000,67202,5
35991,67201,4
35996,67198,4
35974,67201,5
35997,67202,5
35991,67196,5
35997,67188,4
35965,67183,5
35999,67178,5
35984,67176,5
35988,67166,5
35960,67165,4
35976,67167,5
35973,67159,5
35965,67153,5
35989,67146,5
35976,67153,4
35972,67149,5
35963,67145,5
36012,67145,6
35956,67138,4
35964,67122,4
35961,67128,5
35994,67128,5
35960,67122,5
35954,67123,4
35958,67122,5
35958,67129,5
35956,67120,5
35952,67121,5
35944,67110,4
35952,67099,5
35952,67117,5
35946,67111,5
35940,67117,5
35950,67088,4
35960,67125,5
35951,67125,5
35962,67136,5
35959,67102,5
35970,67154,5
35969,67157,4
35965,67161,5
35977,67164,5
35971,67172,6
35979,67178,3
35991,67186,5
35978,67216,5
35985,67186,5
35988,67193,4
35994,67202,5
35989,67248,5
35987,67195,5
35990,67199,5
35995,67195,4
35989,67220,5
35990,67201,5
35990,67181,5
35986,67189,5
35977,67183,4
35979,67166,5
35983,67170,5
35978,67171,5
35974,67162,5
35977,67159,4
35984,67164,6
35987,67174,4
35990,67175,5
35975,67172,4
35989,67176,4
35982,67189,5
35985,67186,5
35996,67206,5
36007,67218,4
36017,67238,5
36018,67245,5
36024,67258,5
36030,67262,5
36045,67281,4
36043,67287,5
36041,67269,5
36036,67254,5
36039,67265,5
36033,67249,6
36026,67241,3
36018,67216,5
36015,67210,5
36018,67207,5
36020,67208,4
36016,67210,5
36016,67215,6
36016,67221,4
36022,67207,4
36018,67216,4
36013,67218,5
36025,67233,5
36030,67228,5
36034,67234,4
36033,67239,5
36034,67245,5
36044,67259,5
36045,67256,5
36049,67264,4
36058,67263,5
36058,67275,5
36054,67276,5
36059,67269,5
36063,67277,4
36064,67289,5
36063,67289,5
36061,67284,5
36066,67295,5
36062,67283,4
36061,67294,5
36080,67310,5
36075,67308,6
36086,67305,3
36083,67304,5
36076,67300,5
36072,67300,5
36073,67294,5
36067,67308,4
36072,67295,5
36063,67296,5
36062,67282,5
36069,67286,5
36063,67285,4
36068,67286,5
36064,67276,5
36061,67278,5
36061,67260,5
36059,67262,4
36060,67261,5
36058,67268,5
36057,67260,5
36060,67266,4
36061,67270,5
36056,67267,4
36060,67273,5
36063,67275,5
36044,67282,4
36073,67289,5
36074,67293,5
36077,67294,5
36036,67301,5
36080,67310,4
36076,67304,5
36084,67320,5
36055,67318,5
36097,67337,5
36095,67337,4
36099,67346,5
36100,67338,5
36109,67352,5
36092,67343,5
36096,67348,4
36136,67344,5
36106,67349,5
36095,67335,5
36087,67329,4
36131,67322,4
36085,67299,6
36073,67296,4
36072,67290,5
36083,67279,4
36064,67273,5
36062,67268,5
36055,67259,5
36061,67257,5
36055,67263,4
36064,67264,5
36057,67261,5
36048,67238,5
36054,67260,5
36063,67266,4
36062,67279,5
36055,67249,5
36064,67287,5
36069,67289,5
36077,67305,4
36080,67291,4
36080,67321,5
36091,67330,5
36083,67321,4
36081,67326,4
36069,67287,5
36074,67289,6
36059,67269,4
36047,67298,4
36045,67242,5
36040,67231,5
36036,67226,5
36047,67267,5
36045,67244,4
36053,67252,5
36042,67249,5
36048,67253,5
36048,67250,5
36042,67255,4
36057,67265,5
36054,67265,5
36058,67268,5
36057,67275,5
36070,67287,4
36065,67284,5
36078,67299,5
36080,67299,5
36079,67303,5
36085,67313,4
36078,67318,5
36088,67312,5
36078,67321,5
36082,67324,4
36087,67326,5
36092,67325,5
36093,67322,5
36089,67320,5
36093,67334,4
36095,67329,5
36094,67325,5
36094,67324,5
36093,67332,5
36087,67330,4
36092,67327,5
36093,67337,5
36088,67323,5
36090,67318,4
36090,67325,4
36090,67319,5
36085,67320,5
36079,67309,5
36083,67316,4
36085,67303,6
36071,67308,4
36085,67307,5
36076,67292,5
36082,67293,4
36061,67294,5
36073,67287,5
36074,67293,5
36066,67289,5
36077,67288,4
36071,67293,5
36072,67302,5
36065,67290,5
36077,67298,5
36078,67310,4
36089,67305,5
36087,67304,5
36074,67311,5
36079,67304,4
36078,67309,4
36076,67298,5
36080,67298,5
36074,67301,5
36079,67298,4
36067,67298,5
36072,67293,6
36073,67282,4
36068,67281,5
36062,67278,4
36054,67264,5
36052,67260,5
36044,67250,5
36043,67239,5
36030,67225,4
36016,67196,5
36005,67184,5
36000,67165,5
35994,67144,5
35990,67143,4
35982,67132,5
35972,67127,5
35973,67111,5
35977,67118,4
35966,67114,4
35965,67111,5
35956,67110,5
35959,67110,5
35965,67106,4
35966,67116,5
35935,67123,5
35966,67129,5
35979,67133,5
35985,67134,4
35956,67161,5
35985,67163,5
36001,67167,5
35994,67173,5
35993,67171,4
35986,67153,5
35977,67138,5
35966,67120,5
35995,67103,5
35949,67091,4
35943,67081,5
35946,67069,5
35983,67071,5
35941,67068,4
35947,67068,5
35942,67062,5
35954,67060,5
35930,67058,5
35927,67043,5
35934,67042,4
35926,67043,5
35920,67037,5
35919,67038,5
35915,67026,4
35913,66991,5
35901,67011,5
35903,66999,5
35901,66996,5
35889,66951,4
35882,66967,5
35883,66961,5
35879,66955,5
35864,66909,4
35861,66929,4
35861,66940,5
35862,66920,5
35854,66936,5
35851,66920,4
35859,66914,5
35851,66909,6
35841,66943,4
35844,66900,5
35837,66891,4
35840,66878,7
35835,66911,3
35831,66869,5
35822,66870,5
35816,66860,4
35828,66873,5
35821,66856,5
35825,66849,5
35808,66843,5
35814,66844,4
35818,66847,5
35809,66845,5
35812,66832,5
35814,66833,4
35803,66836,4
35803,66834,5
35803,66838,5
35807,66845,5
35814,66838,4
35814,66853,5
35824,66860,5
35824,66870,6
35817,66873,4
35831,66883,4
35836,66889,5
35843,66902,5
35841,66890,5
35845,66903,5
35841,66906,4
35841,66909,5
35847,66904,5
35849,66904,5
35849,66901,5
35846,66909,4
35842,66898,5
35847,66908,5
35840,66897,5
35844,66898,4
35834,66890,4
35835,66884,5
35833,66868,5
35821,66864,5
35814,66843,5
35811,66826,4
35791,66821,5
35789,66809,5
35793,66807,6
35786,66791,3
35785,66797,5
35776,66784,5
35775,66790,5
35784,66792,5
35784,66796,4
35779,66786,5
35782,66789,5
35784,66786,5
35776,66793,5
35785,66802,4
35794,66809,5
35788,66818,5
35796,66822,5
35794,66819,4
35794,66829,5
35801,66823,5
35797,66828,5
35786,66820,5
35785,66805,4
35771,66798,6
35774,66782,4
35765,66765,5
35760,66755,5
35759,66749,6
35743,66742,3
35757,66736,5
35752,66740,5
35745,66740,5
35745,66723,4
35738,66720,5
35736,66718,5
35729,66714,5
35736,66706,4
35730,66703,4
35713,66700,5
35724,66694,5
35717,66694,5
35715,66692,4
35715,66693,5
35714,66698,5
35710,66695,5
35712,66695,5
35683,66688,4
35710,66686,5
35705,66687,6
35706,66670,4
35668,66676,5
35705,66667,4
35705,66672,5
35697,66669,5
35681,66665,5
35703,66674,5
35698,66678,4
35705,66677,5
35739,66682,5
35703,66684,5
35702,66680,4
35704,66673,4
35743,66674,5
35699,66661,5
35671,66609,5
35616,66488,4
35573,66351,5
35488,66249,5
35433,66168,5
35406,66122,5
35401,66097,4
35378,66086,5
35388,66103,5
35399,66122,6
35411,66112,4
35424,66147,4
35420,66159,5
35429,66172,5
35442,66165,5
35455,66218,5
35478,66247,4
35493,66286,5
35524,66290,5
35548,66373,5
35570,66416,4
35600,66470,5
35632,66534,4
35652,66579,5
35681,66623,5
35702,66663,4
35726,66730,5
35743,66722,5
35757,66735,5
35756,66761,5
35778,66813,5
35798,66784,4
35786,66800,5
35780,66796,5
35784,66821,6
35785,66804,3
35782,66795,5
35794,66803,5
35789,66815,5
35789,66810,5
35798,66806,4
35796,66811,5
35795,66814,5
35795,66812,5
35805,66826,4
35812,66823,4
35811,66837,5
35816,66845,5
35822,66858,5
35831,66870,4
35839,66886,5
35846,66896,5
35854,66924,5
35865,66942,5
35873,66952,4
35880,66952,6
35874,66962,4
35883,66965,5
35870,66954,5
35864,66940,4
35865,66930,5
35858,66916,5
35849,66900,5
35850,66881,5
35834,66877,4
35833,66866,5
35837,66869,5
35844,66868,5
35836,66873,4
35836,66861,5
35845,66872,5
35834,66866,5
35836,66874,5
35842,66868,4
35837,66880,5
35833,66876,5
35846,66876,5
35845,66884,5
35847,66897,4
35854,66898,5
35847,66899,6
35851,66909,4
35859,66910,5
35865,66909,4
35868,66908,5
35858,66913,5
35871,66917,5
35868,66929,5
35864,66917,4
35862,66930,5
35880,66937,5
35882,66943,5
35892,66959,4
35902,66961,5
35896,66970,5
35896,66965,5
35900,66973,5
35897,66966,4
35900,66977,5
35901,66980,5
35906,66978,5
35899,66978,5
35908,66986,4
35900,66982,5
35913,66986,5
35909,66986,6
35918,66991,4
35915,66984,4
35917,66982,5
35907,66994,5
35915,66989,5
35921,66996,5
35907,67006,4
35922,67005,5
35932,67013,5
35937,67016,5
35936,67028,4
35948,67045,5
35944,67052,5
35925,67059,5
35961,67070,5
35958,67094,4
35972,67093,5
35941,67111,5
35978,67124,5
35996,67141,5
35992,67150,5
35971,67157,4
36005,67168,5
36019,67175,5
36018,67190,5
36038,67203,4
36018,67205,5
36026,67214,5
36033,67219,5
36070,67216,4
36034,67221,4
36039,67209,5
36028,67211,5
36069,67209,5
36026,67204,4
36024,67185,5
36026,67177,5
36026,67161,5
36003,67148,5
36008,67148,4
35984,67125,5
35991,67110,5
35990,67130,5
35993,67140,5
35992,67138,4
35992,67089,6
35997,67133,4
35997,67141,5
35992,67140,5
35997,67115,4
36006,67154,5
36004,67161,5
36014,67178,5
36013,67181,4
36019,67205,4
36028,67205,5
36037,67216,5
36035,67257,5
36033,67210,4
36024,67210,5
36017,67178,5
36009,67220,5
36004,67162,5
36000,67138,4
35988,67135,5
35984,67150,5
35981,67124,5
35987,67118,5
35989,67116,4
35989,67128,5
35989,67125,6
35988,67126,4
35988,67132,5
35989,67131,4
35993,67140,5
35988,67147,5
35997,67150,5
36004,67158,5
36009,67159,4
36011,67179,5
36015,67184,5
36020,67186,5
36018,67185,4
36034,67199,5
36026,67202,5
36037,67207,5
36036,67206,5
36037,67220,4
36038,67214,5
36045,67229,5
36045,67224,5
36050,67233,5
36038,67237,4
36044,67241,5
36055,67246,5
36058,67243,5
36047,67239,5
36046,67240,4
36054,67244,5
36051,67241,5
36050,67241,5
36042,67244,5
36053,67240,4
36052,67244,5
36048,67236,5
36051,67238,5
36042,67242,4
36046,67236,4
36039,67236,5
36040,67231,5
36037,67238,5
36047,67231,4
36040,67240,5
36030,67234,5
36038,67233,5
36045,67234,5
36045,67239,5
36057,67237,4
36044,67242,5
36057,67255,5
36056,67267,5
36058,67268,4
36059,67275,5
36072,67288,5
36076,67289,5
36073,67301,5
36073,67316,4
36095,67321,5
36094,67331,5
36097,67335,5
36094,67348,4
36098,67352,4
36113,67359,5
36109,67368,5
36110,67373,5
36126,67390,4
36118,67389,5
36121,67402,6
36125,67398,4
36131,67409,5
36130,67408,4
36130,67403,7
36128,67404,3
36137,67412,5
36136,67407,5
36130,67407,4
36120,67409,5
36123,67389,5
36118,67387,5
36115,67381,5
36106,67358,4
36100,67343,5
36087,67342,5
36082,67327,5
36055,67323,4
36071,67305,4
36074,67299,5
36081,67298,5
36032,67300,5
36075,67299,4
36072,67310,5
36072,67309,5
36053,67312,6
36078,67318,4
36072,67327,4
36088,67336,5
36115,67345,5
36093,67355,5
36105,67368,5
36109,67380,4
36164,67402,5
36132,67413,5
36134,67423,5
36132,67428,5
36166,67426,4
36128,67404,5
36113,67391,5
36114,67379,5
36112,67358,4
36086,67345,4
36085,67335,5
36082,67326,5
36084,67311,5
36083,67327,5
36078,67331,4
36091,67338,5
36088,67310,5
36086,67342,6
36091,67351,3
36088,67340,5
36087,67310,5
36103,67355,5
36090,67357,5
36096,67363,5
36098,67361,4
36099,67368,5
36103,67367,5
36100,67371,5
36099,67411,4
36106,67370,5
36098,67367,5
36095,67367,5
36085,67402,4
36091,67358,4
36091,67357,5
36092,67354,5
36089,67370,5
36092,67347,4
36093,67355,6
36093,67354,4
36086,67361,5
36089,67350,5
36095,67351,6
36083,67340,3
36080,67336,5
36075,67335,5
36076,67328,5
36081,67334,4
36083,67334,5
36083,67341,5
36087,67331,5
36074,67332,5
36073,67326,4
36071,67325,5
36074,67324,5
36075,67324,5
36078,67336,5
36078,67327,4
36089,67342,5
36078,67343,5
36076,67339,5
36086,67350,4
36084,67358,5
36096,67365,6
36100,67366,4
36095,67375,5
36102,67384,4
36102,67405,5
36112,67407,5
36115,67400,5
36119,67417,5
36125,67417,4
36127,67431,5
36130,67436,5
36119,67427,5
36126,67431,5
36136,67440,4
36133,67455,5
36145,67443,5
36132,67452,5
36138,67449,5
36135,67445,4
36132,67442,5
36131,67435,5
36128,67430,5
36121,67416,4
36117,67401,5
36107,67391,5
36090,67377,6
36094,67376,4
36088,67358,4
36086,67355,5
36088,67349,5
36078,67351,5
36079,67340,5
36073,67346,4
36077,67343,5
36081,67350,5
36081,67349,5
36088,67351,5
36084,67365,4
36091,67373,5
36085,67378,5
36094,67381,5
36098,67391,5
36110,67396,4
36111,67405,5
36104,67414,5
36105,67407,5
36109,67395,5
36111,67403,4
36096,67377,5
36089,67367,5
36074,67341,6
36071,67323,3
36058,67305,5
36050,67294,5
36048,67300,5
36055,67296,5
36050,67297,4
36049,67297,5
36043,67295,5
36054,67294,5
36048,67300,5
36050,67309,4
36021,67312,5
36058,67309,5
36055,67308,5
36053,67310,5
36024,67306,4
36062,67316,5
36063,67316,5
36056,67305,5
36051,67310,4
36058,67306,5
36050,67298,4
36052,67292,5
36082,67299,5
36046,67296,4
36040,67293,5
36047,67292,5
36079,67281,5
36036,67285,5
36041,67286,4
36046,67287,5
36069,67289,5
36045,67291,5
36042,67293,5
36036,67281,4
36047,67292,5
36039,67283,5
36037,67278,5
36034,67265,5
36036,67248,4
36030,67274,5
36038,67280,5
36032,67269,5
36033,67243,4
36036,67276,4
36039,67279,6
36039,67276,4
36038,67242,5
36045,67286,4
36041,67288,5
36049,67285,5
36042,67303,5
36039,67295,5
36054,67306,4
36051,67305,5
36050,67355,5
36045,67313,5
36062,67321,5
36058,67331,4
36057,67382,5
36060,67356,5
36078,67352,5
36070,67344,5
36070,67370,4
36072,67362,5
36075,67363,5
36077,67357,5
36071,67359,4
36078,67368,4
36069,67360,5
36074,67362,6
36070,67363,4
36074,67357,4
36070,67361,5
36071,67354,5
36065,67343,5
36057,67350,5
36051,67327,4
36056,67316,5
36051,67314,5
36056,67313,5
36050,67302,5
36033,67297,4
36047,67295,5
36046,67290,5
36046,67298,5
36039,67299,5
36044,67299,4
36033,67300,5
36047,67290,5
36038,67303,5
36043,67309,5
36050,67315,7
36054,67325,2
36042,67333,5
36063,67329,5
36066,67335,4
36063,67347,5
36064,67342,5
36057,67334,5
36052,67327,5
36052,67307,4
36042,67293,5
36036,67276,5
36028,67264,5
36015,67260,5
36027,67247,4
36023,67242,5
36021,67248,5
36019,67250,5
36018,67248,5
36024,67246,4
36021,67255,5
36024,67248,5
36028,67257,5
36027,67260,4
36024,67271,5
36025,67275,4
36036,67282,5
36032,67279,5
36035,67283,4
36044,67301,5
36052,67302,5
36043,67306,5
36048,67300,5
36055,67310,4
36064,67317,5
36060,67311,5
36060,67330,5
36068,67321,5
36068,67333,4
36078,67338,5
36079,67347,5
36079,67345,5
36086,67348,5
36079,67351,4
36085,67354,5
36090,67353,5
36088,67353,5
36088,67349,4
36087,67350,4
36081,67359,6
36088,67346,4
36081,67353,5
36076,67352,4
36095,67347,5
36082,67353,5
36085,67342,5
36074,67351,5
36081,67347,4
36089,67343,5
36084,67340,5
36044,67349,5
36095,67347,5
36088,67348,4
36098,67365,5
36063,67363,5
36096,67373,5
36101,67372,5
36109,67383,4
36118,67393,5
36111,67407,5
36127,67412,5
36134,67428,5
36169,67437,4
36155,67453,5
36147,67459,5
36158,67469,5
36196,67480,4
36158,67480,5
36159,67479,5
36172,67486,5
36185,67490,5
36174,67496,4
36175,67503,5
36174,67507,5
36183,67502,5
36171,67510,5
36181,67508,4
36167,67505,5
36173,67475,5
36177,67490,5
36166,67477,5
36167,67476,5
36156,67428,4
36154,67456,5
36143,67436,5
36133,67425,6
36131,67385,3
36123,67411,5
36122,67402,5
36118,67396,5
36119,67416,4
36118,67390,5
36122,67388,5
36113,67390,5
36109,67441,5
36110,67388,4
36113,67398,5
36126,67412,5
36119,67453,5
36131,67413,5
36132,67430,4
36132,67430,5
36141,67454,5
36147,67444,5
36142,67447,5
36147,67442,4
36141,67435,6
36138,67407,4
36124,67399,5
36117,67384,5
36099,67362,6
36087,67341,3
36080,67327,5
36080,67328,5
36082,67319,4
36076,67323,5
36085,67310,5
36084,67316,5
36080,67318,5
36090,67318,4
36074,67324,5
36072,67325,5
36077,67325,5
36075,67326,5
36091,67333,4
36082,67332,5
36087,67347,5
36094,67337,5
36098,67345,5
36096,67348,4
36088,67345,5
36098,67359,6
36103,67350,4
36101,67350,5
36097,67355,4
36099,67349,5
36097,67351,5
36100,67349,5
36104,67344,4
36107,67352,4
36097,67359,5
36103,67358,5
36103,67356,5
36110,67359,4
36103,67360,5
36103,67359,5
36103,67350,5
36093,67353,5
36097,67338,4
36091,67352,5
36100,67339,5
36088,67339,5
36089,67328,5
36086,67332,4
36087,67332,5
36088,67332,5
36085,67324,6
36089,67318,4
36086,67322,4
36081,67318,5
36079,67311,5
36068,67304,5
36061,67305,4
36071,67308,4
36068,67300,5
36077,67310,5
36073,67312,5
36081,67321,4
36083,67324,5
36082,67322,5
36088,67338,5
36081,67333,5
36080,67334,4
36088,67349,5
36091,67344,5
36094,67354,5
36094,67360,5
36104,67360,5
36111,67364,4
36113,67376,5
36110,67378,5
36108,67371,6
36108,67379,3
36117,67371,5
36107,67378,5
36115,67384,5
36112,67376,4
36085,67372,4
36107,67376,5
36109,67376,5
36107,67368,5
36069,67362,4
36100,67367,5
36096,67350,5
36091,67355,5
36064,67348,5
36084,67340,4
36081,67341,5
36089,67326,5
36101,67321,5
36081,67332,5
36079,67318,4
36072,67320,6
36110,67307,4
36074,67297,5
36070,67287,5
36064,67283,4
36096,67274,5
36055,67274,5
36047,67261,5
36046,67252,4
36043,67237,4
36019,67224,5
36027,67200,5
36009,67181,5
36001,67153,4
35992,67161,5
35983,67142,5
35983,67127,5
35977,67102,5
35966,67116,4
35975,67113,5
35968,67113,5
35959,67082,5
35964,67114,5
35962,67105,4
35962,67117,5
35971,67101,6
35967,67120,4
35970,67129,5
35973,67127,4
35969,67167,5
35983,67144,5
35980,67162,5
35976,67146,5
35979,67191,4
35975,67134,5
35961,67110,5
35953,67099,5
35943,67102,4
35934,67060,5
35929,67043,5
35916,67028,5
35907,67017,5
35919,67020,4
35910,67008,5
35912,66997,5
35907,66999,5
35898,67003,5
35902,66999,4
35900,66999,5
35897,66995,5
35898,66998,6
35898,67000,4
35903,67014,4
35903,67013,5
35908,67019,5
35903,67020,5
35914,67018,5
35913,67020,4
35912,67018,5
35914,67022,5
35907,67030,5
35907,67029,4
35914,67028,5
35917,67036,5
35921,67033,5
35919,67038,5
35922,67035,4
35917,67039,5
35919,67047,5
35925,67052,5
35931,67056,5
35945,67068,5
35941,67070,4
35944,67085,5
35939,67091,5
35951,67092,5
35956,67094,4
35962,67104,5
35956,67101,5
35968,67109,5
35968,67108,5
35968,67115,4
35975,67127,5
35976,67116,5
35968,67126,5
35972,67127,4
35972,67126,5
35982,67121,5
35983,67133,5
35980,67131,5
35986,67135,4
35980,67134,5
35991,67139,5
35976,67147,5
35993,67153,5
35981,67147,4
35981,67149,6
35985,67150,4
35984,67152,5
35990,67157,5
35992,67162,4
36000,67174,5
36000,67180,5
35998,67181,5
36009,67198,5
36014,67218,4
36013,67219,5
36019,67227,5
36014,67225,5
36032,67225,4
36031,67227,4
36032,67237,5
36026,67239,5
36035,67248,5
36035,67241,4
36034,67237,5
36030,67236,5
36033,67246,5
36031,67243,5
36037,67231,4
36034,67234,5
36025,67233,6
36024,67228,4
36025,67228,5
36018,67225,4
36019,67221,5
35990,67202,5
36009,67198,5
36014,67196,5
36006,67191,4
35956,67180,5
36001,67176,5
35989,67157,5
35979,67152,4
35948,67132,4
35968,67118,5
35970,67121,5
35971,67118,5
35984,67118,4
35956,67112,5
35959,67108,5
35958,67116,5
36003,67121,5
35958,67119,4
35971,67123,5
35964,67116,5
35993,67130,5
35963,67131,5
35975,67130,4
35965,67138,5
35982,67137,5
35971,67131,5
35961,67125,5
35968,67129,4
35956,67108,5
35949,67089,5
35938,67065,5
35919,67054,4
35916,67002,4
35900,67009,5
35891,66998,5
35887,66993,5
35891,66941,4
35894,66988,5
35890,66996,5
35901,67010,5
35893,67002,5
35903,67012,5
35893,67008,4
35886,66989,5
35880,67009,5
35882,66975,5
35881,66965,4
35878,66969,5
35875,67027,5
35880,66982,5
35888,66989,5
35884,66989,4
35889,67022,5
35894,66998,5
35894,67015,5
35898,67011,5
35904,67026,4
35903,67023,5
35919,67028,5
35905,67038,5
35905,67036,4
35913,67045,5
35914,67048,5
35919,67063,5
35930,67069,5
35933,67072,4
35928,67082,6
35939,67075,4
35922,67070,5
35935,67069,5
35937,67079,4
35930,67075,5
35934,67078,5
35937,67081,5
35938,67071,5
35931,67078,4
35934,67082,5
35935,67078,5
35938,67080,5
35925,67085,5
35934,67085,5
35935,67094,4
35934,67092,5
35944,67100,5
35946,67106,4
35954,67121,5
35951,67124,5
35966,67135,5
35965,67152,5
35981,67168,4
35985,67175,5
35983,67181,5
35998,67196,5
36000,67206,5
35997,67227,4
36002,67219,5
36009,67232,5
36009,67221,5
36002,67239,5
36011,67240,4
36018,67234,5
36011,67241,5
36012,67240,5
36008,67250,5
36010,67240,4
36003,67239,5
36004,67228,5
36012,67230,5
35998,67215,4
35991,67204,4
35993,67203,5
35990,67191,5
35983,67167,5
35970,67152,3
35966,67153,5
35960,67144,5
35953,67121,5
35954,67113,5
35944,67119,4
35942,67106,5
35949,67115,5
35940,67104,5
35941,67104,5
35938,67110,4
35939,67100,5
35936,67111,5
35933,67119,5
35945,67120,5
35948,67120,4
35952,67128,5
35951,67129,5
35954,67134,5
35948,67118,4
35944,67116,5
35941,67106,4
35934,67099,5
35933,67088,5
35923,67080,6
35918,67080,3
35919,67068,5
35920,67077,5
35892,67085,5
35915,67083,4
35926,67089,5
35922,67081,5
35879,67096,5
35922,67086,5
35925,67080,4
35925,67080,5
35898,67078,5
35916,67083,5
35910,67077,5
35909,67074,4
35928,67068,5
35918,67071,5
35910,67063,5
35904,67060,4
35940,67058,4
35898,67056,6
35909,67056,4
35901,67052,5
35936,67049,4
35902,67043,7
35891,67047,3
35897,67046,5
35919,67055,5
35904,67061,4
35915,67061,5
35899,67041,5
35902,67035,5
35900,67049,5
35897,67049,4
35893,67046,5
35898,67019,5
35898,67044,5
35896,67047,5
35894,67032,4
35893,66997,5
35898,67029,5
35894,67035,5
35885,67039,5
35893,67030,4
35896,67045,5
35895,67042,6
35897,67050,4
35901,67082,4
35898,67060,5
35917,67083,5
35922,67081,5
35920,67140,5
35928,67104,4
35931,67106,5
35924,67119,5
35933,67145,5
35945,67129,5
35946,67135,4
35947,67144,5
35943,67151,5
35954,67150,5
35955,67161,5
35961,67154,4
35954,67160,5
35960,67164,5
35958,67167,5
35965,67162,5
35955,67160,4
35961,67161,5
35959,67163,5
35959,67161,6
35959,67153,3
35955,67153,5
35955,67152,5
35959,67149,5
35953,67154,5
35962,67144,4
35957,67156,5
35950,67150,5
35956,67154,5
35956,67152,5
35968,67149,4
35966,67154,5
35962,67153,5
35965,67158,5
35978,67171,5
35972,67172,4
35982,67177,5
35980,67186,5
35985,67195,5
35988,67201,5
35991,67195,5
36001,67193,4
35983,67196,5
35986,67180,5
35983,67175,6
35974,67160,3
35974,67152,5
35964,67126,5
35952,67128,5
35956,67133,4
35956,67131,5
35966,67136,5
35970,67135,5
35966,67133,5
35968,67138,4
35963,67145,5
35965,67148,5
35970,67161,5
35979,67155,5
35977,67165,4
35984,67172,5
35990,67185,5
35991,67181,5
35993,67178,5
35985,67179,4
35994,67191,6
35999,67188,4
35992,67197,5
35998,67193,4
35996,67199,5
36004,67193,5
35996,67190,5
35998,67190,5
35996,67200,4
36009,67208,5
36005,67197,5
36014,67212,5
36012,67205,5
36009,67215,4
36006,67212,5
36000,67201,5
35999,67198,5
35998,67195,5
35995,67203,4
35993,67183,5
36002,67192,5
36002,67179,5
35999,67185,5
35994,67182,4
35984,67179,5
35989,67173,6
35988,67163,4
35989,67175,4
35952,67159,4
35988,67166,5
35978,67154,5
35979,67156,5
35944,67157,4
35989,67167,5
35985,67164,5
35987,67169,5
35965,67167,5
35989,67177,4
35993,67174,5
35985,67184,5
36018,67191,5
36004,67199,5
36002,67201,4
36004,67204,5
36057,67218,5
36010,67207,5
36024,67230,5
36018,67228,4
36058,67233,5
36032,67243,5
36031,67244,6
36029,67250,3
36048,67262,4
36034,67257,5
36044,67262,5
36042,67263,5
36043,67253,4
36040,67268,5
36047,67266,5
36043,67257,5
36050,67226,5
36037,67270,4
36046,67265,5
36040,67260,5
36042,67222,5
36049,67257,5
36043,67253,4
36034,67248,5
36034,67243,5
36039,67235,5
36027,67225,5
36015,67218,5
36016,67223,4
36001,67185,5
35995,67167,5
35990,67157,4
35976,67190,4
35975,67143,5
35977,67121,5
35973,67128,5
35987,67148,4
35974,67134,5
35979,67140,5
35987,67143,5
35985,67148,5
35985,67151,4
35982,67148,5
35983,67169,5
35998,67168,5
35999,67178,5
36005,67192,4
36006,67201,5
36015,67206,5
36022,67223,5
36025,67228,5
36028,67229,4
36021,67229,6
36018,67205,4
36009,67183,5
35997,67172,4
35982,67159,4
35986,67145,5
35974,67135,5
35971,67124,5
35972,67121,4
35971,67120,5
35972,67120,5
35974,67125,5
35970,67129,5
35974,67119,4
35965,67129,5
35968,67119,5
35970,67123,5
35978,67132,5
35987,67134,4
35980,67133,5
35974,67138,5
35986,67145,5
35986,67145,5
35994,67145,4
35991,67153,5
36001,67165,6
35992,67158,4
35993,67165,4
35994,67167,4
35996,67163,5
36002,67177,5
36008,67185,5
36001,67181,4
36002,67187,5
36004,67184,5
36009,67193,5
36015,67185,5
36014,67193,4
36013,67194,5
36007,67195,5
36015,67194,5
36010,67197,5
36003,67191,4
36009,67188,5
36017,67182,5
36010,67190,5
36008,67181,5
36001,67180,4
36002,67176,5
36005,67174,5
36002,67164,5
35998,67166,4
35995,67160,4
35996,67153,5
35981,67150,5
35991,67158,5
35989,67142,4
35994,67155,5
35985,67149,5
35985,67166,5
35993,67151,5
35990,67165,4
35992,67167,5
35997,67171,5
35999,67178,5
36007,67186,5
36012,67184,4
36013,67202,5
36018,67201,5
36010,67207,5
36027,67216,5
36030,67217,5
36023,67221,4
36000,67229,5
36031,67239,5
36031,67235,5
36039,67243,4
35996,67244,5
36033,67244,5
36042,67253,5
36042,67250,4
36039,67247,5
36044,67252,5
36041,67244,5
36042,67250,5
36079,67243,4
36031,67249,5
36037,67249,5
36046,67249,5
36076,67257,5
36030,67240,4
36043,67235,5
36043,67238,6
36052,67227,4
36030,67225,5
36020,67212,4
36015,67214,6
36017,67199,4
36004,67177,5
36002,67158,5
35990,67158,4
35986,67108,5
35974,67134,5
35970,67119,5
35970,67109,4
35968,67076,5
35966,67120,5
35963,67114,5
35965,67110,5
35962,67070,4
35962,67110,5
35968,67121,5
35973,67125,5
35980,67156,5
35979,67142,4
35983,67156,5
35996,67147,5
35999,67204,6
35994,67170,4
35992,67180,4
36003,67181,5
35996,67219,5
35997,67175,5
35993,67159,5
35978,67151,4
35975,67141,5
35968,67119,5
35966,67102,5
35957,67084,4
35949,67081,5
35944,67073,5
35944,67078,5
35939,67084,5
35951,67086,4
35948,67091,5
35952,67084,5
35950,67098,5
35962,67099,5
35958,67097,5
35963,67104,4
35963,67122,5
35970,67123,5
35977,67129,6
35981,67139,3
35975,67144,5
35977,67143,5
35991,67150,5
35985,67153,8
35988,67159,1
35995,67128,5
35994,67160,5
35993,67163,5
35991,67165,4
35999,67172,4
35993,67171,5
36012,67173,10
36001,67183,5
36003,67170,9
36006,67184,8
36005,67197,7
36016,67194,5
36008,67201,8
36008,67201,7
35979,67198,5
36015,67199,8
36011,67198,7
36004,67202,7
36004,67180,8
36004,67180,7
36007,67186,5
36002,67152,8
35998,67180,7
35991,67178,9
36011,67200,9
36011,67200,5
36012,67195,8
36016,67183,7
36026,67221,11
36046,67262,7
36046,67262,5
36045,67293,8
36050,67289,7
36050,67287,5
36041,67283,8
36056,67274,7
36060,67295,9
36060,67295,10
36063,67292,9
36041,67270,10
36041,67270,9
36053,67272,10
36042,67264,5
36010,67235,5
36003,67191,10
36003,67191,5
35989,67172,5
35985,67163,10
35939,67155,5
35978,67144,5
35974,67138,10
35974,67138,5
35991,67139,7
36023,67150,8
35985,67148,5
35978,67155,7
35970,67159,8
36023,67162,5
35992,67181,7
35992,67181,8
35987,67170,9
35987,67171,8
35981,67138,5
35976,67128,5
35967,67127,7
35943,67097,8
35943,67097,7
35956,67093,8
35952,67110,5
35964,67119,7
35971,67118,8
35967,67098,5
35972,67156,7
35972,67156,8
35963,67163,5
35977,67147,7
35975,67209,8
35984,67174,5
35991,67205,7
35989,67171,8
35989,67171,5
35949,67182,7
35969,67169,8
35984,67173,5
35984,67166,7
35980,67208,8
35996,67189,9
35996,67189,5
35992,67132,8
35994,67162,7
35988,67167,5
36027,67176,8
35986,67170,7
35985,67162,10
35985,67162,7
35967,67150,5
35978,67159,5
35980,67166,8
35979,67179,4
35980,67160,2
35972,67146,5
35978,67171,5
35977,67178,5
35991,67186,5
35993,67188,4
36001,67200,5
36007,67215,5
35998,67218,5
36002,67230,4
36018,67242,5
36010,67256,5
36019,67253,5
36032,67260,5
36029,67274,4
36031,67272,5
36035,67288,5
36032,67289,6
36043,67285,4
36034,67294,4
36044,67305,5
36051,67301,5
36045,67299,5
36041,67298,5
36050,67293,4
36044,67286,5
36035,67279,5
36035,67268,5
36032,67264,5
36021,67240,4
36022,67229,5
36014,67228,5
36007,67220,5
36001,67212,4
35996,67209,4
35995,67203,5
36000,67206,5
35995,67195,5
36003,67208,5
36005,67208,4
35999,67212,5
35998,67213,5
36000,67214,5
36004,67229,4
36009,67229,5
36005,67234,5
36004,67236,5
36007,67242,5
36015,67241,4
36015,67248,5
36020,67236,5
36017,67236,5
36004,67226,5
36002,67224,4
36002,67211,5
35994,67199,5
35992,67183,5
35982,67169,4
35977,67170,4
35969,67169,5
35978,67168,5
35955,67164,5
35971,67171,4
35977,67174,6
35977,67177,4
35939,67178,5
35978,67175,5
35981,67177,4
35980,67180,5
35950,67190,5
35985,67186,5
35989,67187,5
35999,67200,4
36009,67194,5
35998,67193,5
35995,67197,5
35993,67198,5
36020,67197,4
35993,67192,5
35991,67197,5
35990,67210,5
36025,67194,4
35986,67204,4
35989,67193,5
35994,67200,5
35997,67205,5
35994,67201,4
35997,67201,5
35990,67208,6
35994,67194,4
35996,67209,5
35994,67204,4
35993,67188,5
35984,67161,5
35990,67196,5
35983,67189,5
35985,67190,4
35984,67145,5
35983,67187,5
35979,67183,5
35979,67179,5
35983,67172,4
35979,67185,5
35987,67187,5
35985,67188,5
35979,67211,4
35983,67207,4
35997,67208,5
35989,67212,5
35994,67267,5
36005,67233,4
36002,67235,5
36019,67249,5
36017,67278,5
36016,67268,5
36017,67265,4
36028,67276,5
36031,67279,5
36031,67288,5
36040,67282,5
36037,67287,4
36038,67288,5
36028,67292,5
36036,67292,5
36043,67299,5
36035,67291,4
36036,67292,5
36034,67286,5
36031,67293,5
36031,67289,5
36025,67292,4
36029,67275,5
36032,67270,5
36018,67269,5
36025,67254,5
36015,67247,4
36015,67242,5
36007,67236,5
36008,67226,5
36009,67223,4
36000,67218,5
36003,67218,5
35999,67212,5
36000,67221,5
36003,67223,4
36007,67218,5
36009,67223,5
35996,67232,5
36002,67234,5
36011,67248,4
36013,67251,5
36017,67253,5
36023,67258,5
36024,67266,5
36026,67274,4
36029,67276,5
36033,67276,4
36030,67282,5
36029,67265,4
36028,67259,6
36025,67236,3
36009,67234,5
36008,67218,5
36004,67201,4
36004,67194,5
35996,67196,5
35994,67204,5
35997,67206,5
36007,67212,4
36003,67201,5
35994,67198,5
36012,67214,5
36010,67212,5
36012,67217,4
36007,67224,5
36011,67234,5
36023,67235,5
36020,67239,5
36021,67248,4
36030,67255,5
36034,67248,6
36027,67265,4
36035,67263,4
36038,67262,4
36036,67265,5
36036,67261,5
36034,67257,5
36037,67255,4
36034,67250,5
36026,67254,5
36032,67245,5
36026,67253,5
36035,67256,4
36034,67258,5
36024,67244,5
36038,67246,5
36028,67242,5
36021,67235,4
36022,67230,5
36016,67227,5
36020,67228,5
36025,67233,5
35995,67217,4
36020,67219,5
36010,67218,5
36014,67218,6
35976,67209,3
36011,67205,4
36012,67208,5
36003,67206,5
35982,67213,5
36005,67211,4
36008,67207,5
36015,67216,5
36034,67226,5
36011,67230,5
36021,67228,4
36025,67234,5
36064,67254,5
36027,67245,5
36031,67251,5
36036,67259,4
36072,67261,5
36042,67273,5
36046,67266,5
36037,67264,5
36061,67279,5
36051,67283,4
36057,67301,5
36056,67296,5
36055,67288,6
36062,67301,3
36054,67305,5
36067,67309,5
36068,67288,5
36071,67316,5
36079,67319,4
36073,67330,5
36073,67291,5
36077,67328,5
36072,67328,4
36077,67333,5
36071,67317,5
36073,67321,5
36075,67325,5
36069,67325,4
36074,67358,5
36078,67320,5
36066,67322,5
36064,67315,5
36065,67355,4
36063,67307,6
36063,67306,4
36060,67303,5
36054,67314,4
36054,67290,4
36059,67283,5
36057,67272,5
36047,67286,5
36046,67275,4
36048,67268,5
36045,67270,5
36036,67265,5
36039,67255,5
36046,67259,4
36031,67251,5
36037,67255,5
36041,67256,5
36032,67245,5
36032,67243,4
36033,67244,5
36029,67245,5
36029,67245,5
36035,67240,6
36018,67236,3
36030,67237,5
36022,67243,6
36023,67224,4
36023,67232,4
36026,67222,4
36028,67223,5
36033,67221,5
36022,67230,5
36028,67221,4
36016,67220,5
36018,67220,5
36014,67214,5
36015,67220,5
36009,67210,4
36016,67210,5
36011,67201,5
36007,67192,5
36007,67201,5
36008,67186,4
35998,67185,5
36000,67185,5
36006,67178,5
35993,67183,5
35992,67178,4
35999,67172,5
35986,67171,5
35997,67161,6
35996,67166,3
35989,67158,4
35983,67158,5
35984,67152,5
35986,67149,5
35979,67153,4
35975,67150,5
35976,67135,5
35983,67146,5
35972,67140,5
35970,67140,4
35972,67130,5
35973,67132,5
35976,67137,5
35970,67134,5
35966,67125,4
35961,67121,5
35963,67120,5
35966,67113,5
35953,67105,5
35944,67087,5
35937,67077,4
35937,67059,5
35930,67038,5
35914,67024,5
35916,67021,4
35907,67002,5
35902,67005,5
35906,67007,5
35913,67006,4
35908,67012,5
35915,67026,5
35921,67033,5
35931,67040,5
35929,67043,4
35937,67042,5
35929,67051,5
35927,67068,5
35949,67089,5
35952,67093,4
35961,67107,5
35934,67118,5
35975,67129,5
35967,67125,5
35975,67126,4
35931,67116,6
35952,67096,4
35954,67080,5
35935,67076,5
35920,67051,4
35929,67045,5
35924,67025,5
35914,67030,5
35950,67044,4
