RED,IR,EKG,TIME
35649,66734,7
35660,66746,5
35677,66785,7
35677,66785,8
35684,66802,9
35682,66811,5
35703,66822,8
35708,66822,7
35709,66832,5
35727,66867,8
35727,66867,7
35720,66891,7
35728,66859,8
35728,66876,7
35736,66889,5
35710,66895,8
35710,66895,7
35780,66899,8
35747,66898,6
35742,66898,9
35696,66860,8
35696,66860,7
35729,66863,10
35720,66846,9
35718,66846,5
35744,66822,8
35744,66822,7
35646,66804,9
35681,66805,10
35692,66815,9
35692,66815,10
35710,66802,9
35711,66843,10
35711,66843,5
35729,66850,5
35716,66862,10
35707,66819,5
35725,66859,5
35733,66869,10
35737,66889,5
35737,66889,5
35732,66885,10
35739,66897,5
35740,66882,5
35755,66892,10
35755,66923,5
35750,66880,5
35726,66879,10
35726,66879,5
35715,66806,7
35724,66869,8
35728,66860,9
35711,66823,10
35711,66823,5
35704,66832,7
35697,66817,8
35695,66804,5
35692,66787,7
35657,66729,8
35657,66729,5
35641,66713,7
35631,66704,8
35635,66683,5
35632,66689,7
35646,66698,8
35661,66705,5
35641,66702,7
35660,66731,8
35660,66731,5
35653,66696,7
35657,66737,8
35669,66763,9
35675,66783,8
35675,66783,5
35699,66773,7
35661,66777,8
35665,66761,5
35659,66742,7
35644,66749,8
35646,66725,5
35630,66683,7
35630,66683,8
35629,66679,5
35624,66687,7
35631,66694,8
35639,66698,7
35618,66711,5
35675,66763,8
35675,66763,7
35672,66774,5
35663,66740,5
35685,66794,4
35692,66801,5
35688,66810,5
35702,66813,4
35699,66827,5
35699,66825,5
35703,66841,5
35713,66836,4
35710,66852,4
35716,66849,5
35718,66854,5
35721,66852,5
35716,66854,4
35718,66861,5
35720,66864,5
35720,66859,5
35726,66866,5
35715,66865,4
35721,66854,5
35704,66846,6
35709,66832,4
35695,66816,5
35691,66805,4
35681,66797,5
35678,66789,5
35674,66787,5
35663,66764,5
35661,66753,4
35664,66746,5
35658,66735,5
35622,66731,5
35644,66723,5
35642,66728,4
35638,66719,5
35614,66715,5
35647,66711,5
35645,66715,4
35652,66727,5
35624,66730,5
35647,66743,5
35653,66756,5
35653,66759,4
35690,66766,5
35669,66776,5
35676,66770,6
35673,66781,4
35722,66789,4
35684,66803,5
35686,66801,5
35687,66816,5
35728,66818,5
35699,66813,4
35705,66823,5
35701,66840,5
35719,66839,5
35707,66850,5
35710,66849,4
35709,66855,5
35712,66829,5
35711,66851,5
35715,66850,4
35716,66852,4
35709,66817,5
35712,66846,5
35703,66847,5
35703,66826,5
35705,66789,4
35696,66817,5
35694,66809,5
35679,66797,6
35679,66775,3
35662,66766,5
35665,66753,5
35651,66736,5
35647,66756,5
35641,66715,4
35635,66705,5
35637,66717,5
35635,66759,5
35637,66705,5
35631,66714,4
35632,66712,5
35637,66746,5
35639,66724,5
35638,66732,5
35649,66730,4
35649,66750,5
35650,66736,5
35651,66743,5
35651,66746,4
35654,66749,6
35659,66749,4
35657,66750,5
35662,66746,5
35656,66751,4
35660,66732,5
35642,66720,5
35636,66701,5
35633,66687,5
35625,66685,4
35620,66664,5
35603,66651,5
35607,66653,5
35604,66658,5
35611,66661,4
35613,66672,5
35616,66674,5
35626,66674,5
35620,66695,5
35640,66696,4
35642,66710,5
35646,66727,5
35648,66735,5
35653,66752,4
35661,66759,4
35659,66772,6
35663,66790,4
35685,66785,5
35687,66790,4
35685,66792,5
35695,66802,5
35701,66804,5
35697,66817,5
35697,66823,4
35703,66816,5
35708,66835,5
35704,66843,5
35701,66833,5
35712,66833,4
35706,66841,5
35714,66842,5
35711,66845,5
35712,66849,5
35719,66839,4
35706,66839,5
35704,66831,5
35703,66816,5
35694,66804,5
35680,66808,4
35677,66791,5
35686,66790,11
35674,66784,3
35674,66767,5
35672,66762,5
35666,66754,5
35658,66735,5
35655,66738,4
35655,66735,5
35643,66729,5
35640,66731,5
35650,66735,5
35654,66733,4
35648,66734,5
35647,66741,5
35659,66752,5
35663,66752,5
35663,66761,4
35672,66767,5
35674,66777,5
35685,66785,5
35688,66794,5
35691,66801,4
35692,66815,5
35695,66824,5
35704,66841,6
35716,66833,3
35714,66842,4
35716,66851,5
35711,66857,5
35717,66864,5
35719,66871,4
35701,66870,5
35725,66871,5
35732,66869,5
35735,66873,5
35684,66858,4
35717,66853,5
35719,66849,5
35711,66854,5
35687,66841,5
35702,66832,4
35696,66822,5
35695,66811,5
35702,66797,5
35679,66782,5
35678,66773,5
35662,66758,4
35706,66747,5
35648,66732,5
35657,66717,5
35647,66729,4
35676,66724,5
35650,66729,5
35646,66742,5
35653,66741,4
35672,66749,5
35660,66756,5
35670,66759,5
35668,66766,5
35670,66758,4
35669,66763,5
35666,66770,5
35671,66772,5
35676,66738,5
35672,66774,4
35674,66768,5
35666,66764,5
35667,66713,5
35653,66734,5
35644,66711,4
35640,66707,6
35631,66690,4
35615,66673,5
35608,66666,5
35606,66659,4
35613,66698,5
35617,66670,5
35616,66677,5
35619,66689,4
35632,66738,4
35638,66707,5
35636,66714,5
35644,66726,5
35657,66763,4
35661,66758,5
35661,66766,5
35673,66774,5
35680,66793,5
35689,66799,4
35689,66805,5
35691,66807,5
35701,66831,5
35709,66830,5
35711,66838,4
35712,66835,5
35707,66853,6
35717,66850,4
35715,66845,5
35712,66852,4
35724,66846,5
35713,66864,5
35716,66856,5
35717,66858,5
35725,66858,4
35726,66865,5
35721,66862,5
35713,66864,5
35718,66844,4
35709,66834,4
35704,66828,5
35704,66818,5
35700,66822,5
35700,66809,4
35694,66797,5
35683,66798,5
35691,66782,5
35678,66782,5
35668,66768,4
35658,66757,5
35667,66762,5
35663,66760,5
35667,66753,5
35665,66757,4
35668,66758,5
35661,66754,5
35669,66766,5
35672,66777,5
35669,66782,4
35678,66780,5
35674,66793,5
35684,66794,5
35691,66797,4
35688,66813,4
35698,66805,5
35698,66821,5
35695,66828,5
35704,66824,4
35719,66833,5
35716,66844,5
35712,66842,5
35710,66851,5
35717,66859,5
35726,66857,4
35718,66869,5
35728,66867,5
35719,66875,5
35725,66867,4
35725,66877,5
35717,66872,5
35724,66862,5
35727,66855,5
35719,66850,4
35705,66842,5
35705,66828,5
35691,66819,5
35690,66802,5
35678,66784,4
35660,66755,5
35654,66744,5
35656,66731,5
35650,66729,4
35647,66721,4
35650,66720,6
35648,66730,4
35644,66717,5
35641,66728,4
35645,66728,7
35646,66734,3
35650,66745,5
35658,66747,5
35656,66754,4
35663,66755,5
35634,66767,5
35668,66782,5
35667,66779,5
35669,66785,4
35640,66794,5
35675,66786,5
35673,66774,5
35663,66752,5
35631,66733,4
35656,66724,5
35641,66714,5
35632,66701,5
35653,66697,4
35628,66695,4
35636,66697,5
35639,66712,6
35684,66714,4
35648,66717,4
35649,66719,5
35644,66740,5
35687,66749,5
35656,66753,5
35663,66768,4
35672,66773,5
35693,66783,5
35678,66797,5
35693,66802,5
35690,66805,4
35699,66811,5
35708,66837,5
35709,66841,5
35715,66850,5
35718,66817,4
35713,66858,5
35721,66866,5
35724,66869,5
35727,66825,5
35728,66871,5
35724,66883,4
35725,66884,5
35730,66872,6
35737,66885,3
35733,66890,4
35732,66890,5
35729,66919,5
35729,66883,5
35727,66873,4
35731,66869,5
35722,66905,5
35715,66848,5
35717,66849,5
35718,66839,4
35701,66857,5
35708,66830,5
35706,66821,5
35696,66817,5
35689,66808,4
35684,66792,5
35688,66794,5
35679,66782,5
35676,66778,5
35684,66788,5
35675,66785,4
35674,66784,5
35685,66796,5
35682,66800,6
35684,66792,3
35684,66802,5
35693,66809,5
35691,66814,5
35695,66816,4
35696,66827,5
35713,66826,5
35700,66835,5
35710,66850,5
35703,66851,4
35717,66856,5
35732,66854,5
35730,66862,5
35727,66883,5
35725,66885,4
35730,66882,5
35732,66879,5
35737,66889,5
35739,66891,5
35732,66894,4
35735,66897,6
35733,66898,4
35740,66883,5
35738,66877,5
35730,66883,4
35725,66874,5
35726,66873,5
35721,66857,5
35721,66867,4
35711,66852,4
35713,66847,5
35708,66835,5
35699,66840,5
35694,66824,4
35696,66812,5
35697,66813,5
35694,66803,5
35683,66796,5
35673,66790,4
35683,66773,5
35665,66768,5
35657,66756,5
35656,66722,5
35640,66714,4
35641,66708,5
35632,66698,6
35629,66690,4
35631,66691,5
35627,66679,4
35631,66696,5
35631,66694,5
35631,66698,5
35637,66697,5
35639,66706,4
35647,66722,5
35648,66726,5
35640,66730,5
35652,66730,4
35653,66735,5
35660,66745,5
35661,66768,5
35664,66768,5
35667,66778,4
35665,66770,5
35679,66778,5
35664,66766,5
35654,66744,5
35648,66726,4
35649,66721,5
35642,66708,5
35636,66700,6
35628,66690,4
35629,66699,4
35636,66708,5
35639,66704,5
35616,66721,5
35650,66720,5
35646,66730,4
35651,66741,5
35611,66752,5
35663,66758,5
35665,66772,4
35676,66777,4
35653,66791,5
35682,66806,5
35702,66815,5
35702,66819,4
35725,66831,5
35704,66843,5
35711,66849,5
35709,66855,5
35757,66868,5
35715,66868,4
35723,66874,5
35727,66878,5
35770,66884,6
35726,66878,3
35726,66884,5
35735,66890,5
35744,66891,5
35731,66895,5
35734,66891,4
35740,66904,5
35743,66882,5
35739,66892,5
35733,66886,5
35731,66874,4
35728,66840,5
35728,66873,5
35723,66859,5
35724,66853,4
35721,66811,4
35717,66842,5
35716,66849,5
35707,66832,5
35705,66818,4
35699,66813,6
35690,66808,4
35692,66807,5
35683,66826,5
35679,66795,4
35692,66791,5
35689,66795,5
35684,66837,5
35686,66800,5
35684,66795,4
35689,66805,5
35686,66828,5
35688,66805,5
35697,66816,5
35695,66810,4
35698,66824,5
35709,66828,5
35704,66832,5
35705,66841,4
35710,66847,4
35715,66848,5
35724,66862,5
35726,66867,5
35721,66868,4
35725,66871,5
35728,66876,6
35725,66880,4
35742,66880,5
35731,66889,4
35737,66896,5
35739,66896,5
35739,66894,5
35748,66899,5
35741,66897,4
35738,66891,5
35728,66888,5
35722,66885,5
35723,66877,5
35726,66868,4
35721,66860,5
35710,66860,5
35709,66852,5
35709,66844,5
35703,66836,4
35699,66825,5
35695,66832,5
35701,66816,5
35697,66821,4
35696,66807,4
35691,66800,5
35682,66795,6
35684,66790,4
35678,66790,4
35689,66790,5
35676,66780,5
35673,66777,5
35680,66777,5
35675,66770,4
35665,66765,5
35666,66756,5
35666,66751,5
35656,66749,5
35649,66733,4
35645,66716,8
35645,66697,2
35629,66689,5
35619,66675,5
35610,66665,4
35614,66661,5
35614,66653,5
35609,66657,5
35612,66662,5
35613,66670,4
35615,66683,5
35620,66680,5
35625,66680,5
35633,66688,4
35623,66692,5
35631,66702,5
35630,66713,5
35638,66723,5
35641,66728,4
35652,66733,5
35649,66735,5
35662,66752,5
35650,66748,5
35655,66733,4
35654,66717,5
35636,66698,5
35634,66697,5
35629,66680,5
35607,66665,4
35607,66647,5
35607,66647,5
35609,66666,5
35612,66673,5
35624,66675,5
35623,66675,4
35624,66687,5
35631,66692,5
35608,66705,4
35644,66724,4
35648,66739,5
35651,66751,5
35622,66766,5
35669,66769,4
35668,66777,5
35678,66797,5
35671,66809,5
35697,66818,5
35698,66825,4
35704,66834,5
35731,66839,5
35709,66851,5
35708,66850,5
35716,66864,4
35756,66854,5
35721,66859,6
35723,66867,4
35725,66867,5
35753,66869,4
35734,66865,6
35722,66866,4
35726,66863,5
35733,66872,4
35723,66871,4
35720,66871,5
35714,66870,5
35718,66837,5
35706,66858,4
35707,66838,5
35711,66832,5
35703,66801,5
35693,66818,5
35694,66818,4
35689,66813,5
35689,66764,5
35687,66796,5
35675,66783,5
35675,66780,4
35675,66768,5
35674,66770,5
35673,66775,5
35671,66771,4
35661,66800,4
35663,66766,5
35667,66772,5
35676,66770,5
35677,66820,5
35677,66774,4
35678,66781,5
35676,66790,5
35688,66824,5
35687,66804,4
35696,66820,4
35692,66813,5
35700,66835,5
35710,66836,5
35697,66835,4
35713,66851,5
35715,66851,5
35709,66860,5
35717,66862,5
35738,66872,5
35724,66882,4
35725,66879,5
35733,66874,5
35727,66883,6
35730,66878,3
35721,66886,5
35717,66872,5
35721,66866,5
35716,66856,5
35715,66836,4
35702,66836,5
35701,66818,5
35687,66799,5
35682,66786,4
35665,66772,4
35669,66758,5
35667,66754,5
35653,66747,5
35658,66747,4
35657,66750,5
35652,66743,5
35655,66743,5
35666,66752,5
35658,66765,4
35665,66762,6
35676,66760,4
35664,66767,5
35670,66772,5
35663,66772,6
35670,66768,3
35674,66772,5
35677,66781,5
35675,66779,5
35672,66776,4
35668,66761,5
35650,66742,5
35644,66720,5
35638,66723,5
35637,66696,4
35624,66687,5
35619,66680,5
35617,66678,5
35623,66693,4
35630,66687,4
35635,66690,5
35634,66701,5
35648,66709,5
35644,66719,4
35644,66729,5
35653,66735,6
35659,66753,4
35662,66763,5
35671,66768,4
35673,66779,5
35678,66796,5
35690,66797,5
35685,66810,5
35701,66829,4
35697,66821,5
35703,66834,5
35711,66840,5
35717,66839,5
35716,66846,4
35718,66862,5
35720,66859,5
35716,66857,5
35718,66864,4
35717,66856,4
35720,66867,5
35717,66869,5
35729,66878,5
35727,66874,4
35724,66868,5
35711,66866,5
35719,66856,6
35716,66842,4
35721,66836,4
35671,66831,5
35713,66827,5
35703,66817,5
35697,66807,5
35646,66799,4
35686,66783,5
35672,66786,5
35668,66767,5
35664,66767,5
35659,66758,4
35671,66755,5
35668,66764,5
35690,66759,5
35672,66762,5
35675,66771,4
35673,66775,5
35718,66790,5
35684,66792,5
35682,66795,5
35690,66816,4
35718,66814,5
35701,66826,5
35706,66836,6
35710,66848,3
35717,66847,5
35717,66857,5
35720,66858,5
35731,66882,5
35732,66866,4
35737,66898,5
35748,66901,5
35740,66905,5
35739,66869,5
35748,66907,4
35748,66914,5
35741,66906,5
35738,66865,5
35735,66900,5
35738,66885,4
35727,66872,5
35732,66880,5
35720,66854,5
35715,66847,4
35715,66832,5
35701,66861,4
35703,66826,5
35697,66824,5
35700,66822,4
35693,66861,5
35701,66823,5
35690,66817,5
35698,66828,5
35705,66850,4
35706,66834,5
35698,66833,5
35707,66838,5
35706,66842,5
35710,66841,4
35704,66843,5
35714,66844,5
35716,66835,5
35701,66812,5
35693,66799,4
35687,66792,5
35684,66788,5
35664,66768,5
35669,66763,5
35671,66758,4
35661,66764,6
35672,66768,4
35669,66779,5
35674,66786,4
35671,66781,4
35683,66794,5
35693,66807,5
35705,66823,5
35703,66828,4
35709,66851,5
35725,66865,5
35718,66870,5
35737,66879,5
35738,66892,4
35742,66894,5
35753,66905,5
35758,66920,5
35749,66917,5
35759,66936,4
35757,66933,5
35762,66937,5
35765,66940,5
35766,66941,5
35768,66949,4
35764,66952,5
35766,66954,6
35769,66956,4
35772,66959,4
35781,66962,4
35770,66968,5
35774,66962,5
35774,66961,5
35770,66950,4
35770,66948,5
35754,66938,5
35764,66929,5
35759,66930,5
35759,66930,4
35757,66931,5
35752,66912,5
35752,66910,5
35738,66899,5
35745,66889,4
35731,66886,5
35739,66882,5
35723,66879,5
35728,66881,5
35729,66880,4
35735,66881,5
35735,66897,5
35738,66894,6
35734,66898,4
35740,66906,4
35745,66911,5
35752,66930,5
35752,66934,5
35771,66945,4
35768,66958,4
35773,66973,5
35788,66983,5
35787,66994,5
35799,67006,4
35811,67013,5
35803,67028,5
35810,67038,5
35811,67038,5
35814,67043,4
35810,67054,5
35819,67055,5
35816,67058,5
35822,67056,5
35823,67053,5
35820,67039,4
35784,67043,5
35814,67035,5
35803,67018,5
35809,67026,4
35765,67021,5
35806,67009,5
35799,67004,5
35788,67002,4
35784,67005,4
35795,67003,5
35799,66992,5
35796,67000,5
35817,67005,4
35798,67006,5
35803,67012,5
35802,67018,5
35838,67025,5
35812,67021,4
35804,67018,5
35799,67004,5
35816,66992,5
35774,66978,5
35778,66964,4
35764,66949,6
35769,66933,4
35751,66912,5
35745,66927,5
35751,66930,4
35758,66913,5
35761,66938,5
35764,66938,5
35766,66955,5
35769,66928,4
35769,66970,5
35778,66988,5
35793,66996,5
35785,66970,4
35788,67023,5
35800,67020,4
35812,67037,5
35809,67043,5
35814,67051,4
35806,67055,5
35820,67062,5
35821,67091,5
35815,67064,5
35822,67063,4
35821,67063,5
35825,67108,6
35820,67060,4
35815,67059,5
35814,67056,4
35814,67076,5
35811,67045,5
35815,67054,5
35819,67043,5
35810,67059,4
35822,67049,5
35817,67041,5
35818,67040,5
35809,67031,4
35800,67032,4
35805,67026,5
35801,67033,5
35800,67030,5
35805,67034,4
35804,67020,5
35805,67022,5
35792,67020,5
35793,67023,5
35798,67002,4
35793,67007,5
35794,67002,5
35792,67009,5
35794,67008,5
35792,67010,4
35795,67019,5
35797,67025,5
35798,67029,5
35804,67021,5
35804,67036,4
35815,67042,5
35816,67042,5
35817,67049,5
35822,67057,5
35829,67058,4
35837,67062,5
35824,67072,5
35835,67078,5
35835,67085,4
35831,67075,4
35832,67091,5
35827,67079,5
35836,67078,5
35828,67074,5
35821,67062,4
35814,67058,5
35814,67049,5
35813,67048,5
35805,67040,6
35808,67026,3
35805,67024,5
35796,67015,5
35802,67013,5
35798,67010,4
35803,67009,5
35780,67009,5
35785,66998,5
35782,66996,5
35786,66996,4
35783,67000,5
35790,67009,5
35801,67016,5
35801,67024,5
35801,67022,4
35798,67012,5
35784,66989,4
35775,66966,5
35769,66963,4
35757,66945,7
35754,66930,3
35742,66914,5
35734,66905,5
35744,66908,4
35745,66902,5
35746,66909,5
35740,66901,5
35750,66909,5
35751,66912,4
35751,66915,5
35749,66920,5
35754,66928,5
35753,66927,5
35756,66929,4
35757,66940,5
35754,66936,5
35757,66945,5
35758,66942,5
35759,66947,4
35775,66959,5
35775,66950,6
35738,66960,4
35767,66960,4
35775,66961,4
35775,66961,5
35734,66964,5
35772,66968,5
35772,66965,4
35769,66965,5
35747,66961,5
35768,66963,5
35767,66964,5
35771,66964,4
35803,66958,5
35778,66962,5
35771,66959,5
35771,66957,5
35803,66948,4
35770,66948,5
35766,66934,5
35770,66947,5
35794,66950,5
35762,66939,4
35755,66927,5
35749,66925,5
35767,66921,6
35743,66915,4
35747,66901,4
35749,66905,5
35740,66886,5
35745,66895,5
35738,66896,4
35738,66893,5
35746,66862,5
35735,66891,5
35732,66876,5
35736,66893,4
35736,66854,5
35737,66885,5
35737,66897,5
35731,66901,5
35737,66904,4
35734,66910,5
35745,66906,5
35750,66913,5
35747,66957,5
35748,66928,5
35748,66933,4
35750,66928,5
35760,66979,5
35762,66938,6
35763,66927,3
35758,66923,5
35751,66946,5
35754,66917,5
35755,66907,4
35744,66897,4
35739,66905,5
35739,66893,5
35736,66880,5
35733,66884,4
35730,66872,5
35720,66877,5
35729,66863,5
35720,66864,5
35721,66857,4
35720,66866,5
35727,66866,5
35731,66869,5
35722,66887,5
35741,66888,4
35745,66902,6
35739,66907,4
35752,66913,5
35757,66916,5
35747,66911,4
35750,66891,5
35733,66887,5
35735,66878,5
35733,66866,5
35720,66852,4
35721,66860,5
35719,66870,5
35726,66861,5
35726,66869,4
35728,66871,5
35732,66870,5
35728,66877,5
35735,66884,5
35740,66884,4
35724,66891,5
35738,66901,5
35744,66905,5
35737,66901,5
35742,66898,4
35744,66912,5
35750,66915,6
35740,66922,4
35749,66915,5
35756,66921,4
35754,66927,5
35750,66919,5
35761,66928,5
35759,66936,5
35757,66925,4
35761,66929,5
35755,66933,5
35765,66945,5
35763,66948,4
35770,66944,4
35776,66958,5
35771,66959,5
35763,66952,5
35769,66956,4
35769,66948,5
35770,66944,5
35766,66943,5
35765,66936,5
35763,66935,4
35763,66939,5
35761,66936,5
35762,66930,6
35760,66930,4
35752,66931,4
35754,66919,5
35752,66923,5
35746,66917,5
35753,66915,5
35750,66906,4
35743,66908,5
35746,66906,5
35742,66905,5
35744,66916,4
35748,66904,4
35742,66917,5
35757,66914,5
35743,66917,5
35753,66924,4
35747,66927,5
35762,66927,5
35757,66948,5
35756,66946,5
35738,66956,5
35760,66953,4
35773,66950,5
35772,66961,5
35743,66979,5
35779,66975,4
35783,66983,5
35782,66988,5
35783,66996,5
35789,67000,5
35790,67002,4
35791,66998,5
35832,67002,5
35789,67006,5
35802,67010,5
35806,67001,4
35835,66995,5
35803,66999,5
35789,66991,5
35786,66974,4
35797,66962,5
35763,66933,5
35757,66919,5
35750,66909,5
35747,66895,4
35742,66889,6
35728,66879,4
35732,66871,5
35725,66846,5
35725,66858,4
35726,66860,5
35722,66867,5
35726,66827,5
35726,66865,5
35725,66867,4
35731,66875,5
35733,66854,5
35738,66903,5
35756,66921,5
35748,66929,4
35759,66931,5
35761,66930,5
35752,66912,5
35751,66901,4
35737,66934,4
35739,66892,5
35726,66866,5
35727,66862,5
35727,66901,4
35732,66854,5
35726,66867,6
35728,66872,4
35736,66894,5
35727,66885,4
35731,66874,5
35729,66893,5
35737,66898,5
35742,66896,5
35745,66910,4
35750,66919,5
35753,66935,5
35765,66925,5
35764,66944,5
35764,66946,4
35761,66953,5
35773,66949,5
35774,66958,5
35776,66961,4
35777,66965,4
35774,66968,5
35792,66978,5
35785,66977,5
35781,66976,4
35774,66966,5
35784,66967,5
35782,66979,6
35785,66972,4
35789,66985,4
35793,66967,5
35778,66981,5
35777,66970,5
35780,66965,5
35774,66964,4
35775,66960,5
35775,66947,5
35767,66952,5
35779,66955,5
35764,66946,4
35767,66938,5
35765,66937,5
35758,66939,5
35760,66924,5
35755,66925,4
35756,66920,5
35752,66916,5
35746,66915,5
35745,66902,5
35751,66907,4
35754,66914,5
35751,66911,5
35751,66919,5
35744,66918,4
35750,66924,5
35754,66928,5
35760,66937,5
35753,66938,5
35767,66953,4
35775,66955,5
35776,66955,5
35778,66968,5
35780,66966,5
35785,66980,4
35785,66977,5
35789,66989,5
35786,66987,5
35789,66986,5
35799,66999,4
35799,67001,5
35790,67001,5
35796,67009,5
35788,67003,4
35796,67003,5
35783,66994,4
35792,67000,5
35788,66987,5
35778,66984,4
35778,66964,5
35777,66962,5
35771,66942,5
35766,66930,5
35762,66926,4
35750,66918,5
35747,66914,5
35749,66909,5
35745,66904,5
35736,66912,4
35748,66902,5
35736,66907,5
35748,66911,5
35741,66914,5
35751,66909,4
35719,66915,5
35751,66925,5
35760,66930,5
35760,66941,4
35721,66940,4
35756,66952,6
35771,66948,4
35769,66940,5
35738,66912,4
35749,66907,5
35746,66897,5
35723,66884,5
35758,66861,5
35724,66859,4
35726,66860,5
35724,66872,5
35781,66882,5
35729,66887,5
35732,66880,4
35739,66885,5
35753,66896,5
35743,66896,5
35747,66907,5
35745,66908,4
35760,66916,5
35759,66917,5
35767,66931,5
35759,66940,3
35754,66916,4
35765,66945,5
35770,66943,5
35763,66950,5
35767,66917,4
35773,66947,5
35774,66953,5
35773,66962,5
35769,66909,5
35761,66945,5
35762,66949,4
35770,66957,5
35773,66961,5
35768,66961,5
35773,66952,4
35774,66959,5
35773,66991,5
35764,66953,5
35763,66951,5
35758,66936,5
35760,66983,4
35755,66923,5
35765,66928,5
35768,66928,6
35762,66952,3
35760,66925,5
35757,66918,5
35755,66917,5
35755,66927,4
35748,66917,5
35753,66915,5
35754,66916,5
35754,66916,5
35747,66923,4
35747,66927,5
35765,66918,5
35761,66924,5
35767,66927,5
35765,66944,4
35764,66945,5
35767,66949,5
35772,66967,5
35773,66965,5
35781,66979,4
35790,66990,6
35796,66988,4
35783,67002,5
35799,67009,5
35794,67013,6
35807,67018,3
35810,67024,5
35810,67023,5
35817,67030,4
35815,67042,4
35824,67040,5
35822,67041,5
35815,67033,5
35818,67034,4
35806,67027,5
35811,67020,5
35811,67008,5
35792,66992,5
35790,66998,4
35791,66993,5
35788,66987,5
35783,66965,10
35783,66965,4
35776,66983,5
35779,66971,6
35781,66968,4
35783,66980,5
35782,66982,4
35787,67000,5
35791,67005,5
35797,67005,5
35798,67009,4
35799,66999,4
35791,66993,5
35782,66985,5
35782,66974,5
35781,66963,4
35767,66948,5
35775,66950,5
35765,66951,5
35770,66957,5
35776,66966,4
35780,66977,5
35777,66974,5
35777,66994,5
35792,66980,5
35789,66988,4
35798,67006,5
35793,67015,5
35803,67022,6
35809,67024,4
35814,67033,4
35819,67049,5
35819,67032,5
35821,67040,5
35820,67041,5
35816,67038,4
35819,67040,5
35816,67043,5
35816,67042,5
35818,67043,4
35819,67050,5
35814,67040,5
35820,67045,5
35818,67047,5
35825,67056,4
35778,67053,5
35827,67055,5
35825,67056,5
35821,67035,5
35782,67042,5
35814,67036,4
35812,67028,5
35804,67027,5
35808,67032,6
35809,67021,3
35804,67014,5
35801,67019,5
35835,67011,5
35801,67008,5
35800,67003,4
35798,67002,5
35832,66993,5
35795,66999,5
35788,66998,4
35793,66999,4
35814,66996,5
35789,67005,5
35791,67003,5
35794,67007,4
35808,67023,5
35806,67014,5
35807,67022,5
35815,67029,5
35809,67014,4
35817,67048,6
35815,67055,4
35824,67059,5
35824,67027,5
35827,67072,4
35829,67083,5
35831,67074,5
35840,67050,5
35849,67093,5
35846,67099,4
35849,67105,5
35853,67117,5
35845,67099,5
35848,67109,4
35848,67107,4
35847,67139,5
35844,67098,5
35835,67093,5
35833,67088,4
35826,67115,5
35823,67076,5
35828,67065,5
35828,67064,5
35821,67071,4
35824,67053,5
35814,67055,6
35819,67046,4
35821,67048,5
35824,67044,4
35815,67060,5
35816,67057,5
35824,67059,5
35825,67066,5
35834,67082,4
35838,67090,5
35836,67089,5
35837,67086,5
35834,67090,5
35835,67071,4
35818,67056,5
35812,67048,5
35811,67034,5
35801,67018,4
35797,67008,5
35784,67017,5
35792,67010,5
35793,67013,5
35792,67010,4
35788,67006,5
35792,67004,5
35793,67013,6
35799,67020,4
35795,67013,4
35800,67025,5
35804,67023,5
35804,67029,5
35806,67024,5
35811,67026,4
35802,67038,5
35806,67030,5
35807,67042,5
35810,67037,5
35807,67042,4
35817,67040,5
35807,67044,5
35811,67044,5
35815,67041,4
35811,67042,4
35817,67041,5
35805,67047,5
35804,67045,5
35810,67050,5
35819,67045,4
35813,67051,5
35811,67048,5
35812,67036,5
35806,67037,4
35808,67035,5
35809,67038,5
35806,67024,5
35806,67030,5
35798,67032,4
35804,67030,5
35801,67024,5
35803,67027,5
35795,67020,5
35803,67029,4
35796,67019,5
35803,67027,5
35802,67033,5
35808,67032,4
35804,67038,4
35811,67041,5
35812,67043,5
35808,67052,5
35823,67060,4
35820,67064,6
35820,67062,4
35824,67071,5
35831,67075,5
35828,67081,4
35828,67094,5
35839,67091,5
35830,67084,5
35835,67088,5
35842,67091,4
35835,67103,5
35833,67091,5
35819,67092,5
35840,67100,5
35828,67086,4
35827,67092,5
35797,67092,5
35824,67085,5
35827,67085,5
35824,67085,4
35776,67083,5
35819,67069,5
35812,67065,5
35819,67070,4
35824,67064,4
35814,67051,6
35806,67056,4
35814,67052,5
35846,67044,4
35818,67056,5
35805,67054,5
35807,67052,5
35858,67060,5
35817,67071,4
35823,67074,5
35816,67084,5
35844,67092,5
35827,67090,5
35825,67085,4
35819,67068,5
35813,67063,5
35804,67035,5
35790,67024,5
35779,67005,4
35760,66947,5
35744,66952,5
35747,66934,5
35737,66922,5
35736,66890,4
35737,66922,5
35733,66913,5
35724,66903,5
35717,66876,4
35711,66906,5
35718,66896,5
35714,66890,5
35723,66919,5
35725,66900,4
35718,66907,5
35721,66895,5
35713,66940,5
35718,66895,5
35725,66899,4
35718,66903,5
35713,66938,5
35724,66903,5
35720,66901,5
35721,66907,4
35728,66922,5
35724,66912,5
35720,66907,5
35728,66912,6
35725,66920,3
35735,66920,5
35734,66929,5
35737,66934,5
35737,66931,4
35744,66931,5
35736,66941,5
35735,66940,5
35747,66947,5
35744,66938,4
35751,66946,5
35749,66956,5
35762,66953,5
35749,66964,5
35751,66959,4
35765,66958,5
35749,66961,5
35747,66952,5
35761,66971,5
35749,66961,4
35759,66964,5
35761,66965,5
35762,66959,5
35759,66966,5
35752,66960,5
35760,66968,4
35751,66965,5
35759,66969,5
35768,66976,4
35766,66973,5
35758,66973,5
35759,66987,5
35767,66989,5
35767,66997,4
35770,66997,5
35769,66996,5
35779,67000,5
35773,66999,5
35781,67000,4
35769,67010,5
35766,67009,5
35779,67013,5
35790,67007,5
35780,67018,4
35776,67016,5
35775,67011,5
35777,67009,4
35783,67020,5
35783,67015,4
35785,67011,7
35779,67015,3
35779,67000,5
35772,67008,4
35777,67010,4
35775,67005,5
35767,67005,5
35780,67000,5
35773,67009,4
35780,67012,5
35775,67019,5
35789,67029,5
35785,67027,5
35792,67030,4
35793,67034,5
35796,67038,5
35802,67037,5
35789,67021,5
35774,67009,4
35776,66991,5
35767,66971,5
35756,66961,6
35749,66955,4
35754,66960,4
35750,66959,5
35749,66956,5
35755,66952,5
35754,66967,4
35756,66957,4
35761,66958,5
35759,66955,5
35756,66959,5
35735,66962,4
35766,66970,5
35768,66972,5
35760,66975,5
35726,66985,5
35763,66981,4
35768,66983,5
35770,66980,5
35741,66988,5
35775,66991,5
35780,66998,5
35786,66998,4
35792,66999,5
35793,67000,5
35788,67007,6
35790,67020,3
35836,67019,5
35804,67021,5
35805,67034,5
35796,67039,4
35843,67042,4
35803,67049,5
35811,67042,5
35809,67056,5
35831,67055,4
35822,67071,5
35826,67069,5
35829,67074,5
35826,67069,5
35831,67082,4
35837,67090,5
35841,67084,5
35831,67052,5
35840,67085,5
35836,67078,4
35835,67090,6
35837,67048,4
35830,67082,5
35844,67089,5
35832,67085,5
35832,67065,4
35837,67083,5
35831,67080,5
35840,67091,5
35829,67101,4
35838,67081,5
35835,67074,5
35830,67081,5
35828,67124,4
35826,67072,5
35829,67076,5
35833,67084,5
35829,67107,5
35842,67072,4
35836,67088,5
35839,67082,5
35840,67105,5
35851,67099,5
35845,67098,4
35852,67106,5
35853,67102,6
35852,67113,4
35859,67110,5
35852,67117,4
35860,67127,5
35863,67131,5
35861,67121,5
35856,67125,5
35866,67126,4
35869,67121,5
35862,67126,5
35854,67111,5
35848,67109,4
35845,67102,4
35837,67073,5
35830,67067,5
35831,67062,5
35817,67047,4
35815,67040,5
35811,67023,5
35808,67015,5
35792,67011,5
35792,66998,4
35789,66997,5
35797,66995,5
35794,66985,6
35793,66990,4
35796,67006,4
35793,66998,5
35796,67001,5
35801,67012,5
35804,67029,5
35807,67029,4
35812,67033,5
35817,67051,7
35820,67041,3
35845,67027,5
35808,67006,4
35796,67005,5
35794,66998,5
35783,66979,5
35787,66969,4
35779,66962,5
35777,66976,5
35772,66968,5
35776,66980,5
35790,66964,5
35783,66971,4
35786,66960,5
35781,66967,5
35784,66958,6
35778,66961,3
35786,66969,5
35784,66962,5
35785,66966,5
35782,66966,5
35775,66963,4
35775,66964,5
35782,66958,5
35784,66968,5
35781,66966,5
35785,66965,4
35777,66970,5
35779,66971,5
35779,66969,5
35782,66969,4
35785,66959,4
35780,66969,5
35784,66977,5
35794,66976,5
35794,66983,4
35791,66985,6
35787,66997,4
35787,66988,5
35802,66996,5
35798,66988,4
35791,66986,5
35782,66979,5
35791,66985,5
35791,66984,5
35790,66983,4
35772,66976,5
35792,66985,5
35795,66979,5
35788,66975,5
35756,66977,4
35786,66968,5
35790,66966,5
35781,66962,5
35748,66959,4
35777,66957,4
35784,66964,5
35773,66954,5
35793,66959,5
35776,66958,4
35777,66958,5
35775,66953,6
35827,66963,4
35780,66962,5
35786,66973,4
35781,66973,5
35820,66982,5
35780,66977,5
35782,66981,5
35798,66991,4
35808,66998,5
35800,67006,5
35802,66997,5
35805,67011,5
35811,67005,4
35808,67010,5
35806,67013,5
35816,67020,5
35821,66984,5
35813,67025,4
35815,67033,5
35818,67038,5
35813,66997,5
35827,67043,4
35822,67042,5
35821,67035,5
35815,67015,6
35821,67035,4
35823,67040,4
35817,67038,5
35814,67062,5
35814,67035,5
35817,67024,5
35806,67006,4
35801,67042,5
35797,66981,5
35781,66976,5
35786,66962,5
35782,66972,4
35762,66951,5
35766,66943,5
35756,66938,5
35762,66939,5
35765,66927,4
35758,66923,5
35749,66916,5
35754,66915,5
35756,66918,5
35762,66931,4
35762,66936,5
35764,66937,5
35771,66946,5
35767,66954,4
35771,66965,5
35787,66963,5
35786,66970,5
35784,66963,5
35781,66950,4
35772,66950,5
35766,66939,5
35763,66927,5
35760,66927,5
35749,66921,4
35758,66918,5
35757,66928,5
35754,66930,5
35760,66938,5
35769,66926,4
35761,66925,5
35757,66930,5
35765,66925,5
35755,66934,4
35769,66942,5
35760,66943,4
35771,66949,5
35773,66952,5
35772,66945,4
35772,66953,5
35783,66954,5
35780,66959,5
35778,66965,5
35781,66964,4
35784,66967,5
35788,66971,5
35789,66967,5
35786,66970,5
35794,66965,4
35785,66974,5
35787,66978,5
35791,66977,5
35791,66988,5
35803,66999,4
35802,67001,5
35793,66994,5
35803,66990,5
35799,66996,5
35793,66985,4
35789,66979,6
35787,66986,4
35794,66980,5
35787,66976,4
35781,66968,5
35783,66974,5
35780,66962,5
35768,66960,5
35779,66953,4
35775,66954,5
35774,66950,5
35773,66944,5
35775,66942,5
35763,66943,4
35767,66943,5
35771,66953,5
35766,66948,5
35773,66960,5
35778,66965,4
35773,66963,5
35782,66963,5
35785,66967,5
35782,66985,5
35786,66975,4
35792,66987,5
35799,66989,5
35792,66999,5
35801,67001,4
35805,67012,4
35805,67018,5
35783,67030,5
35812,67030,5
35818,67035,4
35819,67037,5
35773,67038,5
35818,67041,5
35825,67048,5
35823,67056,4
35797,67058,5
35829,67044,5
35833,67055,5
35829,67050,5
35855,67051,4
35828,67055,5
35830,67055,5
35825,67053,5
35878,67047,5
35827,67055,4
35819,67052,5
35829,67049,5
35863,67041,5
35817,67048,4
35813,67047,4
35816,67045,5
35839,67041,5
35822,67033,5
35815,67038,4
35821,67040,5
35811,67022,5
35814,67039,5
35814,67041,5
35818,67036,4
35814,66998,5
35810,67037,5
35823,67028,5
35817,67027,5
35811,66981,4
35810,67010,6
35797,67002,4
35800,66990,5
35784,66974,5
35774,66966,6
35771,66940,3
35768,66939,5
35767,66962,5
35755,66926,5
35752,66917,4
35747,66916,5
35760,66967,5
35749,66909,5
35743,66903,4
35751,66905,5
35752,66927,5
35751,66897,5
35761,66909,5
35754,66924,4
35769,66939,5
35773,66947,5
35770,66960,5
35782,66964,5
35785,66969,4
35788,66970,5
35784,66969,6
35777,66959,4
35761,66930,5
35766,66938,4
35758,66913,5
35754,66900,5
35748,66902,5
35742,66906,5
35753,66900,4
35752,66908,5
35756,66914,5
35754,66915,5
35754,66921,4
35749,66923,4
35750,66918,5
35761,66925,5
35768,66937,5
35778,66936,4
35765,66955,5
35777,66954,5
35782,66956,5
35776,66970,5
35788,66966,4
35784,66970,5
35778,66969,5
35792,66975,6
35784,66980,4
35787,66975,4
35785,66984,5
35789,66982,5
35792,66981,5
35787,66981,5
35794,66981,4
35795,66988,5
35795,66993,5
35792,66996,5
35806,66988,4
35791,66987,4
35795,66995,5
35788,66979,5
35794,66979,5
35792,66984,4
35782,66969,5
35781,66971,5
35780,66970,5
35781,66968,5
35779,66957,5
35779,66963,4
35773,66955,5
35774,66965,5
35772,66961,6
35773,66958,3
35769,66950,5
35774,66947,5
35768,66956,5
35769,66954,5
35775,66958,4
35776,66963,5
35773,66965,5
35783,66968,5
35792,66974,4
35785,66988,4
35793,67004,5
35799,67003,5
35805,67014,5
35804,67012,4
35812,67019,5
35819,67040,5
35816,67042,5
35822,67040,5
35836,67060,4
35826,67060,6
35838,67063,4
35833,67074,5
35841,67080,5
35825,67090,4
35847,67092,5
35850,67089,5
35848,67104,5
35821,67104,5
35843,67107,4
35848,67105,5
35850,67109,5
35813,67091,5
35852,67110,4
35858,67095,4
35845,67097,5
35845,67090,5
35849,67093,5
35842,67080,4
35833,67077,5
35868,67079,5
35823,67061,5
35820,67047,5
35813,67033,4
35851,67024,5
35804,67029,6
35808,67022,4
35798,67010,5
35823,67011,4
35795,67004,5
35799,67006,5
35802,67015,5
35803,67011,5
35806,67015,4
35799,67009,5
35804,67018,5
35805,66999,5
35806,67038,4
35816,67042,4
35826,67052,5
35826,67019,5
35830,67058,5
35827,67059,4
35819,67057,5
35818,67008,5
35812,67031,5
35806,67014,5
35793,67008,5
35788,66999,4
35776,66982,5
35775,66975,6
35793,66975,4
35788,67025,4
35780,66993,5
35787,66997,5
35790,66988,5
35782,67019,5
35783,66997,4
35802,67002,5
35795,67009,5
35796,67034,5
35797,67023,4
35808,67031,4
35813,67034,5
35815,67031,5
35812,67044,5
35816,67037,4
35817,67055,5
35819,67050,5
35818,67044,5
35826,67047,5
35814,67053,5
35824,67052,4
35813,67048,5
35816,67045,5
35819,67047,5
35816,67044,4
35822,67063,5
35829,67057,5
35818,67059,5
35827,67048,5
35814,67037,4
35810,67023,5
35802,67027,5
35790,67020,5
35802,67013,4
35805,67017,4
35803,67008,5
35789,67008,5
35788,67007,5
35796,67007,4
35788,67007,5
35785,66998,5
35796,67003,5
35790,66995,5
35791,67003,4
35783,67002,11
35802,67016,4
35790,67011,5
35797,67030,4
35796,67043,5
35817,67046,5
35821,67060,5
35825,67062,5
35826,67077,4
35835,67077,5
35839,67089,5
35844,67101,5
35846,67115,4
35856,67100,4
35853,67112,5
35856,67111,5
35851,67119,5
35854,67113,4
35859,67121,5
35859,67126,5
35861,67125,5
35851,67124,5
35850,67127,4
35854,67117,5
35847,67120,6
35845,67107,4
35849,67108,5
35837,67088,4
35824,67073,5
35817,67060,5
35809,67051,5
35796,67041,5
35799,67030,4
35788,67016,5
35798,67009,5
35773,66994,5
35761,66985,4
35765,66979,4
35770,66976,5
35766,66967,5
35746,66966,5
35750,66959,4
35756,66961,5
35759,66961,5
35758,66966,5
35763,66970,5
35762,66979,4
35755,66989,5
35765,66982,5
35738,66977,5
35758,66978,5
35753,66968,4
35747,66952,5
35712,66950,5
35738,66943,5
35737,66924,5
35725,66915,4
35699,66913,5
35733,66914,5
35728,66914,5
35730,66931,4
35759,66921,4
35731,66925,5
35726,66929,5
35742,66939,5
35780,66944,4
35749,66944,5
35754,66951,5
35746,66962,5
35787,66970,5
35752,66961,5
35753,66971,4
35764,66975,5
35766,66968,5
35756,66975,5
35761,66968,4
35765,66983,5
35760,66961,5
35758,66970,5
35764,66967,5
35755,66971,4
35756,66943,5
35761,66978,5
35767,66987,5
35778,66986,4
35769,66948,4
35768,66990,5
35761,66982,5
35772,66976,5
35770,66983,4
35762,66978,5
35760,66988,6
35763,66987,4
35770,67025,5
35768,66979,4
35772,66982,7
35769,66980,3
35763,67025,5
35767,66977,5
35763,66976,4
35765,66983,5
35767,67002,5
35766,66985,5
35764,67004,5
35768,67003,4
35775,67000,5
35775,67014,5
35782,67005,5
35787,67024,4
35789,67033,4
35793,67028,5
35789,67030,5
35797,67037,5
35800,67037,4
35798,67048,5
35801,67048,5
35796,67054,5
35798,67054,5
35808,67056,4
35810,67061,5
35815,67072,5
35813,67069,5
35817,67076,5
35819,67072,4
35815,67075,5
35819,67082,5
35825,67085,5
35821,67090,5
35826,67087,4
35825,67080,5
35828,67077,5
35818,67072,5
35818,67070,4
35816,67075,4
35814,67073,5
35817,67068,5
35819,67077,5
35818,67072,4
35815,67071,4
35816,67068,5
35812,67057,5
35817,67060,5
35810,67058,3
35819,67068,5
35825,67081,5
35834,67097,5
35838,67097,5
35831,67106,4
35833,67100,5
35830,67097,5
35831,67084,5
35823,67076,5
35823,67066,4
35806,67059,5
35814,67038,5
35803,67043,5
35815,67046,4
35809,67046,4
35821,67054,5
35819,67068,5
35814,67063,5
35814,67064,4
35827,67057,6
35816,67065,4
35829,67055,5
35823,67065,5
35821,67074,6
35840,67080,3
35836,67079,5
35847,67093,5
35844,67091,5
35838,67090,4
35844,67086,5
35844,67089,5
35843,67088,5
35839,67077,5
35830,67085,4
35840,67079,5
35843,67077,5
35834,67082,5
35837,67088,4
35849,67093,4
35843,67093,5
35853,67100,5
35851,67108,5
35845,67106,4
35827,67111,5
35852,67104,6
35847,67110,4
35851,67100,5
35825,67102,4
35847,67105,5
35851,67099,5
35857,67103,5
35816,67094,5
35847,67096,4
35845,67087,5
35840,67088,5
35852,67077,5
35839,67073,5
35833,67067,4
35827,67060,5
35876,67063,5
35830,67056,5
35827,67056,4
35825,67054,4
35864,67058,5
35829,67059,5
35825,67061,5
35825,67068,4
35839,67072,5
35838,67076,5
35837,67082,6
35844,67086,4
35841,67085,4
35846,67096,5
35847,67105,5
35851,67111,5
35862,67086,5
35862,67127,4
35860,67125,5
35868,67141,5
35869,67101,5
35874,67138,5
35862,67131,5
35870,67132,4
35869,67120,5
35867,67132,5
35855,67120,4
35859,67111,4
35861,67145,5
35859,67098,5
35851,67100,5
35843,67093,5
35847,67124,4
35841,67075,5
35836,67067,5
35831,67065,6
35830,67084,3
35825,67060,5
35826,67067,5
35832,67060,5
35831,67071,5
35844,67079,4
35849,67080,5
35834,67093,5
35841,67091,5
35838,67079,5
35836,67057,4
35826,67050,5
35826,67050,5
35817,67038,5
35814,67030,4
35817,67027,4
35815,67029,5
35813,67037,5
35814,67028,5
35822,67039,4
35817,67037,6
35814,67035,4
35810,67030,5
35812,67033,5
35815,67020,4
35806,67030,5
35808,67029,5
35819,67034,5
35813,67025,5
35821,67030,4
35815,67020,5
35818,67026,5
35817,67027,5
35815,67034,5
35809,67026,4
35814,67025,5
35810,67032,5
35818,67025,5
35819,67027,4
35810,67030,4
35813,67030,5
35809,67029,5
35814,67024,5
35811,67034,4
35818,67042,5
35820,67029,6
35814,67036,4
35810,67039,5
35809,67025,4
35821,67024,5
35816,67033,5
35818,67036,5
35812,67029,5
35816,67029,4
35822,67025,5
35816,67029,5
35811,67024,5
35809,67025,5
35809,67018,4
35808,67014,5
35811,67004,5
35798,67007,5
35797,66998,4
35802,67002,4
35797,66997,5
35801,66991,5
35793,66993,5
35792,66997,4
35797,66993,5
35798,66998,5
35799,67004,6
35805,67001,4
35806,67009,4
35811,67004,5
35807,67011,5
35816,67018,5
35815,67031,5
35820,67027,4
35821,67035,5
35812,67041,5
35816,67045,5
35825,67039,5
35822,67050,4
35830,67060,5
35836,67059,5
35821,67066,5
35837,67068,4
35838,67072,5
35840,67073,5
35806,67071,5
35835,67073,5
35837,67065,5
35831,67068,4
35793,67050,5
35833,67045,5
35816,67029,5
35816,67012,4
35818,66999,5
35794,66997,5
35797,66990,5
35794,66973,5
35828,66969,4
35786,66969,5
35780,66959,5
35786,66958,5
35821,66967,5
35775,66954,4
35780,66962,5
35787,66965,5
35810,66975,5
35790,66978,4
35785,66990,5
35798,67002,5
35804,66995,5
35807,67013,5
35807,67029,4
35816,67035,6
35819,67007,4
35820,67030,5
35809,67014,5
35805,67001,4
35806,66964,5
35793,66991,5
35793,66974,5
35789,66966,5
35780,66957,4
35787,66964,5
35786,66972,5
35785,66966,5
35783,66995,5
35780,66977,4
35778,66974,5
35787,66975,5
35787,67022,5
35798,66989,4
35804,67000,5
35806,66999,5
35807,67033,5
35803,67003,5
35810,67015,4
35803,67016,5
35805,67034,6
35799,67025,4
35815,67027,5
35810,67024,4
35816,67027,5
35812,67016,5
35816,67033,5
35813,67033,5
35812,67023,4
35821,67035,5
35817,67032,5
35821,67040,5
35822,67038,5
35835,67039,4
35828,67046,5
35825,67044,5
35827,67048,5
35821,67035,4
35816,67034,5
35820,67030,5
35813,67019,5
35821,67025,5
35818,67020,4
35812,67011,5
35811,67019,5
35805,67015,5
35806,67011,5
35803,66994,4
35803,67000,5
35803,67001,5
35804,67004,5
35803,66998,5
35801,66997,4
35793,66985,5
35795,66989,5
35789,66984,5
35790,66993,5
35787,66984,4
35785,66988,8
35799,66992,2
35793,66996,5
35780,67001,4
35798,67003,5
35797,67010,5
35807,67016,5
35816,67027,5
35821,67035,5
35818,67036,4
35822,67048,5
35823,67051,5
35828,67057,5
35823,67063,4
35837,67066,5
35830,67071,5
35828,67061,5
35827,67063,5
35824,67060,4
35814,67043,5
35816,67028,5
35804,67019,5
35812,67015,5
35797,67002,4
35796,66998,5
35799,66995,5
35797,66991,5
35795,66989,4
35792,66986,4
35781,66973,5
35778,66977,5
35790,66976,5
35790,66984,4
35797,66991,6
35792,66995,4
35794,67001,5
35805,67008,5
35814,67016,4
35807,67022,5
35802,67026,5
35811,67036,5
35821,67035,5
35810,67017,4
35786,67005,5
35804,66990,5
35793,66985,5
35785,66967,5
35745,66959,4
35768,66958,5
35775,66951,5
35778,66960,5
35735,66961,4
35782,66968,5
35773,66960,5
35777,66953,5
35777,66959,5
35773,66960,4
35783,66973,5
35779,66970,5
35818,66970,5
35777,66978,5
35790,66969,4
35783,66975,5
35830,66984,5
35783,66982,5
35791,66984,5
35784,66987,4
35802,66980,5
35788,66975,5
35780,66985,5
35794,66983,5
35787,66973,4
35785,66987,5
35792,66989,5
35794,66991,5
35791,66966,5
35793,66994,4
35790,66991,5
35797,66994,5
35795,66941,6
35787,66981,3
35791,66990,5
35791,66978,5
35791,66964,5
35789,66975,5
35784,66979,4
35783,66972,5
35781,66981,5
35779,66970,5
35773,66960,5
35777,66963,4
35767,67001,5
35771,66954,5
35772,66957,5
35775,66944,5
35774,66980,4
35778,66954,5
35767,66943,5
35778,66957,5
35782,66958,4
35775,66971,6
35771,66961,4
35776,66966,5
35775,66981,5
35783,66984,6
35788,66985,3
35798,66985,5
35792,66998,5
35798,67008,5
35811,67008,4
35805,67013,5
35808,67013,5
35805,67029,5
35814,67030,5
35816,67030,4
35826,67041,5
35829,67038,5
35828,67055,5
35829,67045,5
35825,67047,4
35820,67056,5
35825,67063,5
35824,67061,5
35826,67050,4
35826,67051,5
35831,67057,6
35824,67050,4
35825,67047,5
35815,67044,4
35828,67043,5
35824,67041,5
35815,67034,5
35821,67036,5
35815,67035,4
35816,67037,5
35817,67035,5
35812,67032,5
35813,67025,5
35804,67017,4
35806,67015,5
35799,67013,5
35802,67018,5
35810,67009,5
35804,67016,4
35801,67011,5
35798,67002,5
35803,67012,5
35800,67005,4
35802,67005,4
35804,67006,5
35801,67004,6
35800,67003,4
35809,67006,4
35793,67002,5
35795,66992,5
35790,67005,5
35796,66999,5
35790,66989,4
35792,67000,5
35795,66990,5
35789,66995,5
35788,66990,5
35800,66991,4
35786,66996,5
35793,66993,5
35784,66991,5
35785,66969,5
35783,66980,4
35785,66971,5
35775,66967,5
35768,66957,5
35764,66938,5
35754,66914,4
35748,66899,5
35729,66889,5
35741,66876,6
35727,66863,3
35725,66861,5
35720,66855,5
35717,66852,5
35698,66838,5
35717,66853,4
35717,66856,5
35719,66863,5
35685,66852,5
35720,66873,5
35728,66870,4
35741,66883,5
35703,66895,5
35745,66919,5
35749,66918,5
35754,66928,4
35755,66915,5
35757,66915,5
35747,66898,5
35743,66899,5
35765,66881,5
35735,66874,4
35728,66863,5
35723,66870,5
35766,66866,6
35730,66883,3
35733,66883,5
35744,66892,5
35761,66900,5
35745,66893,4
35746,66916,5
35760,66919,5
35766,66931,5
35764,66943,5
35776,66953,4
35772,66955,5
35772,66941,5
35772,66967,5
35780,66974,5
35779,66974,4
35779,66939,5
35779,66988,5
35785,66989,5
35789,66981,5
35785,66942,4
35797,66989,6
35785,66979,4
35797,66973,5
35788,67001,4
35785,66984,4
35789,66989,5
35788,66980,5
35795,67017,5
35790,66978,4
35786,66985,5
35794,66984,5
35789,67025,5
35791,66988,5
35785,66974,4
35786,66971,5
35778,66986,5
35772,66969,5
35781,66973,5
35775,66959,4
35781,66965,5
35776,66954,5
35773,66957,5
35781,66954,5
35770,66943,4
35766,66942,5
35761,66939,6
35763,66939,4
35764,66927,4
35760,66932,4
35754,66926,5
35756,66928,5
35753,66942,5
35757,66944,4
35763,66951,5
35769,66951,5
35780,66961,5
35774,66969,5
35775,66968,4
35783,66988,5
35792,66993,5
35802,67007,5
35808,67010,5
35806,67030,4
35806,67028,5
35808,67033,5
35823,67041,5
35817,67050,5
35825,67051,4
35827,67061,5
35831,67072,5
35831,67077,6
35828,67073,4
35838,67075,4
35834,67074,5
35829,67075,5
35834,67065,5
35832,67068,4
35829,67060,4
35817,67054,5
35819,67032,5
35816,67029,5
35802,67020,4
35808,67013,5
35799,67004,5
35791,66994,5
35795,66989,5
35792,66985,4
35793,66982,5
35786,66975,5
35788,66987,5
35792,66987,5
35786,66976,5
35786,66988,4
35785,66992,5
35793,66991,5
35790,66988,5
35796,67007,4
35801,67006,5
35800,67016,5
35795,67017,5
35803,67020,4
35798,67013,4
35799,67002,5
35794,66995,5
35785,66991,5
35783,66976,4
35783,66964,5
35773,66952,5
35771,66953,5
35772,66958,5
35777,66968,4
35781,66959,5
35782,66975,5
35784,66974,5
35784,66973,5
35786,66980,4
35783,66988,7
35793,66998,3
35789,67008,5
35795,67018,5
35790,67017,4
35803,67031,5
35811,67024,5
35813,67033,5
35773,67031,5
35813,67031,4
35807,67029,5
35816,67046,5
35768,67042,5
35817,67041,4
35803,67030,5
35809,67033,5
35808,67034,5
35806,67041,5
35821,67040,4
35809,67045,5
35845,67043,5
35813,67038,5
35813,67033,5
35814,67026,4
35844,67025,5
35805,67017,6
35801,67007,4
35798,67019,5
35817,67012,4
35790,66999,5
35797,67001,5
35787,66999,5
35796,66994,5
35792,66991,4
35789,66997,5
35785,66994,5
35786,66977,5
35780,67001,4
35784,66999,4
35785,66998,5
35792,66961,5
35793,67007,5
35793,67017,5
35797,67018,4
35808,66992,5
35804,67036,5
35810,67047,6
35819,67058,3
35823,67082,5
35822,67077,5
35835,67083,5
35843,67087,5
35845,67145,4
35833,67105,5
35837,67106,5
35848,67110,5
35850,67155,5
35849,67127,4
35855,67122,5
35856,67118,5
35855,67134,5
35853,67124,5
35844,67109,4
35853,67110,5
35842,67110,5
35841,67097,5
35830,67085,4
35834,67086,5
35825,67077,5
35827,67069,5
35829,67073,5
35825,67071,5
35825,67074,4
35826,67065,5
35821,67066,5
35813,67064,5
35813,67063,4
35818,67062,5
35822,67079,5
35824,67084,5
35823,67091,5
35838,67094,4
35838,67094,5
35838,67103,5
35836,67091,5
35833,67097,5
35830,67082,4
35819,67070,5
35818,67058,5
35804,67050,5
35800,67026,4
35789,67014,4
35799,67014,5
35787,67009,5
35798,67013,5
35790,67012,4
35787,67014,6
35789,67014,3
35798,67016,5
35792,67028,5
35797,67027,4
35803,67028,7
35803,67025,3
35797,67038,5
35807,67039,5
35803,67045,4
35806,67045,5
35808,67053,5
35805,67047,5
35811,67053,5
35811,67046,4
35808,67047,5
35814,67043,5
35812,67041,5
35806,67052,4
35814,67057,4
35812,67047,5
35815,67056,6
35813,67055,4
35815,67062,4
35809,67061,5
35818,67061,5
35814,67048,5
35809,67058,5
35808,67046,4
35810,67040,5
35813,67048,5
35809,67041,5
35804,67032,5
35805,67044,4
35801,67047,5
35802,67032,5
35798,67029,5
35796,67021,5
35802,67027,4
35797,67030,5
35790,67032,5
35795,67023,5
35798,67045,5
35801,67047,4
35799,67043,5
35803,67044,5
35815,67061,6
35819,67077,3
35812,67075,4
35807,67083,5
35823,67094,5
35832,67098,5
35837,67105,4
35808,67109,5
35839,67113,5
35834,67118,5
35848,67120,5
35811,67128,4
35845,67117,5
35850,67118,5
35843,67120,5
35849,67134,5
35842,67117,4
35843,67117,5
35840,67115,5
35864,67110,5
35834,67098,5
35827,67103,5
35823,67096,4
35866,67094,5
35829,67086,5
35821,67081,6
35817,67071,3
35829,67071,5
35812,67072,5
35824,67069,5
35818,67070,4
35818,67069,5
35816,67078,5
35818,67079,5
35829,67095,5
35825,67071,4
35834,67110,5
35837,67117,5
35832,67124,5
35836,67085,5
35836,67122,4
35842,67124,5
35837,67100,5
35832,67068,5
35825,67075,5
35821,67069,5
35802,67038,5
35799,67055,4
35793,67037,5
35790,67038,5
35789,67027,4
35788,67074,5
35796,67027,5
35793,67029,5
35795,67032,4
35787,67075,4
35792,67018,5
35795,67031,5
35791,67034,5
35791,67047,4
35794,67030,5
35793,67036,5
35796,67039,5
35792,67034,5
35802,67035,4
35792,67038,5
35789,67034,5
35799,67037,5
35791,67041,5
35793,67047,4
35795,67031,5
35790,67036,6
35802,67051,4
35805,67049,5
35800,67050,4
35808,67054,5
35814,67055,5
35806,67067,5
35805,67056,5
35795,67063,4
35812,67064,5
35806,67060,5
35808,67066,5
35807,67070,4
35815,67065,5
35814,67075,5
35823,67069,5
35817,67075,5
35816,67075,4
35818,67076,5
35817,67080,5
35823,67081,5
35817,67081,5
35834,67089,4
35831,67091,5
35839,67097,5
35839,67103,6
35839,67114,4
35841,67117,4
35844,67123,5
35846,67124,5
35856,67132,5
35863,67146,5
35863,67157,4
35868,67154,5
35870,67154,5
35867,67163,5
35871,67154,4
35875,67170,4
35878,67169,5
35877,67170,5
35878,67179,5
35881,67169,4
35885,67172,5
35877,67174,5
35877,67164,5
35882,67156,5
35877,67162,5
35878,67148,4
35870,67151,5
35865,67156,5
35869,67141,6
35866,67139,3
35864,67126,5
35856,67120,5
35849,67120,5
35854,67109,5
35847,67095,4
35842,67102,5
35842,67098,5
35844,67091,5
35844,67097,4
35834,67096,4
35844,67096,5
35848,67101,5
35838,67102,5
35846,67106,4
35837,67093,5
35839,67089,5
35834,67068,5
35832,67055,5
35824,67048,4
35809,67028,6
35807,67002,4
35776,67007,5
35804,67003,5
35801,66999,4
35796,66998,5
35763,67000,5
35801,66999,5
35810,67007,5
35801,67003,4
35767,67004,5
35795,67009,5
35803,67002,5
35801,67004,5
35803,67010,4
35806,67011,5
35810,67010,5
35799,67015,5
35836,67012,4
35803,67024,4
35804,67016,5
35807,67023,5
35859,67018,5
35803,67012,4
35810,67023,5
35820,67021,6
35825,67021,4
35817,67022,5
35814,67028,4
35810,67031,5
35820,67036,5
35818,67043,5
35814,67040,5
35820,67041,4
35818,66994,5
35809,67024,5
35809,67026,5
35813,67038,5
35815,66987,4
35814,67038,5
35825,67034,5
35806,67037,5
35809,67013,5
35806,67027,4
35806,67026,5
35808,67017,5
35808,67051,5
35802,67015,4
35806,67017,5
35800,67009,5
35799,67048,6
35797,67004,4
35800,67009,4
35802,67004,5
35794,67036,5
35797,67007,5
35795,67005,5
35800,67009,4
35803,67013,5
35810,67017,5
35805,67007,5
35815,67016,5
35817,67022,4
35814,67025,5
35809,67033,5
35818,67032,5
35815,67033,5
35813,67027,4
35812,67034,5
35809,67025,5
35811,67043,5
35828,67046,5
35826,67038,4
35823,67040,5
35825,67041,5
35821,67044,5
35828,67049,4
35826,67056,5
35833,67052,5
35826,67056,5
35826,67060,5
35820,67055,4
35834,67050,5
35824,67062,5
35831,67057,5
35829,67056,5
35826,67058,4
35835,67058,5
35835,67060,5
35824,67060,5
35828,67060,5
35831,67058,4
35827,67068,5
35827,67065,5
35830,67061,5
35831,67060,5
35827,67060,5
35828,67055,4
35833,67056,5
35828,67061,5
35821,67053,4
35828,67055,5
35823,67045,5
35822,67044,5
35820,67029,5
35818,67036,4
35812,67029,5
35803,67027,5
35811,67028,5
35803,67010,5
35807,67009,4
35808,67020,5
35804,67006,5
35796,67008,5
35793,67003,5
35794,67000,4
35797,67003,5
35794,66990,5
35802,67000,5
35791,66996,5
35794,66996,4
35808,67005,6
35791,66997,4
35793,67004,5
35792,67008,4
35800,67007,4
35798,67007,5
35802,67012,5
35810,67013,5
35810,67012,4
35797,67004,5
35802,67006,5
35808,67013,5
35800,67005,5
35798,67005,4
35800,67004,5
35795,67008,5
35798,66994,5
35795,67004,5
35792,66996,4
35798,66992,5
35795,67000,5
35787,66989,5
35762,66986,5
35795,66989,4
35787,66994,5
35780,66989,5
35752,66978,5
35789,66990,4
35780,66986,4
35787,66977,5
35745,66978,5
35796,66976,5
35780,66973,4
35769,66959,5
35789,66942,5
35758,66926,5
35750,66915,5
35739,66886,4
35774,66857,5
35719,66846,5
35712,66838,5
35698,66824,5
35744,66824,5
35703,66817,4
35691,66818,5
35697,66813,5
35708,66834,6
35712,66836,3
35704,66836,5
35709,66841,5
35712,66836,5
35714,66853,5
35725,66869,4
35731,66890,5
35740,66870,5
35746,66909,5
35745,66906,5
35747,66913,4
35741,66863,5
35732,66875,5
35728,66873,5
35726,66873,4
35714,66839,5
35708,66843,5
35712,66844,5
35711,66848,5
35710,66881,4
35719,66862,6
35721,66861,4
35736,66877,5
35724,66921,5
35726,66883,6
35738,66894,3
35738,66904,5
35745,66940,5
35757,66914,5
35750,66923,4
35753,66939,5
35756,66949,5
35759,66943,5
35768,66957,4
35779,66955,4
35777,66962,5
35777,66960,5
35768,66967,5
35776,66971,4
35782,66968,5
35778,66979,5
35773,66968,5
35771,66977,5
35773,66974,4
35783,66975,5
35776,66973,6
35773,66978,4
35782,66977,5
35778,66975,4
35785,66982,5
35777,66985,5
35781,66982,5
35772,66969,5
35777,66961,4
35777,66955,5
35770,66948,5
35762,66946,5
35757,66942,5
35763,66941,4
35764,66922,5
35750,66926,5
35751,66924,5
35751,66911,4
35749,66902,5
35735,66901,5
35741,66896,5
35741,66892,10
35739,66895,4
35736,66895,5
35735,66894,6
35737,66884,4
35735,66895,4
35736,66895,5
35742,66897,5
35736,66904,5
35739,66913,5
35755,66919,4
35745,66928,5
35746,66933,5
35758,66926,5
35759,66940,5
35762,66953,4
35766,66950,5
35764,66952,5
35787,66961,5
35772,66969,4
35779,66969,4
35780,66979,5
35788,66980,5
35786,66994,5
35793,66999,5
35794,66993,4
35790,66992,5
35791,66995,5
35788,66998,6
35787,66995,3
35785,66991,5
35785,66990,5
35791,66987,5
35781,66990,5
35788,66985,4
35786,66994,5
35782,66982,5
35786,66981,5
35783,66976,5
35793,66978,4
35784,66968,5
35779,66964,5
35775,66947,5
35758,66944,5
35757,66924,4
35755,66914,5
35740,66902,5
35738,66876,5
35726,66868,4
35714,66852,6
35686,66844,4
35696,66834,5
35702,66824,5
35695,66814,4
35659,66824,5
35705,66831,5
35702,66832,5
35699,66831,5
35669,66833,4
35702,66830,5
35705,66847,5
35716,66868,5
35743,66857,5
35723,66863,4
35733,66876,5
35728,66883,5
35778,66890,5
35737,66899,5
35738,66892,4
35742,66904,5
35767,66881,5
35724,66871,5
35715,66862,4
35706,66846,4
35721,66836,6
35707,66823,4
35701,66830,5
35692,66829,4
35707,66824,5
35708,66834,5
35704,66837,5
35705,66839,5
35708,66813,4
35713,66848,5
35710,66853,5
35718,66860,5
35711,66832,5
35720,66874,5
35726,66873,4
35723,66877,5
35731,66877,5
35727,66885,5
35729,66894,4
35739,66887,5
35736,66929,5
35733,66891,5
35734,66893,4
35742,66895,4
35745,66946,5
35737,66892,10
35737,66892,4
35751,66904,5
35745,66910,5
35747,66911,5
35737,66907,5
35742,66895,4
35728,66889,5
35736,66891,5
35728,66883,5
35733,66885,5
35733,66874,4
35727,66870,5
35733,66870,5
35718,66860,5
35724,66864,5
35722,66856,4
35712,66849,5
35711,66847,5
35719,66853,5
35713,66842,5
35716,66848,4
35709,66849,5
35717,66843,5
35711,66847,6
35709,66849,3
35720,66857,5
35722,66870,5
35730,66877,5
35728,66885,5
35736,66891,4
35738,66900,5
35735,66898,5
35747,66901,5
35740,66906,5
35751,66919,4
35751,66927,5
35754,66925,5
35762,66935,5
35766,66938,5
35766,66949,4
35771,66948,5
35773,66961,5
35774,66954,5
35764,66953,5
35769,66953,5
35779,66956,4
35770,66954,5
35777,66967,5
35768,66959,4
35779,66963,4
35772,66960,5
35781,66950,5
35771,66932,5
35765,66931,4
35759,66925,5
35752,66904,5
35738,66895,5
35732,66880,5
35729,66872,4
35715,66847,5
35709,66848,5
35699,66829,5
35700,66818,5
35700,66822,4
35698,66813,5
35690,66813,5
35694,66822,5
35700,66819,5
35696,66823,4
35711,66830,6
35706,66844,4
35712,66847,5
35700,66846,4
35707,66856,4
35716,66871,5
35729,66876,5
35734,66877,5
35726,66881,4
35739,66882,5
35738,66887,5
35729,66881,5
35736,66891,5
35725,66872,4
35721,66862,5
35709,66860,5
35716,66844,5
35703,66822,5
35705,66827,4
35663,66816,5
35698,66810,5
35698,66817,5
35701,66832,5
35670,66843,4
35699,66842,5
35714,66843,6
35714,66857,4
35719,66859,5
35720,66873,4
35735,66884,5
35736,66881,5
35768,66900,5
35748,66902,4
35752,66910,5
35749,66923,5
35793,66924,5
35759,66934,5
35754,66939,4
35762,66932,5
35786,66947,5
35755,66941,5
35764,66946,5
35765,66945,5
35765,66938,4
35767,66949,5
35764,66948,5
35760,66949,6
35759,66926,3
35773,66956,5
35771,66953,5
35771,66953,5
35767,66914,5
35769,66949,4
35765,66944,5
35761,66946,5
35763,66896,5
35767,66930,4
35756,66929,4
35751,66925,5
35750,66926,5
35751,66914,5
35736,66919,4
35745,66908,5
35733,66936,5
35736,66897,5
35734,66884,5
35723,66885,4
35719,66920,5
35734,66882,5
35735,66881,5
35736,66885,5
35738,66906,5
35741,66888,4
35738,66894,5
35736,66900,5
35739,66913,5
35752,66922,4
35750,66930,5
35756,66938,5
35757,66937,5
35766,66948,4
35772,66949,4
35768,66963,5
35782,66967,5
35775,66979,5
35787,66985,4
35788,66988,5
35790,67002,5
35793,67001,5
35800,67005,5
35796,66999,4
35790,67008,5
35791,67005,5
35795,67009,4
35797,67006,5
35802,67002,4
35791,67003,6
35795,67004,4
35792,66995,5
35787,66983,5
35781,66976,4
35782,66976,5
35785,66964,5
35774,66959,5
35767,66950,5
35756,66929,4
35743,66913,5
35740,66904,5
35729,66881,5
35733,66858,4
35721,66848,4
35706,66832,5
35699,66825,5
35695,66811,5
35695,66812,4
35685,66810,5
35698,66811,5
35700,66812,6
35689,66811,4
35696,66829,4
35707,66833,5
35701,66843,5
35702,66851,5
35712,66853,5
35717,66853,4
35721,66874,5
35718,66868,5
35726,66872,5
35736,66879,5
35727,66890,4
35728,66885,5
35739,66888,5
35732,66875,5
35725,66859,4
35718,66843,4
35706,66835,5
35698,66824,5
35697,66812,5
35683,66798,5
35688,66787,4
35688,66795,5
35690,66791,5
35680,66789,6
35687,66797,3
35689,66805,5
35697,66802,5
35694,66820,5
35701,66824,5
35699,66837,4
35710,66845,5
35715,66853,5
35716,66856,5
35717,66875,5
35717,66874,4
35737,66887,5
35734,66880,5
35717,66896,5
35743,66893,5
35728,66898,4
35729,66901,5
35713,66904,5
35742,66897,5
35736,66895,4
35740,66896,6
35704,66905,4
35740,66901,5
35739,66906,5
35745,66909,6
35751,66911,3
35757,66918,5
35753,66923,5
35750,66915,5
35781,66912,4
35743,66900,5
35740,66900,5
35726,66890,5
35780,66888,5
35737,66892,4
35731,66879,5
35726,66877,5
35747,66877,5
35720,66869,5
35721,66862,4
35720,66856,5
35724,66848,5
35712,66845,5
35711,66849,4
35712,66840,4
35715,66820,6
35705,66851,4
35716,66862,5
35714,66853,4
35717,66824,5
35732,66871,5
35727,66870,5
35731,66885,5
35724,66849,4
35729,66897,5
35748,66902,5
35753,66912,5
35744,66938,5
35744,66926,4
35756,66926,5
35763,66936,5
35757,66982,5
35767,66947,5
35769,66954,4
35770,66956,5
35773,66993,5
35772,66962,5
35769,66963,4
35778,66950,4
35770,66958,5
35760,66944,6
35762,66928,4
35747,66918,4
35742,66916,5
35744,66914,5
35733,66890,5
35732,66887,5
35727,66888,4
35732,66889,5
35733,66894,5
35746,66902,5
35740,66903,5
35741,66901,4
35737,66895,5
35730,66897,5
35742,66898,5
35746,66905,5
35743,66904,4
35757,66908,5
35748,66911,5
35742,66918,5
35748,66910,5
35740,66914,4
35740,66903,5
35743,66891,5
35732,66885,6
35732,66868,3
35721,66865,4
35715,66842,5
35699,66840,5
35701,66835,5
35704,66835,4
35714,66849,5
35717,66847,5
35713,66856,7
35724,66866,3
35742,66878,4
35735,66892,5
35740,66904,5
35745,66925,5
35758,66928,5
35761,66942,4
35770,66949,5
35770,66962,5
35786,66967,5
35779,66983,5
35787,66986,5
35778,67004,4
35794,66993,5
35789,66993,5
35792,66995,4
35799,67001,4
35793,66992,5
35792,67001,5
35796,67001,5
35792,66994,4
35798,66991,5
35793,66998,5
35805,67006,5
35796,67005,5
35783,67002,4
35792,66993,5
35787,66990,5
35789,66983,5
35774,66968,5
35779,66978,4
35780,66965,5
35772,66966,5
35778,66965,5
35778,66962,5
35772,66962,4
35773,66955,6
35760,66946,4
35758,66948,5
35768,66947,4
35767,66938,4
35762,66938,5
35765,66940,5
35760,66937,5
35760,66945,4
35767,66945,5
35770,66953,5
35774,66969,5
35777,66961,5
35763,66975,4
35792,66988,5
35792,66989,5
35794,67010,5
35764,67019,5
35809,67028,4
35814,67041,5
35814,67051,5
35781,67063,5
35823,67071,5
35834,67079,4
35838,67085,5
35854,67094,6
35842,67090,4
35838,67097,5
35844,67100,4
35880,67096,5
35846,67098,5
35843,67088,5
35827,67071,4
35859,67069,5
35822,67065,5
35816,67056,5
35809,67051,5
35825,67044,4
35805,67043,5
35809,67025,5
35801,67023,5
35794,67018,5
35800,67030,4
35803,67023,5
35790,67019,5
35796,66989,5
35801,67024,5
35801,67026,4
35806,67035,5
35796,66996,5
35807,67038,5
35805,67044,5
35812,67041,5
35806,67029,4
35803,67031,5
35797,67020,5
35783,66992,4
35783,67007,4
35777,66975,5
35758,66953,5
35765,66947,5
35757,67000,4
35752,66952,5
35769,66959,5
35760,66964,5
35765,67001,5
35772,66985,4
35777,66982,5
35778,66997,5
35785,67010,5
35797,67008,5
35785,67021,5
35798,67026,4
35798,67037,5
35800,67041,5
35799,67040,5
35802,67030,4
35801,67040,5
35803,67041,5
35803,67030,5
35805,67026,4
35799,67026,4
35796,67024,5
35793,67017,5
35785,67016,5
35790,67015,4
35785,67009,5
35792,67011,5
35787,67013,5
35788,67020,5
35783,67023,4
35790,67017,5
35786,67003,5
35782,67010,5
35783,67018,5
35783,67006,4
35779,67007,6
35787,67016,4
35786,67007,5
35780,67006,5
35781,67010,4
35789,66996,5
35781,67011,5
35776,67002,5
35783,67008,5
35780,66999,4
35787,67000,5
35787,67010,5
35784,67016,5
35785,67019,4
35794,67029,5
35787,67037,5
35802,67032,5
35797,67038,5
35810,67041,4
35797,67053,5
35812,67056,5
35802,67072,5
35809,67070,5
35819,67074,4
35817,67079,5
35816,67081,6
35823,67088,4
35828,67097,5
35818,67096,4
35823,67102,5
35828,67099,5
35825,67104,5
35829,67102,5
35827,67094,4
35824,67106,5
35827,67098,5
35830,67089,5
35825,67098,4
35826,67101,4
35816,67085,5
35823,67072,5
35811,67066,5
35812,67049,4
35809,67052,5
35807,67038,5
35798,67033,5
35792,67028,5
35795,67013,4
35785,67014,5
35794,67010,5
35777,67009,5
35790,67012,5
35788,66998,4
35794,67010,5
35771,67005,5
35782,67016,5
35786,67013,5
35796,67018,4
35777,67026,5
35810,67039,5
35802,67044,5
35809,67048,4
35780,67055,4
35807,67056,5
35811,67040,5
35806,67027,5
35773,67018,4
35788,67007,6
35783,66999,4
35783,66971,5
35796,66967,5
35769,66959,6
35766,66954,3
35758,66965,5
35804,66967,5
35768,66962,5
35768,66959,4
35774,66971,5
35791,66970,5
35773,66973,5
35764,66979,5
35773,66975,4
35782,66970,5
35778,66980,5
35781,66981,5
35782,66980,5
35785,66971,4
35776,66989,5
35790,66987,5
35778,66998,5
35794,66956,4
35787,66990,5
35785,66992,6
35785,66994,4
35785,66945,5
35786,66993,4
35783,66982,7
35780,66983,3
35778,66980,5
35785,66982,5
35794,66996,4
35784,66989,5
35785,67017,5
35786,66980,5
35783,66980,5
35778,66982,4
35776,67019,5
35774,66970,5
35774,66966,5
35776,66956,5
35771,66986,4
35765,66952,5
35763,66948,5
35766,66939,5
35757,66938,4
35753,66940,4
35752,66917,5
35756,66927,6
35752,66918,4
35747,66922,4
35740,66916,5
35751,66912,5
35743,66907,5
35743,66911,5
35750,66918,4
35743,66921,5
35744,66922,5
35767,66927,5
35747,66928,5
35759,66934,4
35757,66939,5
35758,66933,5
35763,66941,5
35769,66960,5
35764,66962,4
35777,66968,5
35778,66979,5
35783,66975,5
35776,66981,5
35789,66990,4
35791,67004,5
35796,67001,5
35791,66998,6
35787,67002,3
35797,67005,5
35799,67008,5
35804,67011,5
35804,67017,5
35803,67020,4
35800,67013,5
35808,67007,5
35802,67002,5
35802,67012,5
35793,67008,4
35804,67014,5
35797,67003,5
35796,67005,5
35783,67006,5
35795,66994,4
35796,66998,5
35789,66980,5
35782,66974,5
35774,66965,5
35771,66956,5
35765,66940,4
35751,66926,5
35746,66907,5
35737,66899,6
35727,66886,3
35730,66862,5
35724,66860,5
35722,66845,5
35722,66848,4
35710,66844,5
35711,66846,5
35714,66855,5
35724,66855,5
35719,66853,4
35711,66867,5
35733,66875,5
35724,66890,5
35732,66896,5
35734,66906,4
35733,66903,5
35746,66910,5
35748,66897,5
35740,66909,5
35754,66924,4
35752,66930,6
35750,66925,4
35743,66920,5
35741,66900,4
35734,66891,4
35733,66870,5
35723,66866,5
35703,66849,5
35703,66833,4
35698,66824,5
35695,66828,5
35669,66821,5
35692,66826,5
35697,66834,4
35697,66834,5
35663,66839,5
35709,66839,5
35704,66843,5
35712,66848,4
35720,66861,5
35722,66860,5
35718,66870,5
35714,66872,5
35762,66877,4
35726,66870,5
35732,66891,6
35729,66885,4
35774,66885,4
35742,66884,4
35739,66893,5
35735,66884,5
35762,66888,5
35742,66893,4
35737,66898,5
35738,66890,5
35745,66899,5
35727,66899,5
35734,66895,4
35745,66897,5
35739,66874,5
35747,66915,5
35742,66912,5
35745,66910,4
35746,66870,5
35750,66896,5
35742,66892,5
35737,66904,5
35735,66870,4
35747,66892,5
35743,66892,5
35749,66895,6
35723,66908,4
35733,66888,4
35735,66877,5
35723,66879,5
35727,66916,5
35730,66876,4
35728,66873,5
35724,66873,5
35727,66911,5
35722,66866,5
35727,66865,4
35720,66868,5
35721,66886,5
35729,66884,5
35728,66879,5
35732,66882,4
35735,66897,5
35740,66900,5
35735,66897,5
35742,66912,5
35745,66909,5
35748,66921,4
35749,66933,5
35755,66936,5
35762,66935,5
35761,66948,4
35767,66945,5
35766,66945,5
35768,66954,5
35769,66955,4
35775,66962,4
35778,66965,5
35779,66976,5
35774,66967,5
35780,66968,4
35774,66964,5
35776,66970,5
35774,66961,5
35768,66953,5
35776,66958,4
35766,66956,5
35773,66954,5
35766,66944,5
35761,66941,5
35752,66924,4
35746,66925,11
35750,66907,4
35739,66895,5
35732,66879,4
35729,66870,5
35713,66859,5
35707,66842,5
35699,66828,4
35697,66823,4
35695,66825,5
35699,66822,5
35693,66824,5
35699,66830,4
35702,66826,5
35711,66840,5
35703,66841,5
35703,66833,5
35708,66856,4
35720,66853,5
35709,66871,5
35713,66861,5
35715,66865,5
35712,66872,4
35724,66871,5
35717,66868,6
35728,66877,4
35718,66871,5
35723,66863,4
35714,66850,5
35698,66826,5
35689,66821,5
35692,66807,4
35685,66788,4
35676,66784,5
35674,66778,5
35677,66779,5
35669,66775,4
35677,66787,5
35676,66789,5
35677,66787,5
35685,66793,5
35677,66801,4
35691,66801,5
35693,66813,5
35698,66824,5
35695,66832,5
35700,66831,4
35712,66844,5
35706,66849,5
35711,66858,5
35721,66853,5
35720,66854,4
35696,66867,5
35717,66866,5
35722,66866,5
35725,66863,5
35687,66870,4
35725,66867,5
35720,66875,5
35726,66872,5
35685,66866,4
35725,66870,4
35721,66879,5
35725,66883,5
35742,66885,5
35727,66882,4
35723,66868,6
35720,66872,4
35759,66858,5
35719,66852,5
35717,66855,5
35708,66855,4
35750,66845,5
35712,66842,5
35696,66828,5
35694,66825,4
35711,66821,5
35690,66819,5
35691,66823,5
35691,66807,5
35694,66801,4
35692,66813,5
35688,66814,5
35693,66819,5
35687,66783,4
35690,66821,4
35690,66828,5
35702,66827,5
35705,66804,5
35709,66843,4
35707,66855,5
35720,66866,5
35719,66863,5
35721,66883,5
35731,66891,4
35741,66898,6
35735,66935,4
35747,66921,5
35750,66930,5
35752,66936,4
35761,66991,5
35765,66952,5
35768,66952,5
35763,66960,5
35774,66987,4
35769,66962,5
35770,66957,5
35763,66952,5
35760,66960,4
35764,66959,4
35766,66946,5
35756,66943,5
35761,66939,5
35746,66926,4
35758,66926,5
35747,66921,5
35747,66912,5
35747,66900,4
35735,66887,4
35734,66876,5
35729,66868,5
35717,66851,5
35702,66841,5
35698,66832,4
35696,66829,5
35691,66809,5
35691,66808,5
35681,66800,5
35692,66792,4
35685,66803,5
35686,66807,5
35688,66800,5
35686,66817,5
35693,66816,4
35689,66823,5
35695,66827,5
35702,66835,5
35699,66829,5
35703,66834,4
35702,66837,5
35705,66829,5
35702,66838,6
35697,66830,3
35700,66832,5
35697,66828,5
35691,66825,5
35693,66808,5
35683,66790,4
35661,66776,5
35664,66765,5
35659,66740,5
35646,66732,5
35648,66727,4
35641,66725,5
35646,66738,5
35654,66740,5
35660,66754,5
35663,66760,4
35657,66772,5
35664,66773,5
35666,66767,5
35668,66777,4
35681,66786,5
35679,66809,4
35683,66805,5
35692,66826,5
35692,66836,5
35706,66843,4
35705,66844,5
35699,66842,5
35711,66844,5
35708,66846,4
35705,66848,5
35716,66849,5
35705,66852,5
35716,66853,5
35709,66858,4
35709,66851,5
35713,66855,5
35721,66865,5
35723,66864,5
35714,66872,4
35717,66873,5
35715,66868,5
35714,66853,5
35706,66844,5
35703,66839,4
35708,66829,6
35697,66825,4
35689,66823,5
35689,66809,4
35695,66805,7
35681,66797,3
35658,66798,5
35681,66794,5
35671,66793,4
35675,66773,5
35633,66775,5
35675,66775,5
35666,66775,5
35673,66788,4
35653,66787,5
35682,66793,5
35688,66809,5
35683,66813,5
35714,66814,4
35691,66832,5
35699,66845,5
35710,66853,5
35748,66855,5
35712,66872,4
35713,66878,5
35727,66879,6
35758,66899,4
35728,66898,4
35750,66912,4
35747,66921,5
35766,66935,5
35757,66944,5
35754,66939,4
35758,66952,5
35770,66950,5
35764,66964,5
35779,66964,5
35771,66968,4
35763,66931,5
35770,66958,5
35765,66962,5
35768,66944,5
35764,66904,4
35753,66930,5
35742,66923,5
35743,66905,5
35740,66890,5
35728,66890,4
35724,66884,5
35727,66884,5
35725,66908,6
35714,66870,3
35728,66869,4
35721,66870,5
35718,66912,5
35721,66879,5
35717,66871,4
35726,66873,5
35723,66907,5
35719,66883,5
35729,66873,5
35725,66876,4
35722,66885,5
35728,66889,5
35720,66885,5
35720,66872,5
35713,66865,4
35706,66850,5
35698,66829,5
35696,66829,5
35695,66816,5
35687,66811,5
35684,66806,4
35694,66811,5
35687,66825,5
35694,66822,6
35699,66829,3
35703,66839,5
35706,66843,5
35709,66851,5
35715,66871,4
35725,66883,5
35721,66890,5
35733,66899,5
35730,66904,5
35741,66907,4
35741,66922,5
35757,66919,5
35753,66930,5
35742,66931,5
35754,66950,4
35748,66937,5
35758,66947,5
35757,66948,5
35754,66943,5
35756,66954,4
35754,66952,6
35756,66952,4
35759,66959,5
35771,66968,5
35763,66961,4
35759,66964,5
35761,66957,5
35751,66949,5
35761,66948,4
35756,66935,4
35743,66928,5
35747,66922,5
35749,66919,5
35746,66910,4
35734,66905,5
35732,66901,5
35736,66894,5
35728,66886,5
35724,66872,4
35714,66876,5
35725,66882,5
35716,66876,5
35726,66882,5
35728,66883,4
35728,66892,5
35734,66894,6
35735,66897,4
35738,66915,5
35744,66920,4
35751,66937,5
35750,66950,5
35761,66957,5
35770,66969,5
35773,66985,4
35780,66990,5
35774,66994,5
35784,67011,5
35785,67019,4
35797,67037,5
35808,67041,5
35808,67048,5
35804,67054,5
35809,67060,4
35806,67053,5
35817,67058,5
35813,67058,5
35808,67063,5
35795,67056,4
35806,67048,5
35804,67038,5
35796,67037,6
35765,67025,4
35794,67013,4
35788,67002,5
35784,66993,5
35736,66995,5
35771,66986,5
35772,66980,4
35771,66967,5
35748,66969,5
35766,66961,5
35758,66948,4
35762,66952,4
35777,66961,5
35744,66951,5
35749,66954,5
35753,66969,4
35802,66964,5
35750,66959,5
35758,66971,5
35760,66966,5
35773,66955,5
35750,66939,4
35741,66930,5
35736,66921,5
35744,66917,5
35728,66891,4
35719,66898,5
35728,66901,5
35727,66881,5
35726,66904,5
35738,66915,4
35737,66930,5
35739,66897,5
35749,66948,5
35754,66955,5
35755,66961,4
35758,66941,5
35770,66977,5
35762,66985,5
35781,66995,4
35773,66993,5
35771,67000,5
35776,67011,5
35779,67005,5
35777,67045,4
35776,66991,6
35780,67004,4
35776,66988,5
35778,67045,5
35774,66995,4
35768,66992,5
35779,66994,5
35767,67009,5
35774,66995,5
35782,66991,4
35774,66996,5
35770,66996,5
35776,66999,5
35768,66995,5
35766,66994,4
35767,66988,5
35772,66988,5
35771,66979,5
35755,66975,4
35767,66986,4
35760,66973,5
35766,66976,5
35766,66970,5
35758,66968,4
35751,66963,5
35752,66951,7
35753,66954,3
35753,66954,5
35755,66958,4
35745,66959,5
35756,66968,5
35755,66967,5
35759,66969,5
35773,66990,4
35764,66989,5
35774,66992,5
35781,67009,5
35784,67018,5
35786,67032,7
35795,67033,2
35798,67046,5
35781,67053,5
35800,67057,4
35805,67059,4
35814,67067,5
35799,67062,5
35806,67075,5
35805,67071,4
35819,67065,5
35805,67068,5
35805,67072,5
35801,67049,5
35796,67041,4
35795,67036,5
35788,67024,5
35775,67015,5
35777,67012,5
35774,67003,4
35771,66992,5
35763,66991,5
35763,66975,5
35758,66976,5
35751,66961,4
35756,66961,5
35753,66955,5
35749,66954,5
35743,66958,5
35751,66955,4
35735,66954,5
35754,66966,5
35738,66968,5
35753,66966,5
35744,66964,4
35748,66955,5
35745,66947,5
35728,66935,5
35730,66919,4
35721,66910,5
35718,66892,5
35715,66891,5
35708,66883,5
35715,66888,4
35712,66896,5
35717,66894,5
35726,66900,5
35714,66909,5
35721,66907,4
35727,66913,5
35729,66927,5
35741,66927,5
35738,66926,5
35742,66933,4
35729,66934,5
35744,66943,4
35752,66946,5
35748,66953,4
35729,66956,5
35751,66952,3
35753,66955,5
35760,66950,5
35725,66963,4
35771,66960,5
35768,66955,5
35762,66961,5
35758,66963,5
35760,66962,4
35765,66965,5
35763,66951,5
35795,66971,5
35763,66966,5
35759,66971,4
35765,66961,5
35808,66956,5
35764,66949,5
35761,66952,5
35757,66946,4
35781,66953,5
35747,66948,6
35758,66940,4
35748,66935,4
35747,66935,4
35748,66925,5
35747,66912,5
35740,66918,5
35731,66872,4
35734,66896,5
35730,66894,5
35730,66882,5
35728,66853,5
35731,66884,4
35719,66882,5
35719,66887,5
35720,66855,5
35718,66884,5
35724,66886,5
35727,66894,4
35740,66904,5
35732,66895,5
35729,66905,5
35740,66906,4
35733,66940,5
35742,66904,5
35741,66901,6
35734,66901,4
35742,66946,4
35744,66903,5
35736,66902,5
35740,66900,5
35724,66905,4
35722,66897,4
35728,66887,5
35726,66879,5
35715,66867,5
35715,66865,4
35707,66864,5
35713,66856,5
35709,66851,5
35709,66855,5
35706,66858,4
35713,66852,5
35715,66844,5
35712,66863,5
35712,66854,5
35712,66869,5
35713,66872,4
35716,66881,5
35730,66889,5
35729,66899,6
35736,66905,3
35740,66905,5
35737,66902,5
35729,66887,5
35717,66872,4
35720,66869,4
35718,66862,5
35708,66837,5
35701,66834,5
35702,66818,4
35694,66823,5
35703,66830,5
35701,66834,5
35705,66832,5
35707,66840,4
35701,66839,5
35704,66835,5
35714,66837,5
35706,66847,5
35705,66846,4
35715,66853,6
35716,66858,4
35715,66865,5
35722,66860,5
35717,66865,4
35715,66874,5
35732,66874,5
35716,66880,5
35725,66873,5
35718,66881,4
35729,66878,5
35734,66890,5
35730,66884,5
35726,66890,4
35732,66895,5
35740,66901,5
35736,66902,5
35741,66905,5
35749,66916,4
35742,66920,5
35749,66933,5
35751,66924,5
35753,66914,5
35744,66920,4
35750,66915,5
35743,66912,6
35746,66920,4
35753,66912,5
35747,66917,4
35741,66908,5
35743,66909,5
35733,66905,5
35749,66906,5
35736,66901,4
35736,66898,5
35726,66891,5
35730,66880,5
35735,66879,4
35737,66884,5
35721,66880,5
35723,66877,5
35728,66879,5
35714,66882,4
35731,66888,5
35736,66888,5
35713,66886,5
35728,66896,5
35731,66905,4
35745,66916,5
35704,66912,5
35748,66915,6
35748,66921,4
35754,66928,4
35712,66943,5
35757,66933,5
35762,66946,5
35762,66946,5
35776,66950,4
35766,66963,5
35762,66969,5
35778,66969,5
35814,66963,4
35773,66966,4
35777,66979,5
35784,66971,5
35814,66977,5
35768,66973,4
35776,66969,5
35769,66967,5
35783,66970,5
35768,66956,5
35761,66957,5
35760,66949,4
35759,66921,5
35748,66905,5
35740,66896,6
35727,66877,3
35718,66830,5
35711,66853,5
35700,66837,5
35695,66824,5
35688,66773,4
35693,66813,5
35687,66810,5
35681,66815,5
35690,66804,4
35691,66822,4
35688,66837,5
35702,66840,5
35706,66872,5
35710,66858,4
35708,66871,5
35719,66876,5
35726,66922,5
35730,66892,5
35726,66899,4
35742,66911,6
35742,66961,4
35754,66934,5
35758,66942,5
35754,66935,4
35743,66928,5
35734,66894,5
35733,66888,5
35729,66873,5
35713,66865,4
35706,66848,5
35689,66832,5
35696,66829,5
35707,66844,5
35702,66841,4
35702,66836,5
35703,66849,5
35706,66848,5
35708,66855,4
35708,66851,5
35706,66857,5
35711,66867,5
35717,66870,5
35718,66876,4
35725,66881,5
35730,66886,6
35732,66892,4
35735,66893,5
35742,66902,4
35729,66901,5
35739,66909,5
35742,66906,5
35741,66900,5
35732,66914,4
35740,66899,5
35731,66912,5
35741,66907,5
35735,66905,5
35733,66900,4
35733,66902,5
35737,66907,5
35732,66907,5
35741,66905,4
35741,66908,4
35738,66910,5
35733,66908,5
35742,66896,5
35734,66895,4
35727,66895,5
35726,66895,5
35729,66891,6
35733,66890,4
35732,66888,4
35737,66895,5
35729,66895,5
35732,66888,5
35737,66889,5
35720,66882,4
35723,66886,5
35720,66873,5
35721,66878,5
35722,66884,5
35722,66870,4
35725,66879,5
35725,66877,5
35737,66885,5
35730,66886,4
35728,66885,4
35727,66898,5
35736,66897,5
35737,66901,5
35738,66913,5
35749,66918,4
35746,66929,5
35750,66929,5
35757,66936,5
35760,66942,4
35752,66937,5
35770,66941,5
35759,66955,5
35773,66964,5
35773,66955,4
35764,66959,5
35768,66968,5
35778,66968,5
35773,66966,5
35771,66977,4
35768,66973,5
35771,66970,5
35771,66967,5
35738,66969,5
35769,66962,4
35765,66957,6
35763,66949,4
35723,66936,5
35749,66938,4
35745,66917,5
35741,66900,4
35704,66887,5
35722,66859,5
35714,66843,4
35700,66844,5
35723,66834,5
35694,66820,5
35699,66824,5
35697,66815,4
35733,66821,5
35697,66829,5
35691,66835,5
35705,66842,5
35739,66834,4
35707,66853,5
35718,66866,5
35722,66879,5
35738,66888,5
35731,66876,4
35727,66881,5
35727,66891,5
35741,66882,5
35737,66909,4
35738,66904,4
35740,66905,6
35741,66862,4
35726,66877,5
35721,66866,5
35713,66859,4
35708,66802,5
35700,66821,5
35683,66813,5
35684,66809,4
35682,66806,5
35684,66803,5
35690,66816,5
35694,66809,5
35694,66855,4
35698,66825,5
35700,66825,5
35704,66840,5
35701,66894,5
35708,66859,4
35710,66869,5
35724,66879,5
35730,66910,5
35731,66887,4
35739,66889,4
35737,66896,5
35731,66913,5
35735,66912,5
35731,66904,4
35739,66904,5
35731,66909,5
35739,66895,5
35733,66903,5
35734,66913,4
35739,66896,5
35727,66892,5
35739,66894,5
35738,66905,5
35740,66909,4
35732,66907,5
35737,66906,5
35740,66907,5
35735,66907,5
35737,66892,5
35733,66898,4
35732,66900,5
35732,66896,5
35731,66883,6
35729,66875,3
35724,66890,5
35722,66889,5
35729,66884,5
35727,66880,6
35720,66875,3
35723,66879,5
35733,66873,5
35716,66869,5
35718,66878,4
35725,66873,5
35729,66885,5
35723,66886,5
35728,66894,5
35740,66892,4
35727,66904,5
35741,66912,5
35739,66923,5
35748,66930,5
35755,66928,4
35759,66940,6
35761,66951,4
35764,66956,5
35775,66971,5
35772,66973,6
35772,66993,3
35784,66990,5
35783,66996,5
35792,67007,4
35795,67023,4
35796,67012,5
35799,67026,5
35806,67021,5
35796,67036,4
35793,67020,5
35800,67022,5
35798,67030,5
35809,67030,5
35805,67038,4
35797,67031,5
35799,67024,5
35792,67023,5
35797,67024,5
35795,67019,4
35788,67021,5
35788,67006,6
35797,67009,4
35791,67001,5
35781,66997,4
35775,66987,5
35785,66979,5
35766,66979,5
35768,66961,5
35755,66949,4
35749,66929,5
35740,66924,5
35734,66915,5
35733,66909,4
35737,66895,5
35726,66894,5
35728,66900,5
35733,66890,5
35727,66893,4
35700,66900,5
35730,66903,5
35730,66909,5
35744,66911,5
35687,66916,4
35735,66921,5
35740,66941,5
35745,66933,6
35729,66942,4
35758,66954,4
35763,66966,5
35766,66971,5
35783,66962,5
35756,66962,5
35762,66952,4
35743,66940,5
35779,66921,5
35736,66914,5
35727,66894,4
35719,66883,4
35752,66881,5
35724,66883,5
35723,66894,5
35725,66906,4
35727,66893,5
35729,66904,5
35735,66917,5
35735,66922,5
35743,66910,5
35737,66929,4
35742,66937,5
35752,66948,5
35743,66917,6
35750,66953,3
35760,66966,5
35761,66963,5
35759,66921,5
35762,66973,5
35764,66962,5
35754,66977,4
35763,66958,5
35751,66961,5
35754,66967,4
35748,66961,4
35751,66992,5
35760,66958,5
35754,66957,5
35755,66957,4
35757,67001,5
35749,66958,5
35750,66959,5
35753,66962,5
35748,66973,4
35741,66946,6
35746,66938,4
35751,66937,5
35743,66945,5
35747,66938,4
35732,66939,5
35736,66935,5
35743,66935,5
35734,66923,5
35737,66923,4
35729,66922,5
35728,66927,5
35736,66930,5
35739,66932,5
35733,66932,4
35738,66939,5
35746,66948,5
35757,66961,5
35757,66968,4
35764,66971,5
35763,66980,5
35765,66999,5
35774,67000,5
35778,67017,4
35783,67023,5
35785,67017,6
35800,67030,4
35785,67036,5
35795,67038,4
35791,67043,5
35801,67044,5
35793,67043,5
35800,67053,5
35802,67058,4
35802,67056,5
35797,67051,5
35791,67052,5
35804,67055,5
35790,67047,4
35792,67042,5
35794,67043,5
35796,67036,5
35794,67030,4
35781,67020,4
35776,67018,5
35768,67011,5
35770,66999,5
35764,66989,4
35761,66982,5
35754,66971,5
35756,66960,6
35757,66962,4
35753,66950,4
35752,66954,5
35750,66947,5
35745,66951,5
35741,66941,5
35745,66950,4
35744,66944,5
35750,66952,5
35747,66953,5
35741,66956,5
35747,66956,4
35752,66959,5
35759,66968,5
35753,66965,5
35755,66966,5
35750,66967,4
35759,66951,5
35745,66941,5
35741,66929,5
35740,66911,5
35723,66903,4
35716,66891,5
35715,66878,5
35713,66876,5
35716,66884,4
35722,66884,5
35720,66887,5
35726,66887,5
35727,66892,5
35725,66887,4
35728,66895,5
35722,66903,5
35725,66907,5
35728,66902,5
35729,66904,4
35727,66905,5
35703,66911,5
35736,66916,5
35738,66909,5
35737,66908,4
35699,66910,5
35733,66909,5
35740,66905,5
35729,66908,4
35728,66909,5
35741,66916,4
35738,66918,5
35746,66916,5
35772,66923,4
35751,66929,5
35749,66928,5
35749,66932,5
35793,66928,5
35747,66924,4
35746,66921,5
35749,66923,5
35767,66915,5
35745,66913,5
35739,66907,4
35727,66904,5
35744,66890,5
35730,66891,5
35730,66891,5
35726,66888,4
35724,66862,5
35716,66869,5
35716,66872,5
35710,66874,4
35712,66832,4
35713,66867,6
35717,66868,4
35712,66867,5
35717,66836,4
35719,66882,5
35727,66895,5
35724,66897,5
35739,66894,5
35738,66907,4
35740,66906,5
35746,66929,5
35750,66964,5
35751,66937,5
35758,66949,4
35764,66955,5
35760,67012,5
35768,66961,5
35778,66960,5
35770,66969,4
35780,66998,5
35771,66980,5
35775,66982,6
35784,66992,3
35782,66989,4
35776,66991,5
35777,66988,7
35776,66980,3
35774,66966,4
35778,66966,5
35771,66963,5
35763,66949,5
35764,66941,5
35746,66927,4
35754,66920,5
35748,66911,5
35743,66909,5
35739,66914,5
35744,66910,4
35739,66903,5
35735,66906,5
35731,66903,5
35737,66914,5
35744,66906,4
35734,66908,5
35742,66912,5
35735,66922,5
35744,66928,5
35748,66934,4
35750,66934,5
35752,66932,5
35746,66930,5
35746,66929,4
35749,66923,4
35735,66913,5
35735,66900,5
35735,66908,5
35729,66895,4
35733,66893,5
35729,66890,5
35723,66896,5
35730,66893,5
35743,66911,4
35750,66932,5
35756,66957,5
35771,66963,5
35777,66986,5
35776,66992,4
35783,66997,5
35785,67014,5
35799,67029,5
35804,67041,5
35802,67042,5
35811,67051,4
35814,67059,5
35815,67060,5
35811,67061,4
35810,67064,4
35809,67055,5
35811,67054,5
35810,67051,5
35802,67047,4
35803,67041,5
35802,67036,5
35793,67030,5
35800,67033,5
35802,67036,4
35805,67033,5
35802,67028,5
35797,67017,5
35795,67017,5
35790,67007,4
35791,67001,5
35786,67000,5
35783,66993,4
35786,66991,5
35776,66987,4
35775,66981,6
35773,66970,3
35768,66972,5
35763,66969,5
35763,66953,4
35765,66945,5
35752,66939,5
35759,66931,5
35747,66941,4
35750,66932,5
35741,66929,5
35748,66938,5
35725,66938,5
35752,66945,4
35757,66941,5
35762,66947,5
35722,66944,5
35759,66957,5
35773,66967,4
35769,66976,5
35757,66975,5
35771,66984,6
35779,66978,4
35777,66988,4
35807,67002,5
35795,67008,5
35788,67009,5
35791,67026,5
35835,67023,4
35801,67028,5
35803,67030,5
35804,67033,5
35828,67033,4
35798,67034,4
35804,67034,5
35797,67028,5
35813,67027,5
35803,67027,4
35793,67017,5
35794,66996,5
35780,66976,5
35782,66987,5
35777,66964,5
35763,66957,4
35748,66899,5
35748,66917,5
35737,66894,6
35726,66877,3
35720,66818,5
35710,66854,5
35719,66843,5
35702,66835,5
35693,66830,4
35704,66842,5
35698,66843,5
35701,66850,5
35711,66891,4
35709,66856,4
35711,66855,5
35719,66853,5
35709,66910,5
35721,66867,4
35725,66879,5
35718,66875,5
35721,66892,5
35718,66874,5
35728,66873,4
35722,66879,6
35722,66881,4
35709,66855,5
35697,66848,5
35698,66829,6
35693,66817,3
35688,66804,5
35675,66801,5
35671,66785,5
35677,66790,4
35680,66797,5
35682,66799,5
35678,66805,5
35685,66821,5
35690,66824,4
35690,66826,5
35694,66824,5
35689,66841,5
35705,66844,4
35703,66857,5
35711,66866,5
35716,66868,10
35720,66878,4
35717,66880,5
35726,66891,6
35720,66893,4
35739,66889,5
35723,66890,4
35729,66890,5
35733,66887,5
35732,66890,5
35723,66896,5
35733,66889,4
35737,66895,5
35731,66905,5
35735,66911,5
35740,66907,5
35737,66913,4
35741,66914,5
35741,66923,5
35735,66913,5
35728,66905,4
35733,66909,4
35733,66898,5
35736,66900,5
35722,66899,5
35729,66901,4
35735,66896,5
35728,66889,5
35726,66885,6
35722,66871,4
35716,66875,4
35711,66861,5
35708,66854,5
35711,66865,5
35711,66865,5
35716,66856,4
35702,66854,5
35706,66859,5
35705,66855,5
35710,66856,5
35710,66857,4
35716,66864,5
35717,66877,5
35724,66884,5
35718,66896,4
35721,66891,4
35737,66896,5
35724,66915,5
35738,66920,5
35748,66917,5
35751,66929,4
35752,66933,5
35755,66942,5
35755,66945,6
35762,66945,3
35769,66952,5
35764,66970,5
35768,66971,5
35767,66977,5
35764,66968,4
35773,66965,5
35758,66960,5
35776,66975,5
35767,66963,5
35770,66966,4
35731,66963,5
35757,66952,5
35753,66954,5
35752,66945,5
35718,66932,4
35747,66933,5
35744,66912,5
35737,66902,5
35714,66901,4
35727,66882,5
35711,66858,4
35699,66847,5
35724,66834,5
35691,66812,4
35689,66808,5
35680,66797,5
35714,66792,5
35669,66800,5
35669,66792,4
35676,66803,5
35704,66802,5
35680,66815,5
35677,66807,5
35684,66831,4
35703,66824,5
35699,66829,5
35699,66843,5
35702,66846,5
35698,66833,4
35713,66853,5
35717,66864,5
35707,66874,5
35714,66836,4
35711,66877,4
35709,66875,6
35720,66861,4
35712,66813,5
35698,66838,5
35697,66826,4
35695,66818,5
35684,66807,5
35669,66785,5
35671,66782,4
35665,66785,5
35678,66831,5
35670,66799,5
35677,66812,5
35687,66812,4
35682,66870,5
35688,66824,5
35701,66852,5
35702,66854,5
35712,66898,4
35711,66877,5
35723,66884,5
35728,66895,5
35730,66910,5
35738,66920,4
35739,66923,5
35739,66931,6
35752,66929,4
35749,66941,4
35750,66946,5
35753,66955,5
35756,66952,5
35761,66954,5
35760,66957,4
35758,66960,5
35756,66962,5
35759,66954,5
35759,66959,5
35759,66970,4
35770,66974,5
35768,66966,5
35762,66975,5
35761,66967,5
35755,66954,4
35763,66959,5
35757,66953,5
35755,66956,5
35760,66950,5
35756,66960,4
35758,66936,5
35753,66938,5
35754,66939,5
35750,66939,4
35738,66927,4
35744,66926,5
35739,66920,5
35731,66921,5
35735,66918,4
35735,66922,5
35744,66929,5
35742,66918,5
35738,66930,5
35750,66937,4
35755,66945,5
35750,66948,5
35748,66963,5
35753,66969,5
35762,66978,4
35768,66978,5
35774,66990,5
35785,66999,5
35778,67012,5
35788,67015,5
35797,67025,4
35792,67038,5
35797,67035,5
35795,67034,5
35806,67042,4
35809,67058,5
35799,67048,5
35807,67054,5
35817,67060,4
35810,67057,5
35795,67046,5
35802,67044,5
35798,67029,5
35799,67026,4
35775,67011,5
35787,67000,5
35773,66992,5
35773,66986,5
35771,66974,4
35760,66974,5
35760,66955,5
35747,66956,5
35748,66952,5
35755,66946,4
35753,66954,6
35746,66948,4
35747,66953,5
35748,66953,5
35748,66942,4
35745,66945,5
35748,66964,5
35740,66960,5
35751,66963,4
35753,66969,4
35757,66965,5
35734,66972,5
35756,66967,5
35753,66967,4
35748,66944,5
35709,66942,5
35745,66937,5
35733,66914,5
35732,66905,4
35721,66903,5
35731,66919,5
35726,66919,5
35732,66920,5
35765,66931,4
35740,66943,5
35740,66947,5
35737,66952,5
35789,66961,5
35749,66966,4
35758,66962,5
35748,66968,5
35781,66973,5
35759,66979,4
35755,66983,4
35767,66977,5
35769,66976,5
35760,66986,5
35750,66976,4
35760,66971,5
35748,66960,5
35753,66969,5
35760,66973,5
35751,66965,4
35756,66940,5
35752,66963,5
35749,66971,5
35752,66987,5
35755,66936,4
35759,66985,5
35762,66981,5
35763,66993,5
35761,66977,5
35758,66983,4
35753,66972,5
35747,66973,5
35753,67008,5
35751,66976,5
35740,66970,4
35748,66971,5
35742,67006,5
35749,66962,5
35745,66966,10
35747,66966,10
35747,66966,9
35742,66967,10
35762,66997,9
35762,66997,5
35765,66992,8
35770,67012,5
35773,67012,5
35738,67024,5
35752,67033,8
35779,67030,5
35783,67037,5
35788,67048,8
35790,67046,5
35792,67045,5
35794,67052,8
35794,67052,5
35794,67045,5
35795,67042,2
35790,67042,2
35767,67047,4
35779,67039,4
35773,67024,5
35775,67014,6
35770,67000,4
35763,67005,5
35758,66990,4
35753,66983,7
35749,66979,3
35753,66974,5
35753,66970,5
35747,66976,4
35748,66962,5
35738,66962,5
35742,66965,5
35744,66963,5
35743,66963,4
35746,66973,5
35745,66981,5
35751,66984,5
35759,66985,5
35758,66984,4
35761,66993,5
35754,66993,5
35764,66990,5
35752,66997,4
35753,66991,5
35756,66970,5
35747,66964,6
35740,66945,4
35721,66929,4
35729,66930,5
35726,66919,5
35721,66920,5
35723,66935,5
35731,66925,4
35716,66932,5
35731,66940,5
35730,66937,5
35734,66944,5
35735,66940,4
35741,66957,5
35742,66950,5
35749,66960,5
35748,66965,5
35743,66973,4
35751,66977,5
35751,66981,5
35756,66986,5
35757,66993,5
35764,66986,4
35760,66991,5
35764,67000,5
35759,66991,6
35767,67002,3
35768,67007,5
35770,67001,5
35776,67008,5
35768,67008,5
35781,67009,4
35790,67022,5
35787,67017,5
35796,67014,5
35789,67019,5
35780,67013,4
35777,67018,5
35781,67012,5
35782,67003,5
35781,67006,5
