RED,IR,EKG,TIME
35927,67045,12
35944,67082,7
35944,67082,5
35935,67092,10
35994,67104,5
35958,67105,5
35958,67104,10
35969,67081,5
35988,67117,5
36001,67173,10
36001,67173,5
35991,67177,5
36008,67196,10
36006,67153,5
36007,67186,5
36021,67193,10
36021,67193,5
36016,67196,5
36030,67207,10
36018,67196,5
36016,67198,5
36006,67195,10
36011,67241,5
35990,67172,7
35990,67172,8
35988,67165,9
36003,67171,10
35999,67184,5
35973,67123,7
35973,67123,8
35980,67125,5
35980,67119,7
35973,67116,8
35960,67105,5
35947,67109,7
35967,67109,8
35967,67109,5
35984,67116,7
35997,67134,8
35969,67132,5
35977,67146,7
35975,67150,8
35982,67155,5
35998,67166,7
35998,67166,8
35997,67170,9
35996,67178,8
35992,67176,5
35990,67177,7
35997,67180,8
35997,67180,5
36001,67206,7
35990,67191,8
35979,67159,9
35988,67154,5
35969,67132,8
35969,67132,7
35988,67115,5
35965,67125,8
35957,67112,7
35956,67110,5
35955,67094,8
35947,67098,7
35919,67041,7
35919,67041,8
35919,67068,7
35914,67021,5
35909,67023,8
35919,67020,7
35922,67043,8
35922,67043,7
35929,67083,7
35928,67066,10
35928,67065,5
35928,67064,4
35938,67065,8
35948,67093,7
35948,67093,5
35949,67120,8
35956,67098,7
35953,67086,9
35921,67025,10
35921,67025,5
35911,67009,5
35913,67010,10
35884,67006,5
35904,67007,5
35901,67013,10
35903,67014,5
35902,67055,5
35902,67055,10
35936,67065,5
35946,67087,5
35948,67090,4
35965,67102,1
35968,67108,1
35945,67131,5
35967,67131,5
36008,67138,5
35979,67149,4
35979,67154,5
35989,67162,5
36039,67165,5
35992,67173,4
35994,67176,4
35996,67175,5
36021,67186,5
35990,67184,5
36000,67185,4
35998,67181,5
36002,67188,5
36002,67200,5
36009,67200,5
35995,67194,4
35999,67167,5
35994,67183,4
35984,67178,5
35994,67161,5
35987,67115,6
35982,67152,3
35975,67157,5
35979,67142,5
35967,67113,5
35973,67132,4
35966,67133,5
35960,67120,5
35959,67136,5
35954,67110,4
35962,67114,4
35954,67108,5
35960,67164,5
35956,67110,5
35957,67123,4
35964,67123,5
35965,67161,5
35981,67138,5
35976,67150,5
35985,67163,4
35982,67175,5
35990,67177,6
35993,67195,4
35996,67207,5
36005,67216,4
36021,67224,5
36021,67231,5
36029,67247,5
36035,67255,5
36042,67264,4
36040,67263,5
36041,67282,5
36048,67280,5
36043,67286,4
36049,67288,4
36048,67277,5
36042,67281,5
36034,67272,5
36040,67273,4
36032,67260,5
36022,67252,5
36018,67239,5
36022,67228,5
36015,67215,4
36004,67209,5
36000,67198,5
35999,67200,6
35998,67200,4
35998,67198,4
35999,67206,5
35991,67191,5
36000,67191,5
35996,67194,5
35996,67196,4
35999,67195,5
35993,67204,5
35998,67192,5
35993,67183,4
35990,67184,4
35989,67183,5
35977,67170,5
35973,67142,5
35962,67130,4
35952,67109,5
35951,67104,5
35940,67104,5
35946,67090,5
35940,67101,5
35940,67100,4
35943,67113,5
35948,67120,5
35951,67124,6
35971,67143,3
35973,67147,5
35981,67166,5
35987,67180,5
35990,67189,5
35989,67199,4
36001,67216,5
36003,67220,5
36014,67239,5
36011,67246,4
36020,67256,4
36017,67256,5
36027,67260,5
36027,67270,5
36024,67269,4
36031,67277,5
36032,67283,5
36034,67284,5
36038,67289,5
36031,67283,4
36030,67285,6
36031,67282,4
36043,67286,5
36035,67278,5
36041,67283,4
36036,67276,5
36029,67262,5
36029,67271,5
36023,67258,5
36023,67242,4
36009,67238,5
36004,67231,5
36001,67234,5
35981,67229,4
36000,67219,4
35992,67201,5
35997,67208,5
35948,67204,5
35987,67193,4
35984,67191,5
35988,67190,5
35959,67196,5
35990,67207,5
35996,67200,4
35997,67219,5
36016,67221,6
36008,67236,4
36012,67247,5
36013,67250,4
36065,67255,5
36026,67270,5
36029,67276,5
36026,67290,5
36068,67297,4
36046,67311,5
36051,67322,5
36052,67315,5
36062,67313,4
36050,67317,4
36058,67323,5
36056,67320,5
36057,67312,5
36048,67318,4
36052,67320,5
36049,67309,5
36045,67270,5
36035,67301,5
36039,67281,4
36028,67279,5
36024,67234,5
36021,67263,6
36026,67258,4
36010,67255,5
36007,67249,4
36007,67247,5
36012,67248,5
36007,67248,5
36009,67277,4
36016,67246,5
36009,67255,5
36011,67252,5
36015,67311,4
36014,67258,4
36013,67254,5
36020,67261,5
36009,67282,5
36003,67245,4
35997,67224,5
35986,67211,5
35984,67208,5
35977,67190,5
35981,67179,5
35971,67167,4
35968,67167,5
35983,67192,5
35969,67190,6
35985,67194,3
35980,67202,5
35982,67210,5
35985,67211,5
35989,67221,5
35991,67229,4
36000,67227,5
35993,67246,5
36003,67241,5
36005,67242,5
35999,67246,4
36008,67242,5
36001,67248,5
36005,67242,5
35994,67245,4
36000,67247,5
35998,67236,5
35998,67240,5
35999,67239,5
35997,67233,4
35990,67237,6
36003,67227,4
35996,67239,5
35989,67229,5
35997,67229,4
35999,67236,5
36003,67230,5
36005,67235,5
36000,67236,5
35993,67227,4
35997,67223,5
35997,67224,5
35989,67222,5
35990,67220,5
35996,67224,4
35994,67226,5
35992,67225,5
35990,67216,5
35981,67222,4
35995,67219,5
35989,67208,5
35986,67208,5
35993,67211,5
35992,67212,4
35983,67218,5
35998,67217,6
35996,67225,4
36003,67231,5
36004,67236,4
36006,67252,5
36014,67250,5
36002,67270,5
36025,67265,5
36027,67273,4
36025,67287,5
36028,67291,5
36033,67291,5
36031,67299,5
36043,67300,4
36036,67300,5
36044,67306,5
36046,67309,5
36042,67310,4
36041,67313,5
36043,67307,5
36042,67305,5
36041,67297,5
36041,67296,4
36036,67290,5
36033,67293,5
36028,67283,6
36032,67280,4
36028,67274,4
36031,67265,5
36024,67277,5
36030,67287,5
36029,67276,5
36036,67280,4
36005,67286,5
36025,67285,5
36033,67293,5
36040,67298,5
36009,67300,4
36041,67311,5
36046,67308,5
36054,67315,5
36038,67318,4
36046,67308,5
36045,67291,5
36037,67275,5
36057,67261,5
36018,67239,5
36004,67226,4
36005,67226,5
36042,67220,5
36004,67214,5
36004,67218,4
36012,67225,5
36026,67221,5
36006,67226,5
36008,67225,5
36008,67226,4
36017,67231,5
36014,67239,5
36021,67248,5
36017,67249,5
36019,67238,4
36020,67260,5
36022,67267,5
36033,67269,5
36037,67232,4
36040,67282,4
36037,67281,5
36041,67279,5
36041,67250,5
36039,67288,4
36041,67288,6
36041,67284,4
36044,67297,5
36042,67286,5
36041,67288,4
36040,67290,5
36050,67331,5
36044,67293,5
36039,67304,5
36045,67302,4
36055,67341,5
36052,67308,5
36049,67303,5
36051,67298,5
36052,67319,4
36047,67291,5
36050,67296,5
36053,67298,5
36049,67305,4
36050,67297,4
36050,67295,5
36058,67297,5
36057,67291,5
36050,67280,4
36040,67288,5
36046,67279,7
36042,67281,3
36046,67278,5
36041,67272,4
36044,67282,5
36041,67277,5
36043,67278,5
36044,67268,5
36036,67278,4
36045,67280,5
36044,67276,5
36056,67280,5
36049,67299,5
36050,67293,4
36057,67308,5
36062,67307,5
36069,67311,5
36070,67316,4
36072,67315,4
36074,67328,5
36074,67333,5
36070,67335,5
36084,67348,4
36084,67359,5
36082,67357,5
36094,67358,5
36087,67361,5
36081,67365,4
36093,67371,5
36094,67368,5
36088,67370,5
36089,67366,5
36090,67368,4
36099,67372,5
36096,67367,5
36097,67363,5
36089,67366,5
36088,67355,4
36088,67353,5
36084,67353,5
36086,67345,5
36071,67329,4
36067,67313,5
36056,67302,4
36044,67278,5
36032,67258,5
36028,67257,6
36024,67231,3
36021,67218,5
36018,67214,5
36008,67199,5
36001,67192,4
35995,67193,5
36002,67194,5
36004,67198,5
35998,67203,5
36002,67203,4
36010,67201,5
36015,67222,5
36016,67230,5
36025,67228,5
36018,67249,4
36028,67247,5
36033,67261,5
36040,67278,5
36042,67275,5
36043,67280,4
36032,67261,6
36032,67243,4
36024,67228,5
36011,67214,4
36000,67202,7
35999,67181,3
35991,67167,5
35963,67153,5
35980,67154,4
35987,67153,5
35980,67161,5
35955,67163,5
35992,67164,5
35990,67154,4
35990,67152,5
35947,67164,5
35982,67163,5
35990,67164,5
35992,67162,4
35995,67180,5
35992,67182,5
36000,67184,5
36001,67188,5
36044,67201,4
36004,67205,5
36010,67216,6
36013,67216,4
36064,67227,4
36022,67221,5
36027,67229,5
36026,67231,5
36041,67234,5
36029,67244,4
36026,67244,5
36038,67241,5
36034,67244,5
36042,67255,5
36041,67266,4
36050,67269,5
36040,67242,5
36046,67263,5
36051,67274,5
36046,67257,4
36045,67225,5
36043,67274,5
36044,67266,5
36043,67262,5
36043,67233,4
36043,67252,5
36044,67257,5
36033,67252,6
36031,67264,3
36035,67248,5
36026,67242,5
36029,67237,5
36027,67277,5
36030,67232,4
36026,67229,5
36029,67231,5
36032,67265,5
36018,67225,5
36023,67226,4
36022,67226,5
36030,67246,5
36027,67238,5
36032,67249,5
36029,67240,4
36033,67254,5
36041,67255,5
36048,67259,5
36048,67273,5
36047,67270,5
36051,67270,4
36052,67279,5
36055,67279,5
36062,67290,6
36053,67297,3
36067,67293,5
36056,67298,5
36058,67295,5
36054,67299,4
36059,67297,5
36063,67306,5
36061,67293,5
36062,67286,5
36050,67284,4
36049,67275,5
36041,67268,5
36040,67256,5
36031,67243,5
36016,67219,4
36017,67222,5
36016,67201,5
36004,67209,5
36009,67200,5
36000,67201,4
36003,67197,6
35997,67204,4
36001,67197,5
35997,67193,4
36003,67202,4
36001,67201,5
36006,67203,5
36015,67222,5
36012,67224,4
36022,67228,5
36013,67224,5
36023,67230,5
36029,67249,5
36027,67234,4
36021,67241,5
36022,67236,5
36018,67226,5
36011,67211,5
36004,67191,4
35993,67180,5
35995,67168,5
35987,67148,5
35968,67134,5
35967,67129,4
35965,67129,5
35965,67126,6
35969,67123,4
35967,67128,4
35959,67132,4
35965,67123,5
35970,67129,5
35971,67127,5
35963,67140,4
35974,67147,5
35975,67158,5
35993,67166,5
35983,67162,5
35987,67172,4
35992,67172,5
35991,67181,5
35997,67180,5
35999,67175,5
36001,67180,4
35992,67178,5
35993,67180,5
35993,67178,5
35992,67181,5
35998,67181,4
35989,67184,5
35993,67169,5
35995,67176,6
35996,67167,3
35967,67177,4
35990,67188,5
35990,67172,5
35987,67173,5
35949,67170,4
35983,67159,5
35984,67157,5
35981,67149,5
35953,67147,5
35981,67154,4
35982,67147,5
35969,67143,5
35989,67151,5
35971,67133,5
35964,67140,4
35967,67138,5
36002,67135,5
35971,67151,5
35961,67136,5
35968,67137,5
36003,67139,4
35972,67142,5
35970,67149,5
35970,67142,4
35988,67151,4
35987,67159,5
35990,67174,5
35988,67180,5
36004,67181,4
36008,67200,5
36011,67219,5
36016,67217,5
36012,67199,5
36028,67238,4
36036,67251,5
36039,67269,5
36035,67242,5
36045,67290,5
36063,67287,4
36052,67299,5
36059,67300,5
36062,67314,5
36061,67307,5
36069,67309,4
36067,67351,6
36065,67313,4
36064,67310,5
36063,67311,4
36057,67348,4
36059,67306,5
36063,67314,5
36059,67293,5
36055,67313,4
36049,67287,5
36044,67287,5
36044,67288,5
36047,67288,5
36040,67276,4
36037,67270,5
36038,67259,5
36038,67253,5
36025,67252,5
36021,67232,4
36005,67223,5
36009,67205,5
36004,67200,5
36003,67181,5
35994,67186,4
35996,67186,5
35994,67179,6
36001,67178,6
35995,67184,2
36015,67190,4
36000,67190,5
36000,67193,5
35997,67192,5
36002,67200,4
36006,67210,5
36010,67218,5
36013,67218,5
36020,67223,5
36009,67237,4
36020,67232,5
36018,67236,5
36021,67246,5
36024,67229,5
36014,67220,4
36001,67221,5
35998,67196,5
35990,67188,5
35990,67175,5
35982,67164,4
35976,67156,5
35985,67157,5
35988,67157,5
35987,67176,4
35988,67179,4
35993,67185,5
35995,67187,5
36000,67197,5
36003,67205,4
36011,67212,5
36016,67220,5
36014,67217,5
36019,67235,5
36016,67235,4
36023,67242,5
36039,67246,5
36024,67258,5
36030,67250,5
36029,67255,4
36029,67254,5
36028,67258,5
36035,67265,5
36031,67263,5
36030,67254,5
36037,67259,4
36038,67257,5
36026,67256,5
36030,67258,4
36041,67249,4
36034,67263,5
36032,67249,5
36035,67260,5
36021,67249,4
36028,67239,5
36019,67235,5
36023,67231,5
36024,67233,5
36013,67221,4
36009,67215,5
36010,67203,5
36005,67208,5
36004,67205,5
36004,67204,4
35993,67199,5
36001,67192,5
35983,67197,5
35986,67184,5
35994,67190,4
35993,67189,6
35959,67186,4
36004,67195,5
35998,67194,4
36004,67208,4
35973,67208,5
36020,67230,5
36020,67240,5
36033,67243,4
36026,67250,5
36029,67271,5
36046,67288,5
36043,67293,5
36084,67312,4
36055,67320,5
36057,67332,5
36079,67337,5
36117,67355,5
36083,67354,4
36084,67361,5
36090,67373,5
36113,67373,6
36096,67385,4
36091,67374,4
36095,67376,5
36094,67376,5
36090,67373,5
36094,67362,4
36082,67355,4
36080,67323,5
36066,67343,5
36062,67328,5
36064,67326,4
36059,67294,5
36050,67309,5
36052,67303,5
36052,67308,5
36039,67275,4
36051,67301,5
36045,67305,5
36050,67299,5
36049,67320,5
36050,67307,5
36048,67315,4
36052,67316,5
36061,67365,5
36054,67319,6
36047,67320,3
36063,67319,5
36060,67354,5
36053,67319,5
36043,67317,4
36047,67291,4
36033,67294,5
36021,67261,5
36024,67249,5
36018,67242,4
36004,67224,5
36011,67217,5
35994,67209,5
36004,67226,5
36007,67229,4
36007,67231,5
36016,67242,5
36025,67245,5
36015,67250,5
36019,67256,4
36025,67254,6
36030,67272,4
36026,67277,5
36032,67271,5
36035,67288,7
36038,67283,2
36059,67279,5
36031,67284,5
36033,67288,4
36032,67281,4
36040,67281,5
36036,67278,5
36037,67275,5
36030,67289,4
36035,67277,5
36032,67276,5
36036,67273,5
36039,67275,5
36030,67282,4
36034,67292,5
36037,67279,5
36029,67273,5
36024,67274,5
36038,67270,4
36033,67271,5
36021,67265,6
36025,67256,4
36018,67258,5
36019,67248,4
36021,67248,5
36011,67243,5
36010,67240,5
36012,67239,4
36008,67239,4
36012,67242,5
36004,67241,5
36014,67235,5
36009,67250,4
36025,67247,5
36031,67265,5
36027,67262,5
36032,67275,5
36038,67291,4
36038,67298,5
36053,67321,5
36053,67318,5
36057,67343,5
36061,67357,4
36076,67366,5
36084,67371,5
36075,67378,6
36071,67376,4
36075,67367,4
36084,67384,5
36087,67392,5
36083,67385,5
36083,67388,4
36087,67396,4
36078,67380,5
36074,67377,5
36079,67371,5
36071,67357,4
36066,67353,5
36057,67330,5
36044,67310,5
36049,67299,5
36019,67264,4
35999,67230,5
35973,67185,5
35955,67144,5
35935,67104,5
35891,67064,5
35885,67026,4
35873,66997,5
35850,66965,5
35789,66922,6
35809,66876,3
35784,66831,5
35759,66801,5
35708,66762,5
35731,66748,4
35718,66744,4
35719,66742,5
35725,66726,5
35715,66739,5
35716,66734,4
35723,66738,5
35767,66735,5
35726,66749,5
35732,66740,5
35742,66754,4
35779,66752,5
35750,66774,5
35746,66782,5
35760,66798,5
35791,66817,4
35777,66839,6
35795,66855,4
35809,66878,5
35821,66904,5
35839,66935,4
35853,66961,5
35863,66987,5
35881,66982,5
35894,67030,4
35912,67051,4
35915,67069,5
35932,67039,5
35937,67095,5
35941,67097,4
35941,67107,5
35951,67100,5
35945,67120,5
35969,67120,5
35949,67123,4
35954,67149,5
35958,67122,5
35957,67122,5
35944,67118,5
35951,67165,4
35956,67123,5
35958,67118,6
35953,67124,4
35951,67143,5
35955,67112,4
35951,67114,5
35946,67107,5
35940,67108,5
35947,67117,4
35950,67107,4
35940,67113,5
35944,67111,5
35945,67094,5
35946,67102,4
35939,67100,5
35943,67101,5
35934,67098,5
35942,67095,5
35939,67104,4
35941,67114,5
35951,67107,5
35943,67114,5
35951,67127,5
35958,67125,4
35969,67138,5
35970,67145,5
35970,67158,6
35974,67181,4
35989,67192,4
35975,67191,5
35995,67200,5
35989,67205,5
36000,67216,5
35998,67213,4
36001,67223,5
36004,67228,5
36011,67229,5
36013,67228,4
36006,67232,5
36005,67230,5
35999,67224,5
35994,67221,5
35999,67212,4
35993,67197,5
35987,67201,5
35989,67187,5
35978,67180,5
35979,67178,5
35982,67174,4
35983,67171,5
35980,67167,5
35982,67168,5
35973,67169,4
35971,67172,5
35977,67174,5
35980,67178,5
35985,67177,5
35985,67193,4
35988,67197,5
35988,67206,5
35996,67205,5
35988,67208,4
36002,67214,5
35996,67205,5
35986,67189,5
35990,67168,5
35981,67164,4
35965,67145,5
35960,67142,5
35954,67117,5
35951,67111,5
35951,67111,4
35952,67118,6
35947,67121,4
35949,67124,5
35954,67128,5
35947,67124,4
35956,67129,5
35954,67137,5
35961,67139,5
35962,67143,5
35972,67153,4
35969,67150,5
35974,67168,5
35970,67168,5
35979,67171,4
35981,67175,5
35975,67168,5
35981,67167,5
35975,67174,5
35976,67174,4
35985,67172,5
35949,67172,5
35968,67165,5
35973,67168,5
35976,67172,4
35938,67170,5
35978,67185,6
35981,67181,4
35982,67175,5
35951,67184,4
35981,67180,5
35984,67174,5
35996,67181,5
35999,67158,5
35979,67165,4
35983,67169,5
35987,67164,5
36021,67166,5
35984,67171,4
35981,67169,4
35979,67165,5
36017,67165,5
35974,67158,5
35965,67157,4
35973,67158,5
35989,67146,5
35972,67145,5
35977,67147,5
35977,67166,4
35975,67148,5
35979,67163,5
35972,67163,5
35973,67161,5
35981,67142,4
35986,67173,5
35985,67185,5
35994,67197,5
35997,67156,5
36003,67212,4
36006,67207,5
36009,67214,5
36010,67216,5
36016,67240,4
36017,67244,4
36020,67247,5
36037,67290,5
36029,67258,5
36032,67272,4
36041,67274,5
36029,67326,5
36050,67285,5
36048,67279,5
36047,67289,6
36036,67312,3
36043,67280,5
36040,67274,5
36050,67282,5
36040,67276,4
36035,67264,5
36025,67263,5
36029,67252,5
36022,67233,5
36008,67219,4
36002,67204,5
35995,67182,5
35977,67161,5
35975,67147,4
35969,67152,4
35967,67146,5
35964,67131,5
35961,67130,5
35967,67140,4
35963,67150,5
35972,67139,5
35965,67142,5
35971,67147,5
35969,67152,4
35969,67164,6
35976,67170,4
35982,67181,5
35984,67188,5
35993,67183,4
35995,67199,5
35998,67206,5
36009,67210,5
36006,67216,5
35996,67206,4
35992,67188,5
35983,67166,5
35973,67152,5
35980,67158,4
35970,67135,4
35954,67128,5
35951,67123,5
35956,67128,5
35969,67133,4
35972,67138,5
35964,67139,5
35965,67135,6
35968,67138,4
35968,67143,4
35970,67144,5
35975,67152,5
35979,67147,5
35966,67164,5
35985,67161,4
35978,67166,5
35987,67170,5
35977,67167,5
35986,67173,5
35993,67179,4
35986,67178,5
35994,67182,5
35985,67187,5
35985,67175,4
35993,67184,4
35986,67171,5
35979,67176,5
35989,67169,5
35987,67178,5
35990,67183,4
35988,67183,5
35989,67185,5
35991,67184,6
35987,67190,3
35994,67175,5
35984,67183,5
35992,67179,5
35992,67175,5
35987,67172,4
35980,67168,5
35978,67183,5
35985,67180,5
35979,67167,5
35973,67163,4
35983,67164,5
35984,67154,5
35973,67152,5
35971,67153,5
35980,67149,4
35975,67149,5
35966,67151,5
35935,67149,5
35968,67142,4
35974,67142,6
35970,67149,4
35941,67154,5
35966,67164,5
35978,67158,6
35981,67154,3
35966,67169,5
35978,67174,5
35985,67176,5
35988,67189,4
36014,67195,5
35992,67204,5
35998,67201,5
36011,67208,5
36047,67215,4
36014,67232,5
36019,67235,5
36015,67236,5
36048,67240,5
36024,67256,4
36034,67249,5
36029,67256,5
36043,67259,5
36025,67261,4
36027,67267,5
36037,67266,6
36035,67240,4
36032,67268,5
36027,67263,4
36019,67261,5
36016,67218,5
36030,67260,5
36023,67246,5
36030,67245,5
36019,67199,4
36021,67236,5
36017,67232,5
36019,67226,5
36014,67228,4
36005,67222,5
36013,67209,5
36013,67210,5
36002,67243,5
35994,67196,4
36000,67181,5
35989,67179,5
35990,67208,5
35981,67151,4
35959,67134,5
35958,67117,5
35951,67127,6
35945,67105,4
35946,67095,4
35946,67080,5
35941,67091,5
35941,67088,5
35938,67092,5
35943,67090,4
35945,67098,5
35940,67097,5
35947,67107,5
35955,67115,5
35954,67130,4
35959,67135,5
35961,67141,5
35966,67160,5
35977,67169,5
35979,67166,4
35984,67185,5
35989,67191,5
35991,67189,5
35983,67182,5
35973,67168,4
35975,67154,5
35968,67147,5
35957,67122,6
35948,67119,3
35955,67114,5
35947,67107,5
35948,67119,5
35950,67120,5
35949,67129,4
35954,67132,5
35964,67131,5
35958,67128,5
35964,67138,5
35970,67144,4
35969,67152,5
35977,67160,5
35977,67168,5
35976,67175,5
35979,67172,4
35984,67176,5
35985,67191,5
35992,67195,5
35982,67201,4
35993,67199,5
35995,67199,4
35993,67191,5
35986,67196,5
35990,67195,4
35987,67192,5
35995,67185,5
35986,67195,5
35980,67187,5
35977,67184,4
35987,67181,5
35985,67191,5
35995,67190,5
35997,67199,5
35990,67196,4
35985,67174,5
35976,67186,5
35977,67180,5
35984,67187,5
35975,67176,4
35984,67170,5
35983,67177,5
35975,67171,5
35976,67172,4
35974,67154,4
35973,67157,6
35967,67165,4
35970,67161,5
35974,67149,4
35969,67156,5
35966,67152,5
35969,67156,5
35975,67165,5
35963,67164,4
35975,67170,5
35973,67176,5
35977,67183,5
35989,67183,5
35993,67190,4
35973,67205,5
35999,67204,5
36002,67218,5
36007,67227,5
35984,67239,4
36011,67245,5
36024,67257,5
36026,67258,5
35989,67270,5
36031,67273,4
36025,67278,5
36023,67277,6
36027,67284,4
36024,67272,4
36031,67275,5
36030,67272,5
36068,67276,5
36036,67271,5
36027,67268,4
36025,67271,5
36054,67259,5
36015,67247,5
36011,67242,5
36001,67228,4
36018,67224,5
35992,67207,5
35990,67199,5
35986,67194,5
35992,67181,4
35978,67180,5
35983,67183,5
35972,67179,5
35978,67152,5
35974,67173,4
35970,67175,5
35966,67165,5
35970,67128,5
35976,67178,4
35970,67176,4
35973,67190,5
35983,67152,5
35984,67188,5
35983,67188,4
35976,67198,5
35979,67214,4
35982,67203,5
35976,67197,5
35984,67192,4
35971,67215,5
35965,67150,5
35950,67140,5
35943,67118,5
35930,67141,4
35930,67079,5
35920,67071,5
35916,67070,5
35924,67090,5
35919,67082,5
35928,67090,4
35927,67088,5
35933,67089,5
35934,67095,4
35938,67110,4
35943,67110,5
35930,67115,5
35943,67117,5
35955,67132,4
35951,67130,5
35949,67132,5
35961,67139,5
35957,67141,5
35955,67139,4
35951,67142,5
35959,67140,5
35956,67137,5
35953,67139,5
35956,67134,4
35956,67138,5
35943,67131,5
35954,67132,5
35950,67132,5
35940,67135,4
35946,67133,6
35945,67124,4
35939,67125,5
35951,67122,4
35945,67119,4
35945,67108,5
35943,67110,5
35941,67109,5
35937,67096,4
35936,67095,5
35935,67096,5
35921,67084,5
35928,67088,5
35925,67078,4
35928,67074,5
35908,67066,5
35912,67064,5
35913,67061,5
35914,67058,4
35914,67055,5
35922,67053,5
35920,67054,5
35922,67064,5
35921,67071,4
35921,67072,5
35921,67073,5
35915,67084,5
35922,67079,5
35931,67096,4
35932,67104,5
35941,67110,5
35943,67117,5
35951,67108,4
35946,67122,5
35956,67135,5
35955,67137,5
35957,67152,5
35969,67149,4
35964,67155,5
35966,67158,5
35983,67166,5
35981,67171,5
35984,67177,4
35979,67177,5
35974,67177,5
35977,67185,5
35973,67183,5
35978,67182,4
35984,67178,5
35977,67195,5
35969,67177,5
35974,67169,5
35973,67174,4
35970,67162,5
35974,67162,5
35974,67163,5
35973,67155,4
35965,67145,5
35962,67142,5
35934,67139,5
35955,67140,5
35950,67134,4
35960,67120,5
35920,67115,5
35952,67121,5
35948,67112,5
35948,67100,4
35903,67090,5
35933,67090,4
35917,67081,5
35927,67076,5
35920,67048,5
35908,67042,3
35900,67038,5
35896,67025,5
35927,67016,5
35881,67010,4
35880,67001,5
35885,67005,5
35922,67001,5
35883,67002,4
35884,67004,5
35888,67017,5
35902,67017,5
35884,67016,5
35893,67014,4
35888,67023,5
35891,67023,5
35899,67040,5
35896,67045,5
35905,67040,4
35904,67027,5
35908,67057,6
35912,67064,4
35918,67061,5
35912,67008,4
35897,67035,5
35891,67014,5
35895,67009,5
35883,66981,5
35869,66979,4
35866,66963,5
35858,66954,5
35861,66980,5
35861,66960,4
35861,66968,5
35864,66970,5
35864,67021,5
35863,66967,5
35868,66992,4
35876,66990,5
35882,67021,5
35883,67008,5
35890,67012,5
35887,67021,4
35902,67040,5
35896,67048,5
35904,67049,6
35905,67055,4
35915,67058,4
35910,67062,5
35919,67057,5
35913,67065,5
35917,67063,5
35925,67066,4
35912,67067,5
35911,67075,8
35919,67067,2
35919,67090,4
35923,67062,4
35928,67071,5
35925,67087,5
35916,67068,5
35915,67074,4
35925,67061,5
35913,67060,5
35907,67054,5
35903,67039,5
35894,67045,5
35896,67034,4
35898,67025,5
35890,67018,5
35892,67010,6
35878,67016,3
35887,67008,5
35886,67000,5
35876,66993,5
35878,66992,5
35885,66991,4
35877,66986,5
35867,66998,5
35873,66985,5
35882,66997,4
35875,66991,4
35880,67004,5
35881,67004,5
35894,67015,5
35898,67022,4
35899,67033,5
35902,67041,5
35907,67047,5
35905,67059,5
35914,67064,4
35912,67073,6
35923,67075,4
35923,67088,5
35933,67096,5
35934,67101,6
35937,67105,3
35933,67109,5
35932,67119,5
35938,67124,5
35951,67126,4
35948,67125,5
35935,67117,5
35944,67117,5
35947,67126,4
35951,67129,4
35943,67120,5
35943,67120,5
35949,67111,5
35943,67108,4
35933,67105,5
35932,67100,5
35932,67086,5
35932,67091,5
35920,67070,4
35916,67079,5
35923,67061,6
35919,67059,4
35906,67053,5
35906,67041,4
35890,67028,5
35891,67017,5
35886,67004,5
35868,66988,5
35858,66967,4
35858,66955,5
35857,66941,5
35849,66941,5
35821,66942,4
35856,66939,4
35841,66933,5
35846,66940,5
35816,66943,5
35849,66946,4
35852,66955,5
35857,66950,5
35847,66966,5
35859,66964,5
35871,66979,4
35862,66981,5
35890,66973,5
35867,66976,6
35873,66981,4
35865,66986,4
35912,66984,5
35874,66990,5
35868,66984,5
35860,66972,5
35883,66951,4
35840,66922,5
35842,66922,5
35824,66908,5
35829,66892,4
35819,66894,4
35816,66903,5
35819,66898,5
35824,66893,5
35828,66909,4
35836,66913,5
35839,66924,5
35845,66899,5
35849,66938,5
35859,66952,5
35853,66961,4
35849,66931,5
35861,66985,5
35880,66985,6
35870,66996,4
35881,67009,4
35885,67013,5
35887,67018,5
35886,67022,5
35889,67058,4
35900,67031,5
35900,67028,5
35900,67040,5
35899,67085,5
35900,67040,4
35894,67035,5
35907,67037,5
35907,67078,5
35912,67048,4
35911,67057,5
35911,67058,5
35909,67057,5
35901,67048,5
35896,67050,4
35899,67024,6
35891,67020,4
35891,67011,5
35894,67017,5
35887,67003,4
35886,67001,5
35874,66994,5
35875,66982,5
35867,66985,5
35861,66969,4
35869,66967,5
35868,66969,5
35853,66962,5
35858,66952,5
35856,66958,4
35866,66964,5
35861,66975,5
35866,66979,5
35868,66993,4
35866,66997,5
35886,67013,5
35880,67025,5
35889,67027,5
35898,67056,4
35908,67062,5
35913,67062,6
35919,67073,4
35931,67095,5
35929,67099,4
35940,67109,5
35935,67121,5
35951,67130,5
35954,67149,5
35952,67157,4
35955,67163,5
35961,67157,5
35968,67170,5
35966,67180,5
35967,67174,4
35970,67178,5
35970,67175,5
35968,67177,5
35970,67165,4
35976,67166,4
35961,67159,5
35955,67135,5
35948,67136,5
35937,67128,4
35939,67100,5
35927,67086,5
35918,67083,6
35914,67062,4
35907,67053,4
35902,67041,5
35891,67039,5
35889,67036,5
35899,67036,5
35898,67034,4
35900,67035,5
35890,67048,5
35906,67050,5
35898,67048,5
35897,67047,4
35900,67049,5
35905,67051,5
35905,67056,5
35909,67056,4
35906,67058,4
35907,67061,5
35902,67048,5
35892,67043,5
35892,67030,5
35879,67014,4
35873,66997,5
35873,66983,5
35859,66979,5
35863,66975,4
35862,66972,5
35848,66972,5
35867,66981,5
35871,66994,5
35861,66991,4
35847,67006,5
35878,67013,5
35887,67026,5
35890,67042,5
35862,67058,4
35908,67071,5
35908,67073,5
35914,67083,5
35916,67093,4
35923,67102,4
35924,67106,5
35931,67102,5
35964,67111,5
35933,67109,4
35929,67110,6
35938,67114,4
35971,67111,5
35931,67104,5
35928,67106,4
35929,67111,5
35953,67109,5
35934,67112,5
35929,67114,5
35925,67113,4
35932,67114,5
35931,67103,5
35929,67107,5
35934,67101,5
35924,67068,4
35925,67088,5
35914,67086,5
35914,67074,5
35914,67035,4
35910,67075,4
35907,67064,5
35896,67063,6
35900,67019,4
35894,67047,4
35892,67038,5
35894,67039,7
35894,67059,3
35892,67039,5
35889,67039,4
35894,67042,5
35897,67083,5
35889,67056,5
35897,67051,5
35902,67069,4
35909,67112,5
35918,67097,5
35916,67095,5
35927,67104,5
35926,67131,4
35938,67127,5
35950,67147,5
35952,67162,5
35953,67163,4
35953,67183,4
35950,67174,5
35959,67183,5
35974,67189,5
35972,67208,4
35966,67199,5
35976,67195,5
35977,67205,5
35971,67210,5
35969,67201,4
35965,67194,5
35970,67180,5
35964,67178,5
35956,67162,5
35950,67160,4
35945,67143,5
35938,67135,5
35931,67118,5
35920,67108,5
35918,67098,4
35908,67088,5
35901,67078,5
35907,67074,5
35906,67076,5
35894,67072,4
35899,67074,4
35901,67072,5
35899,67065,5
35890,67074,6
35900,67082,3
35903,67082,5
35898,67082,5
35911,67090,5
35909,67088,4
35903,67088,5
35908,67091,5
35904,67073,5
35895,67054,5
35887,67054,4
35887,67039,5
35883,67034,5
35871,67030,5
35875,67028,5
35874,67034,4
35882,67038,5
35891,67053,5
35894,67054,5
35893,67056,5
35894,67074,4
35891,67072,6
35908,67078,4
35901,67091,5
35916,67096,4
35917,67102,7
35909,67105,3
35918,67105,5
35916,67107,5
35910,67098,4
35919,67113,5
35919,67102,5
35914,67101,5
35913,67094,5
35914,67094,4
35904,67103,5
35902,67087,5
35906,67091,5
35906,67090,5
35911,67083,4
35901,67087,5
35897,67094,5
35899,67091,5
35902,67088,5
35907,67088,4
35898,67087,5
35897,67085,6
35908,67077,4
35898,67075,4
35899,67080,5
35895,67074,5
35897,67077,5
35871,67066,5
35892,67075,4
35894,67063,5
35896,67066,5
35858,67061,5
35885,67061,5
35892,67063,4
35885,67062,5
35860,67069,5
35894,67066,5
35899,67067,5
35892,67078,4
35907,67083,5
35899,67089,5
35914,67104,5
35914,67099,5
35959,67113,4
35921,67115,5
35924,67135,5
35922,67145,6
35961,67138,3
35933,67152,4
35936,67144,5
35936,67164,5
35958,67164,5
35942,67159,4
35946,67176,5
35944,67181,5
35943,67170,5
35946,67176,5
35949,67168,4
35944,67173,5
35943,67142,5
35942,67156,5
35936,67149,5
35928,67139,4
35918,67100,5
35916,67124,5
35911,67107,5
35913,67100,5
35906,67068,5
35893,67085,4
35893,67074,5
35896,67067,5
35897,67083,6
35886,67065,3
35878,67060,5
35887,67053,5
35885,67099,5
35887,67055,4
35884,67065,5
35880,67072,5
35887,67109,5
35887,67090,5
35896,67084,4
35903,67086,5
35909,67110,5
35904,67103,5
35901,67094,5
35891,67085,4
35894,67063,5
35888,67063,5
35883,67049,5
35878,67037,5
35873,67040,4
35870,67039,6
35867,67042,5
35875,67041,4
35872,67043,5
35878,67051,4
35879,67054,5
35877,67055,5
35892,67061,5
35894,67060,4
35892,67069,5
35886,67066,5
35898,67081,5
35898,67087,5
35904,67090,4
35902,67089,5
35903,67092,5
35912,67091,5
35911,67099,5
35911,67099,4
35905,67101,5
35919,67097,5
35918,67104,5
35912,67107,5
35914,67096,4
35916,67093,5
35910,67109,6
35914,67101,4
35921,67113,5
35926,67122,4
35924,67118,5
35929,67117,5
35916,67123,5
35927,67122,4
35930,67125,4
35936,67123,5
35924,67114,5
35926,67118,5
35932,67114,4
35912,67105,5
35912,67102,5
35916,67108,5
35927,67105,5
35921,67098,4
35918,67096,5
35916,67097,5
35911,67085,5
35914,67091,5
35914,67088,4
35913,67095,5
35909,67098,5
35918,67102,6
35915,67097,4
35923,67104,4
35923,67104,5
35924,67102,5
35933,67117,5
35935,67125,4
35940,67133,4
35941,67130,5
35941,67139,5
35937,67142,5
35944,67149,4
35945,67147,5
35957,67155,5
35958,67163,5
35959,67159,5
35962,67174,4
35957,67177,5
35948,67174,5
35958,67169,5
35960,67166,5
35969,67174,5
35961,67174,4
35966,67176,5
35962,67177,5
35959,67175,5
35942,67164,4
35963,67168,5
35969,67173,5
35955,67163,5
35920,67157,4
35955,67155,4
35953,67155,5
35957,67150,5
35916,67152,5
35957,67139,4
35951,67136,5
35950,67128,5
35960,67112,5
35939,67115,5
35930,67111,4
35925,67080,5
35955,67077,5
35903,67048,5
35897,67036,5
35888,67029,4
35929,67021,6
35876,67005,4
35874,67003,5
35874,66990,5
35885,66998,4
35870,67002,5
35876,67008,5
35872,67015,5
35878,67011,5
35892,67020,4
35893,67025,5
35901,67041,5
35907,67014,5
35903,67047,4
35904,67059,5
35908,67074,5
35920,67037,5
35923,67091,5
35924,67093,4
35920,67082,5
35913,67049,5
35902,67054,5
35898,67046,5
35889,67029,4
35887,67042,5
35886,66993,6
35881,66999,4
35877,66994,5
35878,67039,4
35880,67003,5
35874,67011,5
35882,67005,5
35887,67037,5
35889,67008,4
35883,67013,5
35891,67021,5
35889,67036,5
35896,67032,4
35899,67042,4
35901,67040,5
35899,67046,5
35905,67059,5
35906,67064,4
35909,67066,5
35908,67066,5
35912,67063,5
35919,67075,5
35922,67076,4
35923,67087,5
35924,67087,5
35924,67089,5
35923,67083,5
35923,67090,4
35928,67093,5
35926,67090,5
35931,67102,5
35935,67099,5
35932,67099,4
35932,67106,5
35941,67102,5
35932,67110,5
35940,67103,4
35933,67095,4
35936,67098,5
35938,67096,5
35935,67091,5
35929,67084,4
35932,67090,5
35916,67089,5
35926,67091,5
35916,67081,5
35920,67075,5
35915,67067,4
35911,67065,5
35914,67060,5
35913,67057,5
35916,67058,4
35910,67053,5
35906,67048,5
35906,67059,5
35915,67052,5
35903,67059,4
35911,67067,5
35913,67070,5
35916,67066,5
35914,67072,5
35923,67074,4
35923,67086,5
35926,67093,5
35929,67099,5
35918,67098,4
35934,67094,5
35942,67107,5
35936,67101,5
35940,67114,5
35940,67118,4
35942,67124,6
35942,67118,4
35942,67127,5
35942,67125,5
35954,67115,4
35942,67129,5
35944,67129,5
35945,67122,5
35949,67120,5
35940,67121,4
35938,67129,5
35945,67109,5
35941,67113,5
35934,67110,5
35933,67110,4
35935,67098,5
35930,67096,5
35929,67088,5
35924,67090,4
35927,67086,5
35918,67089,5
35913,67081,5
35913,67078,5
35918,67072,4
35927,67077,5
35891,67064,5
35910,67057,5
35907,67050,5
35903,67051,4
35862,67045,5
35905,67043,5
35887,67048,5
35902,67043,5
35861,67031,4
35893,67029,5
35893,67028,5
35885,67025,5
35899,67019,5
35879,67012,4
35881,67012,5
35877,67011,5
35917,67006,5
35871,66999,5
35880,66996,4
35872,66997,5
35906,66986,5
35858,66979,6
35869,66978,3
35865,66972,5
35876,66976,5
35855,66975,5
35860,66967,5
35853,66966,4
35851,66950,5
35844,66967,5
35851,66956,5
35851,66956,5
35841,66921,4
35843,66951,5
35843,66945,5
35845,66949,5
35840,66900,5
35836,66927,4
35831,66913,5
35819,66907,5
35816,66880,5
35810,66876,4
35797,66856,5
35790,66828,4
35775,66832,5
35753,66782,5
35749,66769,6
35746,66761,3
35737,66802,5
35740,66747,5
35739,66752,5
35731,66748,4
35741,66785,5
35734,66763,5
35745,66772,5
35747,66777,5
35756,66790,4
35755,66786,5
35758,66792,5
35764,66808,5
35766,66821,5
35771,66818,4
35780,66836,5
35780,66840,5
35774,66847,5
35784,66833,4
35778,66826,4
35767,66801,6
35763,66788,4
35748,66778,5
35747,66767,4
35730,66752,5
35723,66734,5
35732,66734,5
35732,66737,5
35736,66745,4
35743,66763,5
35746,66763,5
35738,66771,5
35739,66769,5
35750,66775,4
35752,66794,5
35758,66802,5
35768,66811,5
35764,66824,5
35783,66837,4
35785,66855,5
35805,66856,5
35795,66869,5
35802,66886,5
35812,66897,4
35815,66898,5
35821,66916,6
35822,66918,4
35829,66929,4
35836,66945,5
35838,66944,5
35847,66946,5
35849,66956,5
35845,66957,4
35845,66958,5
35849,66953,5
35852,66957,5
35848,66958,5
35847,66962,4
35850,66964,5
35850,66963,5
35845,66954,5
35850,66960,5
35845,66953,4
35830,66940,5
35844,66939,5
35843,66941,5
35835,66936,5
35832,66929,4
35830,66924,5
35830,66927,5
35823,66917,6
35823,66927,3
35826,66916,4
35827,66910,5
35817,66913,5
35818,66905,5
35823,66911,4
35828,66919,5
35822,66916,5
35824,66923,5
35833,66928,5
35832,66935,4
35834,66938,5
35838,66948,5
35843,66955,5
35850,66963,5
35854,66969,4
35859,66979,5
35865,66986,5
35872,66985,5
35867,67003,5
35875,66994,5
35879,67006,4
35887,67010,5
35856,67025,5
35884,67038,6
35884,67037,3
35885,67045,5
35868,67043,5
35888,67042,5
35901,67048,4
35894,67042,5
35864,67042,5
35894,67038,5
35894,67044,5
35888,67042,4
35897,67030,5
35891,67027,5
35880,67020,5
35879,67012,5
35922,67002,4
35865,66985,5
35861,66981,5
35857,66965,5
35882,66951,5
35831,66940,4
35832,66934,6
35824,66922,4
35839,66916,5
35827,66921,4
35829,66910,4
35822,66917,5
35829,66907,5
35825,66920,5
35825,66930,4
35834,66937,5
35834,66903,5
35839,66940,5
35830,66947,5
35847,66951,4
35840,66911,5
35846,66946,5
35845,66951,5
35839,66954,5
35840,66936,4
35836,66957,5
35838,66956,5
35826,66941,5
35818,66934,5
35817,66899,4
35809,66891,5
35795,66883,6
35790,66913,4
35794,66867,4
35793,66864,4
35800,66868,5
35802,66910,5
35803,66888,5
35808,66888,4
35807,66906,5
35816,66921,5
35821,66918,5
35824,66932,5
35832,66946,4
35832,66958,9
35839,66961,1
35843,66965,5
35847,66981,5
35854,66986,4
35860,66998,5
35867,67004,5
35867,67017,5
35870,67022,5
35879,67020,4
35876,67030,5
35870,67036,5
35883,67028,6
35886,67043,4
35878,67037,4
35880,67036,5
35874,67049,5
35885,67044,5
35879,67048,4
35878,67044,5
35884,67042,5
35881,67026,5
35880,67031,5
35875,67015,4
35865,67007,5
35857,67002,5
35860,67008,5
35865,67002,5
35854,66987,4
35853,66984,5
35850,66980,5
35840,66981,5
35846,66975,5
35833,66967,5
35849,66981,4
35843,66979,5
35852,66972,5
35842,66984,5
35856,66992,4
35857,67001,5
35862,67010,5
35862,67014,5
35870,67022,4
35877,67028,4
35873,67056,5
35887,67061,5
35890,67076,5
35899,67086,4
35892,67092,5
35907,67101,5
35913,67124,5
35925,67118,5
35921,67122,4
35925,67139,5
35939,67138,5
35930,67150,5
35932,67162,5
35930,67147,4
35936,67148,6
35933,67143,4
35927,67138,5
35925,67142,5
35931,67133,4
35917,67119,5
35919,67112,5
35913,67102,5
35896,67092,4
35899,67070,4
35887,67064,5
35886,67058,5
35882,67044,5
35869,67032,4
35868,67028,5
35872,67032,5
35867,67028,5
35873,67032,5
35869,67032,4
35870,67027,5
35863,67026,5
35859,67030,5
35868,67029,5
35841,67034,4
35873,67040,5
35869,67027,6
35871,67037,4
35837,67041,5
35874,67028,4
35862,67024,5
35853,67010,5
35821,67004,5
35849,67001,4
35844,66984,4
35837,66978,5
35853,66967,5
35838,66977,5
35834,66975,4
35839,66979,5
35877,66986,5
35836,66996,5
35850,66996,5
35863,67007,5
35888,67023,4
35857,67020,5
35854,67021,5
35865,67029,6
35864,67026,3
35859,67036,5
35864,67032,5
35856,67028,5
35860,67029,5
35869,67042,4
35869,67034,5
35865,67040,5
35863,67000,5
35863,67028,5
35866,67039,4
35859,67025,5
35854,66992,5
35851,67031,5
35854,67013,4
35855,67032,5
35863,67019,5
35863,67026,5
35864,67024,5
35864,67022,4
35849,67049,5
35854,67017,5
35855,67010,5
35853,67006,5
35849,67048,5
35847,66998,4
35851,67004,5
35838,67004,5
35839,67020,5
35835,67002,4
35840,66998,5
35845,66983,5
35839,67000,5
35836,66997,5
35835,66995,4
35844,67000,5
35843,67001,5
35844,67008,5
35852,67017,4
35859,67024,5
35864,67026,5
35852,67029,5
35859,67033,5
35857,67035,4
35861,67041,5
35861,67044,5
35867,67046,4
35858,67049,5
35869,67054,4
35874,67053,7
35862,67050,3
35863,67059,5
35860,67053,5
35868,67058,4
35864,67046,5
35857,67052,5
35861,67045,5
35866,67042,5
35854,67041,4
35847,67035,5
35850,67021,5
35847,67018,5
35839,67010,4
35851,67022,4
35845,67017,5
35837,67011,5
35835,67011,5
35839,67008,4
35833,67001,5
35835,66999,5
35838,67003,6
35839,67007,4
35848,67014,4
35853,67022,5
35857,67032,5
35850,67036,5
35860,67048,5
35859,67042,4
35870,67045,5
35870,67059,5
35861,67057,5
35863,67049,5
35860,67043,4
35865,67048,5
35861,67041,5
35857,67032,5
35852,67027,4
35860,67034,4
35858,67033,5
35873,67056,5
35868,67055,5
35879,67065,5
35874,67073,4
35889,67074,5
35895,67087,5
35903,67097,6
35913,67109,3
35910,67114,5
35915,67125,5
35930,67130,5
35931,67147,5
35925,67140,4
35931,67147,5
35936,67154,5
35944,67162,5
35934,67163,5
35942,67163,4
35940,67172,5
35949,67162,5
35952,67166,5
35953,67158,4
35948,67163,4
35949,67175,5
35932,67170,5
35946,67175,5
35950,67179,4
35961,67182,6
35930,67178,4
35950,67180,5
35954,67182,5
35954,67174,6
35918,67182,3
35961,67173,5
35955,67178,5
35963,67177,5
35945,67171,4
35953,67171,5
35954,67155,5
35956,67152,5
35978,67163,5
35942,67150,4
35945,67153,5
35943,67135,5
35984,67144,5
35940,67141,4
35935,67139,4
35944,67145,5
35963,67143,5
35938,67139,5
35946,67143,4
35943,67151,5
35949,67139,6
35936,67137,4
35945,67142,5
35935,67137,4
35952,67137,5
35945,67156,5
35957,67161,5
35956,67172,5
35955,67133,4
35958,67177,5
35965,67187,5
35967,67182,5
35969,67158,5
35976,67192,4
35971,67194,5
35975,67193,5
35969,67203,5
35985,67200,4
35981,67204,4
35979,67202,5
35970,67234,5
35966,67198,5
35971,67198,4
35969,67185,5
35962,67215,5
35960,67160,6
35939,67141,4
35929,67115,4
35934,67118,5
35912,67097,5
35902,67078,5
35907,67066,5
35903,67063,4
35894,67050,5
35901,67061,5
35894,67060,5
35898,67060,5
35907,67068,4
35909,67070,5
35910,67084,5
35912,67083,5
35916,67099,5
35925,67097,4
35926,67117,5
35936,67125,5
35929,67132,5
35946,67139,5
35939,67147,4
35945,67157,5
35937,67139,5
35927,67122,6
35927,67099,3
35917,67094,5
35914,67069,5
35911,67053,5
35893,67045,5
35886,67035,4
35896,67034,5
35877,67032,5
35886,67034,5
35890,67027,5
35875,67025,4
35872,67016,5
35885,67021,5
35886,67025,5
35888,67040,5
35890,67039,4
35898,67045,5
35897,67049,5
35899,67049,5
35903,67065,4
35907,67068,6
35898,67065,4
35909,67074,5
35910,67072,5
35917,67076,4
35918,67083,5
35912,67080,5
35913,67082,5
35920,67093,5
35915,67091,4
35922,67094,5
35921,67094,5
35921,67093,5
35921,67095,5
35920,67092,4
35921,67088,5
35920,67098,5
35917,67102,5
35922,67093,5
35913,67086,4
35919,67080,5
35917,67091,5
35916,67078,5
35915,67077,4
35910,67077,5
35909,67063,6
35912,67063,4
35902,67066,5
35905,67063,4
35906,67061,5
35905,67060,5
35901,67058,5
35896,67046,5
35898,67053,4
35895,67045,5
35897,67035,5
35890,67034,5
35890,67035,5
35896,67035,4
35892,67046,5
35897,67049,5
35890,67055,5
35879,67055,5
35895,67052,4
35903,67063,5
35908,67062,5
35874,67068,5
35904,67074,4
35908,67069,5
35913,67081,5
35875,67081,6
35919,67082,4
35918,67084,4
35918,67107,5
35926,67104,5
35925,67091,5
35925,67093,5
35924,67095,4
35959,67098,5
35925,67109,5
35919,67096,5
35931,67109,5
35965,67093,4
35921,67098,5
35925,67093,5
35923,67094,5
35938,67085,5
35920,67090,4
35923,67093,5
35919,67091,5
35915,67085,5
35910,67084,5
35912,67083,4
35916,67076,5
35913,67059,5
35904,67076,5
35915,67071,4
35912,67073,5
35903,67027,5
35901,67071,5
35898,67053,5
35893,67044,5
35897,67031,4
35892,67046,5
35893,67035,5
35884,67026,5
35884,67048,4
35890,67032,5
35875,67024,5
35881,67016,5
35884,67066,5
35873,67011,4
35878,67014,5
35880,67011,5
35872,67040,5
35865,66999,4
35859,66999,5
35865,66988,4
35867,67002,5
35867,66999,5
35869,66986,4
35860,66996,7
35855,66985,3
35865,66988,5
35856,66981,5
35859,66980,4
35857,66972,5
35862,66978,5
35852,66972,5
35850,66963,5
35856,66964,4
35851,66959,5
35846,66962,5
35847,66959,5
35843,66939,5
35841,66950,4
35844,66947,5
35827,66942,5
35835,66936,5
35833,66938,4
35825,66937,4
35827,66927,7
35821,66920,3
35827,66911,5
35812,66899,4
35816,66886,5
35799,66858,5
35786,66852,5
35778,66819,5
35768,66804,4
35755,66791,5
35762,66801,5
35759,66792,5
35757,66805,5
35765,66797,4
35761,66803,5
35764,66821,5
35779,66817,5
35784,66838,5
35786,66829,4
35774,66839,5
35785,66843,5
35793,66858,5
35797,66877,4
35803,66887,4
35816,66901,5
35815,66907,5
35817,66912,5
35824,66912,4
35813,66897,5
35809,66891,5
35798,66871,5
35802,66868,5
35791,66854,4
35783,66838,5
35783,66830,5
35779,66825,5
35776,66840,5
35791,66846,4
35782,66862,5
35794,66856,5
35791,66860,5
35793,66875,5
35804,66878,4
35813,66887,5
35802,66900,5
35820,66903,5
35816,66916,5
35829,66921,4
35826,66935,5
35836,66942,5
35839,66944,5
35844,66952,4
35852,66967,5
35857,66962,5
35849,66974,5
35866,66986,5
35863,66991,4
35861,66987,5
35864,66999,5
35862,66993,5
35863,67000,5
35868,67001,4
35844,67001,5
35866,67002,5
35874,66997,5
35868,66998,5
35829,66999,4
35860,66991,6
35863,66992,4
35861,66996,5
35839,66987,4
35857,66979,6
35858,66980,3
35862,66971,5
35872,66975,5
35849,66977,4
35851,66972,5
35846,66968,5
35882,66963,5
35838,66956,5
35844,66955,4
35848,66959,5
35875,66952,5
35833,66961,5
35844,66950,5
35843,66964,4
35848,66959,5
35850,66968,5
35845,66969,5
35851,66970,5
35848,66964,4
35865,66979,5
35861,66988,6
35854,66993,4
35868,66972,4
35876,67008,4
35882,67022,5
35880,67031,5
35891,67013,5
35897,67057,4
35895,67067,5
35908,67079,5
35916,67078,5
35909,67093,5
35915,67107,4
35923,67122,5
35929,67157,5
35932,67140,5
35948,67160,5
35946,67158,4
35950,67217,5
35951,67165,5
35955,67171,5
35960,67176,5
35952,67188,4
35945,67157,5
35944,67151,5
35943,67147,6
35944,67140,4
35928,67137,4
35929,67130,5
35928,67128,5
35929,67129,5
35933,67132,4
35939,67126,5
35936,67144,5
35939,67132,5
35944,67147,5
35939,67156,4
35943,67155,5
35942,67168,5
35951,67170,5
35948,67178,5
35966,67181,4
35966,67195,5
35965,67198,5
35964,67200,5
35980,67206,5
35969,67211,5
35969,67191,4
35962,67194,5
35963,67181,5
35956,67171,6
35958,67162,3
35950,67164,5
35949,67172,5
35952,67174,5
35964,67178,4
35961,67196,5
35969,67208,5
35978,67215,5
35987,67241,5
35989,67251,4
35993,67253,5
36008,67279,5
36010,67288,5
36020,67307,5
36026,67315,4
36022,67326,5
36035,67332,5
36045,67347,5
36043,67342,5
36043,67348,4
36054,67351,6
36046,67341,4
36045,67355,5
36049,67358,5
36035,67349,4
36051,67349,5
36039,67351,5
36040,67348,5
36041,67351,4
36041,67351,5
36037,67370,5
36042,67358,5
36042,67357,5
36037,67356,4
36042,67345,5
36030,67338,5
36036,67334,5
36028,67326,5
36023,67323,4
36030,67312,5
36012,67305,5
36015,67299,5
36001,67284,5
36000,67286,4
35995,67279,5
35998,67275,6
35993,67267,4
35981,67271,5
35989,67269,4
35996,67271,5
35987,67258,5
35985,67275,5
35997,67276,4
35994,67286,4
35998,67292,5
36014,67307,5
36017,67326,5
36013,67336,4
36030,67353,5
36038,67368,5
36011,67385,5
36047,67396,5
36047,67408,4
36060,67415,5
36026,67429,5
36069,67437,5
36065,67438,5
36065,67429,4
36051,67437,5
36058,67437,5
36067,67425,6
36051,67423,4
36077,67411,4
36051,67406,5
36048,67398,5
36044,67384,5
36076,67375,4
36030,67364,4
36028,67358,5
36019,67349,5
36040,67357,5
36013,67342,4
36009,67339,5
36002,67327,5
36010,67325,5
35992,67327,5
36003,67319,4
36002,67327,5
35995,67317,5
35993,67325,5
35990,67318,5
35993,67318,5
35991,67289,4
35992,67319,5
35980,67300,5
35978,67296,5
35982,67244,4
35974,67271,5
35965,67260,5
35957,67256,5
35952,67252,4
35947,67245,4
35957,67243,5
35950,67246,5
35949,67293,5
35951,67252,4
35950,67247,5
35955,67259,5
35953,67306,5
35952,67263,5
35954,67259,4
35955,67251,5
35955,67276,5
35957,67258,5
35940,67251,5
35943,67253,4
35948,67249,6
35946,67234,4
35943,67231,5
35937,67230,5
35937,67233,4
35936,67237,5
35941,67227,5
35936,67233,5
35932,67235,5
35941,67229,4
35935,67236,5
35940,67239,5
35948,67245,5
35939,67240,4
35941,67237,5
35939,67227,5
35934,67221,5
35932,67221,5
35920,67209,4
35918,67200,5
35917,67199,5
35911,67193,5
35908,67168,5
35899,67168,4
35898,67155,5
35885,67142,6
35881,67135,4
35881,67131,5
35880,67116,4
35868,67120,5
35865,67124,5
35865,67118,5
35868,67117,5
35869,67123,4
35864,67123,5
35869,67124,5
35876,67128,5
35880,67139,4
35876,67142,5
35866,67142,5
35877,67143,5
35878,67143,5
35880,67147,4
35882,67149,5
35877,67139,5
35887,67154,5
35876,67146,5
35876,67144,4
35875,67144,5
35873,67133,5
35865,67118,5
35865,67129,5
35866,67120,4
35861,67115,5
35850,67110,5
35862,67123,5
35863,67109,5
35863,67117,4
35860,67114,5
35870,67110,5
35859,67113,5
35857,67116,4
35866,67123,4
35871,67131,5
35886,67138,5
35888,67157,5
35897,67171,4
35893,67175,5
35905,67194,5
35913,67201,5
35916,67208,5
35919,67213,5
35925,67217,4
35929,67216,5
35920,67204,5
35920,67206,5
35918,67195,4
35915,67193,5
35923,67195,5
35929,67204,5
35928,67217,5
35922,67217,4
35939,67220,5
35944,67236,5
35944,67240,5
35920,67251,4
35968,67258,4
35960,67275,5
35971,67287,5
35941,67301,5
35983,67309,4
35995,67318,5
35996,67334,6
35984,67334,4
36003,67338,5
36012,67347,4
36015,67349,6
36040,67354,4
36020,67365,5
36019,67375,5
36033,67378,4
36075,67384,5
36034,67383,5
36039,67397,5
36041,67416,5
36078,67411,4
36060,67425,5
36057,67435,5
36067,67441,5
36072,67437,4
36069,67452,4
36072,67444,5
36080,67462,5
36070,67427,5
36082,67457,4
36076,67457,5
36088,67464,5
36083,67432,5
36086,67473,5
36086,67463,4
36083,67458,5
36073,67406,6
36070,67442,4
36077,67450,5
36072,67444,5
36064,67429,4
36056,67421,5
36063,67420,5
36066,67410,5
36069,67461,4
36063,67426,5
36075,67426,5
36074,67438,5
36074,67490,5
36084,67447,4
36088,67459,5
36099,67469,5
36098,67490,5
36100,67495,4
36108,67508,5
36117,67512,5
36118,67527,5
36135,67540,5
36137,67540,3
36146,67550,5
36144,67568,5
36152,67576,5
36147,67577,5
36157,67584,4
36153,67585,5
36168,67574,5
36161,67578,5
36160,67580,5
36155,67558,4
36151,67546,5
36142,67531,5
36130,67519,5
36118,67498,5
36101,67481,4
36098,67467,5
36091,67453,5
36083,67433,5
36081,67433,4
36077,67429,6
36081,67427,4
36080,67431,5
36087,67444,5
36091,67451,6
36095,67451,3
36094,67459,5
36096,67471,5
36110,67494,5
36116,67502,4
36131,67522,5
36127,67534,5
36133,67541,5
36152,67550,5
36156,67583,4
36154,67590,5
36165,67605,5
36167,67590,5
36155,67581,5
36164,67572,4
36148,67563,5
36145,67551,5
36142,67541,5
36130,67515,4
36126,67512,4
36117,67500,6
36124,67494,4
36110,67504,5
36116,67505,4
36119,67506,7
36118,67515,3
36121,67520,5
36127,67515,5
36124,67524,4
36132,67533,5
36135,67539,5
36139,67537,5
36132,67549,5
36141,67553,4
36146,67556,5
36152,67576,5
36159,67587,5
36159,67583,5
36168,67600,4
36168,67611,5
36179,67608,5
36180,67616,5
36182,67619,4
36180,67615,4
36178,67617,5
36183,67621,6
36185,67626,4
36180,67618,4
36187,67626,5
36178,67622,5
36175,67631,5
36187,67631,5
36182,67634,4
36179,67628,5
36167,67630,5
36186,67631,5
36187,67628,5
36186,67630,4
36153,67623,5
36181,67623,5
36182,67619,5
36183,67633,5
36141,67619,4
36173,67611,5
36178,67616,5
36174,67620,5
36177,67615,5
36173,67606,4
36171,67599,5
36171,67603,5
36201,67599,6
36177,67601,3
36174,67594,5
36165,67593,5
36212,67590,5
36166,67599,5
36175,67615,4
36179,67612,5
36201,67622,5
36177,67618,5
36186,67626,5
36189,67633,4
36198,67644,5
36204,67638,5
36206,67663,5
36212,67660,5
36203,67647,4
36205,67671,5
36217,67683,5
36217,67683,5
36220,67648,5
36223,67689,5
36222,67698,4
36222,67696,5
36213,67657,5
36221,67690,6
36226,67695,3
36230,67694,5
36224,67699,5
36221,67682,5
36206,67675,4
36207,67673,5
36212,67704,5
36206,67665,5
36211,67658,5
36205,67660,4
36199,67687,5
36200,67647,5
36188,67630,5
36191,67633,5
36190,67646,4
36188,67619,5
36189,67614,5
36173,67622,5
36182,67600,5
36172,67590,4
36165,67578,6
36161,67564,4
36144,67533,5
36141,67520,4
36127,67498,4
36115,67488,5
36117,67471,5
36109,67468,5
36098,67461,4
36095,67451,5
36099,67461,5
36100,67462,5
36096,67464,5
36107,67467,4
36107,67474,5
36104,67476,5
36111,67482,5
36112,67508,5
36131,67514,4
36129,67523,5
36135,67531,5
36137,67535,5
36139,67546,5
36146,67558,4
36158,67559,5
36160,67561,6
36154,67566,4
36151,67556,4
36146,67543,4
36129,67514,5
36124,67496,5
36111,67487,5
36115,67482,4
36093,67449,5
36095,67444,5
36089,67441,5
36098,67451,5
36092,67440,4
36099,67446,5
36098,67450,5
36094,67450,5
36096,67458,5
36093,67460,4
36103,67455,5
36101,67468,5
36103,67475,5
36108,67476,5
36115,67484,4
36116,67494,5
36116,67495,5
36123,67494,6
36125,67493,3
36122,67496,4
36127,67499,5
36119,67508,5
36121,67506,5
36126,67513,4
36131,67512,5
36126,67508,5
36126,67509,5
36125,67512,5
36127,67514,4
36130,67515,5
36130,67513,5
36129,67518,5
36126,67515,5
36135,67520,4
36129,67522,5
36136,67521,5
36132,67516,5
36132,67521,5
36135,67514,5
36132,67508,4
36124,67508,5
36124,67505,5
36123,67499,4
36126,67493,4
36119,67492,5
36119,67500,5
36093,67495,5
36113,67486,4
36115,67490,5
36116,67488,5
36079,67484,5
36114,67477,5
36111,67478,4
36116,67475,5
36074,67479,5
36122,67485,5
36108,67485,5
36122,67493,4
36128,67508,5
36131,67509,5
36126,67508,5
36129,67520,5
36169,67528,4
36150,67544,6
36150,67551,4
36154,67550,5
36200,67561,5
36158,67561,4
36155,67565,5
36157,67575,5
36179,67575,5
36160,67571,4
36174,67576,5
36175,67571,5
36165,67576,5
36167,67579,5
36164,67575,4
36162,67565,5
36160,67538,5
36159,67558,5
36153,67564,5
36154,67558,4
36141,67503,5
36141,67540,5
36145,67530,5
36137,67524,5
36130,67492,4
36133,67505,5
36126,67503,6
36124,67491,4
36119,67510,5
36121,67483,4
36119,67480,5
36104,67469,5
36109,67516,5
36107,67461,4
36095,67456,4
36100,67445,5
36093,67475,5
36088,67449,5
36091,67432,4
36087,67429,5
36085,67437,5
36079,67433,5
36083,67427,5
36070,67426,4
36078,67419,5
36075,67412,5
36080,67420,5
36066,67411,6
36066,67406,3
36066,67395,5
36062,67399,5
36061,67396,5
36060,67390,5
36059,67392,4
36067,67384,5
36056,67388,5
36054,67380,5
36051,67382,4
36052,67377,4
36054,67375,5
36060,67376,5
36055,67363,5
36050,67356,4
36052,67352,5
36034,67343,5
36036,67332,5
36035,67337,5
36019,67317,4
36020,67304,5
36008,67282,5
36006,67284,5
35997,67283,5
36000,67274,5
36000,67273,4
36003,67273,5
36000,67277,5
36015,67281,5
36012,67298,4
36009,67303,5
36013,67303,5
36016,67316,5
36021,67319,4
36027,67320,4
36025,67333,5
36034,67333,5
36037,67347,5
36044,67354,4
36040,67352,5
36035,67349,5
36042,67353,5
36040,67348,5
36023,67322,4
36018,67303,5
36005,67297,5
36010,67287,5
35996,67282,5
35996,67274,4
35994,67261,6
35998,67267,4
36002,67280,5
36005,67290,5
36001,67295,4
36017,67302,5
36026,67318,5
36029,67321,5
36027,67341,5
36032,67349,4
36041,67371,5
36058,67387,5
36047,67386,5
36060,67403,4
36069,67413,5
36069,67419,5
36074,67428,5
36085,67426,5
36082,67431,4
36089,67436,5
36079,67446,5
36091,67450,6
36085,67448,4
36090,67447,4
36084,67446,5
36086,67457,5
36093,67455,5
36089,67451,5
36065,67440,4
36085,67448,5
36093,67448,5
36083,67439,5
36050,67441,5
36079,67440,4
36071,67431,5
36071,67426,5
36036,67406,5
36065,67403,4
36065,67401,5
36049,67389,5
36067,67384,5
36042,67368,5
36049,67365,5
36041,67358,4
36069,67358,5
36034,67340,5
36028,67340,6
36031,67346,3
36068,67342,5
36026,67340,5
36032,67341,5
36027,67343,5
36051,67348,4
36033,67350,5
36033,67359,5
36040,67372,5
36054,67372,5
36051,67381,4
36063,67393,5
36068,67415,5
36065,67389,5
36073,67422,4
36080,67434,4
36080,67442,5
36085,67411,5
36082,67462,5
36090,67464,4
36096,67465,6
36092,67451,4
36100,67467,5
36098,67482,5
36102,67480,6
36095,67496,3
36095,67469,5
36101,67465,5
36088,67472,5
36088,67504,4
36087,67453,5
36083,67454,5
36091,67448,5
36082,67477,7
36064,67427,2
36049,67418,5
36061,67408,5
36063,67408,5
36048,67393,4
36054,67384,4
36042,67365,5
36040,67356,5
36031,67351,5
36030,67347,4
36019,67335,5
36025,67330,6
36015,67324,4
36017,67320,5
36014,67315,4
36011,67310,5
35998,67297,5
35995,67289,5
35987,67276,5
35990,67268,4
35982,67250,5
35971,67245,5
35968,67228,5
35964,67225,5
35961,67221,4
35956,67211,5
35963,67207,5
35950,67210,5
35951,67208,5
35948,67207,4
35941,67204,5
35957,67215,5
35950,67215,5
35956,67215,4
35962,67218,5
35957,67221,5
35954,67218,6
35950,67228,4
35948,67212,4
35950,67203,5
35949,67197,5
35945,67192,5
35930,67184,5
35926,67184,4
35926,67162,5
35919,67156,5
35903,67122,5
35894,67111,5
35890,67089,4
35885,67088,5
35876,67077,5
35872,67069,5
35878,67076,5
35878,67079,4
35878,67092,5
35882,67105,5
35891,67103,5
35886,67106,5
35891,67124,4
35905,67137,5
35909,67166,5
35925,67168,6
35929,67190,3
35946,67205,5
35949,67216,5
35950,67230,5
35954,67247,5
35974,67254,4
35977,67266,5
35982,67283,5
35988,67296,5
35990,67288,5
35988,67297,4
35999,67310,5
35991,67307,5
35997,67309,5
36002,67310,5
35991,67311,4
35998,67308,5
35995,67313,5
36015,67310,5
35991,67298,4
35996,67302,5
35985,67298,4
35981,67285,5
35982,67273,5
35979,67269,4
35972,67254,5
35941,67246,5
35967,67230,5
35950,67226,5
35943,67226,4
35910,67208,5
35941,67200,5
35927,67189,5
35935,67189,5
35896,67184,4
35941,67187,5
35922,67185,5
35933,67177,5
35944,67199,5
35938,67192,4
35935,67205,5
35945,67213,5
35985,67232,5
35958,67232,4
35965,67248,4
35974,67271,6
36017,67284,4
35974,67288,5
35981,67310,4
35997,67321,5
36022,67319,5
36003,67332,5
36013,67353,5
36014,67348,4
36019,67347,5
36016,67358,5
36020,67370,5
36025,67369,5
36024,67337,4
36012,67359,5
36014,67351,5
36007,67348,5
35998,67284,5
35997,67316,4
35996,67303,5
35977,67279,5
35973,67235,5
35958,67238,5
35954,67227,4
35947,67211,5
35937,67225,6
35919,67187,4
35926,67176,4
35915,67177,4
35919,67222,5
35922,67175,5
35909,67168,5
35915,67170,4
35920,67199,5
35916,67169,5
35915,67166,5
35909,67159,5
35913,67160,4
35911,67150,5
35909,67155,5
35913,67141,5
35904,67147,5
35897,67151,4
35908,67145,5
35897,67133,5
35894,67124,5
35890,67117,5
35889,67101,4
35888,67095,5
35881,67097,5
35881,67090,5
35882,67087,4
35885,67108,4
35900,67112,5
35896,67130,5
35901,67133,5
35901,67141,4
35905,67140,5
35916,67151,5
35907,67160,5
35921,67166,5
35923,67177,4
35939,67192,5
35945,67192,5
35939,67203,5
35943,67214,5
35946,67219,4
35949,67224,5
35950,67237,5
35957,67242,5
35967,67242,5
35968,67248,5
35967,67247,4
35977,67256,5
35978,67253,5
35970,67269,4
35975,67264,4
35981,67262,5
35984,67269,5
35980,67271,5
35978,67264,4
35980,67265,5
35972,67257,5
35972,67246,5
35967,67244,5
35954,67231,4
35967,67227,5
35962,67223,5
35962,67228,5
35946,67216,5
35952,67202,4
35945,67190,5
35941,67184,5
35949,67175,5
35932,67180,5
35927,67173,4
35936,67177,6
35933,67171,4
35932,67173,5
35937,67185,5
35943,67190,4
35945,67183,5
35942,67199,5
35951,67196,5
35952,67208,4
35949,67209,4
35950,67218,5
35964,67220,5
35965,67225,5
35966,67237,4
35961,67234,5
35973,67242,5
35975,67253,5
35978,67251,5
35982,67263,4
35989,67264,5
35989,67268,5
35989,67261,5
35986,67260,5
35981,67266,4
35986,67266,5
35988,67265,6
35967,67273,4
35990,67255,5
35984,67250,4
35977,67241,5
35939,67229,5
35956,67218,5
35959,67209,4
35944,67191,4
35899,67162,5
35936,67149,5
35918,67135,5
35918,67126,4
35919,67118,5
35910,67103,5
35897,67107,5
35895,67098,5
35936,67096,4
35912,67115,5
35903,67114,5
35911,67124,5
35951,67136,5
35920,67135,4
35929,67146,5
35927,67143,5
35942,67147,5
35931,67161,5
35933,67164,4
35924,67159,5
35940,67157,5
35922,67158,5
35923,67148,5
35922,67154,4
35916,67095,5
35900,67111,5
35894,67086,5
35888,67080,5
35881,67028,4
35878,67047,5
35866,67046,5
35868,67044,5
35871,67024,4
35879,67056,5
35870,67064,5
35879,67066,5
35886,67103,5
35894,67085,5
35899,67096,3
35900,67102,5
35912,67159,5
35917,67127,5
35921,67139,4
35929,67155,5
35930,67198,5
35939,67172,5
35950,67175,5
35946,67186,4
35956,67206,5
35963,67205,5
35963,67215,5
35969,67225,4
35966,67220,4
35970,67232,5
35973,67236,5
35982,67235,5
35981,67246,4
35981,67242,5
35982,67247,6
35978,67254,4
35989,67253,5
35984,67257,4
35981,67250,7
35984,67250,3
35985,67245,5
35980,67237,5
35970,67233,4
35967,67224,5
35964,67225,5
35963,67219,5
35959,67203,5
35959,67204,4
35956,67197,5
35951,67197,5
35954,67185,5
35953,67194,4
35946,67175,4
35950,67187,5
35943,67179,5
35950,67178,5
35941,67183,4
35950,67179,5
35951,67194,5
35946,67184,6
35955,67193,4
35958,67194,4
35952,67203,5
35969,67210,5
35958,67214,5
35961,67215,5
35970,67231,4
35970,67224,5
35986,67240,5
35978,67243,5
35974,67236,5
35988,67240,4
35983,67246,5
35980,67247,5
35980,67261,5
35990,67267,5
35985,67259,4
35990,67257,5
35988,67255,5
35984,67257,5
35980,67260,5
35982,67252,4
35983,67249,5
35988,67250,5
35975,67243,6
35972,67235,3
35981,67234,5
35965,67219,5
35966,67209,5
35954,67202,5
35958,67193,4
35952,67187,5
35946,67186,5
35938,67179,5
35934,67164,5
35938,67157,4
35932,67154,5
35934,67145,5
35922,67142,5
35922,67142,5
35928,67135,4
35923,67115,5
35922,67120,5
35909,67115,5
35909,67105,4
35896,67090,5
35899,67075,4
35900,67075,5
35888,67062,5
35862,67065,6
35883,67071,3
35903,67073,5
35900,67086,5
35862,67102,5
35913,67096,4
35914,67108,5
35916,67112,5
35878,67128,5
35916,67120,5
35911,67126,4
35922,67136,5
35931,67143,5
35937,67137,5
35938,67147,5
35940,67151,4
35971,67156,5
35938,67158,5
35942,67163,5
35936,67146,4
35971,67125,4
35913,67115,6
35905,67090,4
35896,67081,5
35904,67062,4
35884,67055,5
35876,67049,5
35876,67048,5
35882,67052,5
35881,67069,4
35888,67066,5
35886,67074,5
35900,67053,5
35906,67087,5
35902,67099,4
35911,67111,5
35912,67084,5
35924,67133,5
35926,67145,5
35931,67150,5
35929,67131,4
35940,67169,5
35946,67176,5
35950,67185,5
35949,67210,4
35958,67190,5
35965,67200,6
35964,67203,5
35961,67238,3
35962,67210,4
35966,67219,5
35971,67217,5
35970,67246,5
35967,67217,4
35973,67213,5
35972,67210,5
35973,67225,5
35970,67215,5
35971,67209,4
35971,67209,5
35962,67202,5
35965,67204,5
35954,67187,5
35951,67181,4
35954,67179,5
35943,67162,5
35937,67158,5
35938,67155,5
35939,67152,4
35934,67148,5
35928,67145,5
35923,67135,6
35921,67124,3
35927,67124,4
35921,67117,5
35922,67115,5
35911,67109,5
35924,67115,4
35919,67108,5
35911,67113,5
35911,67108,5
35914,67109,5
35909,67128,4
35926,67141,5
35925,67142,5
35932,67135,5
35929,67145,5
35925,67133,4
35925,67128,5
35918,67133,5
35916,67127,5
35919,67127,5
35925,67124,5
35911,67114,4
35909,67118,5
35905,67108,5
35916,67110,5
35908,67112,4
35906,67103,5
35904,67102,5
35901,67087,5
35895,67081,4
35896,67069,5
35879,67063,5
35879,67039,5
35864,67027,5
35857,67011,4
35848,66984,5
35831,66967,5
35823,66954,5
35816,66939,5
35814,66929,4
35804,66918,5
35809,66909,5
35805,66904,5
35802,66909,5
35811,66916,4
35815,66927,6
35811,66931,4
35825,66942,5
35829,66943,5
35822,66956,4
35835,66962,5
35830,66970,5
35843,66977,5
35838,66977,4
35835,66976,4
35842,66981,5
35841,66981,5
35844,66984,5
35845,66981,4
35842,66966,5
35824,66957,5
35817,66938,5
35804,66908,5
35799,66888,4
35791,66871,5
35772,66852,5
35763,66840,5
35759,66844,5
35763,66834,4
35738,66835,5
35764,66836,6
35764,66849,4
35772,66863,5
35738,66859,4
35771,66865,5
35777,66873,5
35781,66890,5
35755,66893,4
35791,66903,4
35800,66925,5
35815,66929,5
35822,66932,5
35813,66939,4
35821,66955,5
35826,66954,5
35866,66952,5
35832,66959,5
35840,66971,4
35839,66973,5
35885,66981,5
35842,66976,5
35836,66985,5
35842,66977,4
35862,66988,5
35832,66981,5
35840,66988,5
35842,66984,5
35852,66983,4
35850,66978,5
35844,66970,5
35839,66966,5
35830,66929,4
35823,66949,4
35825,66941,5
35818,66923,5
35815,66880,5
35804,66914,4
35813,66908,5
35803,66914,5
35805,66883,5
35806,66903,5
35796,66908,4
35796,66902,6
35797,66929,4
35804,66911,5
35806,66916,5
35809,66914,6
35804,66964,3
35815,66920,5
35814,66932,5
35822,66943,5
35815,66981,4
35823,66959,5
35829,66956,5
35839,66970,5
35837,66988,4
35838,66978,4
35847,66982,5
35844,66984,5
35850,66992,5
35854,66992,4
35849,66989,5
35849,66988,5
35845,66994,5
35854,66996,5
35853,66992,4
35845,66987,5
35838,66986,5
35855,66989,5
35852,66980,5
35837,66982,4
35842,66983,6
35835,66981,4
35837,66973,5
35841,66965,5
35822,66948,4
35826,66945,5
35828,66941,5
35814,66930,5
35815,66928,5
35818,66927,4
35800,66910,5
35803,66906,5
35802,66908,5
35796,66897,4
35791,66891,5
35794,66889,5
35792,66873,5
35778,66872,5
35782,66870,4
35786,66865,5
35773,66857,5
35784,66854,5
35773,66853,5
35776,66845,4
35763,66841,5
35764,66835,5
35766,66842,5
35769,66826,5
35768,66840,4
35753,66821,5
35755,66826,5
35756,66828,5
35754,66831,5
35750,66821,4
35749,66821,5
35759,66825,5
35758,66829,5
35753,66825,4
35759,66823,4
35745,66820,5
35763,66815,5
35753,66816,5
35750,66811,4
35751,66815,4
35748,66803,5
35748,66807,5
35741,66801,6
35747,66797,3
35741,66787,5
35741,66787,5
35736,66792,5
35734,66781,5
35734,66786,4
35737,66775,5
35736,66776,5
35730,66778,5
35726,66774,5
35723,66770,4
35728,66764,5
35725,66763,5
35724,66758,5
35715,66760,5
35722,66750,4
35708,66731,5
35705,66728,5
35695,66719,5
35696,66706,4
35687,66692,6
35678,66679,4
35656,66674,5
35677,66662,5
35672,66665,6
35672,66673,3
35652,66679,5
35683,66683,5
35687,66681,5
35686,66688,4
35649,66693,5
35693,66707,5
35694,66717,5
35695,66725,5
35704,66725,4
35708,66738,5
35715,66742,5
35706,66749,5
35754,66747,5
35716,66763,4
35715,66769,5
35723,66755,5
35745,66751,5
35705,66733,4
35694,66700,4
35677,66671,6
35680,66647,4
35653,66643,5
35638,66607,4
35619,66585,7
35620,66576,3
35617,66578,5
35615,66592,5
35612,66590,4
35619,66568,5
35624,66607,5
35622,66614,5
35623,66612,5
35627,66577,4
35625,66621,5
35634,66625,5
35641,66629,5
35628,66618,5
35631,66639,4
35639,66649,5
35643,66652,5
35656,66670,5
35648,66662,4
35645,66670,4
35652,66668,5
35655,66720,6
35662,66681,4
35661,66676,4
35673,66677,5
35671,66730,5
35664,66686,5
35667,66690,5
35666,66687,4
35668,66707,5
35671,66695,5
35674,66700,5
35681,66702,5
35671,66704,4
35672,66693,5
35681,66704,5
35673,66697,5
35671,66690,5
35673,66689,4
35674,66694,5
35664,66704,5
35681,66690,5
35675,66696,5
35675,66686,4
35679,66689,5
35673,66689,5
35676,66690,6
35677,66685,3
35671,66692,5
35679,66687,5
35671,66692,5
35682,66697,5
35684,66696,4
35678,66700,5
35676,66703,5
35690,66713,5
35698,66724,5
35707,66730,4
35713,66736,5
35708,66754,5
35719,66766,5
35716,66766,5
35725,66775,4
35726,66780,5
35728,66786,5
35731,66790,5
35730,66786,5
35727,66800,5
35741,66790,4
35741,66809,5
35741,66803,5
35737,66806,6
35742,66798,3
35741,66800,5
35738,66800,5
35731,66791,5
35736,66777,4
35729,66785,5
35729,66772,5
35722,66767,5
35722,66765,5
35715,66748,4
35702,66743,5
35708,66741,5
35715,66738,5
35698,66732,5
35698,66721,4
35693,66721,5
35696,66713,5
35687,66708,5
35691,66698,5
35681,66704,4
35679,66698,6
35677,66684,4
35690,66680,5
35671,66665,4
35666,66666,4
35666,66660,5
35670,66665,5
35666,66662,5
35680,66664,4
35678,66674,5
35672,66680,5
35674,66680,5
35677,66681,5
35692,66694,4
35685,66705,5
35690,66707,5
35687,66714,5
35697,66718,5
35695,66714,4
35693,66720,5
35700,66718,5
35698,66716,5
35683,66723,5
35688,66717,4
35694,66714,5
35686,66704,6
35644,66690,4
35663,66656,5
35658,66649,4
35651,66646,5
35608,66620,5
35647,66622,5
35632,66610,4
35639,66614,5
35640,66618,5
35641,66631,5
35660,66639,5
35660,66649,4
35703,66653,5
35664,66671,5
35676,66688,5
35683,66698,5
35739,66719,4
35697,66730,5
35711,66754,5
35716,66766,5
35745,66776,5
35738,66784,4
35743,66799,5
35740,66797,5
35744,66809,6
35743,66798,4
35738,66795,4
35744,66810,5
35750,66783,5
35745,66811,5
35749,66812,4
35751,66798,4
35751,66760,5
35754,66809,5
35748,66803,5
35738,66804,5
35752,66763,4
35745,66805,8
35750,66792,2
35739,66787,5
35736,66788,4
35735,66771,5
35732,66756,5
35731,66742,5
35716,66786,5
35721,66739,5
35715,66732,4
35704,66720,5
35704,66755,5
35703,66720,5
35701,66712,4
35709,66714,5
35696,66722,5
35699,66709,5
35699,66717,4
35700,66717,4
35697,66719,5
35700,66719,5
35704,66726,5
35713,66735,4
35711,66733,5
35710,66746,5
35725,66759,5
35730,66771,5
35732,66774,4
35740,66781,5
35743,66791,5
35747,66795,5
35737,66797,5
35750,66793,4
35744,66799,6
35751,66796,4
35753,66805,5
35754,66805,5
35751,66811,4
35750,66805,5
35747,66801,5
35750,66800,5
35748,66800,5
35742,66795,4
35741,66785,5
35735,66776,5
35735,66773,5
35735,66759,4
35722,66751,4
35727,66748,5
35710,66746,5
35713,66731,5
35699,66727,4
35702,66724,5
35699,66716,5
35689,66704,5
35694,66702,5
35690,66697,4
35689,66689,5
35685,66688,6
35689,66697,4
35693,66689,5
35676,66681,4
35677,66688,5
35677,66671,5
35678,66679,5
35669,66665,5
35675,66660,4
35663,66651,5
35660,66641,5
35662,66639,5
35655,66630,4
35649,66619,4
35652,66618,5
35654,66614,5
35651,66618,5
35655,66626,4
35650,66626,5
35662,66628,5
35660,66632,5
35658,66648,5
35660,66645,4
35670,66666,5
35676,66668,5
35678,66671,5
35671,66669,5
35673,66679,4
35679,66689,5
35686,66681,5
35681,66694,5
35692,66689,5
35680,66679,4
35682,66684,5
35681,66666,5
35667,66647,5
35662,66640,5
35651,66619,4
35647,66612,5
35636,66602,5
35637,66595,5
35627,66598,4
35621,66599,5
35646,66601,5
35647,66615,5
35651,66631,5
35632,66639,5
35662,66658,4
35671,66666,5
35681,66680,5
35653,66697,5
35695,66709,4
35704,66720,5
35709,66735,5
35706,66753,5
35725,66753,5
35732,66768,4
35738,66780,5
35773,66780,5
35736,66792,5
35753,66799,5
35750,66803,4
35797,66804,5
35752,66809,5
35754,66811,5
35750,66817,4
35776,66810,4
35751,66816,5
35754,66813,5
35746,66807,5
35758,66801,4
35750,66803,6
35751,66807,3
35753,66801,5
35745,66766,5
35736,66781,4
35735,66769,5
35734,66757,5
35715,66699,5
35711,66732,5
35707,66723,4
35701,66719,5
35696,66678,5
35688,66701,5
35692,66689,5
35683,66695,5
35684,66707,4
35680,66689,5
35682,66687,5
35695,66676,4
35685,66733,4
35680,66682,5
35686,66688,6
35687,66694,4
35692,66739,4
35692,66705,5
35687,66704,5
35687,66706,5
35693,66731,5
35697,66717,4
35697,66722,5
35703,66726,5
35709,66726,5
35704,66726,5
35705,66720,4
35700,66722,5
35693,66717,5
35694,66710,5
35696,66708,5
35692,66704,4
35683,66686,5
35676,66673,5
35656,66646,5
35639,66620,5
35619,66597,4
35601,66547,5
35574,66514,5
35552,66478,6
35537,66447,3
35514,66411,5
35503,66388,5
35480,66351,5
35469,66327,5
35454,66304,4
35440,66281,5
35439,66277,5
35434,66262,5
35432,66252,5
35418,66252,4
35428,66266,5
35431,66257,5
35428,66261,5
35432,66267,5
35439,66273,4
35441,66282,5
35447,66282,5
35437,66291,5
35448,66288,5
35447,66293,5
35456,66300,4
35462,66308,5
35464,66310,5
35459,66304,6
35450,66314,3
35447,66298,5
35441,66274,5
35433,66249,5
35413,66232,4
35407,66236,5
35411,66219,5
35406,66213,5
35394,66214,5
35411,66221,4
35404,66216,5
35404,66232,5
35408,66240,5
35422,66240,5
35421,66254,4
35442,66262,5
35442,66279,5
35444,66294,5
35458,66304,5
35460,66332,4
35477,66346,6
35485,66367,4
35489,66372,5
35497,66388,4
35509,66411,4
35515,66428,5
35527,66448,5
35537,66466,5
35551,66483,4
35568,66508,5
35570,66512,5
35580,66525,5
35588,66536,5
35590,66537,4
35589,66538,5
35594,66535,5
35583,66540,5
35598,66549,5
35590,66553,4
35598,66549,5
35585,66542,5
35596,66537,5
35583,66534,5
35581,66517,4
35554,66530,5
35578,66509,6
35579,66512,4
35575,66507,5
35526,66505,4
35572,66497,5
35567,66491,5
35574,66488,5
35553,66503,4
35577,66494,5
35569,66502,5
35579,66500,5
35604,66502,5
35584,66511,4
35583,66519,5
35597,66534,5
35638,66547,5
35608,66563,5
35620,66579,4
35616,66587,5
35655,66603,5
35635,66622,5
35643,66631,5
35663,66645,4
35666,66657,5
35673,66671,5
35680,66686,6
35685,66692,4
35692,66681,4
35687,66703,5
35699,66708,5
35710,66708,5
35700,66687,4
35700,66724,4
35701,66722,5
35699,66712,5
35696,66662,5
35679,66695,4
35679,66674,5
35680,66660,5
35676,66658,5
35664,66639,5
35653,66619,4
35656,66619,5
35647,66656,5
35650,66610,5
35650,66611,5
35651,66623,5
35649,66667,4
35658,66632,5
35658,66636,5
35662,66636,5
35670,66667,4
35670,66665,5
35677,66663,5
35674,66667,5
35669,66672,4
35684,66680,4
35675,66677,5
35685,66683,5
35672,66682,5
35685,66677,4
35681,66665,5
35673,66652,5
35655,66631,5
35651,66620,5
35648,66608,4
35641,66595,5
35631,66577,5
35632,66582,5
35643,66597,5
35640,66598,4
35649,66602,6
35651,66620,4
35648,66614,5
35664,66620,5
35662,66643,4
35660,66658,5
35677,66675,5
35682,66687,5
35691,66705,4
35703,66711,4
35704,66723,5
35716,66736,5
35722,66751,5
35729,66761,4
35728,66775,5
35731,66786,5
35743,66790,5
35749,66808,5
35749,66802,4
35755,66811,5
35759,66813,5
35762,66819,5
35757,66813,5
35762,66814,4
35752,66821,5
35751,66818,6
35768,66828,4
35760,66821,5
35763,66812,4
35759,66809,5
35748,66802,5
35745,66794,5
35739,66788,5
35742,66776,4
35725,66777,5
35729,66770,5
35728,66763,5
35718,66752,4
35714,66743,5
35716,66745,5
35717,66734,5
35701,66728,5
35706,66721,4
35700,66718,5
35707,66710,5
35706,66730,5
35706,66731,5
35703,66719,4
35701,66732,5
35704,66722,5
35710,66731,6
35717,66745,4
35717,66745,4
35717,66759,5
35724,66759,5
35728,66767,5
35725,66773,5
35737,66779,4
35744,66780,5
35735,66794,5
35743,66801,5
35744,66796,4
35747,66799,4
35742,66801,5
35752,66813,5
35746,66809,5
35747,66810,4
35742,66802,5
35747,66802,5
35724,66804,5
35738,66789,5
35736,66796,5
35731,66778,4
35695,66776,5
35723,66762,5
35723,66756,5
35715,66744,4
35696,66734,5
35711,66739,5
35700,66726,5
35704,66721,5
35720,66709,4
35697,66707,5
35692,66696,5
35688,66690,5
35719,66676,4
35678,66658,4
35663,66654,5
35666,66639,5
35681,66635,5
35654,66612,4
35649,66615,5
35646,66616,6
35658,66619,4
35650,66614,5
35653,66622,4
35654,66629,6
35660,66616,4
35661,66642,5
35673,66657,5
35668,66662,4
35669,66633,7
35671,66673,3
35680,66679,5
35683,66681,5
35684,66659,4
35689,66705,5
35697,66712,5
35689,66717,5
35696,66718,4
35703,66712,4
35689,66694,5
35678,66681,5
35673,66695,5
35661,66643,4
35667,66649,5
35652,66620,5
35651,66673,5
35649,66621,5
35653,66624,4
35657,66644,5
35660,66663,6
35665,66656,4
35663,66664,5
35676,66673,4
35683,66689,5
35684,66697,5
35693,66713,5
35691,66711,5
35702,66728,4
35703,66743,5
35707,66754,5
35717,66762,5
35729,66773,5
35733,66775,4
35739,66786,5
35740,66798,5
35745,66809,5
35743,66811,4
35744,66822,5
35753,66817,5
35767,66834,5
35752,66834,5
35759,66829,4
35766,66836,5
35759,66837,5
35766,66842,5
35771,66839,5
35762,66840,4
35756,66844,5
35760,66840,5
35763,66833,5
35762,66826,5
35751,66819,4
35744,66813,5
35742,66796,5
35744,66788,5
35737,66790,5
35741,66782,4
35734,66772,5
35728,66773,5
35721,66765,5
35720,66765,4
35715,66755,4
35706,66754,4
35705,66740,5
35708,66744,5
35707,66740,5
35714,66743,3
35718,66743,5
35716,66752,5
35718,66749,5
35709,66749,4
35719,66760,5
35725,66757,5
35718,66757,5
35730,66773,5
35729,66769,4
35722,66772,5
35734,66787,5
35734,66786,5
35735,66796,5
35738,66802,4
35735,66796,5
35742,66805,5
35742,66806,5
35740,66807,4
35748,66798,4
35743,66802,6
35746,66813,4
35746,66812,5
35742,66804,4
35742,66801,7
35733,66787,3
35733,66788,5
35734,66783,5
35723,66776,4
35725,66774,5
35722,66760,5
35723,66753,5
35711,66740,5
35716,66733,4
35699,66727,5
35690,66713,5
35691,66693,5
35676,66690,5
35663,66677,4
35675,66658,5
35655,66640,5
35653,66637,5
35619,66630,5
35648,66623,4
35648,66625,5
35654,66637,6
35615,66638,4
35653,66647,4
35672,66648,5
35672,66664,5
35655,66672,5
35676,66678,5
35679,66685,4
35682,66694,5
35712,66701,5
35692,66713,5
35694,66721,5
35698,66723,4
35744,66730,5
35702,66735,5
35698,66734,5
35698,66726,5
35722,66723,4
35690,66699,5
35672,66685,5
35669,66670,5
35675,66652,5
35661,66636,4
35637,66632,5
35640,66626,5
35651,66615,6
35644,66636,3
35656,66643,4
35662,66653,5
35657,66631,5
35664,66675,5
35668,66682,4
35669,66688,5
35689,66660,5
35688,66714,5
35700,66725,5
35706,66740,5
35713,66739,4
35713,66764,5
35719,66770,5
35731,66780,5
35733,66814,4
35733,66792,5
35742,66805,5
35742,66814,5
35748,66857,5
35751,66821,5
35742,66824,4
35752,66824,5
35752,66856,5
35753,66828,6
35761,66829,3
35759,66831,5
35757,66845,5
35753,66830,5
35764,66847,4
35760,66835,5
35752,66833,5
35754,66822,5
35758,66825,5
35747,66816,4
35748,66819,5
35738,66792,5
35740,66792,5
35735,66785,5
35728,66786,4
35731,66778,5
35723,66775,5
35722,66766,5
35729,66760,5
35720,66756,4
35715,66744,6
35703,66748,4
35705,66753,5
35705,66740,5
35709,66754,4
35717,66759,5
35712,66745,5
35731,66762,5
35721,66763,4
35728,66773,5
35727,66784,5
35734,66789,5
35735,66794,5
35745,66806,4
35748,66811,5
35745,66816,5
35754,66819,5
35759,66830,5
35756,66833,4
35760,66850,5
35763,66844,5
35773,66844,5
35768,66856,5
35765,66853,4
35766,66845,5
35765,66837,6
35759,66830,4
35749,66813,5
35743,66805,4
35732,66789,5
35719,66764,5
35718,66747,5
35696,66730,4
35693,66701,4
35686,66688,5
35670,66665,5
35659,66649,5
35658,66649,4
35654,66648,5
35652,66634,5
35656,66643,5
35653,66633,5
35656,66636,4
35650,66652,5
35659,66649,5
35651,66639,5
35640,66634,5
35636,66626,4
35622,66605,5
35633,66605,5
35618,66604,6
35617,66588,4
35609,66586,4
35603,66581,5
35611,66568,5
35601,66559,5
35598,66541,4
35573,66510,4
35563,66497,5
35554,66479,5
35544,66449,5
35536,66442,4
35529,66428,5
35528,66428,5
35526,66435,5
35531,66441,5
35538,66456,4
35518,66455,5
35548,66461,5
35552,66484,5
35556,66495,5
35532,66512,5
35579,66528,4
35588,66548,5
35596,66562,5
35581,66581,5
35628,66606,4
35634,66612,5
35627,66638,5
35669,66660,5
35660,66671,5
35671,66684,4
35670,66704,5
35728,66719,5
35686,66728,5
35693,66740,4
35700,66736,4
35744,66755,5
35712,66751,5
35711,66764,5
35710,66756,4
35723,66773,5
35716,66773,5
35725,66776,5
35723,66781,5
35718,66755,4
35715,66760,6
35710,66755,4
35712,66739,5
35699,66713,5
35701,66747,4
35701,66728,5
35683,66724,5
35687,66686,5
35686,66704,5
35690,66700,4
35687,66698,5
35677,66698,5
35677,66698,5
35678,66695,4
35687,66703,4
35675,66737,5
35674,66703,5
35688,66709,5
35686,66716,4
35687,66762,5
35693,66734,5
35697,66729,5
35702,66751,5
35711,66784,4
35722,66773,5
35718,66771,6
35731,66789,4
35731,66797,5
35729,66802,4
35736,66809,5
35736,66812,5
35746,66815,5
35745,66826,5
35747,66822,4
35749,66828,5
35744,66827,5
35747,66830,5
35755,66825,4
35744,66826,4
35754,66831,5
35743,66823,5
35745,66820,5
35733,66811,4
35734,66814,5
35740,66802,5
35737,66806,5
35728,66790,5
35726,66789,4
35720,66792,5
35732,66780,5
35718,66773,5
35719,66756,5
35715,66763,4
35711,66747,5
35708,66746,5
35701,66746,5
35707,66740,5
35703,66729,4
35691,66714,5
35682,66711,5
35681,66701,5
35679,66686,5
35670,66679,4
35656,66664,5
35656,66652,5
35646,66634,5
35646,66630,4
35639,66634,5
35652,66632,5
35651,66631,5
35654,66649,5
35653,66652,5
35655,66664,4
35670,66663,5
35677,66673,5
35674,66671,5
35682,66681,4
35670,66686,5
35686,66684,5
35674,66689,5
35671,66690,5
35680,66697,4
35676,66692,5
35678,66696,5
35679,66676,5
35669,66668,5
35662,66655,4
35646,66631,5
35627,66591,5
35615,66577,5
35601,66564,4
35598,66540,4
35590,66520,5
35581,66529,5
35585,66532,5
35600,66541,4
35614,66559,6
35613,66562,4
35616,66578,5
35625,66602,5
35641,66622,4
35654,66646,5
35660,66665,5
35662,66683,5
35677,66698,5
35686,66715,4
35695,66736,5
35706,66750,5
35708,66769,5
35725,66783,5
35731,66801,4
35737,66814,5
35723,66822,5
35750,66834,5
35760,66834,4
35749,66838,4
35713,66833,5
35742,66837,5
35757,66827,5
35752,66829,4
35728,66833,5
35748,66821,6
35745,66821,4
35748,66818,5
35772,66825,4
35743,66820,5
35746,66819,5
35736,66804,5
35775,66800,5
35729,66788,4
35726,66781,5
35726,66777,5
35748,66774,5
35723,66773,5
35710,66768,4
35716,66753,5
35720,66762,5
35705,66753,5
35706,66736,10
35703,66746,4
35695,66724,5
35701,66737,6
35699,66740,3
35704,66737,5
35696,66706,5
35701,66751,5
35702,66755,5
35703,66752,4
35700,66723,5
35713,66768,5
35717,66769,5
35720,66775,5
35727,66769,4
35721,66790,5
35739,66803,5
35736,66801,5
35736,66833,5
35736,66803,4
35740,66817,5
35739,66819,5
35746,66868,5
35742,66828,5
35751,66822,5
35749,66820,4
35755,66845,5
35741,66814,5
35746,66813,6
35738,66802,3
35729,66800,5
35732,66783,5
35718,66763,5
35707,66752,4
35699,66743,5
35690,66727,5
35690,66704,5
35692,66702,5
35677,66695,4
35674,66682,5
35676,66694,5
35677,66689,5
35674,66697,5
35676,66699,4
35679,66700,5
35690,66716,5
35681,66706,5
35687,66720,5
35686,66718,4
35705,66736,6
35696,66730,4
35695,66736,5
35703,66745,4
35701,66747,6
35704,66733,3
35694,66733,5
35694,66722,5
35686,66711,4
35673,66702,5
35672,66693,5
35676,66685,5
35661,66674,5
35665,66658,4
35664,66671,5
35660,66667,5
35667,66684,5
35677,66694,5
35674,66713,4
35685,66714,5
35694,66730,5
35705,66745,5
35701,66751,5
35712,66770,4
35718,66793,5
35729,66808,6
35744,66822,4
35744,66827,5
35754,66839,4
35762,66852,5
35765,66868,5
35774,66885,5
35787,66898,4
35782,66897,5
35781,66910,5
35792,66909,5
35787,66910,5
35796,66918,4
35799,66933,5
35800,66918,5
35806,66926,5
35805,66931,5
35800,66933,4
35807,66928,5
35812,66939,5
35807,66927,5
35805,66930,5
35786,66918,4
35783,66907,5
35785,66899,5
35795,66894,6
35772,66879,4
35775,66882,4
35764,66868,5
35769,66862,5
35761,66852,5
35765,66837,4
35755,66837,5
35751,66836,5
35753,66843,5
35757,66833,5
35750,66839,4
35745,66834,5
35754,66838,5
35750,66835,5
35755,66843,5
35733,66845,4
35764,66848,5
35760,66868,5
35769,66865,5
35743,66881,5
35775,66888,5
35781,66902,4
35790,66905,5
35771,66906,5
35801,66928,6
35795,66929,3
35804,66935,5
35825,66942,5
35814,66955,5
35822,66960,4
35824,66965,4
35859,66965,5
35817,66966,5
35821,66970,5
35820,66966,4
35856,66963,5
35815,66957,5
35817,66957,5
35803,66940,5
35806,66917,4
35791,66905,5
35781,66885,5
35769,66872,5
35761,66828,5
35747,66829,4
35739,66816,6
35740,66799,4
35731,66766,5
35735,66800,5
35735,66800,4
35739,66800,5
35735,66771,5
35742,66806,5
35738,66820,5
35738,66817,4
35744,66817,5
35751,66829,5
35750,66831,5
35754,66833,4
35755,66873,5
35760,66845,5
35758,66850,5
35755,66853,5
35748,66890,4
35747,66830,5
35747,66822,5
35733,66800,5
35722,66820,5
35725,66781,4
35714,66767,5
35705,66762,6
35705,66772,4
35711,66773,5
35722,66770,4
35721,66790,5
35721,66797,5
35730,66812,5
35741,66817,5
35749,66828,4
35757,66844,5
35758,66862,5
35775,66875,5
35776,66888,4
35787,66911,5
35794,66921,5
35805,66933,5
35800,66940,5
35820,66964,4
35821,66962,5
35819,66981,5
35821,66985,5
35838,66996,5
35829,66995,4
35837,67001,5
35843,67010,5
35836,67014,6
35835,67008,4
35850,67011,4
35846,67018,5
35845,67027,5
35853,67024,5
35857,67022,5
35851,67028,4
35854,67030,5
35852,67016,5
35849,67003,5
35842,67003,4
35837,66995,4
35840,66996,5
35831,66985,5
35825,66979,5
35815,66972,4
35814,66968,5
35809,66953,5
35810,66953,5
35804,66944,5
35799,66937,5
35795,66941,4
35803,66945,5
35807,66932,5
35808,66941,5
35801,66930,4
35792,66930,5
35796,66938,5
35803,66937,5
35802,66944,5
35812,66942,4
35816,66948,5
35818,66962,5
35821,66966,5
35807,66962,4
35808,66962,4
35821,66956,5
35817,66964,5
35810,66969,5
35820,66970,4
35823,66969,5
35821,66971,5
35824,66976,5
35827,66975,5
35821,66989,4
35819,66981,6
35818,66967,4
35821,66961,5
35814,66952,5
35811,66944,4
35798,66933,5
35789,66923,5
35795,66903,5
35774,66882,5
35769,66873,4
35760,66854,5
35749,66844,5
35757,66841,5
35745,66832,4
35743,66820,4
35716,66824,5
35742,66828,5
35746,66825,5
35744,66833,4
35715,66841,5
35754,66845,5
35757,66852,5
35755,66860,5
35742,66853,4
35768,66866,5
35769,66875,6
35762,66874,4
35789,66868,5
35773,66869,4
35767,66868,5
35751,66846,5
35790,66825,5
35740,66817,5
35734,66819,4
35732,66799,5
35755,66793,5
35725,66798,5
35728,66797,5
35732,66801,4
35741,66815,5
35734,66829,5
35742,66829,5
35751,66856,4
35748,66837,5
35765,66869,5
35770,66885,5
35787,66895,5
35777,66879,4
35796,66927,5
35801,66950,5
35806,66952,5
35815,66923,5
35821,66974,4
35828,66986,5
35832,66994,5
35830,66986,5
35829,67011,5
35834,67006,4
35833,67020,5
35836,67049,5
35840,67019,5
35853,67025,5
35840,67027,4
35841,67079,5
35851,67036,5
35858,67040,5
35854,67049,4
35857,67067,4
35863,67052,5
35858,67042,5
35851,67042,5
35850,67045,5
35850,67030,4
35857,67031,5
35851,67029,5
35846,67032,5
35841,67015,4
35837,67005,5
35838,67006,5
35834,67001,5
35831,66992,5
35827,66999,4
35828,66991,5
35831,66995,5
35828,66983,5
35827,66996,5
35829,66991,4
35831,66998,5
35832,67005,5
35838,67003,5
35836,67012,4
35845,67026,4
35843,67037,5
35852,67042,4
35852,67062,5
35858,67068,4
35874,67079,6
35873,67081,3
35878,67089,5
35885,67098,5
35881,67102,4
35878,67118,5
35892,67127,5
35888,67121,5
35886,67118,5
35888,67116,4
35887,67112,5
35886,67106,5
35875,67093,5
35876,67078,5
35867,67070,4
35863,67059,5
35859,67047,5
35849,67036,5
35841,67023,4
35833,67010,4
35831,67003,5
35829,66984,6
35816,66996,4
35826,66983,4
35821,66991,5
35818,66972,5
35820,66979,5
35817,66986,5
35814,66986,4
35820,66988,5
35826,66995,5
35823,66997,5
35824,66998,5
35829,67003,4
35826,67005,5
35823,66997,5
35817,66982,5
35811,66964,5
35799,66951,4
35806,66951,5
35797,66945,5
35795,66944,5
35786,66932,5
35785,66936,4
35794,66942,5
35795,66954,5
35804,66966,6
35812,66972,3
35812,66978,5
35816,66984,5
35820,66983,5
35824,66996,5
35825,67015,4
35828,67021,5
35830,67018,5
35836,67023,5
35829,67032,5
35841,67025,4
35833,67025,5
35838,67029,5
35803,67026,5
35824,67020,5
35833,67024,4
35831,67022,5
35796,67021,5
35831,67011,5
35830,67013,5
35831,67010,5
35800,67009,4
35825,67009,5
35821,67003,5
35823,67010,6
35854,67012,3
35832,67006,5
35829,67017,5
35828,67010,5
35869,67010,4
35830,67024,5
35825,67018,5
35820,67018,5
35859,67021,7
35833,67017,2
35831,67018,5
35822,67010,5
35832,67003,5
35821,67018,5
35827,67009,4
35814,66997,5
35819,66978,9
35811,66997,5
35816,67002,7
35799,66993,10
35818,66974,5
35826,67020,7
35826,67020,8
35822,67052,5
35820,67031,7
35828,67008,8
35830,67036,5
35834,67040,7
35840,67058,8
35840,67058,7
35842,67139,7
35834,67054,8
35839,67052,7
35833,67035,5
35822,67022,8
35822,67022,7
35842,67009,5
35811,67002,8
35796,66993,7
35803,66997,5
35806,66989,8
35803,66984,7
35803,66984,5
35798,66994,8
35807,66996,7
35796,67007,5
35818,67002,8
35828,67027,7
35840,67025,5
35808,66997,8
35808,66997,7
35798,66979,5
35786,66943,8
35783,66939,7
35769,66924,9
35765,66927,10
35765,66927,5
35773,66931,10
35760,66926,5
35766,66937,5
35766,66931,10
35775,66929,5
35775,66929,5
35768,66933,10
35777,66932,5
35769,66924,5
35765,66925,10
35774,66929,5
35793,66935,5
35771,66920,10
35771,66920,5
35771,66892,5
35771,66906,10
35776,66928,5
35783,66941,5
35781,66941,10
35777,66957,5
35779,66960,5
35795,66979,10
35796,66986,5
35807,67000,7
35817,66998,8
35817,66968,5
35815,67001,7
35843,67013,8
35850,67012,5
35825,67026,7
35841,67042,8
35841,67042,5
35841,67015,7
35847,67056,8
35849,67065,5
35852,67067,7
35850,67087,8
35864,67089,5
35893,67134,7
35893,67134,8
35894,67154,5
35903,67150,7
35869,67153,8
35906,67163,7
35911,67149,5
35916,67172,8
35916,67172,7
35942,67199,10
35919,67174,5
35911,67171,7
35899,67151,5
35930,67120,8
35930,67120,7
35897,67128,5
35896,67115,3
35894,67122,1
35896,67132,5
35880,67100,4
35886,67114,5
35877,67117,5
35888,67104,5
35887,67117,5
35891,67111,4
35885,67122,5
35895,67094,5
35901,67131,5
35904,67132,5
35895,67136,4
35906,67099,5
35893,67121,5
35880,67102,5
35885,67090,5
35880,67076,4
35869,67059,5
35859,67051,5
35857,67051,5
35849,67071,4
35857,67037,4
35850,67031,5
35850,67036,5
35850,67072,5
35843,67032,4
35849,67031,5
35844,67030,5
35837,67048,5
35857,67033,5
35847,67034,4
35847,67040,5
35858,67043,5
35860,67047,5
35861,67059,5
35870,67062,6
35871,67065,3
35861,67067,5
35876,67076,5
35879,67081,5
35874,67086,4
35886,67088,5
35880,67083,5
35881,67092,5
35887,67078,4
35883,67089,4
35887,67087,5
35890,67085,5
35893,67103,5
35895,67103,4
35888,67095,5
35893,67105,5
35899,67114,5
35892,67100,5
35885,67101,4
35889,67106,5
35891,67102,5
35887,67101,5
35887,67099,5
35894,67092,4
35889,67096,6
35889,67089,4
35879,67088,5
35889,67084,5
35887,67085,4
35878,67082,5
35891,67078,5
35888,67074,5
35885,67081,4
35873,67075,4
35875,67082,5
35875,67079,5
35882,67073,5
35879,67074,4
35875,67075,5
35882,67083,5
35873,67080,5
35878,67076,5
35886,67087,4
35884,67084,5
35877,67078,5
35882,67087,5
35889,67100,5
35890,67090,4
35889,67085,5
35881,67087,6
35891,67095,4
35891,67094,5
35893,67102,4
35889,67096,5
35898,67106,5
35899,67105,5
35889,67095,5
35894,67094,4
35895,67099,5
35898,67100,5
35893,67104,5
35891,67107,4
35898,67111,5
35894,67111,5
35889,67102,5
35898,67108,5
35889,67102,4
35889,67095,5
35884,67086,5
35885,67087,5
35879,67079,5
35881,67075,4
35880,67075,5
35880,67081,5
35883,67073,5
35884,67068,5
35878,67066,4
35860,67066,5
35871,67059,5
35878,67047,5
35876,67047,5
35851,67039,4
35866,67040,5
35866,67038,5
35860,67034,5
35817,67031,4
35846,67025,5
35853,67024,5
35840,67022,5
35840,67011,5
35841,67014,4
35843,67005,5
35847,67000,4
35867,66997,5
35835,66995,5
35839,66994,6
35838,66995,3
35875,66992,5
35829,66983,5
35834,66978,5
35830,66984,10
35863,66971,9
35831,66980,5
35824,66971,10
35827,66928,5
35827,66943,5
35781,66870,10
35781,66870,5
35767,66858,5
35763,66849,10
35731,66783,5
35749,66816,5
35743,66802,10
35743,66802,5
35770,66814,5
35765,66830,10
35753,66834,5
35753,66827,5
35760,66850,10
35767,66893,2
35776,66892,3
35778,66889,4
35789,66866,5
35791,66954,5
35791,66912,5
35784,66896,4
35784,66887,4
35777,66886,5
35773,66870,5
35768,66854,5
35750,66839,4
35752,66831,5
35753,66820,5
35742,66827,6
35757,66828,4
35753,66837,4
35751,66832,5
