RED,IR,EKG,TIME
35755,66839,9
35757,66849,8
35785,66890,5
35785,66890,7
35788,66895,8
35780,66904,5
35789,66887,7
35792,66916,8
35814,66933,5
35813,66940,7
35820,66966,8
35820,66966,5
35822,66920,7
35822,66945,8
35828,66957,9
35815,66967,8
35815,66967,5
35861,66962,7
35825,66966,8
35811,66957,5
35817,66959,7
35806,66969,8
35813,66971,5
35804,66929,7
35804,66929,8
35794,66913,5
35791,66913,7
35797,66901,8
35783,66896,7
35785,66890,5
35772,66869,8
35772,66869,7
35771,66870,5
35768,66846,8
35768,66863,7
35765,66869,9
35774,66881,10
35774,66881,9
35772,66895,8
35782,66901,7
35791,66906,10
35791,66906,8
35792,66912,5
35786,66929,8
35799,66956,7
35803,66947,9
35803,66947,10
35803,66895,5
35805,66938,8
35805,66942,7
35802,66933,9
35802,66933,10
35782,66937,9
35793,66917,10
35793,66917,9
35790,66920,10
35795,66913,5
35782,66901,5
35781,66883,10
35781,66883,5
35778,66884,5
35752,66832,15
35752,66832,5
35759,66821,10
35728,66816,5
35731,66803,5
35754,66812,10
35770,66822,5
35743,66824,7
35752,66845,7
35752,66845,1
35759,66883,5
35761,66828,4
35770,66872,5
35772,66883,5
35773,66883,5
35773,66848,5
35767,66885,4
35775,66879,5
35772,66874,5
35762,66863,6
35745,66842,3
35735,66832,5
35741,66814,5
35725,66850,5
35717,66790,5
35723,66790,4
35722,66784,5
35725,66831,5
35733,66799,5
35729,66811,5
35736,66821,4
35743,66832,5
35745,66839,5
35751,66848,5
35760,66867,5
35763,66878,4
35774,66886,5
35788,66905,5
35783,66925,5
35796,66929,5
35796,66930,5
35805,66952,4
35817,66961,5
35817,66957,5
35820,66960,4
35824,66975,5
35820,66981,5
35824,66979,5
35827,66985,5
35826,66986,4
35833,66989,5
35829,66991,5
35828,66994,5
35835,66999,5
35835,66995,4
35847,66999,5
35834,67004,5
35849,67008,5
35832,67007,5
35835,66998,4
35833,66989,5
35828,66995,5
35828,66981,5
35827,66975,5
35826,66974,4
35822,66966,6
35821,66960,4
35806,66954,5
35816,66960,4
35806,66950,4
35809,66948,5
35806,66950,5
35808,66940,5
35799,66944,4
35801,66947,5
35815,66951,5
35805,66951,5
35805,66962,5
35816,66961,4
35824,66973,5
35828,66989,5
35832,66997,5
35839,67004,5
35833,67013,4
35836,67031,5
35853,67040,5
35859,67054,5
35863,67067,5
35863,67079,4
35872,67079,5
35877,67096,6
35876,67100,4
35882,67106,4
35884,67113,4
35898,67125,5
35890,67130,5
35899,67128,5
35898,67122,4
35897,67128,5
35883,67118,5
35879,67107,5
35883,67105,5
35873,67090,4
35871,67074,5
35858,67053,5
35857,67055,5
35843,67041,5
35852,67032,4
35839,67020,5
35831,67027,5
35829,67010,5
35838,67014,5
35837,67015,4
35830,67009,5
35823,67001,5
35827,67013,5
35807,67015,4
35828,67020,4
35827,67017,5
35830,67018,5
35801,67014,5
35830,67026,4
35838,67028,5
35834,67023,5
35796,67015,5
35822,66994,5
35819,66992,4
35817,66983,5
35817,66974,5
35800,66962,5
35805,66973,5
35805,66963,4
35844,66975,5
35813,66997,5
35823,67000,5
35822,67000,5
35862,67006,5
35831,67014,4
35838,67029,5
35840,67040,5
35858,67044,5
35844,67040,4
35842,67047,5
35850,67043,5
35857,67044,5
35844,67059,4
35854,67064,5
35851,67061,5
35840,67024,5
35840,67044,5
35838,67041,4
35844,67050,5
35842,67006,5
35838,67046,5
35842,67044,5
35829,67041,5
35837,67013,4
35841,67038,5
35833,67043,5
35847,67047,5
35846,67074,4
35838,67048,6
35835,67048,4
35841,67038,5
35831,67083,5
35842,67039,4
35831,67038,5
35835,67029,5
35834,67064,5
35835,67032,4
35835,67024,4
35826,67024,5
35826,67036,5
35826,67018,5
35815,67009,4
35814,67025,5
35821,67024,5
35820,67036,5
35831,67037,5
35828,67036,4
35832,67045,5
35835,67052,5
35843,67062,5
35841,67060,5
35853,67079,4
35863,67085,5
35858,67097,5
35868,67108,5
35863,67106,5
35866,67109,4
35869,67119,5
35872,67130,5
35866,67124,5
35871,67127,4
35879,67129,4
35872,67125,5
35878,67124,5
35872,67116,5
35863,67105,4
35862,67113,5
35856,67099,5
35850,67089,5
35847,67084,5
35841,67068,5
35840,67060,4
35833,67061,5
35837,67059,5
35829,67051,6
35832,67054,3
35827,67055,5
35838,67051,5
35829,67045,5
35831,67049,5
35833,67044,4
35833,67059,5
35829,67063,5
35843,67064,5
35839,67085,4
35847,67073,4
35840,67088,5
35848,67080,5
35851,67078,5
35840,67080,4
35839,67061,5
35833,67060,5
35832,67049,5
35816,67031,5
35813,67020,4
35819,67014,6
35810,67009,4
35814,67009,5
35810,67017,5
35809,67013,6
35811,67018,3
35810,67010,5
35804,67019,5
35810,67019,5
35799,67013,4
35812,67013,5
35809,67025,5
35799,67020,5
35809,67030,5
35808,67020,4
35809,67023,5
35811,67018,5
35807,67014,5
35811,67021,4
35810,67025,5
35816,67023,5
35812,67025,5
35815,67029,5
35816,67035,4
35814,67031,5
35817,67034,6
35827,67041,4
35825,67048,5
35839,67065,4
35822,67073,5
35849,67072,5
35856,67076,5
35851,67094,5
35824,67097,4
35866,67110,5
35865,67109,5
35875,67110,5
35846,67123,5
35880,67131,4
35883,67133,5
35884,67135,5
35903,67143,5
35893,67141,4
35890,67146,4
35899,67163,5
35928,67154,5
35900,67161,5
35895,67162,4
35900,67175,5
35947,67170,5
35922,67191,6
35920,67191,4
35930,67210,4
35946,67206,5
35942,67228,5
35942,67237,5
35956,67243,5
35967,67245,4
35974,67280,5
35981,67287,5
35977,67289,5
35975,67259,5
35981,67295,4
35981,67287,5
35989,67288,5
35974,67248,5
35970,67282,4
35969,67280,4
35973,67273,5
35964,67249,5
35966,67265,5
35967,67253,5
35954,67247,4
35956,67257,5
35949,67231,5
35939,67225,6
35943,67219,3
35940,67256,5
35934,67202,5
35938,67195,5
35930,67185,5
35937,67228,4
35926,67198,5
35932,67195,5
35928,67206,5
35936,67211,5
35929,67204,4
35929,67210,5
35934,67217,5
35932,67206,5
35934,67191,5
35926,67177,4
35914,67174,5
35910,67149,5
35905,67138,5
35902,67129,4
35895,67120,6
35889,67117,4
35886,67107,5
35889,67118,5
35890,67112,4
35885,67106,5
35890,67105,5
35891,67110,5
35889,67114,5
35888,67110,4
35888,67100,5
35896,67121,5
35888,67119,5
35890,67119,5
35892,67115,4
35894,67120,5
35901,67124,5
35897,67123,5
35894,67131,5
35904,67121,4
35912,67139,5
35909,67142,5
35910,67141,5
35914,67142,4
35920,67154,4
35921,67161,6
35928,67157,4
35928,67170,5
35929,67178,4
35929,67186,5
35942,67189,5
35938,67184,5
35931,67190,5
35932,67191,4
35920,67186,5
35923,67175,5
35930,67178,5
35925,67179,5
35925,67178,4
35937,67174,5
35922,67170,5
35928,67158,5
35927,67162,5
35919,67147,4
35914,67150,5
35907,67141,5
35907,67130,5
35901,67135,4
35902,67122,4
35903,67119,5
35898,67108,6
35897,67118,4
35895,67125,4
35903,67123,5
35904,67117,5
35903,67115,5
35893,67111,5
35900,67116,4
35895,67120,5
35897,67116,5
35901,67122,5
35897,67120,5
35890,67118,4
35902,67116,5
35902,67125,5
35904,67128,5
35903,67134,5
35908,67136,4
35910,67138,5
35902,67141,5
35908,67145,5
35904,67135,5
35918,67147,4
35910,67141,5
35896,67142,5
35909,67142,6
35912,67143,3
35912,67144,5
35879,67148,5
35916,67138,5
35909,67131,5
35908,67119,4
35859,67111,5
35885,67092,5
35876,67082,5
35879,67056,5
35880,67040,4
35854,67022,5
35845,67007,5
35827,66988,5
35866,66982,5
35826,66973,4
35822,66967,5
35822,66963,5
35854,66965,5
35813,66974,5
35823,66963,5
35824,66972,4
35844,66982,5
35830,66988,5
35825,66994,4
35828,67003,4
35843,66995,5
35848,67007,5
35844,67016,5
35854,67024,4
35857,67011,5
35862,67037,5
35857,67038,5
35850,67021,5
35841,66955,4
35831,66987,5
35826,66970,5
35821,66963,5
35809,66922,5
35802,66933,4
35798,66931,5
35801,66932,6
35808,66947,4
35809,66927,5
35792,66941,4
35798,66926,7
35798,66978,3
35807,66932,5
35806,66935,4
35804,66949,4
35810,66984,5
35816,66948,5
35824,66960,5
35820,66973,4
35828,66982,5
35826,66975,5
35834,66987,5
35832,66994,5
35829,66996,4
35851,67006,5
35850,67018,5
35853,67011,5
35843,67014,5
35843,67028,4
35846,67018,5
35855,67019,5
35858,67030,5
35847,67035,5
35857,67038,4
35862,67040,5
35868,67046,6
35866,67042,4
35862,67040,5
35870,67049,4
35868,67041,5
35859,67042,5
35858,67038,5
35864,67042,4
35853,67040,5
35852,67030,5
35858,67035,5
35856,67031,5
35850,67029,4
35854,67031,5
35849,67022,5
35853,67016,5
35845,67018,5
35842,67017,4
35843,67010,5
35844,67014,5
35847,67009,5
35839,67012,5
35849,67009,4
35846,67017,5
35849,67016,5
35855,67014,5
35842,67025,5
35843,67032,4
35848,67038,5
35854,67033,5
35851,67043,5
35864,67049,4
35857,67050,4
35862,67052,5
35869,67060,5
35867,67057,5
35864,67067,4
35870,67058,5
35874,67077,5
35878,67075,5
35875,67061,5
35879,67074,4
35881,67078,5
35873,67075,5
35878,67082,5
35878,67079,5
35881,67091,5
35887,67091,4
35883,67083,5
35884,67091,5
35878,67089,5
35884,67094,4
35874,67090,5
35873,67068,5
35872,67054,5
35854,67039,4
35852,67028,4
35843,67003,5
35832,66996,5
35826,66978,5
35827,66965,4
35811,66956,5
35806,66948,5
35792,66933,5
35803,66942,5
35797,66925,4
35792,66926,5
35790,66923,5
35788,66926,4
35760,66917,5
35777,66926,4
35781,66912,7
35773,66913,3
35745,66912,5
35774,66915,5
35777,66918,4
35769,66911,5
35743,66912,5
35772,66921,5
35772,66908,5
35768,66894,4
35757,66883,5
35747,66862,5
35728,66843,5
35724,66831,4
35746,66807,5
35713,66798,5
35702,66788,5
35703,66786,5
35739,66797,4
35706,66788,5
35706,66801,5
35705,66811,6
35728,66819,4
35711,66822,4
35722,66825,5
35721,66832,5
35729,66838,5
35725,66839,5
35729,66858,4
35730,66861,5
35738,66833,5
35732,66868,5
35740,66865,5
35738,66866,4
35738,66830,5
35736,66863,5
35735,66869,5
35738,66858,5
35733,66846,4
35748,66868,5
35746,66860,5
35743,66868,5
35751,66898,5
35748,66875,4
35747,66879,5
35753,66891,5
35753,66938,6
35757,66884,3
35757,66890,5
35755,66884,5
35761,66926,5
35753,66888,5
35750,66892,4
35754,66895,5
35754,66913,5
35756,66904,5
35752,66900,5
35766,66905,4
35757,66905,5
35766,66907,5
35762,66909,5
35762,66910,4
35765,66919,4
35771,66922,5
35779,66935,5
35778,66939,5
35788,66945,4
35787,66958,6
35788,66977,4
35790,66973,5
35800,66992,5
35804,66993,6
35804,67002,3
35819,67014,5
35820,67028,5
35828,67034,5
35838,67045,4
35835,67042,5
35832,67055,5
35838,67058,5
35845,67060,5
35843,67052,4
35834,67057,5
35830,67056,5
35837,67058,5
35832,67054,5
35839,67054,4
35831,67040,5
35826,67039,5
35828,67040,5
35824,67036,4
35821,67018,4
35816,67011,6
35812,67004,4
35805,66990,5
35800,66997,4
35801,66997,5
35808,66990,5
35795,66987,5
35805,66998,5
35799,66993,4
35804,67000,5
35808,67007,5
35816,67012,5
35815,67015,5
35823,67025,4
35821,67037,5
35825,67044,5
35835,67054,5
35835,67061,5
35847,67069,4
35836,67075,5
35849,67084,5
35848,67082,5
35850,67080,4
35850,67081,4
35850,67072,5
35847,67055,6
35832,67040,4
35826,67026,4
35813,67009,5
35816,66996,5
35818,66995,5
35801,67003,5
35810,66998,4
35816,67000,5
35817,67014,5
35811,67006,5
35808,67001,5
35809,67011,4
35813,67008,5
35822,67012,5
35823,67021,5
35824,67018,5
35821,67023,4
35823,67031,5
35822,67035,5
35829,67025,5
35820,67024,5
35807,67023,4
35826,67038,5
35825,67034,5
35832,67026,6
35794,67041,3
35820,67035,5
35834,67038,5
35825,67047,5
35797,67045,5
35835,67053,4
35839,67053,5
35842,67054,5
35854,67065,5
35843,67065,5
35838,67061,4
35842,67069,5
35883,67070,5
35844,67071,5
35840,67072,5
35846,67072,4
35882,67076,5
35848,67080,5
35841,67069,5
35845,67077,5
35865,67080,5
35849,67085,4
35853,67085,5
35849,67088,5
35852,67077,4
35864,67098,5
35859,67095,5
35860,67110,5
35864,67091,5
35870,67125,4
35869,67131,5
35882,67143,5
35887,67103,5
35893,67155,5
35885,67161,4
35898,67172,5
35898,67161,5
35897,67181,5
35903,67188,5
35916,67190,5
35914,67210,4
35915,67199,5
35917,67219,5
35915,67209,5
35916,67258,4
35927,67209,6
35930,67216,4
35931,67231,5
35926,67267,4
35942,67230,4
35940,67234,5
35942,67252,5
35946,67262,5
35950,67248,4
35949,67258,5
35950,67264,5
35952,67263,5
35956,67250,5
35950,67257,4
35948,67255,5
35953,67242,5
35944,67246,5
35955,67254,5
35963,67243,4
35951,67244,5
35954,67241,5
35956,67247,5
35951,67241,5
35955,67242,4
35954,67238,5
35958,67243,6
35953,67245,4
35949,67234,4
35959,67239,4
35958,67245,5
35955,67239,5
35957,67236,5
35955,67235,4
35939,67221,5
35948,67217,5
35938,67204,5
35933,67187,5
35916,67159,4
35906,67140,5
35898,67120,5
35883,67090,5
35875,67074,5
35872,67063,4
35866,67060,5
35867,67066,5
35867,67050,5
35860,67056,5
35848,67046,4
35854,67052,5
35864,67051,5
35863,67048,5
35863,67044,5
35859,67048,4
35858,67051,5
35856,67056,5
35862,67060,5
35865,67066,4
35869,67058,5
35869,67061,5
35870,67070,5
35874,67062,5
35862,67059,4
35872,67071,5
35877,67060,5
35876,67079,5
35872,67068,5
35878,67073,4
35883,67072,5
35878,67082,5
35888,67086,5
35871,67090,5
35878,67095,5
35883,67088,4
35876,67083,5
35874,67080,5
35870,67079,5
35877,67077,4
35881,67076,5
35873,67075,5
35865,67063,5
35868,67062,4
35867,67059,4
35859,67048,5
35855,67040,5
35854,67035,5
35854,67035,4
35851,67030,5
35858,67033,5
35849,67026,5
35845,67031,5
35848,67019,4
35853,67020,5
35826,67016,5
35845,67021,5
35852,67026,5
35843,67027,4
35818,67036,6
35852,67039,4
35864,67047,5
35867,67042,5
35831,67053,4
35869,67057,7
35869,67063,3
35871,67058,5
35887,67075,4
35872,67072,4
35877,67077,5
35870,67078,5
35915,67083,5
35883,67086,4
35875,67087,5
35879,67086,5
35920,67087,5
35879,67071,5
35873,67074,4
35871,67071,5
35888,67067,5
35865,67071,5
35873,67057,5
35857,67061,4
35851,67046,5
35858,67049,5
35857,67045,5
35859,67043,5
35866,67001,4
35855,67043,5
35857,67043,5
35852,67038,5
35856,67003,4
35862,67044,4
35866,67046,5
35880,67053,5
35861,67044,5
35863,67060,4
35870,67060,5
35860,67067,5
35857,67084,5
35866,67058,5
35861,67053,4
35851,67054,5
35853,67096,5
35862,67043,5
35853,67048,5
35842,67045,4
35858,67061,5
35854,67051,5
35857,67059,5
35855,67062,5
35856,67067,4
35864,67071,5
35872,67088,5
35884,67097,5
35884,67105,4
35894,67120,4
35897,67124,5
35913,67157,5
35927,67164,5
35925,67186,4
35937,67196,5
35932,67214,5
35952,67228,5
35952,67242,5
35959,67251,4
35971,67264,6
35967,67270,4
35965,67254,5
35959,67240,5
35953,67223,6
35948,67231,3
35948,67211,5
35936,67207,5
35934,67200,5
35930,67208,4
35945,67209,5
35938,67223,5
35943,67224,5
35945,67233,5
35948,67237,4
35958,67232,5
35950,67241,5
35967,67253,5
35962,67260,4
35964,67259,5
35966,67265,5
35963,67270,5
35969,67265,5
35965,67272,4
35964,67268,5
35964,67268,6
35963,67274,4
35973,67269,5
35961,67275,4
35971,67267,7
35961,67263,3
35970,67268,5
35962,67257,5
35962,67247,4
35958,67257,5
35956,67251,5
35952,67251,5
35954,67250,5
35951,67258,4
35956,67249,5
35954,67252,5
35955,67259,5
35951,67258,4
35955,67249,4
35946,67247,5
35949,67243,5
35945,67238,5
35935,67229,4
35933,67216,5
35921,67217,5
35931,67210,6
35925,67201,4
35915,67194,4
35919,67190,5
35903,67183,5
35905,67177,5
35916,67165,5
35902,67173,4
35903,67165,5
35905,67174,5
35908,67167,5
35906,67166,5
35902,67170,4
35904,67175,5
35906,67176,5
35904,67187,5
35894,67193,4
35901,67194,4
35912,67191,5
35917,67197,5
35873,67200,5
35927,67211,5
35925,67198,4
35915,67209,5
35877,67209,5
35925,67211,6
35932,67213,3
35932,67217,5
35920,67217,5
35920,67214,5
35930,67220,5
35926,67209,4
35954,67201,5
35920,67197,5
35911,67197,5
35904,67180,5
35940,67160,4
35890,67151,5
35890,67136,5
35878,67122,5
35898,67114,4
35866,67089,4
35869,67075,5
35857,67081,5
35863,67065,5
35857,67065,4
35852,67066,6
35858,67060,4
35849,67038,5
35842,67052,5
35833,67041,6
35839,67040,3
35834,67005,5
35843,67039,5
35835,67035,5
35838,67048,4
35840,67013,4
35839,67055,5
35845,67052,5
35840,67053,5
35849,67065,4
35840,67054,5
35841,67045,5
35837,67034,5
35823,67053,5
35823,67017,4
35828,67004,5
35816,67001,5
35811,67039,5
35802,66991,4
35802,66989,5
35795,66981,6
35791,66999,4
35781,66959,5
35777,66956,4
35781,66953,5
35769,66959,5
35765,66945,5
35773,66954,5
35764,66944,4
35766,66940,5
35765,66946,5
35766,66939,5
35759,66939,5
35753,66929,4
35754,66934,5
35752,66921,5
35754,66926,5
35749,66931,5
35756,66921,4
35746,66921,5
35750,66918,5
35747,66918,5
35753,66932,4
35752,66929,4
35756,66933,5
35757,66940,6
35767,66948,4
35756,66944,4
35769,66947,5
35766,66950,5
35772,66960,5
35782,66966,5
35778,66971,4
35783,66979,5
35784,66982,5
35799,67004,5
35801,67011,5
35801,67015,4
35807,67023,5
35804,67027,5
35816,67029,5
35819,67042,5
35823,67048,4
35826,67057,5
35840,67073,5
35849,67081,5
35857,67107,5
35868,67116,4
35872,67121,5
35880,67144,5
35880,67161,6
35902,67177,3
35907,67189,5
35915,67204,5
35930,67218,5
35922,67233,5
35937,67246,4
35942,67257,5
35950,67281,5
35969,67290,5
35976,67305,5
35981,67312,4
35986,67325,5
35988,67331,5
35991,67340,5
36001,67350,5
35994,67345,4
36003,67337,5
35999,67339,5
35996,67339,5
35991,67325,4
35985,67318,5
35975,67296,4
35977,67288,5
35968,67281,5
35955,67261,4
35948,67244,5
35945,67234,5
35946,67225,5
35936,67210,5
35928,67199,4
35928,67189,5
35921,67188,5
35915,67176,5
35913,67170,5
35910,67164,4
35898,67159,5
35912,67164,5
35905,67148,5
35903,67144,5
35867,67137,4
35890,67132,5
35893,67117,5
35883,67112,5
35838,67079,4
35862,67062,4
35841,67033,6
35833,67008,4
35815,66983,5
35810,66964,4
35801,66951,5
35787,66948,5
35821,66950,5
35797,66951,5
35793,66964,4
35802,66972,5
35837,66971,5
35808,66974,5
35817,66998,5
35821,67016,4
35843,67023,5
35822,67042,5
35844,67048,5
35838,67073,5
35855,67079,4
35858,67088,5
35859,67099,5
35875,67116,5
35872,67096,4
35882,67128,4
35884,67136,5
35888,67138,5
35889,67113,5
35891,67155,4
35881,67148,5
35890,67159,5
35891,67119,5
35893,67162,5
35896,67171,4
35899,67157,6
35900,67182,4
35893,67163,5
35895,67155,5
35884,67161,4
35889,67193,5
35893,67152,5
35881,67154,5
35886,67151,5
35888,67192,4
35880,67150,5
35879,67145,5
35886,67139,5
35877,67156,5
35878,67141,4
35873,67136,5
35879,67137,5
35875,67134,5
35877,67139,4
35878,67133,4
35881,67137,5
35879,67139,5
35874,67143,5
35877,67142,4
35887,67150,5
35894,67156,5
35888,67166,5
35894,67165,5
35899,67169,4
35898,67178,5
35909,67178,5
35905,67181,5
35908,67190,5
35906,67199,4
35908,67194,5
35900,67196,5
35915,67199,5
35923,67206,5
35914,67200,5
35924,67206,4
35917,67204,5
35918,67216,5
35921,67213,4
35920,67214,4
35921,67214,5
35921,67213,5
35919,67201,5
35923,67199,4
35915,67200,5
35922,67195,5
35900,67178,5
35903,67171,5
35901,67164,4
35888,67142,5
35883,67121,5
35874,67100,5
35873,67086,5
35858,67061,4
35832,67033,5
35822,67022,5
35816,67005,5
35800,66983,5
35795,66959,4
35780,66933,6
35765,66908,4
35756,66893,5
35746,66883,5
35737,66874,4
35728,66865,5
35728,66851,5
35715,66851,5
35720,66847,4
35708,66850,5
35713,66835,5
35703,66817,5
35700,66803,5
35678,66765,4
35668,66740,5
35656,66721,5
35642,66694,5
35626,66673,5
35610,66654,4
35606,66637,5
35598,66639,5
35600,66631,5
35601,66631,4
35602,66631,4
35595,66634,5
35604,66632,5
35602,66632,5
35607,66637,5
35612,66657,4
35617,66657,5
35623,66663,5
35619,66681,5
35634,66696,4
35638,66698,5
35642,66702,5
35622,66712,5
35650,66717,5
35662,66732,4
35665,66731,5
35623,66750,5
35665,66762,5
35678,66759,5
35670,66767,5
35642,66764,5
35674,66759,4
35673,66769,5
35678,66768,6
35690,66773,3
35677,66775,5
35677,66766,5
35673,66760,5
35711,66750,5
35665,66739,4
35668,66735,5
35658,66724,5
35685,66714,5
35645,66696,4
35642,66695,4
35635,66691,5
35639,66669,5
35621,66656,5
35609,66644,4
35603,66637,5
35600,66614,5
35592,66608,5
35583,66596,5
35571,66585,4
35567,66551,6
35570,66574,4
35565,66567,5
35558,66570,5
35560,66514,6
35558,66558,3
35563,66563,5
35556,66561,5
35552,66558,5
35558,66567,4
35559,66562,5
35555,66573,5
35559,66601,5
35569,66575,4
35560,66585,4
35572,66586,5
35569,66625,5
35562,66586,5
35564,66575,4
35559,66579,5
35554,66603,5
35556,66576,5
35565,66577,5
35560,66571,4
35552,66585,5
35562,66573,6
35552,66571,4
35552,66576,5
35556,66574,4
35561,66570,5
35566,66573,5
35556,66564,5
35554,66577,5
35552,66570,4
35551,66578,5
35559,66579,5
35565,66580,5
35553,66589,4
35557,66585,4
35566,66579,5
35557,66574,5
35564,66578,5
35557,66568,4
35551,66563,5
35544,66535,5
35534,66521,5
35520,66497,5
35503,66475,4
35502,66463,5
35483,66447,5
35486,66429,6
35475,66425,4
35471,66421,4
35466,66418,5
35473,66410,5
35467,66422,5
35476,66410,5
35472,66420,4
35470,66413,5
35476,66424,5
35476,66423,5
35488,66439,5
35495,66439,4
35486,66441,5
35490,66453,5
35492,66446,5
35494,66445,4
35487,66435,5
35483,66419,5
35480,66414,5
35459,66390,5
35459,66369,5
35449,66353,4
35444,66337,5
35432,66315,5
35420,66313,6
35420,66299,3
35423,66307,5
35427,66316,5
35425,66319,5
35428,66314,5
35433,66326,4
35433,66334,5
35441,66329,5
35442,66347,5
35443,66354,5
35453,66368,4
35450,66366,5
35452,66385,5
35462,66392,5
35468,66399,4
35475,66414,5
35483,66414,5
35478,66421,5
35489,66424,5
35494,66440,4
35501,66447,6
35504,66459,4
35505,66451,5
35511,66471,5
35510,66466,4
35507,66482,5
35515,66487,5
35518,66490,5
35523,66491,5
35520,66516,4
35536,66520,5
35541,66518,5
35542,66524,5
35513,66521,5
35534,66524,4
35536,66518,5
35537,66520,5
35504,66527,5
35539,66524,4
35535,66528,5
35544,66515,5
35522,66515,5
35527,66519,5
35530,66507,4
35522,66516,5
35552,66507,6
35530,66510,4
35527,66523,5
35537,66516,4
35575,66515,5
35536,66529,5
35540,66525,5
35543,66541,5
35572,66550,4
35553,66557,5
35561,66565,5
35558,66576,5
35576,66585,5
35573,66603,4
35574,66615,5
35596,66630,5
35597,66622,5
35613,66651,4
35609,66665,4
35613,66679,5
35616,66647,5
35630,66699,5
35635,66703,4
35633,66724,5
35642,66679,5
35642,66733,6
35659,66737,4
35663,66742,5
35669,66766,4
35668,66763,5
35669,66763,5
35676,66774,5
35681,66821,4
35684,66788,5
35686,66790,5
35688,66790,5
35688,66842,5
35691,66800,4
35705,66811,5
35702,66812,5
35700,66822,5
35692,66803,4
35696,66799,4
35693,66795,5
35698,66790,5
35684,66785,5
35678,66772,5
35674,66748,4
35666,66727,5
35665,66710,5
35637,66692,5
35636,66681,4
35627,66666,5
35615,66655,5
35613,66648,5
35618,66635,5
35607,66644,4
35605,66627,5
35609,66626,5
35602,66629,5
35597,66618,5
35596,66617,4
35593,66633,5
35598,66631,5
35593,66630,5
35602,66628,4
35593,66629,4
35605,66624,5
35596,66622,5
35600,66625,5
35604,66628,4
35600,66613,6
35590,66599,4
35583,66587,5
35574,66579,5
35579,66566,4
35566,66557,5
35559,66551,5
35568,66569,5
35580,66573,5
35578,66570,4
35588,66592,5
35585,66596,5
35600,66608,5
35607,66619,5
35609,66634,4
35630,66667,5
35641,66677,5
35641,66695,5
35662,66716,5
35658,66736,4
35670,66758,5
35689,66772,5
35699,66787,5
35699,66793,4
35710,66808,5
35718,66813,6
35728,66821,4
35723,66826,5
35735,66843,4
35739,66842,5
35744,66851,5
35740,66856,5
35740,66859,5
35744,66858,4
35751,66873,5
35759,66865,5
35763,66886,5
35768,66892,5
35768,66898,4
35762,66891,5
35770,66890,5
35774,66899,5
35760,66879,5
35768,66884,4
35760,66881,5
35760,66884,5
35756,66870,5
35753,66867,4
35748,66851,5
35750,66856,5
35748,66841,5
35741,66838,5
35735,66836,4
35738,66822,5
35717,66832,5
35737,66827,5
35735,66822,5
35735,66822,4
35703,66827,5
35740,66834,5
35743,66836,5
35742,66841,5
35711,66850,4
35748,66854,5
35758,66863,5
35759,66872,5
35775,66876,5
35767,66888,4
35771,66896,5
35772,66903,5
35809,66913,5
35788,66909,5
35784,66924,4
35796,66930,5
35831,66933,5
35794,66935,5
35800,66947,4
35803,66958,5
35814,66948,5
35807,66959,5
35804,66949,5
35802,66957,4
35804,66951,5
35799,66948,5
35803,66940,5
35793,66949,5
35800,66904,4
35798,66931,5
35792,66923,5
35786,66925,5
35785,66874,5
35782,66915,4
35774,66907,5
35779,66905,5
35770,66870,5
35761,66884,4
35756,66868,5
35756,66848,4
35750,66868,5
35739,66823,5
35732,66805,4
35731,66801,5
35716,66838,5
35717,66796,5
35711,66782,5
35712,66777,4
35701,66812,5
35712,66785,5
35712,66788,5
35726,66796,5
35729,66810,4
35728,66809,5
35721,66804,5
35730,66814,5
35722,66816,5
35739,66819,4
35737,66822,5
35737,66829,6
35744,66837,4
35741,66837,4
35740,66832,4
35739,66842,5
35743,66833,5
35723,66818,5
35727,66798,4
35713,66781,5
35707,66775,5
35706,66751,5
35693,66734,5
35689,66734,4
35682,66728,5
35678,66718,5
35690,66735,5
35697,66734,5
35692,66746,4
35699,66748,5
35691,66765,5
35709,66756,5
35706,66772,5
35712,66777,4
35713,66790,5
35721,66799,5
35720,66806,6
35728,66810,4
35733,66824,4
35735,66830,5
35743,66826,5
35746,66846,5
35745,66844,4
35744,66847,5
35759,66858,5
35754,66853,5
35757,66862,5
35753,66858,4
35755,66857,5
35764,66856,5
35753,66859,5
35758,66861,5
35769,66875,4
35768,66874,5
35776,66886,5
35763,66885,5
35773,66877,5
35768,66876,5
35771,66880,4
35755,66859,5
35760,66868,5
35758,66854,6
35753,66859,3
35742,66846,5
35749,66836,5
35749,66829,5
35742,66833,4
35742,66831,5
35737,66819,5
35728,66824,5
35738,66816,5
35729,66812,4
35728,66817,5
35732,66824,5
35733,66821,5
35735,66825,5
35733,66830,4
35732,66838,5
35747,66839,5
35752,66851,5
35758,66858,5
35757,66864,4
35761,66862,6
35758,66871,4
35780,66888,5
35772,66891,5
35771,66901,6
35788,66917,3
35784,66922,5
35763,66925,5
35792,66928,4
35797,66923,4
35796,66940,5
35757,66936,5
35796,66928,5
35797,66935,7
35794,66946,2
35742,66927,5
35797,66934,5
35805,66930,5
35799,66926,4
35802,66915,5
35787,66918,5
35788,66918,5
35786,66907,5
35823,66905,4
35775,66893,5
35764,66883,6
35769,66875,4
35791,66872,5
35755,66856,4
35753,66842,5
35741,66834,5
35742,66821,5
35731,66804,4
35720,66792,4
35713,66776,5
35710,66756,5
35710,66770,5
35708,66767,4
35709,66763,5
35702,66738,5
35708,66775,5
35708,66781,5
35721,66778,4
35721,66746,4
35722,66807,5
35718,66802,5
35729,66805,5
35734,66803,4
35732,66827,5
35737,66832,5
35740,66827,6
35737,66859,4
35737,66820,4
35739,66828,5
35734,66832,5
35735,66869,5
35738,66804,4
35717,66780,4
35713,66766,5
35699,66775,5
35699,66736,5
35678,66726,4
35682,66724,5
35683,66730,5
35680,66739,5
35699,66744,5
35698,66755,4
35695,66764,5
35703,66768,5
35716,66776,5
35718,66788,5
35717,66801,5
35720,66810,4
35740,66832,5
35743,66841,5
35742,66855,6
35757,66858,3
35762,66868,5
35758,66882,5
35770,66885,5
35776,66897,5
35770,66904,4
35787,66919,5
35785,66915,5
35789,66919,5
35787,66913,4
35800,66922,4
35787,66917,5
35788,66917,5
35780,66923,5
35787,66921,4
35793,66919,5
35790,66930,5
35788,66916,5
35791,66916,5
35790,66910,4
35775,66906,6
35774,66893,4
35763,66898,5
35760,66880,5
35762,66881,4
35765,66872,5
35758,66866,5
35757,66859,5
35747,66855,5
35749,66847,4
35745,66841,5
35739,66837,5
35744,66845,5
35744,66845,4
35741,66846,4
35745,66845,5
35747,66856,5
35748,66864,5
35760,66863,4
35764,66878,5
35761,66879,5
35769,66891,5
35774,66904,5
35767,66909,4
35777,66915,5
35779,66930,6
35784,66947,4
35793,66951,5
35792,66946,4
35793,66959,5
35803,66970,5
35803,66969,5
35810,66986,5
35808,66982,4
35816,66990,5
35814,66997,5
35815,66991,5
35809,66983,4
35816,66985,4
35815,66988,5
35819,66972,5
35804,66971,5
35798,66956,4
35794,66945,5
35784,66932,5
35780,66925,5
35781,66913,5
35770,66902,4
35757,66906,5
35767,66899,5
35760,66893,6
35752,66894,4
35729,66901,4
35769,66895,5
35764,66893,5
35755,66895,5
35720,66907,5
35766,66894,4
35760,66900,5
35758,66894,5
35749,66894,5
35765,66899,5
35763,66896,4
35754,66901,5
35781,66893,5
35748,66884,5
35737,66868,4
35740,66855,5
35780,66843,4
35728,66840,5
35723,66822,5
35717,66814,5
35742,66818,4
35724,66821,5
35729,66835,5
35724,66842,5
35745,66851,4
35745,66860,5
35742,66872,5
35748,66885,5
35756,66881,5
35759,66897,4
35770,66914,5
35767,66924,5
35786,66898,5
35783,66943,5
35783,66946,4
35783,66957,5
35790,66925,5
35790,66952,5
35797,66963,4
35797,66967,6
35800,66973,4
35800,66960,5
35795,66963,5
35792,66964,4
35788,67003,6
35804,66967,4
35789,66968,5
35793,66968,5
35802,67013,4
35797,66967,5
35801,66975,5
35790,66969,5
35793,66970,5
35784,66936,4
35788,66932,5
35775,66937,5
35781,66929,5
35773,66932,5
35778,66915,4
35765,66905,5
35764,66904,5
35762,66900,5
35761,66887,4
35763,66880,4
35756,66879,5
35756,66880,5
35755,66877,5
35753,66875,4
35759,66878,5
35753,66881,6
35759,66884,4
35764,66890,5
35763,66891,4
35767,66891,5
35771,66909,5
35772,66920,5
35775,66906,5
35788,66924,4
35782,66919,5
35782,66935,5
35792,66940,5
35798,66946,5
35788,66943,4
35794,66947,5
35799,66954,5
35798,66950,5
35803,66953,4
35797,66950,4
35804,66953,5
35797,66949,5
35793,66955,5
35791,66948,4
35794,66943,5
35787,66927,5
35777,66906,5
35776,66903,5
35762,66885,4
35759,66877,5
35747,66850,5
35740,66827,5
35732,66827,5
35731,66810,4
35720,66802,5
35727,66804,5
35724,66809,5
35727,66803,5
35717,66809,4
35730,66809,5
35729,66827,5
35728,66823,5
35740,66817,5
35740,66838,4
35737,66853,5
35745,66858,5
35753,66870,5
35758,66869,5
35762,66871,3
35759,66879,5
35766,66874,5
35759,66886,5
35765,66870,4
35746,66863,5
35742,66851,5
35744,66841,5
35733,66829,5
35727,66819,4
35726,66814,5
35723,66811,5
35727,66827,5
35737,66839,5
35731,66836,4
35743,66851,5
35749,66859,5
35750,66878,5
35767,66884,5
35771,66903,4
35773,66914,6
35768,66920,4
35781,66926,5
35792,66944,4
35800,66965,6
35771,66979,3
35814,66977,5
35817,66988,5
35813,66993,4
35778,66986,5
35817,67000,5
35817,67002,5
35821,66999,5
35816,67002,4
35823,66986,5
35820,66999,5
35814,66998,5
35851,66996,5
35816,66993,4
35820,66995,5
35825,66998,5
35863,66990,5
35812,66993,5
35815,66975,4
35807,66975,5
35822,66975,6
35800,66966,4
35795,66964,4
35799,66956,4
35802,66952,5
35790,66944,5
35794,66946,5
35785,66947,4
35784,66917,5
35779,66934,5
35778,66936,5
35784,66941,5
35784,66893,4
35784,66934,5
35785,66940,5
35790,66946,5
35788,66917,5
35796,66954,4
35795,66967,5
35792,66978,5
35813,67009,5
35812,66992,5
35817,67013,4
35828,67022,5
35830,67075,5
35836,67043,6
35841,67056,4
35845,67061,4
35840,67108,5
35854,67082,5
35865,67080,5
35857,67096,4
35857,67104,5
35861,67087,5
35867,67097,5
35866,67098,5
35869,67089,4
35862,67092,5
35856,67081,5
35854,67068,5
35842,67052,5
35836,67047,4
35835,67035,5
35827,67011,5
35817,66993,5
35808,66976,5
35792,66958,5
35788,66945,4
35781,66942,5
35781,66929,5
35775,66928,6
35777,66927,3
35773,66919,5
35783,66924,5
35783,66935,5
35775,66935,4
35776,66934,4
35788,66934,5
35787,66950,5
35793,66944,5
35788,66946,4
35785,66949,5
35792,66941,5
35787,66947,5
35792,66939,5
35789,66940,4
35779,66930,5
35781,66923,5
35774,66898,5
35761,66885,5
35750,66868,4
35744,66857,6
35737,66837,4
35730,66825,5
35730,66827,5
35728,66832,4
35730,66837,5
35726,66831,5
35734,66824,5
35732,66840,4
35739,66841,4
35737,66837,5
35752,66852,5
35734,66855,5
35744,66862,4
35754,66866,5
35753,66863,5
35759,66873,5
35753,66875,5
35755,66880,4
35758,66883,5
35763,66880,5
35764,66888,5
35765,66897,5
35774,66879,4
35769,66880,5
35762,66884,6
35765,66887,4
35759,66890,5
35773,66888,4
35767,66889,5
35763,66880,5
35765,66885,5
35760,66897,4
35763,66884,4
35770,66891,5
35762,66894,5
35771,66882,5
35770,66888,4
35764,66890,5
35771,66885,5
35766,66888,5
35767,66900,5
35764,66888,4
35774,66899,5
35766,66898,5
35777,66896,5
35741,66892,5
35770,66900,4
35772,66905,5
35767,66908,5
35744,66898,6
35775,66900,5
35768,66917,3
35772,66915,5
35740,66922,5
35778,66931,5
35785,66935,5
35788,66945,4
35800,66951,5
35800,66957,5
35806,66969,5
35814,66985,4
35856,66994,5
35815,67004,5
35819,67007,5
35824,67021,5
35867,67021,4
35838,67033,5
35836,67047,5
35838,67054,5
35856,67051,5
35852,67047,5
35854,67047,4
35858,67064,5
35841,67059,5
35845,67067,5
35848,67071,4
35853,67066,5
35851,67045,5
35850,67069,5
35854,67071,5
35848,67074,4
35855,67031,5
35843,67072,5
35857,67069,5
35841,67060,5
35848,67029,4
35836,67050,5
35844,67041,5
35838,67024,5
35825,67040,4
35822,67002,5
35811,66986,5
35799,66957,5
35790,66982,5
35779,66920,4
35768,66905,6
35759,66895,4
35745,66919,5
35750,66875,5
35749,66865,4
35748,66872,5
35752,66879,5
35751,66875,5
35750,66877,5
35755,66888,4
35751,66891,5
35764,66904,5
35760,66906,5
35763,66919,5
35777,66923,4
35769,66930,5
35783,66937,5
35780,66936,5
35776,66937,4
35780,66936,5
35773,66926,5
35771,66917,5
35753,66890,5
35749,66878,4
35748,66863,5
35731,66853,6
35736,66839,4
35727,66825,5
35726,66831,4
35729,66830,5
35724,66837,5
35731,66840,5
35725,66834,5
35728,66845,4
35733,66847,5
35736,66848,5
35742,66860,5
35747,66864,5
35745,66869,4
35750,66872,5
35756,66878,5
35758,66887,5
35762,66891,4
35764,66890,5
35766,66907,5
35782,66906,5
35770,66910,5
35773,66907,4
35777,66898,5
35776,66919,5
35784,66908,6
35766,66913,4
35766,66910,4
35777,66901,5
35776,66911,5
35781,66902,5
35783,66914,5
35782,66913,4
35770,66902,5
35772,66903,5
35781,66897,5
35769,66914,5
35773,66895,4
35765,66889,5
35766,66883,5
35765,66879,5
35762,66880,4
35757,66875,4
35755,66869,5
35747,66865,5
35745,66860,5
35752,66852,5
35751,66848,4
35743,66854,5
35750,66840,5
35740,66842,5
35737,66838,4
35741,66839,5
35740,66841,5
35735,66835,5
35739,66839,5
35744,66844,4
35734,66849,5
35744,66855,5
35751,66856,5
35758,66860,5
35755,66866,4
35753,66869,5
35761,66875,5
35765,66875,5
35767,66878,5
35745,66887,4
35771,66899,5
35769,66897,5
35776,66905,5
35740,66906,4
35779,66913,6
35774,66908,4
35780,66914,5
35741,66918,5
35781,66904,4
35779,66918,5
35782,66915,5
35796,66915,5
35785,66909,5
35773,66907,4
35782,66909,5
35815,66905,5
35779,66891,5
35771,66906,5
35770,66905,4
35810,66896,5
35771,66894,5
35765,66890,5
35760,66872,5
35772,66865,4
35753,66856,5
35741,66837,5
35741,66830,5
35730,66814,4
35718,66806,4
35715,66802,6
35703,66785,4
35704,66740,5
35707,66775,4
35704,66771,5
35705,66778,5
35706,66739,5
35706,66776,5
35708,66784,4
35710,66794,5
35719,66771,5
35708,66808,5
35720,66811,5
35718,66821,4
35733,66844,5
35732,66836,5
35738,66829,5
35741,66829,5
35731,66890,4
35736,66847,5
35740,66836,5
35739,66837,6
35734,66861,3
35726,66808,4
35725,66799,5
35709,66787,5
35709,66787,5
35701,66774,4
35695,66758,5
35696,66754,5
35694,66756,5
35697,66756,5
35701,66771,4
35697,66765,5
35705,66768,5
35703,66772,5
35706,66786,5
35703,66792,4
35720,66798,5
35717,66809,5
35725,66815,5
35725,66827,5
35735,66830,5
35739,66838,4
35742,66839,5
35738,66858,5
35742,66856,6
35751,66870,3
35759,66882,5
35752,66882,5
35766,66883,5
35765,66878,4
35763,66891,5
35758,66890,5
35759,66891,5
35765,66892,5
35768,66893,4
35757,66900,5
35773,66907,5
35776,66911,5
35777,66901,5
35774,66905,4
35773,66890,5
35769,66897,5
35760,66892,5
35761,66901,5
35759,66886,4
35759,66878,6
35757,66877,4
35748,66869,5
35755,66867,5
35749,66871,6
35753,66871,3
35746,66859,5
35738,66858,5
35747,66860,4
35736,66858,4
35756,66858,5
35750,66871,5
35747,66884,5
35754,66882,4
35764,66891,5
35769,66903,5
35770,66917,5
35774,66920,5
35778,66933,4
35782,66951,5
35794,66952,5
35794,66958,5
35803,66973,5
35814,66981,4
35807,66990,5
35808,66991,6
35810,66997,4
35809,67000,5
35810,66994,4
35810,67001,5
35816,66998,5
35802,67000,5
35812,66996,4
35812,66988,4
35809,66983,5
35813,66974,5
35804,66969,5
35795,66964,4
35791,66944,5
35775,66927,5
35775,66918,5
35773,66906,5
35767,66888,4
35750,66877,5
35731,66863,5
35741,66862,5
35736,66861,5
35739,66850,4
35696,66849,5
35733,66844,5
35731,66845,6
35735,66836,4
35697,66822,4
35716,66830,5
35724,66824,5
35714,66813,5
35721,66795,5
35702,66792,4
35698,66764,5
35686,66754,5
35731,66733,5
35656,66708,4
35656,66694,4
35643,66670,5
35674,66658,5
35621,66630,5
35601,66605,4
35606,66601,5
35611,66597,5
35608,66598,5
35611,66601,5
35610,66617,5
35627,66629,4
35630,66657,5
35649,66681,5
35661,66712,6
35676,66701,3
35680,66735,5
35688,66747,5
35679,66740,5
35675,66705,5
35667,66730,4
35675,66734,5
35678,66728,5
35674,66709,5
35667,66723,4
35667,66709,4
35667,66714,5
35667,66740,5
35670,66716,5
35670,66717,4
35665,66716,5
35665,66757,5
35669,66723,5
35672,66724,5
35671,66729,4
35671,66758,6
35680,66730,4
35674,66731,5
35678,66747,5
35683,66753,4
35680,66739,5
35681,66736,5
35683,66735,5
35686,66736,5
35681,66729,4
35669,66726,5
35679,66721,5
35672,66719,5
35670,66713,5
35669,66713,4
35658,66704,5
35655,66694,5
35662,66690,5
35651,66691,4
35660,66696,5
35655,66695,5
35657,66692,5
35653,66685,5
35656,66694,4
35662,66697,5
35662,66709,6
35680,66718,4
35668,66723,5
35676,66736,4
35678,66743,5
35694,66754,5
35693,66768,5
35699,66773,5
35709,66779,4
35703,66788,5
35715,66793,5
35719,66812,5
35719,66814,5
35720,66827,4
35728,66825,5
35736,66839,5
35745,66833,5
35735,66851,4
35741,66855,4
35746,66851,5
35740,66860,5
35744,66851,5
35738,66851,4
35742,66851,5
35734,66832,5
35738,66827,6
35728,66815,4
35719,66815,4
35713,66796,5
35709,66781,5
35703,66773,5
35682,66758,5
35685,66751,4
35681,66740,5
35680,66743,5
35677,66733,5
35675,66738,5
35681,66731,4
35678,66737,5
35672,66734,5
35682,66749,5
35682,66741,4
35683,66749,4
35686,66746,5
35680,66743,5
35682,66746,5
35683,66745,5
35674,66738,4
35677,66736,5
35677,66747,5
35678,66740,5
35678,66735,4
35669,66715,5
35670,66705,5
35654,66691,5
35651,66670,5
35635,66662,4
35629,66642,5
35620,66638,5
35618,66620,5
35621,66632,5
35629,66629,4
35628,66636,5
35624,66642,10
35606,66641,5
35625,66647,4
35637,66647,5
35636,66663,4
35616,66671,5
35647,66679,4
35653,66678,6
35655,66680,4
35628,66701,5
35663,66694,5
35662,66707,4
35660,66710,5
35679,66708,5
35669,66713,5
35673,66711,5
35669,66724,4
35712,66719,5
35674,66719,5
35672,66732,5
35674,66735,5
35704,66728,4
35671,66730,5
35671,66729,5
35676,66739,5
35698,66740,5
35681,66739,4
35685,66734,5
35679,66725,5
35672,66714,5
35671,66723,4
35669,66720,4
35666,66711,6
35670,66676,4
35665,66696,5
35653,66697,5
35645,66687,4
35639,66639,5
35654,66677,5
35643,66667,5
35639,66658,4
35642,66651,5
35637,66669,5
35639,66661,5
35643,66680,5
35636,66699,4
35644,66679,5
35641,66678,5
35648,66688,5
35659,66736,5
35663,66705,4
35666,66712,5
35675,66731,5
35668,66758,5
35679,66741,4
35685,66745,4
35684,66754,5
35696,66767,5
35692,66768,5
35705,66777,4
35705,66782,5
35712,66795,5
35708,66795,5
35704,66802,5
35711,66808,4
35715,66808,5
35707,66801,5
35715,66806,5
35717,66801,5
35707,66793,4
35720,66791,5
35709,66787,5
35702,66784,5
35703,66781,5
35700,66773,4
35690,66765,5
35694,66744,5
35687,66749,5
35687,66737,5
35680,66736,4
35676,66724,5
35674,66720,5
35669,66714,5
35664,66713,4
35662,66712,5
35669,66706,5
35659,66699,5
35657,66692,5
35660,66695,4
35653,66693,5
35663,66692,5
35657,66694,5
35653,66693,5
35645,66686,4
35655,66683,5
35652,66675,5
35643,66676,5
35642,66672,5
35638,66665,4
35645,66668,5
35642,66674,5
35641,66667,5
35633,66658,5
35639,66640,5
35633,66651,3
35629,66643,5
35630,66634,5
35627,66634,4
35619,66630,5
35629,66633,5
35620,66627,5
35620,66630,5
35623,66626,4
35611,66618,5
35617,66633,5
35617,66618,5
35610,66621,5
35616,66612,4
35618,66626,5
35605,66611,5
35609,66608,5
35613,66614,5
35613,66617,4
35612,66610,5
35614,66610,6
35603,66609,4
35616,66593,5
35607,66595,4
35609,66591,5
35604,66593,5
35600,66599,5
35596,66590,4
35605,66588,4
35602,66586,5
35602,66592,5
35600,66591,5
35588,66581,4
35589,66580,5
35578,66585,5
35598,66581,5
35592,66574,5
35589,66568,4
35563,66559,5
35589,66560,5
35577,66549,5
35568,66541,5
35529,66530,4
35559,66525,5
35557,66507,5
35552,66496,6
35540,66494,4
35549,66490,4
35545,66494,5
35542,66494,5
35586,66509,5
35559,66508,4
35556,66516,4
35566,66520,5
35615,66530,5
35566,66531,5
35576,66536,4
35572,66552,5
35598,66553,5
35580,66569,5
35580,66564,5
35590,66586,4
35601,66588,5
35597,66593,5
35600,66602,5
35596,66592,5
35596,66563,5
35589,66572,4
35591,66543,5
35567,66543,5
35561,66503,6
35563,66512,3
35557,66507,5
35557,66520,5
35561,66477,5
35565,66527,5
35569,66543,5
35570,66547,4
35577,66573,5
35592,66569,5
35589,66577,4
35609,66596,5
35604,66655,5
35615,66629,5
35618,66637,5
35629,66652,4
35638,66690,5
35634,66662,5
35646,66679,5
35651,66679,5
35653,66714,4
35656,66702,6
35670,66713,4
35665,66713,5
35668,66728,5
35673,66723,6
35672,66718,3
35677,66726,5
35677,66724,5
35672,66718,5
35687,66729,4
35677,66728,5
35669,66725,5
35676,66724,5
35682,66727,4
35680,66729,4
35672,66723,5
35672,66724,5
35666,66711,5
35669,66703,4
35661,66698,5
35654,66687,5
35656,66672,5
35654,66681,5
35647,66669,4
35637,66669,5
35639,66670,6
35633,66654,4
35635,66652,5
35631,66639,4
35632,66638,5
35621,66643,5
35619,66631,5
35628,66641,5
35627,66630,4
35629,66637,5
35627,66629,5
35620,66638,5
35636,66638,4
35635,66653,4
35640,66661,5
35642,66665,5
35640,66677,5
35652,66675,4
35651,66687,5
35653,66685,5
35649,66686,5
35658,66693,5
35656,66696,4
35666,66707,5
35649,66706,5
35663,66704,6
35664,66706,4
35665,66707,4
35668,66714,5
35668,66717,5
35667,66710,5
35665,66703,5
35661,66692,4
35663,66690,5
35666,66700,5
35661,66692,5
35657,66685,5
35650,66677,4
35651,66679,5
35652,66673,5
35636,66656,5
35642,66656,4
35635,66654,5
35624,66643,5
35631,66634,5
35629,66638,5
35626,66628,5
35622,66628,4
35622,66615,5
35610,66615,5
35614,66612,6
35606,66596,3
35605,66600,5
35602,66581,5
35592,66574,5
35592,66577,5
35579,66562,4
35586,66541,5
35568,66538,5
35545,66536,5
35572,66538,5
35568,66534,4
35565,66529,5
35537,66534,5
35585,66533,5
35575,66550,4
35574,66551,5
35546,66555,5
35581,66564,5
35580,66566,5
35593,66588,4
35599,66583,6
35602,66588,4
35602,66596,5
35593,66590,5
35640,66585,4
35602,66588,5
35600,66580,5
35599,66588,5
35623,66578,5
35584,66567,4
35578,66544,5
35556,66523,5
35579,66513,5
35548,66511,5
35542,66483,4
35538,66482,5
35544,66475,5
35536,66490,5
35553,66497,4
35551,66510,4
35558,66495,5
35557,66522,5
35559,66530,5
35572,66540,4
35577,66509,5
35586,66568,6
35600,66580,4
35605,66594,5
35611,66593,4
35614,66623,5
35621,66618,5
35616,66633,5
35630,66669,5
35630,66655,4
35638,66653,5
35643,66673,5
35638,66717,5
35647,66674,5
35650,66680,4
35648,66668,5
35645,66706,5
35651,66674,5
35645,66679,4
35646,66684,4
35653,66693,5
35654,66677,5
35656,66682,5
35650,66672,4
35633,66668,5
35644,66660,5
35634,66643,6
35633,66644,4
35626,66639,4
35615,66626,5
35613,66621,5
35612,66611,5
35610,66608,5
35606,66605,4
35602,66601,5
35607,66598,5
35593,66599,5
35594,66585,5
35600,66586,4
35592,66595,5
35589,66597,5
35608,66596,5
35606,66596,5
35606,66609,4
35610,66614,5
35615,66628,5
35620,66624,5
35629,66638,5
35623,66642,4
35626,66642,5
35632,66655,5
35633,66670,5
35643,66671,4
35638,66681,5
35653,66686,5
35657,66688,5
35654,66693,5
35656,66692,4
35654,66698,5
35667,66701,5
35660,66700,5
35657,66700,5
35654,66700,4
35663,66693,5
35649,66688,5
35655,66694,5
35648,66671,5
35649,66687,4
35643,66671,5
35638,66667,5
35639,66652,5
35626,66656,4
35621,66642,6
35618,66634,4
35622,66634,5
35618,66625,5
35616,66613,4
35615,66619,5
35603,66599,5
35606,66598,5
35605,66586,5
35597,66587,4
35603,66591,5
35595,66580,5
35589,66583,5
35587,66577,5
35580,66571,4
35589,66559,5
35578,66554,5
35581,66551,5
35563,66535,5
35564,66526,4
35569,66525,5
35560,66514,5
35558,66512,5
35559,66511,4
35562,66503,4
35562,66516,6
35562,66513,4
35569,66528,5
35570,66540,4
35555,66534,5
35571,66544,6
35576,66551,4
35581,66555,5
35551,66568,4
35590,66567,5
35593,66574,5
35591,66575,5
35555,66579,5
35594,66582,4
35585,66593,5
35593,66572,5
35584,66575,5
35591,66584,5
35586,66554,4
35568,66540,5
35604,66528,5
35561,66517,5
35550,66502,4
35554,66493,4
35586,66490,5
35540,66487,5
35547,66496,5
35551,66501,4
35573,66514,5
35561,66523,5
35560,66524,5
35566,66540,5
35575,66544,4
35584,66561,5
35595,66581,5
35595,66586,5
35599,66578,5
35600,66609,4
35603,66621,5
35623,66638,5
35625,66603,5
35627,66651,5
35633,66663,5
35641,66666,4
35651,66645,5
35644,66678,5
35645,66683,6
35645,66682,3
35651,66703,5
35651,66692,5
35652,66695,5
35663,66690,4
35654,66731,5
35654,66685,5
35658,66688,5
35648,66685,5
35660,66728,4
35654,66687,5
35645,66682,5
35643,66676,5
35642,66682,5
35633,66654,4
35631,66649,5
35626,66639,5
35618,66639,5
35623,66625,5
35618,66632,4
35623,66621,6
35615,66616,4
35616,66611,5
35601,66599,5
35603,66605,6
35606,66602,3
35598,66599,5
35605,66593,5
35605,66605,4
35606,66591,5
35608,66611,5
35602,66609,5
35613,66612,5
35613,66617,4
35614,66628,5
35624,66628,5
35627,66639,5
35620,66646,5
35626,66658,4
35642,66665,5
35635,66665,5
35641,66678,5
35641,66679,5
35650,66673,4
35652,66694,5
35656,66691,6
35662,66703,4
35657,66691,5
35661,66701,4
35658,66695,5
35654,66695,5
35657,66693,5
35646,66696,4
35648,66682,5
35640,66684,5
35642,66679,5
35644,66669,5
35642,66665,4
35629,66660,5
35636,66651,5
35626,66651,5
35629,66643,5
35626,66634,4
35620,66624,5
35613,66619,5
35620,66616,5
35611,66611,5
35614,66610,4
35613,66612,5
35608,66616,5
35615,66618,6
35610,66617,4
35612,66602,4
35615,66616,5
35612,66611,5
35611,66617,5
35614,66619,4
35620,66620,4
35623,66617,5
35611,66612,5
35603,66608,5
35601,66610,4
35608,66606,5
35599,66607,5
35607,66600,5
35607,66597,5
35606,66589,4
35605,66608,5
35617,66608,5
35609,66614,5
35614,66629,5
35623,66637,5
35630,66645,4
35628,66649,5
35639,66659,5
35639,66662,6
35641,66672,3
35649,66683,5
35635,66693,5
35661,66700,5
35654,66695,4
35661,66708,4
35637,66708,5
35664,66717,5
35671,66715,5
35668,66710,4
35622,66699,5
35651,66679,5
35649,66669,5
35638,66654,5
35647,66645,4
35628,66636,5
35626,66627,5
35624,66640,5
35666,66640,5
35634,66645,4
35638,66641,6
35642,66649,4
35680,66662,5
35638,66666,5
35644,66673,4
35654,66677,5
35667,66693,5
35665,66699,5
35653,66703,5
35660,66712,4
35673,66706,5
35674,66720,5
35666,66722,5
35662,66717,4
35664,66683,5
35667,66706,5
35660,66708,5
35653,66710,5
35661,66669,4
35656,66699,5
35655,66692,5
35651,66695,5
35656,66675,5
35651,66682,4
35635,66676,5
35636,66683,6
35644,66704,4
35644,66671,5
35645,66669,4
35635,66672,5
35631,66702,5
35630,66655,5
35622,66640,5
35612,66628,4
35615,66650,5
35605,66613,5
35608,66607,5
35603,66603,4
35606,66610,4
35601,66602,5
35599,66594,5
35593,66594,5
35589,66593,4
35599,66587,5
35596,66590,5
35592,66596,5
35593,66587,5
35597,66590,4
35597,66600,5
35610,66602,5
35606,66602,6
35601,66609,4
35616,66629,4
35616,66628,5
35626,66639,5
35620,66649,5
35630,66652,5
35626,66663,4
35633,66666,5
35640,66673,5
35646,66682,5
35639,66686,4
35641,66687,4
35642,66682,5
35650,66696,5
35654,66703,5
35649,66709,4
35656,66709,5
35664,66717,5
35661,66726,5
35667,66712,5
35667,66713,5
35668,66721,4
35668,66702,5
35657,66713,5
35651,66696,5
35650,66686,4
35641,66668,5
35640,66662,5
35630,66641,5
35626,66632,5
35615,66616,4
35610,66607,5
35607,66598,5
35602,66587,5
35591,66590,4
35597,66586,4
35598,66591,5
35601,66594,5
35593,66593,5
35597,66599,4
35600,66596,5
35593,66589,5
35590,66592,5
35598,66590,5
35589,66588,4
35589,66585,6
35596,66576,4
35581,66566,5
35573,66564,5
35572,66554,4
35552,66533,5
35535,66497,5
35514,66448,5
35486,66412,5
35454,66368,4
35432,66320,5
35412,66281,5
35391,66259,5
35373,66222,5
35353,66200,4
35346,66190,5
35349,66189,5
35337,66175,5
35342,66185,4
35344,66180,5
35344,66197,5
35353,66200,5
35358,66205,5
35351,66220,4
35370,66234,5
35375,66245,6
35392,66265,4
35367,66268,5
35404,66289,4
35403,66298,5
35418,66323,5
35386,66335,5
35443,66351,5
35454,66371,4
35459,66381,5
35450,66408,5
35483,66424,5
35493,66436,5
35503,66456,4
35540,66473,5
35519,66492,5
35535,66507,5
35544,66518,4
35594,66532,5
35564,66558,5
35576,66576,5
35573,66573,5
35608,66583,4
35585,66578,5
35585,66580,5
35590,66576,5
35594,66586,5
35592,66588,4
35581,66591,5
35588,66596,5
35594,66571,5
35592,66586,5
35595,66590,4
35595,66587,5
35589,66551,5
35595,66594,5
35592,66590,5
35594,66587,4
35590,66552,5
35594,66593,5
35598,66598,5
35602,66604,4
35602,66612,4
35604,66624,5
35607,66632,5
35615,66641,5
35626,66681,5
35635,66665,4
35633,66663,5
35639,66676,5
35645,66731,5
35646,66689,4
35651,66695,5
35650,66693,5
35658,66729,5
35655,66714,5
35655,66716,4
35663,66726,5
35668,66725,5
35661,66725,5
35674,66721,5
35663,66716,4
35673,66715,5
35662,66724,5
35661,66718,5
35666,66716,4
35664,66713,4
35650,66699,5
35651,66696,5
35652,66687,5
35648,66679,4
35638,66657,6
35626,66641,4
35624,66633,5
35620,66613,5
35604,66599,4
35606,66591,5
35596,66585,5
35596,66577,5
35588,66581,5
35595,66573,4
35583,66584,5
35594,66594,5
35590,66599,5
35598,66603,5
35610,66613,4
35613,66624,5
35616,66634,5
35618,66630,5
35623,66638,4
35632,66651,4
35623,66649,5
35622,66649,5
35624,66647,5
35639,66661,4
35629,66661,5
35630,66657,5
35629,66655,5
35628,66645,5
35613,66631,4
35606,66601,5
35591,66580,5
35592,66580,5
35589,66578,5
35576,66553,4
35578,66550,5
35570,66555,5
35582,66567,5
35575,66563,5
35590,66567,4
35587,66570,5
35581,66590,5
35590,66595,5
35596,66595,5
35602,66609,4
35615,66624,5
35615,66623,5
35622,66642,6
35623,66651,3
35634,66668,5
35637,66668,5
35640,66673,5
35646,66691,5
35651,66700,4
35650,66709,5
35668,66725,5
35675,66723,5
35668,66741,5
35675,66738,4
35676,66740,5
35683,66733,5
35680,66744,5
35680,66750,5
35675,66746,4
35672,66741,5
35672,66739,5
35685,66736,5
35677,66748,5
35673,66728,10
35656,66722,4
35666,66711,5
35661,66702,6
35654,66690,3
35617,66692,5
35656,66683,5
35635,66677,5
35641,66668,4
35599,66668,5
35628,66660,5
35631,66665,5
35626,66652,5
35637,66651,4
35631,66651,5
35633,66647,5
35633,66649,5
35669,66656,5
35633,66658,4
35633,66660,5
35638,66665,5
35684,66673,5
35639,66680,5
35648,66683,4
35654,66688,6
35677,66692,4
35656,66695,5
35650,66707,4
35654,66702,6
35662,66707,3
35672,66716,5
35668,66713,5
35672,66727,4
35671,66698,5
35671,66726,5
35667,66735,5
35666,66726,5
35667,66687,4
35679,66727,5
35676,66729,5
35661,66720,5
35670,66699,5
35665,66722,5
35671,66714,4
35663,66710,5
35654,66724,5
35648,66700,5
35653,66689,4
35651,66689,5
35643,66726,6
35647,66674,4
35640,66672,4
35645,66664,4
35626,66692,5
35637,66652,5
35626,66651,5
35628,66636,4
35622,66645,5
35617,66640,5
35617,66631,5
35609,66621,5
35612,66624,4
35612,66624,5
35603,66617,5
35602,66617,5
35610,66614,5
35606,66609,4
35598,66609,5
35609,66606,5
35602,66608,5
35604,66610,5
35606,66605,4
35605,66600,5
35598,66589,5
35588,66581,6
35585,66568,3
35585,66571,4
35578,66553,5
35565,66544,5
35565,66547,5
35564,66531,4
35558,66514,5
35555,66522,5
35562,66525,5
35556,66527,5
35569,66531,4
35569,66539,5
35571,66544,5
35579,66557,5
35574,66558,5
35580,66571,4
35588,66579,5
35583,66575,5
35588,66594,5
35604,66599,5
35599,66597,5
35604,66612,4
35609,66614,5
35611,66617,5
35605,66619,6
35609,66617,3
35606,66612,5
35599,66602,5
35581,66572,5
35581,66562,4
35575,66547,5
35565,66541,5
35557,66530,5
35561,66524,5
35551,66531,4
35557,66535,5
35565,66542,5
35571,66550,5
35576,66557,5
35575,66573,4
35586,66579,5
35593,66582,5
35596,66608,5
35617,66617,5
35604,66627,4
35615,66635,6
35625,66655,4
35635,66670,5
35636,66667,5
35645,66689,4
35645,66693,5
35652,66696,5
35652,66706,5
35654,66716,4
35661,66725,5
35670,66720,5
35670,66730,5
35665,66722,5
35673,66739,4
35663,66721,5
35676,66735,5
35672,66731,5
35666,66730,5
35666,66744,4
35666,66735,5
35676,66742,5
35674,66735,5
35647,66733,5
35672,66734,4
35669,66724,5
35658,66706,6
35625,66710,4
35651,66704,5
35656,66688,4
35650,66684,5
35621,66684,5
35644,66682,5
35635,66664,4
35631,66658,4
35654,66662,5
35627,66655,5
35629,66652,5
35626,66649,4
35663,66646,5
35633,66654,5
35627,66642,5
35628,66650,5
35654,66660,4
35630,66655,5
35630,66662,5
35634,66668,5
35654,66673,5
35634,66674,4
35645,66679,5
35641,66687,5
35650,66680,6
35653,66696,4
35646,66695,4
35650,66703,5
35655,66680,5
35662,66712,5
35659,66715,4
35658,66725,4
35659,66671,5
35664,66717,5
35657,66721,5
35657,66717,4
35663,66713,5
35668,66714,5
35668,66713,5
35662,66711,5
35655,66738,4
35652,66694,5
35647,66698,5
35642,66699,5
35658,66727,5
35646,66675,5
35639,66671,4
35629,66669,5
35629,66689,5
35616,66651,5
35620,66644,4
35622,66631,5
35625,66639,5
35609,66634,5
35619,66630,4
35612,66619,4
35615,66622,5
35611,66611,5
35603,66606,5
35604,66604,4
35601,66589,5
35585,66590,5
35583,66584,5
35578,66567,5
35585,66557,4
35574,66554,5
35570,66544,5
35566,66540,5
35571,66539,5
35563,66544,4
35560,66545,6
35571,66544,4
35570,66536,5
35565,66545,5
35559,66538,4
35555,66530,5
35556,66536,5
35555,66520,5
35549,66511,5
35550,66504,4
35544,66496,5
35541,66491,5
35540,66482,5
35538,66490,4
35534,66503,4
35543,66501,5
35538,66492,5
35546,66501,5
35536,66483,4
35534,66486,5
35534,66470,5
35532,66477,5
35531,66482,5
35528,66486,4
35537,66486,5
35530,66490,6
35540,66500,4
35542,66509,5
35556,66508,4
35560,66527,5
35566,66540,5
35568,66543,5
35569,66565,5
35579,66568,4
35594,66576,5
35599,66599,5
35596,66605,5
35609,66623,4
35611,66622,4
35619,66642,5
35621,66644,5
35625,66662,5
35632,66657,4
35636,66676,5
35631,66683,5
35644,66687,5
35646,66691,5
35644,66695,4
35639,66690,5
35642,66700,5
35652,66691,5
35649,66707,5
35647,66685,4
35645,66692,5
35651,66700,5
35650,66701,5
35652,66701,5
35646,66695,4
35647,66692,5
35642,66695,5
35640,66683,5
35642,66674,4
35629,66670,4
35627,66658,5
35626,66654,5
35616,66644,5
35619,66638,4
35592,66632,5
35614,66628,5
35615,66626,5
35607,66625,5
35576,66624,5
35605,66614,4
35603,66626,5
35614,66623,5
35594,66627,5
35607,66626,4
35613,66641,5
35611,66641,5
35647,66649,5
35626,66653,5
35628,66666,4
35635,66665,5
35676,66669,5
35636,66676,5
35633,66673,5
35627,66661,4
35655,66656,5
35608,66640,5
35604,66636,5
35610,66620,4
35606,66607,5
35598,66603,6
35590,66601,4
35598,66595,5
35593,66591,4
35599,66604,7
35594,66602,3
35598,66601,5
35596,66562,5
35597,66598,4
35586,66571,4
35577,66567,5
35567,66509,5
35564,66534,5
35551,66526,4
35549,66510,5
35541,66511,5
35547,66508,5
35551,66506,5
35545,66515,4
35552,66558,5
35557,66527,5
35562,66542,5
35569,66546,4
35567,66594,4
35571,66563,5
35578,66571,6
35584,66583,4
35580,66599,4
35585,66575,5
35579,66590,5
35584,66590,5
35595,66591,5
35593,66590,4
35587,66584,5
35590,66585,5
35587,66597,5
35597,66595,5
35584,66583,4
35591,66580,5
35583,66568,5
35570,66566,5
35577,66561,5
35570,66554,4
35570,66551,5
35571,66555,5
35574,66555,5
35577,66569,5
35576,66575,4
35587,66585,5
35585,66583,5
35598,66598,6
35593,66604,3
35607,66612,5
35605,66625,5
35616,66645,5
35618,66656,5
35627,66664,4
35641,66687,5
35637,66693,5
35648,66701,5
35654,66708,5
35661,66720,4
35659,66728,5
35662,66730,5
35678,66740,5
35673,66738,5
35676,66753,4
35687,66752,5
35675,66754,5
35678,66767,5
35686,66758,5
35680,66762,5
35692,66766,4
35692,66760,5
35689,66769,5
35688,66768,6
35676,66763,3
35680,66748,5
35673,66741,5
35673,66727,5
35667,66712,4
35662,66708,5
35656,66718,5
35660,66707,5
35650,66689,5
35649,66692,4
35645,66684,5
35640,66673,5
35636,66678,5
35632,66673,5
35634,66662,4
35631,66672,5
35631,66673,5
35637,66666,5
35629,66664,5
35626,66670,4
35642,66677,6
35637,66676,4
35633,66672,5
35636,66676,4
35626,66663,4
35635,66675,5
35636,66668,5
35630,66670,5
35643,66669,4
35635,66673,5
35639,66683,5
35644,66681,5
35648,66684,5
35647,66707,7
35661,66718,2
35666,66733,5
35669,66753,5
35663,66760,5
35684,66762,4
35692,66770,5
35661,66771,5
35686,66768,5
35685,66775,5
35685,66763,4
35653,66760,5
35681,66753,6
35681,66757,4
35683,66755,4
35661,66743,4
35670,66734,5
35673,66732,5
35669,66730,5
35680,66719,4
35657,66716,5
35654,66709,5
35655,66704,5
35689,66691,5
35645,66699,4
35640,66691,5
35633,66681,5
35669,66674,5
35639,66675,5
35641,66673,4
35636,66671,5
35641,66666,5
35635,66669,5
35625,66658,5
35643,66665,4
35630,66643,5
35626,66663,5
35634,66656,6
35627,66659,3
35630,66619,4
35628,66652,5
35621,66659,5
35631,66646,5
35626,66603,4
35623,66649,5
35619,66646,4
35621,66641,5
35613,66642,5
35613,66632,4
35609,66627,5
35600,66619,5
35595,66646,5
35598,66600,5
35591,66594,4
35581,66575,5
35593,66623,5
35577,66574,5
35579,66563,5
35592,66566,5
35586,66587,4
35580,66579,5
35583,66581,5
35586,66589,5
35599,66600,4
35598,66599,5
35602,66612,5
35602,66620,5
35606,66626,4
35608,66636,4
35615,66634,5
35621,66640,5
35627,66649,5
35621,66665,4
35630,66655,5
35635,66662,5
35630,66660,5
35617,66631,5
35613,66616,4
35597,66606,5
35603,66604,5
35589,66588,5
35592,66574,5
35578,66577,4
35576,66596,6
35591,66594,4
35591,66600,5
35600,66606,5
35597,66623,4
35613,66619,5
35612,66637,5
35623,66654,5
35631,66678,4
35643,66689,4
35652,66703,5
35649,66714,5
35656,66726,5
35674,66733,4
35664,66744,5
35685,66752,5
35684,66768,5
35686,66773,5
35692,66773,4
35695,66780,5
35693,66791,5
35701,66794,5
35700,66798,5
35706,66793,4
35707,66803,5
35706,66794,6
35706,66802,4
35708,66804,5
35708,66804,4
35700,66801,5
35707,66807,5
35712,66810,5
35710,66806,5
35705,66803,4
35707,66793,5
35701,66785,5
35694,66775,5
35690,66771,4
35688,66766,5
35687,66762,5
35675,66759,5
35674,66748,5
35680,66747,4
35670,66735,5
35667,66733,5
35659,66725,5
35667,66722,5
35659,66719,4
35659,66714,5
35659,66715,5
35654,66712,6
35661,66706,4
35658,66711,4
35662,66717,5
35650,66715,5
35656,66719,5
35672,66720,5
35659,66739,4
35670,66740,5
35684,66750,5
35682,66758,5
35681,66765,4
35681,66759,4
35688,66777,5
35691,66773,5
35666,66773,5
35702,66784,4
35697,66781,5
35696,66780,5
35663,66787,5
35702,66796,5
35695,66792,5
35704,66793,4
35691,66791,5
35698,66783,5
35690,66784,5
35687,66775,4
35719,66774,5
35689,66761,5
35682,66753,5
35679,66753,5
35708,66746,4
35673,66729,5
35672,66733,5
35658,66716,5
35687,66714,4
35653,66704,4
35654,66707,5
35656,66705,5
35660,66694,5
35640,66683,4
35638,66677,5
35634,66669,5
35626,66635,5
35619,66641,5
35617,66632,4
35607,66631,6
35599,66586,4
35613,66619,5
35605,66610,5
35602,66621,4
35608,66586,5
35615,66638,5
35614,66644,5
35629,66643,5
35631,66651,4
35630,66660,5
35625,66661,5
35635,66668,5
35632,66709,5
35631,66682,4
35645,66687,5
35636,66680,5
35638,66729,5
35645,66680,4
35642,66692,5
35643,66690,5
35634,66691,5
35632,66664,5
35625,66655,4
35619,66618,5
35598,66615,6
35594,66605,4
35586,66592,5
35585,66576,4
35577,66569,5
35582,66582,5
35587,66594,5
35596,66593,5
35593,66599,4
35600,66621,5
35606,66626,5
35604,66634,5
35619,66638,5
35619,66652,4
35631,66673,5
35632,66681,5
35647,66699,5
35653,66709,4
35670,66721,4
35670,66743,5
35675,66741,5
35672,66759,5
35683,66764,4
35691,66769,5
35697,66782,5
35697,66788,5
35697,66796,5
35699,66790,4
35702,66796,5
35710,66802,5
35702,66804,5
35707,66803,5
35708,66808,4
35709,66808,5
35702,66811,5
35710,66807,5
35706,66815,5
35708,66814,4
35707,66800,5
35701,66791,5
35704,66784,5
35682,66771,4
35686,66756,4
35680,66766,4
35679,66749,5
35680,66754,5
35681,66748,6
35674,66741,3
35665,66740,5
35667,66734,5
35665,66727,5
35657,66728,4
35669,66732,5
35664,66731,5
35668,66734,5
35669,66732,5
35664,66729,4
35664,66734,5
35666,66742,5
35675,66743,5
35673,66754,5
35680,66768,4
35688,66780,5
35692,66790,5
35691,66793,5
35697,66808,4
35710,66812,4
35714,66819,6
35719,66841,4
35723,66838,5
35721,66848,4
35730,66843,7
35722,66848,3
35731,66840,5
35726,66839,5
35730,66845,4
35722,66819,5
35719,66830,5
35716,66828,5
35715,66818,5
35709,66823,4
35693,66807,5
35702,66800,5
35704,66796,5
35699,66790,5
35668,66785,4
35681,66775,5
35678,66758,5
35664,66733,5
35619,66712,4
35653,66696,4
35629,66661,5
35623,66650,6
35615,66635,4
35604,66612,4
35602,66602,5
35590,66580,5
35613,66578,5
35586,66569,5
35576,66578,4
35587,66583,5
35636,66614,5
35604,66615,5
35612,66627,5
35619,66649,4
35653,66657,5
35631,66673,5
35636,66677,5
35633,66686,5
35646,66689,4
35642,66699,5
35644,66699,5
35643,66708,5
35656,66684,5
35646,66717,4
35654,66703,5
35653,66703,5
35651,66669,6
35642,66689,4
35635,66673,4
35625,66660,5
35621,66614,5
35613,66643,5
35610,66632,4
35599,66623,5
35611,66632,5
35615,66631,5
35616,66640,5
35617,66647,4
35623,66703,5
35627,66669,5
35632,66686,5
35642,66693,5
35639,66750,4
35657,66730,5
35676,66738,5
35671,66754,5
35686,66784,5
35700,66785,5
35701,66802,4
35702,66818,5
35708,66833,5
35711,66841,6
35734,66846,3
35735,66855,5
35743,66867,5
35737,66879,5
35750,66885,4
35753,66899,5
35758,66915,5
35767,66903,5
35765,66914,5
35766,66922,4
35764,66928,5
35769,66932,5
35770,66938,5
35772,66929,5
35768,66936,4
35776,66932,5
35759,66921,5
35765,66924,5
35760,66911,5
35757,66905,4
35754,66907,6
35761,66913,4
35755,66911,5
35753,66899,4
35743,66893,4
35740,66876,5
35747,66879,5
35741,66883,5
35735,66887,4
35741,66879,5
35749,66880,5
35746,66884,5
35745,66888,5
35754,66901,4
35747,66898,5
35756,66917,5
35764,66919,5
35765,66926,5
35781,66935,4
35774,66961,5
35786,66973,5
35799,66984,5
35804,67004,5
35813,67015,4
35818,67026,5
35826,67032,6
35828,67044,4
35842,67054,5
35833,67063,4
35851,67075,5
35847,67077,5
35852,67080,5
35847,67076,4
35848,67075,4
35842,67076,5
35845,67066,5
35831,67057,5
35832,67040,4
35824,67030,5
35820,67017,5
35800,66997,5
35799,66988,5
35797,66985,4
35784,66973,5
35780,66967,5
35780,66968,5
35778,66963,5
35784,66969,4
35787,66965,5
35780,66969,5
35788,66974,11
35788,66974,3
35775,66975,5
35778,66970,5
35780,66980,5
35786,66976,4
35773,66968,4
35779,66952,5
35773,66940,5
35756,66922,5
35709,66910,4
35744,66902,5
35731,66881,5
35733,66883,5
35688,66880,5
35732,66878,4
35734,66892,5
35738,66901,5
35744,66910,5
35754,66924,5
35752,66935,5
35759,66943,4
35810,66950,5
35771,66969,5
35786,66992,5
35792,66987,4
35845,67004,5
35794,67005,5
35805,67029,5
35809,67041,4
35837,67051,4
35819,67057,5
35827,67060,5
35833,67068,5
35834,67070,4
35825,67072,5
35835,67085,5
35828,67083,5
35840,67055,5
35839,67070,4
35841,67079,5
35834,67086,5
35838,67044,5
35826,67074,5
35835,67076,4
35830,67066,6
35824,67031,4
35830,67048,5
35816,67036,5
35811,67036,5
35805,67025,4
35797,67019,5
35795,67002,5
35796,67008,5
35797,67045,4
35784,66990,5
35790,66997,5
35792,66988,5
35786,67017,4
35782,66990,4
35781,66984,5
35783,66991,5
35786,67018,5
35795,67002,4
35795,67006,5
35803,67014,5
35794,67019,5
35805,67033,5
35809,67041,4
35813,67051,5
35832,67063,6
35831,67082,4
35842,67081,5
35842,67098,4
35850,67112,5
35860,67125,5
35866,67138,5
35867,67135,5
35875,67142,4
35874,67158,5
35872,67167,5
35880,67171,5
35879,67167,4
35872,67158,4
35872,67162,5
35866,67149,5
35863,67143,5
35863,67138,4
35849,67127,5
35847,67108,5
35844,67103,5
35846,67093,5
35833,67081,4
35828,67065,5
35819,67058,5
35814,67045,5
35816,67043,5
35805,67040,4
35813,67033,5
35804,67032,5
35792,67034,5
35799,67037,5
35812,67041,4
35819,67049,5
35808,67049,5
35814,67046,5
35811,67046,5
35819,67049,4
35813,67051,5
35813,67054,5
35818,67049,5
35817,67040,4
35796,67028,5
35798,67030,5
35796,67008,5
35792,66985,5
35779,66981,5
35775,66977,4
35772,66986,5
35783,66983,5
35781,66984,5
35777,66996,4
35777,66988,5
35788,67002,5
35780,66998,5
35791,67004,5
35793,67018,4
35800,67022,5
35805,67028,5
35806,67037,5
35807,67039,5
35822,67043,4
35807,67048,5
35819,67045,5
35814,67055,5
35811,67053,4
35811,67054,4
35805,67059,5
35803,67050,5
35812,67049,5
35813,67047,4
35817,67055,6
35807,67060,4
35809,67048,5
35807,67043,5
35805,67038,4
35806,67043,5
35794,67044,5
35804,67046,5
35797,67036,5
35808,67027,4
35764,67038,5
35790,67030,5
35790,67031,5
35800,67024,5
35763,67027,4
35795,67035,5
35793,67024,5
35794,67030,5
35797,67028,5
35797,67027,4
35787,67020,5
35792,67021,6
35832,67019,4
35790,67029,4
35796,67022,5
35800,67038,5
35839,67027,5
35802,67039,5
35796,67037,4
35807,67039,5
35821,67048,5
35798,67049,5
35810,67054,5
35807,67059,4
35809,67059,5
35802,67063,5
35807,67066,5
35810,67062,5
35806,67039,4
35802,67050,5
35806,67064,5
35803,67051,5
35805,67010,5
35809,67049,4
35794,67051,5
35789,67048,5
35794,67013,6
35791,67034,3
35789,67034,4
35797,67025,5
35785,67039,5
35772,67012,5
35766,66998,4
35772,66995,5
35766,67031,5
35771,66986,5
35764,66984,5
35766,66991,4
35767,67039,5
35764,66987,5
35771,66987,5
35765,66985,5
35768,67005,4
35768,66991,5
35765,67012,5
35774,66999,5
35778,67004,5
35769,67011,5
35772,66999,4
35772,67006,5
35768,67005,5
35766,66998,6
35761,66976,3
35751,66972,5
35745,66957,5
35743,66943,5
35738,66921,4
35724,66910,5
35725,66906,5
35717,66905,5
35716,66905,5
35715,66898,4
35705,66903,5
35715,66902,5
35717,66898,5
35723,66902,5
35715,66902,4
35724,66908,5
35723,66900,5
35720,66909,5
35715,66913,5
35717,66912,4
35726,66914,6
35720,66915,4
35717,66906,5
35724,66908,5
35719,66909,6
35716,66916,3
35714,66906,5
35721,66904,5
35713,66905,4
35727,66915,4
35724,66908,5
35720,66909,5
35729,66910,5
35725,66916,4
35729,66924,5
35730,66935,5
35736,66948,5
35748,66956,5
35755,66954,4
35750,66969,5
35766,66984,5
35770,66984,5
35768,66990,5
35770,66997,4
35775,66999,5
35787,67018,6
35788,67026,4
35795,67027,5
35798,67033,4
35792,67039,5
35802,67051,5
35801,67042,5
35811,67051,4
35812,67057,4
35811,67049,5
35821,67053,5
35819,67058,5
35813,67070,4
35826,67077,5
35829,67067,5
35834,67079,5
35834,67097,5
35843,67102,4
35844,67103,5
35844,67110,5
35846,67105,5
35855,67103,5
35859,67106,4
35861,67115,5
35860,67120,5
35865,67123,6
35869,67132,4
35870,67140,4
35873,67139,5
35873,67145,5
35858,67144,5
35872,67147,5
35877,67135,4
35871,67136,5
35836,67137,5
35863,67130,5
35865,67111,4
35858,67101,4
35821,67078,5
35842,67055,5
35831,67041,5
35818,67019,4
35801,66998,5
35793,66980,5
35796,66961,5
35773,66943,5
35796,66938,5
35768,66916,4
35764,66903,5
35762,66892,5
35790,66895,6
35747,66894,3
35748,66898,5
35756,66923,5
35786,66946,5
35778,66959,5
35796,66979,4
35808,67002,5
35819,67016,5
35821,67024,5
35822,67047,4
35836,67037,4
35830,67024,5
35824,67037,5
35817,67027,5
35806,67005,4
35802,66960,5
35793,66974,5
35789,66955,5
35773,66935,5
35770,66895,4
35758,66926,6
35772,66931,4
35769,66924,5
35766,66939,5
35775,66932,4
35771,66927,5
35774,66930,5
35771,66977,5
35778,66943,5
35780,66949,4
35781,66955,5
35785,66991,5
35779,66955,5
35797,66972,5
35797,66976,4
35792,67004,5
35799,66983,5
35803,66986,5
35802,67001,4
35806,67007,5
35813,67004,5
35818,67001,5
35816,66999,5
35808,67008,4
35815,67004,5
35815,67011,6
35819,67005,4
35817,67013,5
35823,67024,4
35821,67027,5
35828,67021,5
35829,67033,5
35827,67031,5
35824,67029,4
35833,67031,5
35829,67031,5
35833,67043,5
35830,67039,5
35834,67038,4
35840,67036,5
35827,67042,5
35834,67044,5
35835,67045,4
35837,67036,4
35831,67021,5
35829,67026,5
35819,67031,5
35822,67023,4
35818,67017,5
35813,67014,5
35810,67002,6
35815,66994,4
35810,66988,4
35812,66993,5
35808,66994,5
35806,66986,5
35805,66982,5
35807,66976,4
35808,66971,5
35797,66976,5
35801,66980,5
35804,66975,5
35799,66973,4
35801,66976,5
35805,66980,5
35796,66974,5
35799,66976,5
35799,66977,4
35801,66981,5
35802,66977,5
35801,66989,5
35810,66984,5
35805,66994,4
35808,66988,5
35797,66994,5
35813,66998,5
35805,67000,4
35806,66990,5
35817,67000,5
35810,66994,5
35810,67000,5
35816,66998,4
35804,66997,5
35811,67003,5
35814,66993,5
35807,66993,5
35807,66989,4
35804,66985,5
35799,66984,8
35802,66994,2
35801,67008,5
35803,66980,4
35810,66980,5
35801,66976,5
35796,66968,5
35796,66975,4
35793,66966,5
35784,66963,4
35790,66971,5
35788,66964,5
35778,66962,4
35785,66960,5
35781,66953,5
35788,66951,5
35750,66957,5
35789,66952,4
35786,66958,5
35784,66952,5
35749,66947,5
35785,66953,5
35778,66947,4
35791,66946,5
35778,66944,5
35774,66942,5
35777,66941,5
35777,66936,4
35808,66937,5
35768,66941,5
35772,66935,5
35778,66934,5
35813,66919,4
35760,66922,6
35765,66915,4
35762,66914,5
35779,66914,4
35756,66903,5
35758,66901,5
35756,66898,5
35760,66896,5
35749,66890,4
35761,66887,5
35745,66881,5
35738,66858,5
35742,66880,5
35733,66870,4
35740,66876,5
35737,66830,5
35732,66857,5
35724,66860,5
35726,66858,4
35733,66822,4
35722,66851,5
35733,66856,5
35739,66843,5
35731,66853,4
35720,66853,5
35735,66840,5
35724,66852,5
35714,66887,4
35724,66838,4
35714,66836,5
35710,66823,5
35718,66856,5
35702,66798,4
35680,66776,5
35674,66758,5
35665,66754,5
35660,66718,5
35654,66713,4
35649,66714,5
35658,66724,5
35659,66718,5
35658,66724,5
35666,66728,4
35663,66732,5
35667,66746,5
35675,66762,5
35681,66772,6
35686,66779,3
35683,66787,5
35692,66805,5
35699,66811,5
35704,66820,4
35721,66840,4
35724,66850,5
35718,66847,5
35720,66857,5
35722,66842,4
35719,66835,5
35708,66812,5
35700,66799,5
35696,66784,5
35686,66782,4
35667,66750,5
35663,66751,5
35663,66741,5
35670,66737,5
35678,66746,4
35675,66759,5
35674,66761,4
35673,66760,5
35674,66766,5
35686,66775,5
35690,66787,3
35698,66802,5
35699,66807,5
35706,66805,5
35712,66817,4
35702,66817,5
35711,66827,5
35718,66835,5
35714,66840,4
35719,66851,5
35721,66858,5
35721,66863,5
35728,66869,5
35728,66870,4
35734,66875,5
35746,66883,5
35743,66884,5
35739,66883,5
35731,66875,4
35746,66885,5
35747,66881,6
35745,66872,4
35749,66893,5
35739,66892,4
35749,66896,5
35743,66890,5
35744,66898,5
35745,66886,5
35742,66880,4
35748,66879,5
35743,66878,5
35743,66878,5
35739,66872,4
35744,66871,4
35737,66865,5
35736,66871,5
35729,66863,5
35729,66853,4
35724,66856,5
35723,66846,5
35715,66844,5
35722,66848,5
35720,66836,4
35714,66840,5
35724,66842,5
35724,66842,6
35726,66848,4
35725,66850,4
35716,66859,5
35731,66862,5
35730,66869,5
35737,66879,5
35718,66888,4
35750,66894,5
35754,66906,5
35761,66919,5
35720,66933,4
35771,66934,4
35767,66939,5
35771,66942,5
35766,66953,5
35780,66965,4
35790,66972,5
35794,66980,5
35821,66983,5
35789,66980,5
35795,66989,5
35790,66980,4
35841,66987,5
35787,66981,5
35792,66986,6
35793,66981,3
35813,66972,5
35789,66962,5
35783,66959,5
35783,66959,5
35788,66945,4
35773,66950,5
35772,66931,5
35756,66924,5
35759,66906,5
35750,66916,4
35758,66911,5
35750,66902,5
35747,66866,5
35745,66899,4
35743,66888,5
35743,66879,5
35742,66837,5
35723,66860,5
35726,66851,4
35714,66829,6
35709,66840,4
35705,66808,5
35702,66803,5
35690,66789,6
35689,66821,3
35683,66778,5
35676,66775,5
35674,66781,5
35675,66822,4
35691,66777,5
35689,66792,5
35696,66800,5
35691,66811,5
35698,66810,4
35697,66819,5
35701,66815,5
35697,66829,5
35710,66827,4
35704,66827,4
35705,66817,5
35699,66827,5
35703,66833,5
35696,66822,4
35705,66817,5
35697,66798,6
35676,66782,4
35669,66758,5
35656,66748,4
35657,66733,5
35648,66726,5
35647,66711,5
35644,66722,5
35651,66717,4
35656,66728,5
35652,66740,5
35655,66747,5
35670,66752,5
35676,66774,4
35676,66788,5
35686,66803,5
35698,66818,5
35704,66828,4
35716,66848,4
35721,66861,5
35726,66876,5
35728,66887,5
35745,66897,4
35745,66915,5
35749,66920,5
35763,66929,6
35764,66936,4
35763,66938,4
35768,66952,5
35773,66958,5
35777,66967,5
35784,66966,5
35776,66963,4
35778,66966,5
35775,66969,5
35781,66976,5
35785,66987,5
35787,66982,4
35783,66982,5
35792,66977,5
35784,66973,5
35783,66967,5
35779,66961,4
35776,66963,5
35779,66939,5
35764,66945,5
35768,66937,5
35756,66935,4
35756,66927,5
35758,66917,5
35753,66909,6
35746,66909,3
35740,66900,5
35749,66901,5
35745,66909,5
35742,66901,5
35749,66917,4
35748,66916,5
35746,66923,5
35756,66934,5
35754,66932,5
35765,66956,4
35776,66964,5
35771,66984,5
35783,66984,5
35785,67005,5
35796,67026,4
35806,67031,5
35807,67050,5
35818,67062,5
35815,67063,4
35834,67073,6
35835,67084,4
35816,67104,5
35833,67098,5
35838,67101,4
35834,67109,5
35812,67102,5
35847,67111,5
35836,67100,5
35828,67082,4
35794,67082,5
35827,67063,5
35814,67059,5
35812,67044,5
35809,67028,4
35790,67011,5
35782,66994,5
35789,66994,5
35810,66986,5
35763,66975,4
35770,66976,5
35772,66961,5
35809,66969,5
35761,66967,4
35756,66965,4
35758,66967,6
35778,66967,4
35763,66972,5
35755,66969,4
35770,66970,5
35765,66963,5
35770,66965,5
35759,66969,5
35769,66975,4
35769,66944,5
35761,66973,5
35762,66964,5
35747,66940,5
35746,66906,4
35742,66924,5
35731,66920,5
35725,66902,5
35724,66888,5
35728,66906,4
35732,66921,5
35741,66935,5
35746,66961,5
35754,66941,4
35747,66950,4
35759,66962,5
35750,67010,6
35755,66981,4
35770,66978,4
35768,66985,5
35766,67016,5
35772,66990,5
35779,67000,5
35775,67007,4
35777,67010,5
35781,67002,5
35786,67011,5
35782,67014,5
35783,67009,4
35778,67009,5
35775,67011,5
35785,67014,5
35780,67000,5
35792,67004,4
35786,67009,5
35784,67016,5
35790,67015,5
35787,67016,5
35788,67005,4
35781,67013,5
35780,67006,5
35772,66995,5
35765,66990,4
35773,66991,5
35766,66991,5
35763,66986,5
35768,66973,5
35764,66977,4
35758,66964,5
35753,66961,5
35753,66950,5
35747,66955,5
35753,66941,4
35749,66945,5
35745,66936,5
35753,66946,5
35761,66946,5
35754,66955,4
35757,66954,5
35771,66960,5
35763,66966,5
35763,66980,5
35767,66993,5
35774,66988,4
35779,67003,5
35775,67008,5
35776,66997,4
35778,67017,5
35786,67020,5
35788,67025,5
35781,67022,5
35783,67025,4
35793,67027,5
35787,67037,5
35795,67042,5
35800,67045,5
35803,67050,4
35800,67053,5
35800,67047,5
35801,67043,5
35797,67045,5
35793,67035,4
35792,67028,5
35780,67025,5
35788,67007,5
35775,67007,5
35768,66999,4
35778,66992,6
35771,66992,4
35761,66981,5
35756,66983,4
35764,66984,4
35765,66987,7
35768,66985,3
35770,66997,5
35768,67010,4
35772,67007,5
35776,67008,5
35781,67013,5
35774,67016,5
35776,67022,4
35787,67021,5
35780,67019,5
35772,67018,5
35776,67009,5
35759,66997,4
35770,66992,5
35760,66979,5
35752,66971,5
35726,66951,5
35746,66960,4
35747,66957,5
35751,66961,5
35708,66958,5
35752,66964,4
35748,66962,4
35746,66972,5
35712,66959,5
35744,66965,5
35739,66970,4
35748,66966,5
35768,66956,5
35746,66965,5
35740,66960,5
35736,66956,4
35786,66953,5
35736,66951,5
35727,66942,5
35731,66948,5
35773,66948,5
35728,66936,4
35730,66931,5
35731,66944,5
35746,66931,6
35724,66944,3
35727,66944,5
35725,66942,5
35730,66938,5
35732,66949,4
35737,66950,4
35737,66943,5
35729,66915,5
35727,66933,5
35728,66933,4
35729,66933,5
35722,66893,5
35719,66935,5
35726,66939,5
35726,66934,5
35725,66934,4
35730,66946,5
35731,66940,5
35726,66939,5
35727,66971,4
35737,66942,6
35739,66951,4
35736,66960,5
35738,67004,5
35747,66965,6
35748,66974,3
35749,66983,5
35759,67020,5
35771,67003,5
35776,67011,4
35788,67034,5
35795,67046,5
35802,67062,5
35816,67083,4
35818,67093,5
35837,67115,5
35844,67121,5
35850,67141,5
35857,67145,4
35860,67148,5
35862,67147,5
35869,67156,5
35862,67165,5
35870,67158,4
35858,67146,5
35862,67147,6
35866,67136,4
35856,67128,5
35853,67115,4
35843,67105,5
35842,67091,5
35838,67085,5
35832,67075,5
35821,67062,4
35831,67053,5
35804,67032,5
35807,67009,5
35791,67000,4
35784,66984,4
35787,66991,5
35789,66980,5
35782,66980,5
35780,66979,4
35790,66980,5
35782,66979,5
35790,66971,5
35781,66971,5
35774,66961,4
35763,66934,5
35749,66913,5
35739,66885,6
35728,66856,4
35722,66844,4
35711,66825,5
35704,66828,5
35710,66833,5
35726,66854,5
35729,66873,4
35737,66898,5
35752,66907,5
35757,66938,5
35763,66934,4
35776,66950,4
35767,66943,5
35771,66949,5
35779,66965,5
35780,66970,4
35785,66987,5
35805,66991,5
35804,67008,5
35814,67029,5
35818,67034,5
35821,67044,4
35829,67062,5
35840,67078,5
35852,67087,6
35854,67101,3
35864,67108,5
35860,67120,5
35860,67131,5
35871,67136,5
35873,67138,4
35872,67144,5
35882,67158,5
35888,67161,5
35898,67168,5
35898,67172,4
35895,67169,5
35884,67162,5
35888,67165,5
35882,67152,4
35883,67153,5
35877,67147,5
35871,67150,5
35878,67150,5
35880,67135,4
35837,67129,6
35867,67120,4
35866,67113,5
35859,67109,5
35824,67103,4
35860,67099,5
35847,67092,5
35849,67085,5
35835,67094,5
35853,67076,4
35841,67075,5
35838,67075,5
35873,67073,5
35834,67067,5
35845,67063,4
35844,67070,5
35880,67076,5
35840,67070,5
35847,67077,4
35841,67072,4
35877,67066,5
35833,67063,5
35833,67065,5
35840,67066,4
35844,67073,5
35836,67065,6
35839,67064,4
35843,67062,5
35842,67056,4
35844,67072,5
35842,67079,5
35847,67073,5
35840,67041,5
35848,67082,4
35843,67080,5
35837,67083,5
35848,67047,5
35846,67079,5
35851,67076,4
35842,67076,5
35845,67069,5
35838,67060,5
35827,67043,4
35821,67027,4
35812,67049,5
35797,66990,5
35783,66974,5
35782,66951,4
35771,66983,5
35768,66926,5
35765,66923,6
35763,66918,4
35761,66940,4
35763,66922,5
35754,66915,5
35763,66920,5
35761,66923,5
35767,66930,4
35770,66936,5
35780,66949,5
35779,66963,5
35784,66969,5
35794,66973,4
35793,66982,5
35792,66999,5
35795,66999,5
35801,67002,4
35812,67012,4
35804,67010,5
35808,67006,5
35797,66993,5
35794,66984,5
35778,66954,4
35778,66941,5
35766,66931,5
35763,66916,5
35749,66900,4
35742,66892,5
35742,66885,5
35744,66888,5
35733,66889,5
35746,66888,4
35736,66883,5
35739,66871,5
35740,66871,5
35738,66870,5
35740,66875,4
35740,66882,5
35746,66883,5
35745,66886,5
35745,66891,5
35745,66897,4
35746,66896,5
35757,66898,5
35753,66901,5
35749,66908,4
35758,66914,6
35756,66912,4
35757,66918,5
35766,66925,5
35766,66924,4
35763,66925,5
35771,66923,5
35769,66933,5
35776,66937,5
35769,66937,4
35768,66939,5
35778,66948,5
35776,66950,5
35773,66945,5
35778,66948,4
35783,66958,5
35785,66954,5
35776,66940,5
35769,66945,5
35779,66952,4
35776,66937,5
35778,66940,5
35771,66947,5
35776,66942,4
35771,66936,4
35767,66940,6
35769,66941,4
35768,66943,5
35772,66931,4
35771,66932,5
35763,66934,5
35769,66932,5
35768,66939,5
35771,66933,4
35779,66939,5
35774,66940,5
35774,66940,5
35779,66949,5
35780,66959,4
35781,66962,5
35789,66973,5
35775,66975,5
35786,66971,5
35792,66985,4
35793,66989,5
35763,66989,5
35794,66998,5
35796,67001,4
35800,66998,4
35768,67003,5
35804,67016,6
35801,67015,4
35810,67012,4
35812,67012,5
35808,67012,5
35811,67005,5
35813,67006,5
35848,67015,4
35817,67008,5
35807,67006,5
35812,67000,5
35856,67019,5
35804,67014,4
35805,67005,5
35810,66996,5
35819,66993,5
35797,66995,5
35806,66989,4
35800,66979,5
35803,66993,5
35794,66982,5
35793,66974,5
35786,66974,4
35785,66942,5
35790,66962,5
35782,66957,5
35781,66954,4
35780,66918,5
35777,66944,5
35766,66941,5
35769,66941,5
35770,66906,4
35772,66928,5
35763,66935,5
35757,66925,5
35764,66931,5
35755,66912,4
35756,66895,5
35743,66873,5
35731,66907,5
35717,66837,5
35705,66830,4
35699,66806,6
35696,66835,4
35691,66795,5
35686,66783,5
35694,66787,6
35686,66805,3
35697,66806,5
35688,66799,5
35703,66810,4
35704,66819,5
35702,66821,5
35708,66844,5
35710,66840,5
35721,66864,4
35730,66876,5
35729,66877,5
35737,66888,5
35743,66891,5
35745,66902,4
35747,66909,5
35753,66919,5
35748,66915,5
35749,66901,5
35746,66889,4
35734,66870,5
35722,66850,5
35714,66851,4
35713,66835,5
35703,66818,4
35698,66812,6
35698,66801,3
35698,66808,5
35698,66811,4
35701,66807,4
35701,66809,5
35706,66822,5
35702,66825,5
35700,66829,4
35703,66834,5
35707,66841,5
35715,66841,5
35718,66857,5
35717,66866,4
35730,66872,5
35737,66883,5
35735,66894,5
35746,66889,5
35739,66890,4
35750,66895,5
35764,66904,5
35758,66916,6
35754,66919,4
35755,66913,4
35749,66917,5
35755,66918,5
35753,66918,5
35753,66922,4
35752,66913,4
35761,66920,5
35756,66921,5
35762,66919,5
35763,66921,4
35756,66912,5
35756,66912,5
35744,66911,5
35747,66906,5
35745,66898,4
35736,66886,5
35738,66893,5
35735,66879,5
35741,66872,5
35725,66881,10
35730,66866,4
35726,66855,5
35730,66859,6
35720,66867,3
35717,66863,5
35716,66850,5
35712,66851,5
35725,66862,4
35723,66853,4
35719,66865,5
35720,66864,5
35723,66872,5
35728,66872,4
35732,66879,5
35729,66896,5
35741,66901,5
35753,66898,5
35754,66913,4
35735,66931,5
35754,66921,5
35763,66936,5
35770,66922,5
35735,66942,4
35767,66943,6
35776,66953,4
35773,66948,5
35737,66956,5
35769,66960,6
35778,66964,3
35775,66957,5
35786,66967,5
35779,66959,4
35775,66958,4
35779,66961,5
35821,66963,5
35777,66953,5
35771,66953,4
35764,66946,5
35800,66937,5
35763,66935,5
35758,66927,5
35754,66924,4
35775,66916,5
35760,66911,5
35751,66909,5
35749,66904,5
35742,66897,4
35737,66895,5
35734,66882,6
35735,66868,4
35731,66839,5
35727,66854,4
35722,66852,5
35713,66830,5
35709,66788,5
35695,66811,5
35694,66796,4
35698,66791,5
35688,66774,5
35681,66790,5
35685,66787,4
35692,66790,5
35691,66819,5
35704,66804,5
35693,66811,5
35697,66820,4
35702,66860,5
35703,66824,5
35707,66832,5
35708,66830,5
35705,66857,4
35722,66841,5
35715,66850,5
35707,66851,6
35716,66854,4
35713,66847,4
35709,66852,5
35714,66845,5
35708,66833,5
35695,66810,5
35694,66800,4
35683,66785,5
35683,66779,5
35673,66759,5
35670,66756,4
35672,66769,5
35678,66768,5
35675,66772,5
35683,66790,5
35679,66795,4
35685,66793,5
35695,66807,5
35695,66814,5
35705,66830,5
35707,66829,5
35712,66843,4
35715,66853,5
35724,66865,5
35726,66880,6
35729,66890,3
35732,66901,5
35744,66902,5
35750,66925,5
35760,66926,5
35750,66935,4
35759,66939,5
35759,66939,5
35763,66945,5
35762,66949,4
35766,66953,4
35776,66956,5
35770,66956,5
35782,66973,5
35778,66974,4
35776,66976,5
35778,66974,5
35771,66966,5
35773,66958,5
35770,66953,4
35757,66944,6
35765,66937,4
35761,66934,5
35757,66929,5
35754,66926,4
35746,66907,5
35746,66897,5
35729,66895,5
35736,66894,5
35733,66881,4
35730,66876,5
35736,66873,5
35732,66878,5
35728,66880,4
35731,66885,4
35732,66894,5
35730,66903,5
35741,66910,5
35746,66915,4
35743,66919,5
35761,66940,5
35764,66939,5
35773,66960,5
35778,66976,4
35785,66989,5
35784,66993,6
35789,67005,4
35807,67015,5
35799,67012,4
35806,67029,5
35807,67035,5
35818,67036,5
35809,67046,5
35809,67055,4
35815,67051,5
35815,67054,5
35819,67060,5
35821,67056,5
35827,67057,4
35815,67052,5
35796,67061,5
35818,67055,5
35817,67048,4
35814,67045,5
35773,67032,5
35800,67023,5
35807,67014,5
35786,67007,4
35764,66998,5
35778,66974,5
35781,66966,6
35758,66954,4
35775,66941,4
35760,66934,5
35756,66935,5
35748,66929,5
35783,66934,5
35752,66929,4
35746,66932,5
35755,66932,5
35789,66929,5
35747,66925,5
35748,66942,4
35753,66938,5
35756,66933,5
35755,66930,5
35750,66933,4
35740,66929,5
35743,66917,5
35738,66921,5
35745,66916,5
35745,66918,5
35750,66876,4
35736,66906,5
35726,66893,5
35718,66876,5
35719,66826,4
35702,66864,5
35706,66841,5
35691,66845,5
35700,66840,5
35711,66848,4
35705,66864,5
35714,66862,5
35711,66913,5
35718,66886,5
35720,66892,4
35730,66910,5
35734,66954,5
35743,66919,5
35745,66934,4
35743,66942,4
35757,66962,5
35762,66972,5
35761,66974,5
35767,66975,4
35778,66981,6
35771,66985,4
35775,66983,5
35774,66995,5
35775,66985,4
35783,66993,5
35774,66993,5
35772,66993,5
35780,66992,5
35781,67000,4
35780,66998,5
35777,66999,5
35780,67000,5
35788,67005,5
35782,66990,4
35771,66981,5
35776,66976,5
35771,66980,5
35763,66966,4
35767,66971,4
35767,66961,5
35762,66952,5
35764,66950,5
35753,66951,4
35754,66950,5
35748,66928,6
35745,66929,4
35738,66925,5
35739,66927,4
35745,66932,5
35749,66933,5
35747,66939,5
35752,66951,5
35748,66954,4
35756,66962,5
35758,66975,5
35765,66978,5
35773,66990,5
35784,67006,4
35779,67008,5
35801,67031,5
35802,67037,5
35804,67041,5
35812,67059,4
35810,67061,5
35814,67076,5
35824,67089,5
35821,67085,4
35829,67098,5
35824,67092,5
35818,67097,5
35826,67095,5
35834,67091,4
35828,67085,5
35823,67093,5
35820,67089,5
35817,67078,5
35809,67070,4
35809,67064,5
35808,67044,5
35800,67027,5
35798,67026,5
35785,66999,4
35777,66996,5
35768,66983,5
35772,66965,5
35758,66954,5
35759,66955,4
35745,66950,5
35742,66947,5
35744,66934,5
35749,66951,5
35747,66948,4
35746,66945,5
35755,66951,5
35753,66942,5
35753,66955,4
35753,66960,5
35750,66950,5
35751,66956,5
35754,66957,5
35748,66957,4
35769,66956,5
35747,66948,5
35747,66933,5
35711,66926,5
35737,66920,4
35733,66906,5
35731,66892,5
35691,66896,5
35721,66893,5
35725,66899,4
35741,66901,6
35715,66913,4
35747,66921,5
35752,66927,4
35749,66933,6
35774,66939,3
35759,66945,5
35771,66960,5
35774,66970,4
35821,66984,5
35782,66984,5
35784,67006,5
35799,67001,5
35828,67017,4
35801,67024,5
35799,67020,5
35812,67029,5
35818,67026,5
35803,67023,4
35806,67035,5
35809,67036,5
35813,67019,5
35807,67051,5
35816,67038,4
35816,67049,5
35823,67019,6
35821,67045,4
35814,67039,5
35816,67053,4
35813,67003,5
35811,67030,5
35818,67032,5
35808,67026,4
35806,67017,5
35802,67020,5
35796,67004,5
35803,67001,5
35799,67033,4
35782,66983,5
35782,66965,5
35775,66967,5
35772,67002,5
35769,66953,4
35765,66948,5
35767,66946,5
35772,66960,5
35768,66945,5
35772,66941,4
35774,66948,5
35767,66954,5
35770,66959,6
35761,66958,4
35767,66964,4
35782,66969,5
35774,66968,5
35780,66976,5
35785,66978,4
35783,66978,4
35795,66987,5
35793,66988,5
35786,66991,5
35792,66995,4
35797,67006,5
35793,67000,5
35798,67011,5
35797,67015,5
35798,67009,4
35801,67011,5
35802,67005,5
35795,67016,5
35799,67015,5
35800,67003,5
35794,67009,4
35791,67003,5
35793,66998,5
35799,66997,6
35795,66990,3
35794,66984,5
35782,66972,5
35786,66971,5
35767,66953,4
35764,66933,4
35752,66923,5
35749,66899,5
35736,66889,5
35730,66868,4
35715,66848,5
35714,66842,5
35705,66839,5
35708,66826,5
35708,66819,4
35707,66833,5
35707,66832,5
35698,66841,5
35714,66836,5
35715,66850,4
35710,66853,6
35716,66860,4
35720,66869,5
35723,66870,5
35729,66877,4
35728,66887,5
35731,66887,5
35736,66894,5
35732,66879,5
35733,66878,4
35729,66875,5
35721,66859,5
35716,66835,5
35699,66822,7
35696,66802,2
35686,66790,5
35656,66767,5
35665,66763,5
35665,66761,4
35674,66766,5
35674,66776,5
35674,66776,9
35680,66779,5
35680,66778,5
35682,66785,7
35682,66787,8
35694,66835,5
35706,66851,7
35706,66851,8
35722,66857,5
35724,66858,7
35718,66864,8
35742,66871,5
35744,66876,7
35734,66889,8
35734,66889,5
35704,66883,7
35748,66890,8
35746,66893,7
35739,66899,5
35719,66904,8
35738,66908,7
35751,66901,10
35751,66901,5
35747,66904,7
35782,66888,5
35746,66899,8
35733,66895,7
35744,66852,5
35736,66870,8
35736,66870,7
35721,66860,8
35721,66857,7
35716,66854,7
35719,66825,8
35719,66825,7
35717,66854,5
35726,66844,10
35725,66857,9
35738,66874,8
35738,66874,7
35759,66886,5
35743,66884,8
35735,66889,7
35744,66928,7
35757,66915,10
35757,66915,5
35747,66945,5
35757,66939,10
35761,66923,5
35757,66923,5
35757,66912,10
35760,66928,5
35749,66923,5
35750,66919,10
35750,66919,5
35735,66893,5
35740,66899,10
35737,66904,5
35744,66899,5
35724,66872,10
35724,66872,5
35681,66862,5
35692,66857,10
35707,66861,5
35715,66840,5
35712,66866,10
35702,66812,5
35664,66753,7
35664,66753,8
35662,66744,5
35655,66738,7
35656,66731,8
35641,66707,5
35598,66714,7
35656,66730,8
35656,66730,5
35658,66750,7
35665,66750,8
35674,66763,5
35664,66764,7
35651,66781,8
35683,66799,5
35679,66790,7
35695,66810,8
35695,66810,9
35696,66805,8
35683,66784,5
35667,66742,7
35641,66714,8
35641,66714,5
35657,66728,7
35645,66737,8
35642,66737,5
35659,66739,7
